DTS Sentinel unit serial number:	SN413079Multiplexer serial number:	ORYXHardware model number:	OX4-SRSoftware version number:	ORYX F/W v4.00 Oryx Data Collector v3.7.2.0data status	okinstallation	princeton_trtdifferential loss correction	single-endedforward channel	channel 4reverse channel	N/Adate	2019/09/11time	18:51:10forward acquisition time	60.00reverse acquisition time	0.00gamma	496.2192k internal	0.2282k external	0.2282temperature offset calibration	1.0030default loss term (dB/km)	0.3790temperature slope calibration	1.0000multiplexer offset coefficient	1.0000multiplexer slope coefficient	1.0000fibre end	0.00T internal ref (°C)	42.86T ext. ref 1 (°C)	1.25T ext. ref 2 (°C)	35.07length (m)	temperature (°C)	Stokes	anti-Stokes-747.200	-200.000	-0.010	-0.065
-746.185	-29.575	-0.028	-0.016
-745.171	-200.000	0.034	-0.209
-744.156	-200.000	-0.014	0.431
-743.142	-200.000	-0.014	0.156
-742.127	30.132	0.274	0.241
-741.112	-200.000	0.019	0.087
-740.098	63.675	0.283	0.292
-739.083	800.000	-0.061	-0.187
-738.069	-93.557	0.252	0.072
-737.054	-49.670	-0.247	-0.121
-736.039	-200.000	-0.015	-0.171
-735.025	-1.933	0.231	-0.167
-734.010	-200.000	-0.031	0.445
-732.996	68.091	-0.227	0.238
-731.981	594.423	-0.076	-0.192
-730.966	244.477	0.165	-0.285
-729.952	-29.683	0.199	-0.117
-728.937	800.000	-0.102	-0.327
-727.923	-11.902	-0.217	0.146
-726.908	-200.000	-0.057	0.443
-725.894	-200.000	0.244	0.001
-724.879	432.625	0.076	-0.169
-723.864	-200.000	0.006	0.026
-722.850	-81.203	-0.240	-0.082
-721.835	-7.034	0.043	0.030
-720.821	-27.012	-0.161	0.097
-719.806	-35.370	0.060	0.033
-718.791	-136.377	-0.301	-0.036
-717.777	521.924	-0.048	0.116
-716.762	-26.634	-0.378	0.227
-715.748	19.244	-0.254	0.209
-714.733	11.171	-0.209	-0.165
-713.718	63.867	-0.206	-0.213
-712.704	-200.000	-0.016	0.254
-711.689	-5.342	0.015	0.010
-710.675	800.000	-0.039	-0.110
-709.660	-200.000	0.002	0.036
-708.645	-174.683	0.198	-0.006
-707.631	-157.439	0.309	0.019
-706.616	-152.139	-0.342	-0.025
-705.602	-133.837	-0.086	0.011
-704.587	-75.800	-0.264	0.096
-703.572	65.102	0.127	-0.132
-702.558	-62.341	0.393	-0.168
-701.543	-75.325	-0.164	0.060
-700.529	393.796	0.026	-0.055
-699.514	606.461	-0.064	-0.164
-698.499	-165.831	-0.339	0.015
-697.485	511.289	-0.198	0.473
-696.470	-200.000	-0.046	0.281
-695.456	9.826	0.070	-0.055
-694.441	75.452	0.107	-0.116
-693.426	-143.758	-0.037	-0.004
-692.412	239.690	0.028	-0.047
-691.397	61.151	-0.244	0.249
-690.383	-0.470	0.222	0.162
-689.368	-50.181	-0.062	-0.030
-688.354	67.028	-0.230	0.241
-687.339	-64.519	0.140	-0.058
-686.324	82.919	-0.109	-0.122
-685.310	56.834	0.161	-0.160
-684.295	276.246	-0.111	-0.202
-683.281	557.770	-0.160	-0.397
-682.266	779.973	0.097	-0.272
-681.251	-158.350	-0.243	0.014
-680.237	-88.384	0.281	-0.086
-679.222	32.855	-0.092	-0.081
-678.208	-69.892	0.261	-0.102
-677.193	-15.504	-0.125	0.082
-676.178	629.277	0.109	0.282
-675.164	800.000	-0.046	0.153
-674.149	-90.732	0.197	-0.058
-673.135	800.000	-0.134	0.387
-672.120	-53.122	0.077	0.036
-671.105	94.630	-0.135	0.158
-670.091	-157.281	-0.110	0.007
-669.076	-157.709	-0.067	0.004
-668.062	267.473	-0.113	-0.203
-667.047	-10.055	0.224	0.153
-666.032	800.000	0.050	0.175
-665.018	-200.000	0.013	0.068
-664.003	135.761	-0.159	-0.212
-662.989	-200.000	0.021	-0.200
-661.974	285.479	0.027	0.050
-660.959	-98.715	0.199	-0.052
-659.945	118.564	-0.197	-0.249
-658.930	-91.499	-0.282	0.083
-657.916	53.792	-0.138	0.136
-656.901	-200.000	-0.018	0.147
-655.886	129.697	0.191	0.251
-654.872	-200.000	0.094	-0.426
-653.857	-200.000	-0.015	0.176
-652.843	354.165	-0.069	0.141
-651.828	89.220	0.070	-0.080
-650.814	800.000	0.034	-0.110
-649.799	46.747	0.199	-0.189
-648.784	-200.000	-0.023	-0.112
-647.770	-113.454	-0.190	0.038
-646.755	-22.127	0.100	0.062
-645.741	517.119	-0.059	0.142
-644.726	-84.675	0.377	-0.122
-643.711	-200.000	0.017	-0.159
-642.697	569.920	0.064	-0.158
-641.682	51.155	-0.202	-0.196
-640.668	197.499	-0.108	0.170
-639.653	-200.000	0.012	0.075
-638.638	175.914	0.211	0.313
-637.624	136.063	-0.099	0.132
-636.609	359.531	0.130	-0.267
-635.595	44.565	0.301	-0.283
-634.580	-200.000	0.011	0.208
-633.565	800.000	-0.040	-0.128
-632.551	20.855	0.132	0.109
-631.536	-121.290	0.127	-0.022
-630.522	-200.000	-0.018	0.157
-629.507	158.954	-0.078	-0.111
-628.492	-50.962	0.190	-0.091
-627.478	-200.000	0.035	0.229
-626.463	-200.000	-0.025	-0.213
-625.449	800.000	-0.060	0.255
-624.434	800.000	-0.032	-0.096
-623.419	-200.000	0.073	0.345
-622.405	128.038	0.163	0.211
-621.390	-96.709	-0.132	0.035
-620.376	154.878	0.029	-0.041
-619.361	218.888	-0.104	-0.171
-618.346	-121.050	0.204	-0.035
-617.332	-195.382	-0.409	-0.003
-616.317	-68.465	0.111	0.044
-615.303	800.000	-0.032	-0.114
-614.288	800.000	-0.035	0.139
-613.273	-110.346	-0.057	0.012
-612.259	28.147	-0.126	-0.109
-611.244	5.573	-0.252	-0.190
-610.230	42.290	-0.180	0.168
-609.215	-127.965	0.353	0.052
-608.201	800.000	0.074	-0.226
-607.186	-138.814	0.251	-0.028
-606.171	18.330	-0.092	-0.075
-605.157	55.148	-0.088	-0.087
-604.142	212.908	-0.173	-0.280
-603.128	297.263	0.103	-0.193
-602.113	59.419	0.266	0.268
-601.098	130.975	0.162	-0.212
-600.084	49.383	-0.224	0.216
-599.069	33.246	0.155	-0.137
-598.055	-200.000	0.005	-0.103
-597.040	433.610	0.144	-0.320
-596.025	-5.578	-0.083	0.058
-595.011	800.000	-0.061	-0.186
-593.996	-83.749	0.295	-0.096
-592.982	-36.040	-0.184	-0.102
-591.967	-141.272	0.224	-0.023
-590.952	-65.268	0.375	-0.154
-589.938	-200.000	0.043	0.492
-588.923	-200.000	0.237	-0.000
-587.909	-52.018	-0.405	0.192
-586.894	-200.000	-0.016	-0.137
-585.879	133.500	-0.082	-0.109
-584.865	131.045	0.125	0.164
-583.850	59.616	-0.088	-0.089
-582.836	-45.677	0.236	-0.119
-581.821	286.330	-0.064	-0.117
-580.806	602.670	-0.029	0.074
-579.792	-47.437	0.175	0.087
-578.777	-164.631	-0.109	0.005
-577.763	-50.827	-0.106	-0.051
-576.748	-33.847	0.377	-0.212
-575.733	800.000	0.116	-0.440
-574.719	57.113	-0.104	0.103
-573.704	1.688	-0.250	-0.184
-572.690	-168.898	-0.120	-0.005
-571.675	-61.029	0.303	-0.131
-570.661	25.269	-0.225	0.190
-569.646	423.677	-0.037	-0.082
-568.631	-154.452	-0.126	0.009
-567.617	-130.243	-0.266	-0.037
-566.602	-61.861	-0.130	-0.056
-565.588	-200.000	-0.011	-0.193
-564.573	800.000	-0.041	-0.117
-563.558	-127.790	-0.392	-0.058
-562.544	780.317	-0.043	-0.119
-561.529	-200.000	0.002	0.085
-560.515	-61.764	-0.245	0.105
-559.500	5.549	-0.116	0.088
-558.485	-200.000	-0.025	-0.279
-557.471	49.600	-0.303	-0.291
-556.456	176.383	0.221	-0.328
-555.442	178.304	0.118	-0.175
-554.427	367.815	-0.140	-0.288
-553.412	-120.478	0.261	0.045
-552.398	800.000	0.027	-0.117
-551.383	15.073	-0.252	-0.201
-550.369	83.953	-0.085	0.094
-549.354	142.936	-0.148	0.201
-548.339	800.000	-0.100	0.319
-547.325	-7.627	0.106	0.073
-546.310	800.000	0.086	0.367
-545.296	-44.107	-0.091	0.046
-544.281	-200.000	-0.009	0.053
-543.266	-200.000	0.009	0.116
-542.252	5.348	-0.074	0.055
-541.237	100.100	0.094	0.111
-540.223	-169.005	0.319	0.012
-539.208	-5.899	-0.228	0.159
-538.193	344.683	-0.119	-0.238
-537.179	164.340	-0.076	0.110
-536.164	32.445	0.163	0.144
-535.150	-116.883	0.324	-0.061
-534.135	-200.000	0.012	0.119
-533.121	310.748	0.131	0.251
-532.106	-6.781	-0.124	-0.086
-531.091	254.184	0.122	0.212
-530.077	4.217	-0.181	-0.135
-529.062	442.926	0.052	0.116
-528.048	359.539	-0.162	0.330
-527.033	134.314	-0.171	-0.226
-526.018	-89.599	0.215	0.064
-525.004	-0.313	0.048	-0.035
-523.989	-21.699	0.313	0.194
-522.975	-200.000	-0.029	-0.179
-521.960	45.870	0.236	-0.222
-520.945	126.099	0.198	-0.255
-519.931	542.461	-0.049	-0.120
-518.916	91.527	0.139	-0.159
-517.902	-150.833	0.196	0.015
-516.887	-66.364	-0.186	0.075
-515.872	-200.000	-0.020	-0.105
-514.858	638.310	0.067	0.173
-513.843	800.000	-0.075	-0.238
-512.829	-152.346	-0.026	0.002
-511.814	-90.779	0.122	-0.036
-510.799	97.578	-0.311	0.364
-509.785	-200.000	0.016	-0.084
-508.770	-80.910	0.355	0.120
-507.756	-200.000	0.031	0.494
-506.741	-5.841	0.135	0.094
-505.726	-4.801	0.103	0.072
-504.712	-26.668	-0.214	-0.128
-503.697	274.725	-0.056	0.101
-502.683	800.000	0.078	-0.339
-501.668	800.000	-0.090	-0.306
-500.653	-195.242	-0.082	-0.001
-499.639	-79.843	-0.048	-0.016
-498.624	62.497	0.176	0.179
-497.610	40.703	-0.226	-0.207
-496.595	148.037	0.049	0.068
-495.581	622.638	0.020	0.052
-494.566	-48.635	0.240	0.118
-493.551	-76.723	-0.209	-0.075
-492.537	-200.000	0.033	0.152
-491.522	-83.356	0.158	0.052
-490.508	-19.815	-0.122	0.077
-489.493	-200.000	-0.033	-0.359
-488.478	-129.029	0.254	-0.036
-487.464	136.792	0.135	0.179
-486.449	80.404	-0.166	-0.182
-485.435	-200.000	0.026	0.268
-484.420	-96.350	-0.223	0.060
-483.405	116.846	-0.128	-0.160
-482.391	-142.005	-0.052	-0.005
-481.376	172.267	0.191	-0.280
-480.362	-200.000	0.022	-0.153
-479.347	26.177	-0.108	0.092
-478.332	415.095	0.146	-0.317
-477.318	-162.299	-0.356	-0.018
-476.303	800.000	0.081	-0.308
-475.289	-98.692	-0.278	-0.072
-474.274	-113.584	0.205	-0.041
-473.259	800.000	-0.075	-0.217
-472.245	-200.000	-0.044	-0.197
-471.230	73.426	0.213	0.227
-470.216	-75.253	-0.162	0.059
-469.201	128.455	-0.138	0.179
-468.186	-0.138	-0.285	0.207
-467.172	-5.214	-0.186	0.130
-466.157	-151.650	0.280	0.021
-465.143	31.808	0.145	-0.127
-464.128	-9.673	-0.140	0.095
-463.113	800.000	0.041	0.117
-462.099	-36.541	-0.067	0.037
-461.084	291.559	0.052	-0.096
-460.070	84.868	0.112	0.125
-459.055	329.995	0.035	0.068
-458.040	-161.337	-0.216	0.011
-457.026	-78.154	-0.127	-0.044
-456.011	255.993	-0.017	-0.029
-454.997	771.070	-0.007	0.019
-453.982	-111.546	-0.081	0.017
-452.968	95.953	0.177	0.205
-451.953	-200.000	0.252	-0.000
-450.938	592.235	-0.056	-0.141
-449.924	800.000	-0.130	-0.381
-448.909	-200.000	-0.037	-0.247
-447.895	230.953	0.049	-0.082
-446.880	428.925	0.037	0.081
-445.865	-200.000	-0.030	0.379
-444.851	-84.502	-0.185	-0.059
-443.836	93.708	-0.285	0.328
-442.822	253.125	0.096	0.166
-441.807	462.072	-0.044	-0.099
-440.792	17.724	-0.259	-0.209
-439.778	-40.745	0.102	0.054
-438.763	-165.353	-0.199	-0.009
-437.749	-93.186	0.142	-0.040
-436.734	55.150	-0.024	-0.024
-435.719	-84.160	-0.235	-0.076
-434.705	-191.031	-0.195	-0.002
-433.690	800.000	-0.083	-0.270
-432.676	-200.000	-0.011	-0.213
-431.661	800.000	0.056	-0.179
-430.646	57.339	-0.154	-0.153
-429.632	-33.212	0.106	-0.059
-428.617	15.112	0.028	0.022
-427.603	201.230	-0.059	0.093
-426.588	325.886	0.108	-0.209
-425.573	-95.759	0.162	0.044
-424.559	424.636	0.046	-0.099
-423.544	-200.000	-0.044	0.277
-422.530	-140.143	0.342	-0.036
-421.515	583.073	0.097	-0.242
-420.500	-82.892	0.436	0.143
-419.486	-61.974	0.193	-0.082
-418.471	576.212	-0.037	0.093
-417.457	360.814	-0.064	0.131
-416.442	-78.635	-0.160	-0.056
-415.428	225.749	0.125	0.205
-414.413	-100.302	-0.124	0.031
-413.398	-88.429	-0.042	-0.013
-412.384	-20.327	-0.098	-0.061
-411.369	55.374	0.184	0.180
-410.355	523.720	-0.028	-0.067
-409.340	739.556	0.096	-0.263
-408.325	434.910	0.083	-0.182
-407.311	249.301	0.067	-0.116
-406.296	-46.492	0.078	-0.039
-405.282	-200.000	0.015	-0.211
-404.267	84.280	-0.186	-0.207
-403.252	-70.865	-0.195	-0.075
-402.238	-8.841	0.037	0.025
-401.223	-81.117	0.306	0.103
-400.209	362.253	0.083	-0.168
-399.194	-56.270	0.041	-0.018
-398.179	800.000	0.122	0.470
-397.165	800.000	-0.041	0.142
-396.150	17.951	-0.191	0.155
-395.136	348.421	-0.207	-0.414
-394.121	453.239	0.144	-0.323
-393.106	80.189	0.161	0.175
-392.092	320.374	0.076	0.146
-391.077	38.221	-0.289	0.261
-390.063	180.498	-0.171	-0.254
-389.048	-54.710	0.328	0.150
-388.033	32.705	-0.300	0.263
-387.019	796.135	-0.037	0.103
-386.004	677.664	-0.093	0.244
-384.990	-200.000	-0.079	-0.397
-383.975	800.000	0.075	-0.287
-382.960	-68.669	-0.273	-0.107
-381.946	800.000	0.052	-0.158
-380.931	-44.359	-0.105	0.053
-379.917	-148.647	-0.167	0.014
-378.902	-200.000	0.019	-0.114
-377.888	-173.737	-0.216	-0.007
-376.873	-200.000	-0.001	0.210
-375.858	-141.607	-0.164	-0.017
-374.844	-200.000	-0.009	0.153
-373.829	800.000	-0.088	0.271
-372.815	11.227	-0.249	0.193
-371.800	-52.568	-0.157	0.074
-370.785	-40.827	-0.227	0.119
-369.771	4.250	0.274	0.203
-368.756	-121.039	-0.315	-0.054
-367.742	-72.310	-0.083	-0.031
-366.727	-200.000	0.003	0.324
-365.712	-74.797	-0.138	-0.050
-364.698	581.021	-0.076	-0.190
-363.683	-200.000	-0.010	0.238
-362.669	-17.943	-0.195	0.124
-361.654	-200.000	-0.031	0.233
-360.639	-21.203	0.178	0.110
-359.625	-114.412	-0.043	0.008
-358.610	12.566	-0.039	-0.030
-357.596	-35.941	0.156	-0.086
-356.581	-200.000	-0.020	0.137
-355.566	-13.163	-0.228	0.150
-354.552	316.604	0.051	-0.098
-353.537	761.564	0.035	-0.095
-352.523	-174.925	-0.221	-0.006
-351.508	116.259	-0.161	-0.200
-350.493	-200.000	0.082	-0.372
-349.479	800.000	0.089	0.358
-348.464	81.589	-0.036	0.039
-347.450	123.801	0.186	-0.236
-346.435	-127.512	0.121	-0.018
-345.420	-200.000	0.042	-0.251
-344.406	-79.893	0.284	-0.097
-343.391	63.044	0.087	0.089
-342.377	-113.999	0.114	0.022
-341.362	-169.158	-0.320	-0.012
-340.348	800.000	0.050	-0.208
-339.333	-200.000	0.041	0.192
-338.318	-89.951	-0.172	0.051
-337.304	520.487	-0.045	0.108
-336.289	21.176	0.113	0.093
-335.275	-135.799	-0.172	0.021
-334.260	-68.713	-0.120	-0.047
-333.245	800.000	0.085	0.335
-332.231	-200.000	-0.174	0.000
-331.216	-82.526	0.181	0.059
-330.202	207.835	0.081	-0.127
-329.187	-200.000	-0.076	0.455
-328.172	-200.000	-0.040	0.395
-327.158	-29.750	0.179	0.103
-326.143	170.447	-0.042	0.061
-325.129	-200.000	0.004	0.071
-324.114	-61.581	-0.318	0.135
-323.099	-200.000	-0.005	-0.097
-322.085	-72.219	-0.261	-0.098
-321.070	-9.103	-0.130	-0.088
-320.056	-58.919	-0.303	-0.132
-319.041	267.339	-0.148	-0.262
-318.026	-11.732	0.187	-0.124
-317.012	53.050	0.152	-0.147
-315.997	220.762	0.130	0.210
-314.983	114.920	0.081	-0.100
-313.968	-127.725	0.043	-0.006
-312.953	126.635	0.036	0.047
-311.939	-82.588	-0.247	0.081
-310.924	-200.000	0.039	0.255
-309.910	-200.000	-0.015	0.077
-308.895	-108.643	0.258	0.056
-307.880	-179.401	0.231	0.005
-306.866	21.479	-0.118	0.097
-305.851	-84.949	-0.221	-0.070
-304.837	-200.000	0.021	0.512
-303.822	-0.087	0.111	0.080
-302.807	-200.000	-0.048	-0.289
-301.793	-8.911	0.334	0.226
-300.778	-200.000	-0.012	-0.080
-299.764	114.673	0.197	0.242
-298.749	800.000	0.076	0.330
-297.735	-32.877	-0.082	0.046
-296.720	-28.952	-0.340	0.197
-295.705	-191.904	0.485	-0.005
-294.691	-79.348	-0.144	0.049
-293.676	371.946	0.094	0.192
-292.662	-63.496	-0.252	0.105
-291.647	259.270	0.151	0.263
-290.632	-90.661	0.527	-0.154
-289.618	-200.000	0.008	-0.085
-288.603	415.586	0.182	0.392
-287.589	-4.453	-0.010	-0.007
-286.574	-200.000	0.006	0.196
-285.559	800.000	-0.075	-0.320
-284.545	800.000	0.021	0.062
-283.530	-33.437	-0.282	-0.158
-282.516	800.000	-0.068	-0.195
-281.501	167.936	0.176	0.253
-280.486	408.985	-0.048	0.102
-279.472	-63.833	-0.095	0.039
-278.457	232.073	0.070	0.115
-277.443	-141.867	0.171	0.017
-276.428	649.616	-0.062	0.160
-275.413	311.785	0.110	0.208
-274.399	800.000	0.080	-0.350
-273.384	-130.882	0.087	-0.012
-272.370	-179.919	0.310	0.007
-271.355	121.136	0.147	0.185
-270.340	800.000	0.031	-0.134
-269.326	-200.000	-0.016	0.431
-268.311	-200.000	0.005	0.156
-267.297	578.937	-0.066	0.162
-266.282	16.499	-0.091	-0.072
-265.267	-176.469	0.203	0.005
-264.253	37.742	0.150	0.134
-263.238	-138.803	-0.347	-0.038
-262.224	-24.594	0.077	0.046
-261.209	213.372	0.090	-0.144
-260.195	-77.184	-0.207	0.073
-259.180	-126.605	-0.190	-0.028
-258.165	533.589	-0.097	0.232
-257.151	681.895	0.131	0.345
-256.136	-54.298	0.241	-0.110
-255.122	165.386	-0.027	-0.039
-254.107	-127.090	-0.129	0.019
-253.092	-72.877	-0.176	-0.065
-252.078	800.000	-0.116	-0.402
-251.063	-200.000	-0.043	-0.276
-250.049	89.249	-0.058	-0.065
-249.034	-124.450	0.266	0.042
-248.019	61.508	-0.053	-0.053
-247.005	-106.357	0.023	-0.005
-245.990	651.995	-0.046	0.118
-244.976	-200.000	0.006	0.076
-243.961	765.346	-0.079	-0.218
-242.946	-200.000	-0.048	0.456
-241.932	-63.209	0.347	0.144
-240.917	-107.603	0.372	0.082
-239.903	-14.109	0.301	-0.196
-238.888	800.000	0.086	-0.370
-237.873	38.435	0.314	-0.282
-236.859	-94.870	-0.158	-0.043
-235.844	387.299	-0.177	0.369
-234.830	-200.000	0.068	-0.336
-233.815	-46.483	-0.232	-0.115
-232.800	132.345	0.150	-0.195
-231.786	86.669	-0.169	0.188
-230.771	-116.951	-0.541	0.100
-229.757	800.000	-0.024	-0.066
-228.742	479.642	-0.132	-0.302
-227.727	-200.000	0.009	-0.099
-226.713	79.667	0.083	0.089
-225.698	527.250	0.081	-0.193
-224.684	-148.571	-0.405	0.033
-223.669	-200.000	0.011	0.131
-222.655	-152.889	0.111	-0.008
-221.640	-77.295	0.416	-0.146
-220.625	139.377	0.059	-0.078
-219.611	412.452	-0.028	0.060
-218.596	-200.000	0.003	0.022
-217.582	-200.000	0.042	-0.304
-216.567	45.415	-0.046	0.043
-215.552	81.529	0.248	0.270
-214.538	97.967	-0.128	-0.148
-213.523	-186.369	-0.132	-0.002
-212.509	-61.140	-0.126	0.054
-211.494	-200.000	0.041	0.220
-210.479	-16.413	-0.342	-0.218
-209.465	-9.559	0.131	-0.088
-208.450	5.914	0.148	-0.110
-207.436	87.815	-0.042	-0.047
-206.421	325.101	-0.076	0.146
-205.406	-200.000	0.024	0.142
-204.392	-200.000	0.087	-0.000
-203.377	386.295	-0.069	0.143
-202.363	500.314	-0.171	-0.398
-201.348	39.346	0.068	-0.061
-200.333	-200.000	-0.004	-0.196
-199.319	-53.047	-0.028	-0.013
-198.304	416.537	-0.115	-0.246
-197.290	-119.342	-0.128	0.022
-196.275	163.177	0.110	0.155
-195.260	-65.976	0.205	0.083
-194.246	-200.000	0.020	0.176
-193.231	228.909	-0.214	0.351
-192.217	-200.000	-0.026	-0.175
-191.202	-84.324	0.117	-0.037
-190.187	556.774	-0.041	0.099
-189.173	-71.748	0.296	0.111
-188.158	-200.000	-0.000	0.149
-187.144	800.000	0.135	0.423
-186.129	393.961	0.118	0.246
-185.114	265.316	0.067	0.117
-184.100	147.005	-0.158	-0.213
-183.085	365.563	-0.057	-0.116
-182.071	117.183	0.149	-0.184
-181.056	375.061	0.027	0.054
-180.042	-82.757	-0.143	0.046
-179.027	506.178	0.060	-0.141
-178.012	8.993	0.062	0.047
-176.998	-32.428	0.279	0.157
-175.983	429.039	-0.074	-0.162
-174.969	-123.189	0.134	0.022
-173.954	-200.000	-0.012	-0.297
-172.939	-62.129	-0.198	-0.083
-171.925	-79.708	-0.366	-0.124
-170.910	-180.576	-0.222	0.005
-169.896	110.930	0.179	-0.216
-168.881	-200.000	0.056	0.368
-167.866	-46.112	0.207	0.102
-166.852	23.869	0.284	-0.236
-165.837	-110.352	0.122	-0.026
-164.823	412.793	-0.129	-0.275
-163.808	-200.000	0.077	0.371
-162.793	-200.000	-0.007	-0.058
-161.779	-6.962	-0.090	0.061
-160.764	5.060	-0.258	-0.191
-159.750	800.000	-0.021	0.083
-158.735	496.665	-0.080	-0.184
-157.720	-200.000	0.035	-0.233
-156.706	-127.817	0.047	0.007
-155.691	-200.000	0.062	0.330
-154.677	43.626	-0.058	0.054
-153.662	231.145	0.151	-0.248
-152.647	35.213	-0.264	0.232
-151.633	-200.000	0.331	-0.000
-150.618	-128.825	0.180	0.026
-149.604	800.000	0.115	-0.391
-148.589	-94.536	-0.231	-0.063
-147.574	279.087	0.074	-0.132
-146.560	-159.525	0.170	-0.009
-145.545	343.069	0.100	-0.196
-144.531	17.194	-0.559	-0.445
-143.516	-56.243	0.327	0.146
-142.502	-200.000	0.042	-0.289
-141.487	-200.000	-0.034	0.223
-140.472	-98.599	-0.155	0.040
-139.458	-200.000	-0.028	-0.172
-138.443	-96.925	0.039	0.010
-137.429	-50.280	-0.211	-0.100
-136.414	-147.928	0.115	0.010
-135.399	-41.602	-0.316	-0.163
-134.385	330.795	-0.033	-0.064
-133.370	-123.236	0.154	0.025
-132.356	800.000	0.080	0.258
-131.341	134.501	0.228	0.297
-130.326	33.047	-0.027	0.024
-129.312	326.267	-0.129	-0.248
-128.297	14.113	0.327	0.256
-127.283	664.488	0.064	0.166
-126.268	-200.000	0.051	-0.399
-125.253	94.923	0.152	-0.174
-124.239	353.321	0.039	-0.077
-123.224	-87.508	0.144	0.044
-122.210	47.295	-0.190	0.177
-121.195	-108.608	0.069	-0.015
-120.180	-90.289	0.260	0.076
-119.166	-47.801	0.382	-0.186
-118.151	-121.798	0.084	-0.014
-117.137	17.405	0.381	0.304
-116.122	388.994	0.101	0.210
-115.107	242.909	0.054	0.090
-114.093	-200.000	-0.015	0.186
-113.078	-56.658	0.216	0.096
-112.064	-59.897	0.076	0.033
-111.049	-178.238	0.200	0.005
-110.034	800.000	0.103	0.351
-109.020	680.913	-0.185	0.482
-108.005	-200.000	0.008	0.076
-106.991	103.113	-0.149	-0.175
-105.976	-200.000	-0.045	-0.425
-104.962	506.726	-0.103	-0.240
-103.947	800.000	0.033	0.109
-102.932	-92.135	0.229	0.065
-101.918	4.253	0.132	0.097
-100.903	146.086	0.028	-0.038
-99.889	-200.000	0.116	-0.607
-98.874	672.016	-0.103	0.269
-97.859	-69.537	0.280	0.108
-96.845	364.715	0.108	-0.217
-95.830	556.274	0.035	0.085
-94.816	72.476	-0.254	0.266
-93.801	288.938	0.099	0.179
-92.786	-141.317	-0.209	-0.021
-91.772	-51.876	0.194	-0.090
-90.757	-200.000	-0.053	0.238
-89.743	-200.000	0.042	-0.281
-88.728	428.821	0.044	0.095
-87.713	-168.041	0.402	-0.016
-86.699	800.000	0.031	0.112
-85.684	-39.385	-0.116	-0.061
-84.670	452.059	0.136	0.300
-83.655	800.000	0.075	0.263
-82.640	276.610	0.192	-0.341
-81.626	-95.434	0.138	-0.037
-80.611	6.591	-0.275	0.205
-79.597	15.002	-0.153	-0.120
-78.582	431.131	0.085	0.184
-77.567	-153.706	0.304	0.021
-76.553	-35.390	0.146	0.079
-75.538	-200.000	0.007	-0.064
-74.524	-181.369	0.190	-0.004
-73.509	389.752	-0.073	0.152
-72.494	-86.637	-0.194	0.060
-71.480	82.083	0.191	-0.207
-70.465	46.279	0.081	0.076
-69.451	17.869	0.137	0.109
-68.436	-200.000	0.021	-0.306
-67.422	-200.000	-0.042	0.456
-66.407	800.000	0.099	0.372
-65.392	-130.424	0.144	0.020
-64.378	-200.000	0.005	0.213
-63.363	468.901	0.051	0.116
-62.349	-140.805	0.297	0.031
-61.334	55.082	-0.739	-0.715
-60.319	-95.351	0.306	0.082
-59.305	-200.000	-0.092	-0.727
-58.290	47.965	0.698	0.653
-57.276	701.796	0.567	1.494
-56.261	-200.000	75.535	538.291
-55.246	562.740	1303.265	3156.159
-54.232	144.636	2537.323	3392.138
-53.217	112.955	2363.795	2866.586
-52.203	50.417	2102.145	1988.489
-51.188	44.922	2010.811	1852.288
-50.173	43.079	1991.649	1817.959
-49.159	55.828	2029.634	1968.706
-48.144	61.337	2048.879	2037.285
-47.130	45.826	2014.183	1863.316
-46.115	42.853	2003.759	1826.671
-45.100	42.804	2000.352	1823.048
-44.086	42.795	1997.781	1820.546
-43.071	42.754	1995.773	1818.273
-42.057	42.660	1993.923	1815.672
-41.042	42.744	1991.958	1814.569
-40.027	42.809	1989.924	1813.225
-39.013	42.830	1987.355	1811.006
-37.998	42.791	1986.099	1809.434
-36.984	42.693	1984.772	1807.276
-35.969	42.835	1982.115	1806.059
-34.954	42.847	1980.713	1804.812
-33.940	42.889	1979.453	1803.973
-32.925	42.846	1977.740	1801.957
-31.911	42.876	1975.869	1800.448
-30.896	42.915	1973.997	1799.021
-29.881	42.926	1972.568	1797.743
-28.867	42.874	1971.281	1796.032
-27.852	42.921	1969.140	1794.436
-26.838	42.963	1966.916	1792.707
-25.823	43.021	1964.524	1790.968
-24.809	42.945	1962.980	1788.814
-23.794	42.926	1962.291	1787.950
-22.779	42.918	1960.076	1785.788
-21.765	42.852	1958.719	1783.895
-20.750	42.838	1957.348	1782.451
-19.736	42.900	1955.929	1781.642
-18.721	42.832	1954.510	1779.674
-17.706	42.914	1952.450	1778.457
-16.692	42.888	1950.581	1776.455
-15.677	42.857	1948.986	1774.654
-14.663	42.957	1947.059	1773.709
-13.648	42.829	1946.417	1771.931
-12.633	42.795	1945.234	1770.482
-11.619	42.856	1943.508	1769.378
-10.604	42.914	1941.535	1768.018
-9.590	42.725	1941.293	1766.071
-8.575	42.754	1939.558	1764.672
-7.560	42.800	1937.616	1763.243
-6.546	42.826	1936.700	1762.567
-5.531	42.927	1934.936	1761.773
-4.517	42.872	1933.947	1760.324
-3.502	42.877	1933.190	1759.608
-2.487	42.778	1931.887	1757.491
-1.473	42.782	1931.179	1756.807
-0.458	42.911	1926.312	1753.436
0.556	41.622	1905.614	1720.855
1.571	36.369	1882.738	1655.167
2.586	31.261	1901.993	1627.568
3.600	29.672	1938.701	1644.707
4.615	28.708	1935.888	1633.600
5.629	21.675	1831.704	1486.115
6.644	8.891	1701.785	1279.178
7.659	1.947	1656.730	1191.108
8.673	1.447	1652.176	1183.837
9.688	1.254	1651.104	1181.459
10.702	1.204	1649.592	1179.885
11.717	1.116	1646.700	1177.027
12.731	1.490	1646.112	1179.408
13.746	8.743	1664.277	1249.057
14.761	19.734	1688.437	1353.605
15.775	24.635	1697.055	1398.861
16.790	25.209	1697.568	1403.652
17.804	25.271	1697.106	1403.625
18.819	25.312	1696.653	1403.451
19.834	25.374	1695.751	1403.063
20.848	25.526	1695.251	1403.715
21.863	25.609	1694.099	1403.285
22.877	25.607	1693.158	1402.360
23.892	25.575	1692.075	1401.093
24.907	25.635	1691.074	1400.608
25.921	25.633	1690.215	1399.758
26.936	25.644	1688.959	1398.676
27.950	25.666	1688.173	1398.076
28.965	25.607	1687.790	1397.174
29.980	25.644	1686.454	1396.233
30.994	25.618	1685.161	1394.835
32.009	25.624	1684.021	1393.819
33.023	25.697	1682.823	1393.267
34.038	25.637	1682.298	1392.241
35.053	25.642	1681.397	1391.414
36.067	25.572	1680.536	1390.039
37.082	25.702	1679.529	1390.084
38.096	25.609	1678.468	1388.367
39.111	25.664	1677.287	1387.689
40.126	25.597	1676.993	1386.809
41.140	25.528	1677.197	1386.324
42.155	25.567	1675.822	1385.363
43.169	25.606	1674.144	1384.151
44.184	25.630	1672.908	1383.191
45.199	25.633	1672.146	1382.466
46.213	25.569	1670.932	1380.847
47.228	25.599	1670.048	1380.227
48.242	25.622	1668.717	1379.180
49.257	25.663	1667.238	1378.151
50.271	25.620	1666.088	1376.746
51.286	25.641	1664.738	1375.667
52.301	25.584	1664.026	1374.524
53.315	25.631	1662.213	1373.264
54.330	25.631	1660.881	1372.041
55.344	25.602	1659.126	1370.246
56.359	25.618	1657.871	1369.211
57.374	25.554	1657.298	1368.131
58.388	25.660	1656.046	1367.785
59.403	25.654	1655.169	1366.891
60.417	25.673	1653.835	1365.812
61.432	25.654	1653.222	1365.045
62.447	25.717	1651.689	1364.136
63.461	25.644	1651.289	1363.131
64.476	25.686	1649.971	1362.239
65.490	25.621	1649.336	1361.100
66.505	25.666	1648.070	1360.276
67.520	25.598	1647.363	1359.060
68.534	25.645	1646.020	1358.187
69.549	25.628	1644.940	1357.045
70.563	25.642	1643.699	1356.009
71.578	25.699	1642.348	1355.201
72.593	25.681	1641.722	1354.434
73.607	25.693	1640.716	1353.572
74.622	25.732	1639.685	1352.894
75.636	25.650	1638.939	1351.543
76.651	25.616	1638.546	1350.847
77.666	25.661	1637.223	1349.973
78.680	25.574	1636.594	1348.682
79.695	25.626	1635.248	1347.843
80.709	25.625	1634.680	1347.246
81.724	25.665	1633.831	1346.731
82.739	25.683	1632.900	1345.974
83.753	25.703	1631.646	1344.976
84.768	25.664	1630.525	1343.637
85.782	25.628	1630.145	1342.938
86.797	25.763	1629.244	1343.081
87.812	25.756	1627.950	1341.845
88.826	25.692	1627.207	1340.634
89.841	25.716	1626.163	1339.835
90.855	25.697	1625.184	1338.770
91.870	25.712	1624.090	1337.867
92.884	25.710	1622.906	1336.753
93.899	25.762	1622.105	1336.359
94.914	25.726	1620.651	1334.783
95.928	25.729	1619.934	1334.097
96.943	25.713	1618.723	1332.861
97.957	25.666	1617.662	1331.518
98.972	25.694	1615.935	1330.184
99.987	25.710	1614.847	1329.293
101.001	25.729	1613.607	1328.294
102.016	25.688	1611.924	1326.493
103.030	25.679	1610.100	1324.807
104.045	25.644	1609.806	1324.190
105.060	25.664	1608.303	1322.983
106.074	25.627	1607.206	1321.688
107.089	25.658	1606.048	1320.849
108.103	25.674	1605.049	1320.024
109.118	25.759	1603.435	1319.206
110.133	25.768	1602.540	1318.422
111.147	25.807	1601.122	1317.419
112.162	25.728	1600.532	1316.244
113.176	25.802	1598.948	1315.359
114.191	25.859	1597.867	1314.769
115.206	25.764	1596.939	1313.200
116.220	25.756	1595.921	1312.185
117.235	25.814	1594.288	1311.155
118.249	25.720	1593.715	1309.881
119.264	25.711	1592.324	1308.557
120.279	25.742	1591.345	1307.861
121.293	25.767	1589.925	1306.759
122.308	25.777	1589.507	1306.373
123.322	25.838	1587.481	1305.036
124.337	25.824	1586.648	1304.133
125.352	25.815	1585.525	1303.030
126.366	25.769	1584.554	1301.787
127.381	25.830	1583.637	1301.357
128.395	25.839	1582.682	1300.518
129.410	25.805	1581.600	1299.271
130.424	25.889	1580.348	1298.731
131.439	25.908	1579.550	1298.101
132.454	25.942	1578.079	1297.022
133.468	25.909	1576.746	1295.569
134.483	25.840	1575.614	1294.029
135.497	25.912	1574.284	1293.340
136.512	25.876	1573.495	1292.319
137.527	25.851	1572.541	1291.245
138.541	25.882	1571.112	1290.176
139.556	25.911	1569.751	1289.157
140.570	25.894	1569.213	1288.474
141.585	25.904	1567.642	1287.144
142.600	25.911	1566.516	1286.159
143.614	25.865	1565.717	1285.058
144.629	25.942	1564.330	1284.355
145.643	25.903	1563.346	1283.153
146.658	25.820	1562.330	1281.615
147.673	25.798	1560.771	1280.071
148.687	25.944	1559.318	1279.802
149.702	25.832	1558.884	1278.538
150.716	25.840	1557.343	1277.213
151.731	25.777	1556.321	1275.816
152.746	25.881	1555.223	1275.545
153.760	25.877	1554.097	1274.475
154.775	25.810	1553.337	1273.268
155.789	25.859	1551.902	1272.322
156.804	25.941	1550.681	1271.788
157.819	25.885	1550.009	1270.730
158.833	25.845	1548.719	1269.277
159.848	25.870	1547.863	1268.641
160.862	25.848	1547.208	1267.836
161.877	25.814	1546.263	1266.711
162.892	25.896	1545.098	1266.222
163.906	25.905	1544.455	1265.645
164.921	25.953	1543.235	1264.872
165.935	25.947	1542.202	1263.871
166.950	25.977	1541.456	1263.356
167.964	25.981	1540.194	1262.237
168.979	25.976	1539.572	1261.585
169.994	25.960	1538.502	1260.480
171.008	25.901	1537.826	1259.401
172.023	26.005	1536.350	1258.809
173.037	25.916	1535.949	1257.752
174.052	25.936	1534.719	1256.770
175.067	26.035	1533.479	1256.331
176.081	26.113	1532.685	1256.112
177.096	26.006	1531.571	1254.343
178.110	25.939	1530.813	1253.147
179.125	26.053	1529.552	1252.796
180.140	26.048	1528.628	1251.895
181.154	25.985	1528.231	1251.022
182.169	26.086	1526.925	1250.543
183.183	25.905	1526.278	1248.645
184.198	25.944	1525.131	1247.866
185.213	25.974	1524.597	1247.525
186.227	26.088	1523.206	1247.065
187.242	26.193	1522.479	1247.087
188.256	26.081	1522.132	1245.917
189.271	26.127	1520.715	1244.969
190.286	26.107	1520.027	1244.157
191.300	25.987	1519.531	1242.811
192.315	26.101	1518.739	1242.839
193.329	26.049	1517.711	1241.534
194.344	26.089	1516.334	1240.566
195.359	26.126	1515.642	1240.149
196.373	26.195	1514.686	1239.731
197.388	26.141	1513.741	1238.477
198.402	26.079	1512.808	1237.175
199.417	26.006	1512.058	1235.956
200.432	25.999	1511.324	1235.200
201.446	26.161	1510.860	1235.821
202.461	25.987	1509.591	1233.483
203.475	26.027	1508.839	1233.030
204.490	26.087	1507.935	1232.592
205.504	26.100	1507.018	1231.821
206.519	26.111	1506.000	1230.953
207.534	26.075	1505.499	1230.192
208.548	26.165	1504.231	1229.661
209.563	26.083	1503.632	1228.501
210.577	26.098	1502.801	1227.816
211.592	26.172	1501.807	1227.398
212.607	26.162	1501.468	1226.946
213.621	26.178	1500.869	1226.458
214.636	26.201	1500.067	1225.849
215.650	26.194	1499.290	1225.059
216.665	26.226	1498.271	1224.333
217.680	26.167	1497.543	1223.229
218.694	26.192	1496.846	1222.722
219.709	26.202	1496.014	1222.003
220.723	26.229	1494.612	1220.934
221.738	26.165	1494.469	1220.277
222.753	26.209	1493.392	1219.584
223.767	26.132	1492.386	1218.135
224.782	26.066	1491.699	1217.021
225.796	26.173	1490.576	1216.720
226.811	26.228	1490.385	1216.829
227.826	26.340	1489.273	1216.566
228.840	26.237	1488.885	1215.447
229.855	26.227	1488.310	1214.800
230.869	26.290	1486.690	1213.796
231.884	26.208	1486.299	1212.821
232.899	26.336	1484.784	1212.331
233.913	26.306	1483.704	1211.143
234.928	26.272	1482.791	1210.065
235.942	26.235	1481.957	1209.030
236.957	26.328	1481.703	1209.334
237.972	26.327	1480.333	1208.103
238.986	26.348	1478.828	1206.913
240.001	26.303	1477.960	1205.797
241.015	26.284	1477.406	1205.107
242.030	26.449	1475.922	1204.887
243.045	26.491	1475.433	1204.661
244.059	26.447	1474.284	1203.328
245.074	26.409	1473.743	1202.525
246.088	26.343	1473.064	1201.429
247.103	26.445	1472.266	1201.346
248.117	26.468	1471.492	1200.765
249.132	26.486	1470.631	1200.072
250.147	26.422	1470.177	1199.170
251.161	26.470	1469.521	1198.850
252.176	26.643	1468.373	1198.954
253.190	26.638	1467.498	1198.098
254.205	26.565	1467.155	1197.231
255.220	26.530	1466.394	1196.271
256.234	26.572	1465.557	1195.759
257.249	26.586	1464.460	1194.849
258.263	26.595	1463.857	1194.314
259.278	26.605	1462.836	1193.443
260.293	26.540	1462.468	1192.609
261.307	26.668	1461.347	1192.427
262.322	26.571	1460.697	1191.158
263.336	26.558	1459.989	1190.385
264.351	26.620	1458.995	1189.879
265.366	26.643	1457.809	1188.954
266.380	26.635	1457.129	1188.244
267.395	26.628	1456.312	1187.430
268.409	26.575	1455.971	1186.696
269.424	26.570	1454.834	1185.632
270.439	26.593	1454.091	1185.073
271.453	26.617	1453.123	1184.332
272.468	26.645	1452.182	1183.646
273.482	26.636	1451.419	1182.861
274.497	26.623	1450.691	1182.082
275.512	26.602	1450.118	1181.372
276.526	26.768	1449.181	1181.582
277.541	26.710	1448.432	1180.491
278.555	26.728	1447.636	1179.854
279.570	26.683	1446.975	1178.921
280.585	26.612	1446.350	1177.845
281.599	26.693	1445.065	1177.219
282.614	26.678	1444.111	1176.240
283.628	26.681	1443.064	1175.306
284.643	26.693	1442.219	1174.591
285.657	26.788	1441.448	1174.472
286.672	26.819	1440.359	1173.683
287.687	26.693	1440.142	1172.584
288.701	26.734	1438.791	1171.647
289.716	26.826	1438.114	1171.589
290.730	26.813	1437.350	1170.779
291.745	26.834	1436.486	1170.106
292.760	26.757	1435.727	1168.885
293.774	26.762	1435.168	1168.360
294.789	26.893	1433.593	1167.816
295.803	26.933	1432.967	1167.463
296.818	26.910	1432.295	1166.660
297.833	26.919	1431.776	1166.194
298.847	26.935	1430.507	1165.162
299.862	26.879	1429.826	1164.142
300.876	26.954	1429.208	1164.015
301.891	26.897	1428.077	1162.627
302.906	26.870	1427.644	1161.999
303.920	26.886	1427.022	1161.493
304.935	26.990	1426.487	1161.619
305.949	27.044	1425.778	1161.289
306.964	26.999	1424.962	1160.232
307.979	26.925	1423.851	1158.755
308.993	26.963	1422.931	1158.144
310.008	27.055	1421.970	1157.846
311.022	27.034	1421.287	1157.054
312.037	26.946	1420.723	1155.932
313.052	27.023	1419.523	1155.344
314.066	27.094	1418.702	1155.023
315.081	27.055	1417.610	1153.784
316.095	26.996	1417.156	1152.935
317.110	27.149	1415.719	1152.636
318.125	27.141	1414.817	1151.750
319.139	27.040	1414.522	1150.767
320.154	27.132	1413.332	1150.279
321.168	27.036	1413.195	1149.460
322.183	27.110	1411.569	1148.500
323.197	27.199	1410.603	1148.179
324.212	27.209	1410.104	1147.736
325.227	27.274	1408.927	1147.082
326.241	27.178	1408.706	1146.197
327.256	27.175	1407.861	1145.391
328.270	27.210	1406.844	1144.682
329.285	27.161	1406.072	1143.644
330.300	27.302	1405.196	1143.717
331.314	27.229	1404.522	1142.607
332.329	27.304	1403.462	1142.111
333.343	27.268	1402.772	1141.223
334.358	27.300	1402.187	1140.847
335.373	27.289	1401.968	1140.503
336.387	27.324	1400.971	1139.808
337.402	27.354	1400.348	1139.390
338.416	27.367	1399.637	1138.791
339.431	27.385	1399.061	1138.336
340.446	27.359	1398.691	1137.769
341.460	27.350	1397.656	1136.771
342.475	27.331	1396.804	1135.858
343.489	27.366	1395.957	1135.286
344.504	27.454	1394.843	1134.830
345.519	27.397	1393.953	1133.652
346.533	27.394	1393.128	1132.861
347.548	27.381	1392.504	1132.171
348.562	27.492	1391.203	1131.707
349.577	27.596	1390.079	1131.332
350.592	27.421	1390.170	1130.223
351.606	27.426	1389.198	1129.363
352.621	27.380	1387.722	1127.777
353.635	27.323	1387.290	1126.973
354.650	27.484	1386.344	1127.102
355.665	27.531	1385.623	1126.706
356.679	27.545	1384.070	1125.430
357.694	27.618	1383.482	1125.302
358.708	27.510	1382.372	1123.638
359.723	27.611	1381.606	1123.538
360.738	27.639	1380.152	1122.428
361.752	27.524	1378.905	1120.608
362.767	27.454	1378.231	1119.531
363.781	27.539	1377.397	1119.272
364.796	27.504	1376.843	1118.509
365.810	27.576	1376.185	1118.316
366.825	27.694	1375.032	1118.009
367.840	27.568	1374.805	1116.951
368.854	27.669	1373.703	1116.573
369.869	27.596	1373.867	1116.163
370.883	27.728	1373.164	1116.299
371.898	27.610	1372.309	1114.784
372.913	27.694	1371.578	1114.607
373.927	27.732	1370.617	1113.956
374.942	27.663	1369.400	1112.448
375.956	27.753	1368.922	1112.511
376.971	27.728	1368.248	1111.712
377.986	27.759	1367.867	1111.495
379.000	27.713	1366.904	1110.332
380.015	27.744	1366.149	1109.811
381.029	27.834	1365.522	1109.751
382.044	27.837	1364.787	1109.075
383.059	27.881	1364.019	1108.615
384.073	27.803	1363.601	1107.704
385.088	27.810	1363.126	1107.266
386.102	27.813	1362.657	1106.801
387.117	27.832	1361.971	1106.266
388.132	27.907	1361.442	1106.188
389.146	27.884	1360.495	1105.182
390.161	27.896	1359.529	1104.375
391.175	27.829	1359.101	1103.523
392.190	27.747	1358.670	1102.581
393.205	27.875	1357.604	1102.392
394.219	27.963	1356.471	1101.904
395.234	27.931	1355.647	1100.944
396.248	27.944	1354.799	1100.237
397.263	27.984	1353.320	1099.176
398.278	28.014	1352.367	1098.486
399.292	28.036	1351.474	1097.799
400.307	28.097	1350.327	1097.132
401.321	28.031	1349.361	1095.857
402.336	28.102	1348.810	1095.738
403.350	27.990	1348.036	1094.339
404.365	28.036	1346.808	1093.525
405.380	27.957	1346.310	1092.551
406.394	28.070	1345.387	1092.381
407.409	28.054	1344.800	1091.707
408.423	28.122	1344.141	1091.486
409.438	28.112	1343.481	1090.790
410.453	28.126	1342.784	1090.213
411.467	28.194	1342.104	1089.970
412.482	28.184	1341.662	1089.453
413.496	28.177	1340.920	1088.711
414.511	28.241	1340.086	1088.322
415.526	28.278	1339.099	1087.641
416.540	28.292	1338.169	1086.872
417.555	28.229	1337.625	1085.963
418.569	28.268	1337.088	1085.663
419.584	28.205	1337.363	1085.415
420.599	28.206	1336.692	1084.782
421.613	76.297	1320.436	1344.013
422.628	76.789	1318.070	1344.168
