DTS Sentinel unit serial number:	SN413079Multiplexer serial number:	ORYXHardware model number:	OX4-SRSoftware version number:	ORYX F/W v4.00 Oryx Data Collector v3.7.2.0data status	okinstallation	princeton_trtdifferential loss correction	single-endedforward channel	channel 4reverse channel	N/Adate	2019/09/12time	02:39:11forward acquisition time	60.00reverse acquisition time	0.00gamma	496.2192k internal	0.2309k external	0.2309temperature offset calibration	1.0089default loss term (dB/km)	0.3790temperature slope calibration	1.0000multiplexer offset coefficient	1.0000multiplexer slope coefficient	1.0000fibre end	0.00T internal ref (°C)	32.44T ext. ref 1 (°C)	2.09T ext. ref 2 (°C)	27.13length (m)	temperature (°C)	Stokes	anti-Stokes-747.200	-146.867	0.241	-0.021
-746.185	-200.000	0.039	0.300
-745.171	570.693	-0.112	-0.278
-744.156	-200.000	-0.027	0.227
-743.142	380.547	-0.068	0.141
-742.127	697.708	0.010	-0.026
-741.112	-45.667	-0.198	0.099
-740.098	387.165	-0.096	0.201
-739.083	136.422	0.083	-0.110
-738.069	-33.850	0.173	0.097
-737.054	-200.000	0.006	0.067
-736.039	-66.706	-0.324	0.130
-735.025	-200.000	-0.024	0.253
-734.010	301.968	-0.103	-0.194
-732.996	-200.000	0.014	-0.368
-731.981	-52.568	-0.302	0.142
-730.966	-200.000	-0.047	0.323
-729.952	102.077	-0.227	0.269
-728.937	119.569	-0.273	-0.343
-727.923	133.987	0.018	-0.024
-726.908	-32.574	0.274	0.155
-725.894	80.283	0.105	-0.115
-724.879	-4.626	-0.105	-0.073
-723.864	-65.411	-0.234	-0.095
-722.850	-97.297	0.049	0.013
-721.835	-113.346	0.127	0.025
-720.821	-180.178	-0.055	0.001
-719.806	5.298	0.089	0.067
-718.791	149.035	-0.181	-0.249
-717.777	321.994	-0.068	-0.132
-716.762	800.000	-0.044	-0.146
-715.748	46.460	-0.106	-0.100
-714.733	-200.000	0.028	0.229
-713.718	-200.000	-0.053	-0.314
-712.704	-200.000	-0.044	-0.205
-711.689	55.593	0.097	-0.095
-710.675	800.000	-0.083	0.304
-709.660	116.192	0.108	0.134
-708.645	-133.774	-0.338	-0.043
-707.631	3.990	-0.027	0.020
-706.616	183.568	-0.074	0.111
-705.602	87.517	-0.158	-0.177
-704.587	490.492	0.111	-0.257
-703.572	-200.000	-0.027	-0.218
-702.558	-200.000	-0.002	0.130
-701.543	35.559	0.032	-0.028
-700.529	655.624	0.085	0.222
-699.514	22.563	-0.077	-0.064
-698.499	-61.083	0.051	-0.022
-697.485	-143.754	-0.159	0.015
-696.470	91.236	-0.005	-0.006
-695.456	49.186	0.056	0.054
-694.441	800.000	0.040	-0.158
-693.426	-51.700	0.384	0.181
-692.412	375.032	-0.187	-0.387
-691.397	-0.491	-0.261	0.188
-690.383	-200.000	-0.009	-0.141
-689.368	-170.150	-0.193	0.007
-688.354	-67.253	0.316	-0.126
-687.339	7.086	-0.112	-0.085
-686.324	-122.419	0.287	-0.047
-685.310	342.640	0.092	-0.182
-684.295	-200.000	-0.038	-0.351
-683.281	-97.054	-0.410	0.109
-682.266	800.000	-0.040	0.163
-681.251	153.237	0.165	-0.229
-680.237	800.000	-0.080	0.283
-679.222	204.667	-0.131	-0.206
-678.208	-135.637	0.553	-0.067
-677.193	-23.509	0.277	0.168
-676.178	-144.326	0.143	0.013
-675.164	-57.024	0.288	0.128
-674.149	800.000	0.078	-0.242
-673.135	-107.040	0.176	-0.039
-672.120	-200.000	-0.057	-0.279
-671.105	800.000	-0.045	0.137
-670.091	-130.764	0.146	0.020
-669.076	-165.903	-0.299	0.013
-668.062	800.000	-0.064	0.257
-667.047	151.514	0.229	-0.316
-666.032	800.000	-0.061	-0.257
-665.018	330.578	0.090	-0.176
-664.003	800.000	-0.022	0.078
-662.989	-200.000	-0.039	0.181
-661.974	-92.611	0.238	-0.068
-660.959	-76.120	-0.280	0.100
-659.945	-200.000	0.031	-0.320
-658.930	36.050	-0.341	-0.304
-657.916	-66.103	0.248	0.100
-656.901	-154.849	-0.304	-0.020
-655.886	-85.744	-0.470	-0.148
-654.872	-69.795	0.522	-0.202
-653.857	-59.237	0.099	-0.043
-652.843	45.711	0.131	0.122
-651.828	-114.369	-0.075	-0.015
-650.814	699.215	-0.067	-0.179
-649.799	800.000	0.058	-0.164
-648.784	51.051	-0.100	-0.096
-647.770	634.431	-0.109	0.279
-646.755	-72.942	0.012	0.005
-645.741	-38.805	0.145	-0.077
-644.726	226.601	-0.074	-0.122
-643.711	191.181	-0.156	-0.237
-642.697	-40.808	-0.109	0.057
-641.682	-102.159	-0.188	-0.046
-640.668	208.723	0.057	0.090
-639.653	455.999	0.162	-0.365
-638.638	149.454	-0.073	-0.100
-637.624	212.747	0.162	0.258
-636.609	763.358	-0.075	-0.205
-635.595	-52.886	-0.272	-0.127
-634.580	230.693	-0.109	-0.180
-633.565	726.684	-0.218	0.588
-632.551	-77.736	-0.316	0.110
-631.536	-8.716	-0.168	-0.114
-630.522	-123.168	-0.069	0.011
-629.507	-73.014	0.206	-0.077
-628.492	-70.324	-0.151	0.058
-627.478	10.467	0.235	-0.181
-626.463	-65.761	0.474	-0.192
-625.449	464.524	0.081	-0.184
-624.434	800.000	0.060	-0.195
-623.419	-200.000	0.074	-0.336
-622.405	14.286	-0.076	-0.060
-621.390	-200.000	0.023	0.301
-620.376	243.477	0.092	0.155
-619.361	58.803	0.150	0.149
-618.346	-159.445	-0.319	-0.018
-617.332	-200.000	-0.003	-0.275
-616.317	-182.778	0.124	-0.002
-615.303	-148.212	-0.029	-0.002
-614.288	-200.000	-0.003	0.046
-613.273	-172.275	-0.247	0.008
-612.259	-200.000	-0.028	0.192
-611.244	-200.000	0.014	-0.184
-610.230	57.732	0.138	0.136
-609.215	-3.898	-0.287	-0.201
-608.201	-77.151	-0.146	-0.051
-607.186	-200.000	0.006	-0.257
-606.171	800.000	0.027	-0.102
-605.157	800.000	-0.053	0.230
-604.142	-200.000	-0.016	0.233
-603.128	210.283	-0.026	-0.041
-602.113	-200.000	0.006	-0.195
-601.098	-128.742	0.116	-0.016
-600.084	-8.763	-0.231	0.156
-599.069	-200.000	-0.010	0.145
-598.055	703.607	0.065	0.172
-597.040	247.707	0.182	-0.311
-596.025	53.408	-0.089	-0.086
-595.011	-20.548	0.269	-0.167
-593.996	-65.792	-0.196	0.079
-592.982	-25.720	0.387	0.230
-591.967	5.342	0.236	0.176
-590.952	-131.806	-0.367	0.048
-589.938	-55.138	0.338	0.153
-588.923	390.619	0.145	-0.304
-587.909	-130.616	-0.455	0.062
-586.894	-105.237	0.155	-0.036
-585.879	-17.758	0.081	0.052
-584.865	-68.736	-0.192	0.075
-583.850	67.636	-0.085	-0.088
-582.836	-30.809	0.123	-0.070
-581.821	800.000	0.037	-0.122
-580.806	255.024	-0.158	-0.273
-579.792	231.463	-0.183	-0.302
-578.777	-38.312	0.134	-0.072
-577.763	-200.000	-0.014	0.087
-576.748	-200.000	0.026	0.269
-575.733	27.407	-0.200	0.170
-574.719	-73.133	-0.077	-0.028
-573.704	800.000	-0.067	-0.276
-572.690	-60.175	-0.290	0.125
-571.675	800.000	0.010	-0.037
-570.661	-66.425	0.313	0.126
-569.646	-91.771	-0.071	-0.020
-568.631	29.701	-0.128	0.110
-567.617	368.967	0.030	0.062
-566.602	-106.455	0.324	0.073
-565.588	438.141	-0.173	0.380
-564.573	55.253	0.323	-0.315
-563.558	35.414	-0.196	-0.174
-562.544	193.253	0.104	-0.159
-561.529	231.419	-0.049	0.080
-560.515	-67.600	-0.208	0.082
-559.500	-75.208	0.161	0.058
-558.485	-121.626	-0.155	-0.026
-557.471	389.497	0.139	-0.290
-556.456	-200.000	-0.028	-0.179
-555.442	-159.258	-0.183	0.010
-554.427	115.459	0.132	-0.163
-553.412	-165.498	-0.120	0.005
-552.398	-200.000	-0.009	0.043
-551.383	465.660	0.186	0.419
-550.369	-158.662	-0.159	0.009
-549.354	-9.228	-0.181	0.122
-548.339	119.461	0.354	-0.442
-547.325	-200.000	-0.058	-0.300
-546.310	-52.685	-0.164	-0.076
-545.296	273.989	-0.132	-0.236
-544.281	-80.361	0.627	-0.211
-543.266	-53.604	-0.407	-0.188
-542.252	-136.843	-0.118	-0.014
-541.237	-200.000	-0.018	0.227
-540.223	-11.748	-0.133	-0.088
-539.208	555.580	-0.090	0.218
-538.193	-73.913	-0.131	0.048
-537.179	-200.000	0.012	0.075
-536.164	89.272	-0.045	0.051
-535.150	-40.639	0.514	-0.269
-534.135	-171.383	-0.150	-0.005
-533.121	360.068	0.150	0.302
-532.106	94.391	0.185	0.212
-531.091	-122.283	0.274	-0.045
-530.077	-96.357	0.161	0.043
-529.062	800.000	0.044	0.189
-528.048	-200.000	-0.014	0.176
-527.033	-51.485	-0.130	0.061
-526.018	800.000	-0.022	-0.063
-525.004	306.244	0.114	-0.214
-523.989	92.753	0.018	0.020
-522.975	-200.000	-0.006	-0.123
-521.960	-200.000	0.019	0.201
-520.945	-21.311	0.109	-0.067
-519.931	-41.184	0.241	-0.125
-518.916	-159.881	0.261	-0.014
-517.902	-200.000	0.004	0.159
-516.887	224.857	0.023	-0.037
-515.872	-200.000	0.008	-0.371
-514.858	9.199	-0.116	-0.088
-513.843	-161.747	0.278	-0.014
-512.829	-65.291	0.208	-0.084
-511.814	-80.749	-0.155	-0.052
-510.799	800.000	0.042	0.135
-509.785	-95.741	-0.303	0.082
-508.770	800.000	-0.086	0.249
-507.756	-27.740	-0.150	0.087
-506.741	800.000	0.085	-0.236
-505.726	72.419	-0.053	-0.056
-504.712	-200.000	0.048	0.000
-503.697	83.139	-0.069	-0.076
-502.683	675.959	-0.106	0.278
-501.668	-145.105	0.091	0.008
-500.653	-200.000	0.033	-0.352
-499.639	-200.000	-0.042	0.330
-498.624	33.863	-0.174	0.152
-497.610	94.403	0.022	-0.026
-496.595	-68.378	-0.361	-0.141
-495.581	-200.000	-0.002	-0.262
-494.566	-200.000	0.001	-0.055
-493.551	-149.331	-0.080	-0.006
-492.537	800.000	-0.073	0.220
-491.522	800.000	-0.087	-0.311
-490.508	81.104	0.283	0.307
-489.493	800.000	-0.136	0.483
-488.478	-29.221	0.280	-0.161
-487.464	-36.192	0.188	0.102
-486.449	800.000	0.127	0.353
-485.435	-200.000	-0.018	0.372
-484.420	-100.638	0.158	-0.039
-483.405	22.881	0.113	-0.093
-482.391	231.085	-0.089	-0.147
-481.376	98.410	-0.121	-0.140
-480.362	800.000	-0.066	-0.208
-479.347	-200.000	0.027	0.268
-478.332	313.547	0.195	0.368
-477.318	332.865	0.180	0.350
-476.303	800.000	0.058	0.198
-475.289	-86.888	-0.230	0.071
-474.274	-96.168	-0.178	0.047
-473.259	176.112	-0.141	-0.206
-472.245	800.000	0.066	-0.207
-471.230	-54.934	-0.325	-0.147
-470.216	-72.695	0.187	-0.069
-469.201	210.511	0.070	-0.111
-468.186	-200.000	-0.003	0.105
-467.172	163.525	-0.289	0.408
-466.157	-200.000	0.000	0.241
-465.143	-131.082	-0.206	-0.028
-464.128	-200.000	-0.043	-0.408
-463.113	-83.967	-0.109	-0.035
-462.099	-97.572	0.332	-0.086
-461.084	-60.651	-0.211	0.090
-460.070	-43.713	-0.120	0.061
-459.055	-40.709	-0.060	-0.031
-458.040	-76.769	-0.149	-0.052
-457.026	-163.251	0.240	0.012
-456.011	494.128	-0.151	0.348
-454.997	30.992	-0.067	0.057
-453.982	-88.810	0.254	-0.076
-452.968	497.456	-0.054	0.126
-451.953	135.615	-0.198	-0.259
-450.938	163.042	0.074	0.105
-449.924	800.000	-0.072	-0.250
-448.909	-16.187	0.270	-0.172
-447.895	800.000	0.051	-0.204
-446.880	-76.645	-0.324	0.114
-445.865	-34.400	0.292	0.161
-444.851	-120.439	0.245	-0.042
-443.836	98.011	0.085	-0.099
-442.822	800.000	-0.121	0.409
-441.807	-117.019	-0.249	0.046
-440.792	-200.000	-0.019	0.117
-439.778	79.978	0.251	-0.271
-438.763	-200.000	-0.036	0.281
-437.749	50.157	-0.057	-0.054
-436.734	-111.840	0.346	-0.070
-435.719	739.896	0.044	-0.117
-434.705	-60.935	-0.364	-0.154
-433.690	311.755	0.185	0.348
-432.676	-18.727	-0.323	0.202
-431.661	800.000	-0.135	0.407
-430.646	-80.203	-0.129	-0.043
-429.632	800.000	0.035	0.145
-428.617	661.566	-0.073	0.190
-427.603	-109.304	0.348	0.074
-426.588	-91.572	-0.193	0.055
-425.573	218.890	0.208	0.334
-424.559	-186.166	0.152	-0.002
-423.544	800.000	0.047	-0.181
-422.530	37.246	0.171	-0.152
-421.515	-63.204	0.154	-0.063
-420.500	139.541	-0.041	-0.054
-419.486	-146.223	0.342	-0.030
-418.471	-85.611	-0.297	0.092
-417.457	-105.072	-0.419	-0.096
-416.442	72.355	-0.088	-0.091
-415.428	-200.000	0.089	0.517
-414.413	-106.217	0.166	-0.037
-413.398	-115.957	0.176	0.033
-412.384	-160.400	0.190	-0.010
-411.369	73.785	-0.156	-0.164
-410.355	-66.832	0.118	-0.047
-409.340	-160.834	-0.176	0.009
-408.325	24.139	0.072	-0.059
-407.311	-58.373	0.081	-0.035
-406.296	-200.000	-0.042	-0.214
-405.282	54.090	0.175	-0.169
-404.267	-188.476	-0.309	-0.004
-403.252	560.720	0.125	0.302
-402.238	21.259	0.117	0.095
-401.223	455.606	0.083	-0.185
-400.209	212.234	0.050	-0.080
-399.194	-200.000	-0.004	0.252
-398.179	-160.138	0.011	-0.001
-397.165	-200.000	-0.037	0.501
-396.150	380.610	-0.006	-0.012
-395.136	14.262	-0.192	-0.150
-394.121	8.113	0.293	0.221
-393.106	-4.491	-0.226	0.156
-392.092	108.667	0.083	0.099
-391.077	800.000	0.049	0.167
-390.063	254.485	0.028	-0.047
-389.048	-5.674	-0.313	0.215
-388.033	-113.664	-0.225	-0.044
-387.019	-74.552	0.245	-0.088
-386.004	-103.152	-0.200	-0.047
-384.990	-200.000	-0.010	0.084
-383.975	-200.000	0.070	-0.375
-382.960	-126.988	-0.297	0.044
-381.946	115.299	0.051	0.063
-380.931	-200.000	0.034	-0.232
-379.917	-200.000	0.033	-0.300
-378.902	-200.000	0.024	-0.170
-377.888	-200.000	0.086	-0.484
-376.873	-17.070	-0.381	-0.241
-375.858	-88.996	-0.279	0.083
-374.844	25.797	0.216	0.181
-373.829	-61.042	0.148	0.062
-372.815	-84.351	-0.328	0.104
-371.800	800.000	-0.057	0.182
-370.785	-71.293	0.327	-0.123
-369.771	-96.976	-0.106	0.028
-368.756	267.137	0.074	0.130
-367.742	26.337	-0.379	-0.317
-366.727	-175.595	-0.212	0.006
-365.712	159.214	0.158	0.219
-364.698	-200.000	0.025	-0.177
-363.683	-160.175	0.213	0.012
-362.669	136.820	-0.249	0.326
-361.654	-88.304	-0.207	0.062
-360.639	240.504	-0.072	-0.121
-359.625	-200.000	0.005	0.144
-358.610	-135.745	-0.074	-0.009
-357.596	525.845	-0.056	0.133
-356.581	79.346	-0.122	-0.131
-355.566	-76.735	-0.310	-0.109
-354.552	800.000	-0.061	-0.189
-353.537	-200.000	0.036	0.223
-352.523	39.001	0.151	0.135
-351.508	-6.866	0.148	0.100
-350.493	-127.957	0.128	-0.018
-349.479	-200.000	-0.074	-0.451
-348.464	-88.244	0.585	0.175
-347.450	-200.000	-0.058	-0.291
-346.435	800.000	0.113	-0.412
-345.420	-69.714	-0.266	0.102
-344.406	-200.000	0.044	0.363
-343.391	609.193	0.047	0.118
-342.377	793.801	0.017	-0.046
-341.362	-200.000	-0.052	-0.243
-340.348	685.483	-0.075	-0.197
-339.333	-113.069	-0.065	0.013
-338.318	-116.066	0.336	0.063
-337.304	130.099	0.083	0.107
-336.289	800.000	0.056	-0.164
-335.275	800.000	-0.058	-0.162
-334.260	-89.743	-0.281	-0.082
-333.245	-200.000	0.003	-0.042
-332.231	-1.955	0.395	0.278
-331.216	771.901	0.049	-0.133
-330.202	177.374	-0.162	-0.235
-329.187	-200.000	0.048	0.349
-328.172	-80.583	-0.059	-0.020
-327.158	-195.155	0.060	-0.000
-326.143	220.145	0.112	-0.179
-325.129	131.481	0.170	0.218
-324.114	20.561	-0.157	0.127
-323.099	-66.615	0.308	-0.122
-322.085	472.598	-0.107	-0.240
-321.070	12.531	-0.337	0.259
-320.056	497.627	-0.110	0.254
-319.041	800.000	0.048	-0.148
-318.026	-200.000	-0.010	-0.367
-317.012	616.495	-0.012	-0.030
-315.997	71.173	0.339	0.351
-314.983	673.260	-0.064	-0.165
-313.968	800.000	0.025	0.092
-312.953	-69.271	-0.202	-0.078
-311.939	-88.253	0.105	0.032
-310.924	393.988	0.037	0.076
-309.910	-104.160	0.126	0.029
-308.895	-200.000	-0.004	0.055
-307.880	275.780	-0.176	-0.313
-306.866	67.266	0.067	0.068
-305.851	-200.000	0.023	-0.211
-304.837	-23.340	0.202	-0.121
-303.822	213.906	0.183	-0.290
-302.807	-200.000	-0.027	-0.422
-301.793	115.556	0.092	-0.112
-300.778	-81.638	-0.128	-0.042
-299.764	329.276	-0.124	-0.238
-298.749	134.993	-0.224	0.291
-297.735	77.284	0.161	-0.171
-296.720	87.831	-0.061	0.067
-295.705	800.000	-0.085	-0.335
-294.691	-40.416	0.081	0.042
-293.676	-169.264	0.164	0.006
-292.662	28.547	-0.145	-0.122
-291.647	24.415	-0.285	0.236
-290.632	-130.599	0.236	-0.032
-289.618	71.506	0.078	0.081
-288.603	800.000	0.020	0.069
-287.589	-44.416	0.175	0.088
-286.574	-200.000	0.035	0.363
-285.559	-56.293	-0.224	0.099
-284.545	-16.848	0.132	0.083
-283.530	143.583	-0.058	0.077
-282.516	-92.580	0.376	-0.105
-281.501	-39.615	0.294	0.153
-280.486	-142.794	0.253	-0.025
-279.472	138.247	0.060	0.079
-278.457	22.718	0.143	0.117
-277.443	28.311	0.173	-0.146
-276.428	66.477	-0.209	0.212
-275.413	144.193	-0.043	0.057
-274.399	-74.555	-0.274	0.098
-273.384	-15.211	0.380	-0.242
-272.370	-121.499	0.058	-0.010
-271.355	-87.949	0.422	-0.127
-270.340	800.000	0.034	-0.113
-269.326	-160.279	-0.166	-0.009
-268.311	-85.179	-0.030	-0.009
-267.297	-200.000	-0.060	-0.282
-266.282	381.422	-0.124	-0.253
-265.267	-200.000	-0.009	-0.060
-264.253	24.574	0.123	-0.102
-263.238	-200.000	0.018	-0.099
-262.224	-200.000	0.036	0.182
-261.209	594.457	0.078	-0.193
-260.195	59.437	-0.181	0.177
-259.180	162.710	-0.234	0.327
-258.165	-200.000	0.003	-0.042
-257.151	-151.610	0.250	-0.018
-256.136	-87.508	0.105	0.032
-255.122	-67.375	0.187	-0.073
-254.107	-100.088	0.346	-0.086
-253.092	183.703	0.086	-0.126
-252.078	-200.000	-0.006	0.347
-251.063	36.021	-0.129	0.113
-250.049	-44.667	0.167	-0.083
-249.034	519.107	-0.057	-0.132
-248.019	55.865	-0.115	-0.111
-247.005	-89.950	-0.356	0.104
-245.990	-200.000	-0.051	0.537
-244.976	459.688	-0.097	0.214
-243.961	-64.162	0.046	0.019
-242.946	-57.433	-0.398	-0.174
-241.932	-39.235	-0.107	0.056
-240.917	-1.271	-0.072	0.051
-239.903	452.726	0.112	-0.246
-238.888	-54.219	0.134	-0.061
-237.873	-158.169	0.336	0.020
-236.859	-64.562	-0.122	-0.049
-235.844	-140.145	-0.212	0.022
-234.830	-200.000	0.032	0.349
-233.815	800.000	0.010	-0.042
-232.800	-78.164	-0.269	-0.092
-231.786	-36.171	-0.173	0.093
-230.771	246.344	0.033	0.056
-229.757	-81.980	-0.166	0.054
-228.742	-78.481	0.254	-0.087
-227.727	-118.827	-0.058	-0.010
-226.713	25.524	-0.054	-0.044
-225.698	800.000	0.076	-0.248
-224.684	-33.688	0.213	-0.117
-223.669	143.635	0.041	-0.055
-222.655	-200.000	0.017	0.262
-221.640	-112.817	-0.160	0.032
-220.625	418.204	-0.054	0.114
-219.611	124.251	0.145	0.181
-218.596	-6.236	-0.024	-0.016
-217.582	-200.000	0.029	0.154
-216.567	800.000	0.086	0.271
-215.552	-35.900	-0.121	-0.065
-214.538	-72.057	-0.277	-0.102
-213.523	-82.987	0.226	-0.072
-212.509	456.336	0.017	0.037
-211.494	9.904	0.237	0.179
-210.479	-151.868	-0.143	-0.010
-209.465	147.729	-0.217	-0.291
-208.450	-101.434	-0.089	0.021
-207.436	-87.589	0.602	0.181
-206.421	-81.429	0.268	0.088
-205.406	800.000	-0.028	0.113
-204.392	-97.821	-0.207	-0.053
-203.377	-49.815	-0.259	-0.122
-202.363	52.698	-0.200	-0.190
-201.348	-148.551	-0.320	-0.026
-200.333	-123.803	0.060	0.009
-199.319	62.187	0.105	0.104
-198.304	18.033	-0.144	0.114
-197.290	-39.330	0.110	0.057
-196.275	-200.000	0.017	-0.147
-195.260	103.125	-0.197	-0.230
-194.246	260.984	0.241	0.414
-193.231	-171.666	-0.330	0.011
-192.217	800.000	-0.049	-0.137
-191.202	-69.282	0.229	-0.088
-190.187	-200.000	0.009	-0.182
-189.173	360.591	-0.123	-0.244
-188.158	-200.000	-0.033	-0.194
-187.144	-156.806	0.223	0.014
-186.129	-20.434	-0.141	0.086
-185.114	123.959	-0.089	0.111
-184.100	177.936	0.162	-0.235
-183.085	87.678	0.091	-0.100
-182.071	-200.000	0.012	0.067
-181.056	-200.000	-0.021	0.115
-180.042	235.599	0.101	0.165
-179.027	146.809	0.139	0.185
-178.012	-109.728	-0.221	-0.046
-176.998	308.421	-0.199	-0.369
-175.983	163.753	-0.113	-0.158
-174.969	235.411	0.060	-0.099
-173.954	-190.254	0.091	0.001
-172.939	-200.000	-0.007	0.125
-171.925	121.604	-0.230	-0.284
-170.910	800.000	-0.031	-0.098
-169.896	166.826	-0.070	0.099
-168.881	-85.694	0.112	-0.034
-167.866	-200.000	0.058	0.576
-166.852	-126.469	0.292	0.043
-165.837	-119.787	0.136	0.023
-164.823	-200.000	-0.007	0.125
-163.808	-200.000	-0.021	-0.110
-162.793	-153.926	0.050	0.003
-161.779	-74.179	0.105	-0.038
-160.764	49.388	0.235	0.220
-159.750	-122.288	-0.248	0.040
-158.735	-147.593	0.055	-0.005
-157.720	-200.000	0.020	-0.185
-156.706	-55.720	-0.141	0.063
-155.691	-63.432	-0.205	-0.084
-154.677	-200.000	0.065	0.421
-153.662	-154.318	-0.105	-0.007
-152.647	300.826	0.031	0.057
-151.633	-200.000	-0.010	0.176
-150.618	48.455	0.062	0.058
-149.604	800.000	0.092	0.284
-148.589	65.543	-0.270	-0.271
-147.574	800.000	-0.033	0.104
-146.560	-200.000	-0.020	-0.214
-145.545	-149.903	0.469	-0.036
-144.531	412.521	0.071	0.149
-143.516	342.927	0.187	-0.363
-142.502	800.000	0.106	-0.340
-141.487	-137.738	-0.149	0.017
-140.472	171.773	0.182	0.259
-139.458	-200.000	0.011	0.099
-138.443	156.512	0.206	-0.282
-137.429	-200.000	-0.009	0.200
-136.414	-110.480	-0.161	0.033
-135.399	800.000	0.020	0.065
-134.385	32.523	-0.403	0.346
-133.370	218.558	-0.268	0.425
-132.356	111.141	0.049	0.059
-131.341	169.600	0.081	0.115
-130.326	800.000	0.066	-0.241
-129.312	380.965	-0.113	-0.229
-128.297	-91.640	-0.187	0.053
-127.283	9.589	0.180	0.136
-126.268	43.357	0.245	0.222
-125.253	43.428	-0.095	-0.086
-124.239	-151.325	0.166	0.012
-123.224	26.121	0.158	0.131
-122.210	-54.081	-0.385	0.174
-121.195	89.475	-0.175	-0.194
-120.180	4.568	0.363	0.264
-119.166	450.536	-0.053	-0.117
-118.151	800.000	-0.088	-0.383
-117.137	232.494	0.044	-0.071
-116.122	16.801	0.170	0.134
-115.107	-77.527	-0.176	0.061
-114.093	-21.586	0.138	0.084
-113.078	-69.414	0.212	0.080
-112.064	17.329	0.251	0.198
-111.049	176.428	-0.202	0.291
-110.034	-200.000	-0.014	-0.337
-109.020	23.502	-0.101	0.082
-108.005	528.612	-0.102	0.238
-106.991	-140.130	-0.094	0.010
-105.976	29.390	-0.059	0.049
-104.962	-130.439	-0.115	-0.015
-103.947	-15.865	-0.176	-0.111
-102.932	285.439	-0.122	0.217
-101.918	-11.944	-0.262	-0.170
-100.903	-37.889	-0.315	0.166
-99.889	-68.929	0.390	0.149
-98.874	184.475	0.033	0.048
-97.859	-51.722	0.248	-0.114
-96.845	-45.521	-0.094	0.046
-95.830	-200.000	-0.002	0.028
-94.816	391.695	0.072	-0.149
-93.801	273.029	-0.244	0.427
-92.786	-127.936	0.021	0.003
-91.772	52.172	-0.086	0.081
-90.757	800.000	0.039	-0.146
-89.743	-113.038	0.107	0.021
-88.728	-53.604	0.072	-0.033
-87.713	-200.000	0.006	0.125
-86.699	210.558	-0.010	0.016
-85.684	-155.117	-0.096	0.006
-84.670	120.278	0.105	-0.129
-83.655	62.200	-0.186	0.184
-82.640	-17.615	-0.198	0.123
-81.626	-200.000	0.041	0.307
-80.611	239.487	0.033	0.055
-79.597	381.966	0.231	-0.469
-78.582	42.051	-0.139	-0.125
-77.567	110.149	-0.141	0.167
-76.553	-125.415	0.209	-0.031
-75.538	27.681	0.025	0.020
-74.524	-62.830	0.299	0.122
-73.509	32.870	-0.165	-0.141
-72.494	172.416	0.147	-0.209
-71.480	-11.996	-0.294	-0.190
-70.465	-94.617	-0.104	0.028
-69.451	529.895	0.068	0.159
-68.436	-115.540	0.136	0.025
-67.422	-200.000	0.051	0.302
-66.407	40.866	0.058	-0.052
-65.392	212.700	-0.045	-0.070
-64.378	133.443	0.100	0.128
-63.363	-200.000	0.038	0.257
-62.349	-200.000	-0.000	0.155
-61.334	42.531	-1.086	-0.977
-60.319	264.472	0.397	0.683
-59.305	295.797	-0.431	-0.780
-58.290	321.587	0.630	1.185
-57.276	-200.000	0.243	1.578
-56.261	-200.000	95.316	582.724
-55.246	555.838	1365.430	3251.326
-54.232	159.688	2547.195	3506.783
-53.217	103.158	2295.312	2659.974
-52.203	39.041	2056.915	1818.101
-51.188	34.273	1971.481	1700.087
-50.173	32.766	1953.044	1670.784
-49.159	47.240	2002.995	1843.718
-48.144	48.675	2020.996	1873.109
-47.130	34.814	1982.753	1714.389
-46.115	32.469	1972.947	1684.882
-45.100	32.352	1970.158	1681.393
-44.086	32.297	1967.488	1678.554
-43.071	32.256	1964.725	1675.760
-42.057	32.228	1962.628	1673.655
-41.042	32.229	1960.580	1671.852
-40.027	32.282	1958.925	1670.845
-39.013	32.234	1956.532	1668.309
-37.998	32.337	1955.021	1667.872
-36.984	32.373	1953.165	1666.543
-35.969	32.338	1951.641	1664.868
-34.954	32.375	1949.979	1663.708
-33.940	32.466	1948.341	1663.050
-32.925	32.550	1946.411	1662.081
-31.911	32.537	1945.174	1660.836
-30.896	32.499	1943.322	1658.856
-29.881	32.488	1942.154	1657.696
-28.867	32.417	1940.873	1655.914
-27.852	32.535	1938.269	1654.662
-26.838	32.440	1936.511	1652.260
-25.823	32.536	1934.417	1651.252
-24.809	32.457	1932.852	1649.161
-23.794	32.449	1931.364	1647.758
-22.779	32.434	1929.528	1645.996
-21.765	32.416	1927.666	1644.183
-20.750	32.449	1926.132	1643.098
-19.736	32.420	1924.820	1641.662
-18.721	32.425	1923.056	1640.134
-17.706	32.431	1921.898	1639.135
-16.692	32.440	1920.220	1637.716
-15.677	32.467	1918.314	1636.254
-14.663	32.461	1916.899	1634.938
-13.648	32.516	1915.646	1634.278
-12.633	32.442	1915.015	1633.031
-11.619	32.425	1913.556	1631.573
-10.604	32.446	1911.708	1630.116
-9.590	32.397	1910.384	1628.497
-8.575	32.464	1908.673	1627.556
-7.560	32.430	1907.991	1626.618
-6.546	32.501	1906.118	1625.566
-5.531	32.514	1905.275	1624.898
-4.517	32.475	1904.037	1623.439
-3.502	32.409	1903.680	1622.502
-2.487	32.428	1902.171	1621.312
-1.473	32.511	1900.703	1620.717
-0.458	32.550	1896.012	1616.987
0.556	32.597	1876.860	1589.308
1.571	28.587	1858.655	1540.172
2.586	24.831	1881.156	1526.701
3.600	23.843	1917.048	1547.101
4.615	23.597	1912.449	1541.111
5.629	18.270	1811.510	1415.699
6.644	7.932	1691.603	1241.635
7.659	2.577	1652.829	1172.181
8.673	2.199	1649.126	1166.561
9.688	2.160	1647.699	1165.157
10.702	2.057	1646.566	1163.465
11.717	1.934	1642.865	1159.811
12.731	2.380	1642.143	1162.588
13.746	9.160	1658.728	1226.128
14.761	19.951	1682.383	1326.637
15.775	25.488	1692.724	1377.234
16.790	26.595	1694.341	1386.909
17.804	26.716	1693.789	1387.262
18.819	26.734	1692.615	1386.312
19.834	26.844	1692.293	1386.770
20.848	27.118	1691.459	1388.059
21.863	27.144	1690.729	1387.537
22.877	27.132	1689.926	1386.661
23.892	27.133	1689.034	1385.809
24.907	27.178	1688.139	1385.298
25.921	27.141	1687.211	1384.133
26.936	27.223	1685.599	1383.313
27.950	27.118	1685.093	1381.977
28.965	27.051	1684.492	1380.849
29.980	27.165	1683.427	1380.723
30.994	27.166	1681.996	1379.433
32.009	27.111	1681.490	1378.481
33.023	27.093	1680.633	1377.518
34.038	27.208	1678.583	1376.587
35.053	27.200	1677.838	1375.792
36.067	27.155	1677.041	1374.679
37.082	27.161	1676.304	1374.000
38.096	27.166	1675.457	1373.221
39.111	27.144	1674.261	1371.955
40.126	27.182	1673.386	1371.397
41.140	27.130	1673.019	1370.588
42.155	27.124	1671.444	1369.127
43.169	27.177	1670.335	1368.501
44.184	27.163	1669.583	1367.652
45.199	27.062	1668.679	1366.034
46.213	27.090	1667.524	1365.178
47.228	27.150	1666.237	1364.457
48.242	27.068	1665.577	1363.177
49.257	27.138	1664.205	1362.462
50.271	27.142	1662.711	1361.144
51.286	27.064	1661.683	1359.603
52.301	27.154	1660.150	1358.895
53.315	27.042	1659.407	1357.332
54.330	27.087	1657.305	1355.828
55.344	27.165	1656.015	1355.237
56.359	27.156	1655.034	1354.242
57.374	27.119	1654.022	1353.025
58.388	27.193	1652.892	1352.529
59.403	27.137	1651.858	1351.150
60.417	27.107	1650.676	1349.836
61.432	27.177	1649.348	1349.152
62.447	27.129	1648.434	1347.930
63.461	27.123	1647.865	1347.296
64.476	27.185	1647.015	1346.944
65.490	27.167	1645.537	1345.481
66.505	27.167	1644.519	1344.530
67.520	27.118	1643.665	1343.354
68.534	27.160	1642.699	1342.758
69.549	27.188	1641.361	1341.752
70.563	27.167	1640.275	1340.587
71.578	27.188	1638.949	1339.544
72.593	27.117	1638.661	1338.660
73.607	27.182	1637.312	1337.924
74.622	27.251	1636.091	1337.309
75.636	27.156	1635.562	1336.066
76.651	27.208	1634.627	1335.561
77.666	27.225	1633.723	1334.828
78.680	27.142	1633.373	1333.817
79.695	27.200	1632.134	1333.113
80.709	27.150	1631.451	1332.073
81.724	27.163	1630.705	1331.441
82.739	27.116	1629.872	1330.295
83.753	27.181	1628.495	1329.535
84.768	27.235	1627.712	1329.171
85.782	27.169	1626.590	1327.656
86.797	27.181	1625.591	1326.811
87.812	27.137	1624.758	1325.689
88.826	27.171	1623.851	1325.078
89.841	27.232	1622.666	1324.437
90.855	27.181	1621.597	1323.076
91.870	27.177	1621.164	1322.582
92.884	27.190	1620.127	1321.710
93.899	27.222	1618.755	1320.710
94.914	27.263	1617.985	1320.261
95.928	27.249	1616.641	1318.945
96.943	27.233	1615.196	1317.531
97.957	27.277	1614.138	1316.873
98.972	27.290	1612.820	1315.776
99.987	27.150	1612.206	1314.144
101.001	27.236	1610.092	1312.927
102.016	27.259	1608.662	1311.808
103.030	27.144	1607.557	1309.963
104.045	27.175	1606.602	1309.296
105.060	27.238	1605.173	1308.469
106.074	27.214	1603.435	1306.764
107.089	27.204	1603.248	1306.422
108.103	27.241	1601.516	1305.163
109.118	27.163	1600.808	1303.905
110.133	27.220	1599.522	1303.152
111.147	27.249	1597.754	1301.807
112.162	27.263	1596.821	1301.030
113.176	27.283	1595.780	1300.207
114.191	27.328	1594.916	1299.711
115.206	27.182	1593.840	1297.681
116.220	27.241	1592.523	1296.914
117.235	27.260	1590.979	1295.672
118.249	27.254	1589.975	1294.700
119.264	27.280	1588.911	1293.902
120.279	27.218	1587.934	1292.555
121.293	27.201	1586.473	1291.126
122.308	27.360	1585.445	1291.308
123.322	27.324	1584.238	1289.955
124.337	27.369	1583.111	1289.241
125.352	27.285	1582.176	1287.773
126.366	27.344	1581.415	1287.452
127.381	27.374	1580.252	1286.608
128.395	27.372	1578.528	1285.078
129.410	27.352	1577.838	1284.258
130.424	27.319	1577.076	1283.292
131.439	27.322	1575.741	1282.111
132.454	27.299	1574.747	1281.031
133.468	27.321	1573.323	1279.914
134.483	27.272	1571.917	1278.314
135.497	27.303	1571.029	1277.693
136.512	27.323	1569.638	1276.588
137.527	27.349	1568.686	1275.886
138.541	27.405	1567.788	1275.434
139.556	27.371	1566.289	1273.862
140.570	27.302	1565.217	1272.393
141.585	27.400	1563.849	1271.857
142.600	27.313	1562.686	1270.190
143.614	27.397	1561.960	1270.075
144.629	27.320	1560.909	1268.573
145.643	27.388	1559.534	1267.811
146.658	27.413	1557.965	1266.602
147.673	27.240	1557.473	1264.886
148.687	27.232	1556.592	1264.002
149.702	27.266	1555.416	1263.169
150.716	27.358	1554.152	1262.669
151.731	27.374	1552.361	1261.215
152.746	27.297	1551.830	1260.136
153.760	27.208	1550.827	1258.596
154.775	27.371	1549.402	1258.453
155.789	27.416	1548.379	1257.824
156.804	27.463	1546.927	1256.862
157.819	27.330	1546.243	1255.276
158.833	27.445	1545.499	1255.353
159.848	27.335	1544.433	1253.620
160.862	27.377	1543.723	1253.217
161.877	27.479	1542.393	1252.732
162.892	27.357	1541.901	1251.378
163.906	27.517	1540.539	1251.262
164.921	27.433	1539.997	1250.133
165.935	27.603	1538.708	1250.147
166.950	27.431	1538.301	1248.528
167.964	27.520	1536.672	1247.701
168.979	27.458	1536.247	1246.823
169.994	27.444	1534.943	1245.555
171.008	27.528	1534.255	1245.460
172.023	27.510	1533.534	1244.646
173.037	27.530	1532.049	1243.466
174.052	27.545	1530.980	1242.589
175.067	27.543	1530.245	1241.871
176.081	27.520	1529.281	1240.821
177.096	27.447	1528.500	1239.578
178.110	27.502	1526.922	1238.564
179.125	27.484	1526.477	1237.973
180.140	27.453	1526.110	1237.355
181.154	27.456	1524.832	1236.230
182.169	27.608	1523.346	1235.943
183.183	27.474	1523.095	1234.725
184.198	27.480	1522.125	1233.867
185.213	27.515	1521.130	1233.194
186.227	27.558	1519.890	1232.365
187.242	27.497	1519.435	1231.479
188.256	27.605	1518.412	1231.266
189.271	27.605	1517.503	1230.423
190.286	27.584	1516.748	1229.557
191.300	27.627	1515.908	1229.058
192.315	27.601	1515.032	1228.067
193.329	27.571	1513.926	1226.858
194.344	27.607	1513.097	1226.317
195.359	27.555	1512.893	1225.693
196.373	27.550	1511.770	1224.641
197.388	27.567	1511.012	1224.036
198.402	27.558	1509.803	1222.890
199.417	27.551	1508.870	1221.978
200.432	27.546	1508.134	1221.240
201.446	27.584	1507.570	1220.927
202.461	27.541	1506.431	1219.611
203.475	27.573	1505.346	1218.841
204.490	27.544	1504.817	1218.111
205.504	27.468	1504.535	1217.263
206.519	27.647	1503.105	1217.197
207.534	27.642	1502.009	1216.165
208.548	27.671	1501.682	1215.988
209.563	27.636	1500.281	1214.515
210.577	27.619	1499.827	1213.925
211.592	27.632	1498.848	1213.114
212.607	27.698	1498.022	1212.772
213.621	27.748	1497.296	1212.414
214.636	27.807	1496.168	1211.783
215.650	27.675	1495.746	1210.455
216.665	27.711	1495.180	1210.127
217.680	27.764	1494.055	1209.468
218.694	27.703	1493.503	1208.506
219.709	27.616	1493.433	1207.763
220.723	27.691	1491.882	1206.900
221.738	27.656	1491.311	1206.102
222.753	27.698	1490.264	1205.423
223.767	27.710	1489.227	1204.562
224.782	27.654	1488.565	1203.547
225.796	27.704	1487.914	1203.245
226.811	27.848	1486.585	1203.015
227.826	27.761	1485.873	1201.756
228.840	27.846	1485.603	1201.993
229.855	27.831	1484.743	1201.092
230.869	27.752	1483.844	1199.737
231.884	27.799	1482.630	1198.960
232.899	27.771	1481.736	1197.946
233.913	27.769	1480.996	1197.228
234.928	27.866	1479.617	1196.640
235.942	27.869	1478.485	1195.642
236.957	27.835	1477.753	1194.721
237.972	27.909	1476.497	1194.087
238.986	27.839	1475.895	1193.035
240.001	27.820	1475.155	1192.206
241.015	27.856	1473.859	1191.289
242.030	27.909	1473.025	1190.854
243.045	28.016	1472.113	1190.709
244.059	28.072	1470.930	1190.010
245.074	27.982	1470.458	1188.936
246.088	28.026	1469.785	1188.572
247.103	28.025	1469.149	1187.949
248.117	27.957	1468.466	1186.847
249.132	28.029	1467.281	1186.252
250.147	27.990	1466.703	1185.432
251.161	27.964	1466.458	1184.955
252.176	27.966	1465.785	1184.321
253.190	27.986	1464.952	1183.675
254.205	27.972	1463.802	1182.550
255.220	28.070	1463.096	1182.508
256.234	28.066	1462.074	1181.554
257.249	28.012	1461.562	1180.686
258.263	28.062	1460.953	1180.413
259.278	28.015	1460.109	1179.323
260.293	28.087	1458.788	1178.616
261.307	28.138	1458.246	1178.397
262.322	28.060	1457.885	1177.501
263.336	28.149	1456.996	1177.254
264.351	28.113	1455.692	1175.861
265.366	28.076	1455.202	1175.126
266.380	28.159	1454.274	1174.807
267.395	28.044	1453.615	1173.432
268.409	28.196	1452.383	1173.308
269.424	28.119	1451.652	1172.122
270.439	28.157	1450.892	1171.646
271.453	28.173	1449.694	1170.677
272.468	28.132	1449.237	1169.943
273.482	28.153	1448.505	1169.384
274.497	28.171	1447.894	1168.900
275.512	28.170	1446.625	1167.764
276.526	28.228	1446.355	1167.811
277.541	28.150	1445.258	1166.326
278.555	28.262	1444.111	1166.011
279.570	28.186	1444.047	1165.372
280.585	28.222	1443.210	1164.827
281.599	28.295	1442.229	1164.394
282.614	28.268	1441.011	1163.136
283.628	28.207	1440.228	1162.017
284.643	28.193	1439.422	1161.173
285.657	28.204	1438.470	1160.373
286.672	28.189	1437.822	1159.650
287.687	28.203	1436.955	1158.938
288.701	28.199	1436.052	1158.080
289.716	28.355	1435.292	1158.352
290.730	28.374	1434.869	1158.029
291.745	28.297	1433.836	1156.604
292.760	28.274	1433.245	1155.883
293.774	28.373	1431.691	1155.152
294.789	28.380	1431.195	1154.690
295.803	28.270	1430.641	1153.448
296.818	28.476	1429.286	1153.553
297.833	28.444	1428.699	1152.776
298.847	28.349	1428.113	1151.602
299.862	28.395	1426.798	1150.728
300.876	28.421	1426.225	1150.330
301.891	28.438	1425.365	1149.636
302.906	28.384	1424.656	1148.625
303.920	28.476	1424.852	1149.259
304.935	28.523	1423.214	1148.130
305.949	28.479	1422.762	1147.391
306.964	28.501	1422.159	1146.936
307.979	28.494	1420.997	1145.861
308.993	28.532	1420.281	1145.419
310.008	28.635	1419.314	1145.174
311.022	28.596	1418.592	1144.249
312.037	28.526	1417.654	1142.956
313.052	28.620	1416.761	1142.720
314.066	28.628	1415.598	1141.734
315.081	28.556	1415.312	1140.954
316.095	28.567	1413.717	1139.631
317.110	28.631	1413.172	1139.488
318.125	28.655	1412.328	1138.859
319.139	28.706	1411.291	1138.234
320.154	28.633	1410.755	1137.251
321.168	28.630	1409.753	1136.325
322.183	28.584	1408.983	1135.316
323.197	28.766	1407.734	1135.336
324.212	28.553	1407.606	1133.815
325.227	28.570	1407.087	1133.403
326.241	28.665	1405.724	1132.794
327.256	28.617	1405.239	1132.004
328.270	28.707	1404.177	1131.600
329.285	28.729	1403.549	1131.131
330.300	28.734	1402.539	1130.249
331.314	28.704	1401.864	1129.420
332.329	28.708	1401.343	1128.923
333.343	28.745	1400.245	1128.168
334.358	28.786	1399.499	1127.719
335.373	28.810	1399.119	1127.458
336.387	28.824	1397.997	1126.540
337.402	28.822	1397.710	1126.198
338.416	28.838	1396.801	1125.465
339.431	28.935	1396.320	1125.573
340.446	28.868	1395.855	1124.690
341.460	28.848	1394.899	1123.696
342.475	28.845	1394.085	1122.924
343.489	28.892	1393.255	1122.441
344.504	28.947	1392.214	1121.837
345.519	28.965	1391.367	1121.167
346.533	28.939	1390.630	1120.316
347.548	29.010	1389.379	1119.641
348.562	28.983	1388.687	1118.819
349.577	29.017	1387.969	1118.349
350.592	29.020	1387.460	1117.855
351.606	28.914	1386.903	1116.665
352.621	28.951	1385.408	1115.586
353.635	28.949	1384.565	1114.801
354.650	28.986	1383.990	1114.461
355.665	28.848	1383.275	1112.953
356.679	28.909	1382.101	1112.276
357.694	29.050	1380.658	1111.866
358.708	29.100	1379.759	1111.351
359.723	29.040	1378.979	1110.262
360.738	29.041	1377.938	1109.331
361.752	28.951	1376.792	1107.770
362.767	28.955	1375.762	1106.862
363.781	29.056	1374.949	1106.718
364.796	29.083	1374.316	1106.272
365.810	29.158	1373.479	1105.955
366.825	29.158	1372.899	1105.389
367.840	29.226	1371.602	1104.652
368.854	29.151	1371.311	1103.874
369.869	29.115	1371.054	1103.352
370.883	29.260	1370.128	1103.376
371.898	29.059	1369.584	1101.641
372.913	29.256	1369.089	1102.319
373.927	29.109	1368.147	1100.589
374.942	29.178	1367.144	1100.092
375.956	29.273	1366.338	1099.914
376.971	29.241	1365.865	1099.244
377.986	29.305	1364.781	1098.661
379.000	29.199	1364.526	1097.723
380.015	29.281	1363.484	1097.280
381.029	29.291	1362.883	1096.755
382.044	29.313	1362.207	1096.243
383.059	29.395	1361.552	1096.108
384.073	29.350	1361.356	1095.587
385.088	29.399	1360.278	1094.913
386.102	29.447	1359.490	1094.468
387.117	29.411	1358.856	1093.647
388.132	29.367	1358.663	1093.136
389.146	29.270	1357.986	1091.919
390.161	29.316	1356.957	1091.263
391.175	29.420	1356.769	1091.632
392.190	29.410	1355.437	1090.407
393.205	29.453	1354.750	1090.011
394.219	29.429	1354.095	1089.246
395.234	29.417	1353.041	1088.231
396.248	29.447	1352.081	1087.538
397.263	29.503	1350.841	1086.774
398.278	29.531	1349.750	1085.968
399.292	29.496	1348.837	1084.927
400.307	29.622	1347.909	1084.827
401.321	29.552	1347.588	1084.063
402.336	29.519	1346.426	1082.837
403.350	29.480	1345.578	1081.831
404.365	29.470	1344.778	1081.035
405.380	29.603	1343.567	1080.743
406.394	29.575	1342.535	1079.652
407.409	29.548	1342.301	1079.210
408.423	29.621	1341.804	1079.145
409.438	29.637	1341.243	1078.691
410.453	29.691	1339.998	1077.907
411.467	29.678	1339.020	1076.951
412.482	29.591	1339.298	1076.572
413.496	29.718	1338.485	1076.563
414.511	29.659	1337.744	1075.525
415.526	29.754	1336.864	1075.278
416.540	29.729	1336.289	1074.573
417.555	29.727	1335.537	1073.863
418.569	29.688	1334.992	1073.102
419.584	29.685	1334.986	1072.986
420.599	29.765	1334.030	1072.588
421.613	95.859	1353.130	1458.797
422.628	95.343	1355.901	1458.904
