DTS Sentinel unit serial number:	SN413079Multiplexer serial number:	ORYXHardware model number:	OX4-SRSoftware version number:	ORYX F/W v4.00 Oryx Data Collector v3.7.2.0data status	okinstallation	princeton_trtdifferential loss correction	single-endedforward channel	channel 4reverse channel	N/Adate	2019/09/11time	15:19:11forward acquisition time	60.00reverse acquisition time	0.00gamma	496.2192k internal	0.2278k external	0.2278temperature offset calibration	1.0016default loss term (dB/km)	0.3790temperature slope calibration	1.0000multiplexer offset coefficient	1.0000multiplexer slope coefficient	1.0000fibre end	0.00T internal ref (°C)	42.89T ext. ref 1 (°C)	0.99T ext. ref 2 (°C)	35.55length (m)	temperature (°C)	Stokes	anti-Stokes-747.200	47.831	-0.178	-0.171
-746.185	44.435	-0.141	0.134
-745.171	-200.000	-0.005	0.111
-744.156	-200.000	0.058	0.354
-743.142	40.370	-0.112	0.103
-742.127	-38.048	0.185	0.101
-741.112	-200.000	0.041	0.411
-740.098	-2.794	0.087	-0.063
-739.083	-72.916	0.032	0.012
-738.069	353.066	-0.092	0.187
-737.054	-51.756	0.366	0.176
-736.039	800.000	0.053	-0.225
-735.025	-28.601	-0.158	0.093
-734.010	-28.610	0.187	0.111
-732.996	74.479	0.186	-0.201
-731.981	141.864	0.147	-0.200
-730.966	1.371	-0.110	-0.081
-729.952	-101.730	0.222	-0.055
-728.937	-56.057	-0.156	-0.071
-727.923	-200.000	0.057	-0.348
-726.908	209.021	0.210	-0.338
-725.894	70.480	-0.220	-0.234
-724.879	146.763	0.062	0.086
-723.864	18.263	0.187	-0.153
-722.850	301.768	-0.104	-0.199
-721.835	-87.694	-0.425	0.132
-720.821	-15.400	0.245	-0.161
-719.806	383.892	-0.062	0.131
-718.791	-77.450	0.078	-0.028
-717.777	31.767	0.199	0.176
-716.762	91.031	0.164	-0.189
-715.748	604.562	-0.064	-0.164
-714.733	-200.000	0.002	0.337
-713.718	-200.000	-0.001	-0.177
-712.704	-200.000	-0.029	-0.484
-711.689	800.000	-0.093	0.326
-710.675	335.455	0.093	0.186
-709.660	260.011	-0.109	0.193
-708.645	-113.106	-0.212	0.043
-707.631	-113.590	0.286	0.058
-706.616	143.143	0.158	-0.216
-705.602	-138.851	-0.108	0.012
-704.587	46.947	-0.209	-0.200
-703.572	26.759	-0.285	-0.245
-702.558	-200.000	-0.027	-0.304
-701.543	764.816	-0.106	0.295
-700.529	800.000	-0.054	-0.160
-699.514	545.057	0.060	0.148
-698.499	-116.275	0.187	0.036
-697.485	33.892	0.072	-0.065
-696.470	4.049	0.143	0.107
-695.456	427.389	0.043	-0.096
-694.441	-200.000	-0.008	-0.171
-693.426	149.588	-0.130	-0.181
-692.412	148.959	0.125	-0.173
-691.397	-200.000	-0.049	-0.247
-690.383	-77.955	0.316	-0.112
-689.368	-142.006	0.179	0.018
-688.354	130.722	-0.180	0.237
-687.339	583.740	-0.070	-0.176
-686.324	-179.320	-0.274	-0.006
-685.310	800.000	0.045	-0.189
-684.295	-159.308	-0.347	0.020
-683.281	192.064	-0.120	0.186
-682.266	300.363	-0.020	0.038
-681.251	-165.415	-0.258	-0.012
-680.237	546.417	-0.121	-0.296
-679.222	344.507	0.106	0.214
-678.208	409.448	-0.145	-0.315
-677.193	800.000	0.012	-0.047
-676.178	648.892	-0.055	-0.144
-675.164	-89.937	0.258	0.077
-674.149	2.722	0.201	-0.149
-673.135	-39.774	0.111	-0.059
-672.120	117.968	-0.185	0.234
-671.105	548.413	0.051	-0.127
-670.091	430.692	-0.040	-0.088
-669.076	-200.000	0.013	0.063
-668.062	-37.917	-0.262	-0.143
-667.047	800.000	0.145	-0.429
-666.032	-47.068	0.092	-0.046
-665.018	1.843	-0.159	0.118
-664.003	-200.000	-0.026	0.196
-662.989	-7.732	-0.334	0.231
-661.974	-118.127	-0.234	-0.043
-660.959	492.093	0.053	-0.125
-659.945	-105.448	-0.346	0.081
-658.930	800.000	-0.060	0.229
-657.916	679.645	-0.071	0.190
-656.901	-76.803	-0.139	-0.050
-655.886	-59.298	-0.158	-0.070
-654.872	-38.713	0.030	-0.016
-653.857	800.000	0.040	-0.167
-652.843	308.296	-0.169	0.323
-651.828	255.107	-0.029	0.052
-650.814	800.000	-0.171	-0.521
-649.799	800.000	-0.020	-0.079
-648.784	-7.724	-0.098	0.068
-647.770	-147.057	0.255	-0.022
-646.755	-118.715	-0.348	0.063
-645.741	50.299	-0.247	0.239
-644.726	362.789	0.077	0.159
-643.711	286.784	-0.138	0.256
-642.697	123.635	-0.103	0.132
-641.682	-113.433	-0.155	0.031
-640.668	-62.847	0.036	0.015
-639.653	711.604	0.033	0.088
-638.638	-200.000	-0.044	0.405
-637.624	249.355	-0.083	0.144
-636.609	49.524	0.197	0.190
-635.595	273.745	-0.141	0.255
-634.580	-25.763	-0.274	0.165
-633.565	-72.877	0.140	-0.053
-632.551	161.149	-0.049	-0.070
-631.536	762.140	0.196	-0.544
-630.522	-200.000	-0.004	-0.135
-629.507	-96.740	-0.060	-0.016
-628.492	-57.336	-0.100	0.045
-627.478	800.000	-0.073	0.227
-626.463	-57.979	0.205	0.092
-625.449	7.157	0.149	-0.114
-624.434	115.941	-0.207	-0.260
-623.419	-200.000	0.049	0.361
-622.405	-54.726	0.077	0.036
-621.390	-1.450	0.073	-0.053
-620.376	-200.000	0.010	0.355
-619.361	355.596	0.008	0.017
-618.346	800.000	0.066	-0.197
-617.332	-90.801	0.203	-0.060
-616.317	-108.051	0.055	0.012
-615.303	-84.398	-0.273	-0.088
-614.288	-200.000	-0.011	0.429
-613.273	-25.388	0.090	-0.054
-612.259	-33.884	0.087	0.049
-611.244	800.000	-0.042	0.122
-610.230	148.495	-0.082	0.113
-609.215	13.761	-0.166	0.132
-608.201	-200.000	0.032	0.295
-607.186	-96.737	0.340	-0.092
-606.171	-13.486	-0.345	-0.229
-605.157	229.049	0.055	0.091
-604.142	49.157	-0.085	0.082
-603.128	-26.428	0.362	0.218
-602.113	-101.873	-0.133	0.033
-601.098	30.163	0.257	-0.224
-600.084	129.744	-0.111	0.145
-599.069	396.204	0.048	0.102
-598.055	-46.357	0.236	-0.119
-597.040	46.174	-0.256	-0.243
-596.025	26.642	0.071	-0.061
-595.011	-200.000	0.008	-0.132
-593.996	233.310	0.106	0.178
-592.982	-48.383	-0.065	-0.032
-591.967	0.894	-0.344	0.252
-590.952	126.331	0.228	-0.295
-589.938	-200.000	-0.015	-0.165
-588.923	-55.796	0.302	0.138
-587.909	-200.000	-0.002	-0.020
-586.894	-132.059	-0.404	0.054
-585.879	-91.266	-0.169	-0.050
-584.865	-48.583	0.112	0.055
-583.850	-117.757	0.114	0.021
-582.836	-66.551	-0.301	-0.122
-581.821	140.669	-0.079	0.106
-580.806	41.447	-0.042	0.039
-579.792	112.902	-0.057	-0.071
-578.777	-131.503	-0.453	0.061
-577.763	-200.000	-0.035	0.178
-576.748	-69.885	0.141	-0.055
-575.733	-9.610	0.253	-0.172
-574.719	800.000	0.043	-0.180
-573.704	95.803	0.007	0.008
-572.690	350.283	-0.072	0.145
-571.675	-72.983	0.257	-0.096
-570.661	-134.859	-0.197	-0.024
-569.646	52.932	0.284	-0.278
-568.631	481.129	0.076	-0.177
-567.617	76.313	0.179	-0.194
-566.602	146.199	0.070	-0.097
-565.588	-14.477	0.226	0.149
-564.573	-200.000	0.014	0.246
-563.558	-19.609	-0.110	0.070
-562.544	30.884	-0.167	-0.146
-561.529	100.394	-0.121	0.143
-560.515	-55.187	-0.087	0.040
-559.500	-168.471	-0.369	0.014
-558.485	-175.953	0.322	-0.009
-557.471	-32.126	-0.337	0.193
-556.456	-145.265	-0.114	0.011
-555.442	62.493	0.248	-0.254
-554.427	-55.019	0.069	-0.032
-553.412	362.136	0.082	0.168
-552.398	25.429	0.392	-0.333
-551.383	-200.000	-0.006	0.323
-550.369	96.970	-0.342	-0.401
-549.354	-200.000	0.004	-0.291
-548.339	-107.866	0.287	-0.064
-547.325	-79.439	-0.128	0.044
-546.310	-54.796	-0.196	0.090
-545.296	-163.011	0.399	-0.020
-544.281	-123.780	0.164	0.026
-543.266	-200.000	0.015	0.325
-542.252	-200.000	0.022	0.174
-541.237	322.919	0.012	-0.023
-540.223	-200.000	-0.182	0.000
-539.208	62.304	0.102	-0.104
-538.193	-93.575	0.127	0.036
-537.179	-200.000	0.027	-0.173
-536.164	800.000	0.105	0.349
-535.150	179.861	0.090	0.134
-534.135	-200.000	0.026	0.306
-533.121	-113.835	-0.264	0.053
-532.106	236.920	-0.038	0.064
-531.091	-200.000	0.022	-0.321
-530.077	-200.000	-0.039	-0.256
-529.062	363.277	-0.028	-0.058
-528.048	-200.000	-0.090	-0.490
-527.033	-200.000	0.018	-0.161
-526.018	-200.000	-0.019	0.121
-525.004	-34.008	0.073	-0.041
-523.989	-126.839	0.139	-0.021
-522.975	-115.318	0.251	0.048
-521.960	-68.117	0.146	-0.058
-520.945	-79.614	0.125	0.043
-519.931	-47.673	-0.217	-0.108
-518.916	-26.703	0.149	0.089
-517.902	-88.253	0.280	0.086
-516.887	800.000	0.094	-0.351
-515.872	-154.084	-0.325	-0.023
-514.858	800.000	0.024	0.099
-513.843	-66.694	-0.241	0.097
-512.829	173.284	-0.094	0.138
-511.814	164.129	0.054	-0.077
-510.799	-61.813	0.192	0.082
-509.785	-153.957	-0.215	0.015
-508.770	-200.000	-0.031	-0.379
-507.756	800.000	-0.041	-0.147
-506.741	-78.774	-0.200	0.070
-505.726	-41.426	0.306	0.160
-504.712	-145.225	0.047	0.004
-503.697	-200.000	-0.007	0.170
-502.683	-178.985	0.242	0.006
-501.668	-33.522	0.188	0.106
-500.653	-131.158	0.131	0.018
-499.639	782.813	0.113	-0.316
-498.624	-109.306	-0.379	-0.082
-497.610	-200.000	-0.012	0.113
-496.595	-51.169	0.195	-0.093
-495.581	-25.466	-0.043	-0.026
-494.566	-3.844	-0.097	0.068
-493.551	-93.236	-0.523	-0.148
-492.537	536.741	-0.125	-0.303
-491.522	-87.073	-0.403	-0.125
-490.508	128.159	0.044	0.057
-489.493	128.265	-0.199	0.259
-488.478	147.376	-0.122	0.167
-487.464	-66.074	-0.106	-0.043
-486.449	22.847	0.186	-0.155
-485.435	29.681	-0.341	0.296
-484.420	-200.000	0.005	0.026
-483.405	-187.432	0.055	-0.001
-482.391	-42.384	0.055	-0.029
-481.376	189.997	-0.161	0.246
-480.362	-38.408	0.028	-0.015
-479.347	800.000	-0.076	0.297
-478.332	-124.513	0.322	-0.051
-477.318	800.000	0.052	-0.160
-476.303	-90.695	0.161	-0.047
-475.289	-16.466	-0.344	-0.222
-474.274	-200.000	0.002	-0.239
-473.259	800.000	0.073	-0.236
-472.245	-78.830	0.149	0.052
-471.230	-200.000	-0.014	0.482
-470.216	75.257	-0.063	0.067
-469.201	77.486	0.167	-0.182
-468.186	540.423	0.097	-0.234
-467.172	-18.332	0.280	-0.178
-466.157	-21.781	-0.266	0.165
-465.143	90.308	-0.066	0.075
-464.128	-120.007	0.279	-0.049
-463.113	-40.085	0.272	-0.144
-462.099	166.046	0.322	0.464
-461.084	-110.717	0.436	0.092
-460.070	600.983	0.034	0.085
-459.055	12.757	-0.118	-0.093
-458.040	-200.000	-0.013	-0.447
-457.026	-47.525	-0.171	0.085
-456.011	-15.205	-0.314	0.205
-454.997	-128.868	0.384	-0.055
-453.982	696.693	-0.077	0.206
-452.968	-69.280	-0.357	0.140
-451.953	-135.197	0.065	0.008
-450.938	26.490	0.182	0.155
-449.924	72.470	0.270	0.287
-448.909	113.447	0.094	-0.116
-447.895	800.000	-0.051	-0.171
-446.880	280.011	0.060	0.110
-445.865	19.258	0.280	0.228
-444.851	-66.715	-0.175	-0.070
-443.836	800.000	0.085	-0.377
-442.822	-30.124	-0.274	-0.158
-441.807	-121.079	0.170	-0.029
-440.792	-112.370	0.305	-0.062
-439.778	128.045	0.133	0.172
-438.763	-5.657	-0.387	-0.270
-437.749	-200.000	-0.001	0.067
-436.734	-79.311	-0.079	-0.027
-435.719	-29.063	-0.109	-0.064
-434.705	-61.405	-0.254	0.109
-433.690	-171.440	0.146	-0.005
-432.676	-123.507	-0.105	-0.017
-431.661	570.144	-0.092	-0.227
-430.646	800.000	-0.125	0.493
-429.632	800.000	0.074	0.323
-428.617	-200.000	0.100	-0.500
-427.603	800.000	-0.043	0.157
-426.588	-17.741	-0.124	0.079
-425.573	338.788	-0.253	-0.500
-424.559	-200.000	-0.026	0.179
-423.544	-1.657	-0.274	0.197
-422.530	66.029	-0.416	-0.429
-421.515	-2.491	-0.200	-0.142
-420.500	-200.000	-0.046	-0.458
-419.486	84.129	-0.160	-0.178
-418.471	-52.270	-0.252	-0.119
-417.457	800.000	0.003	0.008
-416.442	800.000	-0.019	0.063
-415.428	-12.000	0.260	0.173
-414.413	800.000	0.054	-0.188
-413.398	-40.878	-0.050	-0.026
-412.384	147.202	-0.296	-0.405
-411.369	-200.000	0.017	-0.272
-410.355	255.248	-0.098	0.171
-409.340	-23.378	-0.171	-0.104
-408.325	-200.000	-0.008	0.073
-407.311	800.000	-0.022	0.072
-406.296	-37.146	-0.123	0.067
-405.282	389.726	0.164	0.346
-404.267	800.000	-0.068	0.221
-403.252	-110.772	0.681	-0.143
-402.238	-139.258	-0.122	0.013
-401.223	-116.725	-0.160	-0.030
-400.209	-111.423	-0.119	-0.025
-399.194	-120.787	-0.153	0.026
-398.179	116.460	-0.125	0.155
-397.165	86.034	0.071	-0.079
-396.150	-200.000	-0.025	0.225
-395.136	-138.655	0.346	0.038
-394.121	-63.980	-0.191	0.079
-393.106	383.090	0.144	0.301
-392.092	305.095	0.155	-0.293
-391.077	-58.349	0.237	-0.105
-390.063	739.392	-0.060	0.163
-389.048	235.416	-0.172	0.288
-388.033	-74.914	0.346	0.126
-387.019	-5.591	-0.033	-0.023
-386.004	26.321	-0.170	0.145
-384.990	76.832	0.101	0.108
-383.975	97.498	-0.263	0.307
-382.960	-37.813	0.113	0.061
-381.946	-131.018	-0.370	0.050
-380.931	800.000	0.123	0.507
-379.917	-4.261	0.098	0.069
-378.902	-200.000	0.010	0.195
-377.888	71.158	-0.208	0.219
-376.873	73.404	-0.380	-0.404
-375.858	-104.960	0.113	-0.026
-374.844	27.783	-0.168	0.144
-373.829	-87.236	0.215	0.066
-372.815	-149.132	-0.134	0.011
-371.800	-9.214	0.226	0.153
-370.785	-84.583	0.185	0.059
-369.771	800.000	-0.077	0.276
-368.756	-200.000	-0.000	0.206
-367.742	184.818	0.150	0.225
-366.727	-97.256	0.185	-0.049
-365.712	-16.662	0.239	0.153
-364.698	800.000	-0.046	0.178
-363.683	-200.000	0.002	0.108
-362.669	159.400	0.158	-0.223
-361.654	329.549	0.142	-0.277
-360.639	219.627	-0.057	0.092
-359.625	550.347	-0.058	0.142
-358.610	-163.540	0.417	-0.020
-357.596	-98.130	0.317	-0.083
-356.581	-60.948	0.329	-0.141
-355.566	-74.113	0.282	-0.104
-354.552	184.974	0.151	0.227
-353.537	187.171	0.064	-0.097
-352.523	-23.437	0.309	-0.188
-351.508	101.814	0.202	-0.239
-350.493	99.440	0.119	-0.140
-349.479	62.609	-0.031	0.031
-348.464	-200.000	0.003	0.051
-347.450	-161.409	-0.060	-0.003
-346.435	-170.562	-0.112	0.004
-345.420	-200.000	-0.015	-0.386
-344.406	-112.628	-0.057	-0.011
-343.391	-200.000	-0.005	0.139
-342.377	800.000	-0.082	-0.282
-341.362	-166.093	0.020	0.001
-340.348	165.775	-0.017	0.025
-339.333	-200.000	-0.003	-0.018
-338.318	-113.215	0.230	0.046
-337.304	113.354	0.229	-0.282
-336.289	800.000	-0.021	-0.073
-335.275	800.000	0.087	0.250
-334.260	800.000	-0.042	-0.173
-333.245	-93.375	0.309	-0.087
-332.231	115.327	0.129	-0.159
-331.216	800.000	-0.035	-0.140
-330.202	-100.940	-0.154	-0.038
-329.187	800.000	-0.039	-0.132
-328.172	178.672	-0.150	-0.222
-327.158	-62.347	-0.135	-0.057
-326.143	800.000	0.043	-0.155
-325.129	288.939	0.233	-0.429
-324.114	-200.000	0.030	0.172
-323.099	-90.257	0.053	-0.016
-322.085	17.718	0.148	-0.119
-321.070	17.299	0.100	0.080
-320.056	707.446	0.043	-0.116
-319.041	229.963	-0.135	0.224
-318.026	-73.029	-0.199	-0.074
-317.012	66.607	0.163	0.168
-315.997	379.978	0.043	0.090
-314.983	-200.000	0.012	-0.057
-313.968	-130.473	-0.301	-0.041
-312.953	637.164	-0.076	-0.196
-311.939	-8.987	-0.103	-0.070
-310.924	800.000	0.082	0.244
-309.910	-200.000	0.036	-0.270
-308.895	-200.000	-0.030	-0.226
-307.880	2.407	-0.314	0.230
-306.866	-122.038	0.264	0.044
-305.851	19.267	-0.149	-0.121
-304.837	-200.000	0.043	-0.213
-303.822	-200.000	0.002	-0.287
-302.807	63.130	-0.136	0.138
-301.793	-20.406	0.231	-0.144
-300.778	-199.867	-0.118	-0.001
-299.764	800.000	-0.050	-0.142
-298.749	800.000	0.017	-0.074
-297.735	-37.309	0.083	0.045
-296.720	19.462	-0.215	0.175
-295.705	-200.000	0.030	0.224
-294.691	-16.180	0.024	-0.015
-293.676	57.820	0.061	0.060
-292.662	184.281	-0.235	0.353
-291.647	-13.468	-0.330	-0.217
-290.632	61.953	0.037	0.037
-289.618	198.325	-0.135	-0.209
-288.603	15.533	-0.201	0.159
-287.589	22.276	0.240	0.198
-286.574	-200.000	0.004	-0.084
-285.559	-75.723	0.542	-0.195
-284.545	179.701	-0.118	0.174
-283.530	-16.972	0.087	-0.056
-282.516	-115.006	0.361	-0.069
-281.501	-200.000	-0.031	-0.296
-280.486	800.000	-0.062	-0.230
-279.472	-70.888	-0.279	0.106
-278.457	-7.398	-0.202	-0.138
-277.443	-200.000	-0.019	0.191
-276.428	-200.000	-0.015	-0.143
-275.413	35.101	-0.184	-0.163
-274.399	800.000	0.068	0.278
-273.384	42.566	-0.279	0.256
-272.370	800.000	-0.047	-0.197
-271.355	-97.774	-0.328	-0.086
-270.340	-166.607	0.092	-0.004
-269.326	108.672	-0.191	-0.230
-268.311	-123.825	0.286	-0.046
-267.297	98.344	-0.317	0.369
-266.282	72.775	0.059	0.063
-265.267	595.674	0.087	-0.218
-264.253	-44.490	-0.040	-0.020
-263.238	800.000	-0.055	0.158
-262.224	45.481	-0.287	-0.268
-261.209	40.291	0.052	0.048
-260.195	172.836	-0.265	-0.386
-259.180	-100.529	-0.178	0.044
-258.165	-169.139	0.146	-0.005
-257.151	-19.186	0.380	0.239
-256.136	800.000	0.061	0.231
-255.122	800.000	-0.008	0.033
-254.107	-200.000	-0.002	0.047
-253.092	107.894	-0.071	-0.085
-252.078	161.459	0.210	0.297
-251.063	262.539	0.232	-0.406
-250.049	74.832	-0.084	0.089
-249.034	-70.587	-0.286	-0.109
-248.019	53.562	0.066	-0.064
-247.005	54.567	0.280	0.273
-245.990	-134.660	0.269	-0.033
-244.976	221.566	-0.165	-0.267
-243.961	-6.643	-0.156	-0.108
-242.946	45.914	0.176	-0.165
-241.932	-126.090	-0.238	0.036
-240.917	-58.868	0.228	0.100
-239.903	438.776	0.087	0.191
-238.888	316.905	0.066	-0.127
-237.873	-70.740	-0.067	0.025
-236.859	-65.393	-0.351	-0.142
-235.844	275.168	-0.088	0.158
-234.830	-200.000	0.006	0.132
-233.815	-22.143	-0.128	0.078
-232.800	-150.166	-0.082	-0.006
-231.786	800.000	0.047	-0.169
-230.771	800.000	0.066	0.215
-229.757	-47.906	0.103	0.050
-228.742	115.172	-0.194	-0.239
-227.727	800.000	0.097	-0.374
-226.713	-2.126	-0.322	-0.228
-225.698	282.000	0.057	0.103
-224.684	-54.197	0.086	0.040
-223.669	-200.000	0.017	0.101
-222.655	78.482	-0.076	-0.082
-221.640	-177.231	0.343	-0.009
-220.625	-104.055	-0.080	0.019
-219.611	-79.738	0.330	-0.112
-218.596	-196.641	-0.206	-0.001
-217.582	136.663	0.255	0.336
-216.567	-103.640	-0.080	-0.019
-215.552	18.506	0.175	0.141
-214.538	-97.685	-0.387	0.101
-213.523	-200.000	0.004	-0.087
-212.509	-97.538	0.049	0.013
-211.494	800.000	-0.047	0.208
-210.479	-200.000	-0.026	-0.276
-209.465	-200.000	0.021	0.265
-208.450	-169.291	0.253	0.009
-207.436	-64.648	0.028	-0.012
-206.421	141.797	-0.021	-0.028
-205.406	-88.502	-0.130	0.039
-204.392	75.811	-0.208	0.222
-203.377	-76.918	0.195	-0.069
-202.363	-200.000	0.027	0.170
-201.348	-29.108	-0.112	0.065
-200.333	-200.000	0.026	-0.237
-199.319	-101.736	0.296	-0.072
-198.304	-155.895	0.048	0.003
-197.290	63.598	-0.086	-0.087
-196.275	800.000	-0.041	0.121
-195.260	-200.000	-0.001	-0.178
-194.246	-200.000	0.037	0.365
-193.231	-91.490	-0.131	0.038
-192.217	-200.000	-0.027	-0.133
-191.202	-154.061	0.024	0.002
-190.187	-38.358	0.217	-0.116
-189.173	-200.000	0.061	-0.272
-188.158	-178.035	0.214	0.005
-187.144	-200.000	0.003	-0.169
-186.129	577.596	0.101	0.249
-185.114	-150.267	0.382	0.030
-184.100	-71.522	0.062	0.023
-183.085	43.078	0.258	0.237
-182.071	305.791	-0.188	0.352
-181.056	87.010	-0.094	-0.105
-180.042	-85.935	-0.274	0.085
-179.027	224.883	0.111	0.181
-178.012	-55.258	0.144	0.065
-176.998	83.686	-0.219	-0.241
-175.983	558.515	0.047	-0.114
-174.969	-132.828	-0.166	0.021
-173.954	-67.128	-0.053	-0.021
-172.939	-109.371	0.244	0.052
-171.925	-200.000	0.028	-0.263
-170.910	171.126	0.105	-0.152
-169.896	-191.011	-0.108	0.001
-168.881	-43.230	-0.183	-0.093
-167.866	492.010	-0.151	-0.349
-166.852	-200.000	0.020	-0.307
-165.837	-11.064	-0.208	0.138
-164.823	-200.000	0.100	0.538
-163.808	-102.405	-0.221	0.053
-162.793	-154.227	-0.113	0.008
-161.779	455.838	-0.057	-0.128
-160.764	-31.396	0.215	-0.122
-159.750	165.448	0.134	-0.190
-158.735	363.393	-0.025	-0.051
-157.720	-30.784	-0.322	-0.183
-156.706	-200.000	0.006	-0.059
-155.691	-8.268	0.076	0.051
-154.677	103.959	0.101	0.119
-153.662	593.032	-0.123	0.305
-152.647	-102.190	-0.348	0.084
-151.633	-20.770	-0.275	0.170
-150.618	71.258	-0.081	0.084
-149.604	-64.501	0.487	-0.199
-148.589	86.279	0.127	0.141
-147.574	-200.000	-0.016	0.285
-146.560	-76.889	-0.174	0.061
-145.545	145.056	-0.255	-0.344
-144.531	-52.973	-0.213	-0.099
-143.516	251.004	0.056	0.095
-142.502	-132.328	0.420	0.055
-141.487	-153.385	-0.137	0.010
-140.472	-200.000	0.036	0.373
-139.458	-47.017	-0.235	-0.115
-138.443	-140.488	-0.113	0.012
-137.429	228.259	0.116	-0.190
-136.414	-33.918	-0.440	-0.244
-135.399	175.302	0.114	0.166
-134.385	336.687	0.024	0.048
-133.370	-60.298	-0.183	-0.078
-132.356	640.101	0.088	-0.225
-131.341	-26.743	0.179	-0.105
-130.326	-92.558	-0.187	0.053
-129.312	-200.000	-0.043	-0.312
-128.297	-95.245	-0.272	0.074
-127.283	-100.109	0.206	0.051
-126.268	-36.405	0.220	-0.119
-125.253	-114.742	0.216	-0.042
-124.239	223.751	0.069	0.111
-123.224	-151.638	0.208	-0.015
-122.210	-12.582	-0.096	-0.063
-121.195	-121.894	0.335	-0.055
-120.180	-58.788	-0.149	-0.065
-119.166	180.295	-0.119	-0.176
-118.151	12.822	-0.019	0.015
-117.137	473.271	-0.024	-0.054
-116.122	81.547	-0.215	0.233
-115.107	-188.075	0.248	0.003
-114.093	-200.000	0.084	0.437
-113.078	54.907	-0.226	-0.219
-112.064	800.000	-0.096	-0.307
-111.049	-200.000	0.065	-0.440
-110.034	79.584	-0.292	0.314
-109.020	463.684	0.178	0.398
-108.005	242.287	-0.040	0.066
-106.991	-200.000	0.005	0.424
-105.976	151.158	-0.130	0.177
-104.962	-71.229	-0.102	0.038
-103.947	-200.000	0.017	-0.275
-102.932	112.597	0.158	0.192
-101.918	-200.000	-0.036	0.190
-100.903	-96.401	0.142	-0.038
-99.889	-151.143	0.200	0.015
-98.874	210.251	-0.206	0.324
-97.859	-131.145	0.311	0.042
-96.845	99.515	0.118	0.137
-95.830	-65.620	-0.150	0.060
-94.816	66.833	-0.137	0.140
-93.801	89.248	-0.033	0.037
-92.786	-83.454	0.079	0.025
-91.772	386.912	0.066	0.138
-90.757	742.673	-0.064	0.172
-89.743	88.219	0.122	-0.136
-88.728	800.000	-0.040	0.143
-87.713	-200.000	0.006	-0.066
-86.699	-101.359	-0.316	0.077
-85.684	-190.411	0.297	0.003
-84.670	121.801	0.220	-0.275
-83.655	-118.159	0.114	0.020
-82.640	361.923	-0.115	-0.231
-81.626	-41.111	-0.229	0.118
-80.611	213.066	-0.130	0.207
-79.597	-140.511	-0.149	-0.016
-78.582	8.316	-0.226	0.171
-77.567	-150.146	0.095	0.007
-76.553	-200.000	-0.003	0.161
-75.538	63.586	-0.104	-0.105
-74.524	460.262	-0.049	-0.109
-73.509	147.930	0.099	-0.134
-72.494	-106.235	0.105	-0.024
-71.480	29.098	-0.267	-0.228
-70.465	-200.000	-0.002	-0.096
-69.451	-73.812	-0.142	-0.052
-68.436	214.189	0.161	-0.256
-67.422	-66.368	-0.141	-0.056
-66.407	174.995	0.246	0.357
-65.392	800.000	0.054	0.194
-64.378	233.477	-0.009	0.015
-63.363	-139.352	0.371	0.040
-62.349	-200.000	0.012	0.365
-61.334	111.261	-0.696	-0.841
-60.319	-40.808	-0.253	0.131
-59.305	-200.000	-0.017	-0.441
-58.290	800.000	0.248	0.718
-57.276	272.098	0.893	1.579
-56.261	-200.000	74.886	542.122
-55.246	567.369	1300.821	3165.890
-54.232	143.601	2531.942	3380.672
-53.217	111.732	2373.499	2871.461
-52.203	50.299	2110.955	1999.070
-51.188	45.055	2018.609	1863.819
-50.173	43.199	1999.128	1828.954
-49.159	55.390	2035.850	1974.091
-48.144	60.621	2056.378	2041.682
-47.130	45.829	2021.152	1872.945
-46.115	42.926	2010.601	1836.662
-45.100	42.891	2007.803	1833.720
-44.086	42.830	2005.684	1831.154
-43.071	42.755	2003.232	1828.164
-42.057	42.714	2000.935	1825.617
-41.042	42.825	1999.060	1824.846
-40.027	42.855	1996.992	1823.154
-39.013	42.906	1994.971	1821.700
-37.998	42.824	1993.238	1819.299
-36.984	42.905	1991.216	1818.113
-35.969	42.807	1989.636	1815.717
-34.954	42.879	1987.780	1814.603
-33.940	42.975	1986.016	1813.779
-32.925	42.946	1984.489	1812.058
-31.911	42.966	1982.889	1810.706
-30.896	42.826	1981.706	1808.295
-29.881	42.849	1980.123	1806.983
-28.867	42.953	1977.812	1805.736
-27.852	42.956	1976.003	1804.036
-26.838	42.961	1974.119	1802.291
-25.823	42.916	1972.395	1800.239
-24.809	42.927	1970.747	1798.765
-23.794	43.011	1969.347	1798.170
-22.779	42.961	1967.188	1795.680
-21.765	42.902	1966.339	1794.303
-20.750	42.845	1964.386	1791.948
-19.736	42.943	1963.035	1791.519
-18.721	42.906	1961.439	1789.658
-17.706	42.897	1959.404	1787.650
-16.692	42.893	1957.698	1785.987
-15.677	42.909	1955.967	1784.483
-14.663	42.887	1954.541	1782.911
-13.648	42.911	1953.349	1781.969
-12.633	42.878	1952.074	1780.442
-11.619	42.934	1950.588	1779.514
-10.604	42.824	1949.689	1777.644
-9.590	42.836	1948.028	1776.168
-8.575	42.827	1947.015	1775.091
-7.560	42.858	1945.738	1774.135
-6.546	42.876	1944.343	1772.946
-5.531	42.846	1942.585	1771.013
-4.517	42.846	1941.462	1769.915
-3.502	42.923	1939.928	1769.128
-2.487	42.907	1938.608	1767.712
-1.473	42.921	1937.792	1767.024
-0.458	43.089	1933.712	1764.701
0.556	41.906	1914.383	1736.713
1.571	37.729	1893.468	1681.624
2.586	33.469	1914.917	1663.224
3.600	32.300	1952.596	1685.325
4.615	31.505	1950.426	1676.185
5.629	23.922	1844.268	1520.278
6.644	9.649	1709.308	1294.990
7.659	1.734	1662.757	1197.550
8.673	1.117	1657.706	1188.966
9.688	1.006	1656.807	1187.351
10.702	1.008	1654.642	1185.708
11.717	0.820	1652.136	1182.338
12.731	1.327	1652.193	1186.236
13.746	10.012	1673.787	1270.146
14.761	21.838	1699.913	1383.737
15.775	25.344	1704.643	1415.151
16.790	24.737	1702.869	1408.774
17.804	24.779	1701.805	1408.095
18.819	24.757	1701.231	1407.327
19.834	24.930	1700.000	1407.539
20.848	25.123	1700.144	1409.053
21.863	25.120	1698.725	1407.731
22.877	25.084	1698.078	1406.784
23.892	25.109	1696.821	1405.816
24.907	25.039	1696.050	1404.503
25.921	25.118	1694.887	1404.035
26.936	25.125	1693.535	1402.848
27.950	25.114	1692.799	1402.030
28.965	25.150	1692.434	1401.885
29.980	25.143	1691.218	1400.699
30.994	25.101	1689.862	1399.120
32.009	25.092	1688.751	1398.010
33.023	25.159	1687.234	1397.147
34.038	25.123	1687.239	1396.746
35.053	25.150	1685.859	1395.696
36.067	25.046	1684.890	1393.960
37.082	25.081	1684.326	1393.645
38.096	25.162	1683.004	1393.052
39.111	25.099	1682.067	1391.668
40.126	25.168	1680.888	1391.104
41.140	25.115	1680.434	1390.191
42.155	25.171	1679.161	1389.450
43.169	25.117	1678.180	1388.098
44.184	25.086	1677.617	1387.266
45.199	25.160	1676.338	1386.660
46.213	25.160	1675.130	1385.536
47.228	25.106	1673.711	1383.824
48.242	25.063	1672.972	1382.757
49.257	25.111	1671.598	1381.870
50.271	25.072	1670.713	1380.720
51.286	25.096	1669.598	1379.858
52.301	25.133	1667.938	1378.651
53.315	25.166	1666.662	1377.724
54.330	24.997	1665.570	1375.407
55.344	25.183	1664.021	1375.433
56.359	25.139	1663.032	1374.152
57.374	25.042	1662.065	1372.493
58.388	25.175	1660.400	1372.015
59.403	25.063	1660.116	1370.799
60.417	25.119	1658.770	1369.996
61.432	25.138	1657.618	1369.068
62.447	25.178	1656.371	1368.221
63.461	25.210	1655.356	1367.506
64.476	25.111	1654.562	1365.971
65.490	25.197	1653.668	1365.771
66.505	25.135	1652.301	1364.049
67.520	25.154	1651.991	1363.818
68.534	25.136	1650.993	1362.732
69.549	25.180	1649.705	1361.882
70.563	25.193	1648.348	1360.739
71.578	25.259	1647.041	1360.041
72.593	25.159	1646.518	1358.733
73.607	25.182	1645.618	1358.041
74.622	25.205	1644.027	1356.789
75.636	25.261	1643.441	1356.605
76.651	25.204	1642.967	1355.659
77.666	25.157	1642.156	1354.516
78.680	25.195	1640.675	1353.463
79.695	25.205	1639.920	1352.795
80.709	25.188	1639.097	1351.870
81.724	25.219	1638.644	1351.609
82.739	25.188	1637.279	1350.133
83.753	25.166	1636.633	1349.313
84.768	25.164	1635.057	1347.883
85.782	25.251	1634.473	1347.937
86.797	25.210	1634.329	1347.389
87.812	25.141	1633.246	1345.856
88.826	25.161	1632.216	1345.036
89.841	25.214	1631.054	1344.361
90.855	25.261	1629.825	1343.583
91.870	25.140	1629.180	1342.024
92.884	25.113	1628.234	1340.922
93.899	25.224	1626.916	1340.552
94.914	25.261	1625.740	1339.740
95.928	25.247	1624.398	1338.411
96.943	25.188	1623.430	1337.050
97.957	25.155	1622.573	1335.986
98.972	25.231	1620.746	1334.925
99.987	25.238	1619.487	1333.827
101.001	25.254	1618.318	1332.862
102.016	25.274	1616.681	1331.545
103.030	25.217	1615.193	1329.779
104.045	25.214	1614.076	1328.721
105.060	25.225	1612.985	1327.783
106.074	25.221	1611.742	1326.610
107.089	25.261	1610.229	1325.548
108.103	25.231	1609.481	1324.593
109.118	25.220	1608.726	1323.776
110.133	25.243	1607.410	1322.741
111.147	25.241	1606.549	1321.904
112.162	25.283	1605.112	1320.913
113.176	25.325	1603.227	1319.553
114.191	25.249	1602.735	1318.474
115.206	25.251	1601.538	1317.382
116.220	25.322	1600.227	1316.711
117.235	25.258	1599.603	1315.613
118.249	25.213	1598.454	1314.220
119.264	25.175	1597.164	1312.769
120.279	25.218	1595.810	1311.848
121.293	25.290	1594.734	1311.377
122.308	25.243	1593.712	1310.078
123.322	25.388	1592.151	1309.733
124.337	25.291	1591.272	1308.189
125.352	25.327	1590.264	1307.511
126.366	25.281	1589.427	1306.369
127.381	25.366	1588.450	1306.069
128.395	25.316	1587.505	1304.810
129.410	25.377	1586.042	1303.935
130.424	25.324	1585.224	1302.767
131.439	25.441	1583.688	1302.239
132.454	25.305	1582.856	1300.453
133.468	25.256	1581.889	1299.184
134.483	25.318	1580.342	1298.247
135.497	25.363	1578.948	1297.314
136.512	25.308	1578.161	1296.156
137.527	25.351	1576.859	1295.280
138.541	25.382	1575.916	1294.616
139.556	25.453	1574.451	1293.808
140.570	25.448	1573.018	1292.484
141.585	25.407	1572.083	1291.301
142.600	25.398	1571.226	1290.421
143.614	25.320	1570.334	1289.015
144.629	25.395	1568.783	1288.163
145.643	25.413	1567.561	1287.178
146.658	25.389	1566.104	1285.696
147.673	25.332	1564.860	1284.156
148.687	25.237	1564.426	1283.002
149.702	25.375	1562.886	1282.611
150.716	25.346	1561.622	1281.254
151.731	25.316	1560.633	1280.115
152.746	25.272	1559.936	1279.120
153.760	25.289	1558.711	1278.118
154.775	25.298	1557.656	1277.210
155.789	25.378	1556.423	1276.648
156.804	25.456	1555.366	1276.222
157.819	25.410	1553.899	1274.579
158.833	25.273	1553.538	1273.202
159.848	25.405	1552.140	1272.881
160.862	25.480	1551.091	1272.435
161.877	25.409	1550.214	1271.105
162.892	25.391	1549.380	1270.180
163.906	25.395	1548.347	1269.246
164.921	25.477	1546.923	1268.549
165.935	25.443	1546.341	1267.717
166.950	25.609	1545.299	1267.922
167.964	25.397	1544.955	1266.030
168.979	25.439	1543.285	1264.850
169.994	25.443	1542.565	1264.177
171.008	25.509	1541.912	1263.989
172.023	25.502	1540.648	1262.794
173.037	25.477	1539.734	1261.759
174.052	25.520	1538.856	1261.228
175.067	25.479	1538.061	1260.178
176.081	25.529	1536.779	1259.368
177.096	25.526	1535.530	1258.210
178.110	25.596	1534.447	1257.701
179.125	25.475	1534.198	1256.539
180.140	25.471	1533.401	1255.750
181.154	25.519	1532.517	1255.249
182.169	25.541	1531.386	1254.361
183.183	25.476	1530.228	1252.852
184.198	25.566	1528.984	1252.351
185.213	25.498	1528.453	1251.330
186.227	25.487	1527.828	1250.634
187.242	25.575	1526.706	1250.212
188.256	25.569	1526.126	1249.588
189.271	25.615	1524.784	1248.697
190.286	25.694	1523.704	1248.247
191.300	25.588	1523.331	1247.101
192.315	25.626	1522.407	1246.497
193.329	25.535	1521.401	1244.933
194.344	25.492	1521.018	1244.212
195.359	25.524	1520.587	1243.970
196.373	25.597	1519.125	1243.165
197.388	25.511	1517.812	1241.390
198.402	25.609	1516.976	1241.274
199.417	25.508	1516.044	1239.701
200.432	25.479	1515.514	1238.956
201.446	25.559	1514.745	1238.773
202.461	25.527	1513.852	1237.714
203.475	25.535	1513.105	1237.045
204.490	25.557	1512.188	1236.335
205.504	25.571	1511.197	1235.514
206.519	25.501	1510.614	1234.446
207.534	25.577	1509.485	1233.937
208.548	25.548	1508.738	1233.018
209.563	25.656	1507.523	1232.658
210.577	25.604	1506.693	1231.514
211.592	25.648	1505.941	1231.093
212.607	25.648	1505.199	1230.377
213.621	25.662	1504.915	1230.133
214.636	25.695	1504.071	1229.554
215.650	25.729	1503.276	1229.029
216.665	25.735	1502.635	1228.437
217.680	25.653	1501.344	1226.717
218.694	25.664	1500.874	1226.295
219.709	25.715	1500.260	1226.036
220.723	25.755	1498.823	1225.022
221.738	25.717	1498.481	1224.379
222.753	25.749	1497.399	1223.605
223.767	25.587	1496.537	1221.691
224.782	25.522	1495.650	1220.415
225.796	25.742	1494.779	1221.087
226.811	25.766	1494.599	1221.000
227.826	25.695	1493.793	1219.751
228.840	25.773	1492.643	1219.230
229.855	25.806	1491.987	1218.811
230.869	25.725	1491.247	1217.548
231.884	25.690	1490.278	1216.413
232.899	25.728	1488.841	1215.387
233.913	25.733	1487.861	1214.513
234.928	25.714	1486.881	1213.478
235.942	25.838	1485.510	1213.088
236.957	25.925	1484.582	1212.810
237.972	25.773	1484.088	1211.278
238.986	25.775	1482.972	1210.274
240.001	25.853	1482.288	1210.130
241.015	25.860	1480.693	1208.770
242.030	25.844	1480.357	1208.278
243.045	25.884	1479.423	1207.681
244.059	25.918	1478.523	1207.063
245.074	25.969	1477.627	1206.569
246.088	25.897	1476.816	1205.320
247.103	25.897	1476.245	1204.743
248.117	25.884	1475.652	1204.067
249.132	25.922	1474.075	1202.929
250.147	25.888	1473.962	1202.502
251.161	26.023	1473.199	1202.675
252.176	26.007	1472.517	1201.901
253.190	25.970	1471.888	1201.041
254.205	26.095	1470.754	1200.837
255.220	26.081	1469.774	1199.837
256.234	26.021	1469.316	1198.960
257.249	26.108	1467.927	1198.296
258.263	26.028	1467.928	1197.664
259.278	26.055	1466.665	1196.705
260.293	26.097	1465.766	1196.142
261.307	26.078	1465.167	1195.420
262.322	26.115	1464.623	1195.121
263.336	26.091	1463.653	1194.061
264.351	26.102	1462.610	1193.177
265.366	26.115	1461.960	1192.624
266.380	26.066	1461.237	1191.609
267.395	26.065	1460.291	1190.728
268.409	26.075	1459.803	1190.285
269.424	26.106	1458.656	1189.452
270.439	26.065	1457.700	1188.298
271.453	26.100	1456.629	1187.551
272.468	26.166	1456.303	1187.609
273.482	26.190	1455.201	1186.767
274.497	26.257	1454.429	1186.472
275.512	26.061	1454.031	1184.757
276.526	26.185	1453.136	1184.734
277.541	26.191	1452.406	1184.073
278.555	26.227	1451.518	1183.479
279.570	26.266	1450.371	1182.699
280.585	26.314	1449.653	1182.321
281.599	26.198	1449.176	1181.068
282.614	26.236	1448.108	1180.345
283.628	26.199	1446.763	1178.902
284.643	26.233	1446.262	1178.608
285.657	26.317	1445.254	1178.228
286.672	26.152	1444.622	1176.539
287.687	26.289	1443.543	1176.443
288.701	26.247	1442.698	1175.381
289.716	26.284	1442.059	1174.993
290.730	26.339	1441.450	1174.756
291.745	26.315	1440.546	1173.758
292.760	26.316	1439.885	1173.118
293.774	26.278	1438.530	1171.666
294.789	26.180	1438.087	1170.565
295.803	26.274	1437.284	1170.420
296.818	26.409	1435.936	1170.090
297.833	26.312	1435.476	1168.987
298.847	26.318	1434.602	1168.210
299.862	26.443	1433.615	1168.108
300.876	26.401	1433.307	1167.480
301.891	26.356	1432.051	1166.068
302.906	26.376	1431.544	1165.676
303.920	26.484	1430.790	1165.655
304.935	26.487	1430.120	1165.029
305.949	26.496	1429.339	1164.347
306.964	26.381	1428.459	1162.788
307.979	26.463	1427.845	1162.713
308.993	26.491	1426.553	1161.739
310.008	26.526	1425.807	1161.252
311.022	26.642	1424.745	1161.024
312.037	26.490	1424.125	1159.444
313.052	26.532	1422.945	1158.649
314.066	26.530	1422.031	1157.791
315.081	26.502	1421.408	1157.002
316.095	26.531	1420.321	1156.198
317.110	26.492	1419.721	1155.361
318.125	26.580	1418.805	1155.074
319.139	26.614	1417.880	1154.435
320.154	26.562	1417.016	1153.302
321.168	26.602	1415.839	1152.495
322.183	26.617	1415.330	1152.075
323.197	26.597	1414.604	1151.255
324.212	26.521	1413.799	1150.009
325.227	26.654	1412.789	1149.933
326.241	26.691	1411.956	1149.391
327.256	26.629	1411.063	1148.165
328.270	26.696	1410.431	1147.975
329.285	26.670	1409.919	1147.295
330.300	26.740	1409.219	1147.064
331.314	26.687	1408.461	1146.009
332.329	26.680	1407.019	1144.694
333.343	26.708	1406.905	1144.675
334.358	26.793	1405.991	1144.367
335.373	26.862	1405.228	1144.082
336.387	26.782	1404.650	1143.001
337.402	26.803	1403.995	1142.501
338.416	26.831	1403.395	1142.091
339.431	26.854	1402.872	1141.704
340.446	26.844	1402.253	1141.040
341.460	26.863	1401.225	1140.220
342.475	26.887	1400.369	1139.572
343.489	26.931	1399.459	1139.005
344.504	26.904	1398.279	1137.781
345.519	26.829	1397.551	1136.617
346.533	26.855	1396.474	1135.800
347.548	26.976	1395.951	1136.031
348.562	26.973	1394.993	1135.133
349.577	26.997	1393.847	1134.252
350.592	27.106	1393.282	1134.369
351.606	26.937	1392.882	1132.888
352.621	26.811	1391.728	1131.067
353.635	26.822	1390.888	1130.350
354.650	27.053	1389.589	1130.634
355.665	26.933	1389.308	1129.558
356.679	26.999	1388.176	1128.951
357.694	27.068	1386.938	1128.268
358.708	27.030	1385.998	1127.167
359.723	27.144	1384.401	1126.481
360.738	27.128	1383.242	1125.337
361.752	27.003	1382.775	1124.081
362.767	27.013	1381.793	1123.249
363.781	26.942	1381.140	1122.179
364.796	27.070	1380.075	1122.004
365.810	27.139	1379.442	1121.818
366.825	27.180	1379.046	1121.645
367.840	27.122	1377.986	1120.330
368.854	27.159	1377.242	1119.852
369.869	27.170	1377.036	1119.652
370.883	27.133	1376.731	1119.078
371.898	27.282	1375.149	1118.613
372.913	27.203	1374.844	1117.776
373.927	27.192	1374.260	1117.138
374.942	27.165	1373.468	1116.226
375.956	27.235	1372.571	1115.829
376.971	27.244	1371.584	1114.986
377.986	27.194	1371.057	1114.149
379.000	27.186	1370.425	1113.491
380.015	27.259	1369.496	1113.085
381.029	27.276	1368.828	1112.545
382.044	27.207	1368.329	1111.620
383.059	27.240	1367.479	1111.034
384.073	27.319	1366.404	1110.540
385.088	27.312	1366.498	1110.477
386.102	27.397	1365.886	1110.400
387.117	27.385	1365.367	1109.809
388.132	27.361	1364.209	1108.624
389.146	27.193	1363.824	1107.185
390.161	27.246	1363.074	1106.803
391.175	27.458	1362.203	1107.284
392.190	27.380	1361.455	1106.106
393.205	27.392	1360.840	1105.583
394.219	27.402	1360.173	1105.003
395.234	27.452	1359.041	1104.287
396.248	27.499	1358.113	1103.720
397.263	27.423	1356.878	1102.159
398.278	27.533	1355.390	1101.522
399.292	27.517	1354.654	1100.730
400.307	27.446	1354.417	1100.010
401.321	27.553	1353.272	1099.628
402.336	27.622	1352.361	1099.204
403.350	27.524	1351.177	1097.558
404.365	27.543	1350.213	1096.790
405.380	27.564	1349.609	1096.328
406.394	27.654	1348.812	1096.123
407.409	27.568	1348.278	1095.080
408.423	27.660	1347.068	1094.548
409.438	27.655	1346.762	1094.177
410.453	27.599	1346.440	1093.479
411.467	27.737	1345.064	1093.091
412.482	27.722	1344.764	1092.662
413.496	27.685	1344.242	1091.920
414.511	27.638	1343.403	1090.861
415.526	27.765	1342.519	1090.809
416.540	27.710	1341.779	1089.783
417.555	27.647	1341.447	1089.037
418.569	27.723	1340.985	1089.019
419.584	27.707	1340.265	1088.245
420.599	27.713	1339.508	1087.566
421.613	73.886	1317.998	1332.568
422.628	74.513	1314.856	1332.705
