DTS Sentinel unit serial number:	SN413079Multiplexer serial number:	ORYXHardware model number:	OX4-SRSoftware version number:	ORYX F/W v4.00 Oryx Data Collector v3.7.2.0data status	okinstallation	princeton_trtdifferential loss correction	single-endedforward channel	channel 4reverse channel	N/Adate	2019/09/10time	20:47:10forward acquisition time	60.00reverse acquisition time	0.00gamma	496.2192k internal	0.2312k external	0.2312temperature offset calibration	0.9946default loss term (dB/km)	0.3790temperature slope calibration	1.0000multiplexer offset coefficient	1.0000multiplexer slope coefficient	1.0000fibre end	0.00T internal ref (°C)	31.78T ext. ref 1 (°C)	-0.31T ext. ref 2 (°C)	25.15length (m)	temperature (°C)	Stokes	anti-Stokes-747.200	45.518	0.158	0.148
-746.185	-51.569	-0.049	-0.023
-745.171	10.998	0.192	-0.149
-744.156	800.000	0.084	0.248
-743.142	190.617	-0.080	0.122
-742.127	-200.000	0.008	0.382
-741.112	64.289	0.131	0.134
-740.098	158.604	0.147	-0.208
-739.083	-147.252	0.174	-0.015
-738.069	-94.478	0.320	0.088
-737.054	209.172	0.111	0.176
-736.039	200.763	-0.058	0.091
-735.025	-110.848	-0.191	-0.040
-734.010	-43.168	-0.399	0.205
-732.996	-200.000	-0.000	0.192
-731.981	147.437	0.147	-0.201
-730.966	-72.651	0.142	-0.053
-729.952	-137.335	-0.067	0.008
-728.937	29.029	-0.050	0.043
-727.923	-184.139	0.176	0.003
-726.908	-200.000	-0.003	0.195
-725.894	203.512	-0.058	-0.091
-724.879	-85.785	-0.235	-0.074
-723.864	424.995	0.053	0.115
-722.850	-71.911	0.218	0.082
-721.835	607.912	0.042	-0.106
-720.821	-63.290	0.171	0.071
-719.806	-143.339	-0.481	0.047
-718.791	-153.593	-0.291	0.020
-717.777	-21.014	0.245	-0.152
-716.762	349.933	0.124	-0.248
-715.748	-200.000	-0.001	-0.173
-714.733	108.129	0.100	0.121
-713.718	257.639	0.165	-0.288
-712.704	647.492	-0.149	0.386
-711.689	719.119	0.050	-0.134
-710.675	-28.928	-0.281	-0.164
-709.660	-200.000	-0.018	-0.174
-708.645	76.535	0.172	-0.184
-707.631	-4.339	0.098	0.069
-706.616	-200.000	-0.054	0.264
-705.602	-200.000	0.004	0.087
-704.587	275.853	-0.076	0.136
-703.572	-136.195	0.348	-0.041
-702.558	-200.000	-0.010	0.081
-701.543	288.860	-0.032	0.059
-700.529	77.973	-0.059	-0.064
-699.514	145.427	0.122	0.165
-698.499	335.337	-0.167	0.328
-697.485	315.351	-0.024	-0.046
-696.470	-200.000	-0.110	-0.563
-695.456	-200.000	-0.016	0.092
-694.441	-90.928	-0.342	0.100
-693.426	-89.639	-0.229	0.068
-692.412	-200.000	0.084	0.422
-691.397	-90.936	-0.156	-0.045
-690.383	-54.157	-0.168	0.077
-689.368	-200.000	0.024	-0.153
-688.354	-191.353	0.182	0.002
-687.339	-200.000	-0.006	-0.437
-686.324	409.436	-0.094	-0.202
-685.310	800.000	0.024	-0.083
-684.295	300.474	-0.125	-0.233
-683.281	-48.762	-0.306	-0.149
-682.266	-103.121	-0.128	0.031
-681.251	-104.166	-0.204	0.048
-680.237	259.031	-0.223	-0.390
-679.222	-200.000	-0.181	-0.000
-678.208	-51.857	-0.217	0.102
-677.193	90.130	-0.255	-0.288
-676.178	-200.000	-0.030	0.159
-675.164	-114.556	-0.290	0.056
-674.149	162.461	0.063	-0.090
-673.135	800.000	-0.088	-0.310
-672.120	-200.000	-0.020	0.105
-671.105	624.179	0.110	-0.281
-670.091	74.501	-0.038	0.040
-669.076	-39.257	-0.187	0.099
-668.062	70.448	-0.230	0.241
-667.047	-151.423	-0.152	-0.011
-666.032	-27.174	-0.332	-0.195
-665.018	-71.754	0.292	0.110
-664.003	-200.000	0.018	0.124
-662.989	-200.000	0.025	-0.175
-661.974	-149.740	-0.180	0.014
-660.959	9.859	0.106	-0.081
-659.945	27.205	0.149	-0.126
-658.930	-2.467	0.190	-0.134
-657.916	247.666	-0.133	-0.227
-656.901	-200.000	0.020	-0.135
-655.886	-200.000	0.018	0.250
-654.872	23.920	-0.205	0.171
-653.857	-200.000	0.002	0.121
-652.843	-154.896	-0.256	0.017
-651.828	-200.000	-0.045	0.207
-650.814	17.027	-0.203	-0.163
-649.799	-76.750	-0.190	-0.067
-648.784	-109.270	-0.239	-0.051
-647.770	-200.000	-0.003	-0.038
-646.755	-89.698	0.088	-0.026
-645.741	-80.032	-0.169	-0.057
-644.726	495.166	-0.158	0.368
-643.711	263.716	0.141	0.247
-642.697	800.000	-0.151	-0.481
-641.682	-20.447	-0.340	0.211
-640.668	-200.000	-0.013	-0.127
-639.653	48.776	0.162	0.154
-638.638	-143.530	0.193	0.019
-637.624	-9.491	0.138	-0.093
-636.609	-28.595	-0.296	-0.172
-635.595	-47.574	-0.239	0.117
-634.580	-200.000	0.064	-0.549
-633.565	800.000	-0.030	-0.123
-632.551	22.819	-0.215	0.178
-631.536	800.000	-0.009	0.030
-630.522	-200.000	-0.008	-0.218
-629.507	208.391	-0.023	0.037
-628.492	-116.515	-0.197	0.037
-627.478	-60.802	-0.150	-0.064
-626.463	-72.651	0.135	-0.050
-625.449	50.317	0.163	-0.155
-624.434	120.463	-0.097	-0.122
-623.419	-27.336	-0.194	0.114
-622.405	121.244	-0.150	0.188
-621.390	189.667	-0.054	-0.082
-620.376	-50.568	-0.221	-0.105
-619.361	-200.000	0.028	-0.454
-618.346	-50.510	0.286	0.136
-617.332	512.423	0.105	0.246
-616.317	-72.662	-0.222	0.083
-615.303	-81.342	-0.152	0.051
-614.288	524.638	-0.091	0.216
-613.273	35.836	-0.162	0.144
-612.259	15.903	-0.211	-0.168
-611.244	-200.000	-0.021	-0.320
-610.230	-200.000	-0.019	0.183
-609.215	-200.000	0.003	-0.054
-608.201	-200.000	0.040	-0.222
-607.186	-200.000	0.024	0.121
-606.171	-37.192	0.153	0.083
-605.157	-146.143	0.211	0.019
-604.142	-54.264	-0.011	0.005
-603.128	-200.000	0.024	0.307
-602.113	800.000	-0.098	-0.429
-601.098	30.631	-0.243	-0.210
-600.084	800.000	0.066	0.251
-599.069	-12.199	-0.103	-0.068
-598.055	93.994	0.068	-0.078
-597.040	51.854	-0.209	-0.200
-596.025	487.245	0.124	-0.286
-595.011	237.420	0.194	-0.325
-593.996	55.631	0.256	0.250
-592.982	-200.000	-0.042	0.365
-591.967	-130.064	-0.245	-0.034
-590.952	-200.000	-0.078	-0.368
-589.938	236.006	-0.140	-0.233
-588.923	62.303	-0.183	0.184
-587.909	111.277	0.136	-0.166
-586.894	800.000	-0.056	0.183
-585.879	494.195	-0.039	0.090
-584.865	162.967	-0.223	-0.316
-583.850	800.000	-0.148	-0.427
-582.836	800.000	0.052	-0.166
-581.821	-3.388	-0.230	-0.161
-580.806	-158.847	-0.112	-0.006
-579.792	62.920	-0.341	0.344
-578.777	152.178	-0.089	0.123
-577.763	44.818	0.137	-0.127
-576.748	76.469	-0.332	-0.355
-575.733	80.013	-0.164	-0.178
-574.719	-127.306	0.492	-0.072
-573.704	800.000	0.062	-0.181
-572.690	-98.223	-0.034	0.009
-571.675	391.380	0.123	0.256
-570.661	69.891	0.108	-0.113
-569.646	-132.790	0.298	0.038
-568.631	-200.000	0.014	-0.101
-567.617	-108.155	-0.111	0.024
-566.602	-102.940	0.182	-0.044
-565.588	800.000	0.049	-0.162
-564.573	-200.000	-0.050	0.321
-563.558	214.880	-0.036	-0.057
-562.544	800.000	0.062	0.185
-561.529	-200.000	0.024	-0.364
-560.515	225.536	-0.205	0.334
-559.500	-1.308	-0.225	-0.160
-558.485	-200.000	-0.014	-0.067
-557.471	140.791	-0.125	0.166
-556.456	70.991	-0.044	-0.046
-555.442	-200.000	-0.031	0.257
-554.427	-52.125	0.176	0.082
-553.412	-154.106	0.230	0.016
-552.398	338.298	0.210	-0.411
-551.383	100.412	-0.195	-0.228
-550.369	-111.464	0.227	0.047
-549.354	26.979	-0.116	-0.098
-548.339	782.681	0.096	-0.263
-547.325	-200.000	-0.017	0.160
-546.310	-33.041	0.246	0.138
-545.296	-3.186	0.167	-0.118
-544.281	110.762	-0.301	0.365
-543.266	-200.000	0.016	0.202
-542.252	474.383	0.046	0.105
-541.237	8.869	0.217	-0.165
-540.223	435.215	-0.074	0.163
-539.208	-21.791	-0.118	-0.072
-538.193	33.240	0.128	-0.111
-537.179	45.849	-0.125	-0.116
-536.164	79.062	0.114	-0.123
-535.150	-129.667	0.154	0.021
-534.135	800.000	-0.113	0.373
-533.121	289.325	0.152	0.277
-532.106	-100.784	0.152	0.038
-531.091	147.425	-0.093	-0.126
-530.077	-182.465	0.115	-0.002
-529.062	-75.702	-0.238	-0.085
-528.048	575.307	0.032	0.078
-527.033	-21.988	-0.082	0.050
-526.018	39.771	0.142	0.128
-525.004	800.000	0.058	0.165
-523.989	-200.000	-0.015	-0.181
-522.975	268.649	0.022	-0.038
-521.960	-23.840	-0.102	-0.062
-520.945	-114.576	0.427	0.082
-519.931	-200.000	-0.011	-0.163
-518.916	-108.818	0.178	-0.038
-517.902	-44.549	-0.196	-0.098
-516.887	94.697	0.027	0.031
-515.872	-119.940	-0.037	0.006
-514.858	-117.667	0.176	-0.032
-513.843	-124.891	0.294	-0.046
-512.829	130.621	0.208	0.269
-511.814	-107.666	0.132	-0.029
-510.799	575.755	0.014	-0.035
-509.785	38.266	-0.174	-0.156
-508.770	146.510	0.092	0.124
-507.756	-73.556	0.287	0.105
-506.741	-186.603	-0.198	0.003
-505.726	-10.424	0.038	0.025
-504.712	-62.666	-0.226	0.094
-503.697	-76.285	0.111	-0.039
-502.683	-200.000	-0.011	-0.256
-501.668	-49.108	-0.287	-0.138
-500.653	-200.000	-0.052	-0.379
-499.639	-142.665	-0.013	-0.001
-498.624	85.665	-0.096	-0.106
-497.610	264.981	-0.057	0.099
-496.595	-131.364	0.134	0.018
-495.581	-26.735	0.101	-0.059
-494.566	52.568	-0.100	-0.096
-493.551	-98.019	0.291	0.075
-492.537	800.000	0.030	-0.112
-491.522	72.923	-0.127	0.133
-490.508	-41.264	-0.123	0.064
-489.493	37.541	-0.214	0.190
-488.478	800.000	0.140	0.570
-487.464	-200.000	0.035	0.297
-486.449	-200.000	-0.017	0.150
-485.435	-62.447	0.232	0.097
-484.420	-200.000	-0.003	0.077
-483.405	12.626	-0.174	-0.135
-482.391	32.161	-0.016	-0.014
-481.376	-51.506	0.143	-0.067
-480.362	-200.000	-0.018	0.112
-479.347	125.540	-0.178	-0.226
-478.332	84.682	0.266	-0.292
-477.318	344.288	-0.056	-0.110
-476.303	195.262	-0.106	-0.162
-475.289	507.160	0.105	-0.244
-474.274	-135.653	-0.060	0.007
-473.259	800.000	-0.080	-0.286
-472.245	-160.802	0.139	-0.007
-471.230	603.163	0.141	-0.353
-470.216	78.544	-0.238	0.255
-469.201	-85.650	0.159	-0.050
-468.186	568.355	-0.041	-0.099
-467.172	28.502	0.101	-0.086
-466.157	-69.608	0.286	-0.110
-465.143	104.445	0.112	0.132
-464.128	-200.000	-0.023	-0.141
-463.113	-133.768	-0.275	0.034
-462.099	800.000	-0.046	0.148
-461.084	-85.477	0.085	0.026
-460.070	-97.935	-0.135	-0.035
-459.055	46.276	0.112	0.104
-458.040	-139.304	0.313	0.034
-457.026	-200.000	-0.047	0.248
-456.011	263.283	0.078	0.136
-454.997	-200.000	-0.065	-0.304
-453.982	-140.332	-0.031	0.003
-452.968	800.000	-0.086	0.375
-451.953	159.034	-0.097	0.136
-450.938	-7.056	-0.251	-0.171
-449.924	213.141	0.023	0.036
-448.909	488.733	-0.060	0.137
-447.895	800.000	-0.068	-0.201
-446.880	-98.411	-0.387	0.099
-445.865	84.338	-0.047	-0.052
-444.851	109.524	-0.032	0.038
-443.836	-7.256	-0.164	0.112
-442.822	-167.410	0.267	-0.011
-441.807	-200.000	-0.003	0.226
-440.792	-154.987	0.085	0.006
-439.778	800.000	-0.050	-0.179
-438.763	-17.360	0.074	-0.047
-437.749	-200.000	-0.010	-0.217
-436.734	94.179	-0.124	0.141
-435.719	-34.740	0.028	0.016
-434.705	800.000	0.134	-0.402
-433.690	800.000	-0.031	0.124
-432.676	67.058	0.270	0.276
-431.661	800.000	-0.054	0.191
-430.646	-123.087	0.010	-0.002
-429.632	-135.010	0.439	0.053
-428.617	800.000	0.034	0.112
-427.603	-65.256	0.106	0.043
-426.588	-200.000	-0.007	0.129
-425.573	-144.265	0.251	0.023
-424.559	800.000	0.141	0.426
-423.544	-200.000	-0.024	-0.150
-422.530	186.633	0.162	0.242
-421.515	111.642	0.289	0.349
-420.500	-81.623	0.147	0.048
-419.486	800.000	-0.101	-0.441
-418.471	-106.529	0.292	0.065
-417.457	-149.645	-0.118	0.009
-416.442	-167.899	-0.212	-0.008
-415.428	-89.232	0.297	0.088
-414.413	800.000	0.059	-0.179
-413.398	-82.829	-0.215	-0.070
-412.384	268.444	-0.064	0.113
-411.369	-200.000	-0.062	0.307
-410.355	-200.000	0.004	-0.021
-409.340	13.132	-0.319	0.248
-408.325	-20.986	0.171	-0.105
-407.311	300.529	0.082	0.151
-406.296	-81.803	0.344	0.113
-405.282	-200.000	-0.006	-0.113
-404.267	-198.611	0.226	0.001
-403.252	-28.772	0.257	0.148
-402.238	-46.447	0.213	0.104
-401.223	451.713	-0.099	-0.218
-400.209	-200.000	0.040	-0.322
-399.194	-96.964	-0.211	-0.055
-398.179	118.604	0.101	0.124
-397.165	-50.860	0.138	-0.065
-396.150	36.971	0.309	0.274
-395.136	518.374	0.094	-0.219
-394.121	-128.951	0.204	0.029
-393.106	800.000	0.020	-0.073
-392.092	94.620	0.056	-0.064
-391.077	345.640	0.046	0.090
-390.063	800.000	0.080	0.268
-389.048	-61.385	0.213	-0.090
-388.033	213.519	0.168	0.265
-387.019	-83.897	0.439	0.140
-386.004	-200.000	-0.024	0.139
-384.990	-55.915	0.289	0.129
-383.975	317.867	0.091	-0.173
-382.960	-47.680	-0.314	-0.153
-381.946	800.000	-0.118	0.332
-380.931	-122.675	-0.443	0.072
-379.917	-40.433	-0.182	-0.095
-378.902	-200.000	0.000	-0.317
-377.888	351.735	-0.033	0.065
-376.873	-184.315	-0.082	0.001
-375.858	-107.635	-0.202	-0.044
-374.844	-179.548	0.292	0.006
-373.829	-87.395	0.113	-0.034
-372.815	-129.064	-0.444	0.062
-371.800	-52.465	0.019	-0.009
-370.785	499.283	0.031	-0.071
-369.771	-107.235	-0.303	-0.067
-368.756	-200.000	0.038	0.189
-367.742	-18.176	-0.113	-0.071
-366.727	-200.000	-0.056	0.246
-365.712	122.008	0.092	0.115
-364.698	606.897	-0.063	0.156
-363.683	-14.418	0.335	-0.215
-362.669	-90.525	0.210	0.061
-361.654	-168.084	0.052	0.002
-360.639	20.072	-0.164	-0.132
-359.625	-168.248	0.167	0.006
-358.610	-100.093	0.334	0.083
-357.596	1.097	0.226	-0.162
-356.581	204.318	0.099	0.153
-355.566	135.827	-0.181	0.235
-354.552	800.000	-0.083	-0.327
-353.537	-200.000	-0.010	-0.236
-352.523	709.963	0.020	0.052
-351.508	-200.000	0.023	-0.243
-350.493	800.000	-0.041	0.159
-349.479	-7.065	-0.073	0.050
-348.464	-200.000	-0.044	0.207
-347.450	-64.709	-0.190	0.077
-346.435	-93.847	0.388	0.107
-345.420	25.757	-0.192	0.160
-344.406	-189.800	0.209	0.002
-343.391	191.368	-0.193	0.290
-342.377	31.924	0.346	-0.298
-341.362	-161.802	-0.302	0.015
-340.348	-27.182	0.078	-0.045
-339.333	-200.000	0.041	0.230
-338.318	-98.657	-0.252	0.064
-337.304	299.969	-0.138	-0.254
-336.289	-200.000	-0.000	-0.208
-335.275	724.000	0.084	-0.224
-334.260	-200.000	-0.019	-0.173
-333.245	-200.000	0.068	-0.307
-332.231	-73.720	0.304	0.110
-331.216	88.904	-0.174	0.193
-330.202	-80.602	0.512	0.170
-329.187	-200.000	-0.077	0.365
-328.172	-0.508	-0.374	0.265
-327.158	113.762	0.045	0.054
-326.143	284.075	-0.197	0.354
-325.129	48.719	0.251	-0.235
-324.114	-69.042	-0.232	-0.089
-323.099	-134.363	0.085	0.010
-322.085	-62.047	-0.193	-0.080
-321.070	-65.711	-0.130	0.052
-320.056	-200.000	-0.021	-0.345
-319.041	-200.000	-0.044	-0.255
-318.026	-25.422	-0.206	-0.121
-317.012	-87.356	0.224	-0.068
-315.997	-104.840	0.188	0.043
-314.983	-165.184	0.318	0.014
-313.968	-106.147	0.197	0.044
-312.953	-62.537	0.039	-0.016
-311.939	-24.239	0.173	0.103
-310.924	-200.000	0.025	-0.184
-309.910	442.288	-0.155	0.338
-308.895	70.835	-0.293	-0.303
-307.880	-135.608	0.169	0.020
-306.866	800.000	0.019	0.060
-305.851	23.569	0.118	0.097
-304.837	-157.049	-0.330	0.020
-303.822	284.290	-0.206	0.369
-302.807	-200.000	0.002	0.242
-301.793	-120.908	-0.306	-0.051
-300.778	-119.458	0.254	-0.044
-299.764	28.311	0.073	0.062
-298.749	-119.943	-0.122	-0.021
-297.735	-95.304	-0.165	-0.044
-296.720	-200.000	-0.007	0.300
-295.705	50.230	0.175	-0.165
-294.691	29.656	-0.234	0.198
-293.676	340.694	-0.192	-0.374
-292.662	-199.478	0.183	-0.001
-291.647	-99.985	-0.132	-0.033
-290.632	75.399	0.106	0.111
-289.618	-200.000	0.010	-0.114
-288.603	-200.000	-0.002	-0.185
-287.589	127.283	-0.157	-0.198
-286.574	-200.000	0.016	0.094
-285.559	-128.395	0.081	0.011
-284.545	-137.805	0.181	-0.020
-283.530	127.451	0.185	0.234
-282.516	782.529	0.036	-0.099
-281.501	4.039	0.308	0.224
-280.486	667.415	-0.052	-0.135
-279.472	-104.380	-0.226	-0.052
-278.457	539.755	-0.083	0.196
-277.443	-19.776	-0.229	0.141
-276.428	-153.936	-0.247	-0.017
-275.413	-200.000	0.076	-0.413
-274.399	-200.000	0.020	0.123
-273.384	696.218	-0.023	0.059
-272.370	-44.477	-0.160	-0.080
-271.355	-76.485	-0.429	0.150
-270.340	800.000	0.024	-0.101
-269.326	-200.000	0.030	0.335
-268.311	-123.517	-0.173	-0.027
-267.297	-57.448	0.246	0.108
-266.282	-138.030	0.156	-0.017
-265.267	723.643	-0.100	0.265
-264.253	-98.093	0.217	0.056
-263.238	-200.000	0.004	-0.463
-262.224	275.039	0.136	-0.241
-261.209	5.193	-0.258	0.189
-260.195	-200.000	0.001	0.025
-259.180	179.677	-0.157	-0.230
-258.165	-109.708	0.305	-0.064
-257.151	-11.360	0.128	0.084
-256.136	-125.625	-0.279	0.042
-255.122	18.758	0.127	0.101
-254.107	132.230	-0.203	0.261
-253.092	-160.710	0.488	0.026
-252.078	55.602	0.103	0.099
-251.063	-89.979	0.242	0.070
-250.049	800.000	0.061	0.206
-249.034	-82.081	-0.177	-0.057
-248.019	46.094	-0.200	-0.184
-247.005	-111.732	0.124	0.025
-245.990	-38.980	-0.403	-0.211
-244.976	-52.904	-0.128	0.059
-243.961	-17.385	-0.266	-0.167
-242.946	160.512	-0.186	-0.258
-241.932	189.488	0.103	-0.153
-240.917	281.101	0.078	0.139
-239.903	-89.785	-0.285	-0.083
-238.888	337.252	0.107	0.208
-237.873	-34.158	-0.098	-0.053
-236.859	-13.581	0.290	-0.187
-235.844	-148.842	0.226	0.018
-234.830	-200.000	-0.015	-0.125
-233.815	800.000	-0.089	-0.246
-232.800	200.797	-0.023	-0.035
-231.786	-200.000	0.001	-0.035
-230.771	800.000	-0.013	0.040
-229.757	100.229	0.125	-0.145
-228.742	-200.000	-0.029	0.171
-227.727	399.273	0.056	-0.116
-226.713	501.065	-0.053	0.122
-225.698	57.740	-0.305	0.297
-224.684	24.054	-0.277	0.227
-223.669	800.000	-0.029	-0.111
-222.655	-2.832	0.208	-0.145
-221.640	-186.854	0.049	0.001
-220.625	207.509	0.067	0.103
-219.611	800.000	-0.098	0.407
-218.596	719.919	-0.066	0.174
-217.582	-144.940	-0.412	-0.037
-216.567	-115.746	0.197	-0.037
-215.552	202.495	0.052	-0.080
-214.538	494.805	0.073	0.166
-213.523	-42.658	-0.255	0.129
-212.509	-73.463	-0.160	-0.058
-211.494	-107.391	-0.216	-0.047
-210.479	10.747	0.275	-0.209
-209.465	265.677	0.227	-0.393
-208.450	-200.000	0.041	0.256
-207.436	81.584	-0.068	0.073
-206.421	-110.829	0.349	0.071
-205.406	-55.857	-0.124	0.055
-204.392	9.004	0.069	-0.051
-203.377	-200.000	-0.044	0.226
-202.363	-97.111	-0.234	-0.061
-201.348	-102.307	0.220	-0.053
-200.333	-101.802	-0.059	0.014
-199.319	18.084	0.252	-0.200
-198.304	-29.290	-0.331	-0.189
-197.290	-55.101	0.233	0.104
-196.275	-200.000	-0.053	0.235
-195.260	51.831	-0.110	0.104
-194.246	189.082	0.162	0.241
-193.231	133.499	0.123	0.158
-192.217	319.008	0.080	-0.150
-191.202	344.517	0.082	0.159
-190.187	-200.000	0.008	0.269
-189.173	-148.442	-0.189	0.015
-188.158	-130.611	0.201	0.027
-187.144	-200.000	0.000	0.027
-186.129	71.721	0.053	0.055
-185.114	-77.610	0.318	-0.109
-184.100	28.733	0.288	0.242
-183.085	-76.039	-0.279	-0.098
-182.071	-101.171	-0.445	0.108
-181.056	-110.444	-0.354	-0.073
-180.042	5.579	-0.230	0.169
-179.027	-65.463	0.099	-0.040
-178.012	-200.000	-0.073	-0.329
-176.998	219.813	0.156	0.248
-175.983	307.827	0.082	0.151
-174.969	800.000	-0.076	-0.231
-173.954	-200.000	-0.004	-0.165
-172.939	-24.331	-0.223	0.132
-171.925	-42.026	0.124	-0.063
-170.910	263.980	-0.118	0.205
-169.896	800.000	0.044	-0.183
-168.881	129.241	-0.046	0.058
-167.866	234.624	0.073	0.119
-166.852	-40.326	-0.077	-0.039
-165.837	-30.877	-0.265	-0.149
-164.823	-103.692	0.216	0.050
-163.808	167.189	-0.244	-0.343
-162.793	84.930	0.288	-0.313
-161.779	-200.000	0.019	-0.122
-160.764	-200.000	0.006	-0.345
-159.750	72.368	0.090	-0.093
-158.735	224.651	-0.181	-0.291
-157.720	23.573	0.079	0.064
-156.706	106.651	0.182	0.215
-155.691	-114.462	-0.251	-0.048
-154.677	-200.000	-0.016	0.177
-153.662	-200.000	0.053	0.233
-152.647	-200.000	0.009	-0.134
-151.633	-12.288	-0.233	-0.151
-150.618	-163.706	0.215	0.010
-149.604	-137.130	-0.199	0.023
-148.589	-31.101	0.250	-0.140
-147.574	800.000	0.032	-0.119
-146.560	-153.140	0.188	-0.013
-145.545	230.015	0.231	0.375
-144.531	-112.547	0.032	0.006
-143.516	800.000	0.030	0.090
-142.502	143.665	0.226	0.299
-141.487	126.827	-0.159	0.199
-140.472	-72.323	-0.212	0.078
-139.458	65.415	-0.037	-0.037
-138.443	-59.624	0.077	-0.033
-137.429	18.628	-0.084	0.066
-136.414	800.000	0.046	0.150
-135.399	-109.421	-0.244	0.051
-134.385	89.052	-0.134	0.148
-133.370	-200.000	0.083	-0.390
-132.356	24.442	0.244	-0.200
-131.341	227.178	0.168	-0.271
-130.326	800.000	0.056	-0.232
-129.312	-22.919	0.163	-0.097
-128.297	800.000	0.022	0.095
-127.283	-200.000	0.038	0.269
-126.268	496.698	-0.053	-0.121
-125.253	650.401	-0.130	-0.329
-124.239	85.442	-0.125	-0.136
-123.224	123.418	0.106	0.132
-122.210	472.763	0.154	0.343
-121.195	-200.000	-0.031	0.256
-120.180	104.594	0.111	0.130
-119.166	135.417	-0.076	0.098
-118.151	0.625	-0.211	0.149
-117.137	261.536	-0.093	0.159
-116.122	5.687	0.241	0.176
-115.107	-83.139	0.344	0.110
-114.093	-133.203	-0.109	-0.014
-113.078	-99.158	0.295	-0.074
-112.064	-43.234	-0.128	0.064
-111.049	-58.772	0.084	-0.036
-110.034	-200.000	-0.037	-0.200
-109.020	-200.000	-0.050	0.342
-108.005	64.918	0.189	0.188
-106.991	-200.000	-0.004	0.061
-105.976	-83.909	0.274	0.086
-104.962	503.669	-0.100	-0.228
-103.947	-12.880	-0.211	-0.136
-102.932	-138.648	0.440	-0.048
-101.918	107.101	-0.032	0.038
-100.903	361.726	0.143	0.284
-99.889	-110.950	-0.205	-0.042
-98.874	-39.721	0.292	-0.151
-97.859	-14.979	0.163	0.104
-96.845	-59.797	-0.264	-0.112
-95.830	800.000	-0.044	-0.170
-94.816	-200.000	-0.062	0.312
-93.801	-190.134	0.248	-0.003
-92.786	16.429	0.145	0.113
-91.772	257.329	-0.096	0.163
-90.757	-105.055	-0.239	-0.054
-89.743	-150.588	0.297	0.022
-88.728	42.225	0.256	-0.230
-87.713	15.434	-0.213	0.166
-86.699	800.000	-0.105	-0.346
-85.684	-200.000	-0.007	0.056
-84.670	-102.892	0.280	0.066
-83.655	-200.000	-0.011	-0.141
-82.640	30.560	-0.161	-0.136
-81.626	449.977	-0.126	0.275
-80.611	327.507	0.108	0.204
-79.597	-115.266	-0.253	0.047
-78.582	-86.181	-0.128	0.039
-77.567	111.093	-0.102	0.121
-76.553	-99.901	0.130	0.032
-75.538	15.907	0.128	0.099
-74.524	4.158	-0.110	0.080
-73.509	800.000	-0.098	-0.286
-72.494	10.883	-0.266	-0.200
-71.480	-128.047	-0.247	-0.035
-70.465	-114.093	0.185	0.035
-69.451	-116.755	0.273	0.049
-68.436	41.570	0.042	0.037
-67.422	16.744	0.140	-0.109
-66.407	122.479	0.274	0.339
-65.392	-200.000	0.046	-0.282
-64.378	-200.000	-0.208	0.001
-63.363	-200.000	-0.015	-0.213
-62.349	-58.692	-0.164	-0.070
-61.334	41.201	-1.157	-1.033
-60.319	5.105	0.486	0.353
-59.305	382.620	-0.537	-1.090
-58.290	343.573	0.605	1.171
-57.276	800.000	0.550	1.697
-56.261	-200.000	97.473	608.295
-55.246	608.110	1397.261	3443.241
-54.232	189.443	2595.771	3842.533
-53.217	107.673	2307.465	2712.934
-52.203	38.455	2063.911	1816.663
-51.188	33.605	1977.580	1697.327
-50.173	32.007	1959.885	1667.879
-49.159	46.745	2010.786	1844.247
-48.144	48.136	2027.982	1872.483
-47.130	34.158	1989.015	1711.845
-46.115	31.813	1978.700	1681.882
-45.100	31.750	1976.319	1679.229
-44.086	31.646	1974.020	1676.282
-43.071	31.539	1971.445	1673.073
-42.057	31.555	1969.429	1671.432
-41.042	31.620	1967.334	1670.166
-40.027	31.658	1965.290	1668.709
-39.013	31.607	1963.337	1666.527
-37.998	31.671	1961.361	1665.356
-36.984	31.732	1959.132	1663.939
-35.969	31.770	1957.180	1662.547
-34.954	31.729	1955.840	1660.983
-33.940	31.784	1954.527	1660.288
-32.925	31.840	1952.680	1659.149
-31.911	31.825	1950.868	1657.416
-30.896	31.838	1949.002	1655.877
-29.881	31.849	1948.038	1655.090
-28.867	31.847	1946.194	1653.437
-27.852	31.859	1945.098	1652.543
-26.838	31.834	1942.608	1650.151
-25.823	31.899	1940.784	1649.105
-24.809	31.826	1938.967	1646.856
-23.794	31.730	1937.893	1645.031
-22.779	31.789	1936.030	1643.903
-21.765	31.805	1934.154	1642.386
-20.750	31.791	1932.201	1640.540
-19.736	31.739	1931.135	1639.110
-18.721	31.778	1929.466	1637.972
-17.706	31.805	1928.131	1637.008
-16.692	31.774	1926.387	1635.193
-15.677	31.823	1924.439	1633.900
-14.663	31.821	1923.811	1633.292
-13.648	31.787	1921.884	1631.290
-12.633	31.815	1920.591	1630.369
-11.619	31.836	1919.566	1629.618
-10.604	31.848	1918.110	1628.424
-9.590	31.646	1916.954	1625.623
-8.575	31.737	1914.963	1624.664
-7.560	31.801	1913.673	1624.056
-6.546	31.773	1912.251	1622.539
-5.531	31.796	1910.988	1621.603
-4.517	31.761	1910.266	1620.629
-3.502	31.786	1909.274	1619.932
-2.487	31.737	1908.449	1618.746
-1.473	31.776	1907.047	1617.833
-0.458	31.801	1902.228	1613.897
0.556	29.150	1882.686	1585.633
1.571	24.970	1862.868	1533.103
2.586	20.960	1885.244	1516.572
3.600	20.061	1920.493	1536.823
4.615	19.915	1916.687	1532.351
5.629	15.157	1816.691	1412.253
6.644	5.484	1697.260	1242.772
7.659	0.280	1658.638	1173.919
8.673	-0.264	1655.309	1167.226
9.688	-0.281	1654.011	1166.072
10.702	-0.260	1652.326	1164.950
11.717	-0.435	1649.376	1161.407
12.731	-0.108	1647.534	1162.539
13.746	5.770	1662.578	1218.852
14.761	15.151	1683.513	1307.633
15.775	19.466	1690.400	1346.616
16.790	20.031	1690.730	1351.173
17.804	20.090	1690.493	1351.323
18.819	20.064	1689.580	1350.267
19.834	20.170	1688.986	1350.504
20.848	20.411	1687.868	1351.358
21.863	20.385	1687.574	1350.804
22.877	20.362	1686.475	1349.628
23.892	20.432	1685.306	1349.118
24.907	20.453	1684.542	1348.551
25.921	20.480	1683.557	1347.848
26.936	20.447	1682.411	1346.557
27.950	20.445	1681.313	1345.543
28.965	20.408	1680.994	1344.879
29.980	20.406	1679.974	1343.932
30.994	20.481	1678.663	1343.342
32.009	20.504	1677.019	1342.084
33.023	20.466	1676.341	1341.135
34.038	20.453	1675.587	1340.307
35.053	20.499	1674.556	1339.719
36.067	20.429	1673.419	1338.158
37.082	20.376	1672.966	1337.268
38.096	20.363	1671.737	1336.065
39.111	20.317	1671.266	1335.217
40.126	20.417	1669.847	1334.729
41.140	20.442	1669.191	1334.283
42.155	20.451	1667.496	1332.879
43.169	20.411	1666.923	1331.999
44.184	20.420	1665.619	1330.906
45.199	20.423	1664.789	1330.144
46.213	20.377	1663.429	1328.589
47.228	20.384	1662.132	1327.492
48.242	20.426	1661.158	1326.915
49.257	20.334	1659.875	1325.074
50.271	20.395	1659.074	1324.782
51.286	20.373	1657.559	1323.285
52.301	20.415	1656.364	1322.536
53.315	20.420	1654.881	1321.270
54.330	20.316	1653.413	1319.194
55.344	20.364	1652.327	1318.577
56.359	20.398	1650.610	1317.342
57.374	20.374	1650.018	1316.577
58.388	20.503	1648.337	1316.093
59.403	20.374	1647.374	1314.230
60.417	20.363	1646.424	1313.275
61.432	20.440	1645.188	1312.751
62.447	20.455	1644.182	1311.944
63.461	20.354	1643.324	1310.388
64.476	20.407	1642.114	1309.701
65.490	20.447	1640.984	1308.991
66.505	20.518	1639.637	1308.334
67.520	20.508	1639.168	1307.765
68.534	20.444	1638.076	1306.302
69.549	20.452	1637.155	1305.507
70.563	20.478	1635.281	1304.091
71.578	20.469	1634.439	1303.239
72.593	20.467	1633.800	1302.600
73.607	20.478	1632.382	1301.433
74.622	20.365	1632.018	1300.184
75.636	20.448	1631.095	1299.956
76.651	20.450	1629.775	1298.805
77.666	20.555	1628.695	1298.614
78.680	20.459	1627.960	1297.193
79.695	20.387	1626.864	1295.668
80.709	20.441	1626.093	1295.342
81.724	20.547	1624.772	1294.969
82.739	20.490	1624.492	1294.204
83.753	20.386	1623.353	1292.408
84.768	20.540	1621.484	1291.946
85.782	20.537	1620.733	1291.214
86.797	20.486	1619.852	1290.024
87.812	20.547	1618.859	1289.566
88.826	20.460	1618.205	1288.291
89.841	20.482	1617.222	1287.554
90.855	20.483	1616.537	1286.899
91.870	20.477	1615.123	1285.620
92.884	20.472	1613.994	1284.569
93.899	20.445	1613.196	1283.617
94.914	20.484	1611.719	1282.622
95.928	20.519	1610.664	1281.925
96.943	20.460	1609.736	1280.637
97.957	20.505	1608.314	1279.724
98.972	20.506	1606.682	1278.321
99.987	20.480	1605.503	1277.081
101.001	20.457	1604.227	1275.781
102.016	20.511	1602.117	1274.386
103.030	20.410	1601.006	1272.648
104.045	20.451	1599.980	1272.021
105.060	20.415	1598.501	1270.471
106.074	20.489	1596.937	1269.656
107.089	20.585	1595.875	1269.397
108.103	20.501	1594.769	1267.794
109.118	20.537	1593.005	1266.546
110.133	20.526	1591.675	1265.293
111.147	20.632	1590.395	1264.937
112.162	20.621	1589.310	1263.877
113.176	20.682	1587.498	1262.772
114.191	20.525	1586.767	1260.936
115.206	20.473	1585.932	1259.788
116.220	20.480	1584.519	1258.601
117.235	20.511	1583.570	1257.963
118.249	20.493	1582.257	1256.674
119.264	20.544	1580.789	1255.767
120.279	20.559	1579.231	1254.530
121.293	20.496	1578.576	1253.440
122.308	20.599	1576.675	1252.564
123.322	20.670	1575.343	1251.905
124.337	20.631	1574.044	1250.482
125.352	20.591	1572.833	1249.122
126.366	20.574	1571.904	1248.155
127.381	20.650	1571.187	1248.018
128.395	20.695	1569.832	1247.156
129.410	20.671	1568.210	1245.583
130.424	20.579	1567.347	1244.129
131.439	20.612	1566.316	1243.435
132.454	20.535	1565.072	1241.790
133.468	20.614	1562.905	1240.524
134.483	20.598	1562.319	1239.831
135.497	20.614	1560.445	1238.354
136.512	20.624	1559.698	1237.718
137.527	20.640	1558.431	1236.716
138.541	20.563	1557.430	1235.270
139.556	20.609	1555.881	1234.259
140.570	20.637	1554.719	1233.422
141.585	20.626	1553.221	1232.051
142.600	20.659	1552.333	1231.471
143.614	20.552	1551.111	1229.636
144.629	20.642	1549.995	1229.279
145.643	20.613	1548.832	1228.042
146.658	20.572	1547.091	1226.263
147.673	20.516	1545.938	1224.847
148.687	20.495	1545.181	1223.987
149.702	20.642	1543.627	1223.685
150.716	20.531	1542.815	1222.151
151.731	20.596	1540.872	1220.963
152.746	20.635	1540.469	1220.810
153.760	20.649	1539.013	1219.646
154.775	20.648	1537.874	1218.622
155.789	20.684	1537.071	1218.130
156.804	20.678	1535.635	1216.843
157.819	20.669	1534.007	1215.383
158.833	20.608	1533.417	1214.382
159.848	20.689	1531.828	1213.582
160.862	20.676	1531.201	1212.888
161.877	20.633	1530.822	1212.181
162.892	20.732	1529.743	1211.911
163.906	20.731	1528.289	1210.646
164.921	20.751	1527.079	1209.717
165.935	20.774	1526.391	1209.227
166.950	20.732	1525.477	1208.103
167.964	20.809	1524.394	1207.670
168.979	20.706	1523.994	1206.535
169.994	20.753	1522.841	1205.841
171.008	20.748	1521.680	1204.779
172.023	20.757	1520.680	1203.941
173.037	20.763	1519.523	1202.962
174.052	20.711	1518.438	1201.637
175.067	20.794	1517.364	1201.254
176.081	20.787	1516.772	1200.631
177.096	20.728	1515.820	1199.361
178.110	20.811	1514.184	1198.536
179.125	20.789	1513.442	1197.688
180.140	20.813	1512.464	1196.976
181.154	20.787	1511.979	1196.307
182.169	20.826	1510.836	1195.563
183.183	20.714	1510.023	1194.049
184.198	20.783	1508.861	1193.495
185.213	20.888	1507.536	1193.058
186.227	20.885	1507.229	1192.690
187.242	20.844	1506.593	1191.804
188.256	20.873	1505.271	1190.846
189.271	20.834	1504.862	1190.153
190.286	20.843	1503.846	1189.305
191.300	20.808	1503.006	1188.296
192.315	20.847	1501.488	1187.261
193.329	20.859	1501.065	1186.898
194.344	20.876	1500.015	1186.084
195.359	20.801	1500.031	1185.479
196.373	20.945	1498.720	1185.316
197.388	20.820	1497.421	1183.335
198.402	20.718	1496.580	1181.873
199.417	20.829	1495.464	1181.639
200.432	20.827	1494.822	1181.017
201.446	20.871	1494.239	1180.747
202.461	20.856	1493.286	1179.786
203.475	20.884	1492.396	1179.168
204.490	20.860	1491.337	1178.068
205.504	20.876	1490.424	1177.353
206.519	20.823	1489.688	1176.304
207.534	20.790	1488.847	1175.312
208.548	20.892	1487.972	1175.207
209.563	20.968	1487.007	1174.853
210.577	20.809	1486.133	1172.990
211.592	20.852	1485.478	1172.658
212.607	20.871	1484.768	1172.119
213.621	20.895	1484.184	1171.716
214.636	20.971	1483.047	1171.228
215.650	21.041	1481.796	1170.607
216.665	20.909	1481.499	1169.383
217.680	21.029	1480.421	1169.234
218.694	21.026	1479.727	1168.558
219.709	21.017	1478.974	1167.800
220.723	20.986	1477.979	1166.704
221.738	20.955	1477.417	1165.954
222.753	20.991	1476.263	1165.176
223.767	20.986	1475.546	1164.479
224.782	20.847	1474.651	1162.740
225.796	21.036	1473.083	1162.660
226.811	21.038	1473.141	1162.614
227.826	21.008	1472.274	1161.627
228.840	21.052	1471.485	1161.196
229.855	21.021	1471.126	1160.603
230.869	21.030	1470.249	1159.869
231.884	21.057	1468.837	1158.830
232.899	21.095	1467.521	1157.947
233.913	20.992	1466.621	1156.446
234.928	20.981	1465.794	1155.618
235.942	21.029	1464.344	1154.690
236.957	21.072	1463.575	1154.267
237.972	20.983	1462.976	1153.108
238.986	21.074	1461.710	1152.609
240.001	21.024	1460.980	1151.602
241.015	21.112	1459.802	1151.149
242.030	21.173	1459.020	1150.830
243.045	21.209	1457.931	1150.109
244.059	21.149	1457.500	1149.274
245.074	21.228	1456.238	1148.697
246.088	21.156	1455.869	1147.827
247.103	21.276	1454.832	1147.698
248.117	21.110	1454.714	1146.412
249.132	21.196	1453.731	1146.099
250.147	21.073	1453.030	1144.640
251.161	21.184	1452.236	1144.642
252.176	21.293	1451.192	1144.433
253.190	21.390	1450.343	1144.293
254.205	21.274	1449.639	1142.879
255.220	21.360	1448.762	1142.652
256.234	21.238	1448.021	1141.166
257.249	21.192	1447.469	1140.334
258.263	21.292	1446.382	1140.029
259.278	21.219	1445.854	1139.035
260.293	21.235	1444.880	1138.267
261.307	21.322	1443.994	1138.034
262.322	21.307	1443.734	1137.634
263.336	21.325	1442.459	1136.647
264.351	21.353	1441.781	1136.194
265.366	21.367	1440.605	1135.257
266.380	21.395	1439.743	1134.658
267.395	21.245	1438.839	1132.871
268.409	21.372	1438.167	1133.065
269.424	21.300	1437.439	1131.929
270.439	21.356	1436.419	1131.382
271.453	21.400	1435.372	1130.743
272.468	21.261	1434.708	1129.225
273.482	21.427	1434.173	1129.776
274.497	21.292	1433.522	1128.287
275.512	21.423	1432.494	1128.228
276.526	21.402	1432.027	1127.622
277.541	21.464	1431.117	1127.208
278.555	21.411	1430.025	1125.903
279.570	21.492	1429.199	1125.676
280.585	21.479	1428.229	1124.729
281.599	21.415	1427.973	1124.018
282.614	21.516	1426.699	1123.565
283.628	21.444	1425.575	1122.119
284.643	21.399	1424.889	1121.191
285.657	21.568	1423.820	1121.331
286.672	21.509	1422.881	1120.113
287.687	21.478	1422.258	1119.329
288.701	21.475	1421.051	1118.258
289.716	21.561	1420.518	1118.288
290.730	21.610	1419.693	1117.855
291.745	21.499	1418.972	1116.478
292.760	21.555	1418.202	1116.129
293.774	21.572	1417.088	1115.263
294.789	21.504	1416.430	1114.214
295.803	21.615	1415.666	1114.219
296.818	21.649	1414.653	1113.544
297.833	21.514	1414.179	1112.210
298.847	21.586	1413.255	1111.845
299.862	21.688	1411.790	1111.243
300.876	21.673	1411.239	1110.613
301.891	21.591	1410.698	1109.568
302.906	21.708	1409.977	1109.644
303.920	21.792	1408.928	1109.257
304.935	21.826	1408.365	1108.930
305.949	21.652	1408.063	1107.494
306.964	21.589	1407.059	1106.208
307.979	21.729	1405.558	1105.814
308.993	21.722	1405.114	1105.317
310.008	21.751	1404.301	1104.766
311.022	21.830	1403.195	1104.294
312.037	21.717	1402.352	1102.820
313.052	21.771	1401.513	1102.406
314.066	21.823	1400.500	1101.836
315.081	21.815	1399.396	1100.819
316.095	21.816	1399.102	1100.497
317.110	21.759	1398.081	1099.241
318.125	21.822	1396.796	1098.526
319.139	21.900	1396.422	1098.624
320.154	21.824	1395.193	1097.084
321.168	21.795	1394.387	1096.170
322.183	21.875	1393.510	1095.887
323.197	21.887	1392.808	1095.313
324.212	21.931	1391.530	1094.482
325.227	21.838	1391.205	1093.554
326.241	21.807	1390.661	1092.837
327.256	21.973	1389.698	1093.018
328.270	21.980	1388.716	1092.191
329.285	21.900	1388.015	1091.042
330.300	21.933	1387.318	1090.605
331.314	22.057	1386.101	1090.320
332.329	21.879	1385.522	1088.664
333.343	21.844	1385.140	1088.053
334.358	22.036	1383.999	1088.247
335.373	21.959	1383.392	1087.200
336.387	21.998	1382.391	1086.558
337.402	21.998	1381.946	1086.111
338.416	22.027	1381.390	1085.760
339.431	22.111	1381.136	1085.981
340.446	22.046	1380.392	1084.897
341.460	22.016	1379.312	1083.766
342.475	22.168	1377.937	1083.527
343.489	22.155	1377.105	1082.700
344.504	22.176	1376.544	1082.291
345.519	22.142	1375.477	1081.150
346.533	22.150	1374.672	1080.468
347.548	22.272	1373.014	1079.819
348.562	22.152	1373.084	1079.041
349.577	22.098	1372.280	1077.984
350.592	22.156	1371.692	1077.782
351.606	22.109	1371.090	1076.926
352.621	22.148	1369.370	1075.719
353.635	22.164	1368.836	1075.301
354.650	22.137	1368.262	1074.592
355.665	22.252	1367.118	1074.301
356.679	22.215	1365.987	1073.088
357.694	22.286	1364.971	1072.627
358.708	22.297	1363.874	1071.736
359.723	22.166	1363.215	1070.331
360.738	22.251	1361.704	1069.566
361.752	22.190	1360.819	1068.405
362.767	22.199	1359.887	1067.630
363.781	22.204	1359.002	1066.871
364.796	22.308	1358.487	1067.003
365.810	22.289	1357.700	1066.176
366.825	22.329	1356.846	1065.654
367.840	22.319	1356.655	1065.353
368.854	22.337	1355.790	1064.684
369.869	22.363	1355.121	1064.221
370.883	22.472	1354.134	1064.015
371.898	22.456	1353.443	1063.277
372.913	22.484	1352.771	1062.822
373.927	22.327	1352.381	1061.476
374.942	22.325	1351.240	1060.474
375.956	22.394	1350.803	1060.454
376.971	22.406	1349.898	1059.721
377.986	22.439	1349.227	1059.302
379.000	22.417	1348.034	1058.139
380.015	22.408	1347.766	1057.778
381.029	22.511	1346.971	1057.679
382.044	22.449	1346.574	1056.903
383.059	22.447	1345.611	1056.044
384.073	22.411	1345.036	1055.284
385.088	22.460	1344.498	1055.062
386.102	22.471	1343.710	1054.414
387.117	22.584	1342.645	1054.163
388.132	22.504	1342.544	1053.512
389.146	22.578	1341.374	1052.943
390.161	22.608	1340.802	1052.580
391.175	22.625	1340.409	1052.278
392.190	22.569	1339.661	1051.265
393.205	22.539	1338.879	1050.378
394.219	22.664	1337.484	1049.937
395.234	22.553	1336.373	1048.307
396.248	22.631	1335.347	1047.875
397.263	22.701	1334.533	1047.562
398.278	22.674	1333.487	1046.485
399.292	22.694	1332.266	1045.556
400.307	22.748	1331.307	1045.027
401.321	22.746	1330.660	1044.419
402.336	22.703	1329.532	1043.184
403.350	22.778	1328.371	1042.626
404.365	22.796	1327.546	1041.992
405.380	22.826	1326.859	1041.535
406.394	22.719	1326.186	1040.286
407.409	22.638	1325.553	1039.216
408.423	22.728	1324.646	1038.945
409.438	22.878	1323.847	1039.111
410.453	22.827	1323.029	1038.078
411.467	22.941	1322.235	1038.031
412.482	22.979	1321.518	1037.600
413.496	22.833	1321.485	1036.626
414.511	22.901	1320.387	1036.069
415.526	22.799	1320.099	1035.156
416.540	22.942	1318.941	1034.989
417.555	22.940	1318.280	1034.371
418.569	22.822	1317.759	1033.178
419.584	22.899	1317.268	1033.155
420.599	22.965	1316.576	1032.905
421.613	138.774	1428.862	1795.456
422.628	134.971	1445.191	1795.545
