DTS Sentinel unit serial number:	SN413079Multiplexer serial number:	ORYXHardware model number:	OX4-SRSoftware version number:	ORYX F/W v4.00 Oryx Data Collector v3.7.2.0data status	okinstallation	princeton_trtdifferential loss correction	single-endedforward channel	channel 4reverse channel	N/Adate	2019/09/11time	23:43:10forward acquisition time	60.00reverse acquisition time	0.00gamma	496.2192k internal	0.2309k external	0.2309temperature offset calibration	1.0084default loss term (dB/km)	0.3790temperature slope calibration	1.0000multiplexer offset coefficient	1.0000multiplexer slope coefficient	1.0000fibre end	0.00T internal ref (°C)	34.06T ext. ref 1 (°C)	1.92T ext. ref 2 (°C)	27.80length (m)	temperature (°C)	Stokes	anti-Stokes-747.200	313.602	-0.085	0.162
-746.185	198.101	-0.163	0.253
-745.171	800.000	-0.103	0.383
-744.156	334.169	0.118	0.232
-743.142	800.000	-0.056	0.221
-742.127	-113.652	-0.063	0.013
-741.112	-200.000	0.001	0.007
-740.098	-155.140	-0.174	0.012
-739.083	487.269	-0.187	-0.434
-738.069	29.866	0.117	-0.101
-737.054	800.000	0.051	0.178
-736.039	52.355	-0.280	-0.272
-735.025	-136.645	0.409	0.048
-734.010	-77.303	0.016	-0.006
-732.996	-2.079	-0.247	-0.176
-731.981	561.145	-0.079	-0.195
-730.966	278.880	0.113	0.205
-729.952	-200.000	0.010	0.056
-728.937	-150.714	-0.304	-0.023
-727.923	293.449	0.034	0.063
-726.908	-96.493	-0.174	-0.047
-725.894	-88.969	-0.405	-0.122
-724.879	-200.000	-0.010	0.077
-723.864	305.534	0.069	-0.130
-722.850	-78.787	-0.341	0.118
-721.835	22.324	-0.171	-0.142
-720.821	-200.000	0.015	-0.325
-719.806	-56.057	-0.240	-0.109
-718.791	-135.273	-0.403	0.049
-717.777	-26.666	-0.192	0.114
-716.762	-200.000	-0.008	0.132
-715.748	-200.000	0.032	-0.347
-714.733	7.723	-0.173	0.131
-713.718	-65.422	-0.282	-0.115
-712.704	-96.963	0.270	-0.072
-711.689	-200.000	0.025	-0.388
-710.675	791.383	-0.060	-0.168
-709.660	60.421	0.303	-0.304
-708.645	-120.705	0.425	0.073
-707.631	22.176	-0.176	-0.146
-706.616	-200.000	-0.044	0.239
-705.602	-73.715	0.193	0.071
-704.587	-42.613	0.103	0.053
-703.572	-200.000	-0.039	-0.172
-702.558	560.409	-0.055	-0.135
-701.543	-114.329	-0.094	0.018
-700.529	-18.635	-0.117	0.074
-699.514	156.367	0.059	0.083
-698.499	-165.210	-0.071	0.003
-697.485	800.000	0.027	0.087
-696.470	-200.000	-0.018	0.114
-695.456	-87.993	-0.078	-0.024
-694.441	113.464	0.271	-0.334
-693.426	34.237	-0.226	-0.200
-692.412	211.237	0.062	-0.098
-691.397	-68.553	-0.262	0.103
-690.383	-85.693	-0.085	0.027
-689.368	800.000	-0.075	0.219
-688.354	800.000	-0.106	-0.309
-687.339	604.016	0.040	0.102
-686.324	-1.609	0.114	-0.081
-685.310	24.133	-0.138	-0.115
-684.295	379.934	-0.128	-0.267
-683.281	800.000	0.060	-0.248
-682.266	800.000	-0.044	0.138
-681.251	411.329	0.065	-0.139
-680.237	800.000	-0.052	-0.198
-679.222	228.982	0.074	-0.123
-678.208	131.795	0.181	-0.236
-677.193	433.945	-0.136	-0.300
-676.178	-200.000	0.003	0.033
-675.164	-200.000	-0.016	0.090
-674.149	-29.097	-0.148	-0.086
-673.135	-106.335	-0.140	-0.032
-672.120	403.147	-0.116	-0.248
-671.105	495.703	-0.101	-0.235
-670.091	-161.045	0.256	0.014
-669.076	-65.053	0.221	0.090
-668.062	27.032	-0.125	-0.106
-667.047	296.136	-0.073	-0.135
-666.032	-76.211	-0.216	-0.077
-665.018	7.124	0.365	-0.276
-664.003	-89.473	0.211	-0.063
-662.989	215.085	-0.058	-0.093
-661.974	800.000	-0.084	-0.294
-660.959	44.715	-0.185	-0.172
-659.945	22.303	0.124	-0.103
-658.930	-18.342	-0.272	0.172
-657.916	94.140	-0.308	-0.354
-656.901	-200.000	-0.007	0.041
-655.886	-29.012	-0.148	0.086
-654.872	-41.605	0.184	0.096
-653.857	800.000	0.061	-0.262
-652.843	-45.611	0.316	0.158
-651.828	14.274	-0.169	-0.133
-650.814	80.177	-0.202	-0.220
-649.799	-110.507	0.014	-0.003
-648.784	-11.539	-0.213	0.142
-647.770	46.928	0.058	-0.054
-646.755	280.376	-0.108	0.195
-645.741	-200.000	0.060	0.519
-644.726	-35.604	0.129	0.071
-643.711	686.979	-0.105	0.277
-642.697	-97.632	-0.236	-0.062
-641.682	-195.375	-0.127	-0.001
-640.668	-42.510	0.340	-0.176
-639.653	-83.380	0.209	0.068
-638.638	507.667	0.172	0.403
-637.624	667.355	-0.093	-0.244
-636.609	-200.000	-0.013	-0.094
-635.595	-0.944	0.028	0.020
-634.580	-200.000	0.039	-0.361
-633.565	241.047	-0.067	-0.113
-632.551	-34.557	0.153	-0.085
-631.536	-200.000	-0.006	0.123
-630.522	-74.601	0.216	0.079
-629.507	-76.333	0.327	-0.116
-628.492	631.483	-0.108	-0.277
-627.478	-41.097	0.195	-0.102
-626.463	-17.138	0.091	0.058
-625.449	-200.000	0.039	0.287
-624.434	-57.353	0.259	-0.115
-623.419	-200.000	0.004	0.104
-622.405	-144.851	0.265	0.025
-621.390	800.000	0.039	-0.136
-620.376	-43.435	-0.061	0.031
-619.361	11.424	-0.263	0.204
-618.346	-200.000	-0.059	-0.277
-617.332	82.123	-0.183	-0.201
-616.317	153.155	0.112	-0.155
-615.303	221.350	0.040	0.065
-614.288	218.334	0.064	-0.104
-613.273	472.925	0.016	-0.036
-612.259	800.000	0.061	-0.212
-611.244	253.799	0.151	-0.261
-610.230	-16.170	0.040	0.026
-609.215	-200.000	-0.032	-0.313
-608.201	-62.581	0.389	0.163
-607.186	-117.841	0.220	-0.040
-606.171	-190.228	0.184	0.002
-605.157	106.934	0.090	0.108
-604.142	-200.000	-0.297	0.001
-603.128	-200.000	-0.008	-0.046
-602.113	-66.335	0.105	0.042
-601.098	-200.000	0.049	0.361
-600.084	63.828	-0.218	-0.222
-599.069	-23.996	-0.057	0.034
-598.055	-200.000	-0.000	0.012
-597.040	-200.000	-0.021	-0.246
-596.025	-181.255	-0.098	-0.002
-595.011	94.956	-0.121	-0.139
-593.996	-200.000	0.023	0.245
-592.982	118.937	0.153	-0.191
-591.967	-98.201	-0.096	0.025
-590.952	-200.000	-0.070	0.320
-589.938	181.715	-0.087	-0.129
-588.923	125.469	0.131	-0.167
-587.909	121.445	-0.050	-0.062
-586.894	560.577	0.077	-0.189
-585.879	-90.526	-0.098	0.029
-584.865	633.105	0.095	-0.243
-583.850	800.000	0.061	-0.196
-582.836	-74.853	0.094	-0.034
-581.821	-86.287	0.063	-0.020
-580.806	800.000	-0.033	-0.137
-579.792	224.294	0.054	-0.088
-578.777	274.425	0.097	0.173
-577.763	-68.001	0.044	0.017
-576.748	-102.411	-0.242	0.058
-575.733	-44.112	-0.187	0.095
-574.719	-200.000	-0.036	0.259
-573.704	56.971	-0.041	-0.041
-572.690	39.764	0.105	-0.095
-571.675	-55.378	-0.106	-0.048
-570.661	429.118	-0.075	0.164
-569.646	-200.000	-0.009	0.134
-568.631	163.925	-0.104	0.147
-567.617	334.783	-0.064	0.125
-566.602	-96.424	-0.265	0.071
-565.588	800.000	0.037	0.137
-564.573	-25.674	-0.199	0.118
-563.558	-200.000	-0.080	-0.000
-562.544	800.000	0.084	-0.241
-561.529	414.547	-0.149	-0.320
-560.515	160.748	0.028	-0.039
-559.500	-145.702	-0.232	-0.021
-558.485	227.963	-0.068	-0.111
-557.471	-200.000	0.038	0.293
-556.456	-200.000	-0.043	-0.290
-555.442	-40.841	-0.367	0.192
-554.427	-200.000	-0.035	-0.239
-553.412	60.655	0.223	-0.223
-552.398	-140.203	-0.218	-0.023
-551.383	-60.063	-0.374	-0.161
-550.369	-200.000	-0.009	-0.152
-549.354	800.000	-0.027	0.086
-548.339	800.000	-0.111	-0.408
-547.325	-18.085	0.231	0.146
-546.310	-60.621	0.327	-0.140
-545.296	54.905	-0.155	0.151
-544.281	-29.670	0.082	0.047
-543.266	400.362	0.068	-0.145
-542.252	-40.435	0.177	-0.093
-541.237	35.925	-0.202	0.179
-540.223	-200.000	-0.025	0.169
-539.208	45.825	0.083	-0.077
-538.193	33.990	-0.105	-0.092
-537.179	-37.411	0.312	-0.168
-536.164	800.000	0.037	-0.143
-535.150	-32.876	0.082	-0.046
-534.135	-200.000	-0.008	-0.317
-533.121	800.000	0.138	-0.488
-532.106	374.775	0.079	0.161
-531.091	-200.000	-0.015	0.081
-530.077	339.904	0.047	0.092
-529.062	-39.109	-0.283	-0.150
-528.048	-21.226	0.318	-0.196
-527.033	755.044	-0.025	-0.069
-526.018	-68.655	-0.363	-0.141
-525.004	800.000	0.062	0.259
-523.989	-53.283	0.192	-0.089
-522.975	43.570	-0.065	-0.060
-521.960	-200.000	-0.049	0.223
-520.945	-64.926	0.093	-0.038
-519.931	9.578	0.247	0.189
-518.916	301.946	-0.092	0.171
-517.902	181.527	0.249	-0.369
-516.887	-200.000	-0.052	-0.372
-515.872	101.432	-0.164	0.193
-514.858	42.992	-0.138	0.126
-513.843	-41.176	0.060	0.031
-512.829	-95.564	-0.243	-0.066
-511.814	69.960	-0.065	0.067
-510.799	-65.184	-0.324	-0.131
-509.785	800.000	0.074	0.290
-508.770	53.853	0.109	-0.105
-507.756	-74.085	-0.165	-0.060
-506.741	-200.000	-0.025	-0.131
-505.726	-146.417	-0.193	-0.017
-504.712	543.549	0.187	0.448
-503.697	96.671	0.143	-0.165
-502.683	270.039	-0.176	-0.311
-501.668	-125.714	-0.140	0.021
-500.653	-149.188	0.304	-0.024
-499.639	-88.955	-0.160	0.048
-498.624	-200.000	0.081	0.450
-497.610	-123.049	0.068	0.011
-496.595	64.582	-0.165	0.167
-495.581	120.171	0.248	-0.310
-494.566	-136.426	-0.342	0.040
-493.551	662.272	0.023	-0.060
-492.537	800.000	-0.087	0.358
-491.522	713.987	0.056	-0.149
-490.508	-55.597	0.172	-0.077
-489.493	21.819	0.207	-0.170
-488.478	-200.000	0.023	0.278
-487.464	-93.958	-0.076	-0.021
-486.449	156.516	-0.056	-0.078
-485.435	102.964	-0.286	0.337
-484.420	-200.000	0.016	0.106
-483.405	622.557	0.017	-0.042
-482.391	497.157	0.089	0.206
-481.376	-200.000	-0.044	0.280
-480.362	-113.633	0.172	0.034
-479.347	19.940	0.098	-0.080
-478.332	512.783	0.104	0.243
-477.318	48.443	0.167	0.157
-476.303	-97.346	0.288	-0.075
-475.289	-200.000	0.014	-0.077
-474.274	-44.570	-0.135	-0.068
-473.259	-197.405	-0.175	-0.001
-472.245	59.966	0.108	-0.108
-471.230	-200.000	-0.072	0.340
-470.216	800.000	0.047	0.161
-469.201	119.909	-0.201	-0.250
-468.186	-58.076	-0.102	-0.044
-467.172	-7.957	-0.098	0.066
-466.157	-136.229	0.245	0.029
-465.143	-138.179	0.089	0.010
-464.128	-200.000	0.003	0.037
-463.113	-12.715	-0.068	-0.045
-462.099	-16.320	0.070	-0.045
-461.084	369.666	-0.155	-0.315
-460.070	12.007	-0.207	0.160
-459.055	37.434	-0.421	0.375
-458.040	-18.941	-0.186	-0.117
-457.026	-200.000	0.002	0.163
-456.011	-200.000	-0.032	-0.247
-454.997	-29.653	-0.242	0.139
-453.982	-200.000	-0.016	-0.429
-452.968	90.534	0.069	0.078
-451.953	407.491	-0.020	0.042
-450.938	9.242	0.155	-0.117
-449.924	-4.038	-0.249	0.174
-448.909	-122.188	0.164	0.027
-447.895	-70.941	0.130	-0.049
-446.880	-200.000	0.021	-0.283
-445.865	61.706	0.237	0.237
-444.851	-200.000	-0.015	-0.105
-443.836	104.479	0.142	-0.168
-442.822	800.000	-0.071	-0.305
-441.807	-46.355	0.286	0.141
-440.792	-200.000	-0.002	0.106
-439.778	-158.457	-0.011	-0.001
-438.763	800.000	0.013	0.048
-437.749	55.423	-0.275	0.267
-436.734	31.299	-0.316	-0.272
-435.719	-30.992	-0.201	-0.114
-434.705	-151.780	0.371	0.027
-433.690	-60.625	-0.085	-0.036
-432.676	449.514	-0.030	0.066
-431.661	154.117	0.227	0.313
-430.646	36.736	-0.147	-0.130
-429.632	800.000	-0.085	-0.314
-428.617	-190.877	0.022	0.000
-427.603	-73.135	-0.374	-0.138
-426.588	800.000	0.055	0.167
-425.573	26.733	0.317	0.266
-424.559	-33.100	0.273	-0.152
-423.544	1.537	-0.104	0.075
-422.530	-116.382	-0.099	-0.018
-421.515	24.442	-0.252	0.209
-420.500	-42.051	0.137	0.070
-419.486	11.863	-0.419	0.323
-418.471	18.298	-0.249	-0.199
-417.457	-129.820	-0.063	0.009
-416.442	-152.208	-0.268	-0.019
-415.428	70.967	-0.186	0.193
-414.413	235.626	0.110	-0.183
-413.398	-68.374	-0.118	-0.046
-412.384	-161.084	0.250	0.013
-411.369	-94.458	0.116	-0.032
-410.355	27.625	0.295	-0.249
-409.340	651.600	0.041	-0.105
-408.325	800.000	0.074	0.229
-407.311	-35.326	-0.340	0.185
-406.296	302.329	-0.165	-0.307
-405.282	800.000	-0.009	0.032
-404.267	800.000	0.012	0.037
-403.252	-57.259	-0.302	0.133
-402.238	140.611	-0.129	-0.171
-401.223	-84.036	-0.134	0.043
-400.209	-200.000	-0.001	0.279
-399.194	459.941	-0.085	-0.189
-398.179	67.874	-0.154	0.158
-397.165	-200.000	0.007	0.322
-396.150	-104.484	0.253	0.059
-395.136	44.518	-0.064	0.059
-394.121	-200.000	-0.001	-0.142
-393.106	32.858	0.269	-0.233
-392.092	-104.628	-0.280	-0.065
-391.077	-200.000	-0.004	-0.247
-390.063	-200.000	0.025	0.535
-389.048	351.772	-0.127	-0.253
-388.033	205.489	-0.022	0.035
-387.019	-85.345	-0.213	-0.066
-386.004	49.201	0.116	0.109
-384.990	-200.000	-0.028	-0.211
-383.975	-124.669	-0.303	-0.047
-382.960	17.140	0.288	0.229
-381.946	800.000	0.022	0.084
-380.931	-71.584	-0.094	0.035
-379.917	-200.000	0.002	0.215
-378.902	634.462	-0.062	0.158
-377.888	94.265	0.049	0.056
-376.873	800.000	-0.097	-0.390
-375.858	49.771	0.015	0.014
-374.844	-200.000	-0.060	0.274
-373.829	-22.862	-0.251	0.151
-372.815	-200.000	0.006	0.140
-371.800	412.631	0.109	0.232
-370.785	52.512	-0.178	0.170
-369.771	-200.000	-0.011	0.140
-368.756	-127.241	0.347	-0.051
-367.742	-155.994	-0.274	-0.017
-366.727	29.150	0.280	-0.238
-365.712	74.638	0.137	-0.144
-364.698	312.623	0.108	0.204
-363.683	-99.660	-0.330	-0.083
-362.669	86.101	0.139	0.153
-361.654	800.000	-0.063	0.217
-360.639	800.000	-0.088	-0.370
-359.625	-101.671	-0.234	0.057
-358.610	-200.000	0.012	0.080
-357.596	-104.125	0.183	0.043
-356.581	108.889	-0.078	-0.093
-355.566	-125.799	-0.514	0.078
-354.552	-14.490	0.069	-0.044
-353.537	272.630	0.119	0.211
-352.523	-200.000	0.002	-0.187
-351.508	104.018	0.084	0.098
-350.493	-200.000	0.001	-0.092
-349.479	-117.869	0.299	0.054
-348.464	-200.000	0.099	0.586
-347.450	126.615	-0.032	-0.040
-346.435	93.287	0.216	-0.245
-345.420	800.000	0.019	-0.055
-344.406	-200.000	0.038	-0.431
-343.391	421.867	-0.045	0.096
-342.377	-15.643	0.167	-0.107
-341.362	-183.675	-0.135	0.002
-340.348	234.060	0.120	-0.197
-339.333	135.845	-0.077	-0.101
-338.318	58.490	-0.230	0.225
-337.304	-107.463	-0.219	-0.048
-336.289	-82.627	-0.249	0.081
-335.275	40.704	-0.140	0.126
-334.260	-55.512	-0.020	0.009
-333.245	-92.424	0.298	0.084
-332.231	-200.000	-0.011	0.203
-331.216	167.493	-0.105	-0.149
-330.202	382.296	-0.130	-0.266
-329.187	-25.661	0.177	-0.104
-328.172	-171.140	0.084	-0.003
-327.158	68.453	0.230	0.236
-326.143	101.209	0.169	0.197
-325.129	64.372	0.226	0.227
-324.114	-50.248	0.270	0.128
-323.099	-24.410	-0.197	-0.117
-322.085	26.452	0.123	-0.103
-321.070	483.261	0.194	-0.440
-320.056	110.313	0.175	-0.210
-319.041	104.739	-0.193	0.227
-318.026	331.233	0.023	0.045
-317.012	152.382	0.058	-0.079
-315.997	94.208	-0.098	-0.111
-314.983	-54.120	-0.158	0.072
-313.968	-97.414	-0.296	0.077
-312.953	475.379	0.127	-0.286
-311.939	70.194	-0.221	0.228
-310.924	461.289	0.121	0.269
-309.910	330.240	-0.021	0.040
-308.895	-88.648	0.304	-0.090
-307.880	-58.701	0.346	-0.150
-306.866	-53.481	0.144	0.066
-305.851	-50.441	0.316	-0.149
-304.837	433.297	-0.173	0.376
-303.822	-18.473	0.222	0.139
-302.807	-200.000	-0.010	-0.144
-301.793	11.677	-0.122	-0.093
-300.778	-101.062	-0.120	-0.029
-299.764	-91.106	0.174	-0.050
-298.749	300.621	-0.077	0.142
-297.735	-15.937	0.100	0.063
-296.720	58.441	-0.146	0.143
-295.705	237.271	-0.067	-0.110
-294.691	-114.447	-0.221	-0.042
-293.676	149.142	0.064	0.087
-292.662	-103.803	-0.115	-0.027
-291.647	-32.474	0.096	0.054
-290.632	565.097	0.102	-0.247
-289.618	409.951	-0.238	-0.503
-288.603	-77.459	0.057	-0.020
-287.589	222.291	-0.236	0.378
-286.574	6.303	-0.200	0.148
-285.559	199.715	0.092	-0.141
-284.545	800.000	0.082	0.275
-283.530	800.000	-0.082	0.246
-282.516	-57.875	-0.294	0.128
-281.501	-104.577	0.176	-0.040
-280.486	-100.658	0.361	0.089
-279.472	-99.048	-0.065	-0.016
-278.457	-82.012	0.221	-0.072
-277.443	510.467	0.078	-0.181
-276.428	800.000	0.078	0.244
-275.413	-200.000	-0.024	0.328
-274.399	-25.513	0.146	-0.086
-273.384	10.359	0.162	0.123
-272.370	-200.000	0.089	0.419
-271.355	-54.122	0.079	0.036
-270.340	38.809	0.212	0.189
-269.326	155.031	0.154	0.211
-268.311	-75.946	0.126	-0.045
-267.297	16.896	-0.198	-0.156
-266.282	-20.111	-0.098	-0.060
-265.267	-18.405	0.183	0.114
-264.253	-64.044	0.204	0.083
-263.238	395.210	0.096	0.199
-262.224	21.435	0.310	0.252
-261.209	-72.419	0.377	-0.139
-260.195	-127.197	-0.103	0.015
-259.180	-189.589	-0.337	-0.004
-258.165	800.000	-0.059	-0.185
-257.151	-200.000	-0.009	0.193
-256.136	251.278	0.012	0.021
-255.122	800.000	0.037	-0.106
-254.107	275.749	-0.332	-0.586
-253.092	800.000	0.141	0.428
-252.078	-101.970	-0.247	-0.060
-251.063	-91.278	0.333	-0.095
-250.049	800.000	0.041	0.121
-249.034	795.567	0.104	0.287
-248.019	289.541	0.094	-0.170
-247.005	203.672	-0.148	0.229
-245.990	138.788	-0.148	0.193
-244.976	-83.705	-0.534	0.170
-243.961	800.000	0.083	-0.304
-242.946	43.144	-0.143	-0.130
-241.932	60.124	0.234	-0.230
-240.917	-4.595	0.168	-0.115
-239.903	-27.936	-0.213	-0.123
-238.888	104.504	0.126	0.147
-237.873	-55.940	0.420	0.187
-236.859	800.000	0.054	-0.217
-235.844	-200.000	0.038	-0.362
-234.830	172.899	-0.248	-0.356
-233.815	5.567	0.303	0.223
-232.800	-80.737	0.248	-0.082
-231.786	800.000	0.081	-0.227
-230.771	358.602	-0.119	0.237
-229.757	103.467	0.164	0.192
-228.742	-146.542	-0.339	-0.029
-227.727	-182.399	-0.166	0.003
-226.713	686.087	0.031	-0.081
-225.698	-144.792	0.335	-0.031
-224.684	208.560	0.032	-0.050
-223.669	11.145	-0.160	-0.122
-222.655	800.000	-0.091	-0.323
-221.640	320.649	0.251	-0.474
-220.625	57.947	-0.322	-0.314
-219.611	-200.000	-0.023	0.133
-218.596	-99.194	-0.287	0.072
-217.582	-18.931	0.242	0.150
-216.567	38.807	-0.124	0.110
-215.552	117.323	-0.140	0.172
-214.538	350.077	0.055	-0.108
-213.523	383.525	-0.136	0.280
-212.509	17.307	-0.249	-0.196
-211.494	102.961	-0.251	0.292
-210.479	-200.000	0.000	0.365
-209.465	140.874	0.111	-0.145
-208.450	151.328	-0.048	0.065
-207.436	800.000	-0.031	-0.099
-206.421	800.000	0.036	0.125
-205.406	-86.947	-0.149	-0.045
-204.392	-80.558	-0.213	-0.071
-203.377	-45.559	0.051	0.025
-202.363	800.000	0.087	-0.289
-201.348	334.187	-0.036	-0.068
-200.333	36.846	-0.233	-0.205
-199.319	-43.111	-0.335	-0.169
-198.304	-16.359	0.346	-0.219
-197.290	-200.000	-0.012	-0.350
-196.275	269.361	-0.110	-0.192
-195.260	194.261	0.106	0.160
-194.246	800.000	0.074	0.219
-193.231	-131.391	0.245	-0.032
-192.217	222.322	0.016	0.026
-191.202	9.515	-0.163	-0.123
-190.187	-200.000	-0.013	0.194
-189.173	-104.281	-0.393	0.091
-188.158	-200.000	0.051	0.467
-187.144	-73.176	-0.190	0.069
-186.129	-200.000	-0.003	0.180
-185.114	120.057	-0.240	0.296
-184.100	-93.412	0.166	0.046
-183.085	-200.000	0.083	0.414
-182.071	38.149	0.167	-0.148
-181.056	140.469	-0.293	-0.384
-180.042	-30.832	0.319	-0.179
-179.027	-200.000	-0.008	0.039
-178.012	-200.000	-0.044	-0.215
-176.998	739.083	-0.108	0.289
-175.983	-85.373	-0.426	-0.132
-174.969	800.000	-0.012	0.043
-173.954	235.778	0.058	-0.095
-172.939	-120.637	-0.144	-0.024
-171.925	138.748	-0.095	-0.124
-170.910	-200.000	-0.022	-0.172
-169.896	-200.000	-0.049	-0.224
-168.881	-200.000	-0.036	0.276
-167.866	-181.669	0.138	0.003
-166.852	800.000	-0.053	-0.174
-165.837	88.647	-0.107	-0.118
-164.823	800.000	-0.026	0.105
-163.808	800.000	0.098	-0.319
-162.793	-50.201	0.272	-0.128
-161.779	-41.896	-0.131	0.067
-160.764	-20.590	0.238	-0.145
-159.750	169.343	0.108	0.153
-158.735	800.000	0.045	-0.153
-157.720	13.903	0.231	0.179
-156.706	-67.004	0.163	0.064
-155.691	-72.719	0.461	0.169
-154.677	9.721	0.037	-0.027
-153.662	-86.246	0.193	-0.059
-152.647	-153.716	0.384	0.026
-151.633	-51.818	0.283	0.131
-150.618	233.009	-0.270	-0.440
-149.604	-187.634	0.258	0.003
-148.589	357.690	-0.075	0.148
-147.574	-200.000	-0.039	-0.262
-146.560	800.000	0.071	0.225
-145.545	-14.781	0.156	0.099
-144.531	10.031	-0.072	-0.055
-143.516	-79.029	0.088	-0.030
-142.502	-105.411	0.348	0.078
-141.487	420.360	0.044	-0.094
-140.472	-34.606	-0.059	-0.032
-139.458	800.000	-0.049	0.193
-138.443	-96.474	-0.106	0.028
-137.429	-38.753	-0.291	0.153
-136.414	-176.819	0.362	-0.009
-135.399	-200.000	-0.017	0.149
-134.385	205.585	0.105	-0.161
-133.370	-73.056	-0.214	0.078
-132.356	-104.700	0.027	-0.006
-131.341	-21.625	0.163	-0.098
-130.326	695.647	0.058	-0.151
-129.312	-200.000	0.042	-0.323
-128.297	38.686	-0.055	-0.048
-127.283	682.702	-0.141	0.364
-126.268	-163.636	-0.176	0.008
-125.253	265.096	0.027	-0.047
-124.239	-144.696	0.340	0.031
-123.224	240.179	0.041	-0.068
-122.210	-200.000	-0.015	0.097
-121.195	-24.900	-0.228	-0.134
-120.180	-138.942	-0.147	0.016
-119.166	-200.000	0.016	0.112
-118.151	-200.000	0.040	-0.393
-117.137	119.047	-0.161	0.197
-116.122	800.000	-0.088	0.295
-115.107	157.522	0.167	-0.229
-114.093	-88.035	-0.213	0.063
-113.078	800.000	0.012	-0.048
-112.064	110.034	0.340	0.405
-111.049	-11.945	0.044	0.028
-110.034	-100.660	0.317	-0.078
-109.020	135.551	-0.072	0.092
-108.005	-200.000	0.028	-0.206
-106.991	-182.606	-0.130	0.002
-105.976	-200.000	-0.003	-0.147
-104.962	522.085	-0.062	0.144
-103.947	-58.941	0.202	-0.086
-102.932	190.896	0.083	0.124
-101.918	-11.074	0.128	0.084
-100.903	-200.000	0.016	-0.129
-99.889	343.129	0.100	0.193
-98.874	-109.229	-0.213	-0.045
-97.859	-94.408	-0.322	0.087
-96.845	800.000	-0.045	0.175
-95.830	15.508	0.221	0.172
-94.816	-200.000	0.013	-0.150
-93.801	66.855	-0.051	0.051
-92.786	415.634	0.131	0.276
-91.772	-58.198	-0.421	0.182
-90.757	523.985	0.043	-0.101
-89.743	-197.822	-0.188	0.001
-88.728	554.446	-0.064	-0.152
-87.713	800.000	-0.141	0.403
-86.699	347.668	0.119	-0.231
-85.684	800.000	0.057	-0.232
-84.670	-69.918	0.073	0.028
-83.655	268.550	0.072	0.126
-82.640	130.820	0.283	0.359
-81.626	191.629	0.093	0.139
-80.611	-143.856	0.303	-0.028
-79.597	-99.203	0.062	-0.015
-78.582	-109.037	0.122	0.026
-77.567	539.097	-0.072	-0.168
-76.553	-123.463	0.362	0.057
-75.538	-200.000	-0.016	-0.151
-74.524	-142.645	0.173	-0.017
-73.509	800.000	-0.102	0.380
-72.494	-200.000	0.039	0.217
-71.480	301.916	0.138	0.253
-70.465	550.408	-0.078	-0.184
-69.451	800.000	-0.059	-0.166
-68.436	-200.000	-0.006	-0.122
-67.422	14.219	0.278	0.215
-66.407	800.000	-0.046	-0.183
-65.392	-162.733	-0.249	-0.012
-64.378	-61.716	-0.211	-0.087
-63.363	250.508	0.110	-0.185
-62.349	-200.000	0.010	-0.119
-61.334	36.954	-1.103	-0.965
-60.319	-23.745	0.502	0.297
-59.305	800.000	-0.345	-1.056
-58.290	130.311	0.719	0.910
-57.276	-200.000	0.353	1.827
-56.261	-200.000	97.629	583.894
-55.246	537.680	1392.842	3272.956
-54.232	151.998	2592.913	3497.016
-53.217	103.163	2311.865	2679.631
-52.203	40.426	2062.344	1836.035
-51.188	35.770	1976.325	1717.916
-50.173	34.251	1957.904	1688.385
-49.159	49.066	2009.005	1865.856
-48.144	51.251	2028.568	1903.587
-47.130	36.488	1986.935	1733.308
-46.115	34.046	1976.343	1702.176
-45.100	34.067	1972.575	1699.052
-44.086	33.916	1971.090	1696.359
-43.071	33.926	1968.370	1694.040
-42.057	33.849	1966.119	1691.352
-41.042	33.790	1964.840	1689.655
-40.027	33.934	1962.568	1688.916
-39.013	33.910	1960.338	1686.720
-37.998	33.937	1958.477	1685.293
-36.984	33.998	1956.929	1684.434
-35.969	33.916	1955.356	1682.286
-34.954	33.918	1954.166	1681.215
-33.940	34.036	1951.994	1680.315
-32.925	34.002	1950.520	1678.682
-31.911	33.987	1948.764	1676.977
-30.896	34.117	1946.145	1675.799
-29.881	34.097	1944.883	1674.466
-28.867	34.068	1944.294	1673.640
-27.852	34.084	1942.014	1671.751
-26.838	34.113	1940.166	1670.353
-25.823	34.113	1938.009	1668.424
-24.809	34.058	1937.086	1667.081
-23.794	34.077	1935.117	1665.488
-22.779	34.119	1932.850	1663.836
-21.765	34.086	1931.579	1662.387
-20.750	34.144	1929.887	1661.374
-19.736	34.075	1928.562	1659.565
-18.721	34.094	1927.303	1658.579
-17.706	34.100	1925.050	1656.633
-16.692	34.148	1923.281	1655.456
-15.677	34.113	1922.284	1654.234
-14.663	34.112	1920.501	1652.625
-13.648	34.111	1919.813	1651.955
-12.633	34.162	1917.610	1650.437
-11.619	34.118	1916.846	1649.331
-10.604	34.102	1915.809	1648.241
-9.590	34.135	1914.177	1647.057
-8.575	34.022	1912.909	1644.922
-7.560	34.124	1911.729	1644.719
-6.546	34.089	1910.598	1643.378
-5.531	34.082	1909.268	1642.110
-4.517	34.132	1908.258	1641.608
-3.502	34.059	1907.013	1639.841
-2.487	33.964	1906.033	1638.112
-1.473	34.142	1904.905	1638.614
-0.458	34.060	1900.348	1633.929
0.556	34.085	1880.250	1605.815
1.571	30.025	1861.186	1555.383
2.586	26.162	1883.951	1541.368
3.600	25.321	1920.257	1563.603
4.615	24.945	1915.943	1556.689
5.629	19.277	1814.465	1427.306
6.644	8.346	1692.114	1246.070
7.659	2.518	1652.110	1172.001
8.673	2.030	1648.725	1165.771
9.688	2.020	1646.650	1164.119
10.702	1.859	1645.433	1161.928
11.717	1.772	1642.089	1158.802
12.731	2.065	1641.858	1160.770
13.746	9.123	1658.519	1226.513
14.761	19.942	1682.563	1327.591
15.775	25.293	1691.848	1375.942
16.790	26.253	1693.213	1384.291
17.804	26.332	1692.556	1384.236
18.819	26.406	1691.775	1384.043
19.834	26.565	1691.110	1384.594
20.848	26.874	1690.194	1386.078
21.863	26.776	1689.878	1384.953
22.877	26.841	1688.994	1384.602
23.892	26.919	1687.538	1383.878
24.907	26.783	1687.318	1382.540
25.921	26.909	1685.521	1381.903
26.936	26.839	1684.623	1380.511
27.950	26.813	1683.784	1379.502
28.965	26.783	1683.520	1378.934
29.980	26.893	1682.027	1378.425
30.994	26.813	1680.953	1376.818
32.009	26.863	1679.442	1375.843
33.023	26.814	1678.711	1374.749
34.038	26.856	1677.491	1373.945
35.053	26.853	1676.767	1373.204
36.067	26.810	1676.001	1372.135
37.082	26.742	1675.449	1371.049
38.096	26.837	1674.226	1370.645
39.111	26.788	1673.327	1369.414
40.126	26.877	1672.018	1368.896
41.140	26.785	1671.939	1368.013
42.155	26.848	1670.496	1367.183
43.169	26.916	1669.226	1366.540
44.184	26.825	1668.756	1365.349
45.199	26.862	1667.557	1364.524
46.213	26.674	1666.740	1362.320
47.228	26.743	1665.367	1361.595
48.242	26.792	1663.953	1360.691
49.257	26.801	1662.872	1359.752
50.271	26.869	1661.750	1359.220
51.286	26.848	1660.575	1357.981
52.301	26.854	1658.871	1356.514
53.315	26.799	1658.250	1355.476
54.330	26.756	1656.503	1353.606
55.344	26.941	1654.854	1353.519
56.359	26.845	1654.032	1352.013
57.374	26.894	1652.817	1351.266
58.388	26.861	1652.108	1350.318
59.403	26.909	1650.737	1349.436
60.417	26.910	1648.981	1347.890
61.432	26.911	1648.542	1347.420
62.447	26.821	1647.826	1346.042
63.461	26.833	1646.602	1345.014
64.476	26.934	1645.316	1344.596
65.490	26.796	1644.882	1343.100
66.505	26.861	1643.345	1342.210
67.520	26.866	1643.008	1341.851
68.534	26.825	1641.696	1340.357
69.549	26.878	1640.479	1339.638
70.563	26.959	1639.388	1339.222
71.578	26.849	1638.155	1337.283
72.593	26.914	1637.534	1337.144
73.607	26.832	1636.607	1335.662
74.622	26.863	1635.795	1335.105
75.636	26.876	1634.955	1334.401
76.651	26.935	1633.926	1333.876
77.666	26.815	1632.780	1331.940
78.680	26.919	1632.002	1331.953
79.695	26.835	1631.231	1330.590
80.709	26.938	1630.246	1330.424
81.724	26.844	1629.503	1329.010
82.739	26.868	1628.620	1328.351
83.753	26.850	1627.823	1327.445
84.768	26.850	1626.876	1326.557
85.782	26.939	1625.717	1326.149
86.797	26.923	1624.673	1325.062
87.812	26.882	1623.972	1324.072
88.826	26.904	1623.003	1323.326
89.841	26.911	1622.294	1322.681
90.855	26.911	1621.368	1321.811
91.870	26.909	1620.192	1320.716
92.884	26.955	1618.772	1319.781
93.899	26.965	1617.608	1318.785
94.914	26.905	1617.071	1317.794
95.928	26.813	1616.045	1316.176
96.943	26.995	1614.187	1315.867
97.957	27.022	1612.934	1314.921
98.972	26.876	1611.828	1312.849
99.987	26.989	1610.193	1312.219
101.001	26.960	1609.322	1311.185
102.016	26.824	1607.918	1308.941
103.030	26.885	1606.187	1307.858
104.045	26.904	1605.201	1307.076
105.060	26.886	1604.183	1306.002
106.074	26.941	1602.614	1305.003
107.089	26.828	1601.525	1303.186
108.103	26.949	1600.427	1303.051
109.118	26.978	1599.644	1302.504
110.133	26.889	1598.662	1300.954
111.147	26.965	1596.987	1300.015
112.162	26.893	1596.308	1298.836
113.176	26.892	1595.167	1297.786
114.191	26.939	1593.939	1297.007
115.206	26.935	1592.543	1295.728
116.220	26.867	1591.869	1294.579
117.235	26.971	1590.342	1293.959
118.249	26.919	1589.495	1292.791
119.264	26.903	1588.479	1291.732
120.279	26.890	1586.833	1290.190
121.293	26.942	1585.856	1289.651
122.308	27.017	1584.944	1289.327
123.322	27.011	1583.656	1288.121
124.337	27.079	1582.196	1287.303
125.352	27.031	1581.672	1286.422
126.366	27.078	1580.093	1285.357
127.381	26.951	1579.567	1283.914
128.395	26.990	1578.679	1283.355
129.410	27.108	1577.793	1283.356
130.424	27.033	1576.534	1281.690
131.439	26.978	1575.008	1279.950
132.454	27.098	1574.104	1279.945
133.468	27.050	1572.880	1278.501
134.483	27.084	1571.458	1277.468
135.497	27.034	1570.523	1276.247
136.512	26.935	1569.691	1274.759
137.527	27.008	1567.996	1273.781
138.541	27.008	1567.522	1273.282
139.556	27.075	1566.013	1272.417
140.570	27.016	1564.836	1270.936
141.585	26.991	1563.843	1269.842
142.600	27.006	1562.841	1269.021
143.614	27.087	1561.399	1268.301
144.629	27.059	1560.585	1267.335
145.643	27.045	1559.393	1266.154
146.658	27.023	1558.195	1264.921
147.673	26.954	1557.064	1263.409
148.687	27.009	1556.238	1263.010
149.702	27.028	1554.750	1261.823
150.716	26.904	1553.791	1260.071
151.731	26.985	1552.034	1259.097
152.746	27.006	1551.598	1258.772
153.760	27.011	1549.996	1257.396
154.775	27.087	1548.941	1256.960
155.789	27.074	1547.895	1255.908
156.804	27.061	1546.912	1254.911
157.819	27.048	1545.802	1253.810
158.833	27.035	1545.027	1252.981
159.848	27.136	1543.873	1252.630
160.862	27.111	1543.136	1251.744
161.877	27.061	1542.193	1250.530
162.892	27.138	1541.068	1250.034
163.906	27.069	1540.025	1248.601
164.921	27.206	1539.199	1248.762
165.935	27.095	1538.235	1247.109
166.950	27.227	1537.195	1247.061
167.964	27.191	1536.518	1246.154
168.979	27.202	1535.384	1245.198
169.994	27.090	1535.114	1244.101
171.008	27.155	1534.315	1243.791
172.023	27.255	1532.611	1242.985
173.037	27.140	1531.695	1241.345
174.052	27.197	1530.188	1240.405
175.067	27.235	1529.680	1240.139
176.081	27.196	1528.544	1238.846
177.096	27.114	1528.064	1237.786
178.110	27.172	1526.861	1237.100
179.125	27.203	1525.679	1236.240
180.140	27.196	1525.015	1235.545
181.154	27.345	1523.924	1235.562
182.169	27.247	1523.212	1234.211
183.183	27.187	1522.333	1232.983
184.198	27.232	1521.021	1232.120
185.213	27.096	1520.849	1230.949
186.227	27.265	1519.211	1230.654
187.242	27.323	1518.619	1230.463
188.256	27.209	1518.296	1229.317
189.271	27.318	1516.772	1228.717
190.286	27.300	1516.311	1228.108
191.300	27.321	1515.548	1227.522
192.315	27.223	1514.517	1225.917
193.329	27.227	1513.484	1224.999
194.344	27.188	1512.638	1223.946
195.359	27.261	1512.015	1223.825
196.373	27.236	1511.476	1223.115
197.388	27.268	1509.986	1222.011
198.402	27.215	1509.113	1220.843
199.417	27.259	1507.877	1220.027
200.432	27.282	1507.504	1219.774
201.446	27.329	1506.495	1219.164
202.461	27.258	1505.904	1218.101
203.475	27.295	1504.789	1217.344
204.490	27.272	1503.883	1216.349
205.504	27.204	1503.457	1215.443
206.519	27.180	1502.572	1214.454
207.534	27.302	1501.602	1214.378
208.548	27.327	1500.761	1213.761
209.563	27.267	1499.647	1212.352
210.577	27.397	1498.687	1212.336
211.592	27.347	1498.036	1211.365
212.607	27.431	1497.432	1211.332
213.621	27.331	1497.082	1210.274
214.636	27.418	1496.197	1210.033
215.650	27.412	1494.996	1208.912
216.665	27.334	1494.666	1208.021
217.680	27.357	1493.660	1207.251
218.694	27.350	1492.958	1206.530
219.709	27.372	1492.602	1206.287
220.723	27.355	1491.092	1204.842
221.738	27.365	1490.287	1204.153
222.753	27.465	1489.828	1204.338
223.767	27.353	1488.411	1202.347
224.782	27.253	1488.146	1201.364
225.796	27.388	1487.235	1201.413
226.811	27.488	1486.030	1200.994
227.826	27.503	1485.884	1200.866
228.840	27.459	1485.295	1199.997
229.855	27.493	1484.348	1199.351
230.869	27.427	1483.522	1198.142
231.884	27.482	1482.279	1197.395
232.899	27.533	1481.038	1196.619
233.913	27.422	1480.436	1195.299
234.928	27.445	1479.240	1194.380
235.942	27.509	1478.376	1193.994
236.957	27.507	1477.559	1193.212
237.972	27.594	1476.234	1192.607
238.986	27.515	1475.585	1191.460
240.001	27.537	1474.245	1190.416
241.015	27.524	1473.488	1189.614
242.030	27.616	1472.352	1189.192
243.045	27.632	1471.441	1188.460
244.059	27.646	1470.641	1187.795
245.074	27.719	1469.622	1187.344
246.088	27.620	1469.204	1186.261
247.103	27.823	1467.972	1186.475
248.117	27.629	1467.901	1185.056
249.132	27.755	1466.619	1184.730
250.147	27.600	1466.448	1183.481
251.161	27.606	1466.062	1183.105
252.176	27.723	1464.840	1182.772
253.190	27.657	1464.429	1181.910
254.205	27.679	1463.224	1180.976
255.220	27.754	1462.335	1180.641
256.234	27.700	1461.721	1179.692
257.249	27.728	1460.924	1179.120
258.263	27.808	1459.811	1178.634
259.278	27.801	1459.224	1178.012
260.293	27.819	1457.890	1176.945
261.307	27.814	1457.710	1176.664
262.322	27.733	1457.192	1175.622
263.336	27.806	1456.289	1175.260
264.351	27.875	1455.093	1174.637
265.366	27.851	1454.339	1173.765
266.380	27.949	1453.393	1173.532
267.395	27.835	1452.602	1172.058
268.409	27.889	1452.030	1171.835
269.424	27.858	1451.013	1170.715
270.439	27.825	1449.850	1169.459
271.453	27.900	1448.915	1169.080
272.468	27.804	1448.849	1168.309
273.482	27.859	1448.152	1167.999
274.497	27.863	1446.985	1166.979
275.512	27.825	1446.323	1166.101
276.526	27.925	1445.574	1166.033
277.541	27.943	1444.543	1165.210
278.555	27.911	1443.943	1164.422
279.570	27.874	1443.520	1163.736
280.585	27.955	1441.844	1162.802
281.599	27.997	1441.557	1162.734
282.614	27.999	1440.751	1161.994
283.628	27.837	1439.807	1160.100
284.643	27.963	1438.663	1159.874
285.657	28.062	1437.747	1159.659
286.672	27.937	1437.173	1158.304
287.687	27.977	1436.326	1157.774
288.701	27.923	1435.433	1156.609
289.716	27.985	1435.025	1156.566
290.730	28.066	1433.902	1156.073
291.745	28.015	1433.151	1155.041
292.760	28.008	1432.304	1154.215
293.774	28.081	1431.325	1153.786
294.789	27.910	1430.663	1152.071
295.803	28.093	1429.802	1152.427
296.818	28.057	1428.582	1151.114
297.833	28.113	1428.113	1150.989
298.847	28.125	1427.110	1150.155
299.862	28.121	1426.449	1149.497
300.876	28.092	1425.613	1148.536
301.891	28.003	1425.010	1147.388
302.906	28.056	1424.545	1147.248
303.920	28.210	1423.612	1147.356
304.935	28.254	1422.825	1146.897
305.949	28.129	1422.065	1145.401
306.964	28.157	1421.691	1145.174
307.979	28.255	1419.779	1144.144
308.993	28.221	1419.820	1143.868
310.008	28.142	1418.954	1142.573
311.022	28.188	1417.724	1141.772
312.037	28.149	1416.844	1140.715
313.052	28.235	1416.172	1140.611
314.066	28.335	1414.905	1140.111
315.081	28.283	1414.210	1139.128
316.095	28.228	1413.246	1137.908
317.110	28.268	1412.326	1137.313
318.125	28.362	1411.367	1137.023
319.139	28.288	1411.052	1136.211
320.154	28.340	1409.942	1135.538
321.168	28.335	1409.193	1134.805
322.183	28.298	1408.079	1133.579
323.197	28.320	1407.195	1132.904
324.212	28.371	1406.534	1132.588
325.227	28.302	1405.568	1131.278
326.241	28.356	1404.923	1130.992
327.256	28.370	1404.165	1130.370
328.270	28.496	1403.354	1130.394
329.285	28.409	1402.635	1129.180
330.300	28.467	1402.099	1129.006
331.314	28.433	1400.943	1127.768
332.329	28.389	1400.304	1126.880
333.343	28.449	1399.456	1126.471
334.358	28.425	1399.107	1125.939
335.373	28.557	1397.958	1125.725
336.387	28.505	1397.292	1124.772
337.402	28.458	1396.850	1124.030
338.416	28.575	1396.271	1124.175
339.431	28.549	1396.042	1123.736
340.446	28.463	1395.252	1122.471
341.460	28.533	1394.109	1121.885
342.475	28.613	1393.128	1121.484
343.489	28.561	1392.803	1120.805
344.504	28.613	1391.467	1119.950
345.519	28.571	1390.765	1119.028
346.533	28.632	1389.633	1118.392
347.548	28.655	1388.485	1117.504
348.562	28.636	1388.059	1116.951
349.577	28.619	1387.281	1116.123
350.592	28.615	1386.885	1115.678
351.606	28.708	1385.390	1114.944
352.621	28.581	1384.491	1113.353
353.635	28.577	1383.861	1112.723
354.650	28.604	1383.473	1112.475
355.665	28.759	1382.260	1112.339
356.679	28.629	1381.663	1110.971
357.694	28.711	1379.895	1109.947
358.708	28.753	1379.135	1109.492
359.723	28.777	1378.179	1108.770
360.738	28.726	1377.184	1107.566
361.752	28.747	1376.151	1106.764
362.767	28.632	1375.127	1105.147
363.781	28.750	1373.899	1104.770
364.796	28.728	1373.702	1104.383
365.810	28.814	1372.505	1103.839
366.825	28.755	1372.122	1103.081
367.840	28.813	1371.382	1102.738
368.854	28.895	1370.387	1102.328
369.869	28.948	1370.257	1102.443
370.883	28.918	1369.716	1101.735
371.898	28.885	1368.954	1100.826
372.913	28.977	1368.082	1100.578
373.927	29.006	1366.972	1099.761
374.942	28.973	1366.639	1099.198
375.956	28.989	1365.556	1098.325
376.971	29.002	1364.751	1097.656
377.986	29.014	1364.198	1097.191
379.000	28.988	1363.534	1096.404
380.015	28.933	1362.589	1095.217
381.029	29.003	1361.945	1095.019
382.044	29.091	1361.308	1094.934
383.059	29.021	1360.632	1093.880
384.073	28.974	1360.263	1093.205
385.088	29.037	1360.126	1093.373
386.102	29.066	1358.947	1092.498
387.117	29.104	1358.664	1092.400
388.132	29.039	1357.899	1091.301
389.146	29.031	1357.291	1090.671
390.161	28.962	1356.327	1089.391
391.175	29.061	1355.382	1089.119
392.190	29.097	1354.895	1088.847
393.205	29.144	1353.910	1088.234
394.219	29.167	1353.099	1087.623
395.234	29.169	1351.919	1086.591
396.248	29.169	1351.047	1085.794
397.263	29.240	1349.777	1085.094
398.278	29.209	1349.010	1084.201
399.292	29.305	1347.934	1083.803
400.307	29.285	1347.245	1083.040
401.321	29.253	1346.491	1082.147
402.336	29.283	1345.596	1081.507
403.350	29.156	1344.749	1079.987
404.365	29.207	1343.538	1079.217
405.380	29.177	1343.053	1078.559
406.394	29.409	1342.045	1079.008
407.409	29.341	1341.473	1078.054
408.423	29.304	1340.641	1077.075
409.438	29.307	1340.427	1076.828
410.453	29.391	1339.262	1076.288
411.467	29.385	1338.710	1075.711
412.482	29.494	1338.018	1075.698
413.496	29.375	1337.367	1074.381
414.511	29.352	1336.640	1073.570
415.526	29.423	1335.855	1073.259
416.540	29.383	1335.064	1072.295
417.555	29.413	1334.660	1072.049
418.569	29.411	1334.120	1071.512
419.584	29.506	1333.693	1071.626
420.599	29.509	1332.747	1070.785
421.613	94.450	1350.081	1448.993
422.628	93.995	1352.573	1449.116
