DTS Sentinel unit serial number:	SN413079Multiplexer serial number:	ORYXHardware model number:	OX4-SRSoftware version number:	ORYX F/W v4.00 Oryx Data Collector v3.7.2.0data status	okinstallation	princeton_trtdifferential loss correction	single-endedforward channel	channel 4reverse channel	N/Adate	2019/09/11time	14:11:11forward acquisition time	60.00reverse acquisition time	0.00gamma	496.2192k internal	0.2282k external	0.2282temperature offset calibration	1.0006default loss term (dB/km)	0.3790temperature slope calibration	1.0000multiplexer offset coefficient	1.0000multiplexer slope coefficient	1.0000fibre end	0.00T internal ref (°C)	41.87T ext. ref 1 (°C)	0.88T ext. ref 2 (°C)	37.24length (m)	temperature (°C)	Stokes	anti-Stokes-747.200	-33.795	-0.262	0.148
-746.185	-129.952	-0.166	0.023
-745.171	59.925	-0.076	0.077
-744.156	-81.701	0.119	-0.040
-743.142	-25.751	0.211	0.128
-742.127	-200.000	0.009	0.275
-741.112	236.611	0.027	0.046
-740.098	800.000	-0.122	0.389
-739.083	297.030	-0.134	-0.252
-738.069	-187.637	0.429	-0.006
-737.054	332.534	0.152	-0.301
-736.039	-184.197	-0.336	0.006
-735.025	93.718	0.256	0.298
-734.010	687.008	0.065	-0.175
-732.996	-200.000	-0.046	-0.298
-731.981	9.732	-0.057	-0.044
-730.966	-136.999	-0.145	0.017
-729.952	-187.140	-0.270	0.004
-728.937	51.676	-0.207	0.202
-727.923	-55.246	-0.311	0.144
-726.908	669.341	-0.119	0.317
-725.894	259.316	0.054	0.095
-724.879	-109.958	-0.099	0.021
-723.864	100.800	-0.104	0.124
-722.850	1.343	0.307	-0.227
-721.835	800.000	-0.044	0.181
-720.821	769.986	-0.034	0.096
-719.806	-200.000	-0.076	-0.532
-718.791	-62.429	-0.187	0.080
-717.777	-77.239	0.169	-0.060
-716.762	800.000	-0.081	-0.250
-715.748	252.070	-0.168	-0.294
-714.733	800.000	-0.062	-0.222
-713.718	-200.000	0.011	-0.098
-712.704	153.978	0.104	0.147
-711.689	-101.983	-0.112	0.028
-710.675	-162.073	-0.289	0.015
-709.660	800.000	-0.069	0.200
-708.645	-53.704	-0.182	-0.085
-707.631	-76.056	0.318	0.115
-706.616	-200.000	0.019	-0.384
-705.602	293.980	0.049	0.093
-704.587	-200.000	0.024	0.107
-703.572	-195.695	-0.267	-0.002
-702.558	800.000	0.057	0.202
-701.543	-99.631	0.312	0.080
-700.529	311.127	0.096	-0.184
-699.514	-200.000	0.047	-0.266
-698.499	-133.415	-0.155	-0.020
-697.485	-60.328	-0.269	0.118
-696.470	-133.805	-0.167	0.021
-695.456	-158.846	-0.145	-0.008
-694.441	-11.349	0.129	0.087
-693.426	239.274	-0.123	-0.210
-692.412	233.629	0.040	-0.067
-691.397	243.983	0.020	-0.035
-690.383	525.084	-0.145	-0.351
-689.368	34.148	-0.054	-0.049
-688.354	186.800	-0.097	0.149
-687.339	677.091	-0.070	-0.186
-686.324	-110.286	0.076	0.016
-685.310	-17.347	-0.148	-0.096
-684.295	-200.000	0.059	0.308
-683.281	-106.482	-0.211	0.048
-682.266	-200.000	0.005	-0.289
-681.251	800.000	-0.015	0.046
-680.237	-200.000	0.027	0.263
-679.222	-22.818	-0.113	0.070
-678.208	116.328	0.112	-0.141
-677.193	111.982	-0.154	-0.191
-676.178	782.196	0.176	-0.495
-675.164	103.364	0.144	-0.173
-674.149	88.834	-0.172	-0.196
-673.135	-14.606	-0.290	-0.191
-672.120	-6.783	-0.212	0.148
-671.105	-28.609	0.547	0.323
-670.091	-90.932	-0.520	-0.153
-669.076	180.532	-0.184	0.277
-668.062	-200.000	0.057	0.434
-667.047	-118.017	-0.070	-0.013
-666.032	-22.628	-0.214	-0.133
-665.018	-28.436	-0.218	-0.129
-664.003	-200.000	-0.024	0.189
-662.989	-168.711	0.231	0.009
-661.974	-142.081	-0.196	-0.020
-660.959	-200.000	-0.016	0.142
-659.945	95.740	0.143	-0.168
-658.930	403.745	0.080	0.172
-657.916	800.000	-0.119	-0.427
-656.901	-77.915	0.151	-0.053
-655.886	-158.712	-0.098	-0.006
-654.872	11.877	-0.350	-0.275
-653.857	37.407	0.195	-0.177
-652.843	-13.681	-0.165	-0.109
-651.828	598.992	-0.044	-0.111
-650.814	-163.437	-0.254	0.012
-649.799	-59.212	-0.387	-0.171
-648.784	-59.971	-0.241	-0.106
-647.770	40.771	0.267	0.247
-646.755	757.252	0.094	0.260
-645.741	82.221	-0.074	-0.082
-644.726	-173.095	0.270	-0.008
-643.711	800.000	0.169	-0.569
-642.697	63.506	0.102	0.105
-641.682	-200.000	-0.031	-0.217
-640.668	-38.577	-0.247	-0.134
-639.653	-138.825	-0.202	0.022
-638.638	-64.291	0.200	0.083
-637.624	-45.405	-0.264	-0.134
-636.609	-49.186	0.113	0.055
-635.595	-200.000	-0.100	0.545
-634.580	-53.087	0.167	-0.079
-633.565	800.000	-0.068	-0.243
-632.551	21.774	-0.104	0.087
-631.536	800.000	-0.045	-0.180
-630.522	-175.371	0.156	0.004
-629.507	-75.885	0.285	0.103
-628.492	125.704	-0.181	-0.234
-627.478	12.850	0.078	0.062
-626.463	72.081	-0.089	-0.095
-625.449	216.789	-0.125	0.204
-624.434	-185.932	-0.240	0.004
-623.419	-146.538	0.165	-0.015
-622.405	304.950	0.155	-0.295
-621.390	-69.454	0.261	-0.102
-620.376	654.625	0.045	-0.118
-619.361	-78.475	0.108	-0.038
-618.346	42.733	-0.077	0.072
-617.332	661.589	0.071	0.187
-616.317	22.415	-0.121	-0.101
-615.303	-81.007	-0.053	0.018
-614.288	706.044	-0.056	0.152
-613.273	800.000	-0.050	-0.175
-612.259	-18.699	0.199	-0.127
-611.244	569.970	0.086	0.215
-610.230	-200.000	0.016	0.315
-609.215	138.335	-0.125	0.168
-608.201	-200.000	0.002	-0.169
-607.186	-200.000	-0.019	-0.261
-606.171	-143.045	-0.408	-0.040
-605.157	-54.260	-0.403	-0.187
-604.142	79.729	-0.049	-0.053
-603.128	639.595	0.094	-0.244
-602.113	-200.000	0.008	0.184
-601.098	189.387	0.138	-0.211
-600.084	-200.000	-0.028	-0.146
-599.069	-200.000	0.026	0.319
-598.055	800.000	-0.026	0.099
-597.040	242.756	-0.099	0.169
-596.025	8.172	-0.174	0.133
-595.011	-198.456	0.176	0.001
-593.996	-200.000	0.043	-0.237
-592.982	800.000	-0.086	-0.253
-591.967	-200.000	-0.028	-0.301
-590.952	-200.000	-0.004	-0.063
-589.938	152.306	0.163	0.227
-588.923	-175.798	0.087	-0.002
-587.909	-125.566	-0.314	0.049
-586.894	-200.000	0.032	0.168
-585.879	8.418	0.217	0.167
-584.865	90.194	-0.104	0.119
-583.850	-200.000	0.001	0.070
-582.836	164.465	0.169	-0.243
-581.821	46.298	0.251	-0.238
-580.806	800.000	-0.063	0.189
-579.792	398.374	-0.130	0.279
-578.777	-200.000	0.013	-0.230
-577.763	42.755	-0.194	0.181
-576.748	-59.187	0.091	-0.040
-575.733	239.815	0.027	0.045
-574.719	-200.000	0.003	0.081
-573.704	-27.059	-0.434	-0.258
-572.690	-78.685	0.086	0.030
-571.675	-18.720	-0.134	-0.085
-570.661	800.000	0.067	0.269
-569.646	-200.000	0.015	0.139
-568.631	800.000	0.016	0.045
-567.617	44.310	-0.103	0.096
-566.602	25.963	-0.170	-0.145
-565.588	-157.099	0.296	-0.018
-564.573	598.676	-0.070	-0.178
-563.558	-200.000	0.028	-0.158
-562.544	800.000	0.085	-0.265
-561.529	57.833	0.138	-0.138
-560.515	-79.509	-0.100	-0.034
-559.500	-200.000	-0.016	-0.117
-558.485	-18.333	-0.237	0.151
-557.471	-200.000	0.000	0.188
-556.456	-76.017	0.168	-0.061
-555.442	252.650	-0.079	-0.137
-554.427	52.400	-0.174	-0.169
-553.412	-74.410	0.210	0.077
-552.398	-200.000	-0.009	-0.071
-551.383	89.909	-0.062	-0.070
-550.369	50.785	-0.311	0.300
-549.354	-130.036	0.629	-0.088
-548.339	-95.486	-0.029	0.008
-547.325	-200.000	0.026	-0.258
-546.310	14.674	-0.036	0.029
-545.296	-75.193	0.234	0.085
-544.281	800.000	0.046	0.187
-543.266	-52.887	-0.044	0.021
-542.252	-86.546	-0.080	0.025
-541.237	491.733	0.092	-0.215
-540.223	-102.588	-0.304	-0.074
-539.208	-118.618	-0.148	0.027
-538.193	-138.999	0.230	0.025
-537.179	179.839	-0.117	0.175
-536.164	800.000	0.088	0.368
-535.150	127.139	0.105	-0.136
-534.135	-39.862	-0.219	-0.117
-533.121	176.575	0.106	0.157
-532.106	105.393	-0.064	-0.077
-531.091	209.717	-0.219	-0.350
-530.077	-100.420	0.070	0.018
-529.062	-14.497	0.047	-0.031
-528.048	-200.000	0.009	-0.248
-527.033	-123.676	-0.367	-0.059
-526.018	114.209	0.260	0.322
-525.004	37.549	0.148	0.134
-523.989	-200.000	0.024	-0.212
-522.975	21.405	-0.181	0.150
-521.960	-76.901	-0.272	-0.097
-520.945	-140.177	0.044	0.005
-519.931	447.374	0.106	-0.237
-518.916	25.914	0.274	0.232
-517.902	-200.000	-0.008	-0.303
-516.887	800.000	-0.100	-0.399
-515.872	-12.914	0.057	0.038
-514.858	-200.000	0.004	-0.286
-513.843	-21.670	-0.265	0.165
-512.829	77.081	-0.106	-0.115
-511.814	337.070	0.085	0.168
-510.799	800.000	0.036	0.106
-509.785	435.972	0.030	-0.067
-508.770	800.000	0.058	-0.257
-507.756	311.931	0.209	-0.399
-506.741	96.142	-0.305	-0.355
-505.726	0.955	0.105	-0.076
-504.712	108.898	0.176	-0.214
-503.697	-62.169	-0.155	0.066
-502.683	-76.586	0.034	-0.012
-501.668	-45.597	-0.052	0.026
-500.653	76.656	0.250	-0.270
-499.639	143.505	-0.099	-0.134
-498.624	-51.414	0.146	0.069
-497.610	-200.000	0.035	0.266
-496.595	497.419	0.091	-0.213
-495.581	29.551	-0.125	-0.108
-494.566	-127.646	0.156	-0.023
-493.551	26.938	-0.242	-0.206
-492.537	152.072	0.016	-0.022
-491.522	-35.916	-0.235	0.129
-490.508	-53.480	-0.255	-0.119
-489.493	57.379	0.091	-0.091
-488.478	84.681	0.095	-0.106
-487.464	120.697	0.049	-0.062
-486.449	-200.000	0.012	-0.113
-485.435	-148.932	0.518	-0.043
-484.420	-7.351	-0.303	-0.209
-483.405	800.000	-0.025	-0.073
-482.391	-178.886	-0.190	0.004
-481.376	648.644	-0.081	0.210
-480.362	800.000	0.043	0.160
-479.347	-71.263	0.209	-0.080
-478.332	-87.754	0.132	-0.041
-477.318	-130.373	0.389	-0.054
-476.303	-133.427	0.106	0.014
-475.289	-200.000	-0.022	-0.158
-474.274	800.000	-0.114	0.500
-473.259	5.268	0.108	-0.081
-472.245	309.338	-0.109	0.208
-471.230	-11.034	0.071	-0.047
-470.216	62.147	-0.083	-0.084
-469.201	-200.000	-0.006	-0.053
-468.186	288.434	-0.101	-0.186
-467.172	800.000	-0.102	-0.447
-466.157	107.310	-0.079	-0.096
-465.143	130.416	-0.087	-0.113
-464.128	-200.000	-0.029	-0.133
-463.113	-45.874	0.125	-0.063
-462.099	800.000	-0.087	0.351
-461.084	93.764	0.151	-0.174
-460.070	-200.000	0.042	0.212
-459.055	-43.443	-0.086	0.044
-458.040	-57.448	-0.090	-0.040
-457.026	-200.000	-0.017	-0.249
-456.011	-200.000	-0.017	0.125
-454.997	741.861	-0.025	0.070
-453.982	800.000	0.104	-0.446
-452.968	71.260	-0.156	-0.164
-451.953	-86.571	0.178	-0.056
-450.938	-119.826	-0.184	-0.032
-449.924	-15.835	-0.200	0.130
-448.909	-78.419	-0.077	-0.027
-447.895	-200.000	-0.018	-0.209
-446.880	220.270	-0.122	-0.198
-445.865	-151.560	0.241	-0.018
-444.851	41.083	-0.178	0.164
-443.836	-200.000	0.011	0.408
-442.822	-200.000	0.039	0.287
-441.807	634.743	0.039	-0.100
-440.792	-200.000	0.024	-0.206
-439.778	136.688	0.265	-0.351
-438.763	-200.000	0.017	-0.372
-437.749	-0.462	-0.159	-0.115
-436.734	-200.000	0.035	0.295
-435.719	471.134	0.037	0.083
-434.705	-151.162	-0.167	-0.013
-433.690	-10.813	-0.291	-0.196
-432.676	-200.000	0.004	0.106
-431.661	-143.552	-0.190	-0.018
-430.646	-5.012	0.099	-0.069
-429.632	671.469	0.167	0.439
-428.617	-74.102	-0.157	0.058
-427.603	800.000	0.044	0.136
-426.588	45.607	-0.093	0.087
-425.573	0.191	0.202	-0.146
-424.559	-62.886	-0.238	0.100
-423.544	-18.682	0.127	-0.080
-422.530	374.561	0.123	0.255
-421.515	-128.322	-0.140	-0.020
-420.500	-113.441	-0.357	-0.071
-419.486	-70.073	0.163	-0.063
-418.471	45.177	0.255	0.239
-417.457	-117.465	0.367	-0.067
-416.442	-99.218	-0.208	-0.053
-415.428	-107.346	-0.085	-0.019
-414.413	55.993	-0.040	0.039
-413.398	326.464	0.130	0.253
-412.384	800.000	0.001	0.003
-411.369	93.513	0.141	0.162
-410.355	-120.781	0.361	0.062
-409.340	-103.658	0.135	0.032
-408.325	268.064	0.143	0.254
-407.311	-115.331	0.013	-0.003
-406.296	172.020	0.073	-0.107
-405.282	272.138	-0.045	-0.081
-404.267	-200.000	0.036	0.441
-403.252	-200.000	0.018	0.344
-402.238	800.000	0.083	0.235
-401.223	-119.062	-0.152	0.027
-400.209	-10.044	0.366	-0.246
-399.194	-200.000	-0.006	-0.125
-398.179	94.818	-0.128	-0.148
-397.165	-184.373	0.291	0.005
-396.150	106.224	0.148	0.178
-395.136	175.847	-0.108	-0.160
-394.121	800.000	-0.069	-0.276
-393.106	800.000	-0.083	-0.329
-392.092	221.987	-0.215	-0.351
-391.077	47.596	0.142	-0.135
-390.063	156.893	-0.152	0.213
-389.048	-145.837	0.283	-0.026
-388.033	-174.087	0.284	0.008
-387.019	-65.249	-0.173	-0.071
-386.004	113.258	-0.053	-0.065
-384.990	51.449	0.112	0.108
-383.975	800.000	-0.068	0.289
-382.960	14.046	-0.234	0.185
-381.946	89.179	-0.109	0.123
-380.931	800.000	0.067	0.193
-379.917	-200.000	0.004	-0.117
-378.902	-63.446	0.179	-0.075
-377.888	345.560	0.062	-0.123
-376.873	322.062	0.237	0.456
-375.858	800.000	-0.066	0.207
-374.844	-101.486	-0.180	-0.044
-373.829	-97.770	0.251	-0.066
-372.815	695.018	0.123	-0.326
-371.800	-200.000	0.002	-0.018
-370.785	-114.842	-0.088	-0.017
-369.771	-83.305	-0.108	-0.035
-368.756	55.132	-0.126	-0.123
-367.742	-36.081	-0.299	0.164
-366.727	-200.000	-0.001	0.134
-365.712	-35.895	-0.248	0.136
-364.698	-102.402	-0.317	0.077
-363.683	-51.830	-0.239	0.113
-362.669	10.683	-0.112	-0.086
-361.654	800.000	0.123	-0.421
-360.639	29.051	-0.214	-0.184
-359.625	-45.195	0.402	0.202
-358.610	23.891	0.266	-0.222
-357.596	288.864	0.059	0.108
-356.581	-113.366	-0.332	0.066
-355.566	559.825	0.032	-0.077
-354.552	-36.396	-0.230	0.125
-353.537	-12.454	-0.173	0.114
-352.523	800.000	-0.008	-0.035
-351.508	35.376	0.132	0.117
-350.493	663.750	0.072	0.189
-349.479	2.689	-0.102	0.075
-348.464	597.744	-0.077	0.193
-347.450	-125.568	-0.151	-0.023
-346.435	-72.905	-0.188	-0.070
-345.420	-176.453	0.294	-0.008
-344.406	-106.001	0.092	-0.021
-343.391	-200.000	-0.026	-0.255
-342.377	169.523	0.093	0.135
-341.362	12.619	-0.022	-0.017
-340.348	418.864	-0.123	0.265
-339.333	210.222	0.174	-0.277
-338.318	104.346	-0.171	0.204
-337.304	-25.039	0.168	-0.101
-336.289	449.644	-0.076	-0.170
-335.275	50.873	0.182	0.174
-334.260	800.000	-0.037	0.123
-333.245	800.000	0.131	0.397
-332.231	747.315	-0.155	-0.422
-331.216	-200.000	0.010	-0.152
-330.202	68.223	-0.116	-0.120
-329.187	-172.538	-0.176	-0.006
-328.172	110.079	0.115	0.139
-327.158	62.854	0.151	-0.153
-326.143	28.429	0.246	-0.210
-325.129	-200.000	0.010	0.323
-324.114	800.000	-0.052	0.161
-323.099	-200.000	-0.057	-0.316
-322.085	260.233	-0.133	0.232
-321.070	-200.000	-0.011	0.103
-320.056	-200.000	-0.051	0.315
-319.041	-74.335	-0.157	0.057
-318.026	191.415	0.059	-0.090
-317.012	24.111	-0.079	0.066
-315.997	173.682	-0.105	-0.153
-314.983	92.559	0.148	0.168
-313.968	-200.000	-0.007	0.119
-312.953	244.476	-0.171	0.291
-311.939	-8.298	0.186	0.126
-310.924	-42.760	0.192	0.099
-309.910	62.320	0.230	-0.232
-308.895	-94.128	-0.469	0.130
-307.880	-200.000	0.059	0.276
-306.866	-126.968	0.013	-0.002
-305.851	189.033	0.063	0.095
-304.837	-22.972	0.094	0.057
-303.822	184.981	-0.061	-0.092
-302.807	-200.000	-0.019	0.133
-301.793	-128.016	-0.176	-0.026
-300.778	-3.467	-0.110	-0.077
-299.764	109.879	-0.132	0.160
-298.749	-59.747	0.189	0.082
-297.735	-200.000	0.016	0.116
-296.720	-200.000	0.000	0.212
-295.705	-200.000	0.045	0.201
-294.691	-200.000	-0.042	0.402
-293.676	-81.239	0.092	0.031
-292.662	244.797	-0.122	0.207
-291.647	-7.118	0.217	-0.149
-290.632	800.000	0.066	0.226
-289.618	-121.397	0.328	0.055
-288.603	800.000	-0.019	-0.063
-287.589	285.348	0.075	0.137
-286.574	-105.915	-0.129	0.029
-285.559	168.960	-0.092	0.132
-284.545	780.794	-0.058	-0.160
-283.530	401.162	-0.127	0.269
-282.516	-98.801	0.061	-0.016
-281.501	64.048	-0.184	-0.187
-280.486	373.854	-0.186	0.381
-279.472	-14.130	-0.279	0.182
-278.457	800.000	0.055	-0.181
-277.443	66.063	-0.303	0.310
-276.428	218.253	-0.171	0.275
-275.413	800.000	-0.031	-0.091
-274.399	557.534	-0.076	-0.184
-273.384	-200.000	-0.062	0.308
-272.370	-22.495	-0.235	0.143
-271.355	100.785	-0.137	-0.161
-270.340	14.682	0.183	0.145
-269.326	-57.120	-0.154	-0.069
-268.311	-200.000	0.003	-0.026
-267.297	-74.727	0.148	-0.054
-266.282	800.000	-0.041	-0.179
-265.267	555.345	0.088	-0.213
-264.253	-43.552	0.327	-0.166
-263.238	272.035	-0.110	-0.196
-262.224	-142.875	-0.275	-0.027
-261.209	-154.675	0.171	0.011
-260.195	214.917	-0.188	-0.300
-259.180	16.723	0.134	-0.107
-258.165	-129.718	0.203	-0.028
-257.151	295.305	0.124	0.228
-256.136	11.188	0.305	-0.235
-255.122	-17.820	-0.113	0.072
-254.107	-165.553	-0.179	-0.008
-253.092	25.470	-0.076	0.064
-252.078	250.482	0.087	-0.150
-251.063	92.844	0.156	-0.177
-250.049	-32.191	0.230	-0.130
-249.034	800.000	0.029	0.108
-248.019	-135.192	0.247	-0.030
-247.005	-124.038	-0.311	0.049
-245.990	229.637	-0.129	0.213
-244.976	-200.000	-0.029	-0.187
-243.961	-52.083	0.129	-0.060
-242.946	800.000	-0.052	-0.210
-241.932	-77.903	0.466	-0.162
-240.917	-107.913	-0.212	-0.047
-239.903	479.775	-0.114	-0.261
-238.888	800.000	-0.054	0.207
-237.873	95.892	-0.182	0.210
-236.859	-87.121	0.289	0.089
-235.844	75.148	-0.192	0.204
-234.830	267.863	0.076	0.134
-233.815	114.681	-0.202	0.249
-232.800	183.648	0.097	-0.144
-231.786	6.699	0.337	0.253
-230.771	61.441	-0.193	0.193
-229.757	-200.000	-0.045	-0.549
-228.742	-122.293	0.226	-0.037
-227.727	-200.000	-0.007	-0.115
-226.713	705.293	-0.074	-0.197
-225.698	-200.000	0.075	0.339
-224.684	-179.849	0.203	0.004
-223.669	-107.696	0.138	0.030
-222.655	-200.000	-0.041	-0.309
-221.640	94.041	0.256	0.292
-220.625	-11.039	-0.261	-0.174
-219.611	-200.000	0.025	0.141
-218.596	104.978	0.051	0.061
-217.582	19.745	0.130	0.105
-216.567	122.157	-0.126	-0.158
-215.552	-200.000	-0.036	-0.526
-214.538	-65.574	-0.135	-0.055
-213.523	-40.064	0.251	0.131
-212.509	-83.836	0.380	-0.122
-211.494	151.380	-0.151	-0.207
-210.479	8.543	-0.109	0.083
-209.465	800.000	-0.052	-0.165
-208.450	329.035	0.056	0.109
-207.436	77.893	-0.071	-0.076
-206.421	-35.342	0.229	0.126
-205.406	-38.229	-0.361	0.192
-204.392	10.555	-0.143	0.110
-203.377	-76.387	-0.123	0.044
-202.363	800.000	-0.016	-0.058
-201.348	20.485	0.183	-0.149
-200.333	56.679	0.310	0.303
-199.319	-200.000	0.019	0.112
-198.304	-129.647	0.145	0.020
-197.290	-58.131	0.291	-0.128
-196.275	50.278	0.186	0.177
-195.260	800.000	0.034	-0.098
-194.246	-200.000	0.036	0.251
-193.231	13.129	0.169	0.132
-192.217	76.741	0.031	0.033
-191.202	-10.555	-0.157	-0.105
-190.187	-200.000	-0.023	0.105
-189.173	511.234	-0.088	-0.206
-188.158	340.390	0.076	-0.149
-187.144	-200.000	-0.017	0.131
-186.129	-144.469	0.018	0.002
-185.114	800.000	-0.072	-0.224
-184.100	-150.654	-0.271	-0.021
-183.085	800.000	-0.025	0.074
-182.071	800.000	0.027	0.115
-181.056	-200.000	0.017	0.133
-180.042	-200.000	-0.011	0.054
-179.027	164.439	0.112	-0.158
-178.012	-99.872	-0.116	-0.029
-176.998	4.029	-0.210	0.154
-175.983	-114.793	0.316	0.061
-174.969	-55.415	0.294	-0.133
-173.954	-24.143	0.207	-0.124
-172.939	343.193	-0.091	-0.179
-171.925	55.001	-0.262	0.254
-170.910	800.000	-0.066	0.283
-169.896	800.000	-0.014	0.060
-168.881	103.527	0.172	0.202
-167.866	85.525	-0.235	0.260
-166.852	-17.152	-0.221	0.140
-165.837	174.243	-0.204	-0.296
-164.823	-200.000	-0.032	0.152
-163.808	75.466	0.142	0.150
-162.793	-200.000	0.293	0.001
-161.779	113.574	-0.037	0.045
-160.764	349.917	-0.161	0.320
-159.750	-200.000	-0.018	-0.203
-158.735	-200.000	-0.032	0.266
-157.720	-150.674	0.309	0.024
-156.706	-200.000	-0.016	0.073
-155.691	-110.804	0.130	-0.027
-154.677	449.202	0.011	0.025
-153.662	234.255	-0.084	0.139
-152.647	686.129	0.150	-0.394
-151.633	70.955	-0.049	0.051
-150.618	-200.000	-0.039	-0.251
-149.604	-21.397	0.132	0.081
-148.589	-106.779	-0.222	0.049
-147.574	444.904	0.054	0.118
-146.560	-102.030	0.269	0.065
-145.545	-200.000	-0.053	-0.283
-144.531	800.000	-0.051	-0.145
-143.516	145.528	-0.030	-0.040
-142.502	-7.110	-0.078	-0.053
-141.487	-135.205	0.475	-0.057
-140.472	124.164	0.082	-0.103
-139.458	603.015	0.126	-0.313
-138.443	31.508	-0.071	0.062
-137.429	3.376	0.130	-0.095
-136.414	279.194	0.053	-0.095
-135.399	130.997	-0.015	0.019
-134.385	-200.000	-0.029	0.290
-133.370	44.206	-0.189	-0.174
-132.356	73.132	0.049	-0.051
-131.341	72.559	-0.277	0.290
-130.326	232.000	0.153	0.252
-129.312	479.596	-0.023	0.052
-128.297	-2.275	-0.169	0.119
-127.283	-81.419	-0.277	-0.091
-126.268	-200.000	-0.019	0.096
-125.253	117.841	-0.111	-0.137
-124.239	-79.017	0.188	0.064
-123.224	-150.783	-0.190	0.014
-122.210	194.379	0.200	-0.305
-121.195	202.014	0.104	-0.160
-120.180	157.354	0.128	0.178
-119.166	-200.000	0.042	0.198
-118.151	6.362	0.125	0.093
-117.137	151.089	-0.077	0.106
-116.122	-200.000	0.013	-0.067
-115.107	217.433	0.139	-0.223
-114.093	193.147	-0.058	0.089
-113.078	-3.963	0.207	-0.144
-112.064	-31.692	0.194	-0.109
-111.049	-200.000	0.016	0.207
-110.034	800.000	-0.051	-0.176
-109.020	800.000	-0.071	-0.250
-108.005	-200.000	-0.009	0.204
-106.991	133.591	0.128	-0.167
-105.976	-2.864	0.223	0.156
-104.962	376.127	0.222	0.454
-103.947	-200.000	-0.007	-0.214
-102.932	307.554	0.165	-0.308
-101.918	-200.000	0.026	0.168
-100.903	535.035	-0.105	0.250
-99.889	46.808	-0.282	-0.263
-98.874	-45.963	-0.197	0.098
-97.859	-70.862	0.467	0.176
-96.845	-200.000	0.294	0.001
-95.830	800.000	0.049	0.148
-94.816	2.175	-0.138	-0.100
-93.801	-200.000	0.003	-0.079
-92.786	-100.662	0.124	0.031
-91.772	-113.160	0.167	0.033
-90.757	-115.976	0.197	-0.037
-89.743	169.751	-0.110	-0.157
-88.728	53.001	-0.211	-0.203
-87.713	-4.356	-0.105	0.073
-86.699	-150.762	-0.219	0.017
-85.684	388.049	-0.084	0.173
-84.670	-200.000	0.035	0.186
-83.655	-200.000	-0.004	-0.118
-82.640	48.286	0.102	0.095
-81.626	-10.515	0.146	-0.097
-80.611	800.000	0.024	-0.102
-79.597	-4.544	-0.211	0.146
-78.582	800.000	-0.053	0.162
-77.567	-200.000	0.014	0.260
-76.553	571.564	-0.160	-0.389
-75.538	54.091	-0.149	0.143
-74.524	38.197	-0.095	-0.085
-73.509	8.465	0.204	0.154
-72.494	-118.599	-0.189	0.033
-71.480	625.559	0.056	0.140
-70.465	-107.953	0.294	-0.064
-69.451	-200.000	-0.027	0.306
-68.436	-13.196	0.148	-0.096
-67.422	-120.582	0.342	-0.058
-66.407	237.839	0.082	0.136
-65.392	-200.000	0.009	-0.108
-64.378	-114.569	-0.148	-0.028
-63.363	-21.257	-0.240	-0.147
-62.349	500.980	-0.252	0.583
-61.334	22.923	-0.849	-0.697
-60.319	83.870	0.293	0.321
-59.305	-200.000	-0.043	-0.884
-58.290	-39.331	0.488	0.256
-57.276	603.271	0.630	1.568
-56.261	-200.000	76.788	529.674
-55.246	542.681	1310.084	3126.240
-54.232	144.208	2551.215	3406.052
-53.217	110.015	2375.536	2852.141
-52.203	49.076	2113.869	1986.569
-51.188	43.921	2022.358	1853.493
-50.173	42.048	2003.498	1819.140
-49.159	54.501	2041.355	1967.724
-48.144	59.369	2062.322	2032.428
-47.130	44.782	2026.086	1864.501
-46.115	41.866	2015.432	1828.024
-45.100	41.811	2012.383	1824.683
-44.086	41.805	2010.193	1822.568
-43.071	41.735	2007.880	1819.767
-42.057	41.727	2005.733	1817.669
-41.042	41.735	2003.779	1815.900
-40.027	41.808	2001.346	1814.292
-39.013	41.825	1999.213	1812.440
-37.998	41.790	1997.674	1810.652
-36.984	41.752	1995.726	1808.475
-35.969	41.784	1994.524	1807.602
-34.954	41.870	1992.476	1806.449
-33.940	41.811	1991.206	1804.691
-32.925	41.812	1989.947	1803.491
-31.911	41.894	1987.600	1802.034
-30.896	41.815	1986.001	1799.797
-29.881	41.884	1984.330	1798.833
-28.867	41.965	1982.429	1797.768
-27.852	42.002	1980.646	1796.413
-26.838	41.891	1979.277	1794.104
-25.823	41.913	1977.083	1792.241
-24.809	41.946	1974.976	1790.548
-23.794	41.969	1973.428	1789.285
-22.779	41.939	1971.679	1787.362
-21.765	41.909	1970.216	1785.695
-20.750	41.887	1968.654	1784.009
-19.736	41.945	1966.806	1782.780
-18.721	41.871	1965.873	1781.205
-17.706	41.885	1964.078	1779.634
-16.692	41.875	1962.389	1777.941
-15.677	41.869	1960.514	1776.125
-14.663	41.910	1959.253	1775.270
-13.648	41.909	1957.886	1773.951
-12.633	41.883	1956.786	1772.655
-11.619	41.907	1955.502	1771.640
-10.604	41.863	1954.003	1769.816
-9.590	41.805	1953.112	1768.426
-8.575	41.918	1950.900	1767.351
-7.560	41.881	1950.061	1766.194
-6.546	41.898	1947.977	1764.393
-5.531	41.939	1947.017	1763.807
-4.517	41.844	1945.999	1761.978
-3.502	41.825	1945.108	1760.935
-2.487	41.880	1943.616	1760.004
-1.473	41.885	1942.693	1759.138
-0.458	42.055	1938.302	1756.582
0.556	41.029	1919.119	1731.882
1.571	37.207	1899.355	1680.881
2.586	33.098	1922.086	1664.756
3.600	31.821	1959.859	1685.845
4.615	30.814	1956.473	1673.732
5.629	23.142	1848.655	1515.906
6.644	9.157	1714.240	1293.654
7.659	1.646	1668.924	1200.273
8.673	0.994	1664.570	1191.906
9.688	0.961	1662.547	1190.092
10.702	0.852	1661.472	1188.355
11.717	0.713	1658.889	1185.317
12.731	1.116	1658.132	1187.830
13.746	9.120	1678.573	1265.664
14.761	20.531	1703.580	1375.200
15.775	24.536	1709.820	1411.850
16.790	24.449	1708.790	1410.182
17.804	24.661	1708.034	1411.113
18.819	24.536	1707.514	1409.568
19.834	24.745	1706.458	1410.218
20.848	24.968	1705.702	1411.230
21.863	24.972	1704.671	1410.282
22.877	24.918	1704.045	1409.210
23.892	24.854	1703.444	1408.087
24.907	24.953	1702.318	1407.812
25.921	24.972	1701.091	1406.818
26.936	24.918	1700.524	1405.801
27.950	24.908	1699.332	1404.616
28.965	24.860	1698.510	1403.440
29.980	24.908	1697.804	1403.104
30.994	24.929	1696.040	1401.691
32.009	25.006	1694.684	1401.043
33.023	24.943	1693.731	1399.642
34.038	24.921	1693.227	1398.924
35.053	24.899	1692.036	1397.648
36.067	24.916	1690.807	1396.642
37.082	24.927	1689.880	1395.841
38.096	24.884	1689.275	1394.884
39.111	24.863	1688.959	1394.329
40.126	24.922	1687.795	1393.707
41.140	24.975	1686.951	1393.297
42.155	24.931	1685.467	1391.610
43.169	24.893	1684.374	1390.289
44.184	24.914	1683.175	1389.342
45.199	24.847	1682.609	1388.230
46.213	24.871	1680.778	1386.781
47.228	24.907	1679.868	1386.183
48.242	24.975	1678.598	1385.544
49.257	24.966	1677.838	1384.721
50.271	24.929	1676.708	1383.380
51.286	24.855	1675.932	1382.045
52.301	24.962	1674.007	1381.163
53.315	24.888	1672.897	1379.552
54.330	24.935	1671.133	1378.336
55.344	25.031	1669.723	1377.789
56.359	25.022	1668.264	1376.395
57.374	24.912	1667.525	1374.823
58.388	24.911	1666.394	1373.756
59.403	24.947	1665.745	1373.377
60.417	24.941	1664.167	1371.911
61.432	24.936	1663.158	1370.918
62.447	24.939	1662.099	1369.952
63.461	24.887	1661.143	1368.641
64.476	25.034	1660.023	1368.717
65.490	24.928	1659.269	1367.167
66.505	24.997	1657.680	1366.267
67.520	24.845	1657.304	1364.672
68.534	24.934	1656.053	1364.202
69.549	24.926	1655.072	1363.214
70.563	25.037	1653.263	1362.443
71.578	24.923	1653.229	1361.433
72.593	24.943	1652.228	1360.633
73.607	24.941	1651.482	1359.891
74.622	25.004	1649.914	1358.953
75.636	24.897	1649.834	1357.953
76.651	24.959	1648.574	1357.268
77.666	24.976	1647.715	1356.566
78.680	24.934	1646.653	1355.259
79.695	24.988	1645.995	1355.003
80.709	24.990	1644.854	1353.957
81.724	24.942	1643.827	1352.633
82.739	24.951	1643.035	1351.932
83.753	24.925	1642.247	1350.966
84.768	24.946	1641.287	1350.215
85.782	24.884	1640.254	1348.776
86.797	24.916	1639.201	1348.036
87.812	24.992	1638.471	1347.887
88.826	24.870	1637.660	1346.182
89.841	25.001	1636.432	1346.040
90.855	24.993	1635.657	1345.220
91.870	24.967	1634.452	1343.916
92.884	25.036	1633.425	1343.471
93.899	24.989	1632.721	1342.420
94.914	25.058	1631.128	1341.510
95.928	25.039	1629.665	1340.041
96.943	24.968	1628.990	1338.842
97.957	25.016	1627.485	1337.846
98.972	24.963	1625.845	1335.978
99.987	24.944	1625.101	1335.111
101.001	25.010	1623.501	1334.166
102.016	24.986	1622.291	1332.881
103.030	24.813	1620.970	1330.389
104.045	24.964	1619.344	1330.059
105.060	24.953	1618.322	1329.018
106.074	25.065	1616.728	1328.419
107.089	25.055	1615.252	1327.020
108.103	25.033	1614.230	1325.897
109.118	25.027	1613.942	1325.499
110.133	25.083	1612.155	1324.333
111.147	25.086	1611.331	1323.553
112.162	25.036	1610.489	1322.377
113.176	25.113	1608.396	1321.107
114.191	25.077	1607.708	1320.166
115.206	25.120	1606.237	1319.157
116.220	24.995	1605.597	1317.592
117.235	24.991	1604.823	1316.815
118.249	25.103	1602.960	1315.987
119.264	24.952	1602.388	1314.292
120.279	25.002	1600.912	1313.339
121.293	25.030	1599.792	1312.505
122.308	25.110	1598.187	1311.656
123.322	25.158	1597.155	1311.045
124.337	25.191	1595.453	1309.776
125.352	25.132	1595.034	1308.883
126.366	25.148	1594.264	1308.251
127.381	25.113	1593.179	1306.991
128.395	25.115	1592.148	1306.042
129.410	25.209	1591.233	1305.861
130.424	25.133	1590.109	1304.271
131.439	25.167	1589.179	1303.641
132.454	25.089	1587.986	1301.977
133.468	25.182	1586.197	1301.074
134.483	25.133	1585.015	1299.633
135.497	25.164	1584.007	1298.913
136.512	25.169	1582.837	1297.881
137.527	25.164	1581.829	1296.903
138.541	25.190	1580.778	1296.110
139.556	25.170	1579.836	1295.083
140.570	25.102	1578.309	1293.222
141.585	25.262	1576.553	1292.822
142.600	25.086	1575.948	1290.943
143.614	25.168	1574.592	1290.311
144.629	25.169	1573.625	1289.411
145.643	25.198	1572.444	1288.540
146.658	25.062	1571.687	1286.823
147.673	25.103	1569.651	1285.337
148.687	25.114	1568.743	1284.562
149.702	25.122	1567.882	1283.798
150.716	25.042	1566.062	1281.625
151.731	25.014	1565.256	1280.648
152.746	25.180	1564.009	1280.704
153.760	25.167	1562.969	1279.645
154.775	25.174	1562.242	1278.988
155.789	25.039	1561.801	1277.548
156.804	25.081	1560.073	1276.319
157.819	25.103	1558.982	1275.470
158.833	25.148	1557.849	1274.750
159.848	25.136	1556.900	1273.779
160.862	25.141	1556.125	1273.064
161.877	25.156	1554.800	1271.976
162.892	25.220	1553.899	1271.584
163.906	25.205	1553.179	1270.772
164.921	25.145	1552.296	1269.516
165.935	25.202	1551.049	1268.782
166.950	25.279	1549.825	1268.214
167.964	25.230	1549.027	1267.105
168.979	25.222	1548.164	1266.230
169.994	25.299	1547.053	1265.751
171.008	25.368	1546.205	1265.430
172.023	25.372	1545.242	1264.557
173.037	25.320	1544.178	1263.209
174.052	25.276	1543.245	1262.028
175.067	25.232	1542.437	1260.946
176.081	25.203	1541.551	1259.909
177.096	25.260	1540.458	1259.300
178.110	25.246	1539.290	1258.136
179.125	25.338	1538.276	1257.842
180.140	25.302	1537.584	1256.914
181.154	25.237	1537.034	1255.896
182.169	25.246	1535.886	1254.909
183.183	25.272	1534.723	1254.031
184.198	25.317	1534.065	1253.697
185.213	25.306	1532.899	1252.555
186.227	25.259	1532.326	1251.646
187.242	25.327	1531.647	1251.459
188.256	25.320	1530.613	1250.455
189.271	25.302	1529.866	1249.610
190.286	25.346	1528.617	1248.780
191.300	25.320	1528.038	1248.018
192.315	25.359	1526.802	1247.168
193.329	25.235	1526.675	1246.097
194.344	25.427	1525.093	1246.023
195.359	25.392	1524.525	1245.209
196.373	25.303	1523.775	1243.867
197.388	25.382	1522.569	1243.321
198.402	25.262	1521.619	1241.605
199.417	25.311	1520.537	1240.952
200.432	25.352	1519.667	1240.414
201.446	25.386	1519.044	1240.029
202.461	25.303	1518.663	1239.037
203.475	25.369	1517.393	1238.345
204.490	25.340	1516.316	1237.158
205.504	25.359	1515.386	1236.419
206.519	25.323	1514.838	1235.614
207.534	25.279	1514.200	1234.680
208.548	25.433	1513.537	1235.090
209.563	25.391	1512.614	1233.943
210.577	25.363	1511.503	1232.731
211.592	25.452	1510.600	1232.498
212.607	25.385	1509.980	1231.426
213.621	25.379	1509.498	1230.877
214.636	25.573	1508.402	1231.210
215.650	25.481	1507.450	1229.691
216.665	25.473	1506.397	1228.665
217.680	25.441	1505.737	1227.803
218.694	25.432	1505.594	1227.516
219.709	25.497	1504.384	1226.861
220.723	25.460	1503.723	1225.961
221.738	25.462	1502.762	1225.085
222.753	25.479	1501.660	1224.196
223.767	25.466	1500.588	1223.124
224.782	25.422	1500.028	1222.258
225.796	25.468	1499.271	1221.851
226.811	25.559	1498.660	1221.862
227.826	25.540	1498.052	1221.126
228.840	25.567	1497.163	1220.474
229.855	25.560	1496.384	1219.690
230.869	25.555	1495.239	1218.612
231.884	25.560	1494.699	1218.099
232.899	25.580	1493.389	1217.058
233.913	25.528	1492.481	1215.861
234.928	25.521	1491.195	1214.654
235.942	25.583	1490.544	1214.438
236.957	25.588	1489.913	1213.850
237.972	25.657	1488.477	1213.034
238.986	25.653	1487.207	1211.871
240.001	25.641	1486.377	1211.003
241.015	25.531	1485.579	1209.505
242.030	25.689	1484.400	1209.498
243.045	25.685	1483.483	1208.621
244.059	25.729	1483.072	1208.472
245.074	25.789	1481.751	1207.692
246.088	25.689	1481.289	1206.540
247.103	25.782	1480.754	1206.622
248.117	25.750	1480.066	1205.735
249.132	25.708	1478.910	1204.408
250.147	25.721	1478.465	1204.025
251.161	25.774	1477.494	1203.484
252.176	25.851	1477.059	1203.536
253.190	25.814	1476.255	1202.531
254.205	25.810	1475.062	1201.424
255.220	25.779	1474.388	1200.564
256.234	25.759	1473.630	1199.707
257.249	25.825	1472.878	1199.424
258.263	25.788	1472.237	1198.550
259.278	25.780	1471.366	1197.683
260.293	25.828	1470.402	1197.112
261.307	25.896	1469.205	1196.480
262.322	25.895	1468.853	1196.085
263.336	25.954	1468.172	1195.813
264.351	26.009	1466.776	1194.933
265.366	25.978	1466.151	1194.118
266.380	25.907	1466.034	1193.445
267.395	25.882	1464.663	1192.056
268.409	25.886	1463.670	1191.173
269.424	25.916	1462.994	1190.715
270.439	25.870	1462.061	1189.546
271.453	25.902	1461.522	1189.212
272.468	25.947	1460.577	1188.632
273.482	25.882	1459.672	1187.365
274.497	25.919	1459.149	1187.076
275.512	25.923	1458.200	1186.227
276.526	26.052	1457.231	1186.183
277.541	26.012	1456.644	1185.338
278.555	26.012	1455.865	1184.599
279.570	26.079	1454.729	1184.004
280.585	26.103	1453.805	1183.309
281.599	25.984	1453.555	1182.219
282.614	26.043	1452.195	1181.394
283.628	25.944	1451.652	1180.201
284.643	25.951	1450.603	1179.289
285.657	26.016	1449.787	1178.946
286.672	26.028	1448.973	1178.260
287.687	25.984	1448.374	1177.378
288.701	26.068	1447.155	1176.835
289.716	26.077	1446.496	1176.254
290.730	26.229	1445.381	1176.232
291.745	26.168	1444.896	1175.335
292.760	26.164	1443.961	1174.447
293.774	26.141	1442.898	1173.328
294.789	26.105	1442.089	1172.332
295.803	26.169	1441.531	1172.191
296.818	26.157	1440.768	1171.387
297.833	26.137	1439.668	1170.263
298.847	26.190	1438.578	1169.615
299.862	26.184	1438.194	1169.157
300.876	26.213	1437.062	1168.325
301.891	26.164	1436.296	1167.278
302.906	26.116	1435.854	1166.506
303.920	26.305	1435.538	1167.365
304.935	26.332	1434.582	1166.660
305.949	26.305	1433.299	1165.340
306.964	26.245	1432.513	1164.213
307.979	26.189	1432.114	1163.425
308.993	26.221	1431.486	1163.014
310.008	26.296	1430.382	1162.497
311.022	26.241	1429.417	1161.260
312.037	26.338	1428.197	1160.790
313.052	26.419	1427.017	1160.249
314.066	26.350	1426.490	1159.273
315.081	26.315	1425.625	1158.245
316.095	26.344	1424.870	1157.712
317.110	26.357	1423.968	1156.963
318.125	26.338	1423.075	1156.011
319.139	26.357	1422.569	1155.617
320.154	26.293	1421.806	1154.485
321.168	26.292	1420.651	1153.442
322.183	26.422	1419.612	1153.328
323.197	26.538	1418.478	1153.042
324.212	26.463	1417.774	1151.888
325.227	26.412	1417.141	1150.949
326.241	26.451	1416.435	1150.522
327.256	26.472	1415.569	1149.849
328.270	26.484	1414.962	1149.329
329.285	26.563	1413.756	1148.751
330.300	26.492	1413.027	1147.608
331.314	26.506	1412.785	1147.396
332.329	26.513	1411.728	1146.484
333.343	26.421	1411.042	1145.243
334.358	26.522	1410.405	1145.259
335.373	26.597	1409.779	1145.124
336.387	26.644	1408.738	1144.477
337.402	26.546	1408.267	1143.370
338.416	26.679	1407.430	1143.434
339.431	26.698	1406.670	1142.835
340.446	26.582	1406.409	1141.788
341.460	26.591	1405.461	1140.973
342.475	26.660	1404.396	1140.445
343.489	26.585	1403.696	1139.304
344.504	26.665	1402.858	1139.023
345.519	26.560	1402.057	1137.614
346.533	26.705	1400.491	1137.154
347.548	26.656	1400.110	1136.435
348.562	26.612	1399.413	1135.492
349.577	26.692	1398.359	1135.037
350.592	26.664	1397.958	1134.434
351.606	26.685	1397.088	1133.758
352.621	26.668	1396.047	1132.708
353.635	26.696	1394.992	1131.931
354.650	26.709	1394.082	1131.170
355.665	26.779	1393.232	1130.821
356.679	26.814	1392.311	1130.187
357.694	26.851	1391.033	1129.285
358.708	26.821	1390.382	1128.468
359.723	26.823	1389.248	1127.456
360.738	26.778	1387.730	1125.845
361.752	26.831	1386.774	1125.305
362.767	26.774	1385.864	1124.111
363.781	26.658	1385.189	1122.746
364.796	26.827	1384.719	1123.310
365.810	26.831	1383.736	1122.438
366.825	26.928	1382.939	1122.292
367.840	26.849	1382.186	1121.097
368.854	26.936	1381.467	1120.947
369.869	27.007	1381.312	1121.160
370.883	26.923	1380.577	1119.950
371.898	27.013	1379.481	1119.514
372.913	26.972	1379.103	1118.860
373.927	26.942	1378.265	1117.893
374.942	26.866	1377.709	1116.872
375.956	26.934	1377.135	1116.732
376.971	26.985	1376.101	1116.105
377.986	27.015	1374.979	1115.280
379.000	26.925	1374.650	1114.364
380.015	26.971	1374.086	1114.090
381.029	27.027	1373.459	1113.826
382.044	27.099	1372.634	1113.499
383.059	27.097	1372.053	1112.919
384.073	27.169	1370.790	1112.234
385.088	27.167	1370.916	1112.229
386.102	27.068	1370.475	1111.165
387.117	27.180	1369.424	1110.901
388.132	27.147	1368.256	1109.653
389.146	27.076	1367.870	1108.809
390.161	27.168	1367.018	1108.581
391.175	27.118	1366.852	1108.042
392.190	27.196	1366.261	1107.940
393.205	27.219	1364.824	1106.819
394.219	27.211	1363.827	1105.863
395.234	27.233	1363.044	1105.263
396.248	27.133	1362.153	1103.833
397.263	27.269	1360.875	1103.526
398.278	27.210	1359.922	1102.300
399.292	27.270	1358.723	1101.594
400.307	27.327	1358.134	1101.365
401.321	27.297	1357.367	1100.464
402.336	27.392	1356.106	1099.919
403.350	27.283	1355.415	1098.602
404.365	27.221	1354.466	1097.361
405.380	27.285	1353.509	1096.874
406.394	27.330	1352.597	1096.311
407.409	27.397	1352.285	1096.361
408.423	27.432	1351.391	1095.748
409.438	27.402	1350.932	1095.100
410.453	27.351	1350.515	1094.360
411.467	27.426	1349.506	1093.895
412.482	27.536	1348.656	1093.773
413.496	27.481	1348.112	1092.902
414.511	27.443	1347.576	1092.144
415.526	27.552	1346.419	1091.760
416.540	27.584	1345.421	1091.048
417.555	27.522	1345.031	1090.261
418.569	27.475	1344.220	1089.229
419.584	27.433	1344.370	1089.002
420.599	27.538	1343.790	1089.065
421.613	77.638	1323.862	1357.961
422.628	78.231	1320.944	1358.089
