DTS Sentinel unit serial number:	SN413079Multiplexer serial number:	ORYXHardware model number:	OX4-SRSoftware version number:	ORYX F/W v4.00 Oryx Data Collector v3.7.2.0data status	okinstallation	princeton_trtdifferential loss correction	single-endedforward channel	channel 4reverse channel	N/Adate	2019/09/11time	03:27:11forward acquisition time	60.00reverse acquisition time	0.00gamma	496.2192k internal	0.2316k external	0.2316temperature offset calibration	0.9944default loss term (dB/km)	0.3790temperature slope calibration	1.0000multiplexer offset coefficient	1.0000multiplexer slope coefficient	1.0000fibre end	0.00T internal ref (°C)	29.44T ext. ref 1 (°C)	-0.31T ext. ref 2 (°C)	24.27length (m)	temperature (°C)	Stokes	anti-Stokes-747.200	23.879	-0.164	-0.137
-746.185	-200.000	0.014	0.207
-745.171	-77.303	-0.113	0.040
-744.156	-79.597	-0.141	0.048
-743.142	-200.000	0.010	0.222
-742.127	33.129	0.084	0.074
-741.112	-200.000	0.019	0.338
-740.098	138.760	-0.344	0.457
-739.083	-139.001	-0.111	-0.012
-738.069	531.292	-0.062	-0.148
-737.054	800.000	0.044	-0.125
-736.039	674.719	0.100	0.262
-735.025	-19.950	0.208	0.130
-734.010	-68.920	-0.265	-0.104
-732.996	-192.928	-0.139	0.001
-731.981	-27.488	-0.191	-0.112
-730.966	40.554	0.076	0.069
-729.952	-52.592	-0.477	0.223
-728.937	-89.579	-0.131	0.039
-727.923	105.301	-0.128	-0.152
-726.908	252.390	0.175	-0.302
-725.894	-76.359	-0.226	-0.081
-724.879	-50.962	-0.251	-0.119
-723.864	-105.229	-0.209	-0.048
-722.850	-200.000	-0.020	0.236
-721.835	33.292	0.209	-0.184
-720.821	-93.048	-0.195	-0.055
-719.806	138.487	-0.126	0.167
-718.791	-86.724	-0.355	-0.110
-717.777	800.000	-0.080	-0.266
-716.762	489.033	-0.058	-0.134
-715.748	-165.367	0.286	0.013
-714.733	520.891	0.156	0.369
-713.718	-47.548	-0.099	-0.049
-712.704	24.471	0.239	-0.200
-711.689	175.212	-0.278	0.407
-710.675	-114.944	-0.304	0.058
-709.660	-138.417	0.384	0.043
-708.645	-132.804	0.184	0.024
-707.631	72.869	-0.135	0.142
-706.616	50.532	0.359	-0.344
-705.602	727.651	-0.119	-0.321
-704.587	-81.215	0.329	0.110
-703.572	-200.000	-0.014	-0.137
-702.558	-97.615	-0.111	0.029
-701.543	-43.710	-0.198	-0.101
-700.529	236.928	-0.071	0.118
-699.514	800.000	0.076	-0.241
-698.499	327.992	0.013	0.025
-697.485	19.548	-0.312	0.254
-696.470	-67.081	-0.119	0.047
-695.456	-138.654	-0.104	0.011
-694.441	9.949	-0.177	-0.136
-693.426	149.188	0.227	0.311
-692.412	-200.000	0.003	0.184
-691.397	-99.637	-0.186	-0.047
-690.383	-14.883	0.115	-0.075
-689.368	-200.000	-0.095	-0.551
-688.354	138.685	0.294	0.390
-687.339	-200.000	-0.001	0.140
-686.324	-200.000	-0.026	0.182
-685.310	-102.915	0.087	0.021
-684.295	13.159	-0.289	0.226
-683.281	-7.521	0.088	0.060
-682.266	800.000	0.015	-0.065
-681.251	317.246	-0.032	0.061
-680.237	-76.613	-0.240	-0.085
-679.222	188.296	0.044	-0.067
-678.208	-93.546	0.337	0.094
-677.193	-42.749	0.218	-0.112
-676.178	-200.000	-0.001	0.177
-675.164	212.840	0.085	0.136
-674.149	-200.000	0.011	0.234
-673.135	354.900	0.146	-0.293
-672.120	-122.150	-0.194	0.032
-671.105	13.933	-0.167	0.131
-670.091	80.320	-0.129	-0.140
-669.076	91.493	-0.052	0.059
-668.062	161.627	-0.097	-0.138
-667.047	12.758	0.047	0.037
-666.032	280.060	-0.050	0.090
-665.018	129.559	-0.021	-0.027
-664.003	81.870	0.162	-0.177
-662.989	394.742	-0.073	0.154
-661.974	-200.000	0.031	0.176
-660.959	327.795	0.049	-0.095
-659.945	10.159	-0.045	0.035
-658.930	-52.733	-0.130	-0.061
-657.916	-113.188	0.320	0.064
-656.901	-86.406	-0.145	-0.045
-655.886	-200.000	-0.010	-0.446
-654.872	146.268	-0.179	-0.243
-653.857	-173.459	0.329	0.010
-652.843	-0.846	0.156	-0.112
-651.828	76.548	0.129	-0.138
-650.814	-200.000	0.040	-0.190
-649.799	353.124	-0.152	-0.305
-648.784	6.006	-0.327	-0.244
-647.770	-6.626	0.316	-0.217
-646.755	-127.167	-0.287	0.042
-645.741	94.903	-0.172	-0.197
-644.726	141.459	-0.076	-0.102
-643.711	611.710	0.150	-0.379
-642.697	-129.207	0.276	0.039
-641.682	-135.125	-0.271	0.033
-640.668	800.000	-0.087	0.256
-639.653	800.000	0.029	-0.089
-638.638	-100.243	0.194	-0.049
-637.624	244.196	0.075	0.126
-636.609	-128.840	0.156	0.022
-635.595	-200.000	0.013	0.400
-634.580	-23.834	0.220	0.133
-633.565	167.222	0.185	-0.264
-632.551	185.782	-0.130	0.194
-631.536	677.564	-0.020	0.053
-630.522	-200.000	0.016	-0.419
-629.507	-50.202	-0.028	-0.014
-628.492	54.411	0.258	-0.251
-627.478	-200.000	0.055	-0.320
-626.463	70.386	0.144	-0.150
-625.449	486.242	0.047	-0.108
-624.434	65.611	-0.227	-0.231
-623.419	-200.000	-0.017	-0.077
-622.405	-200.000	0.009	0.222
-621.390	269.355	-0.221	0.391
-620.376	0.465	0.183	-0.132
-619.361	-21.227	0.071	0.044
-618.346	800.000	-0.041	0.161
-617.332	-91.277	-0.426	0.123
-616.317	-119.058	-0.274	0.048
-615.303	800.000	0.070	0.298
-614.288	92.615	0.052	0.059
-613.273	-95.625	-0.269	0.073
-612.259	353.809	-0.111	0.222
-611.244	111.694	0.073	-0.089
-610.230	-200.000	0.003	-0.047
-609.215	800.000	-0.018	-0.055
-608.201	-33.415	0.119	-0.066
-607.186	-164.884	0.156	0.007
-606.171	-200.000	-0.017	-0.090
-605.157	-23.696	0.215	-0.130
-604.142	-33.782	-0.105	-0.058
-603.128	24.818	0.184	0.153
-602.113	-58.153	0.128	0.056
-601.098	-119.880	0.158	-0.027
-600.084	-143.375	-0.414	0.040
-599.069	-136.031	-0.348	-0.041
-598.055	-54.288	-0.110	-0.050
-597.040	-48.164	-0.160	-0.078
-596.025	9.625	-0.246	0.188
-595.011	-31.939	-0.400	0.226
-593.996	136.671	0.145	0.190
-592.982	-200.000	-0.034	0.216
-591.967	-200.000	-0.038	0.286
-590.952	-135.919	-0.411	0.049
-589.938	28.929	-0.236	-0.201
-588.923	-31.956	-0.183	-0.103
-587.909	-157.536	0.065	0.004
-586.894	32.636	-0.300	0.261
-585.879	-102.462	-0.145	-0.035
-584.865	39.403	0.226	-0.204
-583.850	-41.850	0.296	-0.153
-582.836	-200.000	-0.044	0.351
-581.821	-200.000	0.001	0.016
-580.806	-66.474	-0.034	0.013
-579.792	-4.243	0.124	-0.086
-578.777	-37.139	0.134	0.072
-577.763	-66.303	0.086	-0.034
-576.748	-163.268	-0.125	0.006
-575.733	-90.134	-0.297	0.087
-574.719	-200.000	-0.022	-0.122
-573.704	-97.668	0.195	0.051
-572.690	-154.784	-0.224	0.015
-571.675	-15.667	-0.313	0.201
-570.661	-56.353	0.132	0.059
-569.646	-26.010	-0.262	0.155
-568.631	-200.000	-0.026	0.439
-567.617	-200.000	0.010	0.094
-566.602	-200.000	0.003	-0.250
-565.588	-114.861	-0.215	0.041
-564.573	614.876	-0.054	-0.135
-563.558	-61.348	-0.100	-0.042
-562.544	34.188	-0.112	-0.098
-561.529	77.604	0.144	-0.155
-560.515	-200.000	0.077	-0.425
-559.500	109.375	-0.164	0.198
-558.485	-35.282	0.333	-0.182
-557.471	800.000	-0.008	-0.034
-556.456	-104.024	0.082	-0.019
-555.442	-125.067	-0.368	-0.057
-554.427	800.000	-0.051	-0.168
-553.412	-100.133	0.190	-0.048
-552.398	-200.000	0.070	-0.369
-551.383	-200.000	0.001	-0.186
-550.369	29.880	-0.128	-0.110
-549.354	-78.674	-0.035	0.012
-548.339	-72.103	0.246	-0.092
-547.325	-200.000	-0.011	0.118
-546.310	-200.000	-0.010	0.400
-545.296	-39.997	-0.384	-0.201
-544.281	800.000	0.051	-0.214
-543.266	-200.000	0.005	0.232
-542.252	-94.138	0.110	-0.030
-541.237	-153.199	-0.296	-0.021
-540.223	-152.808	-0.400	-0.029
-539.208	-165.293	0.565	0.025
-538.193	57.090	-0.147	0.144
-537.179	137.473	-0.278	-0.365
-536.164	-200.000	-0.246	-0.000
-535.150	-200.000	0.021	-0.120
-534.135	-106.990	-0.353	-0.078
-533.121	-200.000	-0.006	0.124
-532.106	-167.146	-0.045	-0.002
-531.091	800.000	-0.081	0.277
-530.077	-200.000	-0.016	0.258
-529.062	-72.119	-0.174	0.065
-528.048	658.408	0.051	-0.133
-527.033	-200.000	0.046	0.239
-526.018	-200.000	0.000	-0.291
-525.004	-200.000	-0.003	0.154
-523.989	-102.373	0.107	-0.026
-522.975	-0.475	0.089	0.063
-521.960	173.969	-0.140	0.202
-520.945	-65.414	0.229	-0.092
-519.931	303.738	0.136	-0.253
-518.916	-71.729	0.145	-0.054
-517.902	-101.196	0.323	0.079
-516.887	12.924	0.174	-0.135
-515.872	-134.203	0.014	-0.002
-514.858	25.813	-0.219	0.183
-513.843	527.951	-0.015	0.036
-512.829	104.911	0.140	-0.166
-511.814	-89.185	-0.262	-0.078
-510.799	43.517	0.204	0.187
-509.785	227.659	0.314	0.513
-508.770	143.995	-0.106	0.143
-507.756	-89.597	0.205	-0.060
-506.741	-72.315	-0.250	-0.093
-505.726	-181.962	0.128	-0.002
-504.712	-50.612	-0.056	0.026
-503.697	-138.149	0.029	-0.003
-502.683	58.643	-0.151	0.148
-501.668	-200.000	-0.037	0.266
-500.653	-7.873	-0.177	-0.120
-499.639	-200.000	0.015	-0.163
-498.624	-37.930	0.283	-0.151
-497.610	276.644	0.132	0.235
-496.595	-141.045	-0.249	0.026
-495.581	147.412	-0.041	0.055
-494.566	324.958	0.035	-0.068
-493.551	-200.000	-0.045	-0.303
-492.537	800.000	-0.108	-0.360
-491.522	-9.327	-0.180	-0.121
-490.508	62.820	0.217	-0.218
-489.493	-14.410	-0.221	-0.142
-488.478	51.831	0.075	-0.072
-487.464	565.508	0.018	0.044
-486.449	-200.000	-0.038	0.168
-485.435	-111.419	-0.201	0.041
-484.420	-200.000	0.048	-0.312
-483.405	179.644	-0.094	-0.137
-482.391	-63.144	0.147	0.061
-481.376	-67.763	0.256	-0.100
-480.362	-200.000	-0.024	0.144
-479.347	-200.000	0.057	-0.295
-478.332	-121.014	0.243	-0.041
-477.318	-72.863	-0.237	-0.087
-476.303	65.503	-0.204	-0.207
-475.289	-99.923	0.298	0.075
-474.274	288.041	0.135	-0.245
-473.259	144.063	-0.212	-0.283
-472.245	17.769	-0.315	0.251
-471.230	-17.307	0.182	0.115
-470.216	-200.000	0.096	0.482
-469.201	-107.907	0.470	-0.102
-468.186	-200.000	0.016	-0.418
-467.172	-200.000	0.012	-0.180
-466.157	-200.000	-0.026	0.131
-465.143	-200.000	-0.000	-0.253
-464.128	-200.000	-0.020	-0.169
-463.113	-194.584	0.403	0.003
-462.099	-200.000	0.012	0.256
-461.084	309.366	-0.066	0.123
-460.070	655.640	-0.123	-0.316
-459.055	-73.593	-0.202	-0.074
-458.040	9.085	-0.143	0.108
-457.026	71.938	0.238	0.248
-456.011	330.267	0.084	0.162
-454.997	-137.569	0.522	-0.059
-453.982	237.619	0.176	-0.292
-452.968	-200.000	0.019	0.318
-451.953	-200.000	-0.005	0.034
-450.938	142.282	-0.063	0.084
-449.924	452.323	-0.086	0.190
-448.909	288.631	-0.024	0.044
-447.895	-121.312	0.162	0.027
-446.880	-124.416	0.248	0.039
-445.865	-18.830	-0.056	0.035
-444.851	288.550	-0.068	0.123
-443.836	800.000	-0.074	0.215
-442.822	-40.610	-0.240	-0.125
-441.807	24.651	-0.176	0.146
-440.792	-11.317	-0.135	0.089
-439.778	-98.113	0.267	-0.069
-438.763	-53.222	0.277	0.127
-437.749	329.700	-0.066	0.127
-436.734	-172.715	0.225	0.007
-435.719	-43.404	0.057	0.029
-434.705	150.931	-0.086	-0.117
-433.690	77.547	0.123	0.131
-432.676	-33.871	-0.296	-0.163
-431.661	38.695	0.114	0.101
-430.646	800.000	-0.071	-0.240
-429.632	-37.779	0.191	-0.101
-428.617	164.982	-0.025	0.036
-427.603	-67.959	0.024	-0.009
-426.588	-130.691	-0.338	0.045
-425.573	-200.000	0.026	-0.369
-424.559	-125.137	0.228	-0.035
-423.544	73.601	0.180	-0.188
-422.530	141.040	-0.171	-0.227
-421.515	800.000	-0.066	-0.186
-420.500	-104.092	0.295	0.069
-419.486	-44.700	-0.246	0.123
-418.471	-43.940	-0.109	-0.055
-417.457	206.130	0.043	-0.066
-416.442	132.565	0.030	0.039
-415.428	-27.722	-0.328	0.190
-414.413	47.479	-0.162	0.151
-413.398	800.000	0.048	-0.172
-412.384	56.028	-0.170	0.165
-411.369	-200.000	0.003	0.122
-410.355	-40.621	0.183	0.095
-409.340	47.943	0.200	0.187
-408.325	-200.000	0.002	0.130
-407.311	800.000	-0.041	0.160
-406.296	-148.582	0.434	0.035
-405.282	-181.175	-0.034	0.001
-404.267	273.182	0.046	0.081
-403.252	-65.567	0.060	-0.024
-402.238	800.000	0.042	0.133
-401.223	-130.844	-0.162	-0.022
-400.209	80.354	-0.295	-0.317
-399.194	160.712	0.107	0.150
-398.179	9.057	0.475	0.359
-397.165	30.277	-0.070	0.059
-396.150	-32.015	0.375	0.210
-395.136	77.567	0.156	0.166
-394.121	-200.000	-0.018	0.109
-393.106	-11.996	-0.092	0.060
-392.092	800.000	0.082	0.241
-391.077	410.952	-0.143	-0.302
-390.063	263.326	-0.031	0.054
-389.048	800.000	0.112	-0.378
-388.033	-58.632	0.164	-0.071
-387.019	-155.154	-0.101	-0.007
-386.004	-33.602	0.247	-0.136
-384.990	-171.864	0.034	0.001
-383.975	42.816	-0.048	0.044
-382.960	-127.508	0.393	-0.057
-381.946	717.425	0.105	0.279
-380.931	143.687	-0.022	-0.029
-379.917	-200.000	0.164	0.001
-378.902	-37.823	0.168	0.089
-377.888	-135.237	-0.267	-0.032
-376.873	99.943	0.090	0.104
-375.858	800.000	-0.054	-0.176
-374.844	-45.525	-0.288	0.143
-373.829	546.592	-0.081	-0.195
-372.815	755.635	0.064	0.174
-371.800	-40.893	0.386	-0.199
-370.785	-96.183	0.314	-0.083
-369.771	152.425	0.088	-0.120
-368.756	-115.418	-0.195	0.037
-367.742	-72.441	0.238	0.088
-366.727	10.633	-0.154	0.117
-365.712	265.250	0.120	-0.208
-364.698	800.000	-0.116	0.401
-363.683	-53.484	-0.062	0.029
-362.669	-90.573	-0.475	0.137
-361.654	67.299	0.108	-0.110
-360.639	-200.000	0.022	-0.105
-359.625	531.628	-0.085	0.200
-358.610	-123.558	-0.086	0.014
-357.596	-200.000	-0.035	0.170
-356.581	-147.271	0.046	0.004
-355.566	624.703	-0.117	0.295
-354.552	-16.055	-0.212	0.134
-353.537	-52.768	0.105	-0.048
-352.523	800.000	0.093	0.262
-351.508	88.253	0.101	-0.112
-350.493	177.309	0.177	0.257
-349.479	-112.443	0.308	-0.061
-348.464	-80.057	0.335	0.112
-347.450	105.503	0.098	-0.116
-346.435	242.237	-0.010	-0.017
-345.420	563.883	-0.166	0.401
-344.406	-191.892	-0.114	-0.001
-343.391	-61.256	-0.072	-0.030
-342.377	-92.024	-0.508	0.143
-341.362	800.000	-0.024	0.092
-340.348	-159.776	0.226	0.012
-339.333	-200.000	-0.058	0.285
-338.318	-73.929	-0.168	0.061
-337.304	357.138	-0.168	-0.333
-336.289	130.289	0.148	-0.189
-335.275	145.158	0.093	-0.124
-334.260	-200.000	-0.072	-0.355
-333.245	-200.000	-0.053	-0.410
-332.231	-89.769	0.289	0.084
-331.216	800.000	0.101	0.334
-330.202	-18.219	0.119	0.074
-329.187	93.982	-0.157	0.178
-328.172	-21.556	-0.288	-0.175
-327.158	-200.000	-0.034	0.202
-326.143	-112.475	-0.083	0.017
-325.129	-200.000	-0.017	-0.082
-324.114	145.479	-0.139	0.185
-323.099	-165.386	-0.331	-0.014
-322.085	-200.000	-0.010	0.078
-321.070	-22.110	0.073	0.044
-320.056	-53.640	0.299	-0.136
-319.041	639.584	0.098	0.247
-318.026	78.279	0.156	-0.166
-317.012	800.000	0.016	-0.047
-315.997	-200.000	0.029	-0.170
-314.983	800.000	0.096	0.316
-313.968	182.232	-0.111	-0.163
-312.953	-112.745	0.409	0.081
-311.939	271.419	-0.017	-0.030
-310.924	519.329	-0.073	0.171
-309.910	454.417	-0.166	0.366
-308.895	21.391	-0.189	-0.153
-307.880	-99.968	0.191	0.047
-306.866	102.516	0.166	-0.193
-305.851	-108.339	0.321	0.069
-304.837	-74.835	0.433	0.155
-303.822	583.969	-0.086	-0.211
-302.807	-106.977	0.307	0.068
-301.793	193.342	-0.090	0.135
-300.778	800.000	0.091	-0.330
-299.764	-93.580	-0.390	0.107
-298.749	-114.793	-0.524	0.100
-297.735	-200.000	-0.020	-0.274
-296.720	-200.000	-0.016	-0.289
-295.705	54.324	-0.007	0.006
-294.691	-156.527	0.147	-0.009
-293.676	-108.549	0.274	-0.059
-292.662	77.612	-0.144	0.153
-291.647	800.000	-0.150	-0.420
-290.632	403.352	0.093	-0.194
-289.618	55.983	-0.257	0.248
-288.603	800.000	-0.107	0.451
-287.589	-147.656	-0.203	-0.017
-286.574	-92.195	0.475	-0.133
-285.559	800.000	-0.083	-0.283
-284.545	-200.000	-0.031	-0.157
-283.530	800.000	0.091	-0.257
-282.516	800.000	0.064	0.200
-281.501	214.090	0.054	-0.085
-280.486	800.000	-0.068	0.254
-279.472	248.072	-0.088	-0.148
-278.457	128.081	-0.240	-0.303
-277.443	215.977	0.030	0.047
-276.428	800.000	-0.075	0.301
-275.413	-67.102	0.110	0.043
-274.399	-125.692	-0.215	0.032
-273.384	336.419	0.097	0.188
-272.370	-90.941	0.076	-0.022
-271.355	92.935	0.099	0.111
-270.340	800.000	-0.059	-0.242
-269.326	123.720	-0.117	-0.146
-268.311	55.747	0.060	0.058
-267.297	403.542	-0.069	0.143
-266.282	800.000	-0.083	-0.332
-265.267	238.431	-0.239	-0.395
-264.253	-31.411	0.131	-0.073
-263.238	58.388	0.078	-0.076
-262.224	-122.539	-0.306	0.049
-261.209	39.212	-0.262	0.233
-260.195	-200.000	-0.036	0.410
-259.180	582.165	0.056	-0.136
-258.165	396.718	-0.139	-0.288
-257.151	-200.000	-0.007	-0.061
-256.136	541.860	-0.055	0.131
-255.122	-80.953	-0.209	-0.069
-254.107	-200.000	0.050	-0.305
-253.092	52.150	0.090	0.085
-252.078	800.000	0.080	-0.255
-251.063	-67.045	0.355	0.139
-250.049	77.949	-0.032	0.034
-249.034	446.248	0.183	0.400
-248.019	-148.805	-0.228	0.018
-247.005	800.000	0.046	-0.142
-245.990	-200.000	-0.003	0.209
-244.976	23.917	-0.236	0.193
-243.961	34.321	-0.149	0.129
-242.946	305.418	-0.172	0.318
-241.932	17.202	-0.164	-0.129
-240.917	-145.745	-0.086	-0.008
-239.903	305.976	0.081	0.149
-238.888	-90.008	-0.255	-0.074
-237.873	64.973	0.114	0.114
-236.859	-94.329	0.507	0.138
-235.844	800.000	-0.066	0.187
-234.830	254.770	0.068	-0.116
-233.815	39.466	-0.181	0.161
-232.800	690.914	0.042	0.108
-231.786	236.529	-0.156	0.256
-230.771	260.067	-0.147	-0.252
-229.757	380.367	-0.010	0.020
-228.742	28.070	0.142	0.119
-227.727	698.947	0.129	0.336
-226.713	-138.220	-0.188	-0.021
-225.698	544.526	0.069	-0.163
-224.684	67.485	0.190	0.192
-223.669	-109.770	-0.156	0.033
-222.655	-10.740	0.264	0.174
-221.640	-200.000	-0.011	0.103
-220.625	203.073	-0.087	0.134
-219.611	66.026	-0.154	0.155
-218.596	-200.000	0.014	-0.121
-217.582	-200.000	-0.023	-0.104
-216.567	800.000	-0.022	0.072
-215.552	-200.000	0.046	-0.283
-214.538	711.295	-0.079	-0.207
-213.523	32.662	0.117	-0.100
-212.509	81.374	0.246	-0.264
-211.494	-200.000	0.006	-0.061
-210.479	-26.253	0.249	-0.145
-209.465	115.989	-0.265	-0.322
-208.450	663.987	-0.044	0.112
-207.436	-79.137	-0.117	0.040
-206.421	201.531	0.038	-0.058
-205.406	800.000	0.074	0.222
-204.392	800.000	0.055	0.164
-203.377	-139.063	0.046	-0.005
-202.363	354.191	-0.135	-0.266
-201.348	-95.489	-0.429	0.114
-200.333	659.959	0.040	0.101
-199.319	-200.000	0.013	-0.192
-198.304	-144.274	0.136	0.013
-197.290	347.121	-0.089	-0.173
-196.275	-73.664	0.126	-0.046
-195.260	138.498	-0.051	-0.066
-194.246	196.407	-0.059	0.090
-193.231	-1.580	-0.125	-0.087
-192.217	118.699	0.274	-0.336
-191.202	-58.504	-0.231	-0.099
-190.187	-200.000	-0.022	-0.174
-189.173	46.612	-0.121	0.111
-188.158	-2.586	0.128	-0.089
-187.144	197.814	0.135	-0.205
-186.129	-200.000	0.005	0.188
-185.114	201.342	0.074	0.114
-184.100	-120.440	0.477	0.080
-183.085	97.774	0.214	-0.244
-182.071	-8.387	-0.040	0.027
-181.056	-7.162	0.087	-0.058
-180.042	-101.840	-0.156	-0.037
-179.027	395.450	-0.169	-0.350
-178.012	-200.000	0.012	0.158
-176.998	-200.000	0.073	0.000
-175.983	-153.981	-0.254	-0.017
-174.969	800.000	0.053	0.148
-173.954	8.376	0.077	-0.057
-172.939	-200.000	-0.044	-0.223
-171.925	-200.000	-0.013	-0.155
-170.910	145.153	0.150	0.199
-169.896	158.032	0.094	-0.129
-168.881	100.389	-0.135	0.155
-167.866	800.000	0.056	-0.167
-166.852	774.489	0.104	-0.281
-165.837	142.658	0.233	-0.306
-164.823	800.000	0.068	-0.269
-163.808	-167.881	0.348	-0.014
-162.793	70.733	0.066	-0.068
-161.779	-92.174	0.143	0.040
-160.764	-200.000	-0.031	0.340
-159.750	-115.894	-0.035	0.006
-158.735	-15.824	-0.341	0.215
-157.720	389.326	-0.136	0.279
-156.706	-200.000	0.016	0.127
-155.691	17.931	0.109	-0.086
-154.677	800.000	0.057	0.156
-153.662	298.622	0.044	-0.081
-152.647	28.432	0.173	0.145
-151.633	-137.569	0.230	-0.026
-150.618	1.906	-0.306	0.219
-149.604	800.000	0.021	0.060
-148.589	800.000	0.072	0.256
-147.574	-200.000	0.023	-0.315
-146.560	267.418	-0.052	0.089
-145.545	800.000	0.029	-0.097
-144.531	-152.278	-0.105	-0.007
-143.516	148.842	0.132	0.176
-142.502	15.171	0.288	0.223
-141.487	144.841	-0.200	0.265
-140.472	750.444	0.171	-0.456
-139.458	800.000	-0.045	-0.128
-138.443	35.729	0.116	0.100
-137.429	-29.930	0.204	-0.115
-136.414	731.437	0.043	0.114
-135.399	176.904	0.036	-0.052
-134.385	664.287	-0.065	-0.165
-133.370	-200.000	-0.018	-0.479
-132.356	-14.135	0.290	-0.185
-131.341	-100.126	0.180	0.044
-130.326	421.065	0.033	0.070
-129.312	-92.324	-0.134	0.037
-128.297	-200.000	0.035	0.172
-127.283	36.263	0.190	0.166
-126.268	-200.000	-0.012	0.156
-125.253	235.325	-0.143	0.233
-124.239	14.429	-0.200	0.154
-123.224	708.515	-0.065	0.170
-122.210	-96.154	-0.357	-0.094
-121.195	240.775	-0.137	0.227
-120.180	43.237	-0.187	-0.169
-119.166	800.000	-0.013	-0.049
-118.151	-123.244	0.291	-0.046
-117.137	597.526	-0.142	-0.347
-116.122	-200.000	-0.007	-0.105
-115.107	-200.000	-0.074	-0.360
-114.093	800.000	-0.103	0.287
-113.078	-119.198	0.151	-0.026
-112.064	-61.595	0.218	-0.090
-111.049	-16.195	0.185	-0.116
-110.034	88.606	-0.056	-0.061
-109.020	-5.171	-0.144	-0.098
-108.005	60.942	0.210	-0.206
-106.991	-25.452	-0.149	-0.087
-105.976	-109.693	-0.200	-0.042
-104.962	26.258	0.009	0.007
-103.947	-9.790	-0.135	0.089
-102.932	800.000	0.105	-0.386
-101.918	-17.102	0.230	0.143
-100.903	-200.000	0.022	-0.107
-99.889	331.682	0.027	0.051
-98.874	82.963	-0.164	-0.176
-97.859	-148.809	0.294	0.024
-96.845	267.173	-0.083	0.143
-95.830	800.000	0.067	-0.194
-94.816	-200.000	0.002	-0.290
-93.801	155.215	-0.033	-0.045
-92.786	657.522	-0.117	0.298
-91.772	800.000	0.062	0.230
-90.757	3.306	-0.217	0.156
-89.743	-192.861	0.189	-0.002
-88.728	-41.395	0.313	-0.159
-87.713	-16.757	-0.196	0.123
-86.699	-60.891	0.147	-0.061
-85.684	471.430	-0.131	-0.291
-84.670	-63.372	-0.297	-0.120
-83.655	201.106	-0.044	0.067
-82.640	33.008	0.174	-0.149
-81.626	-124.056	0.353	0.055
-80.611	14.182	-0.203	-0.156
-79.597	800.000	-0.054	0.183
-78.582	-15.649	-0.282	0.178
-77.567	58.584	0.275	0.266
-76.553	40.584	-0.263	0.234
-75.538	19.065	0.192	-0.152
-74.524	-23.649	0.285	0.169
-73.509	-200.000	-0.155	-0.000
-72.494	-86.033	-0.146	-0.044
-71.480	-200.000	-0.054	0.382
-70.465	424.062	0.144	0.306
-69.451	557.423	-0.066	0.158
-68.436	574.132	0.049	0.118
-67.422	-40.771	0.133	-0.068
-66.407	-134.636	0.137	-0.017
-65.392	66.654	-0.168	-0.168
-64.378	249.475	0.050	0.084
-63.363	-113.613	-0.452	0.087
-62.349	800.000	0.151	0.472
-61.334	56.722	-0.917	-0.881
-60.319	-46.476	0.535	0.259
-59.305	800.000	-0.347	-1.042
-58.290	800.000	0.290	0.878
-57.276	497.201	0.654	1.483
-56.261	-200.000	105.885	610.791
-55.246	496.337	1507.177	3416.592
-54.232	172.602	2709.808	3845.467
-53.217	101.180	2334.704	2679.048
-52.203	35.916	2078.084	1802.286
-51.188	31.105	1991.620	1683.930
-50.173	29.795	1972.921	1656.339
-49.159	45.620	2030.283	1848.810
-48.144	46.059	2046.759	1867.738
-47.130	31.720	2005.645	1701.113
-46.115	29.505	1994.618	1671.656
-45.100	29.363	1992.017	1668.132
-44.086	29.372	1989.729	1666.230
-43.071	29.286	1986.718	1662.867
-42.057	29.302	1984.945	1661.457
-41.042	29.323	1982.937	1659.897
-40.027	29.347	1981.157	1658.564
-39.013	29.370	1979.270	1657.125
-37.998	29.292	1977.662	1655.013
-36.984	29.422	1975.412	1654.227
-35.969	29.289	1973.679	1651.522
-34.954	29.372	1971.544	1650.413
-33.940	29.441	1970.274	1649.899
-32.925	29.431	1969.159	1648.812
-31.911	29.418	1966.917	1646.754
-30.896	29.415	1965.336	1645.333
-29.881	29.440	1963.727	1644.144
-28.867	29.445	1962.600	1643.184
-27.852	29.405	1960.512	1641.009
-26.838	29.471	1958.647	1639.967
-25.823	29.455	1956.728	1638.155
-24.809	29.413	1955.442	1636.643
-23.794	29.535	1952.973	1635.589
-22.779	29.474	1950.988	1633.328
-21.765	29.468	1949.853	1632.255
-20.750	29.462	1948.151	1630.718
-19.736	29.480	1946.542	1629.459
-18.721	29.511	1945.237	1628.583
-17.706	29.549	1943.353	1627.269
-16.692	29.479	1941.741	1625.237
-15.677	29.506	1939.868	1623.849
-14.663	29.482	1938.588	1622.497
-13.648	29.468	1937.703	1621.573
-12.633	29.479	1936.017	1620.189
-11.619	29.494	1935.014	1619.423
-10.604	29.490	1933.631	1618.162
-9.590	29.339	1933.111	1616.338
-8.575	29.444	1931.068	1615.491
-7.560	29.475	1929.699	1614.549
-6.546	29.456	1928.080	1612.967
-5.531	29.436	1927.248	1612.028
-4.517	29.500	1925.845	1611.355
-3.502	29.436	1925.108	1610.114
-2.487	29.434	1923.656	1608.813
-1.473	29.501	1922.253	1608.165
-0.458	29.472	1917.835	1604.154
0.556	27.048	1898.099	1577.965
1.571	23.187	1879.902	1529.399
2.586	19.544	1903.762	1516.737
3.600	18.734	1939.871	1538.111
4.615	18.563	1935.885	1533.287
5.629	14.185	1834.473	1415.666
6.644	5.007	1715.337	1250.300
7.659	0.196	1678.132	1185.266
8.673	-0.235	1674.705	1179.354
9.688	-0.278	1673.599	1178.134
10.702	-0.320	1671.780	1176.417
11.717	-0.387	1668.289	1173.331
12.731	-0.004	1667.833	1175.908
13.746	6.787	1683.910	1240.625
14.761	16.332	1705.291	1331.881
15.775	20.908	1714.111	1374.837
16.790	21.784	1715.128	1382.440
17.804	21.979	1713.947	1382.901
18.819	21.923	1713.630	1382.083
19.834	22.125	1712.623	1382.744
20.848	22.229	1712.430	1383.285
21.863	22.399	1710.917	1383.276
22.877	22.312	1710.238	1381.920
23.892	22.386	1709.374	1381.676
24.907	22.376	1708.425	1380.714
25.921	22.343	1707.422	1379.518
26.936	22.274	1706.881	1378.416
27.950	22.348	1705.585	1377.832
28.965	22.284	1705.286	1376.963
29.980	22.376	1703.994	1376.521
30.994	22.414	1702.577	1375.550
32.009	22.429	1701.698	1374.833
33.023	22.360	1700.349	1373.089
34.038	22.339	1700.228	1372.698
35.053	22.341	1698.781	1371.431
36.067	22.373	1698.048	1370.966
37.082	22.429	1696.499	1370.027
38.096	22.279	1695.762	1368.141
39.111	22.347	1695.376	1368.244
40.126	22.374	1694.011	1367.226
41.140	22.369	1692.955	1366.215
42.155	22.369	1692.152	1365.449
43.169	22.358	1690.969	1364.283
44.184	22.291	1690.137	1362.978
45.199	22.375	1688.971	1362.563
46.213	22.259	1687.980	1360.749
47.228	22.367	1686.360	1360.159
48.242	22.367	1685.616	1359.439
49.257	22.365	1684.139	1358.111
50.271	22.385	1682.871	1357.118
51.286	22.284	1682.294	1355.758
52.301	22.297	1680.797	1354.528
53.315	22.266	1679.156	1352.852
54.330	22.307	1678.079	1352.180
55.344	22.408	1676.171	1351.292
56.359	22.328	1674.868	1349.515
57.374	22.325	1674.220	1348.850
58.388	22.365	1672.585	1347.714
59.403	22.340	1671.949	1346.891
60.417	22.396	1670.130	1345.735
61.432	22.318	1669.417	1344.449
62.447	22.408	1668.235	1344.063
63.461	22.414	1666.934	1342.941
64.476	22.396	1666.445	1342.293
65.490	22.351	1665.286	1340.897
66.505	22.444	1663.904	1340.376
67.520	22.359	1663.225	1339.060
68.534	22.361	1661.978	1337.957
69.549	22.478	1660.550	1337.577
70.563	22.380	1660.290	1336.500
71.578	22.397	1659.402	1335.798
72.593	22.462	1657.960	1335.011
73.607	22.401	1657.342	1333.936
74.622	22.460	1655.893	1333.095
75.636	22.394	1655.421	1332.100
76.651	22.446	1654.131	1331.334
77.666	22.457	1652.918	1330.326
78.680	22.481	1652.256	1329.860
79.695	22.384	1651.576	1328.458
80.709	22.420	1650.263	1327.558
81.724	22.444	1649.831	1327.277
82.739	22.390	1648.951	1326.043
83.753	22.345	1647.805	1324.666
84.768	22.418	1646.377	1323.947
85.782	22.395	1645.542	1322.989
86.797	22.430	1644.711	1322.466
87.812	22.328	1644.156	1321.135
88.826	22.480	1642.155	1320.549
89.841	22.411	1641.688	1319.540
90.855	22.357	1641.234	1318.652
91.870	22.447	1639.453	1317.782
92.884	22.427	1638.312	1316.600
93.899	22.422	1637.632	1315.896
94.914	22.435	1636.442	1314.922
95.928	22.341	1635.652	1313.471
96.943	22.391	1633.942	1312.354
97.957	22.446	1632.726	1311.671
98.972	22.467	1631.462	1310.695
99.987	22.417	1630.123	1309.131
101.001	22.470	1628.404	1308.027
102.016	22.338	1626.898	1305.720
103.030	22.367	1625.675	1304.839
104.045	22.390	1624.621	1304.046
105.060	22.477	1623.242	1303.470
106.074	22.391	1622.019	1301.734
107.089	22.414	1620.935	1300.922
108.103	22.427	1619.829	1300.019
109.118	22.406	1618.749	1298.878
110.133	22.449	1617.174	1297.815
111.147	22.478	1616.130	1297.079
112.162	22.491	1614.617	1295.843
113.176	22.417	1613.730	1294.475
114.191	22.461	1612.439	1293.646
115.206	22.470	1611.267	1292.660
116.220	22.464	1609.840	1291.358
117.235	22.484	1608.920	1290.646
118.249	22.427	1607.635	1289.085
119.264	22.375	1606.991	1288.075
120.279	22.406	1605.763	1287.206
121.293	22.479	1604.304	1286.455
122.308	22.521	1603.015	1285.610
123.322	22.537	1601.769	1284.616
124.337	22.442	1600.795	1283.027
125.352	22.571	1599.194	1282.569
126.366	22.540	1598.383	1281.581
127.381	22.560	1597.565	1280.961
128.395	22.597	1596.321	1280.115
129.410	22.550	1595.296	1278.838
130.424	22.481	1594.204	1277.351
131.439	22.576	1593.103	1277.045
132.454	22.598	1591.617	1275.901
133.468	22.508	1590.642	1274.355
134.483	22.624	1588.830	1273.625
135.497	22.535	1587.815	1272.059
136.512	22.518	1586.807	1271.018
137.527	22.454	1585.419	1269.331
138.541	22.615	1584.188	1269.393
139.556	22.558	1582.918	1267.855
140.570	22.427	1581.820	1265.920
141.585	22.535	1580.383	1265.433
142.600	22.549	1578.958	1264.280
143.614	22.621	1577.708	1263.686
144.629	22.557	1577.023	1262.562
145.643	22.614	1575.832	1261.908
146.658	22.490	1575.152	1260.363
147.673	22.429	1573.450	1258.456
148.687	22.607	1572.263	1258.664
149.702	22.610	1570.596	1257.243
150.716	22.559	1569.593	1255.961
151.731	22.578	1568.519	1255.128
152.746	22.468	1567.576	1253.477
153.760	22.547	1566.335	1252.938
154.775	22.558	1565.530	1252.258
155.789	22.585	1564.421	1251.453
156.804	22.686	1562.753	1250.729
157.819	22.632	1561.859	1249.520
158.833	22.608	1560.796	1248.387
159.848	22.612	1560.006	1247.675
160.862	22.691	1559.095	1247.388
161.877	22.725	1557.663	1246.376
162.892	22.639	1557.248	1245.329
163.906	22.651	1556.154	1244.428
164.921	22.644	1555.407	1243.672
165.935	22.627	1554.506	1242.715
166.950	22.759	1552.719	1242.111
167.964	22.642	1551.999	1240.599
168.979	22.751	1550.930	1240.400
169.994	22.622	1550.673	1239.180
171.008	22.712	1549.713	1238.939
172.023	22.682	1548.527	1237.665
173.037	22.742	1547.344	1237.029
174.052	22.727	1545.909	1235.674
175.067	22.677	1545.495	1234.881
176.081	22.719	1544.434	1234.219
177.096	22.738	1543.333	1233.363
178.110	22.677	1542.279	1231.986
179.125	22.690	1541.234	1231.134
180.140	22.795	1539.970	1230.743
181.154	22.680	1539.496	1229.456
182.169	22.703	1538.877	1229.012
183.183	22.680	1537.810	1227.893
184.198	22.713	1536.824	1227.222
185.213	22.792	1535.743	1226.800
186.227	22.750	1534.980	1225.795
187.242	22.758	1534.343	1225.232
188.256	22.778	1533.486	1224.580
189.271	22.775	1532.380	1223.562
190.286	22.829	1531.684	1223.275
191.300	22.791	1530.756	1222.162
192.315	22.905	1529.765	1222.054
193.329	22.806	1528.812	1220.500
194.344	22.761	1528.049	1219.470
195.359	22.825	1526.722	1218.744
196.373	22.891	1525.867	1218.412
197.388	22.826	1525.238	1217.348
198.402	22.764	1524.314	1216.082
199.417	22.712	1523.551	1215.005
200.432	22.719	1522.918	1214.439
201.446	22.657	1522.273	1213.394
202.461	22.791	1521.113	1213.277
203.475	22.772	1520.272	1212.373
204.490	22.791	1519.621	1211.879
205.504	22.740	1518.287	1210.357
206.519	22.835	1517.348	1210.148
207.534	22.807	1516.725	1209.356
208.548	22.864	1516.005	1209.063
209.563	22.820	1514.748	1207.655
210.577	22.853	1513.956	1207.141
211.592	22.798	1513.395	1206.214
212.607	22.852	1512.448	1205.716
213.621	22.937	1511.697	1205.596
214.636	22.964	1511.124	1205.216
215.650	22.872	1510.323	1203.837
216.665	22.865	1509.548	1203.066
217.680	22.855	1508.824	1202.315
218.694	23.052	1507.406	1202.424
219.709	23.002	1506.678	1201.394
220.723	22.978	1506.470	1200.960
221.738	22.889	1505.751	1199.677
222.753	22.912	1504.300	1198.565
223.767	22.833	1503.538	1197.317
224.782	22.903	1502.503	1196.866
225.796	22.907	1501.949	1196.345
226.811	22.981	1501.085	1196.052
227.826	22.951	1500.522	1195.296
228.840	23.038	1499.338	1194.831
229.855	22.965	1499.354	1194.248
230.869	22.907	1498.004	1192.670
231.884	22.955	1497.020	1192.108
232.899	22.909	1496.122	1190.974
233.913	22.989	1494.591	1190.193
234.928	23.012	1493.805	1189.614
235.942	23.045	1492.535	1188.723
236.957	23.102	1491.548	1188.210
237.972	23.067	1490.602	1187.121
238.986	23.057	1489.545	1186.108
240.001	22.945	1489.263	1185.027
241.015	23.087	1487.743	1184.664
242.030	23.149	1486.588	1184.050
243.045	23.233	1485.996	1184.037
244.059	23.212	1484.833	1182.863
245.074	23.228	1483.941	1182.160
246.088	23.247	1483.601	1181.907
247.103	23.305	1482.733	1181.502
248.117	23.125	1482.279	1179.832
249.132	23.176	1481.329	1179.311
250.147	23.310	1480.223	1179.221
251.161	23.302	1479.519	1178.501
252.176	23.259	1478.918	1177.633
253.190	23.228	1478.199	1176.750
254.205	23.255	1477.641	1176.377
255.220	23.312	1476.445	1175.700
256.234	23.257	1475.850	1174.756
257.249	23.191	1474.997	1173.541
258.263	23.319	1474.395	1173.807
259.278	23.275	1473.123	1172.394
260.293	23.425	1472.095	1172.468
261.307	23.342	1471.795	1171.575
262.322	23.390	1471.166	1171.290
263.336	23.389	1470.448	1170.609
264.351	23.335	1469.381	1169.296
265.366	23.324	1468.704	1168.581
266.380	23.330	1467.563	1167.608
267.395	23.268	1466.596	1166.329
268.409	23.312	1466.152	1166.163
269.424	23.383	1465.204	1165.771
270.439	23.475	1463.709	1165.082
271.453	23.409	1463.014	1163.992
272.468	23.400	1462.434	1163.370
273.482	23.301	1462.185	1162.419
274.497	23.341	1460.977	1161.620
275.512	23.288	1460.188	1160.543
276.526	23.300	1459.823	1160.229
277.541	23.369	1458.439	1159.474
278.555	23.344	1458.067	1158.913
279.570	23.462	1457.083	1158.801
280.585	23.399	1456.482	1157.811
281.599	23.435	1455.390	1157.074
282.614	23.369	1454.525	1155.856
283.628	23.404	1453.442	1155.118
284.643	23.452	1452.475	1154.558
285.657	23.500	1451.363	1153.885
286.672	23.424	1450.748	1152.804
287.687	23.474	1449.839	1152.304
288.701	23.475	1449.078	1151.599
289.716	23.510	1448.679	1151.411
290.730	23.574	1447.576	1150.850
291.745	23.530	1446.894	1149.915
292.760	23.557	1446.106	1149.365
293.774	23.528	1445.159	1148.324
294.789	23.625	1443.997	1147.923
295.803	23.559	1443.477	1146.982
296.818	23.592	1442.424	1146.260
297.833	23.571	1441.768	1145.501
298.847	23.633	1441.023	1145.206
299.862	23.541	1440.448	1144.056
300.876	23.669	1439.272	1143.842
301.891	23.589	1438.718	1142.787
302.906	23.584	1437.801	1141.928
303.920	23.574	1437.237	1141.313
304.935	23.687	1436.705	1141.515
305.949	23.709	1435.721	1140.773
306.964	23.669	1434.572	1139.501
307.979	23.779	1433.713	1139.428
308.993	23.778	1432.771	1138.569
310.008	23.737	1432.099	1137.676
311.022	23.699	1431.429	1136.798
312.037	23.638	1430.860	1135.853
313.052	23.792	1429.237	1135.449
314.066	23.780	1428.737	1134.872
315.081	23.745	1427.466	1133.539
316.095	23.760	1426.680	1132.911
317.110	23.695	1426.027	1131.876
318.125	23.740	1424.982	1131.239
319.139	23.885	1424.234	1131.467
320.154	23.789	1423.123	1129.870
321.168	23.782	1422.503	1129.237
322.183	23.737	1421.575	1128.110
323.197	23.848	1420.569	1127.920
324.212	23.800	1419.883	1126.970
325.227	23.846	1419.205	1126.622
326.241	23.882	1418.095	1125.873
327.256	23.901	1417.314	1125.273
328.270	23.856	1416.726	1124.418
329.285	23.927	1415.765	1124.006
330.300	23.939	1414.864	1123.266
331.314	23.975	1414.387	1123.016
332.329	23.999	1413.312	1122.215
333.343	23.970	1412.376	1121.194
334.358	24.029	1412.056	1121.209
335.373	24.039	1410.928	1120.279
336.387	24.047	1410.507	1119.894
337.402	24.053	1409.789	1119.261
338.416	24.001	1409.554	1118.647
339.431	24.034	1408.723	1118.097
340.446	24.011	1408.319	1117.534
341.460	24.034	1406.892	1116.447
342.475	24.078	1405.895	1115.834
343.489	24.112	1404.925	1115.181
344.504	24.164	1404.257	1114.872
345.519	24.053	1403.566	1113.535
346.533	24.132	1402.580	1113.147
347.548	24.154	1401.743	1112.521
348.562	24.152	1400.794	1111.657
349.577	24.008	1400.299	1110.265
350.592	24.211	1399.470	1110.774
351.606	24.205	1398.360	1109.762
352.621	24.139	1397.351	1108.449
353.635	24.101	1396.817	1107.695
354.650	24.194	1395.715	1107.298
355.665	24.210	1394.846	1106.608
356.679	24.250	1393.736	1105.877
357.694	24.304	1392.445	1105.092
358.708	24.285	1391.576	1104.188
359.723	24.296	1390.630	1103.406
360.738	24.264	1389.538	1102.244
361.752	24.169	1388.518	1100.754
362.767	24.188	1387.633	1100.068
363.781	24.299	1386.527	1099.777
364.796	24.264	1386.002	1099.051
365.810	24.351	1385.018	1098.712
366.825	24.427	1384.429	1098.613
367.840	24.283	1383.850	1097.170
368.854	24.314	1383.288	1096.817
369.869	24.322	1382.404	1096.066
370.883	24.362	1382.188	1096.048
371.898	24.404	1381.209	1095.434
372.913	24.459	1380.564	1095.158
373.927	24.380	1379.708	1093.900
374.942	24.335	1379.266	1093.174
375.956	24.414	1378.203	1092.724
376.971	24.451	1377.446	1092.254
377.986	24.324	1377.026	1091.046
379.000	24.341	1376.442	1090.588
380.015	24.338	1375.684	1089.874
381.029	24.408	1374.653	1089.384
382.044	24.525	1373.861	1089.375
383.059	24.450	1373.462	1088.509
384.073	24.486	1372.602	1087.948
385.088	24.503	1372.138	1087.586
386.102	24.566	1371.208	1087.137
387.117	24.579	1370.635	1086.664
388.132	24.533	1370.193	1085.940
389.146	24.563	1368.967	1085.054
390.161	24.548	1368.345	1084.376
391.175	24.590	1367.602	1083.942
392.190	24.573	1366.955	1083.234
393.205	24.495	1366.408	1082.229
394.219	24.566	1365.760	1082.050
395.234	24.664	1363.985	1081.143
396.248	24.633	1362.898	1080.000
397.263	24.641	1361.694	1078.996
398.278	24.698	1360.491	1078.293
399.292	24.843	1359.552	1078.326
400.307	24.665	1359.382	1077.021
401.321	24.738	1358.161	1076.398
402.336	24.650	1357.437	1075.200
403.350	24.759	1356.001	1074.627
404.365	24.693	1355.375	1073.635
405.380	24.680	1354.785	1072.993
406.394	24.720	1353.914	1072.452
407.409	24.762	1352.948	1071.842
408.423	24.810	1352.069	1071.340
409.438	24.857	1351.730	1071.260
410.453	24.916	1350.694	1070.696
411.467	24.748	1350.441	1069.395
412.482	24.821	1350.082	1069.449
413.496	24.830	1349.366	1068.845
414.511	24.891	1348.210	1068.197
415.526	24.934	1347.239	1067.587
416.540	24.921	1346.565	1066.884
417.555	24.825	1346.102	1065.851
418.569	24.838	1345.859	1065.645
419.584	24.918	1344.749	1065.146
420.599	24.914	1344.213	1064.602
421.613	138.344	1435.702	1799.069
422.628	135.272	1448.969	1799.139
