DTS Sentinel unit serial number:	SN413079Multiplexer serial number:	ORYXHardware model number:	OX4-SRSoftware version number:	ORYX F/W v4.00 Oryx Data Collector v3.7.2.0data status	okinstallation	princeton_trtdifferential loss correction	single-endedforward channel	channel 4reverse channel	N/Adate	2019/09/11time	15:23:11forward acquisition time	60.00reverse acquisition time	0.00gamma	496.2192k internal	0.2278k external	0.2278temperature offset calibration	1.0010default loss term (dB/km)	0.3790temperature slope calibration	1.0000multiplexer offset coefficient	1.0000multiplexer slope coefficient	1.0000fibre end	0.00T internal ref (°C)	42.87T ext. ref 1 (°C)	0.97T ext. ref 2 (°C)	37.19length (m)	temperature (°C)	Stokes	anti-Stokes-747.200	100.242	-0.081	-0.096
-746.185	-200.000	0.047	0.476
-745.171	800.000	0.031	-0.125
-744.156	-117.166	-0.245	-0.046
-743.142	429.569	0.145	0.324
-742.127	-200.000	0.095	0.516
-741.112	146.635	0.070	0.096
-740.098	260.325	-0.127	0.226
-739.083	-200.000	-0.012	0.200
-738.069	258.111	0.017	-0.030
-737.054	-140.400	0.118	-0.013
-736.039	800.000	-0.055	-0.239
-735.025	44.175	0.045	0.043
-734.010	-159.374	-0.158	0.009
-732.996	704.029	-0.061	0.165
-731.981	-94.690	-0.223	-0.062
-730.966	-118.242	-0.257	-0.047
-729.952	-20.424	0.264	0.167
-728.937	-43.932	0.376	-0.194
-727.923	-3.922	-0.281	0.201
-726.908	-200.000	-0.019	0.137
-725.894	218.142	-0.083	-0.137
-724.879	-49.951	-0.248	0.121
-723.864	-118.526	-0.255	0.046
-722.850	351.633	0.086	-0.176
-721.835	-45.768	0.306	-0.156
-720.821	32.131	0.278	-0.247
-719.806	614.224	-0.092	-0.236
-718.791	-25.800	-0.134	-0.081
-717.777	-102.862	0.274	0.067
-716.762	-47.228	-0.198	0.099
-715.748	-135.671	-0.275	0.034
-714.733	-200.000	0.027	-0.141
-713.718	612.949	0.011	0.028
-712.704	-128.979	-0.126	0.018
-711.689	14.203	-0.433	-0.347
-710.675	-200.000	0.012	0.118
-709.660	-96.236	0.083	-0.023
-708.645	124.075	0.181	0.233
-707.631	-19.373	-0.119	-0.076
-706.616	-97.615	-0.153	0.041
-705.602	383.579	0.110	-0.232
-704.587	-12.088	0.403	-0.271
-703.572	-200.000	-0.008	-0.246
-702.558	-200.000	-0.018	-0.133
-701.543	-66.247	-0.257	-0.105
-700.529	-17.145	0.426	0.276
-699.514	-76.958	0.481	0.173
-698.499	0.341	0.270	0.198
-697.485	120.335	0.136	-0.173
-696.470	141.632	0.073	0.099
-695.456	-84.319	-0.057	-0.019
-694.441	-31.372	0.132	0.076
-693.426	158.804	-0.065	0.092
-692.412	-130.670	-0.271	0.038
-691.397	544.325	0.036	-0.087
-690.383	74.334	-0.182	-0.197
-689.368	7.717	-0.139	0.107
-688.354	201.951	-0.022	0.035
-687.339	-18.633	0.179	0.115
-686.324	-110.145	0.079	0.017
-685.310	-62.198	-0.165	-0.071
-684.295	-200.000	-0.018	-0.153
-683.281	-51.967	-0.362	-0.173
-682.266	800.000	-0.125	-0.479
-681.251	-59.040	-0.085	0.038
-680.237	800.000	-0.026	0.080
-679.222	800.000	-0.062	-0.222
-678.208	60.007	0.090	0.091
-677.193	-101.903	-0.303	-0.075
-676.178	800.000	0.128	-0.461
-675.164	-104.696	-0.153	0.036
-674.149	-200.000	0.033	-0.384
-673.135	621.431	0.026	0.068
-672.120	547.223	0.147	-0.361
-671.105	-174.325	-0.222	0.007
-670.091	-200.000	-0.040	-0.199
-669.076	-34.083	0.172	-0.097
-668.062	-49.768	-0.247	-0.121
-667.047	-200.000	0.005	0.041
-666.032	-127.067	0.455	0.069
-665.018	46.652	-0.247	-0.236
-664.003	-40.901	0.125	0.066
-662.989	-9.818	-0.389	-0.266
-661.974	569.857	0.081	-0.203
-660.959	-81.599	-0.112	0.038
-659.945	-69.082	-0.177	0.070
-658.930	-94.063	-0.163	-0.046
-657.916	-173.549	0.445	-0.014
-656.901	800.000	-0.068	-0.225
-655.886	-48.406	-0.095	-0.047
-654.872	18.468	0.140	0.115
-653.857	614.828	-0.016	-0.041
-652.843	-200.000	0.019	0.132
-651.828	-102.728	0.221	0.054
-650.814	800.000	0.058	-0.230
-649.799	-27.852	-0.212	0.126
-648.784	4.491	0.336	-0.253
-647.770	-121.640	0.265	-0.045
-646.755	800.000	-0.029	-0.105
-645.741	630.241	-0.056	-0.146
-644.726	88.594	-0.187	0.213
-643.711	20.116	-0.263	-0.218
-642.697	-14.393	-0.087	-0.057
-641.682	423.149	0.046	-0.101
-640.668	393.911	-0.104	-0.221
-639.653	144.149	-0.059	-0.080
-638.638	800.000	0.055	0.172
-637.624	-200.000	-0.017	-0.301
-636.609	800.000	0.070	-0.228
-635.595	46.748	-0.106	-0.101
-634.580	52.009	0.119	-0.116
-633.565	800.000	0.094	0.303
-632.551	86.907	0.104	-0.118
-631.536	800.000	-0.036	-0.116
-630.522	-23.776	0.157	-0.096
-629.507	-200.000	0.023	0.301
-628.492	32.951	-0.192	0.170
-627.478	-85.327	-0.275	-0.088
-626.463	-10.018	-0.293	-0.199
-625.449	-126.776	-0.278	-0.042
-624.434	84.415	-0.009	-0.011
-623.419	211.476	0.070	-0.113
-622.405	23.429	-0.013	-0.011
-621.390	-145.648	0.052	0.005
-620.376	-40.516	-0.105	0.056
-619.361	646.300	-0.131	0.342
-618.346	-74.725	0.340	-0.125
-617.332	54.102	0.164	0.162
-616.317	-9.044	-0.302	-0.207
-615.303	-200.000	-0.012	0.157
-614.288	168.728	0.171	-0.250
-613.273	-87.849	-0.326	0.101
-612.259	629.020	0.171	0.443
-611.244	153.248	-0.176	0.246
-610.230	12.650	0.232	0.184
-609.215	230.724	0.138	0.231
-608.201	800.000	-0.052	0.177
-607.186	-73.675	0.140	-0.052
-606.171	764.062	0.112	0.311
-605.157	-121.504	0.213	-0.036
-604.142	104.310	-0.257	-0.310
-603.128	800.000	0.019	-0.077
-602.113	-200.000	0.017	-0.183
-601.098	96.695	-0.118	-0.139
-600.084	-78.333	0.303	0.106
-599.069	148.288	-0.179	0.248
-598.055	77.892	-0.124	0.136
-597.040	-135.775	-0.387	-0.047
-596.025	-4.720	0.212	0.150
-595.011	-128.983	-0.402	0.058
-593.996	581.706	0.042	0.106
-592.982	228.858	0.073	-0.122
-591.967	200.961	0.044	0.069
-590.952	280.953	-0.116	0.212
-589.938	50.424	-0.386	-0.374
-588.923	761.981	-0.064	0.178
-587.909	-81.894	0.262	0.088
-586.894	285.742	0.080	-0.147
-585.879	296.393	-0.020	-0.038
-584.865	92.836	0.107	0.123
-583.850	-200.000	-0.054	0.677
-582.836	520.323	-0.059	0.141
-581.821	-86.332	-0.142	0.045
-580.806	296.002	0.090	0.170
-579.792	638.569	-0.123	0.320
-578.777	-120.979	0.161	-0.028
-577.763	-170.421	0.300	0.011
-576.748	595.638	-0.186	-0.471
-575.733	-200.000	0.019	-0.110
-574.719	73.917	-0.195	0.209
-573.704	8.845	-0.043	0.033
-572.690	800.000	0.039	-0.114
-571.675	-45.886	-0.049	-0.025
-570.661	186.799	0.221	0.337
-569.646	110.488	0.116	0.143
-568.631	-10.244	-0.348	-0.236
-567.617	-92.623	-0.342	-0.098
-566.602	800.000	-0.062	-0.263
-565.588	28.648	0.036	0.031
-564.573	606.300	-0.087	0.222
-563.558	-200.000	-0.042	-0.194
-562.544	-146.342	0.107	0.010
-561.529	22.996	0.092	-0.078
-560.515	-63.505	-0.248	0.104
-559.500	-61.300	0.525	-0.226
-558.485	-188.485	-0.146	-0.002
-557.471	-86.965	-0.245	0.076
-556.456	659.774	0.038	-0.101
-555.442	38.888	0.226	0.207
-554.427	-126.149	0.129	-0.020
-553.412	-22.066	-0.253	-0.157
-552.398	-102.717	0.023	-0.006
-551.383	-69.132	0.200	0.079
-550.369	-182.029	0.179	0.003
-549.354	25.965	0.151	0.129
-548.339	200.006	-0.095	0.149
-547.325	340.876	-0.133	-0.265
-546.310	291.205	-0.120	0.223
-545.296	-63.085	0.197	-0.083
-544.281	-200.000	0.016	0.185
-543.266	-109.178	0.245	-0.053
-542.252	214.340	0.059	-0.095
-541.237	27.409	0.091	0.078
-540.223	656.477	-0.128	0.335
-539.208	-53.270	0.208	0.097
-538.193	-200.000	-0.004	-0.145
-537.179	-105.108	-0.160	-0.037
-536.164	-146.713	0.343	0.030
-535.150	-3.704	-0.100	0.071
-534.135	-200.000	-0.015	-0.074
-533.121	-34.024	-0.317	-0.178
-532.106	40.057	0.153	-0.140
-531.091	22.398	0.219	-0.182
-530.077	-106.246	-0.123	-0.028
-529.062	-185.039	0.319	0.005
-528.048	541.990	-0.135	-0.329
-527.033	61.180	0.087	-0.088
-526.018	-200.000	-0.007	-0.394
-525.004	-200.000	0.044	0.260
-523.989	800.000	0.097	-0.357
-522.975	175.250	-0.047	-0.070
-521.960	29.736	0.166	0.145
-520.945	-185.382	-0.449	-0.007
-519.931	5.816	0.195	-0.148
-518.916	-43.209	-0.235	0.121
-517.902	800.000	-0.042	-0.160
-516.887	10.242	-0.229	-0.178
-515.872	-62.977	0.241	-0.102
-514.858	0.964	-0.107	0.078
-513.843	-54.870	0.364	0.168
-512.829	-200.000	-0.023	0.137
-511.814	55.216	-0.066	-0.065
-510.799	-34.740	0.134	-0.075
-509.785	-200.000	0.003	0.026
-508.770	-141.230	-0.227	0.024
-507.756	125.418	-0.049	0.064
-506.741	-120.200	-0.243	-0.042
-505.726	-200.000	0.033	0.385
-504.712	-143.683	-0.215	-0.021
-503.697	29.028	0.147	-0.127
-502.683	800.000	-0.032	0.119
-501.668	-73.694	-0.106	-0.039
-500.653	-200.000	0.068	0.494
-499.639	-200.000	0.015	-0.145
-498.624	-128.093	-0.123	-0.018
-497.610	290.412	0.050	0.092
-496.595	140.479	-0.215	-0.289
-495.581	3.562	0.345	-0.257
-494.566	160.642	-0.075	-0.106
-493.551	161.074	-0.177	0.252
-492.537	-185.954	-0.054	-0.001
-491.522	772.206	0.084	-0.232
-490.508	12.796	0.308	0.243
-489.493	117.963	-0.161	0.203
-488.478	107.281	-0.249	-0.302
-487.464	35.917	-0.068	0.061
-486.449	-200.000	-0.035	-0.225
-485.435	-74.838	0.374	0.137
-484.420	-108.822	-0.428	-0.093
-483.405	-19.997	0.152	-0.096
-482.391	96.498	-0.082	0.095
-481.376	-83.890	-0.256	-0.083
-480.362	-200.000	0.064	-0.334
-479.347	410.204	0.135	0.291
-478.332	4.116	-0.151	0.112
-477.318	-33.955	0.249	0.139
-476.303	17.010	0.262	0.212
-475.289	-200.000	-0.004	0.217
-474.274	-24.611	0.117	0.071
-473.259	-200.000	0.058	0.280
-472.245	-106.222	-0.422	-0.096
-471.230	191.372	-0.184	0.282
-470.216	416.354	0.102	0.221
-469.201	44.889	0.186	0.174
-468.186	-157.743	-0.246	-0.015
-467.172	-68.500	0.225	-0.089
-466.157	-200.000	0.061	-0.451
-465.143	-55.422	0.220	-0.101
-464.128	105.669	-0.376	0.453
-463.113	176.341	0.042	0.062
-462.099	23.387	-0.289	0.242
-461.084	-200.000	0.066	0.318
-460.070	239.735	0.186	0.315
-459.055	6.600	-0.108	0.082
-458.040	-79.720	0.027	-0.009
-457.026	-78.383	-0.041	-0.014
-456.011	764.473	-0.035	-0.096
-454.997	213.236	0.080	0.129
-453.982	-66.163	-0.427	0.173
-452.968	-200.000	0.044	-0.333
-451.953	20.991	0.213	-0.176
-450.938	-200.000	-0.046	0.398
-449.924	-133.065	0.300	-0.039
-448.909	-200.000	0.015	-0.142
-447.895	10.229	0.226	-0.175
-446.880	-35.278	0.071	0.039
-445.865	-162.484	-0.107	-0.005
-444.851	45.839	-0.298	0.280
-443.836	-98.286	0.239	0.062
-442.822	56.218	0.128	0.127
-441.807	-0.602	0.026	0.019
-440.792	-88.630	0.256	-0.077
-439.778	-26.760	0.090	0.054
-438.763	-34.531	0.269	-0.150
-437.749	-200.000	0.027	0.318
-436.734	-200.000	0.004	0.086
-435.719	-200.000	0.033	0.163
-434.705	55.044	0.173	0.170
-433.690	-33.152	-0.147	-0.083
-432.676	-117.132	0.170	0.031
-431.661	-41.511	-0.071	0.037
-430.646	-62.997	-0.097	0.041
-429.632	372.462	-0.098	-0.203
-428.617	-200.000	0.067	-0.352
-427.603	19.779	-0.250	-0.205
-426.588	216.797	0.056	-0.090
-425.573	-61.757	0.316	0.135
-424.559	-163.641	-0.125	-0.006
-423.544	424.305	-0.007	-0.015
-422.530	627.937	0.170	0.436
-421.515	318.225	0.087	0.168
-420.500	800.000	-0.098	0.288
-419.486	-144.181	-0.330	0.031
-418.471	35.827	-0.060	0.054
-417.457	-29.387	0.022	-0.013
-416.442	800.000	-0.034	-0.110
-415.428	-200.000	-0.001	0.274
-414.413	-200.000	0.002	0.077
-413.398	-116.913	0.242	0.045
-412.384	265.757	0.124	-0.220
-411.369	800.000	0.042	0.140
-410.355	112.207	0.154	0.189
-409.340	96.544	-0.178	0.208
-408.325	10.073	0.105	0.081
-407.311	357.516	0.071	0.143
-406.296	354.283	-0.033	0.066
-405.282	236.111	0.094	-0.158
-404.267	-102.552	-0.078	-0.019
-403.252	-200.000	0.001	-0.042
-402.238	-45.965	0.246	-0.124
-401.223	-200.000	-0.036	-0.219
-400.209	462.899	0.020	0.045
-399.194	-90.366	0.141	0.041
-398.179	296.597	-0.092	-0.170
-397.165	22.169	0.124	0.103
-396.150	656.478	-0.142	-0.370
-395.136	-35.177	-0.085	-0.047
-394.121	800.000	-0.112	0.317
-393.106	517.281	-0.094	0.223
-392.092	-153.558	0.189	-0.013
-391.077	-56.392	0.074	-0.034
-390.063	83.915	0.098	-0.109
-389.048	242.849	0.068	0.116
-388.033	52.458	0.140	0.136
-387.019	-200.000	-0.033	-0.358
-386.004	465.280	0.152	-0.345
-384.990	-17.116	-0.418	-0.268
-383.975	126.052	-0.101	0.130
-382.960	675.663	0.049	0.128
-381.946	234.072	-0.193	0.322
-380.931	-28.931	0.225	-0.131
-379.917	-200.000	-0.055	-0.322
-378.902	130.275	0.024	0.032
-377.888	-141.118	-0.259	0.027
-376.873	-200.000	-0.018	0.188
-375.858	-141.975	-0.102	0.010
-374.844	800.000	0.078	-0.304
-373.829	800.000	0.051	0.153
-372.815	800.000	-0.069	0.269
-371.800	-88.938	-0.126	0.038
-370.785	-200.000	-0.027	-0.170
-369.771	15.352	0.051	-0.041
-368.756	800.000	0.135	-0.428
-367.742	800.000	0.026	-0.088
-366.727	-20.178	0.202	-0.126
-365.712	99.253	-0.169	0.198
-364.698	-200.000	0.016	0.158
-363.683	-141.570	-0.041	-0.004
-362.669	31.125	-0.110	-0.096
-361.654	260.565	0.067	0.118
-360.639	-75.847	0.349	-0.125
-359.625	-92.135	-0.084	0.024
-358.610	800.000	-0.027	0.114
-357.596	761.698	0.051	-0.140
-356.581	733.849	0.096	0.260
-355.566	-7.006	0.040	-0.028
-354.552	-200.000	0.003	0.181
-353.537	580.639	0.053	-0.133
-352.523	-157.104	0.030	-0.002
-351.508	51.666	-0.245	-0.236
-350.493	-57.814	0.251	-0.111
-349.479	800.000	0.060	0.170
-348.464	-200.000	-0.232	-0.001
-347.450	650.589	0.103	0.268
-346.435	280.272	0.081	-0.147
-345.420	-200.000	-0.080	-0.380
-344.406	-15.883	0.035	-0.023
-343.391	398.576	0.060	0.128
-342.377	661.210	-0.078	-0.205
-341.362	95.281	-0.197	0.227
-340.348	-143.901	-0.285	-0.027
-339.333	-200.000	0.021	-0.131
-338.318	146.348	-0.220	0.299
-337.304	800.000	-0.046	-0.152
-336.289	-200.000	-0.025	-0.190
-335.275	16.190	-0.172	-0.137
-334.260	-30.532	-0.179	-0.103
-333.245	420.844	-0.075	-0.164
-332.231	225.914	-0.139	-0.228
-331.216	61.686	0.227	-0.229
-330.202	56.767	-0.069	-0.068
-329.187	-124.880	0.332	-0.052
-328.172	69.919	-0.229	-0.240
-327.158	-200.000	-0.014	0.146
-326.143	-81.786	0.098	0.033
-325.129	-95.873	0.212	-0.057
-324.114	-26.459	-0.171	0.101
-323.099	11.524	0.115	-0.089
-322.085	800.000	-0.079	-0.318
-321.070	42.776	0.291	-0.268
-320.056	-72.300	-0.108	0.041
-319.041	-200.000	-0.041	-0.337
-318.026	58.617	-0.139	-0.138
-317.012	-19.589	-0.169	0.106
-315.997	800.000	-0.119	0.409
-314.983	-200.000	0.031	-0.151
-313.968	333.174	-0.132	-0.257
-312.953	800.000	-0.050	0.157
-311.939	-83.606	0.212	0.069
-310.924	-200.000	-0.059	-0.464
-309.910	173.296	-0.133	-0.194
-308.895	414.135	-0.082	0.176
-307.880	800.000	0.052	-0.184
-306.866	66.866	0.140	0.144
-305.851	-200.000	-0.034	0.250
-304.837	120.551	-0.136	0.171
-303.822	-120.707	0.273	0.047
-302.807	-47.716	-0.256	0.126
-301.793	-200.000	-0.006	-0.029
-300.778	800.000	0.070	-0.290
-299.764	-122.284	0.154	-0.025
-298.749	2.431	-0.174	-0.127
-297.735	155.391	0.182	-0.254
-296.720	800.000	0.075	0.225
-295.705	800.000	-0.094	0.294
-294.691	213.725	0.129	0.207
-293.676	-135.878	-0.127	-0.015
-292.662	-200.000	0.007	0.221
-291.647	-200.000	-0.041	0.286
-290.632	-35.925	-0.090	-0.049
-289.618	-61.194	0.263	0.112
-288.603	15.306	-0.065	-0.051
-287.589	-158.477	0.158	0.009
-286.574	-168.123	0.247	-0.010
-285.559	800.000	-0.092	-0.266
-284.545	338.187	0.131	-0.258
-283.530	800.000	-0.040	-0.121
-282.516	216.729	-0.063	-0.101
-281.501	-200.000	0.319	-0.001
-280.486	136.609	0.337	0.445
-279.472	424.241	0.045	0.098
-278.457	-200.000	-0.016	0.081
-277.443	800.000	0.052	0.178
-276.428	173.200	0.137	0.199
-275.413	800.000	-0.029	0.081
-274.399	318.809	0.029	-0.055
-273.384	-200.000	0.012	-0.296
-272.370	-18.448	0.179	-0.113
-271.355	215.326	0.076	0.122
-270.340	-137.981	0.135	-0.015
-269.326	-200.000	0.060	0.598
-268.311	-200.000	-0.047	0.368
-267.297	-160.504	-0.149	0.008
-266.282	96.872	-0.108	-0.125
-265.267	205.829	0.105	0.165
-264.253	-141.804	-0.261	0.026
-263.238	211.638	0.037	0.059
-262.224	-200.000	0.010	0.103
-261.209	182.893	0.084	-0.125
-260.195	800.000	0.049	-0.157
-259.180	800.000	0.071	-0.253
-258.165	-200.000	-0.011	0.152
-257.151	-61.718	-0.236	-0.100
-256.136	100.927	-0.075	-0.088
-255.122	203.654	-0.081	0.127
-254.107	-200.000	-0.040	-0.396
-253.092	266.123	0.075	-0.132
-252.078	75.188	-0.139	-0.148
-251.063	-110.233	-0.254	-0.053
-250.049	-200.000	0.039	0.268
-249.034	-20.684	0.253	0.157
-248.019	38.939	0.180	-0.163
-247.005	-4.487	-0.087	-0.061
-245.990	321.967	0.143	0.276
-244.976	458.068	0.113	-0.253
-243.961	-37.468	0.291	-0.157
-242.946	800.000	-0.106	0.366
-241.932	407.741	0.121	-0.258
-240.917	-200.000	-0.000	0.085
-239.903	-200.000	-0.041	0.194
-238.888	-200.000	-0.023	-0.105
-237.873	-35.144	-0.097	-0.054
-236.859	-163.258	-0.240	0.012
-235.844	-88.206	-0.160	0.048
-234.830	-52.011	0.034	0.016
-233.815	800.000	0.097	-0.367
-232.800	-155.111	0.091	0.006
-231.786	-28.933	0.128	0.074
-230.771	-137.785	-0.137	0.015
-229.757	-97.677	-0.331	-0.087
-228.742	-167.946	0.317	-0.013
-227.727	-200.000	0.021	-0.095
-226.713	-200.000	-0.001	0.104
-225.698	262.929	-0.063	0.110
-224.684	6.283	0.247	0.185
-223.669	800.000	-0.017	0.052
-222.655	-80.908	0.129	-0.043
-221.640	-102.269	-0.150	-0.036
-220.625	-200.000	0.007	0.285
-219.611	-200.000	-0.012	0.081
-218.596	216.633	0.060	0.096
-217.582	-145.449	0.305	-0.028
-216.567	316.057	-0.100	-0.191
-215.552	-61.687	-0.054	-0.023
-214.538	797.292	0.050	-0.139
-213.523	43.494	-0.143	0.132
-212.509	-53.420	-0.147	-0.068
-211.494	1.319	-0.190	-0.138
-210.479	-156.949	0.325	0.020
-209.465	74.191	0.013	0.013
-208.450	-89.980	0.136	-0.040
-207.436	-11.151	0.151	0.101
-206.421	292.535	0.054	-0.099
-205.406	-63.253	-0.154	-0.064
-204.392	-200.000	-0.030	-0.175
-203.377	3.951	-0.177	0.130
-202.363	-200.000	-0.005	-0.033
-201.348	82.372	-0.185	-0.202
-200.333	171.797	-0.117	0.170
-199.319	27.845	-0.093	0.079
-198.304	171.590	-0.076	0.110
-197.290	137.409	0.100	0.132
-196.275	800.000	-0.100	0.315
-195.260	560.828	0.120	0.293
-194.246	800.000	0.020	-0.077
-193.231	-200.000	0.025	-0.546
-192.217	596.974	-0.099	-0.248
-191.202	-68.703	-0.604	0.235
-190.187	-175.545	0.317	-0.009
-189.173	-114.663	0.320	0.062
-188.158	-11.295	-0.049	0.032
-187.144	-200.000	0.011	-0.128
-186.129	-200.000	-0.006	0.061
-185.114	94.728	0.098	-0.112
-184.100	-180.519	-0.182	0.004
-183.085	-70.247	0.564	-0.216
-182.071	96.699	0.149	0.172
-181.056	-114.518	0.276	-0.053
-180.042	-200.000	-0.067	-0.315
-179.027	-139.514	-0.327	0.035
-178.012	800.000	-0.050	0.174
-176.998	-55.994	-0.093	0.042
-175.983	180.554	-0.150	-0.222
-174.969	800.000	0.060	0.219
-173.954	-200.000	0.095	-0.492
-172.939	510.389	-0.184	-0.431
-171.925	33.184	-0.238	-0.208
-170.910	296.799	-0.079	-0.146
-169.896	97.764	0.051	0.059
-168.881	-200.000	-0.003	-0.158
-167.866	262.234	0.108	-0.188
-166.852	141.123	-0.122	-0.163
-165.837	100.784	0.155	0.182
-164.823	16.698	0.082	-0.065
-163.808	711.215	0.230	-0.613
-162.793	-200.000	0.003	0.160
-161.779	-44.272	0.160	0.081
-160.764	217.956	-0.061	-0.097
-159.750	-200.000	-0.079	0.446
-158.735	-137.298	-0.514	-0.059
-157.720	25.249	0.243	0.203
-156.706	-78.054	-0.068	-0.024
-155.691	-61.822	0.248	0.104
-154.677	-29.162	-0.083	0.048
-153.662	-117.876	0.239	0.043
-152.647	105.711	-0.345	-0.411
-151.633	-156.107	-0.428	-0.027
-150.618	-40.653	-0.230	0.120
-149.604	-83.205	0.078	-0.025
-148.589	285.723	-0.131	-0.238
-147.574	564.355	0.174	-0.424
-146.560	-200.000	0.058	-0.272
-145.545	167.946	-0.141	-0.202
-144.531	800.000	0.050	-0.187
-143.516	62.187	-0.246	0.247
-142.502	-200.000	0.026	-0.473
-141.487	800.000	-0.045	-0.164
-140.472	-64.852	0.421	-0.171
-139.458	5.577	0.035	-0.026
-138.443	-150.686	-0.022	-0.002
-137.429	263.246	0.094	-0.164
-136.414	235.825	-0.071	0.118
-135.399	37.405	0.148	0.132
-134.385	21.117	-0.093	-0.076
-133.370	800.000	0.129	0.399
-132.356	31.119	0.098	0.085
-131.341	-46.644	0.183	-0.090
-130.326	-200.000	-0.109	-0.001
-129.312	142.606	0.092	0.124
-128.297	448.442	-0.094	0.209
-127.283	282.212	-0.046	0.084
-126.268	-160.835	0.253	-0.013
-125.253	-46.807	0.199	-0.098
-124.239	-200.000	-0.077	-0.447
-123.224	2.354	-0.128	-0.093
-122.210	191.998	0.075	0.114
-121.195	51.566	-0.299	-0.285
-120.180	-200.000	-0.003	-0.024
-119.166	-200.000	-0.009	-0.174
-118.151	800.000	0.083	-0.267
-117.137	76.705	-0.139	0.148
-116.122	-110.500	-0.468	-0.098
-115.107	281.252	-0.033	-0.060
-114.093	620.388	-0.103	-0.259
-113.078	293.176	-0.058	0.107
-112.064	563.709	-0.133	-0.324
-111.049	800.000	0.064	-0.240
-110.034	-98.294	-0.283	-0.073
-109.020	-200.000	-0.013	0.419
-108.005	800.000	0.080	-0.297
-106.991	44.252	-0.271	-0.250
-105.976	-155.933	0.282	-0.018
-104.962	118.517	0.111	-0.137
-103.947	-200.000	0.007	0.100
-102.932	-30.380	0.342	0.195
-101.918	800.000	-0.038	-0.107
-100.903	-200.000	0.018	-0.212
-99.889	-200.000	0.061	0.283
-98.874	51.096	0.151	-0.144
-97.859	595.975	0.022	0.055
-96.845	-200.000	0.037	-0.420
-95.830	54.000	0.165	-0.159
-94.816	492.559	0.106	0.245
-93.801	224.828	-0.010	-0.017
-92.786	-73.537	-0.376	0.138
-91.772	-21.778	0.059	0.036
-90.757	800.000	0.075	0.287
-89.743	-200.000	-0.057	0.292
-88.728	-7.003	-0.351	-0.240
-87.713	5.569	0.114	0.085
-86.699	60.412	-0.297	0.295
-85.684	-170.645	-0.053	0.002
-84.670	40.121	0.128	-0.116
-83.655	-51.862	0.172	0.080
-82.640	800.000	0.060	-0.172
-81.626	-11.048	0.338	0.224
-80.611	-76.670	-0.318	0.112
-79.597	-90.437	-0.038	-0.011
-78.582	-19.753	0.197	-0.122
-77.567	-55.997	-0.534	-0.239
-76.553	394.969	-0.066	0.139
-75.538	115.185	0.155	0.190
-74.524	-26.876	0.227	0.133
-73.509	268.697	0.240	0.422
-72.494	800.000	-0.016	0.048
-71.480	-65.981	0.261	0.104
-70.465	-58.360	-0.133	0.058
-69.451	50.434	-0.084	0.079
-68.436	-98.225	0.160	-0.041
-67.422	-89.889	0.196	0.058
-66.407	-200.000	0.036	-0.170
-65.392	62.695	0.123	-0.124
-64.378	-35.475	-0.175	0.095
-63.363	517.357	0.130	0.306
-62.349	-200.000	-0.012	-0.053
-61.334	-60.522	-0.926	-0.394
-60.319	-200.000	0.038	0.340
-59.305	800.000	-0.213	-0.649
-58.290	-200.000	0.090	0.661
-57.276	355.388	0.784	1.564
-56.261	-200.000	75.174	544.000
-55.246	571.590	1299.711	3172.383
-54.232	144.318	2529.173	3383.723
-53.217	111.637	2370.752	2867.082
-52.203	50.252	2108.945	1996.629
-51.188	45.036	2017.043	1862.113
-50.173	43.174	1997.729	1827.351
-49.159	55.195	2035.194	1971.597
-48.144	60.483	2055.366	2039.321
-47.130	45.744	2019.977	1870.986
-46.115	42.850	2009.518	1834.897
-45.100	42.778	2006.520	1831.423
-44.086	42.762	2004.259	1829.146
-43.071	42.773	2002.025	1827.138
-42.057	42.671	2000.238	1824.503
-41.042	42.726	1997.525	1822.460
-40.027	42.756	1995.723	1821.014
-39.013	42.754	1994.436	1819.751
-37.998	42.734	1992.164	1817.420
-36.984	42.808	1990.168	1816.195
-35.969	42.775	1988.462	1814.274
-34.954	42.852	1986.690	1813.271
-33.940	42.893	1985.058	1812.079
-32.925	42.924	1983.281	1810.666
-31.911	42.919	1981.439	1808.867
-30.896	42.887	1979.838	1807.046
-29.881	42.827	1978.831	1805.519
-28.867	42.918	1976.789	1804.400
-27.852	42.941	1974.711	1802.640
-26.838	43.001	1972.396	1800.991
-25.823	42.920	1971.118	1799.030
-24.809	42.977	1968.734	1797.285
-23.794	42.998	1967.386	1796.175
-22.779	42.914	1965.847	1793.952
-21.765	42.902	1964.546	1792.587
-20.750	42.882	1962.860	1790.791
-19.736	42.893	1961.549	1789.630
-18.721	42.947	1959.834	1788.469
-17.706	42.917	1957.909	1786.377
-16.692	42.847	1956.529	1784.427
-15.677	42.878	1954.922	1783.163
-14.663	42.846	1953.218	1781.254
-13.648	42.950	1952.045	1781.038
-12.633	42.837	1950.718	1778.751
-11.619	42.856	1949.430	1777.680
-10.604	42.814	1948.339	1776.238
-9.590	42.865	1946.752	1775.177
-8.575	42.825	1945.379	1773.500
-7.560	42.859	1944.114	1772.578
-6.546	42.937	1942.406	1771.638
-5.531	42.920	1941.046	1770.175
-4.517	42.881	1939.612	1768.457
-3.502	42.886	1938.994	1767.863
-2.487	42.900	1937.329	1766.399
-1.473	42.827	1936.651	1765.067
-0.458	42.947	1933.210	1762.915
0.556	41.972	1913.677	1737.505
1.571	37.969	1893.772	1684.799
2.586	33.813	1914.830	1666.995
3.600	32.496	1952.791	1688.096
4.615	31.629	1949.521	1677.354
5.629	23.794	1842.547	1518.521
6.644	9.409	1708.202	1292.871
7.659	1.711	1661.513	1197.075
8.673	1.120	1657.010	1189.083
9.688	0.954	1656.001	1186.956
10.702	0.977	1654.517	1185.968
11.717	0.830	1651.369	1182.456
12.731	1.280	1651.507	1185.972
13.746	9.441	1672.415	1265.252
14.761	21.050	1697.618	1376.340
15.775	24.939	1703.466	1411.682
16.790	24.712	1702.229	1408.747
17.804	24.756	1701.394	1408.281
18.819	24.761	1700.302	1407.289
19.834	24.772	1700.294	1407.244
20.848	25.081	1699.319	1408.743
21.863	25.066	1698.274	1407.629
22.877	24.989	1697.374	1406.154
23.892	25.084	1696.196	1405.801
24.907	25.057	1695.461	1404.860
25.921	25.050	1694.538	1403.912
26.936	25.097	1693.394	1403.213
27.950	25.084	1692.241	1402.025
28.965	25.099	1691.895	1401.733
29.980	25.074	1690.955	1400.638
30.994	25.065	1689.447	1399.197
32.009	25.009	1688.646	1397.970
33.023	25.040	1687.652	1397.262
34.038	25.092	1686.291	1396.419
35.053	25.045	1685.666	1395.408
36.067	25.015	1684.444	1394.040
37.082	25.016	1684.010	1393.566
38.096	25.120	1682.284	1392.825
39.111	25.109	1681.320	1391.817
40.126	25.092	1680.909	1391.223
41.140	25.093	1679.855	1390.234
42.155	25.056	1678.608	1388.792
43.169	25.056	1677.661	1387.887
44.184	25.147	1676.547	1387.550
45.199	25.105	1675.512	1386.242
46.213	25.044	1674.470	1384.789
47.228	25.019	1673.286	1383.491
48.242	25.105	1671.940	1382.922
49.257	25.104	1670.674	1381.744
50.271	25.024	1670.142	1380.561
51.286	25.055	1668.789	1379.561
52.301	25.055	1667.687	1378.527
53.315	25.039	1666.107	1376.975
54.330	25.064	1664.842	1376.005
55.344	25.006	1663.880	1374.641
56.359	25.103	1661.862	1373.595
57.374	25.122	1660.980	1372.894
58.388	25.174	1659.496	1371.938
59.403	25.063	1659.057	1370.609
60.417	25.083	1657.927	1369.706
61.432	25.106	1656.597	1368.660
62.447	25.093	1655.592	1367.607
63.461	25.008	1654.765	1366.155
64.476	25.064	1654.214	1366.012
65.490	25.106	1652.997	1365.199
66.505	25.075	1651.853	1363.902
67.520	25.084	1650.974	1363.126
68.534	25.180	1649.579	1362.583
69.549	25.151	1648.928	1361.704
70.563	25.086	1647.514	1359.923
71.578	25.157	1646.503	1359.507
72.593	25.129	1645.746	1358.546
73.607	25.179	1644.783	1358.012
74.622	25.133	1643.890	1356.800
75.636	25.115	1643.265	1356.029
76.651	25.134	1642.215	1355.189
77.666	25.156	1641.500	1354.643
78.680	25.135	1640.409	1353.465
79.695	25.099	1639.510	1352.332
80.709	25.149	1638.764	1351.974
81.724	25.168	1637.403	1350.878
82.739	25.204	1636.642	1350.401
83.753	25.106	1635.689	1348.757
84.768	25.125	1634.935	1348.156
85.782	25.100	1634.199	1347.245
86.797	25.208	1632.718	1346.716
87.812	25.110	1632.267	1345.492
88.826	25.224	1630.782	1345.000
89.841	25.169	1630.315	1344.082
90.855	25.158	1629.407	1343.134
91.870	25.135	1628.179	1341.833
92.884	25.179	1627.197	1341.231
93.899	25.149	1626.625	1340.417
94.914	25.132	1625.309	1339.090
95.928	25.198	1623.979	1338.363
96.943	25.201	1622.278	1336.867
97.957	25.137	1621.445	1335.590
98.972	25.130	1620.298	1334.469
99.987	25.186	1618.937	1333.646
101.001	25.199	1617.365	1332.331
102.016	25.109	1616.272	1330.649
103.030	25.103	1614.615	1329.120
104.045	25.158	1613.860	1328.785
105.060	25.166	1612.373	1327.502
106.074	25.198	1610.870	1326.390
107.089	25.150	1609.919	1325.135
108.103	25.185	1609.073	1324.579
109.118	25.242	1607.836	1323.860
110.133	25.234	1606.833	1322.859
111.147	25.181	1605.437	1321.205
112.162	25.187	1604.460	1320.330
113.176	25.244	1602.954	1319.385
114.191	25.203	1601.906	1318.107
115.206	25.202	1601.028	1317.265
116.220	25.189	1599.612	1315.883
117.235	25.210	1598.470	1314.982
118.249	25.197	1597.450	1313.935
119.264	25.246	1596.136	1313.092
120.279	25.195	1595.016	1311.683
121.293	25.232	1593.646	1310.710
122.308	25.220	1592.958	1309.945
123.322	25.268	1591.267	1308.787
124.337	25.351	1590.030	1308.257
125.352	25.271	1589.565	1307.177
126.366	25.340	1588.376	1306.586
127.381	25.238	1587.914	1305.347
128.395	25.273	1587.152	1304.862
129.410	25.338	1585.601	1303.942
130.424	25.345	1584.360	1302.854
131.439	25.351	1583.398	1301.991
132.454	25.296	1581.989	1300.320
133.468	25.301	1580.842	1299.300
134.483	25.281	1579.357	1297.822
135.497	25.328	1578.698	1297.500
136.512	25.274	1577.118	1295.701
137.527	25.290	1576.113	1294.876
138.541	25.334	1575.272	1294.389
139.556	25.403	1573.677	1293.461
140.570	25.380	1572.726	1292.396
141.585	25.307	1571.385	1290.659
142.600	25.373	1570.208	1290.046
143.614	25.333	1569.601	1289.148
144.629	25.313	1568.264	1287.791
145.643	25.374	1566.968	1287.052
146.658	25.304	1565.129	1284.929
147.673	25.262	1563.994	1283.583
148.687	25.308	1562.983	1282.967
149.702	25.208	1562.885	1282.054
150.716	25.258	1560.713	1280.523
151.731	25.246	1559.968	1279.712
152.746	25.360	1558.823	1279.470
153.760	25.221	1557.772	1277.501
154.775	25.301	1556.844	1277.200
155.789	25.310	1555.777	1276.272
156.804	25.298	1554.497	1275.023
157.819	25.279	1553.551	1274.001
158.833	25.244	1552.386	1272.687
159.848	25.333	1551.380	1272.376
160.862	25.371	1550.551	1271.857
161.877	25.308	1549.592	1270.511
162.892	25.259	1548.825	1269.422
163.906	25.382	1547.491	1269.087
164.921	25.378	1546.751	1268.341
165.935	25.314	1545.650	1266.870
166.950	25.370	1544.226	1265.989
167.964	25.459	1543.126	1265.604
168.979	25.338	1542.747	1264.323
169.994	25.326	1541.834	1263.384
171.008	25.358	1540.846	1262.683
172.023	25.429	1540.292	1262.622
173.037	25.439	1538.885	1261.425
174.052	25.427	1537.699	1260.258
175.067	25.360	1537.183	1259.250
176.081	25.405	1536.634	1259.007
177.096	25.391	1535.361	1257.755
178.110	25.398	1533.891	1256.483
179.125	25.487	1532.902	1256.184
180.140	25.421	1532.237	1255.067
181.154	25.532	1530.957	1254.685
182.169	25.498	1530.492	1253.955
183.183	25.363	1529.615	1252.186
184.198	25.457	1528.594	1251.892
185.213	25.488	1527.722	1251.286
186.227	25.499	1526.957	1250.624
187.242	25.508	1526.172	1249.935
188.256	25.530	1525.158	1249.148
189.271	25.516	1524.041	1248.024
190.286	25.469	1523.187	1246.884
191.300	25.426	1523.048	1246.362
192.315	25.505	1521.790	1245.769
193.329	25.509	1520.872	1244.938
194.344	25.523	1519.721	1243.980
195.359	25.543	1519.315	1243.679
196.373	25.544	1518.256	1242.707
197.388	25.504	1517.612	1241.797
198.402	25.391	1516.849	1240.282
199.417	25.474	1515.514	1239.649
200.432	25.513	1514.386	1238.890
201.446	25.492	1514.075	1238.377
202.461	25.402	1513.413	1237.107
203.475	25.458	1512.326	1236.493
204.490	25.421	1511.646	1235.578
205.504	25.522	1510.446	1235.178
206.519	25.555	1509.462	1234.489
207.534	25.584	1508.864	1234.091
208.548	25.616	1507.942	1233.450
209.563	25.520	1506.886	1231.816
210.577	25.495	1506.629	1231.329
211.592	25.610	1505.598	1231.165
212.607	25.587	1504.863	1230.297
213.621	25.564	1503.930	1229.270
214.636	25.637	1503.335	1229.168
215.650	25.586	1502.708	1228.199
216.665	25.700	1501.941	1228.244
217.680	25.635	1500.622	1226.615
218.694	25.586	1499.969	1225.638
219.709	25.673	1499.185	1225.484
220.723	25.700	1498.264	1224.805
221.738	25.684	1497.623	1224.064
222.753	25.661	1496.650	1223.001
223.767	25.566	1496.024	1221.736
224.782	25.646	1494.703	1221.091
225.796	25.562	1494.422	1220.185
226.811	25.602	1493.484	1219.583
227.826	25.745	1492.363	1219.528
228.840	25.775	1491.941	1219.281
229.855	25.654	1491.494	1217.987
230.869	25.623	1490.565	1216.910
231.884	25.667	1489.408	1216.154
232.899	25.759	1488.106	1215.606
233.913	25.685	1487.316	1214.351
234.928	25.702	1486.073	1213.344
235.942	25.705	1484.851	1212.260
236.957	25.793	1484.106	1212.136
237.972	25.812	1482.894	1211.170
238.986	25.853	1481.993	1210.600
240.001	25.761	1480.825	1208.922
241.015	25.723	1480.141	1208.002
242.030	25.865	1479.090	1207.986
243.045	25.838	1478.580	1207.283
244.059	25.916	1477.368	1206.709
245.074	25.963	1476.580	1206.272
246.088	25.869	1476.188	1205.220
247.103	25.924	1475.322	1204.775
248.117	25.926	1474.551	1204.049
249.132	25.864	1473.560	1202.721
250.147	25.957	1472.758	1202.579
251.161	25.899	1472.385	1201.784
252.176	26.024	1471.767	1202.005
253.190	26.074	1470.183	1200.938
254.205	25.988	1470.072	1200.165
255.220	25.928	1469.628	1199.302
256.234	25.984	1468.373	1198.544
257.249	26.028	1467.494	1198.010
258.263	25.922	1467.027	1196.818
259.278	25.977	1465.978	1196.222
260.293	25.967	1464.962	1195.219
261.307	26.077	1464.679	1195.610
262.322	26.152	1463.644	1195.158
263.336	25.999	1463.630	1194.032
264.351	25.967	1462.604	1192.875
265.366	26.045	1461.572	1192.442
266.380	26.030	1460.057	1191.004
267.395	26.001	1459.568	1190.305
268.409	26.090	1458.843	1190.198
269.424	26.000	1457.950	1188.772
270.439	26.069	1457.127	1188.445
271.453	26.103	1456.412	1187.983
272.468	26.075	1455.569	1187.006
273.482	25.967	1455.038	1185.758
274.497	26.146	1453.384	1185.480
275.512	26.164	1452.923	1185.119
276.526	26.189	1452.029	1184.447
277.541	26.153	1451.507	1183.679
278.555	26.087	1450.788	1182.560
279.570	26.124	1450.293	1182.295
280.585	26.235	1448.903	1181.779
281.599	26.164	1448.384	1180.787
282.614	26.138	1447.249	1179.587
283.628	26.122	1446.407	1178.695
284.643	26.153	1445.456	1178.019
285.657	26.193	1444.796	1177.636
286.672	26.243	1443.765	1177.015
287.687	26.195	1442.494	1175.563
288.701	26.179	1441.808	1174.796
289.716	26.188	1441.304	1174.339
290.730	26.288	1440.658	1174.362
291.745	26.324	1439.473	1173.525
292.760	26.300	1438.501	1172.472
293.774	26.239	1437.888	1171.470
294.789	26.257	1437.302	1171.010
295.803	26.292	1436.506	1170.487
296.818	26.311	1435.869	1169.982
297.833	26.329	1434.635	1168.989
298.847	26.285	1433.759	1167.889
299.862	26.332	1432.787	1167.299
300.876	26.312	1432.265	1166.640
301.891	26.333	1431.297	1165.884
302.906	26.336	1430.721	1165.334
303.920	26.373	1430.780	1165.515
304.935	26.399	1429.621	1164.636
305.949	26.394	1428.769	1163.808
306.964	26.372	1428.207	1163.106
307.979	26.454	1427.087	1162.613
308.993	26.570	1425.640	1162.081
310.008	26.551	1424.950	1161.291
311.022	26.406	1424.615	1159.986
312.037	26.540	1423.020	1159.440
313.052	26.526	1422.812	1159.081
314.066	26.422	1421.589	1157.316
315.081	26.366	1421.050	1156.417
316.095	26.551	1419.741	1156.431
317.110	26.584	1418.483	1155.514
318.125	26.605	1417.822	1155.010
319.139	26.505	1417.417	1153.940
320.154	26.562	1416.071	1153.102
321.168	26.574	1415.215	1152.383
322.183	26.571	1414.567	1151.732
323.197	26.604	1413.556	1151.019
324.212	26.544	1412.973	1150.059
325.227	26.546	1412.170	1149.317
326.241	26.563	1411.507	1148.787
327.256	26.627	1410.795	1148.506
328.270	26.649	1409.853	1147.778
329.285	26.641	1409.311	1147.183
330.300	26.660	1408.137	1146.246
331.314	26.540	1407.938	1145.227
332.329	26.685	1406.771	1145.092
333.343	26.737	1405.511	1144.291
334.358	26.702	1405.428	1143.905
335.373	26.716	1404.572	1143.195
336.387	26.811	1403.728	1143.005
337.402	26.757	1403.218	1142.147
338.416	26.842	1402.512	1142.005
339.431	26.814	1402.132	1141.420
340.446	26.810	1401.629	1140.883
341.460	26.865	1399.972	1139.784
342.475	26.846	1398.852	1138.648
343.489	26.809	1398.490	1138.024
344.504	26.814	1397.743	1137.342
345.519	26.925	1396.534	1136.958
346.533	26.873	1395.610	1135.777
347.548	26.899	1394.854	1135.226
348.562	26.924	1394.186	1134.736
349.577	26.889	1393.703	1134.024
350.592	26.928	1392.954	1133.556
351.606	26.763	1392.244	1131.848
352.621	26.851	1390.879	1131.192
353.635	26.818	1390.042	1130.202
354.650	26.903	1389.204	1129.948
355.665	26.931	1388.352	1129.332
356.679	27.015	1387.098	1128.736
357.694	27.043	1386.162	1128.047
358.708	27.054	1385.080	1127.132
359.723	26.980	1384.479	1126.086
360.738	26.934	1382.985	1124.485
361.752	27.009	1382.108	1124.140
362.767	26.971	1381.421	1123.245
363.781	26.948	1380.471	1122.234
364.796	26.954	1379.713	1121.553
365.810	27.004	1378.993	1121.177
366.825	27.027	1378.397	1120.737
367.840	27.131	1377.065	1120.193
368.854	27.165	1376.373	1119.738
369.869	27.078	1376.218	1118.982
370.883	27.160	1375.435	1118.748
371.898	27.080	1375.016	1117.819
372.913	27.102	1374.481	1117.416
373.927	27.161	1373.135	1116.588
374.942	27.065	1372.628	1115.484
375.956	27.135	1372.008	1115.315
376.971	27.186	1371.149	1114.829
377.986	27.143	1370.223	1113.714
379.000	27.183	1369.559	1113.323
380.015	27.116	1369.071	1112.415
381.029	27.223	1368.110	1112.189
382.044	27.228	1367.550	1111.667
383.059	27.203	1366.930	1110.910
384.073	27.253	1365.903	1110.285
385.088	27.351	1365.721	1110.639
386.102	27.362	1364.960	1109.989
387.117	27.321	1363.982	1108.846
388.132	27.273	1364.060	1108.515
389.146	27.254	1363.056	1107.485
390.161	27.295	1362.236	1106.970
391.175	27.339	1361.771	1106.765
392.190	27.299	1361.156	1105.923
393.205	27.399	1360.044	1105.528
394.219	27.376	1359.382	1104.756
395.234	27.429	1358.092	1103.929
396.248	27.363	1357.351	1102.829
397.263	27.445	1356.327	1102.398
398.278	27.404	1355.606	1101.468
399.292	27.504	1354.270	1100.888
400.307	27.425	1353.608	1099.772
401.321	27.450	1352.573	1098.987
402.336	27.591	1351.543	1098.900
403.350	27.450	1350.634	1097.217
404.365	27.448	1349.702	1096.352
405.380	27.476	1348.735	1095.637
406.394	27.529	1347.839	1095.129
407.409	27.513	1347.743	1094.858
408.423	27.531	1347.206	1094.431
409.438	27.654	1346.230	1094.284
410.453	27.628	1345.438	1093.383
411.467	27.631	1344.367	1092.437
412.482	27.610	1343.955	1091.880
413.496	27.528	1343.844	1091.203
414.511	27.632	1342.544	1090.673
415.526	27.712	1341.332	1090.071
416.540	27.608	1340.773	1088.896
417.555	27.662	1340.293	1088.735
418.569	27.640	1339.870	1088.158
419.584	27.728	1339.587	1088.358
420.599	27.659	1339.341	1087.653
421.613	74.151	1318.944	1335.643
422.628	74.747	1315.949	1335.761
