DTS Sentinel unit serial number:	SN413079Multiplexer serial number:	ORYXHardware model number:	OX4-SRSoftware version number:	ORYX F/W v4.00 Oryx Data Collector v3.7.2.0data status	okinstallation	princeton_trtdifferential loss correction	single-endedforward channel	channel 4reverse channel	N/Adate	2019/09/11time	16:27:11forward acquisition time	60.00reverse acquisition time	0.00gamma	496.2192k internal	0.2275k external	0.2275temperature offset calibration	1.0021default loss term (dB/km)	0.3790temperature slope calibration	1.0000multiplexer offset coefficient	1.0000multiplexer slope coefficient	1.0000fibre end	0.00T internal ref (°C)	43.56T ext. ref 1 (°C)	1.07T ext. ref 2 (°C)	39.11length (m)	temperature (°C)	Stokes	anti-Stokes-747.200	800.000	0.051	0.155
-746.185	492.094	0.111	0.262
-745.171	-200.000	-0.028	0.187
-744.156	-3.203	-0.166	-0.120
-743.142	-96.942	-0.133	-0.036
-742.127	-27.985	0.058	0.034
-741.112	67.163	-0.094	-0.099
-740.098	393.385	0.155	0.332
-739.083	-48.475	0.136	-0.067
-738.069	-200.000	-0.055	0.291
-737.054	681.113	0.098	0.264
-736.039	-200.000	0.024	0.183
-735.025	-12.890	-0.067	0.045
-734.010	250.465	-0.096	0.168
-732.996	-64.724	-0.117	-0.049
-731.981	-42.266	-0.162	0.085
-730.966	-43.020	0.115	-0.060
-729.952	-200.000	0.004	0.365
-728.937	522.577	0.064	-0.154
-727.923	113.491	0.079	0.099
-726.908	12.726	0.347	0.276
-725.894	-13.094	-0.255	-0.171
-724.879	800.000	-0.028	0.093
-723.864	-200.000	-0.002	-0.024
-722.850	52.895	0.265	0.261
-721.835	-84.702	-0.252	0.082
-720.821	-56.570	0.092	-0.042
-719.806	800.000	0.018	0.065
-718.791	-200.000	-0.004	0.244
-717.777	-30.644	0.346	0.202
-716.762	-200.000	0.030	0.187
-715.748	-200.000	0.025	-0.162
-714.733	-141.380	0.148	0.015
-713.718	8.719	0.089	0.069
-712.704	-27.029	0.058	-0.035
-711.689	-45.217	-0.115	0.059
-710.675	-35.754	0.151	0.084
-709.660	-13.901	0.192	-0.127
-708.645	-112.890	-0.178	-0.036
-707.631	-48.376	-0.133	0.066
-706.616	1.899	0.333	-0.248
-705.602	275.618	-0.186	-0.339
-704.587	800.000	0.033	-0.129
-703.572	800.000	0.041	-0.119
-702.558	-20.762	-0.086	0.054
-701.543	-52.911	0.318	-0.151
-700.529	277.595	-0.092	-0.169
-699.514	354.548	-0.061	0.125
-698.499	59.864	-0.218	-0.222
-697.485	-31.611	-0.121	0.070
-696.470	800.000	0.066	0.263
-695.456	-82.443	-0.034	0.011
-694.441	121.772	0.057	0.073
-693.426	517.573	-0.229	-0.551
-692.412	-83.457	-0.264	0.087
-691.397	-29.133	0.317	-0.187
-690.383	45.388	0.182	-0.173
-689.368	-148.930	-0.258	0.021
-688.354	369.510	0.097	-0.203
-687.339	-87.336	-0.042	-0.013
-686.324	-124.244	0.146	0.023
-685.310	75.364	0.068	0.073
-684.295	-169.001	-0.154	-0.006
-683.281	258.755	0.047	-0.083
-682.266	85.082	0.068	0.076
-681.251	-118.421	0.454	0.083
-680.237	-102.082	-0.250	0.062
-679.222	399.154	-0.013	0.027
-678.208	-3.838	0.281	0.201
-677.193	-200.000	-0.036	0.178
-676.178	-42.445	0.207	0.108
-675.164	545.543	-0.094	-0.230
-674.149	-200.000	-0.060	-0.304
-673.135	800.000	-0.051	-0.212
-672.120	-122.918	0.166	0.027
-671.105	-161.820	0.322	0.017
-670.091	-22.163	-0.092	0.058
-669.076	-16.306	-0.192	0.125
-668.062	25.142	-0.174	-0.148
-667.047	106.752	-0.151	-0.184
-666.032	276.567	0.125	-0.229
-665.018	591.948	0.073	-0.187
-664.003	198.550	0.164	-0.258
-662.989	800.000	0.119	-0.488
-661.974	-4.759	0.278	0.197
-660.959	-200.000	-0.060	-0.323
-659.945	-87.948	-0.300	-0.093
-658.930	-153.055	0.315	0.023
-657.916	-64.517	0.154	0.064
-656.901	-21.690	-0.200	-0.125
-655.886	40.607	-0.115	0.107
-654.872	14.479	0.241	-0.193
-653.857	-85.764	-0.076	0.024
-652.843	-200.000	0.009	-0.284
-651.828	-200.000	-0.027	0.133
-650.814	-96.183	-0.347	-0.095
-649.799	-5.557	-0.176	0.124
-648.784	295.569	0.139	0.262
-647.770	-104.799	0.262	0.062
-646.755	-200.000	0.004	-0.168
-645.741	-200.000	-0.033	0.227
-644.726	98.220	0.143	0.170
-643.711	318.897	0.168	0.328
-642.697	-200.000	-0.032	-0.373
-641.682	162.070	-0.232	-0.334
-640.668	423.856	-0.058	0.127
-639.653	259.572	-0.057	0.102
-638.638	-115.999	-0.295	0.056
-637.624	800.000	0.067	-0.272
-636.609	-56.273	-0.228	-0.104
-635.595	3.521	-0.244	-0.183
-634.580	-200.000	0.194	0.001
-633.565	-200.000	-0.023	-0.339
-632.551	-200.000	0.031	-0.295
-631.536	53.536	-0.074	0.073
-630.522	-200.000	0.043	0.275
-629.507	800.000	-0.076	0.314
-628.492	-83.786	-0.277	0.091
-627.478	-200.000	0.025	-0.312
-626.463	-158.051	0.141	-0.009
-625.449	-126.902	0.076	0.011
-624.434	800.000	0.027	-0.099
-623.419	-98.489	-0.475	-0.125
-622.405	-25.838	-0.201	-0.122
-621.390	-73.800	0.097	0.036
-620.376	800.000	0.017	0.052
-619.361	-200.000	0.037	-0.278
-618.346	194.440	-0.250	-0.388
-617.332	800.000	0.025	0.090
-616.317	7.087	-0.185	0.141
-615.303	-155.804	-0.276	0.018
-614.288	37.557	0.074	0.068
-613.273	800.000	0.083	-0.300
-612.259	450.881	0.050	-0.114
-611.244	-200.000	0.006	-0.451
-610.230	-33.943	-0.094	0.053
-609.215	-200.000	0.048	0.334
-608.201	95.896	-0.066	-0.078
-607.186	154.453	-0.131	-0.184
-606.171	-101.446	-0.178	0.044
-605.157	76.420	-0.238	-0.258
-604.142	170.820	-0.249	-0.366
-603.128	198.292	0.039	0.062
-602.113	-54.748	0.311	0.144
-601.098	-63.554	0.416	0.175
-600.084	427.521	-0.089	-0.197
-599.069	-87.657	-0.189	-0.058
-598.055	-97.721	0.197	-0.052
-597.040	-200.000	0.020	0.219
-596.025	19.866	-0.084	-0.069
-595.011	-141.876	0.145	0.015
-593.996	124.261	0.211	-0.271
-592.982	62.457	-0.107	-0.110
-591.967	382.182	-0.106	-0.223
-590.952	-3.367	0.194	-0.139
-589.938	50.966	0.099	0.096
-588.923	-67.643	0.180	-0.072
-587.909	-121.488	0.437	-0.074
-586.894	307.966	-0.030	-0.058
-585.879	-58.611	0.123	-0.055
-584.865	-42.061	0.230	-0.121
-583.850	73.933	0.105	0.113
-582.836	195.402	0.094	0.146
-581.821	800.000	-0.069	-0.267
-580.806	-200.000	-0.022	-0.250
-579.792	-155.800	0.302	0.020
-578.777	123.773	0.028	-0.036
-577.763	85.381	-0.189	0.213
-576.748	-200.000	-0.008	0.145
-575.733	-51.141	-0.067	0.032
-574.719	-200.000	-0.001	0.144
-573.704	69.187	-0.080	-0.084
-572.690	-200.000	0.027	0.225
-571.675	16.636	-0.123	0.100
-570.661	370.591	-0.147	-0.306
-569.646	452.935	0.053	-0.120
-568.631	-200.000	0.014	-0.093
-567.617	8.730	-0.165	-0.127
-566.602	-122.558	0.214	-0.036
-565.588	800.000	-0.083	-0.333
-564.573	-23.050	-0.152	0.094
-563.558	35.214	0.133	0.120
-562.544	-1.022	-0.193	-0.140
-561.529	-45.564	-0.445	-0.226
-560.515	-200.000	0.041	0.287
-559.500	-103.736	0.146	-0.035
-558.485	54.278	0.130	0.128
-557.471	3.545	0.030	-0.023
-556.456	-117.424	-0.056	-0.010
-555.442	-200.000	-0.001	-0.030
-554.427	-200.000	-0.035	-0.169
-553.412	-153.368	-0.116	-0.008
-552.398	317.785	-0.124	0.241
-551.383	170.713	-0.242	0.354
-550.369	19.576	0.215	0.177
-549.354	-7.796	-0.075	-0.052
-548.339	357.600	0.123	-0.250
-547.325	-200.000	0.000	0.006
-546.310	-12.282	-0.174	0.117
-545.296	-120.403	-0.060	0.010
-544.281	54.728	0.239	-0.236
-543.266	-200.000	0.013	-0.100
-542.252	44.457	-0.234	-0.219
-541.237	521.283	0.047	0.113
-540.223	-3.625	0.110	0.078
-539.208	-5.153	-0.162	0.114
-538.193	22.914	-0.119	-0.100
-537.179	158.367	0.136	0.194
-536.164	-110.796	0.270	0.057
-535.150	88.217	0.239	0.271
-534.135	800.000	-0.021	-0.062
-533.121	62.907	-0.341	0.349
-532.106	-52.791	0.111	-0.052
-531.091	-51.027	0.253	-0.122
-530.077	-24.983	0.072	0.044
-529.062	800.000	-0.113	-0.491
-528.048	-102.135	-0.022	0.005
-527.033	-84.751	0.281	0.091
-526.018	223.919	-0.107	-0.177
-525.004	180.955	0.188	-0.282
-523.989	-0.941	0.265	0.191
-522.975	682.766	0.023	0.062
-521.960	-38.791	-0.145	-0.078
-520.945	800.000	0.016	0.069
-519.931	-119.385	0.292	0.052
-518.916	-200.000	0.017	0.093
-517.902	129.255	0.075	-0.097
-516.887	45.893	-0.099	0.094
-515.872	-34.084	-0.067	0.037
-514.858	-45.325	0.343	-0.174
-513.843	-4.887	0.133	-0.094
-512.829	-7.375	-0.174	0.120
-511.814	-17.662	0.022	0.014
-510.799	-40.443	0.085	0.045
-509.785	-21.595	0.110	0.068
-508.770	329.916	0.157	0.308
-507.756	-21.190	0.048	0.030
-506.741	469.933	0.037	-0.085
-505.726	28.331	0.274	0.237
-504.712	-140.522	-0.170	0.018
-503.697	307.067	0.094	0.179
-502.683	225.520	0.138	0.228
-501.668	549.852	-0.046	0.112
-500.653	86.406	0.073	-0.082
-499.639	133.443	-0.199	0.263
-498.624	800.000	0.036	-0.101
-497.610	-163.417	-0.061	-0.003
-496.595	8.264	-0.144	0.110
-495.581	-69.944	-0.191	0.074
-494.566	131.978	0.040	0.053
-493.551	-22.124	-0.156	0.097
-492.537	141.877	0.151	-0.204
-491.522	32.636	-0.055	0.049
-490.508	-200.000	0.017	0.241
-489.493	800.000	-0.121	0.376
-488.478	-200.000	0.008	-0.199
-487.464	-200.000	-0.026	0.150
-486.449	-106.351	-0.231	0.053
-485.435	-29.852	-0.228	0.132
-484.420	-200.000	-0.021	0.239
-483.405	-75.195	-0.141	0.051
-482.391	-99.248	0.375	0.097
-481.376	-36.888	0.177	-0.097
-480.362	223.783	0.027	0.045
-479.347	-152.342	0.286	0.021
-478.332	-200.000	0.048	-0.245
-477.318	55.600	0.073	-0.072
-476.303	251.581	-0.095	0.165
-475.289	-88.227	-0.202	0.062
-474.274	-87.169	0.347	0.108
-473.259	-31.333	0.128	-0.073
-472.245	800.000	0.052	-0.157
-471.230	-200.000	0.003	0.434
-470.216	-200.000	-0.052	-0.382
-469.201	-200.000	0.025	-0.363
-468.186	-166.020	0.291	0.013
-467.172	36.229	0.201	-0.180
-466.157	-43.690	0.341	0.176
-465.143	-200.000	-0.004	-0.044
-464.128	-200.000	-0.026	0.123
-463.113	-200.000	0.033	-0.314
-462.099	-113.618	-0.079	-0.016
-461.084	-140.556	0.258	0.027
-460.070	333.600	-0.037	0.074
-459.055	319.625	0.149	-0.288
-458.040	-35.189	0.163	-0.091
-457.026	36.021	0.188	-0.169
-456.011	800.000	0.043	-0.135
-454.997	800.000	0.035	0.110
-453.982	676.660	-0.026	-0.069
-452.968	-18.594	0.366	0.233
-451.953	-102.895	-0.144	0.035
-450.938	-106.110	0.355	-0.081
-449.924	-200.000	0.017	0.283
-448.909	75.672	-0.145	0.157
-447.895	57.576	-0.215	0.214
-446.880	-200.000	0.005	0.063
-445.865	21.701	0.052	0.043
-444.851	-57.187	-0.305	-0.137
-443.836	245.606	-0.105	0.180
-442.822	-64.465	-0.148	0.061
-441.807	-15.591	0.025	-0.016
-440.792	615.633	-0.139	-0.355
-439.778	-200.000	-0.008	-0.144
-438.763	-96.150	0.339	-0.092
-437.749	26.173	-0.187	0.159
-436.734	-168.082	0.755	-0.030
-435.719	132.843	-0.083	0.109
-434.705	0.949	-0.331	-0.242
-433.690	800.000	-0.042	0.150
-432.676	-200.000	0.028	0.175
-431.661	88.450	-0.145	0.164
-430.646	-15.846	0.179	0.116
-429.632	-72.510	-0.362	-0.136
-428.617	29.854	-0.114	-0.099
-427.603	10.149	0.285	0.220
-426.588	-179.749	-0.203	0.004
-425.573	16.883	-0.071	0.057
-424.559	-145.493	0.134	-0.012
-423.544	32.494	-0.259	-0.228
-422.530	112.243	0.087	0.108
-421.515	-96.114	-0.145	-0.039
-420.500	-69.080	0.179	0.070
-419.486	-200.000	-0.045	-0.585
-418.471	-200.000	-0.023	0.274
-417.457	-200.000	0.015	0.119
-416.442	-48.621	0.292	-0.143
-415.428	-200.000	-0.001	-0.180
-414.413	-77.158	-0.092	0.032
-413.398	800.000	0.116	0.339
-412.384	-59.482	-0.315	0.138
-411.369	-126.426	-0.440	-0.067
-410.355	-110.110	0.097	-0.021
-409.340	0.431	-0.103	0.075
-408.325	-131.691	0.079	0.011
-407.311	-125.382	0.177	-0.028
-406.296	-58.760	-0.044	-0.020
-405.282	8.103	-0.317	0.243
-404.267	442.722	0.114	-0.254
-403.252	-59.439	-0.147	0.064
-402.238	11.259	-0.249	-0.194
-401.223	325.957	-0.108	0.210
-400.209	-200.000	-0.002	-0.064
-399.194	-12.352	0.325	0.216
-398.179	62.140	-0.085	0.086
-397.165	44.376	-0.316	-0.296
-396.150	7.045	-0.051	0.038
-395.136	-79.685	-0.226	-0.077
-394.121	-46.309	-0.227	-0.114
-393.106	20.051	-0.137	0.112
-392.092	41.864	-0.145	-0.133
-391.077	-108.680	-0.043	-0.009
-390.063	-200.000	0.121	0.601
-389.048	596.663	-0.052	0.131
-388.033	5.810	0.435	-0.328
-387.019	220.003	-0.106	0.173
-386.004	80.241	-0.112	0.123
-384.990	-80.046	0.196	0.067
-383.975	-200.000	0.018	0.154
-382.960	-200.000	-0.008	-0.135
-381.946	800.000	-0.065	0.188
-380.931	448.026	-0.127	0.285
-379.917	-200.000	0.017	0.178
-378.902	36.211	-0.187	-0.167
-377.888	-200.000	0.048	-0.364
-376.873	-200.000	0.054	-0.303
-375.858	-78.409	-0.253	0.088
-374.844	-200.000	0.036	-0.460
-373.829	-200.000	0.028	-0.196
-372.815	317.255	0.111	-0.212
-371.800	132.200	0.203	0.266
-370.785	80.247	-0.198	-0.216
-369.771	614.193	0.099	0.252
-368.756	176.371	0.118	0.174
-367.742	168.218	0.051	-0.074
-366.727	186.534	0.039	0.060
-365.712	299.782	0.170	-0.319
-364.698	-93.724	0.145	0.041
-363.683	-76.497	-0.249	-0.089
-362.669	-89.571	0.368	-0.110
-361.654	22.301	0.145	0.121
-360.639	674.889	0.206	0.544
-359.625	-49.544	-0.048	0.023
-358.610	-29.322	0.126	0.073
-357.596	-101.930	0.070	-0.017
-356.581	790.570	0.052	0.146
-355.566	-77.404	-0.322	0.113
-354.552	-62.615	-0.155	-0.065
-353.537	524.921	0.149	-0.356
-352.523	-150.980	-0.106	-0.008
-351.508	323.440	0.097	-0.188
-350.493	69.234	-0.019	0.020
-349.479	-87.762	-0.186	0.057
-348.464	0.247	-0.270	0.196
-347.450	9.540	-0.234	0.180
-346.435	-130.245	0.240	-0.033
-345.420	621.212	-0.138	0.353
-344.406	735.660	0.198	0.538
-343.391	186.992	0.186	0.282
-342.377	52.687	-0.200	0.194
-341.362	-36.229	0.253	-0.139
-340.348	48.275	0.234	0.223
-339.333	-56.037	0.126	-0.057
-338.318	-77.512	0.253	0.089
-337.304	800.000	-0.018	-0.055
-336.289	-54.002	0.228	0.105
-335.275	167.137	-0.146	0.211
-334.260	-151.985	-0.145	-0.011
-333.245	-163.811	0.175	0.008
-332.231	19.949	0.222	-0.181
-331.216	36.715	-0.157	-0.141
-330.202	430.040	-0.130	-0.285
-329.187	2.837	0.129	-0.095
-328.172	-200.000	-0.013	-0.225
-327.158	-119.122	0.104	-0.019
-326.143	54.793	-0.285	-0.279
-325.129	312.316	0.084	0.161
-324.114	79.845	-0.155	-0.169
-323.099	-200.000	0.012	-0.078
-322.085	800.000	-0.009	-0.038
-321.070	279.053	-0.079	0.144
-320.056	410.601	0.027	-0.059
-319.041	-59.942	0.317	-0.137
-318.026	115.635	-0.304	-0.376
-317.012	302.832	0.009	-0.016
-315.997	-16.856	0.090	0.057
-314.983	-112.657	-0.157	0.032
-313.968	-168.468	-0.491	0.019
-312.953	91.426	-0.187	0.213
-311.939	800.000	-0.098	-0.317
-310.924	66.743	-0.174	-0.179
-309.910	-98.188	-0.159	-0.041
-308.895	800.000	0.062	-0.211
-307.880	216.174	0.177	-0.285
-306.866	-111.077	-0.132	-0.027
-305.851	-147.106	-0.062	0.005
-304.837	494.819	-0.094	0.219
-303.822	800.000	0.054	-0.165
-302.807	-156.560	0.386	-0.024
-301.793	-95.497	0.332	-0.090
-300.778	-200.000	0.003	-0.175
-299.764	226.416	-0.088	-0.145
-298.749	-88.258	-0.090	-0.027
-297.735	52.292	-0.112	0.109
-296.720	-42.783	0.309	0.159
-295.705	-33.933	0.078	-0.043
-294.691	-200.000	0.014	-0.115
-293.676	58.915	0.160	0.160
-292.662	800.000	-0.051	0.191
-291.647	-200.000	-0.035	-0.222
-290.632	777.007	-0.077	0.213
-289.618	339.704	0.141	-0.278
-288.603	-200.000	-0.006	-0.209
-287.589	-83.330	-0.026	0.008
-286.574	-200.000	-0.018	0.122
-285.559	-25.483	0.164	0.098
-284.545	143.267	0.089	-0.120
-283.530	-56.872	0.330	0.148
-282.516	-200.000	-0.009	-0.206
-281.501	-111.370	0.402	-0.083
-280.486	535.313	0.019	0.045
-279.472	-72.321	-0.195	0.073
-278.457	512.997	0.147	0.346
-277.443	498.843	0.155	-0.361
-276.428	78.115	-0.062	-0.067
-275.413	800.000	0.142	0.451
-274.399	32.843	-0.116	0.102
-273.384	72.688	0.110	0.116
-272.370	-200.000	-0.049	-0.000
-271.355	-61.510	0.347	-0.148
-270.340	800.000	-0.144	0.485
-269.326	-177.317	0.435	0.011
-268.311	-71.612	0.082	-0.031
-267.297	134.010	0.116	0.153
-266.282	13.931	0.301	0.237
-265.267	-163.372	-0.060	-0.003
-264.253	104.336	0.124	0.147
-263.238	87.011	-0.235	0.263
-262.224	-163.474	-0.296	0.014
-261.209	185.018	-0.046	0.070
-260.195	-200.000	-0.040	-0.189
-259.180	800.000	-0.036	-0.111
-258.165	329.076	0.111	-0.217
-257.151	392.200	-0.010	-0.022
-256.136	-200.000	0.033	-0.192
-255.122	-76.144	-0.095	-0.034
-254.107	-16.023	0.146	-0.094
-253.092	286.181	0.166	0.303
-252.078	91.543	-0.029	-0.033
-251.063	30.599	-0.131	0.114
-250.049	267.193	-0.133	0.236
-249.034	746.826	0.055	0.149
-248.019	800.000	-0.115	0.438
-247.005	-200.000	-0.007	0.055
-245.990	-76.693	0.188	0.067
-244.976	-200.000	-0.008	0.084
-243.961	125.036	-0.215	-0.274
-242.946	85.414	-0.076	0.085
-241.932	-200.000	0.011	0.306
-240.917	154.338	0.080	0.110
-239.903	-176.864	-0.092	-0.002
-238.888	249.767	0.071	-0.122
-237.873	800.000	0.049	-0.219
-236.859	220.270	-0.114	-0.184
-235.844	163.400	0.057	-0.082
-234.830	20.701	-0.223	0.183
-233.815	-180.683	-0.265	-0.005
-232.800	557.236	-0.053	-0.130
-231.786	30.119	-0.367	-0.317
-230.771	800.000	0.013	-0.058
-229.757	51.648	0.075	-0.072
-228.742	-200.000	0.034	-0.313
-227.727	-83.893	-0.122	0.039
-226.713	23.597	-0.053	-0.044
-225.698	163.930	-0.041	-0.058
-224.684	-7.539	-0.101	0.069
-223.669	-93.592	0.164	0.046
-222.655	800.000	-0.052	-0.219
-221.640	-200.000	-0.078	0.395
-220.625	-93.143	0.273	0.077
-219.611	325.198	-0.089	0.172
-218.596	-49.451	0.232	-0.112
-217.582	62.316	-0.129	-0.131
-216.567	-91.974	-0.131	0.038
-215.552	369.438	-0.040	-0.081
-214.538	238.297	-0.072	0.120
-213.523	-143.921	-0.276	0.026
-212.509	-97.819	0.185	-0.048
-211.494	76.423	0.205	-0.220
-210.479	-200.000	-0.006	0.114
-209.465	228.693	-0.033	-0.054
-208.450	-13.341	-0.083	0.054
-207.436	-200.000	0.015	-0.224
-206.421	-200.000	-0.228	0.001
-205.406	-134.671	-0.433	0.053
-204.392	365.469	0.163	0.331
-203.377	74.293	-0.114	0.121
-202.363	10.252	0.418	0.321
-201.348	-91.297	0.215	-0.062
-200.333	-200.000	-0.004	-0.208
-199.319	-200.000	-0.029	-0.176
-198.304	-200.000	-0.014	-0.166
-197.290	91.499	0.113	-0.128
-196.275	-57.879	0.152	-0.067
-195.260	-200.000	0.005	-0.177
-194.246	-121.802	0.241	-0.040
-193.231	-190.571	-0.286	-0.003
-192.217	108.192	0.098	-0.118
-191.202	-15.545	-0.183	0.118
-190.187	-93.944	-0.265	0.074
-189.173	-83.720	-0.195	0.063
-188.158	4.402	-0.238	-0.176
-187.144	-200.000	0.046	-0.364
-186.129	18.295	0.172	0.139
-185.114	-90.241	0.363	-0.106
-184.100	-80.811	-0.286	-0.096
-183.085	95.190	0.138	0.159
-182.071	-200.000	-0.011	0.110
-181.056	88.832	-0.179	0.201
-180.042	-15.436	0.101	0.065
-179.027	178.702	-0.244	0.360
-178.012	-82.787	-0.571	0.186
-176.998	-167.180	0.036	-0.001
-175.983	-97.131	0.177	0.047
-174.969	558.227	-0.046	-0.112
-173.954	-200.000	0.030	-0.280
-172.939	104.227	-0.053	-0.063
-171.925	75.722	-0.101	0.108
-170.910	-134.853	0.217	-0.027
-169.896	-156.671	-0.092	-0.006
-168.881	134.687	-0.117	-0.153
-167.866	4.550	0.241	-0.178
-166.852	-91.004	-0.074	0.022
-165.837	-118.327	-0.351	-0.063
-164.823	316.850	-0.086	0.164
-163.808	-44.432	0.376	0.190
-162.793	29.090	-0.176	0.150
-161.779	-117.671	-0.141	0.026
-160.764	385.075	0.107	0.223
-159.750	-200.000	0.004	0.094
-158.735	-7.570	-0.202	-0.138
-157.720	26.670	0.077	0.065
-156.706	-82.070	-0.203	-0.067
-155.691	800.000	0.044	0.142
-154.677	239.263	-0.110	-0.185
-153.662	-75.812	-0.202	-0.072
-152.647	125.075	-0.062	0.079
-151.633	-125.117	-0.145	0.022
-150.618	-46.109	0.153	0.076
-149.604	-34.985	-0.038	-0.021
-148.589	-194.204	0.163	0.001
-147.574	-44.595	0.058	-0.029
-146.560	-200.000	-0.007	-0.038
-145.545	-95.622	0.241	0.065
-144.531	-64.874	-0.316	0.129
-143.516	-192.524	-0.103	-0.001
-142.502	-200.000	-0.035	-0.155
-141.487	-200.000	-0.090	0.428
-140.472	533.470	0.136	-0.325
-139.458	-142.125	0.127	-0.013
-138.443	-74.661	-0.334	0.121
-137.429	-200.000	0.004	0.161
-136.414	199.682	-0.054	0.083
-135.399	0.868	-0.124	-0.089
-134.385	38.582	0.276	-0.248
-133.370	-200.000	-0.030	-0.224
-132.356	800.000	0.136	-0.439
-131.341	247.608	-0.156	-0.266
-130.326	9.488	-0.106	-0.081
-129.312	800.000	-0.039	0.109
-128.297	-200.000	-0.002	0.183
-127.283	-63.851	0.182	-0.075
-126.268	800.000	-0.042	0.159
-125.253	546.865	0.067	0.162
-124.239	327.568	0.091	-0.175
-123.224	800.000	-0.032	0.091
-122.210	-200.000	-0.044	0.274
-121.195	-15.942	0.244	0.156
-120.180	-78.796	0.161	-0.055
-119.166	411.069	0.095	-0.203
-118.151	800.000	0.048	0.175
-117.137	800.000	0.035	-0.130
-116.122	671.225	-0.074	0.192
-115.107	-143.432	0.197	0.019
-114.093	-200.000	0.026	-0.193
-113.078	209.070	0.112	-0.176
-112.064	-54.536	0.126	0.057
-111.049	282.858	-0.033	-0.059
-110.034	-88.326	0.416	-0.125
-109.020	53.130	0.198	0.191
-108.005	3.974	-0.309	0.227
-106.991	800.000	0.107	0.370
-105.976	-38.706	0.195	-0.104
-104.962	61.995	-0.150	0.150
-103.947	697.052	-0.057	-0.152
-102.932	-21.193	0.241	-0.148
-101.918	16.505	0.210	0.167
-100.903	-200.000	-0.029	0.154
-99.889	782.906	-0.106	0.292
-98.874	800.000	0.074	-0.288
-97.859	-97.594	0.239	0.062
-96.845	13.190	0.119	0.093
-95.830	524.021	0.191	-0.451
-94.816	3.036	0.298	0.218
-93.801	203.767	0.128	0.199
-92.786	96.697	-0.021	0.025
-91.772	3.771	0.177	-0.130
-90.757	-200.000	-0.044	0.368
-89.743	-200.000	0.058	-0.272
-88.728	-110.129	-0.320	0.067
-87.713	-133.079	0.272	-0.035
-86.699	23.937	-0.177	0.147
-85.684	425.370	0.076	-0.166
-84.670	491.045	0.095	-0.219
-83.655	1.924	-0.357	-0.259
-82.640	283.713	-0.017	-0.030
-81.626	-65.673	0.154	-0.062
-80.611	-147.861	0.355	-0.030
-79.597	-200.000	0.050	0.234
-78.582	21.456	-0.087	-0.071
-77.567	-94.906	-0.230	0.062
-76.553	-70.336	0.327	-0.125
-75.538	157.915	-0.122	0.169
-74.524	-148.474	-0.347	0.029
-73.509	-162.068	-0.314	-0.016
-72.494	106.569	-0.126	0.150
-71.480	800.000	0.072	0.261
-70.465	-165.720	-0.121	-0.005
-69.451	-200.000	-0.025	0.290
-68.436	630.278	-0.016	-0.040
-67.422	-113.456	0.256	0.050
-66.407	-96.728	-0.084	-0.022
-65.392	174.487	0.017	0.024
-64.378	144.865	0.100	0.135
-63.363	307.534	-0.084	-0.156
-62.349	284.616	-0.188	-0.340
-61.334	152.196	-0.558	-0.764
-60.319	-200.000	-0.003	0.304
-59.305	22.117	0.389	-0.319
-58.290	404.511	0.425	0.899
-57.276	672.096	0.655	1.706
-56.261	-200.000	71.625	531.621
-55.246	595.509	1276.291	3171.268
-54.232	145.169	2498.725	3356.633
-53.217	113.004	2365.885	2879.058
-52.203	51.174	2105.846	2005.730
-51.188	45.735	2012.869	1867.715
-50.173	43.858	1993.260	1832.484
-49.159	55.745	2028.477	1973.328
-48.144	61.554	2049.234	2046.327
-47.130	46.508	2014.604	1876.072
-46.115	43.542	2004.005	1839.196
-45.100	43.473	2000.870	1835.619
-44.086	43.458	1998.928	1833.629
-43.071	43.449	1996.247	1831.011
-42.057	43.373	1994.553	1828.696
-41.042	43.460	1992.260	1827.314
-40.027	43.468	1989.618	1824.892
-39.013	43.472	1988.205	1823.554
-37.998	43.521	1986.338	1822.209
-36.984	43.410	1985.007	1819.915
-35.969	43.522	1982.923	1818.942
-34.954	43.573	1980.869	1817.444
-33.940	43.567	1979.311	1815.890
-32.925	43.552	1978.364	1814.820
-31.911	43.526	1976.444	1812.752
-30.896	43.589	1974.502	1811.464
-29.881	43.647	1972.536	1810.108
-28.867	43.634	1971.013	1808.514
-27.852	43.601	1969.764	1807.006
-26.838	43.647	1967.484	1805.251
-25.823	43.623	1965.357	1803.019
-24.809	43.654	1964.111	1802.073
-23.794	43.643	1961.947	1799.922
-22.779	43.572	1960.578	1797.959
-21.765	43.584	1959.021	1796.568
-20.750	43.536	1956.990	1794.215
-19.736	43.514	1956.255	1793.267
-18.721	43.601	1954.287	1792.168
-17.706	43.604	1952.650	1790.618
-16.692	43.592	1951.139	1789.055
-15.677	43.593	1949.367	1787.373
-14.663	43.575	1947.729	1785.637
-13.648	43.601	1946.777	1784.929
-12.633	43.620	1945.106	1783.492
-11.619	43.510	1944.033	1781.465
-10.604	43.567	1942.534	1780.521
-9.590	43.582	1941.022	1779.196
-8.575	43.492	1940.563	1777.911
-7.560	43.526	1938.506	1776.260
-6.546	43.578	1936.672	1774.967
-5.531	43.549	1935.797	1773.837
-4.517	43.561	1934.345	1772.543
-3.502	43.553	1933.398	1771.536
-2.487	43.498	1931.899	1769.606
-1.473	43.505	1931.404	1769.145
-0.458	43.660	1927.245	1766.624
0.556	43.107	1908.917	1744.041
1.571	39.158	1889.616	1692.342
2.586	34.705	1909.049	1670.756
3.600	32.982	1945.526	1687.152
4.615	31.858	1942.828	1674.626
5.629	23.870	1835.919	1514.592
6.644	9.510	1702.251	1289.938
7.659	1.900	1655.236	1194.738
8.673	1.197	1650.980	1186.059
9.688	1.105	1649.193	1183.958
10.702	1.081	1647.986	1182.800
11.717	0.897	1645.554	1179.511
12.731	1.306	1644.910	1182.132
13.746	9.237	1663.759	1257.849
14.761	20.489	1689.091	1365.833
15.775	24.728	1696.216	1404.851
16.790	24.919	1695.742	1405.835
17.804	24.926	1695.381	1405.462
18.819	24.932	1693.994	1404.239
19.834	25.098	1693.449	1404.966
20.848	25.289	1692.860	1405.845
21.863	25.308	1691.672	1404.880
22.877	25.328	1690.629	1404.047
23.892	25.300	1690.101	1403.271
24.907	25.281	1689.095	1402.156
25.921	25.268	1688.189	1401.184
26.936	25.223	1687.489	1400.124
27.950	25.322	1686.006	1399.544
28.965	25.365	1685.465	1399.303
29.980	25.383	1684.692	1398.679
30.994	25.298	1683.377	1396.801
32.009	25.345	1681.911	1395.832
33.023	25.320	1680.938	1394.700
34.038	25.345	1680.576	1394.473
35.053	25.286	1679.285	1392.817
36.067	25.247	1678.328	1391.604
37.082	25.238	1677.517	1390.735
38.096	25.307	1676.171	1390.030
39.111	25.337	1675.345	1389.452
40.126	25.316	1674.755	1388.678
41.140	25.334	1673.535	1387.686
42.155	25.379	1672.544	1387.087
43.169	25.307	1672.026	1385.978
44.184	25.316	1671.336	1385.356
45.199	25.323	1670.110	1384.271
46.213	25.306	1668.760	1382.897
47.228	25.249	1667.635	1381.406
48.242	25.219	1667.004	1380.530
49.257	25.274	1665.484	1379.569
50.271	25.361	1664.372	1379.199
51.286	25.299	1663.497	1377.871
52.301	25.337	1661.824	1376.659
53.315	25.283	1660.546	1375.064
54.330	25.235	1659.576	1373.770
55.344	25.381	1657.603	1373.135
56.359	25.284	1656.566	1371.411
57.374	25.269	1655.543	1370.325
58.388	25.434	1654.245	1370.388
59.403	25.354	1653.525	1369.064
60.417	25.317	1652.171	1367.537
61.432	25.372	1651.155	1366.994
62.447	25.365	1649.953	1365.823
63.461	25.382	1648.763	1364.845
64.476	25.274	1648.311	1363.532
65.490	25.291	1647.306	1362.713
66.505	25.284	1646.426	1361.813
67.520	25.240	1645.449	1360.544
68.534	25.382	1644.158	1360.438
69.549	25.335	1643.357	1359.299
70.563	25.282	1641.856	1357.536
71.578	25.409	1640.883	1357.568
72.593	25.347	1639.778	1356.063
73.607	25.365	1638.916	1355.369
74.622	25.375	1637.552	1354.197
75.636	25.363	1637.149	1353.655
76.651	25.401	1636.285	1353.106
77.666	25.361	1635.698	1352.202
78.680	25.375	1634.612	1351.287
79.695	25.399	1633.739	1350.625
80.709	25.357	1632.998	1349.576
81.724	25.365	1632.302	1348.943
82.739	25.399	1631.096	1348.079
83.753	25.496	1630.143	1347.903
84.768	25.421	1629.283	1346.509
85.782	25.353	1628.779	1345.465
86.797	25.354	1627.835	1344.575
87.812	25.354	1627.092	1343.844
88.826	25.401	1625.807	1343.010
89.841	25.390	1624.842	1342.016
90.855	25.428	1623.648	1341.192
91.870	25.414	1622.926	1340.373
92.884	25.340	1622.066	1338.994
93.899	25.342	1620.879	1337.913
94.914	25.342	1619.610	1336.744
95.928	25.362	1618.908	1336.196
96.943	25.509	1617.012	1335.606
97.957	25.412	1615.713	1333.694
98.972	25.456	1614.532	1332.923
99.987	25.497	1613.296	1332.091
101.001	25.294	1612.239	1329.600
102.016	25.404	1610.642	1328.976
103.030	25.347	1609.260	1327.295
104.045	25.395	1608.337	1326.776
105.060	25.497	1606.901	1326.224
106.074	25.362	1605.814	1324.213
107.089	25.406	1604.694	1323.499
108.103	25.402	1603.581	1322.430
109.118	25.432	1602.402	1321.568
110.133	25.440	1601.213	1320.528
111.147	25.414	1600.106	1319.302
112.162	25.393	1599.108	1318.210
113.176	25.434	1597.682	1317.223
114.191	25.436	1596.665	1316.279
115.206	25.453	1595.426	1315.264
116.220	25.441	1594.611	1314.391
117.235	25.494	1593.050	1313.377
118.249	25.474	1592.202	1312.415
119.264	25.565	1590.767	1311.781
120.279	25.464	1589.757	1310.089
121.293	25.428	1588.739	1308.875
122.308	25.554	1587.187	1308.397
123.322	25.574	1586.200	1307.615
124.337	25.564	1584.509	1306.030
125.352	25.487	1583.686	1304.676
126.366	25.469	1582.978	1303.847
127.381	25.524	1581.849	1303.202
128.395	25.496	1581.381	1302.497
129.410	25.520	1580.204	1301.588
130.424	25.547	1579.394	1300.999
131.439	25.509	1577.748	1299.258
132.454	25.465	1577.216	1298.385
133.468	25.564	1575.428	1297.514
134.483	25.540	1573.625	1295.743
135.497	25.541	1573.230	1295.309
136.512	25.636	1571.649	1294.574
137.527	25.552	1570.652	1293.033
138.541	25.595	1569.650	1292.403
139.556	25.557	1568.423	1291.009
140.570	25.590	1567.343	1290.241
141.585	25.544	1566.019	1288.706
142.600	25.608	1564.719	1287.980
143.614	25.592	1563.564	1286.799
144.629	25.490	1563.069	1285.552
145.643	25.559	1561.569	1284.695
146.658	25.535	1560.254	1283.332
147.673	25.454	1559.194	1281.764
148.687	25.517	1558.259	1281.337
149.702	25.534	1557.052	1280.350
150.716	25.512	1555.438	1278.750
151.731	25.567	1554.095	1277.924
152.746	25.468	1553.748	1276.824
153.760	25.522	1552.031	1275.687
154.775	25.537	1550.698	1274.580
155.789	25.561	1550.044	1274.103
156.804	25.529	1549.085	1272.976
157.819	25.529	1548.015	1271.980
158.833	25.552	1546.548	1270.827
159.848	25.673	1545.633	1270.819
160.862	25.666	1544.655	1269.850
161.877	25.639	1543.739	1268.795
162.892	25.620	1543.234	1268.130
163.906	25.618	1542.078	1267.059
164.921	25.566	1541.218	1265.871
165.935	25.737	1539.768	1265.774
166.950	25.658	1539.418	1264.815
167.964	25.598	1538.574	1263.586
168.979	25.565	1537.222	1262.135
169.994	25.693	1536.334	1262.193
171.008	25.666	1535.490	1261.196
172.023	25.634	1534.858	1260.345
173.037	25.589	1533.774	1259.030
174.052	25.678	1532.419	1258.425
175.067	25.723	1531.498	1257.875
176.081	25.671	1530.569	1256.638
177.096	25.577	1529.636	1255.103
178.110	25.688	1528.664	1254.970
179.125	25.722	1527.676	1254.280
180.140	25.706	1526.656	1253.225
181.154	25.758	1525.490	1252.517
182.169	25.797	1524.825	1252.127
183.183	25.665	1524.391	1250.746
184.198	25.796	1522.999	1250.400
185.213	25.766	1522.635	1249.785
186.227	25.691	1521.566	1248.275
187.242	25.689	1520.844	1247.562
188.256	25.747	1520.005	1247.161
189.271	25.769	1519.098	1246.462
190.286	25.803	1517.931	1245.627
191.300	25.733	1517.380	1244.580
192.315	25.831	1516.124	1244.119
193.329	25.827	1515.205	1243.224
194.344	25.749	1514.268	1241.812
195.359	25.710	1513.900	1241.132
196.373	25.760	1512.880	1240.528
197.388	25.814	1511.605	1239.742
198.402	25.722	1510.866	1238.399
199.417	25.754	1509.728	1237.574
200.432	25.793	1509.069	1237.192
201.446	25.790	1508.734	1236.785
202.461	25.793	1507.821	1235.951
203.475	25.780	1506.939	1235.026
204.490	25.693	1505.801	1233.390
205.504	25.710	1505.372	1233.044
206.519	25.782	1504.535	1232.746
207.534	25.801	1503.197	1231.667
208.548	25.883	1502.705	1231.719
209.563	25.795	1501.895	1230.341
210.577	25.802	1501.054	1229.596
211.592	25.773	1500.516	1228.843
212.607	25.826	1499.486	1228.255
213.621	25.848	1499.277	1228.124
214.636	25.927	1498.031	1227.534
215.650	25.892	1496.789	1226.167
216.665	25.957	1495.705	1225.614
217.680	25.915	1495.494	1225.048
218.694	25.830	1495.136	1224.065
219.709	25.872	1494.158	1223.441
220.723	25.828	1493.087	1222.164
221.738	25.862	1492.502	1221.802
222.753	25.954	1491.224	1221.270
223.767	25.769	1490.720	1219.497
224.782	25.872	1489.592	1219.163
225.796	25.938	1488.571	1218.666
226.811	25.945	1488.105	1218.228
227.826	25.988	1487.408	1217.836
228.840	25.912	1486.840	1216.754
229.855	25.954	1486.112	1216.334
230.869	25.897	1485.202	1215.098
231.884	25.959	1484.427	1214.771
232.899	25.904	1483.199	1213.287
233.913	25.950	1482.061	1212.561
234.928	25.910	1480.925	1211.252
235.942	26.010	1480.228	1211.247
236.957	26.008	1479.289	1210.361
237.972	26.003	1478.004	1209.167
238.986	25.998	1477.391	1208.528
240.001	26.061	1476.339	1207.981
241.015	26.041	1475.313	1206.903
242.030	25.987	1474.456	1205.733
243.045	26.211	1473.252	1206.135
244.059	26.121	1472.605	1204.898
245.074	26.235	1471.481	1204.636
246.088	26.069	1471.178	1203.173
247.103	26.154	1470.333	1202.938
248.117	26.142	1469.103	1201.746
249.132	26.146	1468.195	1200.925
250.147	26.239	1467.837	1201.146
251.161	26.151	1467.459	1200.141
252.176	26.237	1466.562	1199.873
253.190	26.207	1466.002	1199.109
254.205	26.265	1464.757	1198.373
255.220	26.223	1464.131	1197.479
256.234	26.195	1463.233	1196.449
257.249	26.118	1463.033	1195.668
258.263	26.271	1461.877	1195.635
259.278	26.217	1460.879	1194.351
260.293	26.328	1459.757	1194.065
261.307	26.308	1459.045	1193.241
262.322	26.308	1458.850	1192.980
263.336	26.317	1458.254	1192.443
264.351	26.335	1457.143	1191.549
265.366	26.238	1456.416	1190.209
266.380	26.280	1455.448	1189.590
267.395	26.393	1453.940	1188.995
268.409	26.329	1453.729	1188.297
269.424	26.269	1452.813	1187.047
270.439	26.295	1451.855	1186.332
271.453	26.419	1451.360	1186.638
272.468	26.279	1450.712	1185.085
273.482	26.367	1450.103	1185.056
274.497	26.375	1448.663	1183.830
275.512	26.395	1447.954	1183.275
276.526	26.349	1447.670	1182.635
277.541	26.429	1446.472	1182.078
278.555	26.383	1445.244	1180.668
279.570	26.352	1444.896	1180.080
280.585	26.398	1443.939	1179.493
281.599	26.461	1443.023	1179.052
282.614	26.408	1442.545	1178.207
283.628	26.522	1440.794	1177.414
284.643	26.377	1440.541	1176.164
285.657	26.443	1439.208	1175.400
286.672	26.411	1438.979	1174.897
287.687	26.432	1438.284	1174.364
288.701	26.465	1436.653	1173.145
289.716	26.526	1436.075	1172.960
290.730	26.517	1435.750	1172.534
291.745	26.488	1434.623	1171.327
292.760	26.560	1433.662	1170.902
293.774	26.570	1432.993	1170.315
294.789	26.487	1432.295	1169.106
295.803	26.621	1431.318	1169.070
296.818	26.528	1430.689	1167.850
297.833	26.615	1429.587	1167.411
298.847	26.557	1429.000	1166.453
299.862	26.695	1427.811	1166.269
300.876	26.667	1427.082	1165.388
301.891	26.603	1426.275	1164.214
302.906	26.576	1425.943	1163.670
303.920	26.700	1425.061	1163.642
304.935	26.644	1424.418	1162.658
305.949	26.721	1423.610	1162.386
306.964	26.648	1423.004	1161.321
307.979	26.744	1421.551	1160.648
308.993	26.699	1420.773	1159.619
310.008	26.729	1420.287	1159.314
311.022	26.728	1419.260	1158.366
312.037	26.742	1418.142	1157.441
313.052	26.754	1417.374	1156.791
314.066	26.732	1416.731	1156.023
315.081	26.640	1415.874	1154.635
316.095	26.760	1414.586	1154.246
317.110	26.716	1413.708	1153.147
318.125	26.721	1412.751	1152.297
319.139	26.791	1412.217	1152.203
320.154	26.925	1411.293	1152.199
321.168	26.715	1410.653	1150.239
322.183	26.811	1409.683	1149.957
323.197	26.749	1408.936	1148.854
324.212	26.829	1407.729	1148.276
325.227	26.884	1406.912	1147.853
326.241	26.900	1406.275	1147.331
327.256	26.872	1405.413	1146.349
328.270	26.913	1404.527	1145.787
329.285	26.860	1404.131	1145.025
330.300	27.021	1402.902	1144.936
331.314	26.880	1402.252	1143.417
332.329	26.879	1402.061	1143.158
333.343	26.892	1401.096	1142.351
334.358	27.019	1400.332	1142.422
335.373	26.943	1399.678	1141.309
336.387	26.965	1399.167	1140.932
337.402	26.958	1398.581	1140.311
338.416	27.018	1397.815	1139.961
339.431	27.186	1396.564	1139.890
340.446	27.059	1396.264	1138.753
341.460	26.974	1395.907	1137.825
342.475	27.029	1394.871	1137.224
343.489	27.171	1393.660	1137.026
344.504	27.106	1392.843	1135.855
345.519	26.993	1392.363	1134.654
346.533	27.048	1391.319	1134.044
347.548	27.062	1390.632	1133.474
348.562	27.115	1389.717	1132.956
349.577	27.218	1388.520	1132.524
350.592	27.131	1388.182	1131.603
351.606	27.057	1387.622	1130.591
352.621	27.081	1386.068	1129.370
353.635	27.111	1385.181	1128.734
354.650	27.206	1384.204	1128.428
355.665	27.192	1383.542	1127.700
356.679	27.193	1382.560	1126.811
357.694	27.176	1381.627	1125.846
358.708	27.330	1380.745	1125.976
359.723	27.263	1379.295	1124.281
360.738	27.229	1378.589	1123.398
361.752	27.225	1377.338	1122.252
362.767	27.243	1376.109	1121.264
363.781	27.234	1375.124	1120.304
364.796	27.297	1374.963	1120.465
365.810	27.340	1373.809	1119.692
366.825	27.307	1373.505	1119.141
367.840	27.319	1372.872	1118.597
368.854	27.360	1372.031	1118.069
369.869	27.339	1371.687	1117.556
370.883	27.416	1370.883	1117.280
371.898	27.289	1370.525	1116.108
372.913	27.419	1369.571	1116.027
373.927	27.435	1368.582	1115.220
374.942	27.479	1367.753	1114.714
375.956	27.453	1367.028	1113.871
376.971	27.424	1366.400	1113.081
377.986	27.367	1365.670	1112.041
379.000	27.396	1365.110	1111.663
380.015	27.461	1364.155	1111.181
381.029	27.449	1363.840	1110.754
382.044	27.486	1363.098	1110.277
383.059	27.544	1361.940	1109.587
384.073	27.452	1361.769	1108.793
385.088	27.517	1361.440	1108.823
386.102	27.520	1360.556	1108.019
387.117	27.494	1359.788	1107.142
388.132	27.584	1359.182	1107.093
389.146	27.450	1358.447	1105.582
390.161	27.463	1357.739	1104.988
391.175	27.641	1357.368	1105.670
392.190	27.642	1356.266	1104.677
393.205	27.641	1355.043	1103.578
394.219	27.587	1354.465	1102.685
395.234	27.614	1353.743	1102.163
396.248	27.602	1352.658	1101.109
397.263	27.740	1351.639	1101.017
398.278	27.697	1350.747	1099.935
399.292	27.665	1349.689	1098.780
400.307	27.590	1348.889	1097.579
401.321	27.687	1348.062	1097.391
402.336	27.787	1346.767	1096.841
403.350	27.716	1346.170	1095.833
404.365	27.712	1345.271	1094.982
405.380	27.746	1344.038	1094.084
406.394	27.737	1343.592	1093.571
407.409	27.768	1342.942	1093.129
408.423	27.704	1342.406	1092.216
409.438	27.813	1341.626	1092.134
410.453	27.919	1340.510	1091.761
411.467	27.842	1339.861	1090.681
412.482	27.886	1339.601	1090.632
413.496	27.941	1338.810	1090.221
414.511	27.892	1338.080	1089.235
415.526	27.944	1337.477	1088.958
416.540	27.950	1336.391	1088.012
417.555	27.857	1336.101	1087.128
418.569	27.908	1335.758	1087.059
419.584	27.941	1334.784	1086.367
420.599	27.962	1334.560	1086.212
421.613	70.634	1310.425	1308.533
422.628	71.322	1306.895	1308.661
