DTS Sentinel unit serial number:	SN413079Multiplexer serial number:	ORYXHardware model number:	OX4-SRSoftware version number:	ORYX F/W v4.00 Oryx Data Collector v3.7.2.0data status	okinstallation	princeton_trtdifferential loss correction	single-endedforward channel	channel 4reverse channel	N/Adate	2019/09/11time	18:59:10forward acquisition time	60.00reverse acquisition time	0.00gamma	496.2192k internal	0.2285k external	0.2285temperature offset calibration	1.0031default loss term (dB/km)	0.3790temperature slope calibration	1.0000multiplexer offset coefficient	1.0000multiplexer slope coefficient	1.0000fibre end	0.00T internal ref (°C)	42.37T ext. ref 1 (°C)	1.26T ext. ref 2 (°C)	34.68length (m)	temperature (°C)	Stokes	anti-Stokes-747.200	-35.520	0.298	0.166
-746.185	-200.000	-0.006	0.227
-745.171	-160.138	0.176	-0.010
-744.156	34.731	0.140	-0.126
-743.142	-6.192	-0.100	0.070
-742.127	-200.000	0.001	0.203
-741.112	-200.000	-0.047	-0.325
-740.098	-100.878	0.154	-0.039
-739.083	800.000	-0.043	0.174
-738.069	530.923	0.074	0.179
-737.054	-76.596	0.163	-0.059
-736.039	-118.797	-0.284	-0.051
-735.025	495.061	0.125	0.294
-734.010	-76.469	-0.063	0.023
-732.996	-97.692	0.206	0.055
-731.981	-120.038	0.284	-0.050
-730.966	226.067	-0.066	-0.110
-729.952	81.128	-0.170	-0.189
-728.937	-120.423	-0.297	-0.052
-727.923	665.815	-0.044	0.117
-726.908	12.051	-0.322	-0.254
-725.894	-110.379	-0.201	-0.043
-724.879	168.406	-0.185	-0.270
-723.864	77.452	-0.083	-0.090
-722.850	415.169	-0.022	0.047
-721.835	-38.157	-0.170	-0.092
-720.821	158.189	-0.015	0.021
-719.806	315.381	-0.050	0.096
-718.791	-34.791	0.024	0.013
-717.777	-148.036	-0.338	0.029
-716.762	-6.837	0.111	-0.078
-715.748	165.216	0.170	0.246
-714.733	-52.296	-0.192	0.091
-713.718	-74.173	-0.335	-0.124
-712.704	-54.200	-0.202	-0.094
-711.689	88.401	-0.190	0.216
-710.675	-56.706	-0.401	-0.182
-709.660	-146.250	-0.321	0.029
-708.645	-54.678	0.100	-0.047
-707.631	-66.000	0.207	-0.085
-706.616	-200.000	0.005	0.054
-705.602	-200.000	0.004	-0.121
-704.587	-51.804	-0.200	-0.095
-703.572	-13.609	-0.223	-0.148
-702.558	-0.451	-0.203	-0.148
-701.543	492.775	0.106	-0.250
-700.529	-87.811	0.426	-0.132
-699.514	201.585	-0.111	-0.176
-698.499	499.144	-0.078	-0.183
-697.485	247.959	0.198	-0.343
-696.470	-161.849	0.054	0.003
-695.456	-150.778	0.288	0.022
-694.441	-200.000	-0.001	-0.046
-693.426	-200.000	-0.017	0.524
-692.412	800.000	0.042	-0.119
-691.397	800.000	0.055	0.172
-690.383	-157.767	-0.341	-0.021
-689.368	164.214	0.039	-0.056
-688.354	8.167	-0.142	0.109
-687.339	-200.000	0.005	-0.120
-686.324	-200.000	0.037	0.283
-685.310	545.462	-0.051	-0.124
-684.295	-13.210	-0.106	0.070
-683.281	153.913	-0.089	-0.125
-682.266	-32.491	0.153	-0.087
-681.251	-88.555	-0.164	-0.050
-680.237	800.000	-0.090	0.339
-679.222	-51.981	-0.368	0.175
-678.208	-106.596	-0.147	-0.034
-677.193	-125.392	-0.107	-0.017
-676.178	-51.103	-0.150	-0.072
-675.164	187.641	-0.258	-0.395
-674.149	734.997	0.085	0.232
-673.135	-115.763	0.190	-0.036
-672.120	-110.355	-0.102	-0.022
-671.105	104.648	0.148	0.178
-670.091	104.240	0.266	0.321
-669.076	-175.123	0.121	0.003
-668.062	69.102	-0.195	0.205
-667.047	-200.000	-0.020	0.216
-666.032	800.000	0.047	0.167
-665.018	2.873	0.142	-0.105
-664.003	289.166	-0.131	-0.243
-662.989	-49.826	0.121	-0.059
-661.974	206.920	0.106	-0.169
-660.959	135.259	-0.088	-0.116
-659.945	-70.082	0.209	-0.082
-658.930	-55.974	0.238	0.109
-657.916	15.828	0.156	-0.125
-656.901	-118.979	0.026	-0.005
-655.886	201.320	-0.091	-0.143
-654.872	-71.994	0.074	0.028
-653.857	-72.558	-0.197	0.075
-652.843	78.270	0.105	-0.115
-651.828	67.110	0.126	0.131
-650.814	29.494	-0.068	0.059
-649.799	-63.578	0.072	-0.030
-648.784	-110.149	-0.122	0.026
-647.770	-200.000	0.005	0.155
-646.755	-165.782	-0.199	0.009
-645.741	-47.491	0.272	0.135
-644.726	7.894	0.214	-0.164
-643.711	-13.484	0.222	-0.147
-642.697	-86.277	-0.089	-0.028
-641.682	-73.788	0.089	-0.033
-640.668	197.259	0.036	-0.057
-639.653	173.288	0.029	0.043
-638.638	-89.482	0.282	0.085
-637.624	57.692	0.300	-0.300
-636.609	800.000	0.061	-0.228
-635.595	800.000	0.044	0.148
-634.580	5.368	0.261	-0.197
-633.565	-67.791	0.220	-0.088
-632.551	25.602	0.132	-0.112
-631.536	-34.732	-0.278	-0.156
-630.522	693.403	0.115	-0.307
-629.507	188.106	-0.157	0.240
-628.492	-200.000	-0.054	0.247
-627.478	78.057	-0.126	-0.138
-626.463	-58.792	-0.176	0.078
-625.449	-86.984	-0.068	-0.021
-624.434	516.672	-0.031	-0.074
-623.419	800.000	0.076	0.324
-622.405	800.000	-0.016	0.064
-621.390	-99.891	-0.221	-0.056
-620.376	-200.000	-0.047	0.292
-619.361	-102.183	-0.364	-0.089
-618.346	148.107	-0.140	-0.193
-617.332	-200.000	0.035	-0.188
-616.317	-63.691	0.268	-0.112
-615.303	710.377	0.055	-0.149
-614.288	-194.687	-0.107	-0.001
-613.273	-39.004	0.111	-0.060
-612.259	117.296	-0.124	-0.155
-611.244	177.073	-0.021	-0.032
-610.230	-150.554	-0.137	0.011
-609.215	-40.160	0.244	0.130
-608.201	-164.836	0.478	-0.022
-607.186	-6.834	0.167	0.116
-606.171	-36.672	-0.306	0.168
-605.157	-52.912	-0.281	-0.132
-604.142	231.012	-0.132	0.221
-603.128	-26.366	-0.195	-0.117
-602.113	24.213	-0.100	0.084
-601.098	-86.649	-0.357	-0.112
-600.084	800.000	-0.061	-0.254
-599.069	102.681	0.311	0.372
-598.055	-200.000	0.000	0.173
-597.040	-80.450	-0.088	-0.030
-596.025	-200.000	-0.033	-0.233
-595.011	-200.000	-0.003	-0.091
-593.996	158.300	-0.109	0.154
-592.982	800.000	0.036	-0.138
-591.967	670.238	-0.102	0.271
-590.952	589.116	-0.158	0.398
-589.938	-200.000	0.022	-0.301
-588.923	-135.950	0.158	0.019
-587.909	-114.932	0.157	0.030
-586.894	25.773	0.151	-0.128
-585.879	800.000	0.053	0.178
-584.865	-102.903	-0.156	-0.038
-583.850	-130.369	-0.378	0.052
-582.836	318.659	0.082	-0.159
-581.821	800.000	0.059	-0.203
-580.806	-27.701	-0.220	0.130
-579.792	800.000	-0.033	-0.146
-578.777	800.000	0.058	0.217
-577.763	-166.356	-0.238	-0.010
-576.748	-111.806	-0.175	0.036
-575.733	63.536	0.072	-0.074
-574.719	-25.918	-0.258	0.155
-573.704	-188.420	-0.346	-0.004
-572.690	657.231	0.083	0.219
-571.675	-111.120	0.273	0.057
-570.661	-144.938	-0.135	0.013
-569.646	-40.874	-0.169	-0.089
-568.631	-200.000	0.012	-0.165
-567.617	539.715	0.122	0.296
-566.602	45.092	0.178	0.167
-565.588	768.512	-0.108	-0.301
-564.573	-56.041	0.173	-0.079
-563.558	387.508	-0.101	-0.213
-562.544	79.616	-0.201	-0.220
-561.529	800.000	0.022	-0.074
-560.515	-172.139	-0.158	-0.005
-559.500	-200.000	-0.027	-0.130
-558.485	9.581	0.160	-0.123
-557.471	-106.835	-0.167	0.038
-556.456	592.786	-0.056	-0.141
-555.442	-22.838	-0.098	0.061
-554.427	-51.626	-0.082	-0.039
-553.412	31.944	-0.150	0.132
-552.398	-200.000	-0.000	0.029
-551.383	-200.000	0.004	0.068
-550.369	-200.000	-0.010	0.118
-549.354	72.143	0.199	-0.211
-548.339	160.534	-0.187	-0.265
-547.325	-27.462	0.105	0.062
-546.310	571.575	-0.108	0.268
-545.296	-200.000	-0.039	-0.353
-544.281	-32.330	0.477	-0.271
-543.266	792.604	-0.032	-0.088
-542.252	227.952	0.122	0.203
-541.237	-125.737	-0.162	0.025
-540.223	-200.000	-0.022	0.117
-539.208	117.371	-0.084	0.106
-538.193	65.740	-0.207	0.213
-537.179	112.781	0.078	-0.096
-536.164	23.571	-0.099	-0.083
-535.150	-58.420	0.272	-0.120
-534.135	149.873	0.130	0.179
-533.121	-75.110	-0.266	0.097
-532.106	-82.360	-0.189	0.063
-531.091	376.038	-0.065	0.135
-530.077	28.109	0.173	-0.149
-529.062	-58.769	0.302	-0.133
-528.048	182.202	0.130	-0.194
-527.033	-44.274	-0.128	0.065
-526.018	-100.733	0.211	0.053
-525.004	-200.000	-0.016	-0.104
-523.989	-54.412	-0.032	0.015
-522.975	407.465	-0.189	0.407
-521.960	-85.663	0.113	-0.036
-520.945	-200.000	0.004	-0.138
-519.931	-200.000	0.032	0.216
-518.916	-160.662	0.116	0.006
-517.902	-200.000	-0.021	0.144
-516.887	-45.525	0.239	0.121
-515.872	56.564	0.111	-0.110
-514.858	-20.351	-0.301	0.189
-513.843	341.028	0.134	0.265
-512.829	-78.830	0.341	0.118
-511.814	-173.299	0.268	0.008
-510.799	-200.000	-0.004	-0.057
-509.785	-200.000	-0.048	-0.432
-508.770	-26.697	0.173	0.103
-507.756	-200.000	-0.001	-0.217
-506.741	-200.000	-0.034	0.220
-505.726	148.688	0.225	0.309
-504.712	-140.623	-0.114	-0.012
-503.697	-172.809	0.144	0.005
-502.683	-97.095	0.024	0.006
-501.668	132.503	-0.168	-0.221
-500.653	7.908	0.318	-0.242
-499.639	-142.568	-0.202	-0.020
-498.624	599.147	0.114	-0.288
-497.610	-40.955	0.223	-0.117
-496.595	-25.685	-0.159	0.095
-495.581	14.391	0.109	-0.087
-494.566	-85.485	-0.115	0.036
-493.551	-98.855	-0.142	0.037
-492.537	-200.000	-0.090	0.418
-491.522	-160.374	0.390	0.021
-490.508	-40.118	-0.198	-0.105
-489.493	-50.525	0.230	0.110
-488.478	800.000	-0.120	0.375
-487.464	-74.507	0.063	0.023
-486.449	-100.569	0.250	-0.063
-485.435	800.000	0.020	0.078
-484.420	800.000	0.079	-0.333
-483.405	-130.701	0.179	-0.024
-482.391	-53.480	0.280	-0.130
-481.376	-141.837	-0.150	-0.015
-480.362	-200.000	0.054	-0.284
-479.347	51.942	0.226	-0.219
-478.332	119.066	-0.062	0.077
-477.318	54.445	0.088	-0.086
-476.303	-176.085	-0.106	0.003
-475.289	88.271	-0.162	-0.183
-474.274	-0.671	-0.254	-0.183
-473.259	-2.262	-0.192	-0.137
-472.245	34.280	-0.238	-0.211
-471.230	122.010	0.025	-0.032
-470.216	94.630	-0.026	-0.030
-469.201	800.000	0.035	-0.150
-468.186	-147.360	0.297	-0.026
-467.172	198.308	0.113	-0.175
-466.157	-200.000	-0.016	0.120
-465.143	37.190	-0.199	0.179
-464.128	64.277	0.188	-0.192
-463.113	0.875	-0.365	0.266
-462.099	38.030	-0.053	0.048
-461.084	-1.734	-0.286	0.204
-460.070	-200.000	-0.010	0.138
-459.055	-200.000	-0.018	0.203
-458.040	-200.000	0.018	-0.103
-457.026	-77.503	-0.284	-0.100
-456.011	800.000	0.091	-0.307
-454.997	0.257	0.253	0.183
-453.982	-125.134	-0.033	-0.005
-452.968	72.886	-0.214	-0.227
-451.953	-71.399	-0.121	-0.046
-450.938	88.420	-0.118	0.133
-449.924	74.054	-0.054	0.057
-448.909	800.000	-0.152	-0.659
-447.895	-200.000	0.047	0.271
-446.880	490.423	-0.100	0.232
-445.865	204.833	-0.105	0.165
-444.851	-78.891	-0.170	0.059
-443.836	-110.014	0.242	0.051
-442.822	-129.603	-0.085	-0.012
-441.807	9.429	-0.059	-0.045
-440.792	-200.000	-0.019	-0.224
-439.778	800.000	0.059	0.220
-438.763	-200.000	0.030	-0.177
-437.749	-42.780	-0.024	-0.012
-436.734	192.757	-0.173	-0.265
-435.719	151.454	-0.145	0.201
-434.705	35.999	0.255	-0.228
-433.690	-144.242	-0.037	-0.004
-432.676	-88.854	0.194	-0.058
-431.661	-200.000	0.025	-0.457
-430.646	298.489	0.078	-0.146
-429.632	187.451	-0.129	-0.195
-428.617	-120.748	0.499	-0.086
-427.603	229.199	0.051	-0.084
-426.588	25.042	0.072	0.060
-425.573	99.295	0.063	-0.074
-424.559	-200.000	0.058	-0.276
-423.544	-200.000	-0.036	-0.232
-422.530	-30.297	0.054	-0.031
-421.515	81.483	0.070	-0.077
-420.500	800.000	-0.034	-0.137
-419.486	57.917	0.373	-0.370
-418.471	-118.093	-0.178	0.032
-417.457	-51.566	-0.300	-0.142
-416.442	62.658	0.181	0.183
-415.428	-98.310	0.413	-0.107
-414.413	800.000	-0.059	-0.211
-413.398	-58.182	0.190	0.084
-412.384	-200.000	-0.023	0.103
-411.369	-39.110	-0.299	0.160
-410.355	-200.000	0.313	0.001
-409.340	37.222	0.274	-0.246
-408.325	138.528	-0.094	-0.125
-407.311	800.000	0.028	0.093
-406.296	-200.000	0.005	0.259
-405.282	37.762	-0.104	0.094
-404.267	-135.715	0.439	-0.053
-403.252	384.291	0.136	0.283
-402.238	800.000	0.057	0.170
-401.223	800.000	0.010	0.035
-400.209	174.444	0.086	-0.125
-399.194	57.599	-0.235	-0.233
-398.179	-147.351	0.326	0.028
-397.165	197.573	0.136	-0.211
-396.150	567.838	-0.192	0.472
-395.136	147.822	0.088	0.121
-394.121	-34.201	0.327	0.182
-393.106	54.260	-0.116	-0.114
-392.092	800.000	-0.045	0.150
-391.077	78.091	0.177	0.191
-390.063	194.902	-0.238	-0.365
-389.048	800.000	0.070	-0.286
-388.033	-200.000	-0.004	-0.199
-387.019	-82.501	-0.179	-0.059
-386.004	-200.000	-0.056	0.379
-384.990	263.760	-0.137	0.242
-383.975	98.860	-0.078	0.091
-382.960	600.408	0.061	-0.153
-381.946	-14.777	-0.352	-0.228
-380.931	159.120	0.232	0.327
-379.917	-200.000	0.037	0.244
-378.902	-49.766	-0.149	0.072
-377.888	-200.000	-0.057	-0.275
-376.873	258.696	-0.149	0.260
-375.858	-39.282	0.017	0.009
-374.844	-9.269	-0.145	0.098
-373.829	800.000	0.002	0.008
-372.815	-103.251	0.125	-0.030
-371.800	-67.471	0.300	0.119
-370.785	22.167	0.256	-0.211
-369.771	-200.000	0.008	-0.060
-368.756	-70.275	-0.105	0.040
-367.742	1.290	-0.054	-0.039
-366.727	-200.000	0.017	0.140
-365.712	39.182	-0.068	0.061
-364.698	-83.504	-0.037	0.012
-363.683	-200.000	0.025	-0.144
-362.669	88.162	0.139	0.156
-361.654	-200.000	0.022	0.234
-360.639	-0.304	0.180	-0.130
-359.625	800.000	0.027	-0.112
-358.610	-200.000	-0.005	0.200
-357.596	-200.000	0.025	0.118
-356.581	-55.922	0.068	0.031
-355.566	146.389	-0.195	0.265
-354.552	190.939	-0.254	0.386
-353.537	-200.000	-0.018	0.139
-352.523	800.000	-0.069	-0.213
-351.508	-200.000	0.001	-0.161
-350.493	195.798	-0.043	-0.066
-349.479	-200.000	-0.011	0.076
-348.464	132.003	0.143	0.185
-347.450	-200.000	0.025	0.337
-346.435	89.215	0.134	0.151
-345.420	-200.000	0.068	-0.365
-344.406	22.459	-0.335	0.276
-343.391	-94.973	0.271	-0.074
-342.377	99.342	0.042	-0.049
-341.362	-53.036	-0.324	0.151
-340.348	53.450	0.214	-0.207
-339.333	70.131	-0.135	0.141
-338.318	800.000	0.065	0.222
-337.304	-111.370	0.072	-0.015
-336.289	-41.028	0.195	0.102
-335.275	-200.000	0.013	-0.077
-334.260	65.835	-0.210	-0.215
-333.245	-34.585	-0.398	-0.220
-332.231	-200.000	0.045	-0.210
-331.216	-200.000	0.099	-0.462
-330.202	-170.377	0.193	0.007
-329.187	-200.000	0.015	-0.131
-328.172	-182.595	0.111	-0.002
-327.158	-52.291	0.360	-0.168
-326.143	800.000	0.063	0.201
-325.129	155.861	-0.257	0.358
-324.114	-51.785	0.022	0.011
-323.099	442.652	0.080	-0.177
-322.085	463.800	0.061	-0.138
-321.070	462.865	-0.168	-0.378
-320.056	173.875	0.139	0.203
-319.041	-200.000	-0.032	0.206
-318.026	-70.892	0.312	-0.119
-317.012	-36.055	-0.172	-0.094
-315.997	7.754	-0.188	-0.142
-314.983	331.788	0.054	-0.106
-313.968	239.446	0.260	0.436
-312.953	42.488	0.203	0.186
-311.939	800.000	0.073	0.240
-310.924	224.605	-0.052	-0.085
-309.910	-48.507	-0.172	0.084
-308.895	207.824	0.042	-0.066
-307.880	419.418	-0.109	-0.235
-306.866	-33.399	0.129	-0.072
-305.851	7.275	0.064	-0.048
-304.837	-200.000	-0.012	0.127
-303.822	-43.063	-0.178	-0.091
-302.807	-58.873	0.203	-0.089
-301.793	-200.000	0.003	-0.185
-300.778	-70.429	-0.167	0.064
-299.764	-200.000	-0.012	0.106
-298.749	150.161	-0.072	-0.098
-297.735	800.000	0.022	-0.075
-296.720	176.833	-0.047	-0.070
-295.705	-200.000	-0.034	0.293
-294.691	41.218	0.243	0.222
-293.676	-200.000	0.007	0.129
-292.662	-200.000	0.032	0.160
-291.647	-133.615	-0.333	0.042
-290.632	74.630	0.161	0.171
-289.618	321.133	-0.096	-0.184
-288.603	-200.000	-0.008	-0.409
-287.589	-85.519	0.076	0.024
-286.574	-100.686	-0.254	0.063
-285.559	-29.096	0.250	0.145
-284.545	47.094	0.047	0.044
-283.530	-131.702	-0.262	0.035
-282.516	-156.338	-0.202	-0.013
-281.501	709.603	0.070	-0.187
-280.486	-163.352	-0.213	-0.010
-279.472	-200.000	-0.019	-0.104
-278.457	-114.146	0.106	-0.021
-277.443	-13.940	-0.112	-0.073
-276.428	286.502	0.101	-0.183
-275.413	87.304	-0.057	0.064
-274.399	-55.134	0.043	0.019
-273.384	-200.000	0.008	0.585
-272.370	89.776	0.032	0.036
-271.355	-186.009	0.327	-0.005
-270.340	-91.549	0.216	0.062
-269.326	621.359	0.105	0.267
-268.311	-20.164	-0.148	0.092
-267.297	-64.672	-0.089	-0.036
-266.282	203.231	0.061	0.095
-265.267	241.930	0.084	-0.141
-264.253	-104.448	0.451	0.105
-263.238	-58.932	0.329	0.143
-262.224	-38.630	0.193	-0.103
-261.209	-200.000	-0.066	-0.307
-260.195	-6.581	0.065	0.044
-259.180	710.522	0.051	-0.136
-258.165	-200.000	-0.020	-0.229
-257.151	615.686	0.023	-0.058
-256.136	-200.000	-0.022	0.121
-255.122	-68.819	-0.224	-0.087
-254.107	800.000	-0.109	-0.337
-253.092	-52.590	0.185	-0.086
-252.078	94.648	-0.118	0.135
-251.063	163.704	-0.091	-0.130
-250.049	366.199	0.120	0.243
-249.034	-200.000	0.014	-0.109
-248.019	-115.446	-0.106	0.020
-247.005	57.133	0.158	0.156
-245.990	380.483	-0.060	-0.124
-244.976	51.804	0.188	0.180
-243.961	-107.131	0.165	-0.037
-242.946	-60.294	-0.184	-0.079
-241.932	492.974	-0.049	-0.114
-240.917	-39.215	-0.184	0.098
-239.903	-63.387	0.118	0.049
-238.888	22.456	-0.088	-0.072
-237.873	-200.000	0.099	-0.519
-236.859	443.394	-0.105	0.231
-235.844	-200.000	0.021	0.168
-234.830	-68.311	-0.065	0.025
-233.815	141.757	0.042	0.056
-232.800	679.126	0.117	0.305
-231.786	-49.351	-0.289	-0.139
-230.771	-200.000	-0.015	0.228
-229.757	303.130	-0.077	0.143
-228.742	70.541	0.140	-0.146
-227.727	146.534	-0.151	0.204
-226.713	-45.450	-0.229	-0.114
-225.698	-38.522	0.064	-0.034
-224.684	-37.220	0.218	0.117
-223.669	-31.209	0.076	0.043
-222.655	-200.000	0.006	-0.163
-221.640	5.311	-0.044	-0.032
-220.625	228.041	0.089	0.145
-219.611	-36.521	0.320	0.173
-218.596	11.460	-0.232	-0.179
-217.582	-3.086	0.040	0.028
-216.567	-58.044	-0.277	-0.122
-215.552	-120.636	-0.201	0.034
-214.538	-200.000	-0.043	0.191
-213.523	800.000	0.098	0.329
-212.509	-10.707	0.099	0.066
-211.494	-90.755	0.128	-0.037
-210.479	21.699	0.134	-0.110
-209.465	298.524	-0.220	0.407
-208.450	800.000	-0.141	-0.463
-207.436	800.000	0.060	-0.243
-206.421	-111.209	-0.211	0.043
-205.406	-63.520	0.037	-0.015
-204.392	336.275	0.080	0.157
-203.377	-200.000	-0.131	0.000
-202.363	800.000	0.039	0.166
-201.348	12.600	0.119	0.093
-200.333	800.000	0.121	0.355
-199.319	75.764	0.151	0.160
-198.304	800.000	-0.086	-0.370
-197.290	-200.000	0.052	-0.243
-196.275	-200.000	0.013	0.228
-195.260	-1.514	-0.315	-0.224
-194.246	86.606	-0.199	0.221
-193.231	-26.142	0.190	-0.112
-192.217	6.393	0.205	-0.153
-191.202	122.090	-0.126	0.158
-190.187	140.231	0.161	-0.213
-189.173	36.513	-0.195	0.173
-188.158	-109.133	-0.327	-0.070
-187.144	-133.048	0.128	-0.016
-186.129	-31.693	0.550	0.310
-185.114	800.000	-0.107	0.402
-184.100	-43.475	-0.364	0.184
-183.085	-87.269	-0.283	-0.086
-182.071	144.176	0.030	0.041
-181.056	-200.000	0.025	0.156
-180.042	45.328	-0.139	-0.128
-179.027	-200.000	-0.000	0.359
-178.012	737.360	-0.139	0.375
-176.998	-200.000	0.002	-0.040
-175.983	310.427	-0.041	0.077
-174.969	-200.000	-0.031	0.279
-173.954	-25.436	-0.177	0.105
-172.939	-28.863	-0.130	-0.075
-171.925	-200.000	0.015	-0.243
-170.910	180.165	0.031	-0.046
-169.896	30.776	0.266	-0.229
-168.881	-103.708	-0.473	-0.111
-167.866	-1.699	0.121	-0.086
-166.852	-200.000	-0.055	0.287
-165.837	-18.399	-0.138	0.087
-164.823	-170.327	-0.340	0.012
-163.808	-200.000	0.013	0.150
-162.793	291.647	-0.169	0.309
-161.779	-52.874	-0.267	0.124
-160.764	-200.000	0.049	-0.236
-159.750	-200.000	-0.009	-0.126
-158.735	47.416	-0.131	-0.122
-157.720	313.217	-0.129	0.243
-156.706	632.013	-0.090	0.230
-155.691	132.825	0.199	-0.258
-154.677	-152.659	-0.093	-0.007
-153.662	204.606	-0.140	-0.218
-152.647	-90.935	-0.092	0.027
-151.633	-200.000	0.007	-0.117
-150.618	-51.408	0.256	-0.120
-149.604	-49.575	-0.203	0.097
-148.589	-200.000	-0.015	0.246
-147.574	609.189	0.096	0.240
-146.560	800.000	0.151	-0.480
-145.545	71.255	0.296	-0.308
-144.531	16.501	0.303	-0.240
-143.516	172.503	-0.143	0.206
-142.502	531.093	-0.179	-0.425
-141.487	-94.378	-0.105	-0.029
-140.472	-157.872	-0.337	0.020
-139.458	-100.593	0.154	0.038
-138.443	-200.000	-0.020	-0.322
-137.429	-200.000	0.026	0.142
-136.414	40.216	0.183	0.165
-135.399	-145.666	-0.252	0.023
-134.385	-70.840	0.364	-0.137
-133.370	-200.000	-0.076	0.379
-132.356	-61.074	0.037	0.016
-131.341	-104.533	-0.190	0.044
-130.326	57.263	0.310	0.304
-129.312	-126.506	0.168	-0.025
-128.297	-60.274	0.299	0.127
-127.283	60.965	-0.066	0.065
-126.268	608.807	-0.184	0.461
-125.253	237.074	0.088	-0.146
-124.239	-37.942	0.076	0.040
-123.224	-200.000	0.048	0.220
-122.210	-200.000	0.055	0.299
-121.195	96.864	-0.161	-0.185
-120.180	-200.000	-0.007	-0.054
-119.166	-58.050	-0.124	-0.054
-118.151	-54.266	-0.142	0.065
-117.137	-165.256	0.164	-0.007
-116.122	-200.000	0.017	-0.148
-115.107	-23.149	-0.117	-0.071
-114.093	-109.259	-0.374	-0.079
-113.078	-120.767	0.209	-0.035
-112.064	-200.000	-0.011	0.212
-111.049	183.751	0.165	0.245
-110.034	0.709	0.284	0.203
-109.020	193.695	-0.073	-0.111
-108.005	31.336	0.137	0.118
-106.991	800.000	-0.030	0.087
-105.976	-127.333	0.176	-0.026
-104.962	-200.000	0.013	-0.159
-103.947	-137.112	0.208	-0.024
-102.932	598.044	-0.107	0.265
-101.918	-160.862	0.155	-0.008
-100.903	-4.189	0.173	0.120
-99.889	196.683	-0.043	0.065
-98.874	-77.417	-0.249	-0.086
-97.859	26.904	-0.277	-0.232
-96.845	-200.000	0.011	-0.367
-95.830	265.668	0.197	-0.344
-94.816	-200.000	-0.027	-0.167
-93.801	125.982	-0.136	0.172
-92.786	-129.305	-0.312	-0.043
-91.772	-108.634	-0.299	0.064
-90.757	120.212	0.067	-0.083
-89.743	-96.594	0.211	-0.056
-88.728	-133.597	0.263	0.033
-87.713	607.936	-0.138	-0.345
-86.699	800.000	0.112	-0.329
-85.684	-97.584	0.365	0.095
-84.670	71.710	-0.116	-0.121
-83.655	311.917	0.039	0.073
-82.640	-200.000	-0.025	0.273
-81.626	-23.322	-0.008	-0.005
-80.611	-93.216	-0.233	-0.065
-79.597	-200.000	-0.013	0.063
-78.582	58.903	0.028	0.028
-77.567	62.713	0.174	0.174
-76.553	-160.550	-0.085	-0.005
-75.538	588.097	0.109	0.269
-74.524	800.000	0.071	0.255
-73.509	-59.544	-0.156	-0.067
-72.494	-74.827	-0.243	-0.087
-71.480	-88.110	0.143	0.043
-70.465	-44.933	-0.118	-0.059
-69.451	-98.032	0.047	-0.012
-68.436	-144.292	-0.122	-0.011
-67.422	-189.344	0.140	-0.002
-66.407	-87.396	-0.171	-0.052
-65.392	-200.000	0.025	-0.247
-64.378	18.509	0.255	-0.204
-63.363	-48.731	0.251	0.120
-62.349	495.359	0.031	0.071
-61.334	115.733	-0.682	-0.834
-60.319	126.451	0.317	0.402
-59.305	-200.000	0.073	-0.652
-58.290	168.181	0.487	0.692
-57.276	800.000	0.574	1.640
-56.261	-200.000	75.875	523.708
-55.246	549.629	1308.277	3134.303
-54.232	145.376	2543.192	3402.608
-53.217	112.049	2361.435	2851.295
-52.203	49.619	2100.846	1977.108
-51.188	44.352	2008.442	1842.481
-50.173	42.582	1989.471	1809.080
-49.159	55.410	2026.763	1959.548
-48.144	60.580	2046.744	2025.627
-47.130	45.255	2011.741	1853.413
-46.115	42.490	2000.748	1818.215
-45.100	42.270	1997.979	1813.642
-44.086	42.335	1995.851	1812.219
-43.071	42.304	1993.329	1809.577
-42.057	42.250	1991.273	1807.151
-41.042	42.218	1989.610	1805.288
-40.027	42.245	1987.857	1803.867
-39.013	42.279	1985.624	1802.071
-37.998	42.237	1983.464	1799.670
-36.984	42.415	1981.278	1799.205
-35.969	42.349	1980.244	1797.607
-34.954	42.311	1978.620	1795.716
-33.940	42.389	1977.353	1795.198
-32.925	42.409	1975.187	1793.337
-31.911	42.361	1973.343	1791.164
-30.896	42.398	1971.714	1789.945
-29.881	42.426	1970.025	1788.589
-28.867	42.407	1968.706	1787.147
-27.852	42.399	1966.955	1785.424
-26.838	42.402	1965.038	1783.636
-25.823	42.456	1962.702	1781.923
-24.809	42.422	1961.234	1780.222
-23.794	42.519	1959.282	1779.233
-22.779	42.437	1957.597	1776.907
-21.765	42.422	1955.981	1775.241
-20.750	42.381	1954.581	1773.534
-19.736	42.396	1953.623	1772.725
-18.721	42.374	1951.962	1770.957
-17.706	42.334	1950.244	1768.976
-16.692	42.400	1948.155	1767.591
-15.677	42.381	1946.628	1765.967
-14.663	42.385	1945.066	1764.514
-13.648	42.408	1943.968	1763.652
-12.633	42.454	1942.435	1762.592
-11.619	42.343	1941.277	1760.505
-10.604	42.348	1939.763	1759.102
-9.590	42.337	1938.461	1757.758
-8.575	42.342	1937.097	1756.496
-7.560	42.357	1935.453	1755.066
-6.546	42.305	1934.648	1753.810
-5.531	42.431	1932.808	1753.168
-4.517	42.416	1931.505	1751.787
-3.502	42.422	1930.564	1750.920
-2.487	42.382	1929.689	1749.704
-1.473	42.285	1928.865	1748.048
-0.458	42.467	1923.950	1745.100
0.556	41.090	1904.011	1712.416
1.571	35.970	1880.544	1647.504
2.586	30.843	1899.583	1619.586
3.600	29.233	1935.658	1635.918
4.615	28.279	1931.950	1624.187
5.629	21.413	1828.317	1479.065
6.644	8.765	1699.453	1274.630
7.659	1.937	1654.883	1188.037
8.673	1.353	1651.095	1180.671
9.688	1.310	1649.598	1179.162
10.702	1.286	1647.696	1177.511
11.717	1.111	1644.741	1173.937
12.731	1.483	1643.931	1176.140
13.746	8.698	1662.359	1245.509
14.761	19.657	1686.555	1349.593
15.775	24.616	1694.713	1394.816
16.790	25.271	1695.186	1400.194
17.804	25.399	1694.767	1400.719
18.819	25.355	1694.197	1399.788
19.834	25.436	1693.431	1399.661
20.848	25.611	1693.073	1400.599
21.863	25.672	1691.852	1399.939
22.877	25.613	1691.150	1398.777
23.892	25.642	1690.219	1398.111
24.907	25.701	1688.983	1397.420
25.921	25.612	1688.783	1396.442
26.936	25.676	1687.019	1395.357
27.950	25.716	1686.140	1394.812
28.965	25.665	1685.459	1393.737
29.980	25.754	1684.490	1393.497
30.994	25.740	1682.954	1391.997
32.009	25.758	1681.845	1391.092
33.023	25.757	1680.760	1390.068
34.038	25.674	1680.096	1388.758
35.053	25.665	1678.735	1387.440
36.067	25.723	1677.823	1387.009
37.082	25.751	1676.582	1386.074
38.096	25.750	1675.552	1385.096
39.111	25.711	1675.101	1384.295
40.126	25.709	1674.272	1383.473
41.140	25.642	1674.009	1382.619
42.155	25.661	1672.299	1381.231
43.169	25.603	1671.122	1379.692
44.184	25.604	1670.234	1378.841
45.199	25.608	1669.199	1377.897
46.213	25.650	1668.123	1377.207
47.228	25.634	1667.104	1376.122
48.242	25.635	1665.858	1374.982
49.257	25.701	1664.826	1374.513
50.271	25.639	1663.701	1372.985
51.286	25.679	1663.019	1372.607
52.301	25.700	1660.979	1370.961
53.315	25.580	1660.309	1369.375
54.330	25.633	1658.749	1368.374
55.344	25.725	1656.610	1367.181
56.359	25.768	1655.097	1366.142
57.374	25.592	1655.190	1364.761
58.388	25.766	1653.285	1364.385
59.403	25.766	1652.421	1363.551
60.417	25.651	1651.687	1361.956
61.432	25.649	1650.972	1361.234
62.447	25.703	1649.618	1360.403
63.461	25.660	1648.767	1359.255
64.476	25.667	1647.798	1358.389
65.490	25.670	1647.000	1357.635
66.505	25.668	1645.551	1356.305
67.520	25.727	1644.582	1355.833
68.534	25.651	1643.753	1354.457
69.549	25.603	1642.813	1353.203
70.563	25.687	1641.259	1352.435
71.578	25.788	1639.539	1351.652
72.593	25.740	1639.166	1350.866
73.607	25.688	1638.184	1349.550
74.622	25.758	1637.147	1349.101
75.636	25.688	1636.363	1347.812
76.651	25.674	1636.067	1347.341
77.666	25.674	1635.108	1346.433
78.680	25.669	1634.072	1345.421
79.695	25.635	1633.128	1344.272
80.709	25.725	1632.169	1344.035
81.724	25.704	1631.427	1343.146
82.739	25.694	1630.748	1342.394
83.753	25.703	1629.777	1341.548
84.768	25.637	1629.113	1340.388
85.782	25.719	1628.157	1340.090
86.797	25.639	1627.370	1338.729
87.812	25.724	1626.306	1338.371
88.826	25.699	1625.147	1337.111
89.841	25.780	1624.028	1336.677
90.855	25.710	1623.392	1335.512
91.870	25.764	1621.883	1334.551
92.884	25.711	1621.192	1333.471
93.899	25.783	1620.048	1332.947
94.914	25.770	1618.935	1331.821
95.928	25.748	1618.034	1330.796
96.943	25.828	1616.473	1329.982
97.957	25.745	1614.855	1327.924
98.972	25.759	1614.387	1327.529
99.987	25.766	1612.701	1326.076
101.001	25.705	1611.691	1324.679
102.016	25.746	1609.614	1323.151
103.030	25.788	1608.045	1322.058
104.045	25.714	1607.759	1321.163
105.060	25.756	1606.073	1319.968
106.074	25.675	1605.564	1318.835
107.089	25.798	1603.854	1318.218
108.103	25.726	1602.733	1316.650
109.118	25.789	1601.771	1316.206
110.133	25.830	1600.651	1315.471
111.147	25.788	1599.603	1314.184
112.162	25.820	1598.463	1313.364
113.176	25.776	1597.177	1311.869
114.191	25.854	1595.765	1311.166
115.206	25.831	1594.839	1310.115
116.220	25.775	1593.809	1308.750
117.235	25.779	1592.701	1307.753
118.249	25.742	1591.434	1306.329
119.264	25.778	1590.220	1305.478
120.279	25.635	1589.586	1303.806
121.293	25.766	1587.872	1303.232
122.308	25.818	1586.982	1302.759
123.322	25.806	1585.654	1301.467
124.337	25.835	1583.969	1300.180
125.352	25.927	1582.978	1299.916
126.366	25.791	1582.575	1298.488
127.381	25.796	1581.808	1297.784
128.395	25.899	1580.527	1297.355
129.410	25.939	1579.367	1296.579
130.424	25.923	1578.434	1295.581
131.439	25.827	1577.430	1293.954
132.454	25.908	1575.966	1293.223
133.468	25.903	1574.597	1291.947
134.483	25.821	1573.912	1290.684
135.497	25.845	1572.404	1289.504
136.512	25.835	1571.311	1288.418
137.527	25.968	1570.057	1288.227
138.541	25.945	1568.994	1287.079
139.556	25.977	1567.741	1286.167
140.570	25.881	1566.580	1284.418
141.585	25.936	1565.370	1283.704
142.600	25.850	1564.576	1282.323
143.614	25.902	1563.328	1281.561
144.629	25.906	1562.402	1280.713
145.643	25.926	1561.009	1279.602
146.658	25.894	1559.446	1277.983
147.673	25.792	1558.451	1276.326
148.687	25.865	1557.723	1276.138
149.702	25.895	1556.460	1275.201
150.716	25.856	1554.839	1273.482
151.731	25.930	1553.604	1272.881
152.746	25.860	1553.079	1271.843
153.760	25.824	1551.889	1270.501
154.775	25.873	1550.806	1269.853
155.789	25.929	1549.708	1269.234
156.804	25.886	1548.972	1268.220
157.819	26.019	1547.872	1268.141
158.833	25.838	1547.092	1266.113
159.848	25.782	1546.226	1264.905
160.862	25.936	1545.044	1264.900
161.877	25.904	1543.780	1263.531
162.892	26.053	1542.796	1263.657
163.906	26.003	1542.224	1262.730
164.921	25.944	1540.984	1261.190
165.935	25.971	1540.139	1260.572
166.950	25.942	1539.649	1259.856
167.964	26.020	1538.184	1259.092
168.979	26.003	1537.147	1258.015
169.994	26.023	1536.544	1257.549
171.008	26.037	1535.666	1256.816
172.023	25.933	1534.822	1255.290
173.037	25.946	1533.997	1254.594
174.052	26.041	1532.488	1253.908
175.067	26.015	1531.683	1252.959
176.081	25.966	1531.112	1252.040
177.096	26.036	1529.574	1251.161
178.110	25.969	1528.878	1250.017
179.125	26.005	1527.399	1248.946
180.140	26.020	1526.539	1248.237
181.154	26.009	1526.129	1247.709
182.169	26.104	1525.166	1247.474
183.183	26.069	1524.266	1246.382
184.198	25.986	1523.240	1244.858
185.213	26.033	1522.391	1244.379
186.227	26.090	1521.161	1243.659
187.242	26.135	1520.725	1243.499
188.256	26.108	1520.176	1242.760
189.271	26.049	1519.524	1241.710
190.286	26.108	1518.282	1240.987
191.300	26.153	1516.873	1240.038
192.315	26.071	1516.371	1238.955
193.329	26.087	1515.530	1238.268
194.344	26.062	1514.994	1237.551
195.359	26.097	1513.612	1236.546
196.373	26.162	1512.923	1236.321
197.388	26.023	1512.052	1234.549
198.402	26.085	1511.260	1234.216
199.417	25.971	1510.365	1232.600
200.432	26.027	1509.582	1232.236
201.446	26.045	1509.055	1231.819
202.461	25.993	1508.084	1230.562
203.475	26.124	1507.144	1230.577
204.490	26.086	1506.210	1229.444
205.504	26.157	1505.074	1228.893
206.519	26.040	1504.164	1227.248
207.534	26.100	1503.353	1226.885
208.548	26.135	1502.446	1226.276
209.563	26.183	1501.744	1225.915
210.577	26.269	1500.570	1225.436
211.592	26.253	1500.211	1224.927
212.607	26.145	1499.483	1223.491
213.621	26.139	1498.693	1222.695
214.636	26.258	1497.923	1222.768
215.650	26.177	1496.743	1221.147
216.665	26.188	1496.098	1220.586
217.680	26.268	1495.154	1220.247
218.694	26.228	1494.667	1219.469
219.709	26.236	1494.233	1219.067
220.723	26.296	1492.788	1218.181
221.738	26.307	1492.040	1217.538
222.753	26.257	1491.496	1216.650
223.767	26.197	1490.237	1215.112
224.782	26.146	1489.463	1214.030
225.796	26.213	1488.298	1213.426
226.811	26.242	1487.972	1213.246
227.826	26.258	1487.502	1212.863
228.840	26.248	1486.712	1212.042
229.855	26.270	1486.359	1211.794
230.869	26.239	1485.271	1210.595
231.884	26.247	1484.412	1209.840
232.899	26.293	1483.306	1209.137
233.913	26.224	1482.565	1207.965
234.928	26.278	1481.266	1207.161
235.942	26.344	1480.093	1206.539
236.957	26.440	1479.015	1206.194
237.972	26.343	1478.027	1204.635
238.986	26.293	1477.299	1203.600
240.001	26.404	1476.189	1203.330
241.015	26.363	1475.209	1202.151
242.030	26.323	1474.307	1201.042
243.045	26.480	1473.181	1201.066
244.059	26.495	1472.383	1200.405
245.074	26.443	1471.596	1199.313
246.088	26.508	1470.758	1198.955
247.103	26.567	1469.730	1198.404
248.117	26.509	1469.896	1198.045
249.132	26.471	1468.564	1196.601
250.147	26.491	1467.718	1195.942
251.161	26.573	1467.230	1195.977
252.176	26.642	1466.333	1195.598
253.190	26.640	1465.459	1194.765
254.205	26.561	1464.901	1193.687
255.220	26.581	1463.916	1192.908
256.234	26.577	1463.331	1192.302
257.249	26.591	1462.811	1191.860
258.263	26.563	1461.936	1190.861
259.278	26.553	1461.183	1190.074
260.293	26.506	1460.320	1188.962
261.307	26.583	1459.553	1188.733
262.322	26.636	1458.329	1187.979
263.336	26.676	1458.030	1187.895
264.351	26.689	1456.962	1187.004
265.366	26.621	1456.092	1185.743
266.380	26.632	1455.315	1185.076
267.395	26.631	1454.470	1184.279
268.409	26.678	1453.235	1183.477
269.424	26.655	1452.588	1182.696
270.439	26.668	1451.846	1182.068
271.453	26.662	1451.166	1181.371
272.468	26.634	1450.271	1180.360
273.482	26.689	1449.323	1179.838
274.497	26.602	1448.919	1178.840
275.512	26.612	1448.069	1178.107
276.526	26.613	1447.582	1177.618
277.541	26.734	1446.401	1177.332
278.555	26.728	1445.325	1176.316
279.570	26.820	1444.735	1176.327
280.585	26.754	1443.476	1174.775
281.599	26.755	1442.917	1174.218
282.614	26.752	1441.971	1173.326
283.628	26.812	1441.034	1172.847
284.643	26.762	1439.944	1171.535
285.657	26.754	1439.441	1170.968
286.672	26.778	1438.890	1170.575
287.687	26.764	1437.877	1169.552
288.701	26.777	1436.460	1168.381
289.716	26.779	1436.157	1168.045
290.730	26.853	1435.791	1168.123
291.745	26.774	1434.867	1166.756
292.760	26.918	1433.560	1166.515
293.774	26.906	1432.557	1165.521
294.789	26.786	1432.304	1164.444
295.803	26.901	1431.516	1164.435
296.818	26.847	1430.757	1163.367
297.833	26.934	1429.437	1162.754
298.847	26.880	1429.131	1162.054
299.862	26.863	1428.168	1161.058
300.876	26.991	1426.905	1160.747
301.891	26.994	1426.295	1160.167
302.906	26.982	1425.736	1159.531
303.920	27.000	1425.116	1159.042
304.935	26.911	1424.470	1157.844
305.949	27.004	1423.744	1157.744
306.964	26.974	1422.674	1156.580
307.979	26.999	1421.822	1155.945
308.993	27.026	1421.046	1155.385
310.008	27.096	1420.626	1155.384
311.022	27.112	1418.903	1153.982
312.037	27.108	1417.919	1153.057
313.052	27.027	1417.605	1152.184
314.066	27.062	1416.457	1151.372
315.081	27.072	1415.474	1150.536
316.095	27.016	1414.593	1149.363
317.110	27.120	1413.523	1149.048
318.125	27.164	1412.842	1148.671
319.139	27.081	1412.292	1147.598
320.154	27.046	1411.674	1146.776
321.168	27.163	1410.294	1146.293
322.183	27.092	1409.835	1145.366
323.197	27.084	1409.188	1144.688
324.212	27.099	1408.205	1143.883
325.227	27.204	1407.297	1143.707
326.241	27.267	1406.137	1143.061
327.256	27.215	1405.594	1142.191
328.270	27.191	1405.096	1141.533
329.285	27.190	1404.275	1140.756
330.300	27.238	1403.785	1140.560
331.314	27.254	1402.405	1139.440
332.329	27.158	1401.943	1138.363
333.343	27.138	1401.480	1137.761
334.358	27.186	1400.749	1137.364
335.373	27.360	1399.693	1137.495
336.387	27.335	1399.364	1136.969
337.402	27.316	1398.372	1135.947
338.416	27.390	1397.548	1135.637
339.431	27.426	1396.989	1135.310
340.446	27.314	1396.711	1134.285
341.460	27.290	1395.682	1133.196
342.475	27.402	1394.555	1132.878
343.489	27.580	1393.498	1133.027
344.504	27.508	1392.423	1131.603
345.519	27.337	1392.144	1130.215
346.533	27.415	1391.102	1129.756
347.548	27.441	1390.288	1129.154
348.562	27.374	1389.750	1128.204
349.577	27.453	1388.981	1127.969
350.592	27.441	1388.468	1127.377
351.606	27.457	1387.608	1126.677
352.621	27.396	1386.133	1125.003
353.635	27.364	1385.441	1124.148
354.650	27.512	1384.627	1124.296
355.665	27.469	1383.855	1123.304
356.679	27.442	1382.776	1122.163
357.694	27.639	1381.511	1122.249
358.708	27.499	1381.011	1120.885
359.723	27.460	1379.868	1119.620
360.738	27.497	1378.447	1118.590
361.752	27.536	1377.530	1117.988
362.767	27.657	1375.876	1117.287
363.781	27.637	1375.345	1116.638
364.796	27.642	1374.813	1116.138
365.810	27.591	1374.306	1115.314
366.825	27.606	1373.787	1114.885
367.840	27.645	1372.846	1114.263
368.854	27.605	1372.367	1113.528
369.869	27.747	1371.477	1113.578
370.883	27.661	1371.224	1112.746
371.898	27.705	1370.398	1112.248
372.913	27.700	1369.932	1111.744
373.927	27.732	1368.718	1110.849
374.942	27.773	1367.920	1110.355
375.956	27.824	1367.110	1109.911
376.971	27.884	1366.498	1109.677
377.986	27.731	1365.801	1108.083
379.000	27.865	1364.380	1107.647
380.015	27.785	1364.194	1106.912
381.029	27.780	1363.450	1106.181
382.044	27.853	1363.061	1106.210
383.059	27.789	1362.659	1105.398
384.073	27.767	1361.946	1104.589
385.088	27.908	1361.038	1104.606
386.102	27.899	1360.474	1103.997
387.117	27.860	1359.619	1102.971
388.132	27.866	1359.319	1102.665
389.146	27.839	1358.404	1101.663
390.161	27.900	1357.490	1101.192
391.175	27.920	1357.139	1100.931
392.190	27.985	1356.306	1100.549
393.205	27.902	1355.745	1099.498
394.219	27.871	1354.631	1098.307
395.234	27.955	1353.532	1097.824
396.248	28.029	1352.738	1097.527
397.263	27.970	1351.691	1096.226
398.278	28.007	1350.457	1095.353
399.292	28.028	1349.668	1094.744
400.307	28.038	1348.760	1093.967
401.321	27.966	1348.078	1092.886
402.336	28.031	1347.246	1092.507
403.350	28.037	1346.055	1091.477
404.365	27.973	1344.992	1090.136
405.380	28.110	1343.994	1090.050
406.394	28.152	1343.365	1089.691
407.409	28.077	1342.726	1088.633
408.423	28.179	1341.907	1088.479
409.438	28.207	1341.496	1088.218
410.453	28.245	1340.524	1087.556
411.467	28.112	1340.317	1086.503
412.482	28.224	1339.591	1086.482
413.496	28.185	1339.251	1085.880
414.511	28.251	1338.139	1085.269
415.526	28.252	1337.337	1084.533
416.540	28.210	1336.354	1083.390
417.555	28.278	1335.691	1083.161
418.569	28.262	1335.249	1082.610
419.584	28.235	1334.811	1082.002
420.599	28.301	1334.243	1081.834
421.613	77.919	1323.905	1354.513
422.628	78.251	1322.384	1354.643
