DTS Sentinel unit serial number:	SN413079Multiplexer serial number:	ORYXHardware model number:	OX4-SRSoftware version number:	ORYX F/W v4.00 Oryx Data Collector v3.7.2.0data status	okinstallation	princeton_trtdifferential loss correction	single-endedforward channel	channel 4reverse channel	N/Adate	2019/09/10time	18:35:11forward acquisition time	60.00reverse acquisition time	0.00gamma	496.2192k internal	0.2301k external	0.2301temperature offset calibration	0.9944default loss term (dB/km)	0.3790temperature slope calibration	1.0000multiplexer offset coefficient	1.0000multiplexer slope coefficient	1.0000fibre end	0.00T internal ref (°C)	35.64T ext. ref 1 (°C)	-0.36T ext. ref 2 (°C)	27.58length (m)	temperature (°C)	Stokes	anti-Stokes-747.200	-167.632	-0.367	-0.015
-746.185	129.345	0.249	-0.325
-745.171	147.600	0.140	-0.193
-744.156	800.000	0.059	0.232
-743.142	20.672	0.173	-0.143
-742.127	54.474	0.053	-0.052
-741.112	-7.829	-0.130	0.089
-740.098	-142.151	0.152	-0.015
-739.083	-102.567	-0.167	0.041
-738.069	-200.000	-0.008	0.632
-737.054	-129.728	-0.104	0.015
-736.039	241.894	0.032	-0.054
-735.025	295.410	-0.132	0.246
-734.010	-131.137	-0.393	0.053
-732.996	-200.000	-0.065	-0.313
-731.981	468.509	-0.070	-0.161
-730.966	-92.686	-0.083	-0.024
-729.952	-200.000	0.034	-0.283
-728.937	63.047	-0.063	-0.065
-727.923	173.354	-0.150	-0.220
-726.908	-61.041	-0.313	-0.135
-725.894	-200.000	-0.011	-0.124
-724.879	-82.238	0.331	0.110
-723.864	-120.062	-0.027	-0.005
-722.850	-119.479	0.181	0.032
-721.835	-200.000	0.003	0.267
-720.821	-145.731	-0.334	0.030
-719.806	800.000	-0.050	-0.155
-718.791	5.354	-0.102	-0.076
-717.777	800.000	0.080	-0.246
-716.762	-156.940	-0.155	-0.010
-715.748	-133.146	0.166	0.021
-714.733	27.616	-0.091	-0.078
-713.718	107.946	0.054	-0.066
-712.704	-113.324	-0.121	-0.024
-711.689	199.788	-0.127	0.198
-710.675	10.912	0.271	0.210
-709.660	227.774	0.074	-0.122
-708.645	111.887	-0.099	0.122
-707.631	-58.978	-0.217	0.095
-706.616	71.500	-0.247	0.261
-705.602	41.958	-0.246	0.227
-704.587	800.000	0.084	-0.252
-703.572	-13.117	-0.194	0.128
-702.558	800.000	0.043	0.189
-701.543	-200.000	-0.001	0.439
-700.529	-77.390	-0.351	0.124
-699.514	260.178	0.119	-0.209
-698.499	-200.000	-0.018	0.130
-697.485	195.654	-0.228	-0.353
-696.470	-44.019	-0.175	0.089
-695.456	-131.823	0.191	-0.025
-694.441	-77.602	-0.089	-0.031
-693.426	-200.000	-0.009	-0.349
-692.412	-136.949	-0.341	-0.040
-691.397	-200.000	-0.035	-0.371
-690.383	-200.000	-0.019	-0.131
-689.368	-41.564	0.166	-0.087
-688.354	77.907	-0.244	-0.264
-687.339	-73.089	0.100	-0.037
-686.324	15.678	-0.121	0.097
-685.310	-85.074	-0.151	0.048
-684.295	-24.474	-0.041	0.025
-683.281	-200.000	-0.055	-0.251
-682.266	-132.505	0.146	0.019
-681.251	-79.094	-0.329	0.114
-680.237	-22.568	-0.219	-0.134
-679.222	7.986	0.163	0.124
-678.208	800.000	-0.056	-0.191
-677.193	-200.000	-0.016	0.082
-676.178	-112.688	-0.502	0.102
-675.164	800.000	-0.074	-0.301
-674.149	-53.649	0.244	-0.113
-673.135	618.094	0.099	0.252
-672.120	-200.000	0.009	0.152
-671.105	-130.595	-0.291	0.040
-670.091	446.455	-0.054	-0.120
-669.076	74.866	-0.093	-0.099
-668.062	-200.000	0.008	-0.064
-667.047	233.116	-0.317	-0.529
-666.032	-73.962	0.152	-0.056
-665.018	256.136	0.110	-0.192
-664.003	606.642	0.045	-0.114
-662.989	143.302	-0.313	-0.424
-661.974	6.205	-0.360	-0.271
-660.959	-200.000	0.003	-0.291
-659.945	800.000	-0.068	-0.219
-658.930	45.799	-0.090	0.084
-657.916	131.089	-0.232	0.303
-656.901	313.678	-0.162	-0.309
-655.886	30.620	0.186	-0.161
-654.872	-59.684	-0.151	0.066
-653.857	800.000	0.086	0.363
-652.843	89.078	-0.187	0.212
-651.828	379.014	0.153	0.318
-650.814	116.709	0.125	0.156
-649.799	-120.138	-0.110	-0.019
-648.784	255.874	-0.175	-0.305
-647.770	-68.127	-0.219	-0.087
-646.755	-13.539	-0.118	-0.077
-645.741	-89.222	-0.166	0.050
-644.726	-200.000	-0.033	-0.288
-643.711	800.000	-0.025	-0.074
-642.697	-32.132	0.205	-0.117
-641.682	-0.104	-0.160	-0.116
-640.668	74.123	0.131	0.140
-639.653	365.067	0.151	0.308
-638.638	-143.026	0.259	0.025
-637.624	95.749	-0.148	0.171
-636.609	424.221	0.226	-0.494
-635.595	-200.000	0.033	-0.249
-634.580	95.570	-0.090	-0.104
-633.565	48.129	-0.144	-0.137
-632.551	-117.185	-0.185	0.034
-631.536	800.000	-0.103	-0.394
-630.522	-162.271	-0.314	0.016
-629.507	9.166	-0.122	0.094
-628.492	360.670	0.092	0.187
-627.478	-200.000	-0.056	-0.289
-626.463	90.357	-0.201	0.228
-625.449	-88.408	0.229	0.069
-624.434	89.622	-0.131	-0.148
-623.419	-200.000	0.007	0.105
-622.405	298.925	-0.050	-0.094
-621.390	-153.137	-0.182	-0.013
-620.376	30.594	0.024	0.021
-619.361	26.281	-0.107	-0.091
-618.346	314.227	0.113	0.216
-617.332	-30.981	0.234	-0.134
-616.317	800.000	-0.018	0.063
-615.303	-105.850	-0.556	-0.127
-614.288	130.145	-0.053	-0.069
-613.273	55.056	0.079	0.077
-612.259	-200.000	0.005	0.279
-611.244	-108.056	-0.104	-0.023
-610.230	-80.379	-0.373	-0.126
-609.215	-200.000	-0.056	-0.267
-608.201	-64.067	-0.224	0.093
-607.186	-9.636	0.217	0.146
-606.171	-135.320	-0.275	0.033
-605.157	800.000	-0.073	0.213
-604.142	162.767	0.152	0.217
-603.128	-73.998	-0.310	0.114
-602.113	-124.475	-0.386	0.061
-601.098	-40.338	-0.188	0.099
-600.084	279.995	0.076	0.138
-599.069	-98.519	0.413	0.107
-598.055	12.413	-0.072	0.057
-597.040	-62.087	-0.371	0.157
-596.025	594.200	-0.058	-0.146
-595.011	208.016	0.185	-0.293
-593.996	164.677	-0.146	0.208
-592.982	12.692	-0.066	0.051
-591.967	221.562	-0.120	0.196
-590.952	800.000	0.074	0.315
-589.938	-200.000	-0.036	-0.215
-588.923	-200.000	0.019	-0.206
-587.909	-2.459	0.190	-0.135
-586.894	-200.000	-0.021	-0.100
-585.879	-42.480	-0.597	-0.308
-584.865	67.668	0.131	-0.136
-583.850	-61.091	0.149	-0.064
-582.836	-85.896	0.229	-0.072
-581.821	131.427	-0.011	0.014
-580.806	-30.714	-0.343	0.197
-579.792	-97.668	-0.083	0.022
-578.777	186.972	0.136	0.205
-577.763	193.087	0.077	0.119
-576.748	-200.000	0.043	-0.261
-575.733	800.000	0.024	-0.071
-574.719	641.967	-0.158	-0.407
-573.704	-141.347	0.171	-0.018
-572.690	500.762	0.082	0.192
-571.675	-200.000	-0.001	0.113
-570.661	-200.000	0.019	0.273
-569.646	2.672	-0.329	-0.242
-568.631	-200.000	-0.047	-0.307
-567.617	-68.372	-0.170	-0.067
-566.602	-90.145	0.287	0.085
-565.588	-21.874	-0.207	-0.127
-564.573	-161.146	0.063	-0.003
-563.558	231.738	0.085	0.142
-562.544	267.379	-0.153	-0.271
-561.529	191.753	0.206	-0.315
-560.515	-166.240	0.432	0.018
-559.500	-200.000	0.032	-0.185
-558.485	-62.765	-0.245	-0.103
-557.471	162.325	0.186	0.264
-556.456	-1.691	-0.096	0.068
-555.442	-159.082	0.195	0.011
-554.427	-200.000	-0.093	0.430
-553.412	-93.245	-0.341	0.096
-552.398	-77.744	0.191	-0.067
-551.383	10.810	0.113	0.087
-550.369	378.403	-0.125	-0.259
-549.354	-88.255	-0.334	0.101
-548.339	-200.000	0.032	0.277
-547.325	-40.603	-0.161	0.084
-546.310	-200.000	-0.024	0.174
-545.296	363.701	-0.008	-0.017
-544.281	800.000	-0.136	0.384
-543.266	197.687	-0.115	-0.178
-542.252	-6.083	0.361	0.249
-541.237	646.569	-0.165	0.426
-540.223	764.860	-0.030	0.081
-539.208	-59.684	-0.436	0.189
-538.193	800.000	-0.037	0.136
-537.179	29.485	0.091	0.078
-536.164	-142.383	0.070	-0.007
-535.150	64.441	-0.141	-0.143
-534.135	7.289	0.188	-0.142
-533.121	366.716	-0.172	0.352
-532.106	-135.072	-0.224	0.027
-531.091	-71.777	0.147	-0.055
-530.077	324.921	0.065	0.126
-529.062	213.052	0.038	-0.061
-528.048	-200.000	0.007	0.107
-527.033	-122.390	0.124	0.021
-526.018	-91.198	0.381	0.110
-525.004	122.326	-0.241	-0.304
-523.989	800.000	-0.057	-0.196
-522.975	192.001	0.150	-0.229
-521.960	-104.972	-0.257	-0.060
-520.945	360.193	-0.146	0.295
-519.931	-117.400	-0.295	-0.054
-518.916	33.710	-0.420	-0.369
-517.902	-139.970	-0.120	-0.013
-516.887	-12.568	0.480	-0.316
-515.872	-145.619	0.427	0.039
-514.858	168.539	-0.129	-0.186
-513.843	-83.851	-0.262	0.084
-512.829	-200.000	0.010	-0.317
-511.814	-200.000	-0.004	-0.161
-510.799	-142.802	0.362	-0.036
-509.785	217.596	-0.078	0.125
-508.770	230.627	0.089	-0.148
-507.756	-76.562	0.371	0.132
-506.741	107.191	0.147	-0.176
-505.726	-69.524	0.273	0.106
-504.712	-153.421	-0.144	0.010
-503.697	-200.000	-0.019	-0.156
-502.683	-171.412	0.289	-0.010
-501.668	800.000	-0.072	-0.202
-500.653	800.000	-0.048	0.195
-499.639	-37.260	-0.423	-0.228
-498.624	-15.691	0.148	0.095
-497.610	-56.170	-0.381	0.171
-496.595	39.635	0.284	-0.257
-495.581	225.578	-0.025	0.040
-494.566	-80.736	-0.343	-0.115
-493.551	371.903	0.102	0.209
-492.537	-200.000	0.033	-0.232
-491.522	133.938	0.121	0.159
-490.508	-200.000	0.010	-0.121
-489.493	766.203	-0.059	0.161
-488.478	800.000	0.091	0.296
-487.464	445.361	0.038	-0.085
-486.449	-147.031	0.153	0.013
-485.435	-174.982	0.382	0.011
-484.420	-39.161	0.223	0.118
-483.405	172.999	-0.065	-0.094
-482.391	41.196	0.168	0.153
-481.376	-79.342	-0.067	0.023
-480.362	-37.280	-0.141	0.076
-479.347	-176.586	0.353	0.009
-478.332	-24.565	-0.077	0.046
-477.318	118.182	0.024	0.030
-476.303	-200.000	0.010	-0.243
-475.289	386.066	-0.150	-0.312
-474.274	508.547	0.051	-0.120
-473.259	800.000	-0.039	0.146
-472.245	800.000	-0.063	0.252
-471.230	531.458	-0.096	0.230
-470.216	84.637	-0.109	-0.121
-469.201	-134.335	0.099	0.012
-468.186	-78.484	-0.026	-0.009
-467.172	131.417	0.076	-0.098
-466.157	-39.992	-0.244	-0.128
-465.143	-71.337	-0.260	0.098
-464.128	-87.362	-0.210	-0.064
-463.113	-67.060	0.190	-0.075
-462.099	264.092	0.102	0.179
-461.084	111.410	-0.129	0.157
-460.070	-200.000	0.041	-0.182
-459.055	-83.110	0.153	0.049
-458.040	800.000	0.045	-0.195
-457.026	377.706	-0.059	0.122
-456.011	-200.000	-0.050	0.313
-454.997	-72.951	0.228	-0.084
-453.982	5.229	0.095	0.071
-452.968	-104.092	-0.135	0.032
-451.953	82.655	0.219	0.240
-450.938	358.326	0.060	0.120
-449.924	-158.152	0.035	-0.002
-448.909	-94.851	0.484	-0.132
-447.895	-200.000	0.014	-0.201
-446.880	800.000	-0.063	-0.248
-445.865	-12.820	0.088	0.058
-444.851	-200.000	0.009	-0.077
-443.836	-129.464	0.369	-0.052
-442.822	-200.000	-0.057	-0.382
-441.807	-99.434	0.190	0.048
-440.792	-119.709	0.071	-0.012
-439.778	-200.000	-0.022	-0.181
-438.763	163.675	-0.127	-0.180
-437.749	18.185	0.242	0.195
-436.734	-25.945	0.167	0.099
-435.719	-92.811	-0.192	-0.054
-434.705	-18.346	-0.101	-0.064
-433.690	62.168	-0.042	0.042
-432.676	44.103	0.180	-0.166
-431.661	67.330	-0.094	0.096
-430.646	800.000	-0.101	0.401
-429.632	514.355	-0.008	-0.020
-428.617	800.000	-0.086	0.297
-427.603	-10.083	-0.318	0.212
-426.588	743.334	-0.034	0.093
-425.573	-119.522	-0.389	0.068
-424.559	36.630	-0.293	-0.260
-423.544	-200.000	0.006	-0.321
-422.530	372.349	0.145	-0.295
-421.515	525.090	-0.083	-0.197
-420.500	-200.000	0.007	-0.220
-419.486	193.986	-0.114	-0.174
-418.471	34.027	-0.104	-0.091
-417.457	-30.176	-0.090	0.052
-416.442	107.383	0.166	0.199
-415.428	-76.945	0.067	0.023
-414.413	-1.633	0.272	0.193
-413.398	800.000	-0.037	0.161
-412.384	800.000	0.015	-0.064
-411.369	101.128	0.148	0.174
-410.355	-31.925	0.139	-0.079
-409.340	-147.445	-0.147	0.012
-408.325	-56.455	-0.114	0.051
-407.311	52.685	-0.162	-0.156
-406.296	800.000	0.039	-0.171
-405.282	-200.000	-0.017	-0.140
-404.267	143.406	-0.126	0.169
-403.252	-177.020	0.304	-0.008
-402.238	800.000	0.095	0.274
-401.223	800.000	0.031	-0.087
-400.209	-85.583	0.229	-0.072
-399.194	-45.510	-0.229	-0.114
-398.179	-200.000	0.029	-0.179
-397.165	112.776	-0.110	-0.134
-396.150	-117.568	-0.245	-0.045
-395.136	527.728	0.116	0.276
-394.121	115.604	-0.029	-0.036
-393.106	331.484	-0.058	0.112
-392.092	169.945	-0.053	-0.076
-391.077	61.751	0.022	0.022
-390.063	800.000	0.059	-0.244
-389.048	-144.812	-0.309	0.029
-388.033	672.093	-0.071	0.186
-387.019	-69.823	-0.162	0.062
-386.004	41.242	0.198	0.180
-384.990	-36.029	0.121	-0.066
-383.975	691.748	-0.095	-0.249
-382.960	-200.000	0.008	-0.127
-381.946	86.073	-0.064	0.071
-380.931	16.733	0.123	-0.098
-379.917	181.999	-0.089	0.132
-378.902	71.273	-0.142	-0.148
-377.888	285.719	-0.046	-0.083
-376.873	309.734	0.037	0.069
-375.858	-43.922	0.199	-0.101
-374.844	-90.023	0.178	0.052
-373.829	-89.365	-0.096	0.028
-372.815	-133.707	-0.203	-0.025
-371.800	-112.534	0.135	0.027
-370.785	-60.076	0.204	-0.087
-369.771	-80.986	0.293	-0.097
-368.756	-200.000	-0.003	0.163
-367.742	800.000	0.137	-0.381
-366.727	-87.411	-0.212	-0.065
-365.712	-200.000	-0.063	0.303
-364.698	15.326	-0.167	-0.132
-363.683	-200.000	-0.000	0.060
-362.669	-200.000	0.032	-0.164
-361.654	330.721	0.207	-0.401
-360.639	34.573	-0.299	0.263
-359.625	-200.000	-0.012	0.063
-358.610	269.291	-0.096	-0.169
-357.596	67.022	0.272	0.278
-356.581	800.000	0.152	0.491
-355.566	132.468	-0.095	-0.123
-354.552	-71.845	-0.193	-0.072
-353.537	-200.000	0.013	-0.301
-352.523	800.000	-0.128	0.443
-351.508	124.945	0.086	0.109
-350.493	130.917	0.131	0.169
-349.479	-81.106	0.235	0.078
-348.464	60.358	-0.137	-0.136
-347.450	-75.992	-0.090	-0.032
-346.435	19.889	-0.139	-0.112
-345.420	-133.023	0.545	-0.069
-344.406	-111.375	0.153	0.031
-343.391	104.210	0.120	0.142
-342.377	-3.255	-0.225	-0.157
-341.362	-41.115	0.148	0.076
-340.348	-200.000	0.013	-0.353
-339.333	800.000	0.064	0.191
-338.318	377.916	0.109	0.225
-337.304	-200.000	0.023	-0.142
-336.289	161.823	-0.131	-0.184
-335.275	-200.000	-0.036	0.188
-334.260	301.362	-0.050	0.093
-333.245	-200.000	-0.013	0.196
-332.231	47.722	0.260	0.243
-331.216	136.331	-0.244	-0.319
-330.202	120.853	0.147	0.183
-329.187	-49.641	-0.334	0.159
-328.172	-112.852	0.548	-0.109
-327.158	86.135	0.087	-0.096
-326.143	185.435	0.362	-0.540
-325.129	-80.218	-0.219	0.074
-324.114	-41.526	-0.031	-0.016
-323.099	-52.101	-0.266	-0.124
-322.085	-139.157	-0.213	0.023
-321.070	103.860	-0.080	-0.095
-320.056	-132.827	0.113	0.014
-319.041	-200.000	-0.010	-0.146
-318.026	-120.798	0.144	0.024
-317.012	29.795	-0.228	-0.194
-315.997	722.291	0.114	-0.305
-314.983	455.998	-0.147	-0.327
-313.968	-32.878	0.105	-0.058
-312.953	-23.609	-0.300	-0.180
-311.939	-200.000	-0.057	0.280
-310.924	-49.273	-0.081	0.039
-309.910	-70.216	0.137	0.052
-308.895	26.952	-0.250	-0.210
-307.880	107.918	-0.067	0.081
-306.866	174.966	0.164	0.238
-305.851	-200.000	-0.012	-0.136
-304.837	-130.469	0.159	-0.022
-303.822	198.452	-0.096	-0.147
-302.807	404.184	0.094	0.199
-301.793	800.000	0.135	0.433
-300.778	-200.000	-0.005	0.026
-299.764	-89.427	0.135	0.040
-298.749	647.051	0.089	0.227
-297.735	277.556	0.033	0.060
-296.720	800.000	-0.122	-0.514
-295.705	-151.851	0.228	-0.017
-294.691	-51.400	-0.101	-0.047
-293.676	800.000	0.072	-0.250
-292.662	157.716	-0.237	0.328
-291.647	-129.894	0.164	0.023
-290.632	157.081	-0.078	-0.108
-289.618	36.095	-0.275	0.242
-288.603	-106.664	-0.198	0.044
-287.589	-200.000	-0.011	0.142
-286.574	-41.622	0.150	-0.077
-285.559	-129.933	0.257	0.035
-284.545	-54.180	0.432	0.196
-283.530	-133.802	0.103	-0.013
-282.516	-25.466	0.135	-0.080
-281.501	-135.280	0.188	-0.023
-280.486	-200.000	-0.009	-0.052
-279.472	-13.094	0.260	-0.169
-278.457	49.039	-0.026	-0.024
-277.443	461.112	0.101	0.225
-276.428	-20.507	0.451	-0.278
-275.413	-139.484	0.005	-0.001
-274.399	-87.986	-0.235	0.071
-273.384	226.697	0.065	0.105
-272.370	94.397	0.210	0.238
-271.355	14.581	-0.027	-0.021
-270.340	439.143	-0.071	-0.156
-269.326	-28.619	-0.144	0.083
-268.311	-104.304	-0.163	0.038
-267.297	51.829	0.153	-0.146
-266.282	535.782	0.293	-0.697
-265.267	166.885	-0.256	0.364
-264.253	800.000	0.067	-0.194
-263.238	800.000	-0.033	0.144
-262.224	22.323	-0.111	0.091
-261.209	-200.000	-0.006	-0.135
-260.195	149.445	-0.084	-0.114
-259.180	800.000	-0.050	0.140
-258.165	-200.000	-0.005	0.233
-257.151	-68.600	-0.100	0.039
-256.136	123.840	0.033	-0.041
-255.122	-103.230	0.211	-0.050
-254.107	-179.357	0.199	0.004
-253.092	414.172	-0.087	0.185
-252.078	74.113	-0.298	-0.312
-251.063	-115.775	0.116	-0.022
-250.049	104.927	0.088	0.104
-249.034	-200.000	-0.017	0.091
-248.019	-44.080	0.298	-0.150
-247.005	482.443	0.062	0.142
-245.990	-200.000	-0.060	-0.306
-244.976	101.842	0.071	-0.083
-243.961	559.234	0.069	0.165
-242.946	99.901	-0.278	-0.322
-241.932	248.102	-0.148	0.250
-240.917	-174.741	-0.051	-0.001
-239.903	-93.121	0.153	0.043
-238.888	-109.026	0.112	0.024
-237.873	-8.716	-0.224	0.150
-236.859	264.350	-0.083	-0.145
-235.844	800.000	-0.090	0.263
-234.830	170.066	0.079	-0.113
-233.815	-132.249	-0.197	0.025
-232.800	-119.536	-0.388	-0.067
-231.786	-50.923	0.128	0.060
-230.771	251.626	-0.039	0.067
-229.757	-200.000	-0.054	-0.248
-228.742	-200.000	0.000	-0.037
-227.727	-61.925	-0.131	-0.055
-226.713	699.866	-0.112	-0.294
-225.698	800.000	-0.016	-0.061
-224.684	56.190	0.282	0.273
-223.669	132.467	0.221	0.284
-222.655	800.000	0.092	0.393
-221.640	800.000	0.088	0.297
-220.625	116.302	-0.105	-0.128
-219.611	-200.000	-0.066	0.428
-218.596	-32.292	-0.146	-0.082
-217.582	-153.444	0.240	-0.017
-216.567	-66.967	0.397	-0.156
-215.552	-1.746	-0.102	-0.071
-214.538	-98.934	0.210	0.053
-213.523	-200.000	0.005	0.227
-212.509	545.899	-0.070	0.168
-211.494	-119.814	-0.312	0.054
-210.479	25.217	0.201	0.167
-209.465	-103.148	-0.148	0.035
-208.450	-72.030	0.288	-0.107
-207.436	91.703	-0.117	-0.131
-206.421	-200.000	0.010	0.114
-205.406	-200.000	0.013	0.149
-204.392	-59.819	0.153	-0.066
-203.377	-78.489	-0.089	0.030
-202.363	-118.896	0.119	-0.021
-201.348	324.438	-0.156	0.297
-200.333	-200.000	-0.032	-0.149
-199.319	-200.000	0.050	0.302
-198.304	-106.786	0.230	-0.051
-197.290	-155.363	0.173	-0.011
-196.275	-181.343	0.179	-0.004
-195.260	466.491	0.078	-0.174
-194.246	-24.304	-0.083	0.049
-193.231	172.442	-0.072	0.104
-192.217	142.609	0.100	0.133
-191.202	-175.908	0.114	-0.003
-190.187	800.000	-0.090	0.292
-189.173	-200.000	-0.014	0.220
-188.158	-132.835	0.156	-0.020
-187.144	-10.833	-0.041	-0.027
-186.129	422.249	0.117	0.250
-185.114	800.000	-0.024	0.083
-184.100	-43.158	-0.222	0.112
-183.085	71.031	0.094	0.098
-182.071	-54.293	-0.156	0.070
-181.056	-200.000	0.053	-0.390
-180.042	-132.920	0.313	0.040
-179.027	800.000	-0.058	0.170
-178.012	-54.490	0.194	0.088
-176.998	267.138	0.093	0.161
-175.983	107.212	-0.166	0.197
-174.969	-113.824	-0.058	-0.011
-173.954	-160.577	0.076	0.004
-172.939	-137.372	0.078	-0.009
-171.925	800.000	-0.025	-0.078
-170.910	-200.000	0.010	-0.105
-169.896	-69.605	0.034	0.013
-168.881	-200.000	-0.004	0.092
-167.866	-31.784	-0.032	0.018
-166.852	-200.000	-0.020	0.277
-165.837	-71.364	-0.078	-0.029
-164.823	-6.980	-0.071	-0.048
-163.808	-17.912	0.220	-0.137
-162.793	-92.541	0.220	0.062
-161.779	84.740	0.132	0.144
-160.764	9.447	0.154	-0.116
-159.750	14.190	0.097	0.075
-158.735	95.285	-0.102	-0.115
-157.720	47.418	-0.068	0.063
-156.706	-200.000	-0.031	-0.173
-155.691	-19.549	-0.319	-0.197
-154.677	-68.422	0.232	0.090
-153.662	30.430	-0.128	-0.109
-152.647	-111.401	-0.595	-0.121
-151.633	-164.858	0.293	0.013
-150.618	-200.000	-0.003	-0.094
-149.604	348.746	0.110	0.216
-148.589	324.801	-0.040	-0.076
-147.574	-169.185	-0.170	0.006
-146.560	106.597	0.142	0.168
-145.545	-200.000	0.035	-0.195
-144.531	-200.000	0.066	-0.501
-143.516	-38.520	0.204	-0.107
-142.502	800.000	0.054	-0.208
-141.487	-200.000	-0.004	-0.048
-140.472	37.415	-0.320	0.282
-139.458	-200.000	0.002	-0.035
-138.443	-200.000	0.003	-0.078
-137.429	88.199	-0.020	-0.022
-136.414	-200.000	-0.009	0.291
-135.399	-54.148	0.327	0.148
-134.385	442.515	-0.083	0.182
-133.370	-200.000	-0.011	0.085
-132.356	100.955	-0.027	0.032
-131.341	188.894	0.131	0.194
-130.326	130.127	0.153	0.195
-129.312	-136.749	-0.077	-0.009
-128.297	-79.210	-0.132	0.044
-127.283	-175.085	-0.151	0.004
-126.268	-200.000	0.012	-0.110
-125.253	-85.759	-0.127	0.039
-124.239	-100.577	-0.315	0.077
-123.224	-34.754	0.109	-0.059
-122.210	719.942	0.083	0.220
-121.195	-200.000	-0.026	0.258
-120.180	366.355	-0.170	0.340
-119.166	667.507	-0.073	0.188
-118.151	515.584	0.056	0.130
-117.137	645.357	0.087	-0.221
-116.122	93.218	-0.021	0.024
-115.107	154.425	0.031	-0.042
-114.093	-59.258	-0.126	0.054
-113.078	65.212	-0.253	0.255
-112.064	-200.000	-0.010	-0.084
-111.049	-62.779	0.184	0.076
-110.034	-29.371	-0.277	0.158
-109.020	-64.034	-0.097	-0.039
-108.005	-42.972	0.072	-0.036
-106.991	-141.370	-0.078	-0.008
-105.976	174.967	-0.188	0.270
-104.962	-12.107	0.216	0.140
-103.947	240.749	-0.040	-0.066
-102.932	413.352	-0.048	0.103
-101.918	-106.404	-0.169	0.038
-100.903	116.095	0.101	-0.124
-99.889	-162.361	-0.494	0.024
-98.874	260.574	-0.053	0.091
-97.859	-85.757	-0.163	-0.050
-96.845	-167.585	0.246	-0.010
-95.830	-40.663	0.170	0.088
-94.816	800.000	0.040	0.120
-93.801	643.222	-0.108	-0.274
-92.786	-32.853	0.244	-0.134
-91.772	-200.000	0.012	0.187
-90.757	-200.000	-0.029	0.388
-89.743	306.545	0.082	0.152
-88.728	82.205	-0.183	-0.198
-87.713	800.000	-0.096	-0.410
-86.699	212.271	-0.240	0.376
-85.684	800.000	-0.023	-0.075
-84.670	-200.000	-0.007	-0.317
-83.655	-75.155	-0.101	0.036
-82.640	-200.000	-0.010	0.139
-81.626	237.895	0.039	-0.064
-80.611	-104.820	0.174	0.040
-79.597	-34.035	0.082	0.045
-78.582	-174.525	-0.121	0.003
-77.567	-34.235	-0.417	0.227
-76.553	52.601	0.040	0.038
-75.538	-39.442	-0.153	0.080
-74.524	355.990	0.104	0.206
-73.509	10.631	-0.178	0.135
-72.494	800.000	-0.102	0.441
-71.480	-97.644	0.295	-0.076
-70.465	-126.503	-0.438	-0.065
-69.451	-200.000	0.028	0.378
-68.436	-200.000	-0.005	-0.272
-67.422	349.688	-0.022	0.043
-66.407	246.596	0.112	0.188
-65.392	301.113	-0.052	-0.095
-64.378	-200.000	-0.016	-0.217
-63.363	11.539	-0.085	0.065
-62.349	96.115	-0.150	-0.170
-61.334	-16.746	-0.881	-0.553
-60.319	24.086	0.653	0.535
-59.305	-200.000	-0.172	-1.012
-58.290	-200.000	0.131	0.862
-57.276	687.132	0.597	1.549
-56.261	-200.000	96.326	542.679
-55.246	578.825	1386.903	3368.110
-54.232	180.725	2634.013	3837.752
-53.217	110.099	2356.954	2807.328
-52.203	42.200	2103.556	1895.857
-51.188	37.496	2015.072	1773.280
-50.173	35.900	1995.675	1741.716
-49.159	49.686	2048.332	1914.460
-48.144	52.484	2066.903	1957.425
-47.130	38.051	2022.866	1784.932
-46.115	35.622	2011.949	1753.099
-45.100	35.632	2008.246	1749.895
-44.086	35.557	2006.269	1747.422
-43.071	35.537	2003.507	1744.768
-42.057	35.436	2001.667	1742.172
-41.042	35.522	1999.793	1741.258
-40.027	35.508	1998.008	1739.505
-39.013	35.586	1995.557	1738.006
-37.998	35.622	1993.657	1736.609
-36.984	35.591	1992.661	1735.396
-35.969	35.550	1990.430	1733.008
-34.954	35.562	1988.834	1731.664
-33.940	35.570	1987.407	1730.419
-32.925	35.639	1985.480	1729.297
-31.911	35.562	1984.213	1727.430
-30.896	35.699	1982.082	1726.736
-29.881	35.675	1980.308	1724.905
-28.867	35.695	1979.118	1723.984
-27.852	35.684	1977.043	1722.011
-26.838	35.747	1974.883	1720.622
-25.823	35.670	1973.597	1718.748
-24.809	35.708	1971.775	1717.429
-23.794	35.657	1970.237	1715.571
-22.779	35.747	1967.711	1714.103
-21.765	35.717	1966.266	1712.509
-20.750	35.672	1965.132	1711.056
-19.736	35.727	1963.531	1710.080
-18.721	35.656	1962.135	1708.168
-17.706	35.677	1960.224	1706.617
-16.692	35.564	1958.728	1704.250
-15.677	35.658	1956.900	1703.420
-14.663	35.659	1955.288	1701.960
-13.648	35.685	1954.117	1701.102
-12.633	35.673	1953.112	1700.051
-11.619	35.631	1952.012	1698.656
-10.604	35.658	1950.412	1697.435
-9.590	35.601	1949.303	1695.903
-8.575	35.579	1947.675	1694.222
-7.560	35.560	1946.705	1693.149
-6.546	35.718	1944.571	1692.616
-5.531	35.631	1943.373	1690.738
-4.517	35.628	1942.374	1689.777
-3.502	35.612	1941.223	1688.564
-2.487	35.651	1939.838	1687.635
-1.473	35.644	1939.157	1686.916
-0.458	35.661	1934.420	1682.881
0.556	32.637	1912.984	1649.746
1.571	27.646	1890.833	1587.174
2.586	23.073	1911.008	1563.638
3.600	21.741	1947.751	1581.545
4.615	21.365	1943.475	1574.547
5.629	16.421	1843.297	1450.916
6.644	6.221	1718.940	1270.855
7.659	0.304	1677.791	1193.557
8.673	-0.201	1673.680	1186.541
9.688	-0.345	1672.528	1184.476
10.702	-0.436	1671.204	1182.721
11.717	-0.448	1668.095	1180.318
12.731	-0.109	1667.201	1182.250
13.746	6.404	1683.113	1245.045
14.761	15.407	1703.218	1331.544
15.775	18.530	1707.589	1359.649
16.790	18.352	1706.564	1357.296
17.804	18.406	1705.598	1356.836
18.819	18.371	1704.922	1355.902
19.834	18.557	1703.940	1356.470
20.848	18.760	1703.475	1357.587
21.863	18.684	1702.809	1356.339
22.877	18.732	1701.221	1355.333
23.892	18.685	1700.906	1354.587
24.907	18.722	1699.985	1354.025
25.921	18.678	1698.942	1352.727
26.936	18.648	1698.026	1351.646
27.950	18.667	1697.235	1351.045
28.965	18.610	1696.354	1349.779
29.980	18.700	1695.219	1349.458
30.994	18.715	1693.636	1348.197
32.009	18.661	1693.183	1347.297
33.023	18.659	1691.792	1346.054
34.038	18.737	1690.403	1345.441
35.053	18.699	1689.596	1344.380
36.067	18.646	1688.319	1342.833
37.082	18.726	1687.093	1342.364
38.096	18.646	1685.797	1340.587
39.111	18.689	1685.356	1340.460
40.126	18.593	1684.784	1339.132
41.140	18.667	1683.471	1338.547
42.155	18.665	1682.501	1337.639
43.169	18.685	1681.200	1336.645
44.184	18.720	1679.944	1335.800
45.199	18.710	1679.372	1335.152
46.213	18.636	1678.315	1333.620
47.228	18.612	1676.877	1332.169
48.242	18.669	1675.559	1331.448
49.257	18.613	1674.459	1330.024
50.271	18.739	1672.876	1329.624
51.286	18.625	1672.143	1328.043
52.301	18.644	1670.769	1326.977
53.315	18.750	1668.988	1326.263
54.330	18.704	1666.796	1324.049
55.344	18.669	1666.042	1323.063
56.359	18.656	1665.106	1322.104
57.374	18.663	1664.119	1321.256
58.388	18.641	1662.491	1319.676
59.403	18.704	1661.359	1319.145
60.417	18.658	1660.751	1318.190
61.432	18.730	1659.421	1317.572
62.447	18.605	1658.040	1315.399
63.461	18.698	1657.341	1315.442
64.476	18.716	1656.197	1314.557
65.490	18.728	1654.799	1313.424
66.505	18.626	1654.160	1312.020
67.520	18.639	1652.814	1310.938
68.534	18.730	1651.665	1310.604
69.549	18.730	1650.449	1309.519
70.563	18.752	1648.792	1308.262
71.578	18.740	1647.696	1307.186
72.593	18.745	1646.804	1306.401
73.607	18.742	1645.950	1305.582
74.622	18.716	1645.131	1304.621
75.636	18.695	1643.931	1303.394
76.651	18.698	1643.107	1302.646
77.666	18.744	1642.004	1302.007
78.680	18.750	1640.879	1301.046
79.695	18.685	1640.361	1300.029
80.709	18.777	1639.188	1299.679
81.724	18.738	1638.725	1298.899
82.739	18.750	1637.470	1297.881
83.753	18.696	1636.211	1296.364
84.768	18.739	1635.216	1295.784
85.782	18.619	1634.759	1294.403
86.797	18.724	1633.228	1293.867
87.812	18.747	1632.374	1293.249
88.826	18.711	1631.314	1292.020
89.841	18.757	1630.238	1291.400
90.855	18.752	1629.038	1290.295
91.870	18.779	1627.683	1289.312
92.884	18.792	1626.622	1288.460
93.899	18.720	1625.722	1287.093
94.914	18.749	1624.875	1286.525
95.928	18.763	1623.344	1285.305
96.943	18.751	1621.801	1283.875
97.957	18.709	1620.445	1282.372
98.972	18.770	1619.499	1281.966
99.987	18.808	1617.718	1280.726
101.001	18.754	1616.109	1278.938
102.016	18.730	1614.746	1277.568
103.030	18.743	1612.933	1276.120
104.045	18.764	1611.843	1275.298
105.060	18.639	1611.026	1273.615
106.074	18.852	1609.032	1273.504
107.089	18.782	1607.717	1271.829
108.103	18.645	1606.942	1270.093
109.118	18.811	1605.259	1269.876
110.133	18.863	1603.596	1268.835
111.147	18.799	1602.178	1267.127
112.162	18.760	1601.026	1265.813
113.176	18.832	1599.814	1265.275
114.191	18.857	1598.463	1264.277
115.206	18.842	1597.428	1263.234
116.220	18.861	1595.853	1262.020
117.235	18.820	1594.354	1260.423
118.249	18.761	1593.405	1259.128
119.264	18.798	1592.357	1258.462
120.279	18.702	1590.696	1256.330
121.293	18.821	1589.293	1255.987
122.308	18.836	1587.783	1254.790
123.322	18.807	1586.784	1253.679
124.337	18.833	1585.322	1252.602
125.352	18.871	1583.774	1251.541
126.366	18.843	1582.498	1250.223
127.381	18.917	1581.546	1249.893
128.395	18.984	1580.118	1249.145
129.410	18.876	1579.294	1247.597
130.424	18.948	1577.036	1246.228
131.439	18.929	1576.117	1245.253
132.454	18.900	1575.170	1244.181
133.468	18.914	1573.461	1242.820
134.483	18.860	1572.413	1241.493
135.497	18.950	1570.820	1240.774
136.512	18.871	1569.846	1239.328
137.527	18.960	1568.433	1238.745
138.541	18.929	1567.816	1237.926
139.556	18.900	1565.893	1236.089
140.570	18.900	1564.814	1235.130
141.585	18.964	1563.315	1234.296
142.600	18.924	1561.861	1232.749
143.614	18.849	1561.404	1231.742
144.629	18.913	1559.623	1230.686
145.643	18.941	1558.325	1229.752
146.658	18.828	1556.758	1227.604
147.673	18.835	1555.257	1226.360
148.687	18.768	1554.128	1224.879
149.702	18.846	1552.736	1224.230
150.716	18.811	1551.420	1222.838
151.731	18.850	1550.511	1222.290
152.746	18.851	1549.645	1221.506
153.760	18.866	1547.946	1220.167
154.775	18.870	1546.858	1219.226
155.789	18.950	1545.621	1218.716
156.804	18.871	1544.448	1217.120
157.819	18.937	1543.111	1216.430
158.833	18.810	1542.359	1214.825
159.848	18.972	1540.646	1214.519
160.862	18.948	1539.689	1213.486
161.877	18.973	1538.219	1212.398
162.892	18.936	1537.645	1211.576
163.906	18.982	1536.531	1210.915
164.921	18.999	1535.132	1209.826
165.935	19.025	1534.207	1209.170
166.950	18.970	1533.247	1207.923
167.964	19.001	1532.227	1207.229
168.979	18.923	1531.699	1206.160
169.994	19.086	1530.251	1206.055
171.008	19.003	1529.660	1204.899
172.023	19.014	1528.378	1203.861
173.037	19.073	1527.257	1203.283
174.052	19.069	1525.919	1202.092
175.067	18.932	1525.514	1200.710
176.081	19.069	1524.368	1200.656
177.096	19.124	1523.058	1199.902
178.110	19.081	1521.610	1198.356
179.125	19.001	1520.932	1197.162
180.140	19.048	1519.932	1196.593
181.154	19.072	1519.453	1196.282
182.169	19.023	1518.170	1194.826
183.183	18.999	1517.320	1193.879
184.198	19.066	1516.321	1193.451
185.213	19.120	1515.406	1193.005
186.227	19.029	1514.565	1191.604
187.242	19.097	1513.270	1190.948
188.256	19.075	1512.560	1190.137
189.271	18.984	1511.920	1188.895
190.286	19.108	1511.109	1189.011
191.300	19.088	1509.833	1187.763
192.315	19.040	1509.209	1186.839
193.329	19.072	1508.079	1186.065
194.344	19.122	1506.986	1185.445
195.359	19.146	1506.655	1185.243
196.373	19.175	1505.505	1184.430
197.388	19.063	1504.359	1182.654
198.402	19.005	1503.234	1181.269
199.417	18.955	1502.528	1180.265
200.432	19.053	1501.443	1179.979
201.446	19.085	1500.824	1179.613
202.461	19.063	1500.113	1178.799
203.475	19.051	1498.526	1177.362
204.490	19.054	1497.802	1176.713
205.504	19.058	1496.891	1175.918
206.519	18.982	1496.090	1174.664
207.534	19.092	1495.225	1174.634
208.548	19.109	1494.273	1173.895
209.563	19.143	1493.134	1173.130
210.577	19.184	1492.001	1172.412
211.592	19.057	1491.758	1171.258
212.607	19.107	1491.022	1170.914
213.621	19.217	1490.059	1170.805
214.636	19.329	1488.913	1170.557
215.650	19.198	1488.396	1169.162
216.665	19.205	1487.309	1168.251
217.680	19.220	1486.848	1167.886
218.694	19.210	1485.801	1166.895
219.709	19.165	1485.311	1166.097
220.723	19.208	1484.166	1165.386
221.738	19.171	1483.208	1164.287
222.753	19.076	1482.726	1163.158
223.767	19.160	1481.382	1162.570
224.782	19.112	1480.866	1161.737
225.796	19.157	1480.195	1161.415
226.811	19.217	1479.376	1161.069
227.826	19.247	1478.208	1160.253
228.840	19.192	1477.677	1159.365
229.855	19.234	1476.444	1158.578
230.869	19.318	1475.132	1158.010
231.884	19.295	1474.407	1157.180
232.899	19.193	1473.691	1155.833
233.913	19.274	1472.250	1155.149
234.928	19.235	1471.400	1154.114
235.942	19.237	1470.812	1153.563
236.957	19.344	1469.440	1153.104
237.972	19.357	1468.186	1152.101
238.986	19.316	1467.383	1151.097
240.001	19.286	1466.565	1150.151
241.015	19.392	1465.132	1149.637
242.030	19.437	1464.207	1149.108
243.045	19.398	1463.619	1148.287
244.059	19.309	1462.890	1147.019
245.074	19.471	1461.628	1147.002
246.088	19.382	1461.015	1145.833
247.103	19.415	1460.689	1145.691
248.117	19.432	1459.832	1145.034
249.132	19.404	1458.906	1144.020
250.147	19.421	1458.066	1143.369
251.161	19.487	1457.287	1143.097
252.176	19.487	1457.136	1142.879
253.190	19.512	1456.272	1142.264
254.205	19.488	1455.257	1141.208
255.220	19.615	1454.363	1141.246
256.234	19.451	1453.525	1139.403
257.249	19.513	1452.807	1139.147
258.263	19.685	1451.905	1139.476
259.278	19.570	1451.147	1138.022
260.293	19.455	1449.961	1136.236
261.307	19.524	1449.684	1136.368
262.322	19.568	1448.924	1135.964
263.336	19.618	1448.199	1135.620
264.351	19.585	1447.360	1134.649
265.366	19.643	1446.051	1133.901
266.380	19.604	1445.444	1133.071
267.395	19.506	1444.850	1131.859
268.409	19.530	1443.588	1130.932
269.424	19.549	1442.650	1130.216
270.439	19.588	1442.001	1129.862
271.453	19.595	1440.875	1128.928
272.468	19.577	1440.244	1128.220
273.482	19.620	1439.450	1127.777
274.497	19.631	1438.661	1127.131
275.512	19.585	1437.954	1126.178
276.526	19.678	1437.124	1126.035
277.541	19.687	1436.204	1125.273
278.555	19.681	1435.412	1124.511
279.570	19.692	1434.476	1123.749
280.585	19.763	1433.569	1123.399
281.599	19.810	1432.137	1122.483
282.614	19.764	1431.617	1121.677
283.628	19.705	1430.600	1120.400
284.643	19.701	1429.739	1119.599
285.657	19.758	1428.615	1118.990
286.672	19.664	1428.395	1118.115
287.687	19.589	1427.468	1116.804
288.701	19.751	1425.946	1116.562
289.716	19.694	1425.574	1115.802
290.730	19.693	1425.077	1115.308
291.745	19.820	1424.272	1115.395
292.760	19.774	1423.059	1114.052
293.774	19.783	1422.097	1113.258
294.789	19.802	1421.093	1112.496
295.803	19.828	1420.216	1111.878
296.818	19.875	1419.477	1111.505
297.833	19.848	1418.568	1110.517
298.847	19.833	1418.177	1110.017
299.862	19.850	1417.001	1109.107
300.876	19.890	1416.213	1108.651
301.891	19.807	1415.164	1107.201
302.906	19.915	1414.684	1107.416
303.920	19.891	1414.087	1106.699
304.935	19.927	1413.633	1106.474
305.949	19.907	1412.406	1105.290
306.964	19.863	1412.035	1104.620
307.979	19.925	1410.664	1103.846
308.993	20.057	1409.391	1103.591
310.008	19.983	1408.689	1102.474
311.022	20.034	1407.501	1101.770
312.037	20.030	1406.636	1100.972
313.052	19.895	1406.257	1099.719
314.066	19.956	1405.174	1099.161
315.081	20.015	1404.162	1098.646
316.095	19.983	1403.238	1097.623
317.110	20.042	1402.202	1097.093
318.125	20.051	1400.929	1096.053
319.139	20.030	1400.358	1095.381
320.154	20.016	1399.589	1094.593
321.168	19.994	1398.820	1093.758
322.183	20.071	1398.011	1093.509
323.197	20.093	1397.094	1092.836
324.212	20.052	1396.025	1091.645
325.227	20.118	1395.310	1091.402
326.241	20.145	1394.535	1090.874
327.256	20.132	1393.576	1089.947
328.270	20.196	1392.741	1089.594
329.285	20.194	1391.783	1088.740
330.300	20.131	1391.162	1087.761
331.314	20.119	1390.381	1086.981
332.329	20.070	1390.046	1086.311
333.343	20.157	1388.708	1085.714
334.358	20.134	1387.978	1084.902
335.373	20.210	1387.307	1084.763
336.387	20.254	1386.613	1084.395
337.402	20.211	1386.216	1083.718
338.416	20.184	1385.827	1083.153
339.431	20.306	1385.112	1083.258
340.446	20.299	1384.373	1082.539
341.460	20.236	1383.566	1081.425
342.475	20.341	1382.252	1080.953
343.489	20.320	1381.051	1079.790
344.504	20.307	1380.474	1079.158
345.519	20.276	1379.148	1077.837
346.533	20.384	1378.261	1077.719
347.548	20.323	1378.161	1077.164
348.562	20.341	1376.921	1076.216
349.577	20.252	1376.299	1075.082
350.592	20.297	1375.709	1074.800
351.606	20.320	1375.029	1074.318
352.621	20.262	1373.463	1072.645
353.635	20.378	1372.611	1072.601
354.650	20.425	1371.914	1072.248
355.665	20.445	1370.766	1071.377
356.679	20.439	1370.032	1070.676
357.694	20.388	1368.984	1069.445
358.708	20.423	1368.042	1068.833
359.723	20.463	1366.813	1068.025
360.738	20.316	1365.911	1066.323
361.752	20.331	1364.576	1065.276
362.767	20.429	1363.610	1065.028
363.781	20.510	1362.422	1064.502
364.796	20.526	1362.092	1064.248
365.810	20.571	1361.149	1063.690
366.825	20.532	1360.356	1062.737
367.840	20.521	1359.688	1062.057
368.854	20.566	1359.242	1061.893
369.869	20.595	1358.750	1061.590
370.883	20.497	1358.282	1060.531
371.898	20.567	1357.152	1059.981
372.913	20.597	1356.412	1059.494
373.927	20.600	1355.806	1058.941
374.942	20.607	1354.884	1058.170
375.956	20.648	1354.134	1057.739
376.971	20.669	1353.277	1057.107
377.986	20.690	1352.436	1056.484
379.000	20.648	1351.595	1055.481
380.015	20.654	1350.937	1054.908
381.029	20.684	1350.443	1054.608
382.044	20.570	1349.754	1053.291
383.059	20.698	1349.160	1053.509
384.073	20.691	1348.414	1052.789
385.088	20.712	1347.591	1052.179
386.102	20.777	1347.043	1052.053
387.117	20.625	1346.776	1050.834
388.132	20.719	1345.825	1050.566
389.146	20.786	1344.711	1050.008
390.161	20.795	1344.010	1049.421
391.175	20.745	1343.642	1048.735
392.190	20.805	1342.546	1048.153
393.205	20.794	1341.913	1047.496
394.219	20.836	1340.647	1046.667
395.234	20.740	1339.689	1045.253
396.248	20.848	1338.161	1044.615
397.263	20.801	1337.244	1043.524
398.278	20.950	1336.082	1043.419
399.292	20.883	1335.262	1042.285
400.307	20.920	1334.482	1041.803
401.321	20.892	1333.516	1040.790
402.336	20.989	1332.430	1040.428
403.350	20.826	1331.533	1038.668
404.365	20.931	1330.380	1038.303
405.380	20.954	1329.536	1037.687
406.394	20.990	1328.941	1037.343
407.409	21.020	1328.438	1037.039
408.423	20.944	1327.658	1035.884
409.438	20.958	1326.936	1035.314
410.453	21.018	1326.029	1034.873
411.467	21.024	1325.317	1034.262
412.482	21.066	1324.737	1033.967
413.496	21.004	1324.249	1033.126
414.511	21.078	1323.327	1032.753
415.526	21.042	1322.387	1031.713
416.540	21.063	1321.546	1031.091
417.555	21.011	1321.018	1030.281
418.569	20.953	1320.497	1029.440
419.584	21.041	1319.648	1029.205
420.599	21.070	1319.712	1029.338
421.613	136.705	1426.448	1790.401
422.628	133.123	1441.967	1790.501
