DTS Sentinel unit serial number:	SN413079Multiplexer serial number:	ORYXHardware model number:	OX4-SRSoftware version number:	ORYX F/W v4.00 Oryx Data Collector v3.7.2.0data status	okinstallation	princeton_trtdifferential loss correction	single-endedforward channel	channel 4reverse channel	N/Adate	2019/09/10time	15:39:11forward acquisition time	60.00reverse acquisition time	0.00gamma	496.2192k internal	0.2293k external	0.2293temperature offset calibration	0.9940default loss term (dB/km)	0.3790temperature slope calibration	1.0000multiplexer offset coefficient	1.0000multiplexer slope coefficient	1.0000fibre end	0.00T internal ref (°C)	38.00T ext. ref 1 (°C)	-0.28T ext. ref 2 (°C)	31.54length (m)	temperature (°C)	Stokes	anti-Stokes-747.200	134.222	-0.121	0.160
-746.185	-45.937	0.211	-0.107
-745.171	800.000	0.031	0.090
-744.156	-91.725	0.342	-0.100
-743.142	-49.824	-0.263	0.128
-742.127	-61.751	-0.345	0.148
-741.112	800.000	-0.078	0.306
-740.098	-173.605	-0.137	-0.004
-739.083	-200.000	0.029	-0.156
-738.069	-149.579	0.099	0.008
-737.054	522.173	0.121	0.290
-736.039	-72.902	0.260	0.098
-735.025	246.423	0.108	0.186
-734.010	-30.885	-0.203	-0.117
-732.996	800.000	-0.088	-0.266
-731.981	758.400	0.011	-0.030
-730.966	-200.000	-0.076	0.511
-729.952	-171.150	-0.280	-0.010
-728.937	-154.188	-0.370	0.026
-727.923	146.805	-0.109	-0.149
-726.908	800.000	-0.092	-0.410
-725.894	800.000	-0.038	-0.162
-724.879	319.896	0.054	-0.105
-723.864	-93.877	0.312	-0.088
-722.850	-139.722	-0.149	0.016
-721.835	236.461	-0.105	0.177
-720.821	759.960	-0.072	-0.201
-719.806	-119.834	-0.238	-0.042
-718.791	-29.752	-0.292	-0.170
-717.777	-134.681	0.416	0.052
-716.762	673.042	-0.106	-0.280
-715.748	800.000	0.124	-0.363
-714.733	153.269	-0.099	0.138
-713.718	-200.000	-0.024	0.165
-712.704	17.821	-0.276	-0.224
-711.689	218.344	0.066	-0.107
-710.675	225.301	0.146	0.241
-709.660	800.000	0.030	0.099
-708.645	-130.631	-0.226	-0.031
-707.631	800.000	0.073	0.225
-706.616	-163.714	-0.263	0.013
-705.602	-99.969	-0.323	-0.082
-704.587	800.000	-0.111	0.415
-703.572	-61.899	-0.096	-0.041
-702.558	97.821	0.148	-0.174
-701.543	-14.083	0.181	0.119
-700.529	-200.000	-0.013	0.128
-699.514	-13.901	0.301	-0.199
-698.499	51.631	0.181	-0.176
-697.485	214.462	-0.152	0.246
-696.470	0.879	-0.340	0.249
-695.456	-59.866	-0.127	0.056
-694.441	-109.363	-0.382	0.082
-693.426	11.038	-0.086	-0.067
-692.412	236.426	-0.106	0.178
-691.397	463.245	0.137	0.313
-690.383	-124.944	0.217	-0.034
-689.368	-161.534	-0.265	0.014
-688.354	59.417	0.074	0.075
-687.339	-200.000	0.046	-0.273
-686.324	-14.732	-0.235	-0.154
-685.310	735.583	-0.070	-0.192
-684.295	355.355	0.093	-0.189
-683.281	380.666	0.039	0.082
-682.266	-43.913	0.191	0.098
-681.251	114.324	0.146	-0.182
-680.237	-81.338	-0.168	-0.057
-679.222	-200.000	-0.010	0.095
-678.208	-165.493	0.109	-0.005
-677.193	-200.000	0.038	-0.213
-676.178	259.620	-0.125	-0.220
-675.164	-31.479	0.105	-0.060
-674.149	-162.870	0.255	0.013
-673.135	-200.000	0.060	-0.338
-672.120	414.256	0.144	-0.312
-671.105	14.990	-0.326	0.260
-670.091	33.089	0.121	-0.107
-669.076	22.904	0.089	0.074
-668.062	152.042	0.070	0.097
-667.047	-200.000	-0.033	-0.300
-666.032	258.823	-0.150	-0.264
-665.018	-82.070	-0.137	-0.046
-664.003	-131.462	-0.278	0.037
-662.989	-27.213	-0.097	0.057
-661.974	170.633	0.070	0.103
-660.959	-200.000	-0.020	0.323
-659.945	65.485	-0.283	-0.292
-658.930	-137.326	0.224	0.026
-657.916	800.000	-0.038	-0.156
-656.901	-166.888	-0.406	0.017
-655.886	274.035	-0.174	-0.314
-654.872	800.000	-0.060	0.173
-653.857	-200.000	0.019	-0.236
-652.843	-163.927	-0.101	-0.005
-651.828	-155.918	0.039	0.003
-650.814	800.000	0.053	0.215
-649.799	-93.105	-0.175	-0.050
-648.784	67.046	0.143	-0.149
-647.770	99.763	-0.125	-0.148
-646.755	-15.768	0.274	-0.178
-645.741	134.585	-0.115	0.152
-644.726	800.000	0.068	-0.233
-643.711	-18.704	-0.084	0.053
-642.697	800.000	-0.023	-0.070
-641.682	-160.443	0.276	-0.015
-640.668	456.225	-0.029	-0.065
-639.653	-200.000	0.006	0.103
-638.638	-51.723	0.198	0.094
-637.624	-200.000	0.041	-0.000
-636.609	800.000	-0.089	0.290
-635.595	164.065	-0.090	0.130
-634.580	-69.231	-0.245	-0.096
-633.565	517.087	0.104	0.247
-632.551	115.770	-0.107	-0.133
-631.536	-200.000	0.030	0.307
-630.522	-54.722	-0.344	0.158
-629.507	800.000	0.039	-0.156
-628.492	14.144	0.187	0.148
-627.478	-64.873	-0.382	-0.157
-626.463	-200.000	-0.052	-0.268
-625.449	246.260	0.131	0.225
-624.434	68.797	0.143	0.150
-623.419	-200.000	-0.052	-0.608
-622.405	775.268	-0.019	-0.052
-621.390	800.000	0.068	0.206
-620.376	-79.189	0.298	-0.103
-619.361	800.000	0.036	-0.123
-618.346	-200.000	-0.057	-0.407
-617.332	-165.024	-0.387	0.018
-616.317	-58.582	0.218	0.096
-615.303	50.202	0.090	-0.087
-614.288	179.467	0.034	-0.050
-613.273	-200.000	0.001	-0.188
-612.259	-129.594	-0.390	-0.055
-611.244	-91.023	0.081	-0.024
-610.230	38.781	0.205	0.186
-609.215	-116.992	0.343	-0.064
-608.201	1.089	-0.186	0.136
-607.186	-22.822	0.287	-0.176
-606.171	134.806	0.116	0.153
-605.157	800.000	0.044	-0.164
-604.142	-120.591	-0.486	-0.084
-603.128	22.710	-0.107	-0.090
-602.113	10.153	-0.049	0.038
-601.098	-200.000	-0.017	0.197
-600.084	-200.000	-0.060	0.292
-599.069	252.215	-0.197	0.342
-598.055	-129.516	0.281	-0.040
-597.040	-67.037	0.166	-0.067
-596.025	163.754	0.074	-0.106
-595.011	69.869	-0.160	0.167
-593.996	-94.767	0.237	-0.065
-592.982	-200.000	-0.130	-0.601
-591.967	800.000	-0.137	-0.438
-590.952	-200.000	-0.092	-0.663
-589.938	-18.901	-0.132	-0.083
-588.923	-200.000	-0.003	-0.039
-587.909	-200.000	-0.029	-0.386
-586.894	77.837	-0.298	-0.323
-585.879	195.134	0.259	-0.400
-584.865	-102.798	-0.565	0.137
-583.850	-74.158	-0.078	-0.029
-582.836	264.008	-0.043	0.076
-581.821	-2.623	-0.109	0.077
-580.806	-104.402	0.107	0.025
-579.792	211.408	0.099	-0.158
-578.777	427.748	0.010	0.023
-577.763	433.332	0.040	0.088
-576.748	-81.463	0.250	-0.084
-575.733	222.096	-0.066	0.108
-574.719	83.926	0.163	0.180
-573.704	800.000	-0.057	0.185
-572.690	-112.496	0.375	0.076
-571.675	230.198	0.185	-0.307
-570.661	-200.000	0.034	0.370
-569.646	-19.651	-0.164	-0.103
-568.631	-88.193	0.101	0.031
-567.617	-119.282	-0.253	0.045
-566.602	49.735	0.210	-0.201
-565.588	-77.264	0.165	0.058
-564.573	-6.842	0.095	0.066
-563.558	158.178	0.235	0.331
-562.544	493.660	0.113	0.262
-561.529	-200.000	0.187	0.000
-560.515	269.001	-0.063	-0.112
-559.500	-200.000	0.049	0.229
-558.485	-95.437	-0.433	-0.118
-557.471	-200.000	0.018	-0.093
-556.456	-26.470	-0.148	0.088
-555.442	-97.464	0.098	0.026
-554.427	20.846	-0.065	-0.054
-553.412	20.156	-0.121	-0.099
-552.398	184.148	-0.156	0.234
-551.383	-0.950	-0.142	-0.102
-550.369	88.029	0.099	0.111
-549.354	29.423	-0.212	0.183
-548.339	800.000	-0.077	0.290
-547.325	114.377	0.118	-0.145
-546.310	-200.000	-0.009	0.173
-545.296	-15.397	-0.410	-0.266
-544.281	19.277	0.269	0.220
-543.266	800.000	-0.010	-0.031
-542.252	800.000	-0.032	0.128
-541.237	-125.989	0.399	-0.061
-540.223	-200.000	-0.040	-0.399
-539.208	-94.293	0.306	0.085
-538.193	121.559	0.220	0.278
-537.179	324.057	0.160	-0.309
-536.164	-200.000	0.005	-0.435
-535.150	-72.889	-0.339	-0.127
-534.135	-200.000	0.012	0.147
-533.121	383.859	0.070	0.145
-532.106	-9.507	-0.133	0.090
-531.091	-156.427	-0.121	0.008
-530.077	-106.110	0.338	-0.077
-529.062	-33.466	-0.224	0.126
-528.048	-97.140	-0.074	-0.020
-527.033	20.499	-0.068	-0.056
-526.018	-200.000	-0.029	0.205
-525.004	-107.006	-0.187	0.042
-523.989	-185.707	-0.211	-0.003
-522.975	-10.905	-0.341	-0.228
-521.960	361.681	-0.077	-0.156
-520.945	27.519	-0.133	-0.113
-519.931	319.772	0.052	0.099
-518.916	-200.000	-0.060	-0.403
-517.902	-131.811	-0.119	0.016
-516.887	213.705	0.059	0.095
-515.872	-142.587	-0.246	-0.024
-514.858	-40.757	-0.367	0.193
-513.843	16.254	0.057	-0.045
-512.829	187.390	-0.113	-0.170
-511.814	405.239	0.142	0.304
-510.799	69.691	0.145	0.152
-509.785	59.057	-0.294	0.293
-508.770	-75.883	0.283	-0.102
-507.756	693.947	0.142	-0.377
-506.741	-135.624	-0.379	0.046
-505.726	348.542	0.052	0.104
-504.712	-122.416	-0.289	-0.048
-503.697	82.321	-0.125	0.137
-502.683	-200.000	-0.016	-0.355
-501.668	324.711	-0.142	0.274
-500.653	220.129	-0.206	0.335
-499.639	-102.930	0.143	0.034
-498.624	10.143	-0.116	0.089
-497.610	-23.586	0.433	0.263
-496.595	800.000	-0.044	-0.123
-495.581	800.000	0.142	-0.600
-494.566	0.059	-0.079	0.057
-493.551	87.866	0.116	-0.131
-492.537	201.877	-0.143	-0.223
-491.522	-200.000	0.025	0.167
-490.508	33.631	-0.217	0.191
-489.493	-84.782	-0.233	0.074
-488.478	-105.324	0.444	0.102
-487.464	-184.527	0.219	0.004
-486.449	-200.000	-0.201	0.001
-485.435	174.442	0.182	-0.266
-484.420	574.061	-0.053	-0.130
-483.405	-200.000	0.071	-0.371
-482.391	98.008	0.134	-0.156
-481.376	-200.000	0.010	0.112
-480.362	-29.119	-0.186	-0.108
-479.347	-28.727	0.080	-0.047
-478.332	-126.196	-0.283	-0.043
-477.318	-200.000	0.010	0.067
-476.303	-105.848	0.122	-0.028
-475.289	27.611	0.255	0.218
-474.274	241.273	-0.087	-0.148
-473.259	115.580	-0.207	-0.257
-472.245	-200.000	-0.018	-0.131
-471.230	-115.136	-0.235	0.045
-470.216	-88.714	0.275	0.083
-469.201	31.843	0.047	0.041
-468.186	355.867	0.047	0.095
-467.172	-120.741	0.449	0.077
-466.157	-34.864	0.195	0.108
-465.143	-69.969	0.249	0.096
-464.128	732.108	-0.085	-0.230
-463.113	-101.791	-0.307	0.075
-462.099	-144.405	0.316	-0.030
-461.084	-200.000	0.022	0.384
-460.070	800.000	-0.121	0.358
-459.055	207.864	0.022	-0.035
-458.040	233.713	0.179	-0.299
-457.026	-121.863	0.055	0.009
-456.011	-10.543	0.105	-0.070
-454.997	-78.491	-0.325	-0.113
-453.982	-200.000	0.002	-0.039
-452.968	-65.417	0.312	-0.127
-451.953	189.937	0.027	-0.041
-450.938	-178.502	0.157	-0.004
-449.924	54.141	0.146	-0.142
-448.909	292.261	0.112	-0.206
-447.895	92.088	-0.215	-0.245
-446.880	-200.000	0.011	0.188
-445.865	-200.000	0.009	-0.173
-444.851	176.382	0.233	-0.342
-443.836	-200.000	-0.048	0.312
-442.822	-96.414	-0.375	-0.100
-441.807	800.000	-0.024	-0.095
-440.792	-33.543	-0.110	0.062
-439.778	344.051	0.120	0.238
-438.763	-39.002	0.102	0.054
-437.749	73.261	-0.128	-0.135
-436.734	-68.992	0.196	0.076
-435.719	187.435	0.192	0.290
-434.705	64.568	-0.209	0.213
-433.690	-62.546	0.118	-0.049
-432.676	-78.338	-0.056	0.019
-431.661	800.000	0.089	-0.345
-430.646	-14.906	-0.250	0.162
-429.632	-200.000	0.026	-0.243
-428.617	-200.000	0.072	-0.373
-427.603	99.670	0.196	0.230
-426.588	-200.000	0.031	0.387
-425.573	-45.783	0.231	0.115
-424.559	267.912	0.126	0.222
-423.544	-50.888	-0.330	-0.157
-422.530	-137.405	-0.110	-0.013
-421.515	-200.000	-0.008	-0.078
-420.500	-92.968	-0.120	-0.034
-419.486	114.293	-0.210	-0.258
-418.471	199.620	0.081	-0.125
-417.457	800.000	-0.044	-0.122
-416.442	-200.000	-0.002	-0.073
-415.428	29.594	0.178	0.153
-414.413	-46.898	0.103	-0.051
-413.398	215.754	-0.089	-0.142
-412.384	-135.987	-0.306	-0.036
-411.369	64.328	0.217	0.221
-410.355	-146.589	0.200	0.018
-409.340	138.183	-0.117	-0.155
-408.325	-121.981	-0.284	-0.047
-407.311	60.134	-0.094	0.094
-406.296	-45.481	-0.237	-0.119
-405.282	-200.000	-0.010	-0.269
-404.267	-116.495	0.191	-0.036
-403.252	190.268	-0.175	0.266
-402.238	77.712	0.315	-0.338
-401.223	-200.000	0.050	0.433
-400.209	698.849	0.047	0.124
-399.194	258.931	0.054	0.095
-398.179	-52.850	-0.334	0.155
-397.165	-200.000	0.017	0.095
-396.150	-193.684	0.074	0.001
-395.136	-200.000	0.006	0.211
-394.121	-117.707	0.166	-0.030
-393.106	562.713	0.071	-0.173
-392.092	-33.240	-0.175	-0.098
-391.077	252.017	0.156	0.267
-390.063	22.645	-0.156	-0.129
-389.048	-84.133	-0.042	-0.013
-388.033	-200.000	-0.006	0.043
-387.019	-200.000	0.021	-0.132
-386.004	58.759	-0.216	-0.214
-384.990	-151.402	-0.136	0.010
-383.975	299.676	-0.207	-0.385
-382.960	219.975	0.080	-0.129
-381.946	-15.929	-0.320	0.205
-380.931	-65.930	-0.486	0.196
-379.917	356.863	-0.158	0.318
-378.902	-131.710	0.099	-0.013
-377.888	-6.533	-0.346	0.237
-376.873	27.254	-0.083	0.070
-375.858	615.502	0.072	-0.182
-374.844	93.861	0.174	0.199
-373.829	313.398	-0.231	-0.439
-372.815	483.529	0.042	-0.097
-371.800	771.079	-0.114	0.313
-370.785	-75.763	0.374	0.134
-369.771	-200.000	0.009	0.373
-368.756	-200.000	-0.054	0.243
-367.742	-90.142	-0.257	-0.075
-366.727	54.015	-0.032	-0.031
-365.712	165.695	-0.142	0.202
-364.698	-200.000	-0.006	0.234
-363.683	190.722	0.081	-0.123
-362.669	-52.734	0.206	0.096
-361.654	0.404	-0.184	-0.133
-360.639	681.765	0.056	0.147
-359.625	8.101	-0.105	0.079
-358.610	53.293	0.064	-0.061
-357.596	-126.012	-0.075	-0.011
-356.581	-123.626	-0.272	-0.043
-355.566	800.000	-0.135	-0.396
-354.552	800.000	-0.028	-0.081
-353.537	368.063	-0.055	-0.112
-352.523	-21.690	-0.124	-0.076
-351.508	465.951	-0.092	-0.209
-350.493	-200.000	-0.016	-0.251
-349.479	161.010	-0.072	-0.101
-348.464	136.925	-0.168	-0.221
-347.450	800.000	-0.036	-0.155
-346.435	742.961	-0.190	0.513
-345.420	-92.515	0.219	0.062
-344.406	379.058	-0.044	-0.091
-343.391	57.753	0.104	-0.103
-342.377	276.978	-0.148	-0.266
-341.362	178.786	-0.177	-0.260
-340.348	16.528	-0.068	0.054
-339.333	30.269	0.147	0.126
-338.318	-200.000	-0.008	-0.170
-337.304	379.167	-0.103	0.213
-336.289	-151.373	-0.195	0.015
-335.275	-200.000	0.016	0.240
-334.260	-83.451	0.286	0.092
-333.245	59.395	0.139	-0.137
-332.231	378.798	-0.084	-0.174
-331.216	45.322	-0.067	0.062
-330.202	88.460	-0.175	0.196
-329.187	-200.000	0.001	-0.069
-328.172	-179.962	-0.154	-0.003
-327.158	800.000	-0.044	0.152
-326.143	88.886	0.073	0.081
-325.129	-37.069	0.054	0.029
-324.114	-159.194	0.163	-0.009
-323.099	-200.000	-0.007	-0.220
-322.085	168.105	-0.084	0.121
-321.070	-2.120	-0.283	0.200
-320.056	-200.000	0.035	0.505
-319.041	-179.238	0.330	-0.007
-318.026	-200.000	-0.010	0.117
-317.012	-89.243	0.318	0.095
-315.997	-200.000	-0.005	-0.145
-314.983	800.000	0.064	-0.239
-313.968	-42.393	0.149	-0.076
-312.953	800.000	0.031	0.131
-311.939	119.362	-0.121	0.151
-310.924	-139.752	0.364	0.039
-309.910	-200.000	-0.008	0.040
-308.895	-66.649	-0.125	0.050
-307.880	-131.986	0.270	-0.035
-306.866	237.793	0.154	0.256
-305.851	-78.480	-0.308	-0.106
-304.837	-50.660	-0.355	0.168
-303.822	132.738	0.125	0.162
-302.807	-132.714	-0.164	0.021
-301.793	-200.000	0.312	0.001
-300.778	648.759	-0.058	0.149
-299.764	48.213	0.051	0.048
-298.749	-200.000	0.069	-0.390
-297.735	229.847	-0.116	-0.190
-296.720	-53.322	0.174	0.080
-295.705	800.000	0.005	0.021
-294.691	-97.595	0.311	-0.081
-293.676	343.299	-0.049	0.096
-292.662	-200.000	-0.007	0.161
-291.647	-186.873	0.368	0.005
-290.632	-200.000	0.021	-0.187
-289.618	-127.715	-0.279	-0.041
-288.603	141.155	0.144	-0.192
-287.589	235.601	-0.042	0.070
-286.574	29.030	-0.150	-0.128
-285.559	243.217	0.105	0.177
-284.545	189.654	0.160	-0.241
-283.530	1.240	-0.096	-0.069
-282.516	-191.493	0.195	0.002
-281.501	-200.000	0.019	-0.094
-280.486	-200.000	0.042	0.278
-279.472	-86.951	0.089	0.027
-278.457	-128.952	-0.228	-0.032
-277.443	-200.000	-0.057	0.443
-276.428	800.000	0.059	0.246
-275.413	168.278	-0.113	0.161
-274.399	-200.000	-0.011	-0.062
-273.384	90.098	0.225	-0.253
-272.370	191.367	0.034	-0.052
-271.355	-43.179	0.125	-0.064
-270.340	453.612	-0.073	-0.162
-269.326	123.616	0.095	-0.120
-268.311	149.453	0.079	-0.107
-267.297	-2.652	-0.137	-0.097
-266.282	453.898	-0.029	0.065
-265.267	800.000	0.072	-0.272
-264.253	53.983	0.223	-0.216
-263.238	-94.808	0.115	-0.031
-262.224	-135.063	0.360	-0.044
-261.209	13.228	0.068	0.053
-260.195	-200.000	0.056	0.293
-259.180	155.820	0.065	-0.090
-258.165	-200.000	-0.017	-0.175
-257.151	-7.443	-0.129	0.087
-256.136	-200.000	-0.006	-0.079
-255.122	31.391	-0.117	0.101
-254.107	-113.745	0.332	0.065
-253.092	9.087	-0.105	-0.079
-252.078	464.998	-0.030	0.066
-251.063	-200.000	-0.067	-0.325
-250.049	-200.000	0.064	-0.472
-249.034	769.057	-0.067	-0.183
-248.019	238.741	-0.046	-0.077
-247.005	352.060	0.101	0.200
-245.990	-200.000	-0.020	-0.258
-244.976	240.255	-0.113	0.189
-243.961	-36.603	0.305	-0.164
-242.946	-200.000	0.048	0.571
-241.932	70.459	0.120	0.124
-240.917	-200.000	0.022	-0.300
-239.903	-38.262	-0.127	-0.067
-238.888	800.000	-0.073	0.285
-237.873	643.817	0.095	0.243
-236.859	-136.372	0.104	0.012
-235.844	-72.247	0.213	-0.079
-234.830	10.854	0.426	0.326
-233.815	-129.268	-0.250	0.035
-232.800	7.896	-0.318	0.239
-231.786	-160.529	0.102	-0.005
-230.771	176.388	0.083	0.121
-229.757	177.459	0.215	0.314
-228.742	33.676	0.311	0.271
-227.727	224.719	0.040	0.065
-226.713	92.199	-0.129	-0.145
-225.698	-174.310	-0.124	0.004
-224.684	16.320	-0.225	0.178
-223.669	51.499	0.125	0.119
-222.655	552.888	0.090	-0.218
-221.640	800.000	0.013	-0.039
-220.625	-200.000	-0.041	0.283
-219.611	-148.701	0.253	-0.021
-218.596	0.263	-0.062	0.044
-217.582	-83.644	0.195	-0.063
-216.567	99.413	0.168	0.194
-215.552	451.158	0.091	0.201
-214.538	-200.000	-0.001	0.114
-213.523	201.289	-0.124	-0.192
-212.509	-127.942	-0.097	0.014
-211.494	-31.278	-0.241	0.136
-210.479	366.139	-0.152	-0.306
-209.465	-63.018	-0.121	-0.050
-208.450	-95.864	0.302	-0.081
-207.436	-187.147	0.214	-0.003
-206.421	5.358	0.167	-0.123
-205.406	-62.701	-0.152	0.063
-204.392	-20.773	0.208	0.128
-203.377	-68.783	0.253	0.098
-202.363	-200.000	-0.037	0.298
-201.348	-25.335	-0.188	0.111
-200.333	-200.000	0.035	0.189
-199.319	62.651	0.129	0.129
-198.304	-200.000	0.035	-0.310
-197.290	351.667	0.168	0.332
-196.275	800.000	0.050	0.174
-195.260	183.949	0.090	0.133
-194.246	-97.899	-0.057	0.015
-193.231	-73.469	-0.240	0.088
-192.217	800.000	0.090	0.293
-191.202	-61.910	0.088	0.037
-190.187	271.469	-0.100	-0.175
-189.173	-104.214	0.195	0.045
-188.158	118.087	0.096	-0.118
-187.144	-22.279	0.087	-0.053
-186.129	-160.208	0.231	-0.012
-185.114	-118.516	0.083	0.015
-184.100	-84.797	-0.108	0.034
-183.085	-165.132	-0.521	-0.023
-182.071	-200.000	-0.045	0.218
-181.056	800.000	0.065	-0.200
-180.042	-200.000	-0.003	0.065
-179.027	-200.000	-0.008	0.067
-178.012	84.133	-0.109	0.120
-176.998	113.709	-0.088	0.107
-175.983	-118.070	-0.153	-0.027
-174.969	7.007	-0.166	0.124
-173.954	433.549	0.037	0.080
-172.939	-9.570	0.137	0.091
-171.925	105.957	-0.093	-0.110
-170.910	43.875	-0.112	0.103
-169.896	177.813	0.040	-0.059
-168.881	-19.579	-0.197	-0.122
-167.866	103.084	-0.154	-0.180
-166.852	-200.000	-0.008	0.079
-165.837	800.000	0.065	0.209
-164.823	-76.829	0.095	-0.033
-163.808	415.029	-0.090	-0.192
-162.793	217.102	-0.100	-0.159
-161.779	334.660	0.163	-0.316
-160.764	-40.732	-0.164	-0.085
-159.750	163.236	0.098	-0.138
-158.735	144.604	0.064	-0.086
-157.720	787.317	0.118	0.323
-156.706	16.411	-0.131	-0.103
-155.691	-41.178	0.185	0.095
-154.677	37.760	-0.065	0.058
-153.662	109.325	0.164	-0.197
-152.647	157.822	-0.103	0.142
-151.633	25.438	0.167	0.139
-150.618	79.568	0.120	0.129
-149.604	-72.435	-0.198	-0.073
-148.589	15.574	0.154	0.121
-147.574	-200.000	-0.033	0.303
-146.560	-76.537	0.156	0.055
-145.545	-200.000	-0.031	-0.230
-144.531	28.331	0.090	-0.076
-143.516	800.000	0.080	0.271
-142.502	-200.000	0.041	0.212
-141.487	-74.750	-0.155	0.056
-140.472	-200.000	0.019	-0.136
-139.458	-200.000	0.032	0.191
-138.443	307.268	0.185	0.344
-137.429	774.734	0.075	0.204
-136.414	-200.000	-0.031	-0.355
-135.399	14.708	-0.316	-0.247
-134.385	93.374	0.274	0.310
-133.370	-200.000	0.056	0.490
-132.356	789.405	0.042	-0.114
-131.341	-82.151	-0.156	-0.051
-130.326	-154.419	0.148	-0.010
-129.312	-168.976	0.170	0.006
-128.297	800.000	-0.109	-0.308
-127.283	339.110	-0.098	0.192
-126.268	-200.000	0.025	0.228
-125.253	-39.817	-0.426	0.222
-124.239	-17.658	0.221	-0.139
-123.224	206.595	0.096	-0.150
-122.210	-170.285	-0.252	-0.009
-121.195	-164.022	0.121	0.006
-120.180	107.552	0.261	0.310
-119.166	-55.283	-0.229	0.103
-118.151	800.000	-0.142	0.545
-117.137	148.945	-0.013	0.018
-116.122	278.069	0.089	-0.159
-115.107	-30.238	0.128	-0.072
-114.093	-200.000	0.048	0.217
-113.078	-35.306	-0.411	-0.223
-112.064	-31.055	-0.356	0.200
-111.049	-200.000	0.013	0.224
-110.034	-8.003	0.068	-0.046
-109.020	185.465	0.153	-0.227
-108.005	398.905	0.154	0.321
-106.991	-56.176	-0.105	-0.047
-105.976	-78.667	0.059	-0.020
-104.962	-200.000	0.016	-0.100
-103.947	-25.778	-0.300	-0.176
-102.932	75.225	-0.072	-0.076
-101.918	631.011	0.095	0.241
-100.903	402.106	-0.095	0.200
-99.889	20.642	-0.276	0.223
-98.874	437.492	-0.106	0.231
-97.859	70.418	-0.163	-0.168
-96.845	800.000	-0.053	0.191
-95.830	-200.000	0.124	0.000
-94.816	-200.000	0.002	-0.127
-93.801	-166.092	-0.233	-0.010
-92.786	25.802	-0.094	-0.078
-91.772	-81.665	-0.259	-0.085
-90.757	-161.717	0.270	0.014
-89.743	2.589	-0.080	-0.058
-88.728	-149.553	0.152	0.012
-87.713	10.339	-0.172	0.130
-86.699	216.669	0.083	0.132
-85.684	92.943	-0.203	0.228
-84.670	-200.000	-0.149	-0.001
-83.655	372.493	-0.099	0.201
-82.640	87.862	0.189	0.209
-81.626	-89.770	0.250	-0.073
-80.611	21.530	-0.227	-0.184
-79.597	215.267	-0.119	-0.188
-78.582	33.930	0.269	0.234
-77.567	-98.961	-0.221	0.056
-76.553	-186.375	0.199	-0.003
-75.538	-200.000	0.058	0.266
-74.524	-143.364	-0.370	-0.035
-73.509	-194.620	-0.504	-0.004
-72.494	0.667	-0.217	-0.155
-71.480	-124.412	-0.253	-0.039
-70.465	-45.862	0.198	0.097
-69.451	800.000	-0.113	0.318
-68.436	730.715	0.116	0.308
-67.422	-135.553	0.138	0.016
-66.407	425.621	0.054	-0.116
-65.392	-80.228	-0.251	0.084
-64.378	-200.000	-0.000	-0.105
-63.363	-200.000	0.048	0.299
-62.349	-132.834	-0.287	-0.037
-61.334	-32.861	-1.058	-0.585
-60.319	628.029	0.176	0.442
-59.305	800.000	-0.173	-0.627
-58.290	245.557	0.616	1.032
-57.276	448.575	0.774	1.699
-56.261	-200.000	82.734	504.220
-55.246	548.616	1386.803	3307.932
-54.232	173.694	2660.082	3822.809
-53.217	111.172	2439.261	2925.976
-52.203	44.519	2174.673	1989.463
-51.188	39.706	2079.255	1856.928
-50.173	38.048	2059.114	1823.395
-49.159	50.575	2101.548	1979.331
-48.144	53.994	2121.013	2029.849
-47.130	40.465	2084.318	1868.310
-46.115	38.093	2073.183	1835.984
-45.100	38.011	2070.008	1832.325
-44.086	37.926	2068.210	1829.867
-43.071	37.888	2065.430	1826.974
-42.057	37.955	2063.173	1825.536
-41.042	37.869	2061.475	1823.159
-40.027	37.893	2059.392	1821.469
-39.013	37.968	2057.102	1820.068
-37.998	37.977	2055.270	1818.462
-36.984	37.916	2053.655	1816.388
-35.969	37.934	2051.616	1814.684
-34.954	37.967	2049.939	1813.438
-33.940	37.917	2048.866	1811.946
-32.925	38.050	2046.425	1810.950
-31.911	38.037	2044.802	1809.320
-30.896	38.062	2042.983	1807.871
-29.881	37.953	2041.671	1805.634
-28.867	37.981	2039.903	1804.257
-27.852	38.007	2037.880	1802.635
-26.838	38.032	2036.011	1801.141
-25.823	37.964	2034.991	1799.538
-24.809	38.045	2032.307	1797.839
-23.794	38.013	2030.366	1795.757
-22.779	38.058	2028.153	1794.139
-21.765	38.106	2026.439	1792.993
-20.750	38.060	2024.798	1791.051
-19.736	38.051	2023.478	1789.732
-18.721	38.122	2021.574	1788.626
-17.706	38.071	2020.127	1786.809
-16.692	37.938	2018.647	1784.215
-15.677	38.020	2016.743	1783.210
-14.663	38.042	2015.164	1781.939
-13.648	38.025	2013.665	1780.386
-12.633	37.951	2013.648	1779.630
-11.619	37.987	2011.869	1778.317
-10.604	38.092	2009.968	1777.521
-9.590	38.005	2008.787	1775.612
-8.575	37.944	2007.319	1773.693
-7.560	37.913	2005.994	1772.169
-6.546	38.026	2004.568	1771.863
-5.531	38.024	2003.222	1770.588
-4.517	38.013	2001.715	1769.079
-3.502	38.014	2000.629	1768.063
-2.487	38.087	1998.651	1766.906
-1.473	37.977	1998.546	1765.741
-0.458	38.023	1994.006	1762.077
0.556	35.678	1973.696	1736.213
1.571	31.501	1953.525	1680.872
2.586	27.249	1976.623	1661.838
3.600	26.124	2014.632	1683.160
4.615	25.498	2012.262	1675.202
5.629	20.545	1907.202	1543.726
6.644	8.547	1774.063	1336.141
7.659	0.684	1726.543	1236.102
8.673	-0.134	1721.223	1225.512
9.688	-0.225	1719.882	1223.706
10.702	-0.292	1718.538	1222.097
11.717	-0.448	1715.428	1218.510
12.731	0.140	1715.205	1223.018
13.746	7.979	1735.515	1301.657
14.761	15.935	1751.596	1378.988
15.775	14.838	1745.395	1365.032
16.790	12.484	1739.367	1341.016
17.804	12.230	1738.881	1338.456
18.819	12.252	1737.527	1337.474
19.834	12.406	1736.434	1337.766
20.848	12.568	1735.929	1338.573
21.863	12.421	1734.800	1336.393
22.877	12.422	1734.033	1335.688
23.892	12.443	1733.152	1335.062
24.907	12.490	1731.970	1334.420
25.921	12.414	1731.261	1333.136
26.936	12.452	1730.174	1332.490
27.950	12.437	1729.241	1331.533
28.965	12.502	1727.791	1330.827
29.980	12.549	1727.145	1330.585
30.994	12.459	1725.653	1328.594
32.009	12.444	1723.849	1326.965
33.023	12.516	1722.611	1326.480
34.038	12.494	1721.804	1325.559
35.053	12.493	1720.556	1324.478
36.067	12.486	1719.390	1323.405
37.082	12.489	1718.246	1322.426
38.096	12.503	1717.091	1321.540
39.111	12.541	1715.836	1320.757
40.126	12.504	1715.324	1319.952
41.140	12.544	1714.494	1319.517
42.155	12.551	1712.992	1318.297
43.169	12.399	1712.058	1316.250
44.184	12.517	1710.805	1316.114
45.199	12.599	1708.770	1315.088
46.213	12.509	1707.775	1313.483
47.228	12.517	1706.289	1312.286
48.242	12.539	1704.758	1311.172
49.257	12.501	1704.009	1310.178
50.271	12.540	1702.585	1309.271
51.286	12.513	1701.342	1307.989
52.301	12.556	1699.890	1307.096
53.315	12.528	1698.025	1305.329
54.330	12.651	1696.128	1304.729
55.344	12.549	1694.707	1302.713
56.359	12.641	1692.692	1301.776
57.374	12.624	1691.870	1300.890
58.388	12.652	1690.589	1300.015
59.403	12.632	1689.040	1298.552
60.417	12.605	1687.881	1297.329
61.432	12.647	1686.587	1296.552
62.447	12.640	1685.035	1295.191
63.461	12.685	1683.572	1294.304
64.476	12.652	1682.743	1293.292
65.490	12.689	1681.503	1292.519
66.505	12.748	1679.652	1291.440
67.520	12.686	1678.817	1290.197
68.534	12.679	1677.106	1288.715
69.549	12.670	1675.928	1287.628
70.563	12.735	1674.450	1286.884
71.578	12.705	1672.725	1285.214
72.593	12.742	1671.814	1284.689
73.607	12.740	1670.339	1283.424
74.622	12.780	1669.061	1282.636
75.636	12.737	1668.463	1281.733
76.651	12.708	1667.667	1280.781
77.666	12.737	1665.788	1279.454
78.680	12.780	1664.831	1278.933
79.695	12.850	1663.162	1278.080
80.709	12.785	1662.196	1276.722
81.724	12.847	1661.327	1276.422
82.739	12.900	1659.759	1275.518
83.753	12.763	1659.132	1273.863
84.768	12.832	1657.312	1272.886
85.782	12.846	1656.190	1272.016
86.797	12.865	1654.560	1270.803
87.812	12.846	1653.394	1269.644
88.826	12.743	1652.252	1267.865
89.841	12.827	1651.379	1267.725
90.855	12.884	1649.731	1266.791
91.870	12.880	1648.651	1265.815
92.884	12.912	1647.578	1265.127
93.899	12.903	1646.009	1263.738
94.914	12.893	1644.374	1262.296
95.928	12.883	1643.253	1261.247
96.943	12.916	1641.567	1260.097
97.957	12.911	1639.676	1258.493
98.972	12.955	1637.807	1257.285
99.987	13.004	1635.996	1256.158
101.001	13.009	1634.396	1254.852
102.016	13.055	1632.377	1253.540
103.030	12.983	1630.937	1251.781
104.045	12.966	1629.240	1250.238
105.060	12.979	1627.210	1248.668
106.074	13.040	1625.429	1247.651
107.089	13.083	1623.549	1246.423
108.103	13.014	1622.653	1245.101
109.118	13.058	1621.033	1244.081
110.133	13.092	1619.151	1242.782
111.147	13.104	1617.382	1241.409
112.162	13.110	1615.991	1240.277
113.176	13.093	1614.535	1238.915
114.191	13.171	1612.772	1238.039
115.206	13.179	1611.041	1236.660
116.220	13.154	1609.859	1235.461
117.235	13.165	1608.179	1234.141
118.249	13.104	1606.595	1232.362
119.264	13.187	1605.037	1231.674
120.279	13.275	1603.705	1231.197
121.293	13.180	1601.937	1229.025
122.308	13.252	1599.953	1227.932
123.322	13.305	1597.818	1226.579
124.337	13.237	1595.973	1224.546
125.352	13.320	1594.551	1223.966
126.366	13.243	1593.333	1222.350
127.381	13.321	1591.846	1221.678
128.395	13.318	1590.784	1220.737
129.410	13.389	1588.644	1219.510
130.424	13.392	1587.077	1218.219
131.439	13.440	1585.374	1217.158
132.454	13.276	1583.943	1214.746
133.468	13.309	1582.062	1213.436
134.483	13.324	1580.837	1212.503
135.497	13.346	1578.997	1211.141
136.512	13.360	1577.850	1210.260
137.527	13.404	1575.957	1209.023
138.541	13.397	1575.040	1208.156
139.556	13.397	1573.399	1206.793
140.570	13.470	1571.272	1205.588
141.585	13.529	1569.388	1204.465
142.600	13.420	1568.185	1202.642
143.614	13.457	1566.599	1201.585
144.629	13.431	1565.148	1200.179
145.643	13.506	1563.773	1199.564
146.658	13.446	1562.501	1198.044
147.673	13.537	1560.464	1197.037
148.687	13.487	1559.211	1195.607
149.702	13.500	1557.336	1194.161
150.716	13.558	1555.757	1193.263
151.731	13.437	1554.781	1191.538
152.746	13.484	1553.272	1190.611
153.760	13.481	1551.662	1189.251
154.775	13.554	1550.147	1188.505
155.789	13.636	1548.730	1187.902
156.804	13.541	1547.629	1186.271
157.819	13.548	1546.385	1185.267
158.833	13.564	1544.966	1184.188
159.848	13.569	1543.685	1183.136
160.862	13.608	1542.536	1182.429
161.877	13.711	1540.821	1181.743
162.892	13.641	1539.712	1180.290
163.906	13.659	1538.708	1179.544
164.921	13.677	1537.319	1178.506
165.935	13.587	1536.782	1177.351
166.950	13.711	1534.892	1176.676
167.964	13.704	1534.210	1176.001
168.979	13.703	1532.856	1174.849
169.994	13.714	1531.807	1174.018
171.008	13.734	1531.116	1173.528
172.023	13.781	1529.853	1172.787
173.037	13.705	1528.620	1171.203
174.052	13.811	1527.261	1170.807
175.067	13.706	1526.418	1169.317
176.081	13.788	1524.987	1168.697
177.096	13.818	1523.619	1167.756
178.110	13.857	1522.176	1166.821
179.125	13.846	1521.421	1166.060
180.140	13.881	1520.294	1165.334
181.154	13.866	1519.650	1164.638
182.169	13.885	1518.216	1163.568
183.183	13.910	1516.941	1162.661
184.198	13.884	1516.007	1161.658
185.213	13.929	1514.485	1160.706
186.227	13.881	1513.944	1159.856
187.242	13.917	1513.177	1159.415
188.256	13.961	1512.099	1158.796
189.271	14.006	1510.809	1158.018
190.286	13.948	1510.131	1156.988
191.300	13.969	1508.896	1156.087
192.315	13.962	1508.085	1155.312
193.329	13.988	1507.297	1154.791
194.344	13.995	1506.210	1153.907
195.359	13.983	1505.438	1153.125
196.373	14.019	1504.329	1152.423
197.388	13.997	1502.773	1150.975
198.402	14.041	1501.775	1150.417
199.417	14.002	1500.576	1149.129
200.432	14.082	1499.859	1149.027
201.446	14.043	1498.637	1147.720
202.461	14.135	1497.412	1147.319
203.475	14.001	1496.794	1145.817
204.490	13.970	1495.414	1144.445
205.504	13.988	1494.452	1143.732
206.519	14.021	1493.654	1143.248
207.534	14.056	1492.908	1142.816
208.548	14.062	1492.169	1142.191
209.563	14.106	1490.260	1140.930
210.577	14.089	1489.345	1140.013
211.592	14.086	1488.284	1139.079
212.607	14.149	1487.776	1139.020
213.621	14.212	1487.038	1138.789
214.636	14.237	1486.426	1138.385
215.650	14.197	1485.045	1136.953
216.665	14.243	1484.283	1136.585
217.680	14.215	1483.704	1135.851
218.694	14.255	1482.363	1134.994
219.709	14.183	1481.986	1134.115
220.723	14.273	1480.498	1133.489
221.738	14.286	1479.574	1132.770
222.753	14.293	1478.727	1132.070
223.767	14.213	1478.053	1130.911
224.782	14.238	1477.274	1130.381
225.796	14.196	1476.687	1129.552
226.811	14.275	1475.271	1128.902
227.826	14.317	1474.518	1128.514
228.840	14.256	1473.863	1127.494
229.855	14.332	1473.109	1127.335
230.869	14.318	1471.902	1126.216
231.884	14.293	1471.188	1125.402
232.899	14.369	1470.062	1124.953
233.913	14.280	1469.299	1123.668
234.928	14.367	1467.548	1122.815
235.942	14.334	1466.723	1121.863
236.957	14.530	1465.560	1122.194
237.972	14.469	1464.701	1121.027
238.986	14.473	1463.388	1119.953
240.001	14.520	1462.458	1119.457
241.015	14.526	1461.309	1118.519
242.030	14.535	1460.382	1117.767
243.045	14.523	1459.498	1116.916
244.059	14.586	1458.304	1116.320
245.074	14.650	1457.133	1115.752
246.088	14.626	1456.831	1115.263
247.103	14.649	1456.002	1114.687
248.117	14.620	1455.514	1114.018
249.132	14.683	1454.408	1113.496
250.147	14.676	1453.488	1112.643
251.161	14.738	1453.091	1112.657
252.176	14.672	1452.522	1111.679
253.190	14.723	1451.681	1111.280
254.205	14.764	1451.024	1110.951
255.220	14.783	1449.562	1109.857
256.234	14.731	1449.025	1109.001
257.249	14.732	1448.165	1108.256
258.263	14.763	1447.475	1107.836
259.278	14.828	1446.283	1107.256
260.293	14.722	1445.727	1106.029
261.307	14.820	1444.776	1105.851
262.322	14.845	1443.837	1105.197
263.336	14.827	1443.450	1104.684
264.351	14.881	1442.321	1104.082
265.366	14.797	1441.190	1102.561
266.380	14.747	1440.919	1101.930
267.395	14.831	1439.511	1101.307
268.409	14.859	1438.546	1100.658
269.424	14.872	1437.384	1099.754
270.439	14.877	1436.798	1099.241
271.453	14.828	1435.964	1098.186
272.468	15.018	1434.651	1098.335
273.482	15.026	1434.033	1097.811
274.497	14.948	1433.068	1096.464
275.512	14.960	1432.216	1095.797
276.526	14.950	1431.718	1095.254
277.541	14.883	1431.071	1094.226
278.555	14.935	1430.133	1093.750
279.570	14.971	1429.436	1093.354
280.585	14.977	1428.096	1092.274
281.599	14.958	1427.262	1091.415
282.614	15.073	1426.038	1091.129
283.628	14.963	1425.028	1089.543
284.643	14.989	1424.643	1089.323
285.657	15.006	1423.211	1088.245
286.672	14.909	1422.494	1086.970
287.687	14.987	1421.353	1086.506
288.701	15.053	1420.375	1086.088
289.716	15.075	1419.056	1085.125
290.730	15.159	1418.363	1085.049
291.745	15.008	1417.648	1083.429
292.760	14.954	1416.879	1082.393
293.774	15.042	1415.596	1081.889
294.789	14.932	1414.987	1080.616
295.803	15.032	1413.934	1080.362
296.818	15.013	1413.032	1079.453
297.833	15.017	1412.083	1078.660
298.847	15.029	1411.084	1077.879
299.862	15.046	1409.847	1076.944
300.876	14.959	1409.369	1075.926
301.891	15.040	1408.076	1075.361
302.906	15.009	1407.323	1074.494
303.920	14.997	1406.841	1073.957
304.935	15.087	1405.988	1073.788
305.949	15.145	1404.537	1072.955
306.964	15.177	1403.737	1072.454
307.979	15.182	1402.723	1071.614
308.993	15.138	1401.748	1070.492
310.008	15.093	1401.363	1069.817
311.022	15.069	1400.009	1068.534
312.037	15.130	1399.099	1068.134
313.052	15.121	1398.308	1067.378
314.066	15.058	1397.520	1066.285
315.081	15.094	1396.443	1065.595
316.095	15.040	1396.046	1064.854
317.110	15.099	1394.595	1064.032
318.125	15.119	1393.793	1063.452
319.139	15.123	1392.644	1062.505
320.154	15.108	1391.718	1061.612
321.168	15.078	1390.716	1060.562
322.183	15.060	1389.758	1059.620
323.197	15.150	1388.542	1059.174
324.212	15.066	1387.795	1057.978
325.227	15.061	1387.193	1057.393
326.241	15.009	1385.964	1056.035
327.256	15.110	1385.064	1055.893
328.270	15.124	1384.225	1055.247
329.285	15.076	1383.667	1054.427
330.300	15.144	1382.644	1053.984
331.314	15.080	1381.546	1052.650
332.329	15.075	1380.407	1051.657
333.343	15.085	1379.820	1051.180
334.358	15.053	1378.862	1050.155
335.373	15.040	1378.105	1049.407
336.387	15.115	1376.722	1048.728
337.402	15.086	1376.466	1048.259
338.416	15.003	1375.896	1047.211
339.431	15.078	1375.341	1047.167
340.446	15.105	1374.140	1046.326
341.460	15.045	1373.298	1045.218
342.475	15.037	1372.336	1044.343
343.489	15.040	1371.291	1043.473
344.504	15.011	1370.603	1042.678
345.519	15.066	1368.941	1041.667
346.533	15.022	1368.171	1040.715
347.548	15.016	1367.097	1039.767
348.562	14.966	1366.283	1038.742
349.577	14.990	1365.674	1038.337
350.592	14.968	1365.045	1037.633
351.606	15.023	1364.312	1037.325
352.621	15.010	1363.380	1036.442
353.635	14.966	1362.164	1035.157
354.650	15.129	1360.930	1035.130
355.665	15.004	1360.102	1033.638
356.679	15.006	1358.895	1032.646
357.694	14.994	1357.379	1031.326
358.708	14.934	1356.952	1030.543
359.723	14.914	1355.679	1029.358
360.738	14.987	1354.541	1028.856
361.752	14.880	1354.227	1027.868
362.767	14.958	1352.425	1026.889
363.781	14.857	1351.335	1025.350
364.796	14.829	1351.106	1024.914
365.810	14.847	1349.943	1024.051
366.825	14.801	1349.435	1023.291
367.840	14.851	1348.725	1022.971
368.854	14.731	1347.591	1021.283
369.869	14.744	1346.921	1020.767
370.883	14.819	1346.338	1020.693
371.898	14.677	1345.402	1019.023
372.913	14.664	1344.591	1018.240
373.927	14.755	1343.544	1017.915
374.942	14.742	1343.166	1017.458
375.956	14.792	1341.808	1016.643
376.971	14.764	1340.858	1015.662
377.986	14.681	1340.393	1014.716
379.000	14.756	1339.413	1014.339
380.015	14.743	1338.511	1013.489
381.029	14.686	1337.824	1012.535
382.044	14.560	1337.004	1011.061
383.059	14.618	1336.016	1010.576
384.073	14.714	1335.120	1010.385
385.088	14.605	1334.789	1009.388
386.102	14.635	1333.718	1008.671
387.117	14.523	1332.934	1007.312
388.132	14.686	1331.747	1007.308
389.146	14.716	1331.094	1006.909
390.161	14.570	1330.600	1005.562
391.175	14.563	1329.735	1004.777
392.190	14.525	1328.775	1003.735
393.205	14.585	1327.857	1003.313
394.219	14.522	1326.998	1002.196
395.234	14.604	1325.113	1001.180
396.248	14.532	1323.989	999.811
397.263	14.429	1322.698	998.129
398.278	14.350	1321.248	996.474
399.292	14.442	1320.105	996.076
400.307	14.394	1319.255	995.055
401.321	14.444	1318.120	994.413
402.336	14.304	1317.320	992.883
403.350	14.266	1315.973	991.559
404.365	14.347	1314.819	991.081
405.380	14.296	1314.064	990.120
406.394	14.291	1313.297	989.428
407.409	14.193	1312.300	988.003
408.423	14.208	1311.815	987.643
409.438	14.197	1310.914	986.809
410.453	14.159	1309.724	985.601
411.467	14.143	1309.402	985.177
412.482	14.165	1308.583	984.607
413.496	14.175	1307.423	983.705
414.511	14.165	1306.377	982.771
415.526	14.080	1305.983	981.884
416.540	14.085	1305.242	981.268
417.555	14.112	1304.362	980.679
418.569	14.089	1303.698	979.959
419.584	14.017	1303.299	979.147
420.599	14.001	1302.502	978.371
421.613	134.303	1418.840	1775.029
422.628	130.414	1435.804	1775.140
