DTS Sentinel unit serial number:	SN413079Multiplexer serial number:	ORYXHardware model number:	OX4-SRSoftware version number:	ORYX F/W v4.00 Oryx Data Collector v3.7.2.0data status	okinstallation	princeton_trtdifferential loss correction	single-endedforward channel	channel 4reverse channel	N/Adate	2019/09/12time	05:15:10forward acquisition time	60.00reverse acquisition time	0.00gamma	496.2192k internal	0.2309k external	0.2309temperature offset calibration	1.0066default loss term (dB/km)	0.3790temperature slope calibration	1.0000multiplexer offset coefficient	1.0000multiplexer slope coefficient	1.0000fibre end	0.00T internal ref (°C)	31.83T ext. ref 1 (°C)	1.63T ext. ref 2 (°C)	27.32length (m)	temperature (°C)	Stokes	anti-Stokes-747.200	-9.353	0.110	0.074
-746.185	-114.543	0.378	0.074
-745.171	-200.000	0.029	0.146
-744.156	96.540	0.207	0.241
-743.142	-200.000	0.006	-0.256
-742.127	-200.000	-0.034	0.159
-741.112	58.324	-0.196	0.195
-740.098	-193.272	0.491	0.004
-739.083	221.412	0.259	0.423
-738.069	46.279	-0.294	0.277
-737.054	43.293	-0.114	-0.106
-736.039	-59.503	-0.394	-0.172
-735.025	-115.692	0.526	-0.100
-734.010	-151.705	0.140	0.010
-732.996	800.000	0.070	0.204
-731.981	-200.000	0.009	-0.113
-730.966	342.704	-0.056	0.112
-729.952	-46.479	0.206	0.103
-728.937	76.811	-0.107	0.115
-727.923	-163.429	-0.085	0.004
-726.908	-109.888	0.324	0.069
-725.894	385.714	0.077	-0.162
-724.879	-27.336	-0.239	0.142
-723.864	-143.127	-0.151	-0.015
-722.850	-200.000	-0.001	0.024
-721.835	-105.971	0.133	-0.030
-720.821	179.814	0.138	0.205
-719.806	-48.342	0.307	0.150
-718.791	-200.000	-0.018	0.202
-717.777	80.593	-0.291	-0.318
-716.762	-200.000	-0.027	0.194
-715.748	-125.179	-0.239	-0.037
-714.733	66.550	0.252	0.260
-713.718	287.999	-0.100	-0.184
-712.704	-200.000	-0.009	-0.054
-711.689	-27.626	0.200	-0.118
-710.675	-200.000	0.018	-0.237
-709.660	436.758	-0.014	0.032
-708.645	-200.000	0.001	0.052
-707.631	31.786	-0.138	-0.121
-706.616	-36.908	-0.149	-0.081
-705.602	44.775	-0.252	0.235
-704.587	-197.657	-0.290	-0.002
-703.572	-200.000	-0.022	0.422
-702.558	-200.000	0.031	0.170
-701.543	744.039	0.020	-0.055
-700.529	22.726	-0.130	0.108
-699.514	-200.000	-0.048	0.397
-698.499	-0.401	0.082	-0.059
-697.485	327.938	0.096	-0.187
-696.470	-15.006	-0.369	-0.240
-695.456	800.000	-0.066	-0.200
-694.441	-106.686	0.201	-0.045
-693.426	-77.248	-0.149	0.053
-692.412	8.454	0.015	0.012
-691.397	55.709	-0.112	-0.110
-690.383	-95.835	0.296	-0.080
-689.368	77.437	-0.105	0.114
-688.354	800.000	0.049	-0.162
-687.339	-97.044	0.325	-0.086
-686.324	800.000	-0.042	-0.176
-685.310	-58.841	-0.260	0.114
-684.295	-171.955	-0.382	0.013
-683.281	-31.802	-0.334	0.190
-682.266	-46.047	0.123	0.061
-681.251	-200.000	-0.048	-0.289
-680.237	-200.000	0.010	-0.220
-679.222	185.344	-0.284	-0.428
-678.208	184.532	-0.218	-0.328
-677.193	-196.540	0.443	-0.003
-676.178	-65.382	-0.030	0.012
-675.164	-36.379	-0.489	0.267
-674.149	-82.271	-0.075	0.025
-673.135	44.177	0.076	-0.070
-672.120	38.890	0.039	-0.036
-671.105	-87.941	-0.025	-0.007
-670.091	88.842	-0.153	-0.173
-669.076	213.658	-0.166	0.266
-668.062	-23.401	0.096	0.058
-667.047	150.936	-0.054	-0.074
-666.032	-115.536	0.286	-0.055
-665.018	-34.025	-0.271	0.151
-664.003	128.268	0.138	0.178
-662.989	800.000	-0.120	-0.356
-661.974	-200.000	-0.011	-0.080
-660.959	-117.755	0.149	0.027
-659.945	-200.000	0.001	0.098
-658.930	800.000	-0.048	-0.187
-657.916	184.501	0.052	-0.079
-656.901	-57.740	-0.032	-0.014
-655.886	77.066	0.258	-0.277
-654.872	95.021	-0.247	-0.285
-653.857	-53.248	0.192	-0.089
-652.843	676.418	-0.156	-0.410
-651.828	132.391	0.129	0.168
-650.814	333.834	-0.053	-0.103
-649.799	-102.211	-0.369	-0.090
-648.784	108.600	0.287	0.347
-647.770	169.479	-0.061	0.088
-646.755	80.400	-0.242	-0.264
-645.741	158.301	-0.052	0.073
-644.726	-200.000	0.026	-0.218
-643.711	-127.653	-0.244	-0.036
-642.697	-200.000	-0.028	0.178
-641.682	293.655	-0.164	-0.303
-640.668	-160.242	-0.367	0.020
-639.653	-200.000	-0.013	0.129
-638.638	-146.674	0.366	-0.032
-637.624	-178.108	-0.267	-0.006
-636.609	-190.394	0.290	0.003
-635.595	-134.541	0.498	-0.062
-634.580	10.010	-0.358	-0.275
-633.565	800.000	-0.010	0.036
-632.551	-200.000	-0.005	0.174
-631.536	219.500	-0.016	-0.027
-630.522	17.652	0.115	0.093
-629.507	30.611	-0.025	0.022
-628.492	16.275	-0.061	-0.049
-627.478	-200.000	-0.013	-0.211
-626.463	800.000	0.044	0.138
-625.449	800.000	-0.136	0.419
-624.434	800.000	0.086	-0.312
-623.419	-200.000	-0.032	-0.240
-622.405	-169.972	0.350	-0.013
-621.390	-200.000	-0.012	0.103
-620.376	-125.665	-0.263	0.040
-619.361	156.030	0.125	0.174
-618.346	-200.000	-0.004	0.386
-617.332	-200.000	0.026	0.154
-616.317	178.045	0.158	0.233
-615.303	800.000	0.085	0.283
-614.288	800.000	-0.079	-0.242
-613.273	-40.359	-0.209	0.110
-612.259	458.324	0.040	-0.091
-611.244	-148.343	-0.248	-0.021
-610.230	136.062	0.125	-0.165
-609.215	-166.131	-0.179	0.008
-608.201	189.629	0.064	-0.096
-607.186	-34.781	-0.253	-0.140
-606.171	35.478	-0.181	-0.161
-605.157	187.009	-0.031	0.047
-604.142	200.004	0.152	0.236
-603.128	669.528	0.069	-0.180
-602.113	-43.583	0.191	-0.097
-601.098	-145.228	0.190	-0.017
-600.084	-110.041	0.250	0.053
-599.069	84.615	-0.127	0.141
-598.055	-43.304	-0.264	0.135
-597.040	101.415	0.045	-0.053
-596.025	-47.350	-0.220	-0.108
-595.011	-25.480	-0.232	0.138
-593.996	18.741	0.170	-0.137
-592.982	-77.435	-0.139	0.049
-591.967	-160.074	-0.395	-0.022
-590.952	-200.000	-0.026	-0.333
-589.938	-116.351	-0.322	0.060
-588.923	-200.000	0.008	-0.144
-587.909	-117.295	0.294	-0.054
-586.894	-200.000	-0.009	0.124
-585.879	-67.199	-0.117	0.046
-584.865	-76.138	-0.170	0.061
-583.850	166.364	0.103	0.147
-582.836	-200.000	0.017	-0.125
-581.821	70.747	-0.321	-0.336
-580.806	-50.579	0.142	-0.067
-579.792	156.919	0.241	-0.337
-578.777	-103.073	0.293	-0.070
-577.763	-46.976	0.089	0.044
-576.748	800.000	0.080	-0.228
-575.733	-111.780	-0.149	-0.030
-574.719	196.434	-0.209	-0.321
-573.704	252.740	-0.072	0.124
-572.690	-156.326	-0.089	-0.006
-571.675	539.894	-0.145	-0.349
-570.661	195.352	0.199	0.305
-569.646	-51.132	-0.067	0.032
-568.631	-12.905	0.311	-0.204
-567.617	-9.844	0.246	0.165
-566.602	68.917	0.202	-0.210
-565.588	263.010	-0.110	-0.193
-564.573	51.352	-0.198	0.190
-563.558	133.605	-0.180	-0.234
-562.544	496.383	0.036	-0.083
-561.529	13.292	-0.182	0.142
-560.515	-186.610	0.178	-0.003
-559.500	-133.334	0.159	-0.020
-558.485	-10.395	0.114	0.076
-557.471	-57.054	-0.127	-0.057
-556.456	-28.767	-0.368	-0.214
-555.442	-200.000	0.020	-0.302
-554.427	800.000	0.076	0.235
-553.412	-96.267	0.225	-0.060
-552.398	419.039	-0.171	-0.369
-551.383	-36.727	-0.173	-0.094
-550.369	-143.312	0.204	0.020
-549.354	-54.402	-0.228	-0.104
-548.339	800.000	-0.059	0.170
-547.325	-49.239	0.080	-0.038
-546.310	204.575	0.224	0.351
-545.296	123.368	-0.081	0.103
-544.281	87.014	-0.123	-0.137
-543.266	398.358	-0.191	-0.402
-542.252	-79.761	-0.128	-0.043
-541.237	-43.976	-0.091	-0.046
-540.223	13.922	0.085	0.067
-539.208	-13.403	-0.366	0.239
-538.193	-55.985	0.053	-0.024
-537.179	101.780	-0.144	0.170
-536.164	106.971	-0.202	0.242
-535.150	-123.781	0.145	0.023
-534.135	-59.842	-0.204	0.088
-533.121	22.148	-0.264	-0.217
-532.106	-92.135	-0.112	-0.032
-531.091	800.000	0.060	0.253
-530.077	800.000	-0.036	-0.106
-529.062	-200.000	-0.006	0.113
-528.048	65.874	0.164	-0.168
-527.033	800.000	-0.045	0.157
-526.018	-129.810	0.379	-0.053
-525.004	-200.000	-0.004	0.257
-523.989	114.156	0.113	-0.139
-522.975	-7.907	-0.035	-0.024
-521.960	200.039	0.130	0.201
-520.945	4.745	-0.165	-0.122
-519.931	-200.000	-0.032	-0.182
-518.916	-137.897	0.207	-0.023
-517.902	-127.500	0.372	-0.054
-516.887	-200.000	0.081	0.425
-515.872	393.500	0.119	0.249
-514.858	92.338	0.336	0.381
-513.843	-118.267	0.136	0.024
-512.829	800.000	0.025	-0.103
-511.814	-54.848	0.172	0.078
-510.799	-44.298	0.333	0.168
-509.785	-160.600	-0.096	0.005
-508.770	486.061	-0.115	0.265
-507.756	-103.682	0.302	0.071
-506.741	390.400	0.033	0.069
-505.726	664.513	0.027	-0.070
-504.712	-128.300	0.088	0.013
-503.697	-113.514	0.124	-0.024
-502.683	-85.554	0.190	0.060
-501.668	480.662	0.122	-0.278
-500.653	-79.507	0.160	-0.054
-499.639	800.000	-0.114	0.328
-498.624	14.973	-0.206	-0.162
-497.610	-111.802	0.097	0.020
-496.595	800.000	-0.080	-0.278
-495.581	209.142	0.092	-0.145
-494.566	400.802	-0.084	0.178
-493.551	800.000	0.059	-0.186
-492.537	-6.979	0.249	-0.170
-491.522	-177.599	0.146	-0.004
-490.508	-32.040	-0.383	0.216
-489.493	-85.449	0.310	-0.097
-488.478	-78.705	-0.572	-0.196
-487.464	-105.016	0.352	0.081
-486.449	-123.180	0.430	0.069
-485.435	-200.000	-0.025	0.162
-484.420	-56.201	-0.243	-0.109
-483.405	109.780	-0.030	0.036
-482.391	251.232	-0.151	-0.258
-481.376	-97.275	-0.337	-0.089
-480.362	-200.000	0.036	-0.206
-479.347	-200.000	0.015	-0.327
-478.332	154.324	-0.080	-0.111
-477.318	-109.490	0.073	-0.015
-476.303	246.185	0.156	0.264
-475.289	174.502	0.080	0.116
-474.274	-200.000	0.020	0.091
-473.259	46.505	-0.242	-0.225
-472.245	800.000	0.045	-0.154
-471.230	800.000	-0.085	-0.319
-470.216	394.365	0.081	-0.169
-469.201	47.993	-0.249	0.234
-468.186	-80.656	0.011	0.004
-467.172	-7.592	-0.302	0.205
-466.157	26.994	-0.205	-0.173
-465.143	382.590	-0.050	0.104
-464.128	800.000	0.058	0.166
-463.113	324.637	0.244	0.469
-462.099	800.000	0.073	0.272
-461.084	-107.977	-0.096	0.021
-460.070	276.272	-0.057	0.103
-459.055	53.573	0.325	0.313
-458.040	-71.395	0.209	0.079
-457.026	336.479	-0.076	-0.148
-456.011	-154.132	-0.125	-0.009
-454.997	800.000	0.073	-0.223
-453.982	451.557	0.034	0.076
-452.968	-64.392	-0.222	-0.091
-451.953	-200.000	0.040	-0.253
-450.938	800.000	-0.056	-0.169
-449.924	312.568	-0.020	0.038
-448.909	-144.782	0.122	0.011
-447.895	-95.652	0.136	-0.037
-446.880	800.000	0.120	-0.401
-445.865	-121.090	0.187	0.032
-444.851	611.452	0.145	0.363
-443.836	-29.362	-0.233	0.134
-442.822	92.115	-0.111	-0.126
-441.807	-200.000	-0.048	0.297
-440.792	-146.920	-0.450	-0.039
-439.778	48.729	0.091	0.086
-438.763	81.697	0.130	-0.141
-437.749	-2.528	-0.129	-0.091
-436.734	800.000	-0.084	-0.255
-435.719	-17.125	-0.258	0.164
-434.705	-23.856	0.211	0.127
-433.690	8.300	-0.118	-0.089
-432.676	-54.907	-0.196	0.089
-431.661	280.157	-0.149	-0.268
-430.646	-200.000	0.011	0.161
-429.632	-200.000	-0.042	0.225
-428.617	-151.896	-0.078	0.006
-427.603	-26.592	0.148	0.087
-426.588	189.500	0.121	-0.182
-425.573	-200.000	-0.047	0.253
-424.559	-131.723	0.279	-0.037
-423.544	262.021	-0.145	0.252
-422.530	-51.728	0.196	0.092
-421.515	188.770	0.122	0.184
-420.500	189.411	0.200	-0.301
-419.486	-58.021	0.154	0.068
-418.471	-177.176	0.444	0.011
-417.457	-106.166	-0.229	-0.052
-416.442	35.018	0.264	-0.232
-415.428	-200.000	0.023	0.171
-414.413	112.158	-0.113	-0.137
-413.398	-200.000	0.015	0.219
-412.384	800.000	0.098	0.273
-411.369	800.000	0.070	-0.197
-410.355	-185.121	0.292	0.005
-409.340	800.000	-0.062	-0.175
-408.325	121.361	0.183	-0.228
-407.311	21.350	0.135	0.110
-406.296	314.111	0.048	-0.091
-405.282	800.000	-0.028	0.093
-404.267	-49.448	0.164	0.079
-403.252	-200.000	0.033	-0.271
-402.238	13.231	-0.049	-0.038
-401.223	-191.779	-0.369	0.004
-400.209	-42.203	-0.171	-0.088
-399.194	143.697	-0.023	-0.031
-398.179	-126.892	0.308	-0.046
-397.165	-125.636	0.229	-0.035
-396.150	120.255	-0.196	-0.244
-395.136	-50.127	-0.419	0.199
-394.121	-45.310	-0.148	0.074
-393.106	112.884	0.072	0.087
-392.092	-75.182	0.238	0.085
-391.077	-26.353	-0.239	-0.140
-390.063	20.205	-0.080	-0.064
-389.048	10.243	-0.046	-0.035
-388.033	95.216	0.116	0.132
-387.019	-115.186	-0.175	-0.033
-386.004	696.105	-0.089	-0.235
-384.990	800.000	0.030	-0.104
-383.975	-200.000	-0.007	-0.039
-382.960	177.878	0.113	-0.165
-381.946	291.488	-0.056	0.102
-380.931	-144.505	0.110	0.010
-379.917	172.050	-0.049	0.070
-378.902	800.000	0.089	-0.280
-377.888	-200.000	0.011	0.187
-376.873	-200.000	0.008	-0.166
-375.858	580.541	-0.205	-0.504
-374.844	-200.000	-0.008	0.109
-373.829	-96.472	0.094	0.025
-372.815	63.155	0.351	0.352
-371.800	72.201	0.185	0.193
-370.785	45.038	0.296	0.273
-369.771	434.796	-0.147	-0.319
-368.756	75.510	-0.124	-0.131
-367.742	-68.232	-0.199	-0.078
-366.727	-200.000	0.011	0.174
-365.712	-20.045	-0.288	0.178
-364.698	-129.156	0.315	-0.044
-363.683	-200.000	-0.027	0.210
-362.669	-200.000	-0.001	0.081
-361.654	123.309	-0.159	0.199
-360.639	-84.837	0.405	-0.128
-359.625	33.176	-0.083	0.072
-358.610	-122.802	-0.104	-0.017
-357.596	-92.315	0.469	-0.132
-356.581	-33.866	-0.158	-0.087
-355.566	26.868	0.096	-0.080
-354.552	800.000	-0.111	-0.469
-353.537	-157.575	-0.151	0.009
-352.523	-83.379	0.289	0.093
-351.508	-156.713	0.075	-0.005
-350.493	94.879	0.062	0.071
-349.479	800.000	0.032	0.118
-348.464	-200.000	-0.004	0.037
-347.450	-200.000	-0.053	0.288
-346.435	-119.925	-0.065	0.011
-345.420	433.087	-0.047	-0.101
-344.406	-108.459	0.213	-0.046
-343.391	-150.175	0.193	-0.015
-342.377	800.000	-0.013	-0.041
-341.362	-137.966	0.143	0.016
-340.348	-128.327	-0.029	-0.004
-339.333	23.643	0.101	-0.083
-338.318	-171.209	0.170	0.006
-337.304	-200.000	-0.067	-0.297
-336.289	709.041	-0.090	0.239
-335.275	282.036	0.211	0.379
-334.260	156.501	0.044	-0.061
-333.245	4.707	-0.133	-0.097
-332.231	-200.000	-0.005	-0.211
-331.216	291.876	-0.202	-0.367
-330.202	-88.355	-0.196	0.058
-329.187	83.901	-0.344	0.376
-328.172	-200.000	0.008	-0.256
-327.158	-30.250	-0.160	-0.091
-326.143	231.998	0.157	0.258
-325.129	-28.535	0.070	0.041
-324.114	-73.711	0.196	-0.071
-323.099	403.853	-0.079	0.166
-322.085	800.000	-0.067	0.230
-321.070	-200.000	-0.016	0.191
-320.056	-200.000	0.018	0.208
-319.041	800.000	-0.173	-0.579
-318.026	236.103	0.127	-0.210
-317.012	-97.717	0.148	0.038
-315.997	-143.763	0.251	-0.024
-314.983	-200.000	-0.014	-0.221
-313.968	-125.650	0.191	-0.029
-312.953	-19.386	-0.265	0.164
-311.939	-200.000	-0.047	-0.262
-310.924	171.897	-0.249	-0.357
-309.910	49.909	0.067	-0.063
-308.895	-123.711	0.457	0.072
-307.880	-69.832	-0.058	-0.022
-306.866	-167.178	-0.136	-0.006
-305.851	-5.615	0.080	-0.054
-304.837	-59.662	-0.050	-0.021
-303.822	-86.678	0.134	0.041
-302.807	800.000	-0.024	-0.090
-301.793	-101.701	0.240	-0.058
-300.778	-200.000	-0.054	0.255
-299.764	-138.442	0.119	0.013
-298.749	-24.666	0.054	-0.032
-297.735	240.414	-0.121	-0.202
-296.720	230.135	-0.076	0.124
-295.705	306.275	-0.051	-0.094
-294.691	156.819	-0.117	-0.162
-293.676	-200.000	-0.008	-0.069
-292.662	-16.156	-0.176	0.112
-291.647	800.000	-0.070	0.253
-290.632	110.464	0.016	-0.019
-289.618	800.000	-0.019	-0.077
-288.603	-41.606	-0.256	0.131
-287.589	-72.067	-0.111	-0.041
-286.574	293.799	-0.068	0.124
-285.559	25.645	0.182	-0.151
-284.545	-50.649	0.169	-0.079
-283.530	-97.926	-0.234	0.060
-282.516	-157.944	-0.141	-0.008
-281.501	-30.758	-0.104	0.059
-280.486	69.916	-0.259	0.266
-279.472	-103.673	-0.247	0.058
-278.457	800.000	-0.080	-0.237
-277.443	-200.000	0.000	0.014
-276.428	8.449	-0.239	0.180
-275.413	95.490	0.188	0.214
-274.399	-97.980	-0.075	0.019
-273.384	635.306	-0.090	-0.228
-272.370	42.416	0.336	0.305
-271.355	237.567	-0.180	-0.298
-270.340	541.283	0.088	-0.210
-269.326	51.982	0.231	0.219
-268.311	239.752	0.061	-0.101
-267.297	-66.888	0.254	0.100
-266.282	-136.866	-0.141	-0.016
-265.267	800.000	-0.021	0.085
-264.253	-200.000	0.004	-0.299
-263.238	365.243	-0.095	-0.190
-262.224	-200.000	-0.030	0.180
-261.209	219.365	0.199	0.317
-260.195	120.438	0.118	0.147
-259.180	93.734	0.064	-0.072
-258.165	-144.636	0.339	-0.031
-257.151	-200.000	0.000	0.029
-256.136	273.041	0.115	0.203
-255.122	-200.000	0.017	0.167
-254.107	-200.000	-0.032	-0.193
-253.092	57.371	0.166	0.161
-252.078	13.905	0.208	0.161
-251.063	342.469	0.169	-0.330
-250.049	295.022	-0.189	-0.345
-249.034	204.449	0.062	0.096
-248.019	-17.829	0.098	-0.061
-247.005	-26.175	-0.147	-0.086
-245.990	-79.013	-0.158	0.054
-244.976	499.774	0.126	-0.290
-243.961	-48.392	0.108	-0.052
-242.946	800.000	-0.072	-0.293
-241.932	-125.355	-0.173	0.026
-240.917	143.383	0.235	0.312
-239.903	-152.911	-0.444	0.031
-238.888	344.496	-0.104	-0.203
-237.873	-78.505	0.136	-0.046
-236.859	161.183	-0.121	-0.169
-235.844	-45.972	0.116	0.057
-234.830	800.000	0.068	0.197
-233.815	-200.000	0.065	0.537
-232.800	-143.708	-0.112	-0.011
-231.786	24.440	-0.064	-0.053
-230.771	-19.595	-0.186	-0.115
-229.757	772.432	0.037	-0.100
-228.742	-200.000	-0.010	-0.161
-227.727	-5.120	0.315	-0.216
-226.713	800.000	-0.017	0.050
-225.698	33.004	0.122	-0.105
-224.684	-127.666	-0.332	0.048
-223.669	236.792	-0.239	0.394
-222.655	-200.000	0.007	0.165
-221.640	47.879	-0.267	-0.249
-220.625	-83.235	0.166	-0.053
-219.611	229.605	0.086	-0.139
-218.596	-68.637	0.175	0.067
-217.582	-120.346	-0.396	0.067
-216.567	-200.000	0.033	-0.200
-215.552	300.300	-0.078	0.143
-214.538	-25.597	0.168	0.099
-213.523	-182.548	-0.129	0.002
-212.509	-200.000	0.072	0.374
-211.494	165.145	-0.226	0.317
-210.479	47.189	-0.211	0.196
-209.465	154.087	0.121	0.165
-208.450	-131.843	-0.454	-0.059
-207.436	101.464	-0.184	-0.213
-206.421	153.083	0.075	0.102
-205.406	-116.512	-0.263	0.048
-204.392	36.960	-0.191	0.168
-203.377	-200.000	-0.040	0.202
-202.363	800.000	0.068	0.229
-201.348	197.780	-0.055	0.084
-200.333	800.000	0.061	-0.226
-199.319	258.553	0.017	0.028
-198.304	-68.780	0.059	0.023
-197.290	-200.000	-0.021	0.172
-196.275	19.787	-0.299	0.239
-195.260	-52.673	0.409	-0.188
-194.246	83.414	0.160	-0.173
-193.231	-57.895	-0.056	0.024
-192.217	334.401	-0.066	0.128
-191.202	-200.000	-0.001	0.181
-190.187	-135.634	-0.298	0.035
-189.173	-84.300	-0.200	-0.063
-188.158	-200.000	0.003	0.033
-187.144	-59.822	-0.224	0.095
-186.129	-200.000	0.096	-0.453
-185.114	19.176	0.310	0.248
-184.100	800.000	-0.050	0.174
-183.085	44.579	0.102	0.093
-182.071	800.000	0.042	0.138
-181.056	800.000	0.068	0.269
-180.042	800.000	-0.076	-0.279
-179.027	800.000	0.094	0.301
-178.012	-24.316	-0.151	0.090
-176.998	82.059	-0.083	0.089
-175.983	108.129	0.243	-0.288
-174.969	800.000	0.026	0.104
-173.954	47.574	-0.046	0.043
-172.939	-70.129	-0.137	0.052
-171.925	-6.471	-0.180	0.122
-170.910	-46.127	0.430	-0.210
-169.896	-27.046	0.276	-0.160
-168.881	-48.711	-0.126	0.060
-167.866	800.000	0.069	0.192
-166.852	757.212	-0.055	0.148
-165.837	115.855	0.423	0.514
-164.823	-200.000	0.007	-0.503
-163.808	-56.833	-0.341	-0.150
-162.793	45.260	0.198	-0.181
-161.779	-107.035	-0.270	-0.059
-160.764	111.193	-0.179	-0.214
-159.750	55.200	0.305	-0.293
-158.735	602.330	0.093	-0.231
-157.720	-150.020	-0.325	0.025
-156.706	13.977	0.332	0.257
-155.691	422.090	-0.040	-0.085
-154.677	800.000	-0.115	0.383
-153.662	32.640	0.271	0.233
-152.647	-106.938	-0.113	-0.025
-151.633	-61.377	0.147	-0.062
-150.618	-100.858	0.426	0.104
-149.604	-136.012	0.102	0.012
-148.589	-50.849	-0.174	0.081
-147.574	-49.230	0.077	-0.036
-146.560	800.000	-0.075	0.268
-145.545	-92.210	0.327	-0.092
-144.531	35.824	-0.146	-0.128
-143.516	29.059	0.230	-0.194
-142.502	-200.000	-0.023	0.105
-141.487	219.250	0.185	-0.294
-140.472	-104.796	0.168	0.038
-139.458	-200.000	0.050	0.279
-138.443	270.116	-0.074	0.129
-137.429	190.509	0.228	-0.340
-136.414	-24.037	-0.130	0.077
-135.399	-1.619	-0.107	0.075
-134.385	140.476	-0.127	-0.166
-133.370	-110.808	-0.081	0.017
-132.356	-140.515	0.210	-0.022
-131.341	533.863	-0.101	0.238
-130.326	-140.608	-0.172	-0.018
-129.312	117.820	0.148	-0.181
-128.297	276.318	0.143	0.252
-127.283	-115.520	-0.260	-0.049
-126.268	222.330	0.204	0.326
-125.253	-200.000	-0.018	0.200
-124.239	216.785	-0.118	0.186
-123.224	-200.000	-0.031	-0.146
-122.210	-65.349	0.161	0.064
-121.195	1.356	0.116	0.082
-120.180	164.430	-0.111	0.155
-119.166	-200.000	-0.042	-0.394
-118.151	181.579	0.094	0.138
-117.137	-200.000	-0.016	-0.152
-116.122	73.195	-0.198	0.205
-115.107	-119.055	0.205	-0.036
-114.093	209.435	0.205	-0.319
-113.078	-103.416	-0.165	-0.039
-112.064	-200.000	0.034	-0.368
-111.049	202.632	0.154	0.236
-110.034	-116.432	-0.394	0.072
-109.020	-107.199	-0.504	0.110
-108.005	-30.007	-0.187	-0.105
-106.991	-28.771	0.121	0.069
-105.976	-43.178	0.241	0.121
-104.962	-200.000	-0.033	-0.286
-103.947	-200.000	0.018	0.213
-102.932	-12.184	-0.369	-0.239
-101.918	-11.282	0.213	-0.139
-100.903	-116.549	-0.096	-0.018
-99.889	-200.000	0.005	-0.046
-98.874	182.296	-0.092	0.135
-97.859	159.749	0.121	-0.166
-96.845	141.945	-0.066	0.086
-95.830	147.915	0.158	0.211
-94.816	-200.000	0.018	-0.112
-93.801	22.379	0.229	0.185
-92.786	-200.000	0.074	0.345
-91.772	644.818	0.034	-0.086
-90.757	-200.000	0.025	-0.198
-89.743	800.000	-0.085	-0.251
-88.728	-0.234	-0.098	0.069
-87.713	-73.892	-0.172	-0.062
-86.699	218.816	-0.055	0.087
-85.684	800.000	0.065	-0.219
-84.670	13.620	-0.076	0.058
-83.655	150.933	0.372	0.501
-82.640	-200.000	0.004	-0.051
-81.626	-29.890	0.078	0.044
-80.611	-67.746	-0.106	0.041
-79.597	800.000	0.087	-0.355
-78.582	507.213	-0.102	-0.234
-77.567	800.000	-0.069	-0.232
-76.553	-126.923	-0.152	0.022
-75.538	800.000	-0.065	0.191
-74.524	-53.800	-0.138	0.062
-73.509	-119.899	-0.065	-0.011
-72.494	-33.999	-0.212	0.116
-71.480	800.000	0.030	0.120
-70.465	-200.000	0.037	-0.209
-69.451	-95.447	0.213	-0.057
-68.436	-1.035	0.367	-0.257
-67.422	223.778	-0.175	0.280
-66.407	492.684	0.133	-0.303
-65.392	68.520	0.130	-0.132
-64.378	128.815	-0.034	0.043
-63.363	-200.000	-0.058	0.394
-62.349	625.314	-0.090	0.224
-61.334	-3.106	-1.010	-0.697
-60.319	333.883	0.420	0.804
-59.305	-200.000	-0.135	-0.912
-58.290	334.331	0.592	1.135
-57.276	800.000	0.561	1.918
-56.261	-200.000	96.360	597.519
-55.246	552.566	1369.169	3253.519
-54.232	158.592	2555.808	3509.509
-53.217	102.851	2299.697	2663.016
-52.203	38.322	2061.471	1816.020
-51.188	33.611	1975.660	1698.295
-50.173	32.008	1957.984	1668.790
-49.159	47.246	2007.238	1848.257
-48.144	48.723	2024.869	1877.715
-47.130	34.153	1987.390	1712.984
-46.115	31.860	1977.253	1683.616
-45.100	31.747	1973.960	1679.731
-44.086	31.760	1970.967	1677.242
-43.071	31.685	1968.622	1674.506
-42.057	31.587	1966.647	1671.883
-41.042	31.659	1964.599	1670.718
-40.027	31.751	1962.689	1669.845
-39.013	31.706	1961.152	1668.073
-37.998	31.799	1958.773	1666.810
-36.984	31.801	1957.410	1665.607
-35.969	31.837	1954.790	1663.625
-34.954	31.838	1953.585	1662.541
-33.940	31.785	1952.831	1661.362
-32.925	31.794	1950.735	1659.600
-31.911	31.845	1949.022	1658.521
-30.896	31.856	1947.358	1657.136
-29.881	31.847	1945.796	1655.665
-28.867	31.861	1943.916	1654.125
-27.852	31.929	1941.949	1652.984
-26.838	31.895	1940.001	1650.957
-25.823	31.821	1938.246	1648.749
-24.809	31.766	1937.128	1647.255
-23.794	31.846	1935.392	1646.411
-22.779	31.859	1933.412	1644.780
-21.765	31.784	1931.834	1642.709
-20.750	31.865	1929.821	1641.646
-19.736	31.824	1928.239	1639.877
-18.721	31.824	1927.186	1638.918
-17.706	31.882	1924.957	1637.462
-16.692	31.845	1923.559	1635.883
-15.677	31.815	1922.293	1634.481
-14.663	31.797	1921.121	1633.258
-13.648	31.923	1919.698	1633.079
-12.633	31.868	1918.564	1631.573
-11.619	31.798	1917.330	1629.856
-10.604	31.861	1915.889	1629.111
-9.590	31.792	1914.403	1627.181
-8.575	31.848	1912.876	1626.303
-7.560	31.866	1911.591	1625.302
-6.546	31.849	1910.412	1624.092
-5.531	31.868	1909.396	1623.327
-4.517	31.914	1907.985	1622.466
-3.502	31.827	1907.080	1620.872
-2.487	31.789	1905.937	1619.511
-1.473	31.872	1905.034	1619.397
-0.458	31.988	1899.563	1615.683
0.556	31.798	1881.095	1590.205
1.571	27.810	1863.205	1541.352
2.586	24.298	1885.491	1529.582
3.600	23.389	1921.704	1550.863
4.615	22.923	1916.290	1542.297
5.629	16.937	1812.851	1409.320
6.644	6.866	1691.330	1236.285
7.659	1.995	1654.831	1172.146
8.673	1.690	1651.277	1167.184
9.688	1.715	1649.494	1166.007
10.702	1.653	1648.134	1164.475
11.717	1.472	1644.739	1160.591
12.731	1.862	1643.718	1162.738
13.746	8.670	1660.422	1226.781
14.761	19.424	1684.612	1327.749
15.775	25.033	1695.284	1379.356
16.790	26.222	1696.811	1389.625
17.804	26.332	1695.743	1389.480
18.819	26.382	1695.234	1389.319
19.834	26.510	1694.768	1389.800
20.848	26.752	1694.238	1391.096
21.863	26.785	1693.387	1390.534
22.877	26.866	1692.143	1390.009
23.892	26.766	1691.698	1388.750
24.907	26.793	1690.638	1387.963
25.921	26.844	1689.733	1387.488
26.936	26.851	1688.399	1386.329
27.950	26.811	1688.208	1385.740
28.965	26.814	1686.928	1384.587
29.980	26.829	1685.842	1383.689
30.994	26.812	1684.405	1382.259
32.009	26.885	1683.227	1381.730
33.023	26.812	1682.542	1380.488
34.038	26.839	1681.796	1379.959
35.053	26.900	1680.705	1379.402
36.067	26.805	1679.617	1377.666
37.082	26.825	1679.212	1377.368
38.096	26.789	1678.064	1376.028
39.111	26.897	1676.959	1375.818
40.126	26.836	1676.408	1374.786
41.140	26.881	1675.650	1374.381
42.155	26.835	1674.569	1373.027
43.169	26.758	1674.064	1371.908
44.184	26.786	1672.382	1370.616
45.199	26.827	1671.442	1370.039
46.213	26.816	1670.172	1368.794
47.228	26.867	1668.823	1367.951
48.242	26.982	1666.773	1367.011
49.257	26.800	1666.627	1365.404
50.271	26.844	1665.336	1364.558
51.286	26.876	1664.232	1363.772
52.301	26.827	1663.112	1362.365
53.315	26.824	1661.830	1361.171
54.330	26.785	1660.174	1359.403
55.344	26.775	1658.591	1357.906
56.359	26.789	1657.251	1356.798
57.374	26.820	1656.552	1356.334
58.388	26.837	1655.581	1355.548
59.403	26.897	1654.184	1354.732
60.417	26.820	1652.953	1353.029
61.432	26.764	1652.407	1352.047
62.447	26.879	1651.133	1351.742
63.461	26.942	1649.879	1351.060
64.476	26.832	1649.790	1350.054
65.490	26.786	1648.545	1348.572
66.505	26.861	1647.314	1348.004
67.520	26.889	1646.357	1347.308
68.534	26.873	1645.453	1346.334
69.549	26.846	1644.325	1345.091
70.563	26.840	1643.193	1344.000
71.578	26.874	1642.013	1343.169
72.593	26.863	1640.762	1341.942
73.607	26.844	1640.559	1341.519
74.622	26.910	1639.043	1340.643
75.636	26.910	1638.063	1339.729
76.651	26.869	1637.913	1339.182
77.666	26.942	1636.383	1338.355
78.680	26.755	1636.059	1336.590
79.695	26.818	1635.333	1336.341
80.709	26.834	1634.117	1335.345
81.724	26.863	1633.182	1334.680
82.739	26.853	1632.531	1333.959
83.753	26.843	1631.403	1332.846
84.768	26.926	1630.760	1332.810
85.782	26.870	1629.981	1331.640
86.797	26.858	1629.136	1330.750
87.812	26.867	1628.526	1330.194
88.826	26.863	1627.052	1328.844
89.841	26.925	1626.093	1328.401
90.855	26.858	1625.688	1327.463
91.870	26.840	1624.757	1326.454
92.884	26.862	1622.899	1324.977
93.899	26.965	1621.942	1324.831
94.914	26.938	1621.153	1323.870
95.928	26.859	1620.224	1322.417
96.943	26.856	1618.942	1321.234
97.957	27.006	1617.108	1320.711
98.972	26.925	1616.311	1319.358
99.987	26.913	1614.403	1317.592
101.001	26.865	1613.310	1316.235
102.016	26.906	1612.085	1315.422
103.030	26.840	1610.751	1313.737
104.045	26.912	1609.928	1313.470
105.060	26.903	1608.339	1311.989
106.074	26.956	1606.931	1311.108
107.089	26.984	1605.817	1310.290
108.103	26.979	1604.634	1309.167
109.118	26.848	1603.924	1307.529
110.133	26.997	1602.558	1307.377
111.147	26.969	1601.252	1305.992
112.162	26.962	1600.404	1305.134
113.176	26.977	1598.955	1303.946
114.191	26.960	1597.941	1302.879
115.206	26.976	1596.729	1301.896
116.220	26.928	1595.582	1300.499
117.235	27.029	1594.068	1299.875
118.249	26.988	1593.199	1298.757
119.264	26.901	1592.096	1297.119
120.279	26.995	1590.966	1296.754
121.293	26.992	1589.857	1295.717
122.308	26.913	1588.891	1294.252
123.322	26.889	1587.664	1292.967
124.337	26.974	1586.346	1292.385
125.352	27.069	1585.176	1291.991
126.366	27.000	1584.554	1290.876
127.381	27.012	1583.972	1290.378
128.395	26.975	1582.580	1288.864
129.410	27.032	1581.665	1288.412
130.424	27.057	1580.458	1287.488
131.439	27.008	1579.399	1286.163
132.454	27.008	1578.240	1285.109
133.468	27.036	1577.121	1284.283
134.483	27.051	1575.435	1282.904
135.497	27.078	1574.556	1282.260
136.512	26.998	1573.275	1280.544
137.527	26.993	1572.320	1279.617
138.541	27.064	1571.024	1278.950
139.556	26.958	1570.026	1277.275
140.570	27.041	1568.491	1276.500
141.585	27.046	1567.535	1275.642
142.600	27.091	1566.685	1275.150
143.614	27.080	1565.376	1273.899
144.629	27.094	1564.291	1273.001
145.643	27.148	1563.139	1272.326
146.658	26.997	1562.148	1270.351
147.673	26.942	1560.860	1268.809
148.687	27.051	1559.372	1268.249
149.702	27.034	1558.698	1267.468
150.716	27.026	1557.142	1266.036
151.731	26.957	1556.131	1264.622
152.746	26.978	1555.149	1263.859
153.760	27.028	1554.199	1263.318
154.775	27.093	1552.989	1262.681
155.789	26.962	1552.404	1261.177
156.804	27.057	1551.063	1260.639
157.819	27.114	1549.712	1259.826
158.833	27.043	1548.938	1258.592
159.848	27.118	1548.024	1258.256
160.862	27.180	1546.914	1257.669
161.877	27.086	1546.074	1256.231
162.892	27.134	1545.024	1255.596
163.906	27.161	1544.238	1255.033
164.921	27.062	1543.137	1253.343
165.935	27.089	1542.484	1252.890
166.950	27.097	1541.697	1252.195
167.964	27.215	1540.290	1251.755
168.979	27.078	1539.830	1250.323
169.994	27.192	1538.779	1250.144
171.008	27.220	1537.906	1249.520
172.023	27.219	1536.592	1248.331
173.037	27.158	1535.653	1247.039
174.052	27.171	1534.636	1246.192
175.067	27.119	1534.469	1245.592
176.081	27.155	1533.146	1244.652
177.096	27.242	1531.861	1244.095
178.110	27.237	1530.909	1243.177
179.125	27.117	1529.967	1241.485
180.140	27.152	1529.118	1240.922
181.154	27.277	1528.225	1240.939
182.169	27.314	1526.797	1239.924
183.183	27.195	1526.172	1238.496
184.198	27.228	1525.272	1237.881
185.213	27.199	1524.549	1236.988
186.227	27.204	1523.879	1236.368
187.242	27.305	1522.644	1235.940
188.256	27.369	1521.700	1235.503
189.271	27.304	1521.268	1234.603
190.286	27.289	1520.570	1233.821
191.300	27.277	1519.678	1232.911
192.315	27.297	1518.998	1232.383
193.329	27.260	1517.964	1231.187
194.344	27.202	1516.610	1229.582
195.359	27.192	1516.602	1229.406
196.373	27.290	1515.452	1229.024
197.388	27.205	1514.891	1227.888
198.402	27.197	1513.669	1226.733
199.417	27.245	1512.229	1225.778
200.432	27.265	1511.972	1225.597
201.446	27.202	1511.140	1224.392
202.461	27.227	1510.326	1223.795
203.475	27.285	1508.805	1222.839
204.490	27.313	1508.053	1222.313
205.504	27.280	1507.629	1221.639
206.519	27.215	1506.583	1220.246
207.534	27.347	1505.836	1220.418
208.548	27.400	1505.007	1219.993
209.563	27.309	1504.258	1218.668
210.577	27.314	1503.211	1217.745
211.592	27.344	1502.675	1217.405
212.607	27.317	1501.980	1216.552
213.621	27.414	1501.202	1216.466
214.636	27.421	1500.338	1215.701
215.650	27.414	1499.577	1214.934
216.665	27.475	1498.486	1214.350
217.680	27.415	1497.606	1213.125
218.694	27.389	1496.938	1212.307
219.709	27.364	1496.235	1211.465
220.723	27.376	1495.335	1210.708
221.738	27.425	1494.592	1210.324
222.753	27.420	1493.980	1209.686
223.767	27.310	1492.834	1207.925
224.782	27.231	1491.953	1206.580
225.796	27.360	1491.593	1207.037
226.811	27.482	1490.147	1206.569
227.826	27.416	1489.653	1205.626
228.840	27.574	1488.807	1205.882
229.855	27.492	1488.164	1204.707
230.869	27.525	1487.588	1204.354
231.884	27.435	1486.728	1202.956
232.899	27.405	1485.509	1201.665
233.913	27.437	1484.564	1201.005
234.928	27.478	1483.171	1200.042
235.942	27.514	1482.991	1200.030
236.957	27.563	1481.515	1199.052
237.972	27.560	1480.441	1198.054
238.986	27.568	1479.355	1197.122
240.001	27.554	1478.201	1195.993
241.015	27.577	1477.982	1195.861
242.030	27.613	1476.726	1194.973
243.045	27.770	1475.143	1194.616
244.059	27.644	1474.750	1193.365
245.074	27.620	1474.033	1192.523
246.088	27.715	1472.873	1192.098
247.103	27.652	1472.735	1191.473
248.117	27.668	1471.955	1190.837
249.132	27.730	1470.858	1190.247
250.147	27.666	1470.583	1189.505
251.161	27.652	1469.724	1188.613
252.176	27.819	1468.810	1188.855
253.190	27.778	1467.633	1187.530
254.205	27.721	1467.204	1186.712
255.220	27.763	1466.752	1186.515
256.234	27.784	1465.563	1185.579
257.249	27.835	1464.743	1185.143
258.263	27.755	1464.234	1184.107
259.278	27.758	1463.380	1183.335
260.293	27.741	1462.329	1182.266
261.307	27.753	1461.625	1181.673
262.322	27.778	1461.356	1181.512
263.336	27.897	1459.993	1181.077
264.351	27.834	1459.714	1180.337
265.366	27.814	1458.545	1179.159
266.380	27.791	1457.760	1178.271
267.395	27.844	1456.987	1177.881
268.409	27.829	1456.191	1177.038
269.424	27.758	1455.293	1175.750
270.439	27.810	1454.322	1175.198
271.453	27.849	1453.694	1174.838
272.468	27.870	1452.387	1173.815
273.482	27.878	1452.158	1173.574
274.497	27.898	1451.109	1172.751
275.512	27.920	1450.540	1172.331
276.526	27.961	1449.758	1171.854
277.541	27.935	1448.839	1170.843
278.555	27.932	1447.851	1169.924
279.570	27.882	1447.054	1168.853
280.585	27.911	1446.302	1168.332
281.599	27.855	1445.771	1167.437
282.614	27.921	1445.055	1167.176
283.628	27.885	1443.609	1165.677
284.643	27.855	1443.159	1165.021
285.657	27.901	1441.832	1164.141
286.672	28.021	1440.662	1163.857
287.687	27.919	1440.573	1163.031
288.701	27.992	1439.306	1162.372
289.716	28.049	1438.779	1162.206
290.730	28.046	1438.276	1161.676
291.745	27.915	1437.586	1160.185
292.760	28.100	1436.086	1160.043
293.774	28.018	1435.484	1158.934
294.789	28.120	1434.047	1158.318
295.803	27.979	1434.512	1157.700
296.818	28.086	1433.179	1157.199
297.833	28.079	1432.281	1156.322
298.847	28.121	1431.485	1155.844
299.862	28.151	1430.606	1155.222
300.876	28.175	1429.797	1154.617
301.891	28.172	1428.804	1153.694
302.906	28.242	1428.100	1153.467
303.920	28.217	1427.426	1152.662
304.935	28.176	1427.107	1152.045
305.949	28.325	1426.233	1152.177
306.964	28.182	1425.251	1150.381
307.979	28.117	1424.921	1149.604
308.993	28.203	1423.659	1149.024
310.008	28.215	1422.960	1148.433
311.022	28.195	1422.191	1147.584
312.037	28.242	1420.991	1146.811
313.052	28.324	1420.247	1146.619
314.066	28.328	1419.336	1145.811
315.081	28.162	1418.559	1144.042
316.095	28.255	1417.637	1143.780
317.110	28.233	1416.417	1142.554
318.125	28.337	1415.675	1142.507
319.139	28.301	1415.108	1141.724
320.154	28.330	1414.105	1140.990
321.168	28.365	1413.046	1140.257
322.183	28.277	1412.538	1139.197
323.197	28.308	1411.725	1138.635
324.212	28.318	1410.966	1137.983
325.227	28.346	1410.319	1137.537
326.241	28.425	1408.736	1136.645
327.256	28.381	1408.391	1135.993
328.270	28.402	1407.717	1135.481
329.285	28.471	1406.816	1135.080
330.300	28.375	1406.173	1133.869
331.314	28.488	1405.311	1133.771
332.329	28.544	1404.183	1133.104
333.343	28.516	1403.670	1132.418
334.358	28.541	1403.299	1132.177
335.373	28.479	1402.596	1131.122
336.387	28.576	1401.889	1131.053
337.402	28.536	1401.160	1130.117
338.416	28.551	1400.138	1129.287
339.431	28.464	1400.083	1128.607
340.446	28.644	1398.885	1128.645
341.460	28.670	1397.905	1127.919
342.475	28.758	1397.124	1127.723
343.489	28.521	1396.788	1125.900
344.504	28.575	1395.791	1125.326
345.519	28.565	1394.669	1124.262
346.533	28.546	1393.794	1123.339
347.548	28.675	1392.499	1122.985
348.562	28.704	1391.947	1122.622
349.577	28.781	1391.174	1122.368
350.592	28.719	1390.596	1121.424
351.606	28.622	1389.666	1119.981
352.621	28.476	1389.238	1118.650
353.635	28.635	1388.126	1118.622
354.650	28.748	1387.088	1118.376
355.665	28.650	1386.079	1116.865
356.679	28.623	1385.293	1115.970
357.694	28.736	1384.129	1115.621
358.708	28.829	1383.200	1115.339
359.723	28.773	1382.014	1113.945
360.738	28.737	1381.031	1112.834
361.752	28.735	1380.197	1112.052
362.767	28.774	1378.453	1110.780
363.781	28.813	1377.666	1110.287
364.796	28.807	1377.179	1109.760
365.810	28.890	1376.714	1109.788
366.825	28.889	1375.904	1109.028
367.840	28.873	1375.350	1108.392
368.854	28.869	1375.023	1108.003
369.869	28.914	1374.340	1107.628
370.883	28.921	1373.709	1107.060
371.898	28.858	1372.725	1105.793
372.913	28.963	1372.064	1105.795
373.927	28.966	1371.309	1105.105
374.942	29.032	1370.412	1104.680
375.956	29.004	1369.883	1103.986
376.971	29.095	1368.813	1103.574
377.986	28.905	1368.155	1101.807
379.000	28.943	1367.534	1101.438
380.015	28.998	1367.038	1101.269
381.029	29.056	1366.404	1101.009
382.044	28.952	1365.752	1099.765
383.059	29.008	1364.775	1099.215
384.073	29.076	1364.147	1099.019
385.088	29.068	1364.122	1098.853
386.102	29.040	1363.269	1097.902
387.117	29.034	1362.727	1097.329
388.132	29.100	1361.847	1096.918
389.146	29.041	1360.934	1095.732
390.161	29.114	1360.190	1095.471
391.175	29.099	1360.350	1095.416
392.190	29.099	1359.211	1094.401
393.205	29.225	1357.991	1094.071
394.219	29.178	1357.344	1093.172
395.234	29.158	1356.132	1091.982
396.248	29.160	1355.233	1091.174
397.263	29.250	1354.301	1090.858
398.278	29.253	1353.274	1089.954
399.292	29.147	1352.400	1088.526
400.307	29.250	1351.574	1088.374
401.321	29.153	1350.866	1087.134
402.336	29.286	1349.296	1086.560
403.350	29.185	1348.845	1085.506
404.365	29.223	1348.105	1085.035
405.380	29.278	1346.951	1084.336
406.394	29.229	1346.597	1083.669
407.409	29.303	1345.611	1083.214
408.423	29.324	1344.973	1082.726
409.438	29.425	1344.495	1082.841
410.453	29.389	1343.846	1082.007
411.467	29.393	1342.529	1080.873
412.482	29.413	1342.696	1081.030
413.496	29.428	1341.509	1080.071
414.511	29.394	1341.190	1079.515
415.526	29.326	1340.275	1078.290
416.540	29.382	1340.017	1078.310
417.555	29.406	1339.121	1077.636
418.569	29.399	1338.491	1076.993
419.584	29.405	1337.919	1076.472
420.599	29.469	1337.354	1076.293
421.613	95.246	1355.207	1461.518
422.628	94.777	1357.752	1461.619
