DTS Sentinel unit serial number:	SN413079Multiplexer serial number:	ORYXHardware model number:	OX4-SRSoftware version number:	ORYX F/W v4.00 Oryx Data Collector v3.7.2.0data status	okinstallation	princeton_trtdifferential loss correction	single-endedforward channel	channel 4reverse channel	N/Adate	2019/09/11time	09:27:11forward acquisition time	60.00reverse acquisition time	0.00gamma	496.2192k internal	0.2298k external	0.2298temperature offset calibration	0.9969default loss term (dB/km)	0.3790temperature slope calibration	1.0000multiplexer offset coefficient	1.0000multiplexer slope coefficient	1.0000fibre end	0.00T internal ref (°C)	34.62T ext. ref 1 (°C)	0.13T ext. ref 2 (°C)	31.40length (m)	temperature (°C)	Stokes	anti-Stokes-747.200	-200.000	0.001	0.105
-746.185	99.490	0.149	0.176
-745.171	-100.189	-0.315	0.080
-744.156	-6.230	-0.233	-0.162
-743.142	800.000	0.037	-0.147
-742.127	9.352	0.215	0.166
-741.112	-121.511	-0.028	-0.005
-740.098	186.431	0.097	0.148
-739.083	-200.000	0.023	-0.435
-738.069	-200.000	0.015	-0.447
-737.054	-200.000	-0.009	0.264
-736.039	305.658	-0.185	0.351
-735.025	189.233	0.098	0.149
-734.010	-96.739	-0.023	0.006
-732.996	118.508	-0.179	-0.225
-731.981	-127.981	-0.224	0.033
-730.966	86.614	-0.183	-0.206
-729.952	150.283	-0.242	-0.335
-728.937	-200.000	-0.022	0.200
-727.923	-128.447	0.166	0.024
-726.908	-9.958	-0.370	-0.251
-725.894	-200.000	0.010	-0.236
-724.879	22.236	0.208	-0.173
-723.864	105.343	0.226	-0.272
-722.850	-79.414	0.205	-0.071
-721.835	-167.217	0.026	-0.001
-720.821	-118.002	-0.257	-0.047
-719.806	-87.965	-0.698	-0.214
-718.791	-68.188	-0.391	-0.155
-717.777	51.006	-0.278	-0.269
-716.762	-73.028	0.159	-0.059
-715.748	-59.921	-0.066	-0.029
-714.733	100.142	0.101	0.119
-713.718	67.665	-0.239	0.249
-712.704	800.000	0.099	0.342
-711.689	-200.000	0.011	-0.121
-710.675	-189.509	-0.281	-0.003
-709.660	-200.000	-0.001	-0.212
-708.645	189.247	-0.039	0.059
-707.631	-11.900	-0.210	-0.141
-706.616	-147.974	0.102	0.009
-705.602	90.655	-0.119	0.136
-704.587	158.104	-0.225	-0.318
-703.572	-191.904	-0.153	-0.002
-702.558	-184.596	-0.130	-0.002
-701.543	66.509	0.153	0.159
-700.529	70.288	0.350	-0.368
-699.514	512.738	-0.116	0.276
-698.499	-23.289	-0.026	0.016
-697.485	201.539	-0.138	-0.217
-696.470	800.000	0.061	-0.215
-695.456	611.857	0.094	0.240
-694.441	508.217	0.074	-0.175
-693.426	411.313	-0.156	0.337
-692.412	-30.126	-0.139	-0.080
-691.397	-31.381	0.018	0.010
-690.383	502.105	0.080	0.189
-689.368	12.211	-0.201	0.157
-688.354	205.132	-0.158	-0.250
-687.339	-106.939	0.143	0.032
-686.324	-148.530	-0.134	-0.011
-685.310	25.855	-0.190	0.161
-684.295	154.758	-0.139	-0.195
-683.281	-200.000	-0.007	-0.177
-682.266	582.159	-0.114	0.286
-681.251	-200.000	-0.002	-0.062
-680.237	-22.139	-0.036	0.022
-679.222	55.636	-0.090	-0.089
-678.208	-200.000	0.069	0.310
-677.193	-200.000	-0.064	-0.328
-676.178	-168.701	0.144	-0.006
-675.164	248.024	-0.109	0.188
-674.149	1.016	0.111	-0.081
-673.135	302.592	-0.117	0.220
-672.120	800.000	-0.099	0.315
-671.105	-129.702	0.237	-0.033
-670.091	286.949	-0.161	-0.296
-669.076	27.062	0.332	-0.284
-668.062	84.942	0.018	0.020
-667.047	-47.220	-0.274	0.136
-666.032	-15.191	-0.074	0.048
-665.018	-200.000	0.001	-0.312
-664.003	-200.000	0.052	0.313
-662.989	60.532	0.348	0.351
-661.974	272.361	0.225	-0.403
-660.959	-122.491	0.250	-0.041
-659.945	109.015	0.124	0.150
-658.930	533.897	-0.059	0.142
-657.916	-106.873	-0.211	0.048
-656.901	-26.413	-0.127	-0.075
-655.886	-200.000	0.032	0.524
-654.872	-85.598	0.187	-0.059
-653.857	-200.000	-0.016	-0.131
-652.843	-200.000	-0.047	-0.241
-651.828	-61.489	0.243	-0.104
-650.814	800.000	0.021	0.079
-649.799	321.660	0.091	-0.177
-648.784	-5.366	-0.116	0.081
-647.770	29.612	0.036	-0.031
-646.755	394.516	-0.132	-0.280
-645.741	-34.142	-0.049	-0.027
-644.726	33.692	0.233	0.206
-643.711	-26.982	-0.128	0.076
-642.697	-82.635	0.202	0.067
-641.682	-200.000	-0.008	-0.308
-640.668	24.986	-0.133	-0.112
-639.653	800.000	0.014	-0.060
-638.638	85.027	-0.095	0.106
-637.624	800.000	0.041	0.139
-636.609	177.994	0.072	-0.107
-635.595	-200.000	0.023	-0.359
-634.580	-88.364	0.088	-0.027
-633.565	513.904	-0.074	0.174
-632.551	-79.036	-0.284	-0.098
-631.536	800.000	-0.046	0.176
-630.522	-161.769	0.147	-0.008
-629.507	800.000	0.082	-0.359
-628.492	-20.771	0.114	0.071
-627.478	-152.189	0.233	0.017
-626.463	175.943	0.102	0.151
-625.449	60.994	-0.180	-0.181
-624.434	301.725	0.091	-0.170
-623.419	-46.407	0.138	-0.069
-622.405	-148.683	-0.167	-0.014
-621.390	-120.088	-0.149	0.026
-620.376	-200.000	-0.022	-0.246
-619.361	100.596	0.127	-0.150
-618.346	140.739	-0.275	-0.369
-617.332	-59.047	-0.123	0.054
-616.317	-55.941	0.038	0.017
-615.303	333.870	-0.183	-0.360
-614.288	-143.397	-0.157	0.015
-613.273	-200.000	0.013	-0.318
-612.259	-200.000	-0.115	-0.551
-611.244	145.924	0.072	-0.098
-610.230	-57.559	0.235	0.104
-609.215	-27.535	-0.148	-0.087
-608.201	117.518	0.057	0.071
-607.186	800.000	0.098	0.296
-606.171	-10.458	0.181	0.122
-605.157	240.819	-0.067	0.114
-604.142	28.812	-0.046	-0.039
-603.128	-40.376	-0.269	-0.142
-602.113	-200.000	-0.046	0.335
-601.098	-153.163	0.318	0.023
-600.084	-31.754	0.293	0.167
-599.069	-200.000	-0.006	0.164
-598.055	38.358	0.162	0.147
-597.040	-200.000	0.004	0.053
-596.025	-200.000	0.004	-0.032
-595.011	178.730	0.176	-0.261
-593.996	-98.170	-0.165	-0.043
-592.982	90.347	0.034	-0.038
-591.967	-200.000	0.041	0.206
-590.952	137.406	-0.093	-0.124
-589.938	-200.000	-0.075	-0.360
-588.923	61.971	-0.120	-0.121
-587.909	-175.346	0.063	0.002
-586.894	-118.301	-0.220	0.040
-585.879	-105.185	0.227	-0.053
-584.865	272.427	-0.088	-0.157
-583.850	353.825	-0.140	0.283
-582.836	127.849	0.130	-0.168
-581.821	124.374	0.116	-0.147
-580.806	-200.000	0.027	-0.406
-579.792	250.042	0.149	-0.257
-578.777	-78.904	-0.070	-0.024
-577.763	-68.355	-0.085	0.034
-576.748	-127.895	0.292	0.043
-575.733	-8.033	0.080	0.054
-574.719	-39.709	0.172	0.091
-573.704	45.855	-0.213	-0.200
-572.690	144.161	-0.134	-0.182
-571.675	-200.000	0.030	-0.220
-570.661	0.175	0.215	-0.156
-569.646	129.056	-0.273	0.353
-568.631	198.034	-0.290	0.449
-567.617	-29.859	0.114	0.066
-566.602	146.835	-0.072	-0.099
-565.588	-132.796	0.269	0.035
-564.573	41.250	-0.104	0.095
-563.558	-36.251	-0.139	0.076
-562.544	-138.679	0.344	0.038
-561.529	136.022	0.023	-0.031
-560.515	63.215	0.159	0.161
-559.500	206.365	-0.175	0.277
-558.485	29.087	-0.098	0.084
-557.471	17.954	-0.036	-0.029
-556.456	-80.128	0.235	-0.080
-555.442	-136.472	-0.378	0.044
-554.427	117.730	-0.148	0.185
-553.412	-28.463	-0.134	0.078
-552.398	1.400	-0.267	0.195
-551.383	-200.000	0.012	-0.316
-550.369	800.000	0.012	-0.053
-549.354	-200.000	-0.028	-0.125
-548.339	724.411	0.043	-0.117
-547.325	412.141	0.096	0.206
-546.310	-200.000	-0.025	0.230
-545.296	-125.757	-0.102	0.016
-544.281	-61.610	0.321	0.136
-543.266	-55.679	0.100	-0.045
-542.252	-58.980	-0.320	-0.140
-541.237	-17.203	0.176	-0.112
-540.223	-87.941	-0.112	0.034
-539.208	259.409	0.016	0.028
-538.193	27.507	-0.152	0.129
-537.179	75.387	0.271	0.290
-536.164	175.786	-0.155	-0.228
-535.150	-87.796	0.373	-0.114
-534.135	-200.000	0.048	0.253
-533.121	800.000	0.030	0.130
-532.106	-9.294	0.107	0.073
-531.091	146.447	-0.135	-0.184
-530.077	305.810	0.016	0.031
-529.062	-200.000	0.041	-0.306
-528.048	57.423	-0.061	0.060
-527.033	294.335	0.152	-0.281
-526.018	-30.919	-0.119	0.068
-525.004	93.228	-0.045	0.052
-523.989	62.007	-0.121	0.123
-522.975	-200.000	0.040	0.225
-521.960	-94.990	0.219	0.060
-520.945	-55.785	-0.146	-0.066
-519.931	-179.804	-0.357	-0.008
-518.916	26.395	-0.109	0.093
-517.902	665.158	0.058	-0.152
-516.887	-200.000	-0.007	-0.439
-515.872	4.517	0.099	-0.073
-514.858	-92.449	0.178	-0.051
-513.843	-200.000	-0.028	-0.171
-512.829	237.317	-0.056	0.093
-511.814	183.482	0.098	-0.146
-510.799	-191.861	-0.086	0.001
-509.785	48.973	0.118	0.112
-508.770	-92.979	-0.092	-0.026
-507.756	-66.858	0.141	0.056
-506.741	60.343	0.059	0.059
-505.726	86.696	0.138	0.154
-504.712	800.000	0.088	0.289
-503.697	-200.000	-0.003	-0.093
-502.683	-112.386	-0.164	-0.033
-501.668	-200.000	0.033	-0.164
-500.653	128.387	-0.191	0.246
-499.639	-136.068	0.314	-0.037
-498.624	800.000	-0.102	0.371
-497.610	-99.697	0.197	0.050
-496.595	-156.433	0.304	-0.019
-495.581	207.829	0.046	0.073
-494.566	78.060	-0.173	0.186
-493.551	43.227	0.108	0.100
-492.537	80.857	-0.102	0.111
-491.522	458.148	0.041	0.093
-490.508	800.000	0.044	0.151
-489.493	142.975	-0.113	-0.152
-488.478	800.000	0.096	0.362
-487.464	-32.545	-0.382	0.215
-486.449	172.713	-0.134	-0.195
-485.435	800.000	0.054	-0.229
-484.420	-200.000	-0.009	0.126
-483.405	800.000	-0.082	-0.350
-482.391	283.732	-0.120	0.219
-481.376	-66.158	0.244	0.098
-480.362	-144.205	0.192	-0.018
-479.347	670.832	-0.076	-0.200
-478.332	-121.839	-0.247	-0.041
-477.318	-119.412	-0.283	-0.050
-476.303	167.993	-0.063	0.090
-475.289	204.901	-0.153	0.240
-474.274	-200.000	-0.057	0.372
-473.259	524.490	0.038	0.090
-472.245	-200.000	0.043	-0.312
-471.230	-124.752	0.417	0.065
-470.216	-125.276	0.179	-0.028
-469.201	-200.000	0.020	-0.229
-468.186	-106.270	-0.194	-0.044
-467.172	-200.000	-0.029	-0.250
-466.157	-141.406	-0.259	0.026
-465.143	-179.225	0.108	-0.002
-464.128	112.371	0.104	-0.127
-463.113	-123.944	-0.141	-0.022
-462.099	-111.611	-0.236	-0.048
-461.084	-0.915	0.277	0.198
-460.070	-31.677	0.168	-0.095
-459.055	-11.171	-0.119	0.079
-458.040	-103.411	-0.098	0.023
-457.026	-110.977	0.244	0.051
-456.011	-70.133	0.248	0.095
-454.997	-22.153	0.135	0.083
-453.982	-178.743	-0.217	0.005
-452.968	-90.497	0.066	0.019
-451.953	16.475	0.130	-0.104
-450.938	29.385	0.075	0.064
-449.924	64.337	-0.138	0.140
-448.909	-9.698	0.200	-0.135
-447.895	-74.647	-0.146	0.053
-446.880	-16.493	-0.082	0.052
-445.865	-118.930	0.233	-0.041
-444.851	-160.063	-0.112	-0.006
-443.836	72.675	0.046	0.048
-442.822	25.353	-0.116	-0.097
-441.807	275.842	-0.149	0.267
-440.792	-132.103	0.158	-0.021
-439.778	-200.000	-0.021	0.181
-438.763	-119.132	-0.096	0.017
-437.749	800.000	-0.023	-0.069
-436.734	-75.998	-0.100	0.036
-435.719	-200.000	-0.005	-0.203
-434.705	-73.616	0.086	-0.032
-433.690	-200.000	-0.021	0.097
-432.676	275.811	-0.122	-0.218
-431.661	-115.475	0.216	0.041
-430.646	-63.813	-0.086	0.036
-429.632	800.000	-0.108	-0.414
-428.617	30.696	0.061	0.052
-427.603	800.000	0.081	0.305
-426.588	-102.626	0.427	0.103
-425.573	399.760	-0.079	-0.167
-424.559	56.117	0.120	0.117
-423.544	-200.000	0.017	-0.198
-422.530	-46.813	-0.069	-0.034
-421.515	150.703	0.217	0.298
-420.500	176.577	-0.091	0.133
-419.486	-22.488	-0.102	-0.062
-418.471	-36.959	-0.108	0.058
-417.457	-200.000	0.033	0.208
-416.442	-88.150	0.202	0.061
-415.428	800.000	0.049	-0.142
-414.413	-69.021	-0.157	0.061
-413.398	49.747	-0.139	-0.132
-412.384	-86.605	-0.275	0.085
-411.369	157.388	-0.099	-0.138
-410.355	-154.073	-0.064	-0.004
-409.340	202.373	0.099	-0.154
-408.325	132.481	0.089	-0.115
-407.311	800.000	0.064	0.254
-406.296	-149.751	-0.053	-0.004
-405.282	-200.000	-0.033	-0.271
-404.267	-120.250	-0.264	-0.045
-403.252	-200.000	-0.040	-0.396
-402.238	65.772	0.126	-0.129
-401.223	800.000	-0.102	0.294
-400.209	-19.119	-0.128	0.080
-399.194	-200.000	0.002	-0.227
-398.179	78.108	0.183	-0.196
-397.165	24.237	0.125	0.104
-396.150	-89.799	-0.086	0.025
-395.136	-200.000	0.024	0.307
-394.121	19.195	-0.287	0.232
-393.106	-89.359	-0.283	-0.084
-392.092	280.388	0.158	0.284
-391.077	-64.650	0.374	0.153
-390.063	152.104	-0.088	-0.121
-389.048	-33.288	0.325	0.181
-388.033	-200.000	-0.008	-0.132
-387.019	-200.000	0.058	-0.291
-386.004	-19.051	-0.182	0.114
-384.990	-49.297	-0.153	-0.074
-383.975	800.000	0.038	-0.131
-382.960	145.747	0.139	-0.188
-381.946	106.642	0.280	0.334
-380.931	-0.247	-0.250	-0.179
-379.917	800.000	0.061	-0.174
-378.902	800.000	-0.021	0.087
-377.888	-148.497	0.374	-0.031
-376.873	-200.000	0.007	0.140
-375.858	701.187	0.132	0.350
-374.844	27.551	-0.123	-0.104
-373.829	-191.050	-0.446	-0.005
-372.815	67.870	-0.248	0.255
-371.800	-200.000	-0.051	-0.465
-370.785	505.174	0.109	-0.255
-369.771	-200.000	-0.014	0.097
-368.756	48.369	-0.212	-0.200
-367.742	129.246	-0.133	-0.170
-366.727	-6.462	0.109	-0.075
-365.712	428.145	-0.093	-0.202
-364.698	108.654	0.383	-0.460
-363.683	-58.059	0.173	0.076
-362.669	17.813	-0.385	0.308
-361.654	304.978	0.106	0.199
-360.639	800.000	0.071	0.240
-359.625	-145.622	-0.241	-0.022
-358.610	-200.000	0.144	-0.712
-357.596	-35.779	0.158	0.086
-356.581	169.503	-0.142	0.203
-355.566	57.240	0.073	-0.072
-354.552	169.822	-0.079	0.114
-353.537	-50.449	-0.224	0.107
-352.523	-200.000	-0.000	-0.133
-351.508	-2.129	-0.277	-0.195
-350.493	-88.321	-0.312	-0.094
-349.479	17.044	0.115	0.092
-348.464	-118.990	-0.431	0.076
-347.450	-200.000	-0.029	-0.142
-346.435	98.698	-0.164	-0.190
-345.420	-166.167	0.072	0.003
-344.406	100.157	0.263	0.306
-343.391	132.730	-0.061	0.079
-342.377	174.385	0.149	0.217
-341.362	-188.721	-0.234	-0.003
-340.348	-200.000	-0.016	-0.089
-339.333	-200.000	0.010	0.136
-338.318	800.000	-0.097	0.415
-337.304	-86.240	-0.104	-0.032
-336.289	-109.348	-0.450	-0.096
-335.275	34.682	-0.057	0.050
-334.260	649.792	-0.138	0.355
-333.245	800.000	-0.081	-0.281
-332.231	-13.395	0.415	-0.271
-331.216	35.519	-0.237	-0.209
-330.202	-200.000	-0.015	-0.165
-329.187	109.984	-0.081	0.098
-328.172	-163.972	0.212	0.010
-327.158	661.774	-0.047	0.121
-326.143	83.794	-0.123	0.134
-325.129	800.000	-0.008	0.029
-324.114	-102.334	0.160	0.039
-323.099	484.402	-0.079	-0.180
-322.085	-135.695	0.410	-0.049
-321.070	-193.283	0.245	0.002
-320.056	-200.000	0.042	0.323
-319.041	134.241	0.021	-0.027
-318.026	800.000	-0.047	-0.199
-317.012	-111.166	-0.404	0.083
-315.997	-200.000	-0.010	0.292
-314.983	-200.000	0.030	-0.156
-313.968	800.000	0.066	-0.223
-312.953	-194.493	0.452	-0.004
-311.939	48.099	-0.211	0.198
-310.924	-77.947	-0.106	0.037
-309.910	-169.323	-0.131	0.005
-308.895	-200.000	0.021	-0.109
-307.880	-100.321	-0.175	-0.044
-306.866	800.000	0.038	0.112
-305.851	-154.036	0.178	0.012
-304.837	-200.000	-0.156	0.709
-303.822	800.000	0.040	0.131
-302.807	-200.000	0.006	-0.413
-301.793	-58.240	-0.370	-0.161
-300.778	-131.781	0.098	0.013
-299.764	167.497	0.129	-0.184
-298.749	105.267	0.052	-0.062
-297.735	427.959	0.152	0.329
-296.720	-200.000	-0.003	-0.039
-295.705	-200.000	0.010	0.060
-294.691	800.000	0.050	0.187
-293.676	-115.296	0.461	0.087
-292.662	800.000	0.050	-0.141
-291.647	800.000	0.038	-0.165
-290.632	-200.000	0.043	-0.259
-289.618	-93.095	-0.314	0.088
-288.603	-200.000	0.019	0.219
-287.589	-29.485	0.246	-0.141
-286.574	-7.458	0.214	0.145
-285.559	-200.000	0.024	0.237
-284.545	342.839	-0.088	0.173
-283.530	-195.420	-0.145	-0.001
-282.516	125.801	-0.089	-0.113
-281.501	61.343	-0.201	0.200
-280.486	800.000	0.025	0.100
-279.472	-25.962	-0.257	-0.152
-278.457	-162.526	0.355	-0.018
-277.443	183.416	-0.068	0.101
-276.428	800.000	-0.053	-0.178
-275.413	-38.854	-0.199	-0.105
-274.399	-16.211	0.153	-0.097
-273.384	-31.385	0.191	-0.108
-272.370	251.746	0.007	-0.012
-271.355	-148.108	-0.136	-0.011
-270.340	481.668	-0.086	-0.195
-269.326	20.467	0.100	0.081
-268.311	-144.521	-0.297	-0.027
-267.297	-79.529	0.343	-0.116
-266.282	800.000	-0.028	-0.092
-265.267	447.987	0.174	-0.385
-264.253	-27.117	-0.175	-0.102
-263.238	131.048	-0.042	-0.054
-262.224	-6.682	-0.157	0.107
-261.209	-200.000	0.033	-0.146
-260.195	-200.000	-0.028	-0.275
-259.180	106.041	-0.081	0.096
-258.165	-126.483	-0.177	0.026
-257.151	79.381	0.078	-0.083
-256.136	-3.366	-0.219	0.153
-255.122	260.526	0.089	0.154
-254.107	-34.605	0.297	0.163
-253.092	800.000	0.043	0.133
-252.078	-200.000	-0.017	0.153
-251.063	-200.000	-0.041	-0.281
-250.049	-171.862	0.138	-0.005
-249.034	-163.712	0.169	0.008
-248.019	346.845	0.090	0.177
-247.005	96.037	-0.157	-0.180
-245.990	-115.439	0.159	0.030
-244.976	-73.466	0.145	-0.053
-243.961	41.392	-0.080	0.072
-242.946	31.038	0.021	-0.018
-241.932	-117.041	0.337	-0.062
-240.917	-200.000	0.013	-0.143
-239.903	10.506	-0.180	-0.137
-238.888	-200.000	0.012	-0.089
-237.873	-182.306	-0.067	-0.001
-236.859	-61.314	0.237	-0.100
-235.844	146.244	0.065	0.087
-234.830	-81.574	-0.092	0.030
-233.815	-200.000	-0.015	0.112
-232.800	-70.304	-0.513	0.195
-231.786	-72.859	-0.078	-0.029
-230.771	417.211	0.206	-0.439
-229.757	-175.040	-0.205	0.006
-228.742	-95.819	0.234	0.063
-227.727	-67.618	-0.061	-0.024
-226.713	800.000	-0.027	0.094
-225.698	-174.748	-0.223	0.006
-224.684	-96.963	0.413	0.108
-223.669	602.938	-0.208	0.518
-222.655	86.628	-0.115	0.127
-221.640	-28.575	0.298	0.172
-220.625	157.312	-0.070	0.096
-219.611	-200.000	0.002	-0.103
-218.596	90.649	0.242	-0.271
-217.582	-200.000	0.014	0.097
-216.567	35.704	0.064	-0.056
-215.552	24.490	0.191	0.158
-214.538	-200.000	0.007	0.105
-213.523	236.138	0.084	-0.139
-212.509	99.286	0.082	-0.094
-211.494	800.000	-0.144	0.493
-210.479	800.000	-0.083	0.254
-209.465	-0.897	0.163	0.116
-208.450	-63.973	-0.191	-0.078
-207.436	60.690	0.225	0.223
-206.421	160.174	0.226	0.315
-205.406	800.000	0.117	-0.371
-204.392	57.859	-0.330	0.322
-203.377	-200.000	-0.042	0.425
-202.363	-96.874	-0.152	-0.040
-201.348	509.838	-0.108	-0.250
-200.333	-121.139	-0.175	-0.029
-199.319	186.203	-0.259	-0.385
-198.304	-144.745	0.218	0.020
-197.290	249.630	-0.137	0.232
-196.275	11.180	0.343	0.262
-195.260	-20.882	0.350	0.214
-194.246	673.574	0.104	-0.268
-193.231	-163.568	-0.064	-0.003
-192.217	79.224	0.076	0.082
-191.202	800.000	-0.083	-0.245
-190.187	-11.946	-0.144	-0.094
-189.173	199.973	0.186	-0.285
-188.158	-69.856	0.135	0.052
-187.144	79.419	-0.161	0.172
-186.129	-200.000	-0.013	-0.116
-185.114	-58.650	0.267	0.116
-184.100	8.873	-0.141	-0.106
-183.085	14.747	0.166	-0.129
-182.071	-200.000	-0.013	-0.427
-181.056	129.896	-0.154	0.197
-180.042	-200.000	-0.031	-0.238
-179.027	25.329	0.203	-0.169
-178.012	38.337	0.134	0.119
-176.998	9.621	0.102	0.077
-175.983	-102.469	-0.099	0.024
-174.969	-200.000	-0.018	0.310
-173.954	225.760	-0.123	0.199
-172.939	-127.669	-0.217	-0.031
-171.925	-22.796	0.178	-0.108
-170.910	100.496	-0.059	-0.068
-169.896	638.705	0.063	0.160
-168.881	441.913	0.038	0.083
-167.866	394.080	-0.071	0.147
-166.852	-200.000	0.024	0.151
-165.837	-104.596	0.365	0.084
-164.823	-142.583	0.395	-0.039
-163.808	-200.000	-0.058	-0.339
-162.793	-200.000	-0.028	-0.175
-161.779	-93.198	-0.144	-0.040
-160.764	-48.936	-0.156	0.075
-159.750	364.903	-0.234	0.469
-158.735	27.618	-0.109	0.091
-157.720	-28.928	0.201	0.115
-156.706	212.179	-0.024	-0.037
-155.691	250.589	-0.188	-0.318
-154.677	47.886	-0.082	0.076
-153.662	-87.543	-0.226	0.068
-152.647	-68.978	-0.021	0.008
-151.633	117.495	0.113	0.139
-150.618	-148.039	-0.262	0.022
-149.604	-24.789	0.358	-0.212
-148.589	-25.473	0.295	-0.174
-147.574	12.477	0.155	0.119
-146.560	-32.570	0.138	-0.077
-145.545	138.308	0.020	-0.026
-144.531	-78.762	-0.122	-0.042
-143.516	3.722	0.144	0.105
-142.502	65.729	0.140	-0.142
-141.487	-18.583	0.391	-0.243
-140.472	-5.987	0.118	0.080
-139.458	-125.291	0.141	-0.022
-138.443	-6.698	0.215	0.146
-137.429	87.483	0.115	-0.126
-136.414	773.632	-0.032	0.086
-135.399	319.951	0.060	-0.113
-134.385	-2.042	0.272	0.190
-133.370	-200.000	-0.047	0.298
-132.356	-89.462	0.335	0.098
-131.341	-42.653	-0.429	-0.218
-130.326	594.429	-0.032	0.079
-129.312	115.391	-0.185	0.225
-128.297	45.966	0.141	0.130
-127.283	28.855	-0.336	-0.283
-126.268	94.500	0.154	-0.175
-125.253	-99.409	0.315	0.079
-124.239	489.459	-0.094	0.214
-123.224	800.000	0.098	0.344
-122.210	257.379	0.075	0.129
-121.195	240.601	-0.099	-0.164
-120.180	-89.504	-0.396	-0.116
-119.166	398.249	-0.112	0.233
-118.151	-89.537	0.217	0.064
-117.137	128.243	-0.203	0.257
-116.122	5.907	-0.016	0.012
-115.107	-43.437	0.070	-0.035
-114.093	800.000	-0.121	0.411
-113.078	-174.941	0.118	-0.003
-112.064	148.263	-0.144	0.194
-111.049	110.874	0.028	-0.034
-110.034	-138.043	-0.203	0.022
-109.020	-14.337	0.068	0.043
-108.005	-114.131	0.183	0.035
-106.991	168.614	0.135	0.191
-105.976	-102.912	-0.069	0.016
-104.962	651.452	0.118	0.300
-103.947	-200.000	0.029	0.328
-102.932	-134.273	-0.105	0.013
-101.918	83.269	-0.133	0.144
-100.903	430.648	0.064	0.138
-99.889	545.671	0.072	0.170
-98.874	-101.159	-0.257	0.063
-97.859	-107.854	-0.142	-0.031
-96.845	-32.171	0.204	-0.114
-95.830	-64.587	0.397	0.160
-94.816	-80.005	0.305	-0.102
-93.801	-60.528	0.294	0.124
-92.786	-58.550	0.052	0.022
-91.772	179.548	-0.265	0.386
-90.757	800.000	0.070	-0.194
-89.743	-55.490	0.301	-0.134
-88.728	-61.680	0.128	-0.053
-87.713	-50.458	0.287	0.135
-86.699	311.173	0.127	-0.236
-85.684	-28.814	-0.181	0.104
-84.670	-126.137	0.103	-0.015
-83.655	-6.314	0.246	0.167
-82.640	800.000	-0.034	-0.096
-81.626	800.000	0.138	-0.422
-80.611	-18.106	-0.083	-0.051
-79.597	-149.408	-0.371	0.029
-78.582	788.575	-0.126	-0.345
-77.567	-200.000	-0.006	-0.124
-76.553	-200.000	-0.003	0.074
-75.538	59.704	0.120	0.118
-74.524	322.722	0.011	-0.020
-73.509	22.755	-0.232	0.189
-72.494	107.341	-0.112	-0.132
-71.480	-200.000	-0.028	-0.210
-70.465	202.390	0.211	0.324
-69.451	-142.599	-0.161	0.016
-68.436	-12.395	-0.040	0.026
-67.422	-178.039	-0.185	-0.004
-66.407	124.236	0.013	0.017
-65.392	37.468	0.218	-0.192
-64.378	-29.018	0.363	-0.207
-63.363	-16.229	0.348	-0.220
-62.349	15.495	-0.077	0.060
-61.334	89.275	-0.721	-0.799
-60.319	702.014	-0.215	0.562
-59.305	-200.000	-0.107	-0.747
-58.290	553.737	0.366	0.875
-57.276	702.518	0.611	1.601
-56.261	-200.000	94.091	522.647
-55.246	559.529	1375.446	3300.007
-54.232	181.871	2624.225	3839.270
-53.217	107.744	2361.669	2794.329
-52.203	41.012	2110.521	1893.429
-51.188	36.315	2022.977	1771.836
-50.173	34.778	2003.505	1740.723
-49.159	48.013	2055.216	1908.179
-48.144	50.602	2073.857	1949.351
-47.130	37.165	2031.182	1786.569
-46.115	34.695	2019.844	1753.873
-45.100	34.582	2017.112	1750.393
-44.086	34.520	2015.005	1747.931
-43.071	34.439	2012.294	1744.768
-42.057	34.466	2010.014	1742.970
-41.042	34.437	2008.704	1741.495
-40.027	34.490	2006.849	1740.309
-39.013	34.567	2003.951	1738.422
-37.998	34.510	2002.572	1736.637
-36.984	34.549	2001.012	1735.570
-35.969	34.532	1999.140	1733.725
-34.954	34.485	1997.602	1731.897
-33.940	34.566	1995.729	1730.942
-32.925	34.596	1994.159	1729.777
-31.911	34.651	1992.871	1729.095
-30.896	34.621	1990.889	1727.035
-29.881	34.730	1988.590	1725.958
-28.867	34.701	1987.426	1724.611
-27.852	34.726	1985.284	1722.911
-26.838	34.673	1983.335	1720.676
-25.823	34.627	1982.059	1719.087
-24.809	34.624	1980.385	1717.535
-23.794	34.732	1978.085	1716.447
-22.779	34.622	1976.854	1714.323
-21.765	34.613	1975.144	1712.690
-20.750	34.634	1972.956	1710.911
-19.736	34.627	1971.896	1709.864
-18.721	34.641	1970.149	1708.403
-17.706	34.655	1968.590	1707.115
-16.692	34.607	1966.949	1705.196
-15.677	34.702	1965.298	1704.539
-14.663	34.643	1963.719	1702.582
-13.648	34.723	1962.707	1702.350
-12.633	34.669	1961.376	1700.642
-11.619	34.675	1959.875	1699.327
-10.604	34.682	1958.380	1698.029
-9.590	34.618	1957.164	1696.337
-8.575	34.631	1955.629	1695.052
-7.560	34.694	1954.119	1694.239
-6.546	34.571	1952.955	1692.069
-5.531	34.610	1951.601	1691.175
-4.517	34.665	1950.151	1690.336
-3.502	34.667	1949.005	1689.294
-2.487	34.602	1947.939	1687.726
-1.473	34.600	1947.762	1687.495
-0.458	34.692	1943.293	1684.363
0.556	32.971	1922.868	1659.174
1.571	29.088	1904.281	1609.126
2.586	25.437	1927.568	1596.291
3.600	24.484	1964.460	1618.065
4.615	23.663	1959.889	1606.724
5.629	17.255	1854.478	1465.117
6.644	6.137	1727.334	1274.819
7.659	0.618	1687.544	1201.523
8.673	0.213	1683.665	1195.446
9.688	0.150	1682.220	1193.807
10.702	0.120	1680.628	1192.339
11.717	0.037	1677.272	1189.194
12.731	0.243	1676.444	1190.131
13.746	6.940	1694.238	1256.001
14.761	17.641	1717.922	1359.230
15.775	22.523	1727.063	1405.393
16.790	23.222	1727.530	1411.219
17.804	23.346	1726.799	1411.489
18.819	23.362	1725.910	1410.758
19.834	23.457	1725.325	1410.917
20.848	23.576	1725.013	1411.482
21.863	23.730	1723.820	1411.604
22.877	23.707	1722.329	1410.073
23.892	23.670	1722.197	1409.549
24.907	23.669	1721.147	1408.558
25.921	23.645	1720.271	1407.522
26.936	23.683	1718.799	1406.499
27.950	23.743	1717.882	1406.096
28.965	23.721	1717.599	1405.566
29.980	23.725	1716.501	1404.579
30.994	23.732	1715.006	1403.281
32.009	23.702	1713.992	1402.091
33.023	23.700	1712.732	1400.921
34.038	23.805	1711.597	1400.697
35.053	23.715	1711.023	1399.397
36.067	23.738	1709.945	1398.572
37.082	23.742	1708.610	1397.389
38.096	23.652	1707.461	1395.615
39.111	23.725	1706.708	1395.447
40.126	23.743	1705.937	1394.838
41.140	23.757	1705.564	1394.517
42.155	23.765	1703.950	1393.141
43.169	23.738	1703.155	1392.157
44.184	23.732	1701.642	1390.749
45.199	23.751	1700.960	1390.218
46.213	23.688	1699.872	1388.711
47.228	23.617	1698.625	1387.014
48.242	23.690	1697.273	1386.354
49.257	23.731	1696.479	1385.908
50.271	23.733	1695.350	1384.875
51.286	23.659	1694.342	1383.356
52.301	23.673	1692.818	1382.097
53.315	23.700	1691.411	1381.032
54.330	23.720	1689.659	1379.642
55.344	23.676	1688.577	1378.293
56.359	23.717	1687.158	1377.327
57.374	23.661	1686.530	1376.257
58.388	23.733	1685.355	1375.739
59.403	23.644	1684.248	1374.019
60.417	23.735	1683.182	1373.736
61.432	23.717	1682.072	1372.571
62.447	23.783	1680.772	1371.895
63.461	23.724	1679.759	1370.491
64.476	23.752	1678.773	1369.781
65.490	23.770	1677.836	1369.034
66.505	23.714	1676.654	1367.521
67.520	23.715	1675.932	1366.816
68.534	23.706	1674.649	1365.578
69.549	23.805	1673.584	1365.352
70.563	23.791	1672.442	1364.195
71.578	23.744	1671.088	1362.604
72.593	23.798	1669.850	1361.888
73.607	23.814	1669.182	1361.345
74.622	23.839	1667.873	1360.350
75.636	23.697	1667.464	1358.806
76.651	23.813	1666.334	1358.654
77.666	23.868	1665.348	1358.156
78.680	23.710	1665.404	1356.873
79.695	23.751	1663.444	1355.468
80.709	23.746	1662.917	1354.882
81.724	23.739	1662.343	1354.236
82.739	23.748	1661.431	1353.443
83.753	23.760	1660.288	1352.485
84.768	23.696	1659.649	1351.354
85.782	23.733	1658.248	1350.374
86.797	23.747	1657.658	1349.881
87.812	23.722	1656.796	1348.870
88.826	23.818	1655.275	1348.241
89.841	23.679	1654.627	1346.545
90.855	23.807	1653.291	1346.308
91.870	23.736	1652.552	1345.045
92.884	23.860	1651.375	1344.906
93.899	23.793	1650.580	1343.639
94.914	23.832	1649.218	1342.704
95.928	23.723	1648.314	1341.027
96.943	23.788	1646.715	1340.098
97.957	23.799	1645.403	1338.992
98.972	23.873	1643.822	1338.144
99.987	23.870	1642.263	1336.737
101.001	23.842	1640.917	1335.312
102.016	23.768	1639.660	1333.612
103.030	23.723	1638.416	1332.143
104.045	23.694	1637.279	1330.885
105.060	23.723	1635.568	1329.596
106.074	23.820	1634.258	1329.134
107.089	23.817	1633.496	1328.375
108.103	23.771	1632.282	1326.929
109.118	23.856	1631.102	1326.489
110.133	23.856	1629.657	1325.196
111.147	23.775	1628.738	1323.728
112.162	23.857	1627.113	1322.903
113.176	23.895	1625.829	1322.024
114.191	23.841	1624.959	1320.793
115.206	23.834	1624.030	1319.868
116.220	23.814	1622.526	1318.386
117.235	23.862	1621.049	1317.420
118.249	23.838	1620.281	1316.506
119.264	23.761	1619.034	1314.807
120.279	23.735	1617.979	1313.641
121.293	23.809	1616.871	1313.173
122.308	23.781	1615.710	1311.907
123.322	23.919	1613.689	1311.163
124.337	23.835	1612.849	1309.751
125.352	23.916	1611.404	1309.052
126.366	23.918	1610.746	1308.418
127.381	23.939	1609.770	1307.664
128.395	23.870	1608.941	1306.371
129.410	23.929	1607.646	1305.634
130.424	23.884	1606.746	1304.459
131.439	23.858	1605.644	1303.254
132.454	23.847	1604.426	1302.074
133.468	23.903	1602.847	1301.089
134.483	23.857	1601.493	1299.532
135.497	23.856	1600.492	1298.597
136.512	23.896	1599.252	1297.772
137.527	23.898	1597.902	1296.579
138.541	23.903	1596.947	1295.721
139.556	23.927	1595.453	1294.573
140.570	23.887	1594.818	1293.647
141.585	23.945	1593.069	1292.540
142.600	23.920	1592.104	1291.459
143.614	23.929	1590.935	1290.462
144.629	23.956	1589.941	1289.738
145.643	23.965	1588.433	1288.465
146.658	23.836	1587.587	1286.729
147.673	23.853	1586.234	1285.643
148.687	23.911	1584.862	1284.840
149.702	23.919	1583.661	1283.808
150.716	23.868	1582.103	1282.061
151.731	23.892	1580.777	1281.046
152.746	23.919	1580.149	1280.619
153.760	23.837	1578.899	1278.901
154.775	23.918	1577.614	1278.330
155.789	23.985	1576.218	1277.567
156.804	23.970	1575.614	1276.858
157.819	24.024	1574.476	1276.212
158.833	23.863	1573.855	1274.438
159.848	23.902	1572.919	1273.846
160.862	23.932	1571.747	1272.999
161.877	24.002	1570.777	1272.607
162.892	24.005	1569.916	1271.813
163.906	24.036	1568.899	1271.103
164.921	23.937	1567.823	1269.407
165.935	23.960	1566.993	1268.791
166.950	24.004	1566.236	1268.376
167.964	24.042	1564.793	1267.367
168.979	23.944	1564.516	1266.333
169.994	24.025	1563.215	1265.741
171.008	24.113	1562.084	1265.344
172.023	24.073	1561.142	1264.185
173.037	24.082	1560.218	1263.388
174.052	24.009	1558.978	1261.751
175.067	23.950	1558.456	1260.802
176.081	24.015	1557.428	1260.321
177.096	24.076	1555.929	1259.422
178.110	24.030	1554.966	1258.207
179.125	24.034	1554.194	1257.500
180.140	24.131	1552.839	1256.978
181.154	24.092	1552.207	1256.080
182.169	24.117	1551.473	1255.555
183.183	24.070	1549.787	1253.743
184.198	24.086	1549.163	1253.245
185.213	24.143	1548.386	1252.900
186.227	24.110	1547.396	1251.760
187.242	24.116	1546.678	1251.108
188.256	24.235	1545.814	1251.134
189.271	24.089	1545.141	1249.457
190.286	24.120	1544.008	1248.644
191.300	24.187	1543.408	1248.524
192.315	24.176	1542.616	1247.690
193.329	24.174	1541.292	1246.499
194.344	24.021	1540.750	1244.880
195.359	24.081	1539.807	1244.424
196.373	24.102	1539.125	1243.910
197.388	24.131	1537.958	1243.059
198.402	24.091	1537.265	1242.110
199.417	24.073	1536.070	1240.913
200.432	24.052	1535.329	1240.057
201.446	24.145	1534.760	1240.134
202.461	24.065	1534.270	1239.072
203.475	24.141	1533.021	1238.479
204.490	24.191	1531.672	1237.626
205.504	24.089	1531.314	1236.520
206.519	24.167	1530.114	1235.983
207.534	24.092	1529.726	1235.045
208.548	24.228	1528.586	1234.955
209.563	24.210	1527.595	1233.921
210.577	24.146	1526.531	1232.511
211.592	24.226	1525.683	1232.267
212.607	24.222	1524.883	1231.483
213.621	24.194	1524.578	1230.934
214.636	24.273	1524.169	1231.043
215.650	24.317	1522.435	1229.836
216.665	24.222	1521.555	1228.365
217.680	24.255	1521.289	1228.269
218.694	24.114	1520.983	1226.942
219.709	24.236	1519.652	1226.593
220.723	24.333	1518.401	1226.148
221.738	24.256	1517.396	1224.697
222.753	24.166	1517.181	1223.798
223.767	24.213	1516.012	1223.065
224.782	24.192	1515.075	1222.061
225.796	24.359	1514.181	1222.375
226.811	24.381	1513.922	1222.211
227.826	24.314	1513.372	1221.199
228.840	24.275	1512.151	1219.840
229.855	24.297	1511.621	1219.452
230.869	24.290	1510.949	1218.751
231.884	24.327	1509.445	1217.688
232.899	24.374	1508.495	1217.134
233.913	24.347	1506.914	1215.563
234.928	24.310	1505.849	1214.344
235.942	24.364	1505.029	1213.948
236.957	24.440	1503.971	1213.500
237.972	24.347	1503.350	1212.262
238.986	24.471	1501.858	1211.789
240.001	24.390	1501.132	1210.549
241.015	24.419	1500.189	1209.880
242.030	24.539	1498.972	1209.605
243.045	24.592	1498.010	1209.080
244.059	24.542	1497.049	1207.858
245.074	24.450	1496.692	1206.839
246.088	24.491	1496.165	1206.586
247.103	24.535	1495.441	1206.195
248.117	24.554	1494.377	1205.357
249.132	24.534	1493.521	1204.423
250.147	24.515	1492.952	1203.731
251.161	24.531	1492.346	1203.245
252.176	24.684	1491.536	1203.512
253.190	24.579	1490.689	1202.019
254.205	24.614	1490.288	1201.825
255.220	24.661	1489.044	1201.029
256.234	24.579	1488.521	1199.954
257.249	24.639	1487.799	1199.665
258.263	24.685	1486.769	1199.038
259.278	24.659	1485.657	1197.862
260.293	24.571	1485.568	1197.092
261.307	24.675	1483.926	1196.359
262.322	24.572	1483.819	1195.480
263.336	24.664	1483.181	1195.475
264.351	24.698	1481.982	1194.629
265.366	24.650	1480.941	1193.363
266.380	24.613	1480.120	1192.350
267.395	24.693	1478.972	1191.853
268.409	24.720	1478.275	1191.363
269.424	24.600	1477.984	1190.223
270.439	24.681	1476.853	1189.751
271.453	24.628	1476.098	1188.681
272.468	24.699	1475.090	1188.234
273.482	24.628	1474.283	1187.011
274.497	24.644	1473.484	1186.367
275.512	24.698	1472.579	1185.893
276.526	24.737	1472.044	1185.619
277.541	24.817	1470.854	1185.081
278.555	24.823	1470.297	1184.571
279.570	24.742	1469.638	1183.394
280.585	24.708	1469.068	1182.610
281.599	24.749	1467.288	1181.339
282.614	24.769	1466.747	1180.934
283.628	24.889	1465.613	1180.708
284.643	24.685	1465.136	1178.876
285.657	24.776	1464.155	1178.580
286.672	24.695	1463.415	1177.348
287.687	24.749	1462.586	1176.932
288.701	24.801	1461.522	1176.311
289.716	24.801	1460.970	1175.764
290.730	24.852	1460.318	1175.469
291.745	24.846	1459.464	1174.642
292.760	24.928	1458.049	1173.932
293.774	24.882	1457.092	1172.760
294.789	24.931	1456.283	1172.323
295.803	24.994	1455.290	1171.834
296.818	24.945	1454.711	1170.942
297.833	24.981	1453.810	1170.348
298.847	24.939	1453.392	1169.632
299.862	24.860	1452.784	1168.529
300.876	24.875	1451.605	1167.572
301.891	24.934	1450.758	1167.170
302.906	24.898	1449.958	1166.190
303.920	25.039	1449.476	1166.621
304.935	25.074	1448.674	1166.099
305.949	24.985	1447.819	1164.726
306.964	24.906	1447.261	1163.658
307.979	24.977	1446.356	1163.292
308.993	25.066	1445.078	1162.737
310.008	25.112	1444.336	1162.340
311.022	25.195	1442.939	1161.647
312.037	25.078	1442.372	1160.330
313.052	25.076	1441.532	1159.539
314.066	25.225	1440.416	1159.502
315.081	25.106	1439.608	1157.980
316.095	25.117	1438.761	1157.267
317.110	25.105	1438.191	1156.630
318.125	25.055	1437.317	1155.504
319.139	25.104	1436.560	1155.109
320.154	25.166	1435.487	1154.541
321.168	25.123	1435.043	1153.802
322.183	25.136	1433.647	1152.666
323.197	25.161	1432.685	1151.948
324.212	25.235	1431.969	1151.747
325.227	25.147	1431.136	1150.411
326.241	25.125	1430.588	1149.729
327.256	25.306	1429.716	1150.082
328.270	25.390	1428.738	1149.734
329.285	25.328	1427.891	1148.553
330.300	25.219	1427.276	1147.259
331.314	25.389	1426.055	1147.260
332.329	25.225	1425.736	1145.855
333.343	25.235	1424.928	1145.168
334.358	25.315	1423.962	1144.801
335.373	25.349	1422.920	1144.080
336.387	25.332	1422.662	1143.667
337.402	25.389	1421.897	1143.308
338.416	25.351	1421.429	1142.590
339.431	25.439	1420.794	1142.542
340.446	25.356	1420.169	1141.408
341.460	25.421	1419.473	1141.161
342.475	25.485	1418.199	1140.440
343.489	25.432	1417.590	1139.518
344.504	25.399	1416.584	1138.398
345.519	25.444	1415.132	1137.414
346.533	25.447	1414.779	1137.046
347.548	25.406	1413.954	1136.024
348.562	25.410	1412.865	1135.075
349.577	25.434	1412.103	1134.512
350.592	25.430	1411.644	1134.016
351.606	25.490	1410.342	1133.251
352.621	25.482	1409.570	1132.482
353.635	25.440	1408.403	1131.175
354.650	25.483	1407.541	1130.658
355.665	25.476	1407.006	1130.083
356.679	25.535	1406.239	1129.737
357.694	25.568	1404.614	1128.538
358.708	25.631	1403.849	1128.218
359.723	25.534	1402.636	1126.539
360.738	25.587	1401.643	1125.973
361.752	25.540	1400.272	1124.478
362.767	25.523	1399.362	1123.542
363.781	25.542	1398.797	1123.107
364.796	25.657	1397.618	1122.776
365.810	25.611	1397.005	1121.899
366.825	25.727	1396.249	1121.914
367.840	25.645	1395.893	1121.022
368.854	25.626	1394.749	1119.882
369.869	25.852	1394.391	1120.901
370.883	25.729	1393.966	1119.698
371.898	25.747	1393.012	1118.946
372.913	25.736	1392.429	1118.305
373.927	25.682	1391.879	1117.434
374.942	25.654	1391.076	1116.516
375.956	25.790	1390.202	1116.556
376.971	25.840	1389.065	1115.854
377.986	25.801	1388.385	1114.968
379.000	25.825	1387.505	1114.309
380.015	25.741	1387.259	1113.494
381.029	25.773	1386.124	1112.682
382.044	25.877	1385.292	1112.563
383.059	25.770	1385.335	1111.832
384.073	25.748	1384.945	1111.289
385.088	25.876	1384.005	1111.222
386.102	25.926	1383.290	1110.860
387.117	25.894	1382.392	1109.843
388.132	25.966	1381.764	1109.682
389.146	25.775	1381.019	1107.811
390.161	25.914	1380.357	1108.040
391.175	25.886	1379.717	1107.255
392.190	25.959	1378.946	1106.989
393.205	25.943	1378.036	1106.061
394.219	25.901	1377.434	1105.221
395.234	26.002	1375.727	1104.372
396.248	25.972	1375.264	1103.719
397.263	25.971	1373.881	1102.506
398.278	26.009	1372.606	1101.619
399.292	26.021	1372.325	1101.366
400.307	25.986	1371.140	1100.108
401.321	26.003	1370.468	1099.574
402.336	25.984	1369.625	1098.681
403.350	26.065	1368.491	1098.170
404.365	26.017	1367.289	1096.817
405.380	26.135	1366.115	1096.495
406.394	26.160	1365.546	1096.093
407.409	26.048	1365.353	1095.162
408.423	26.084	1364.451	1094.557
409.438	26.182	1363.671	1094.427
410.453	26.122	1363.062	1093.478
411.467	26.217	1362.411	1093.435
412.482	26.173	1362.039	1092.775
413.496	26.174	1360.852	1091.730
414.511	26.175	1360.118	1091.054
415.526	26.169	1359.574	1090.485
416.540	26.253	1358.888	1090.342
417.555	26.267	1357.758	1089.427
418.569	26.244	1357.577	1089.044
419.584	26.288	1357.236	1088.937
420.599	26.257	1356.647	1088.182
421.613	135.452	1434.980	1792.235
422.628	132.856	1446.369	1792.328
