DTS Sentinel unit serial number:	SN413079Multiplexer serial number:	ORYXHardware model number:	OX4-SRSoftware version number:	ORYX F/W v4.00 Oryx Data Collector v3.7.2.0data status	okinstallation	princeton_trtdifferential loss correction	single-endedforward channel	channel 4reverse channel	N/Adate	2019/09/11time	23:47:11forward acquisition time	60.00reverse acquisition time	0.00gamma	496.2192k internal	0.2309k external	0.2309temperature offset calibration	1.0090default loss term (dB/km)	0.3790temperature slope calibration	1.0000multiplexer offset coefficient	1.0000multiplexer slope coefficient	1.0000fibre end	0.00T internal ref (°C)	33.98T ext. ref 1 (°C)	1.98T ext. ref 2 (°C)	27.32length (m)	temperature (°C)	Stokes	anti-Stokes-747.200	-73.905	-0.310	0.114
-746.185	800.000	-0.084	0.290
-745.171	-9.049	0.073	0.050
-744.156	-22.167	-0.258	0.159
-743.142	800.000	-0.048	-0.206
-742.127	430.820	0.218	0.479
-741.112	-142.084	0.289	-0.029
-740.098	592.845	-0.030	-0.075
-739.083	710.631	0.052	0.139
-738.069	-200.000	0.006	-0.050
-737.054	-26.832	0.182	-0.108
-736.039	-31.633	-0.067	-0.038
-735.025	800.000	0.063	0.191
-734.010	-110.351	-0.208	0.044
-732.996	-200.000	-0.064	-0.368
-731.981	260.106	-0.136	-0.238
-730.966	-38.939	-0.070	0.037
-729.952	237.951	0.165	0.278
-728.937	-147.455	-0.230	0.020
-727.923	-200.000	-0.035	0.400
-726.908	-67.363	-0.121	-0.048
-725.894	123.036	0.166	0.211
-724.879	-129.423	-0.389	-0.055
-723.864	-83.165	-0.158	-0.052
-722.850	-200.000	-0.024	-0.251
-721.835	-112.766	0.326	-0.066
-720.821	98.560	-0.238	-0.278
-719.806	-0.017	-0.090	-0.065
-718.791	192.908	-0.030	-0.047
-717.777	-163.941	-0.110	-0.005
-716.762	88.036	0.124	0.140
-715.748	117.795	-0.051	0.063
-714.733	800.000	-0.068	-0.229
-713.718	-200.000	0.012	-0.309
-712.704	-79.693	-0.248	-0.085
-711.689	307.167	-0.196	-0.371
-710.675	800.000	-0.061	-0.253
-709.660	-82.168	-0.075	-0.025
-708.645	-84.935	0.041	0.013
-707.631	157.672	-0.037	0.053
-706.616	800.000	0.078	-0.344
-705.602	-57.176	0.292	-0.131
-704.587	316.564	-0.100	-0.192
-703.572	49.183	0.129	0.123
-702.558	-117.073	0.165	-0.031
-701.543	76.125	0.159	-0.170
-700.529	800.000	0.046	0.128
-699.514	624.226	0.143	0.366
-698.499	42.920	-0.123	-0.113
-697.485	203.429	0.175	0.274
-696.470	139.301	-0.130	-0.173
-695.456	-86.647	-0.244	0.076
-694.441	-165.538	-0.282	-0.012
-693.426	-20.742	-0.176	0.110
-692.412	-119.577	0.059	-0.010
-691.397	-66.352	0.101	0.041
-690.383	-130.653	0.391	0.053
-689.368	-67.263	-0.194	-0.077
-688.354	-200.000	0.018	0.143
-687.339	-83.362	-0.109	0.036
-686.324	45.376	0.210	0.197
-685.310	800.000	-0.046	0.198
-684.295	-94.246	-0.059	0.016
-683.281	-143.559	-0.197	-0.019
-682.266	800.000	0.048	-0.161
-681.251	17.661	0.048	0.039
-680.237	40.257	-0.303	-0.276
-679.222	-200.000	0.017	-0.267
-678.208	-200.000	0.002	0.282
-677.193	-156.857	-0.114	0.007
-676.178	-145.740	-0.138	-0.012
-675.164	30.031	-0.087	0.075
-674.149	29.708	-0.023	0.020
-673.135	800.000	0.021	-0.070
-672.120	-23.018	-0.139	-0.085
-671.105	-109.322	-0.108	-0.023
-670.091	-145.583	-0.158	-0.014
-669.076	800.000	0.035	-0.113
-668.062	7.234	-0.255	-0.193
-667.047	800.000	0.045	-0.149
-666.032	-200.000	0.009	0.099
-665.018	737.594	0.104	0.282
-664.003	-132.995	-0.188	-0.024
-662.989	-76.429	-0.195	-0.069
-661.974	-39.067	0.286	-0.152
-660.959	-113.176	0.343	-0.069
-659.945	-161.854	0.268	-0.014
-658.930	-53.461	-0.334	0.155
-657.916	-118.472	0.148	-0.027
-656.901	-200.000	-0.031	-0.228
-655.886	-200.000	-0.004	-0.191
-654.872	-200.000	-0.003	-0.050
-653.857	72.008	-0.218	0.229
-652.843	-126.007	-0.329	0.050
-651.828	-115.325	-0.221	-0.042
-650.814	6.697	-0.228	-0.172
-649.799	-22.336	0.120	-0.074
-648.784	-174.476	-0.190	-0.006
-647.770	313.619	0.094	0.180
-646.755	-83.607	-0.464	0.150
-645.741	537.952	0.064	-0.153
-644.726	-107.154	-0.299	-0.067
-643.711	800.000	-0.114	0.392
-642.697	-97.471	0.352	-0.093
-641.682	-146.307	-0.119	-0.011
-640.668	800.000	-0.020	0.069
-639.653	-26.443	-0.300	-0.178
-638.638	65.912	0.101	-0.103
-637.624	148.080	0.171	0.234
-636.609	800.000	0.065	-0.275
-635.595	-200.000	0.024	-0.266
-634.580	800.000	-0.061	-0.203
-633.565	-13.593	0.174	-0.114
-632.551	-12.450	-0.335	-0.221
-631.536	-29.178	-0.159	-0.092
-630.522	32.757	0.064	0.056
-629.507	800.000	0.051	0.222
-628.492	228.669	0.156	-0.257
-627.478	-200.000	-0.059	0.352
-626.463	64.071	-0.117	-0.119
-625.449	395.554	-0.099	-0.208
-624.434	400.478	-0.090	0.191
-623.419	170.451	0.135	-0.195
-622.405	-158.825	0.216	-0.012
-621.390	103.242	0.131	-0.155
-620.376	477.116	0.034	-0.077
-619.361	-23.572	-0.221	-0.134
-618.346	-119.435	0.451	0.079
-617.332	-101.675	-0.338	0.083
-616.317	-200.000	-0.001	0.167
-615.303	-200.000	-0.031	0.193
-614.288	-20.669	0.288	-0.178
-613.273	-189.135	0.073	-0.001
-612.259	-71.793	0.279	-0.105
-611.244	-58.937	0.351	-0.153
-610.230	-19.016	0.144	0.091
-609.215	-82.520	0.114	0.038
-608.201	115.808	-0.105	0.130
-607.186	68.558	0.172	0.179
-606.171	-93.179	-0.151	0.043
-605.157	-154.036	-0.078	0.005
-604.142	800.000	0.059	-0.258
-603.128	437.486	0.088	-0.195
-602.113	-8.372	0.048	0.032
-601.098	640.002	-0.233	-0.598
-600.084	-65.381	-0.357	0.145
-599.069	0.418	0.120	-0.087
-598.055	-80.949	0.437	-0.146
-597.040	-200.000	0.011	-0.292
-596.025	-113.937	0.125	-0.024
-595.011	146.103	-0.110	-0.149
-593.996	-200.000	0.028	-0.133
-592.982	92.791	0.306	-0.350
-591.967	-190.271	0.397	0.004
-590.952	328.406	-0.095	-0.184
-589.938	-200.000	0.018	0.281
-588.923	453.238	0.123	-0.275
-587.909	-140.525	0.295	-0.031
-586.894	-200.000	0.021	-0.373
-585.879	435.328	0.106	0.232
-584.865	671.320	0.140	0.366
-583.850	40.951	0.193	-0.176
-582.836	-43.680	0.219	0.112
-581.821	-22.792	-0.067	-0.041
-580.806	109.802	0.073	0.089
-579.792	17.266	0.132	0.106
-578.777	-120.986	0.170	-0.029
-577.763	-200.000	0.014	-0.135
-576.748	800.000	0.009	0.034
-575.733	-145.304	0.191	0.017
-574.719	-65.619	-0.435	0.176
-573.704	-34.419	-0.046	0.025
-572.690	-136.603	-0.103	-0.012
-571.675	800.000	-0.056	-0.189
-570.661	17.138	-0.079	0.063
-569.646	-154.267	-0.067	0.005
-568.631	-64.744	0.135	0.055
-567.617	423.714	-0.105	-0.228
-566.602	800.000	0.124	-0.354
-565.588	-32.776	0.241	0.135
-564.573	108.998	0.083	0.100
-563.558	336.513	0.112	0.220
-562.544	-197.400	-0.093	-0.001
-561.529	-159.715	-0.196	0.011
-560.515	171.051	-0.102	-0.148
-559.500	-74.898	0.108	0.039
-558.485	-110.281	-0.352	0.074
-557.471	282.233	-0.088	0.159
-556.456	-21.863	-0.137	0.084
-555.442	669.871	0.055	-0.145
-554.427	758.371	-0.065	-0.177
-553.412	41.067	0.347	0.316
-552.398	-200.000	-0.016	0.135
-551.383	-103.860	0.208	-0.049
-550.369	-61.978	-0.130	0.055
-549.354	-7.866	0.168	0.115
-548.339	-68.567	-0.073	-0.028
-547.325	-106.522	-0.509	-0.114
-546.310	-102.949	0.207	-0.050
-545.296	638.686	-0.129	0.330
-544.281	0.488	-0.103	-0.074
-543.266	-45.386	0.309	-0.155
-542.252	-4.447	-0.059	-0.041
-541.237	147.518	-0.082	-0.112
-540.223	584.710	0.111	0.276
-539.208	-7.162	0.080	0.054
-538.193	22.687	-0.245	-0.202
-537.179	-133.259	-0.158	0.020
-536.164	-91.606	0.201	-0.058
-535.150	400.030	-0.082	0.174
-534.135	228.162	0.196	-0.322
-533.121	-161.894	0.268	-0.014
-532.106	-97.171	0.153	0.040
-531.091	477.271	-0.065	0.147
-530.077	638.491	-0.045	0.114
-529.062	608.074	0.032	-0.080
-528.048	-60.885	-0.098	0.042
-527.033	320.043	-0.131	0.250
-526.018	410.032	-0.080	-0.172
-525.004	-200.000	-0.014	-0.183
-523.989	25.998	0.207	0.174
-522.975	143.024	0.219	-0.294
-521.960	-114.640	-0.346	-0.067
-520.945	295.672	0.153	0.282
-519.931	-200.000	0.002	0.142
-518.916	252.533	0.052	0.089
-517.902	-200.000	-0.023	0.162
-516.887	800.000	-0.042	-0.125
-515.872	276.357	-0.083	0.149
-514.858	397.224	0.072	0.151
-513.843	252.055	-0.136	0.233
-512.829	800.000	-0.067	0.192
-511.814	390.721	0.101	0.211
-510.799	103.810	0.175	-0.207
-509.785	13.695	-0.274	-0.215
-508.770	96.240	0.330	-0.380
-507.756	-6.376	-0.350	0.240
-506.741	-81.036	-0.064	0.021
-505.726	535.538	0.055	-0.131
-504.712	-84.845	0.052	0.017
-503.697	85.540	-0.075	0.083
-502.683	138.448	-0.145	0.192
-501.668	-114.922	-0.217	0.042
-500.653	172.214	-0.172	0.250
-499.639	-191.216	-0.157	-0.002
-498.624	-43.063	-0.284	0.145
-497.610	-200.000	0.002	0.233
-496.595	300.770	-0.092	-0.171
-495.581	-200.000	0.008	0.206
-494.566	800.000	0.100	0.371
-493.551	730.982	0.041	0.111
-492.537	-200.000	0.028	-0.180
-491.522	-105.340	-0.249	-0.057
-490.508	-200.000	0.025	0.263
-489.493	-187.955	-0.251	0.003
-488.478	-200.000	0.012	0.129
-487.464	-57.932	-0.372	0.164
-486.449	-200.000	0.006	0.026
-485.435	322.166	0.129	-0.248
-484.420	-101.057	-0.100	0.025
-483.405	-107.727	-0.244	-0.054
-482.391	-200.000	0.039	-0.315
-481.376	-94.203	0.418	0.115
-480.362	-140.493	-0.024	-0.003
-479.347	-102.625	0.125	-0.030
-478.332	666.464	-0.125	0.324
-477.318	77.836	0.191	0.205
-476.303	-170.614	0.422	-0.015
-475.289	-34.096	-0.188	0.104
-474.274	625.472	0.091	0.231
-473.259	126.110	-0.174	0.221
-472.245	-105.366	-0.204	-0.047
-471.230	146.621	-0.067	-0.091
-470.216	-200.000	-0.048	0.277
-469.201	-33.337	-0.073	-0.041
-468.186	-154.675	-0.228	0.015
-467.172	-129.872	0.274	0.038
-466.157	314.088	-0.063	0.120
-465.143	-200.000	0.028	0.267
-464.128	223.299	0.056	0.091
-463.113	-90.261	0.052	-0.015
-462.099	800.000	0.027	0.090
-461.084	-31.107	-0.105	0.060
-460.070	350.002	0.166	0.330
-459.055	-66.594	0.122	-0.048
-458.040	-3.029	0.148	0.104
-457.026	-200.000	0.002	0.027
-456.011	-35.613	0.157	0.085
-454.997	527.539	-0.086	0.204
-453.982	35.941	-0.316	-0.279
-452.968	84.190	-0.216	-0.237
-451.953	-200.000	-0.036	0.392
-450.938	182.471	-0.075	-0.111
-449.924	-200.000	-0.016	-0.125
-448.909	800.000	0.028	-0.085
-447.895	48.344	-0.121	0.113
-446.880	673.032	0.091	-0.236
-445.865	-7.981	-0.202	0.137
-444.851	386.181	0.083	0.172
-443.836	123.454	-0.027	0.034
-442.822	-28.921	-0.218	-0.126
-441.807	141.952	0.107	0.142
-440.792	-141.256	0.341	0.035
-439.778	-119.075	0.215	0.038
-438.763	185.715	-0.146	-0.218
-437.749	-174.745	0.132	-0.004
-436.734	-200.000	-0.018	-0.152
-435.719	-49.209	-0.157	-0.075
-434.705	-48.595	0.156	0.075
-433.690	58.004	0.153	0.151
-432.676	375.770	0.078	0.159
-431.661	781.420	0.163	-0.448
-430.646	23.373	0.216	0.178
-429.632	88.551	0.181	-0.202
-428.617	800.000	-0.033	0.137
-427.603	112.890	0.124	0.151
-426.588	-65.412	-0.159	0.064
-425.573	-158.695	-0.105	0.006
-424.559	-200.000	-0.008	-0.142
-423.544	143.395	0.175	-0.234
-422.530	-79.764	0.214	0.072
-421.515	10.347	-0.272	-0.208
-420.500	469.201	0.122	0.274
-419.486	-200.000	0.005	0.041
-418.471	800.000	0.044	-0.174
-417.457	800.000	0.078	-0.336
-416.442	-41.481	-0.104	0.054
-415.428	85.621	0.115	0.127
-414.413	-128.254	-0.039	-0.006
-413.398	752.446	0.114	0.309
-412.384	30.382	-0.112	-0.096
-411.369	335.508	0.096	-0.186
-410.355	-61.756	-0.102	-0.043
-409.340	144.166	0.081	-0.109
-408.325	-78.004	0.171	-0.059
-407.311	-190.647	-0.232	0.002
-406.296	800.000	0.013	0.042
-405.282	-33.640	0.213	0.118
-404.267	-74.431	-0.393	-0.142
-403.252	50.684	-0.162	0.154
-402.238	115.831	-0.049	0.060
-401.223	-8.124	-0.279	0.188
-400.209	800.000	-0.049	-0.165
-399.194	619.224	-0.123	0.309
-398.179	-200.000	0.013	0.192
-397.165	-116.026	0.435	0.081
-396.150	337.407	-0.131	0.256
-395.136	-165.600	-0.302	0.013
-394.121	55.967	-0.045	-0.044
-393.106	-126.453	0.196	-0.029
-392.092	-156.876	0.048	-0.003
-391.077	800.000	-0.068	0.250
-390.063	-159.896	0.116	-0.006
-389.048	478.582	0.065	-0.148
-388.033	705.517	-0.101	-0.268
-387.019	-75.278	-0.214	0.076
-386.004	-76.756	0.240	-0.084
-384.990	800.000	0.032	-0.139
-383.975	221.949	-0.151	0.244
-382.960	47.167	0.108	-0.101
-381.946	-15.634	0.108	-0.069
-380.931	4.897	-0.129	0.095
-379.917	-200.000	-0.013	-0.086
-378.902	424.714	0.054	0.117
-377.888	165.906	0.227	0.321
-376.873	61.484	-0.239	-0.238
-375.858	137.303	0.191	-0.250
-374.844	-157.051	-0.356	0.022
-373.829	-200.000	-0.045	-0.245
-372.815	104.078	0.058	0.068
-371.800	104.413	-0.139	-0.164
-370.785	69.601	0.220	-0.227
-369.771	-96.248	0.186	0.049
-368.756	111.862	0.125	-0.152
-367.742	69.144	0.133	-0.137
-366.727	800.000	-0.020	-0.088
-365.712	-43.628	-0.222	-0.112
-364.698	64.373	-0.155	-0.156
-363.683	-200.000	-0.001	0.027
-362.669	310.336	0.225	-0.422
-361.654	-157.501	0.111	0.007
-360.639	61.727	-0.141	-0.140
-359.625	-200.000	-0.039	-0.257
-358.610	134.774	-0.072	0.094
-357.596	-80.214	-0.294	0.098
-356.581	-149.218	-0.163	0.013
-355.566	-200.000	-0.029	0.157
-354.552	-200.000	0.020	-0.304
-353.537	-8.971	-0.162	0.109
-352.523	346.365	-0.157	-0.308
-351.508	379.674	0.053	0.108
-350.493	-99.098	-0.059	-0.015
-349.479	301.008	0.057	-0.106
-348.464	339.626	0.093	0.182
-347.450	-200.000	-0.035	0.287
-346.435	-97.642	0.173	0.045
-345.420	-155.637	0.279	0.018
-344.406	441.976	0.071	0.155
-343.391	116.916	0.263	0.323
-342.377	263.025	-0.025	-0.043
-341.362	15.947	-0.148	0.117
-340.348	-40.031	-0.107	-0.056
-339.333	-21.271	-0.212	0.130
-338.318	-200.000	-0.033	-0.357
-337.304	-102.702	0.082	-0.020
-336.289	-46.830	0.225	-0.110
-335.275	800.000	-0.026	0.110
-334.260	-200.000	-0.045	-0.279
-333.245	-24.065	-0.363	0.217
-332.231	-119.598	0.244	-0.042
-331.216	99.216	0.218	0.252
-330.202	150.884	0.096	0.131
-329.187	425.302	-0.071	0.153
-328.172	-200.000	0.041	0.610
-327.158	800.000	0.041	0.121
-326.143	-200.000	-0.026	-0.169
-325.129	-84.618	-0.336	-0.106
-324.114	-200.000	0.027	-0.213
-323.099	-3.811	-0.066	0.046
-322.085	-116.609	-0.409	0.075
-321.070	85.078	0.155	-0.170
-320.056	-65.661	0.153	-0.061
-319.041	-79.740	-0.346	0.117
-318.026	800.000	-0.059	-0.233
-317.012	-158.785	0.067	-0.004
-315.997	99.464	-0.204	-0.236
-314.983	-59.038	0.314	-0.136
-313.968	-133.395	-0.340	-0.043
-312.953	-59.258	0.168	-0.072
-311.939	224.726	-0.157	0.254
-310.924	788.839	-0.045	-0.124
-309.910	272.710	-0.081	-0.142
-308.895	186.703	0.263	0.392
-307.880	6.192	-0.143	-0.106
-306.866	-168.334	-0.316	0.012
-305.851	-200.000	-0.013	-0.062
-304.837	469.194	0.048	0.108
-303.822	177.389	-0.186	-0.271
-302.807	419.351	-0.118	0.252
-301.793	-79.994	-0.207	0.069
-300.778	800.000	0.083	0.330
-299.764	800.000	0.110	0.363
-298.749	83.373	0.278	0.302
-297.735	44.026	-0.117	0.107
-296.720	346.364	0.107	-0.211
-295.705	-77.726	-0.183	-0.063
-294.691	-90.921	-0.096	-0.028
-293.676	-97.421	-0.101	0.026
-292.662	-77.454	0.096	0.033
-291.647	-200.000	-0.017	-0.144
-290.632	52.677	0.310	-0.295
-289.618	-200.000	0.034	0.157
-288.603	14.191	-0.330	-0.257
-287.589	800.000	0.077	-0.247
-286.574	25.212	-0.110	-0.091
-285.559	67.674	0.104	-0.106
-284.545	32.719	0.208	0.179
-283.530	-200.000	-0.058	0.282
-282.516	82.438	0.183	-0.198
-281.501	-95.170	0.289	0.078
-280.486	-149.433	-0.167	-0.013
-279.472	-36.014	0.296	0.160
-278.457	293.278	-0.226	-0.411
-277.443	-30.190	-0.022	-0.012
-276.428	-74.954	0.234	-0.084
-275.413	-200.000	0.021	0.293
-274.399	800.000	-0.022	-0.095
-273.384	0.424	-0.182	-0.129
-272.370	80.795	0.020	0.022
-271.355	21.927	-0.257	0.209
-270.340	167.446	0.291	0.412
-269.326	40.998	-0.140	-0.126
-268.311	4.157	-0.234	0.170
-267.297	-169.037	-0.208	-0.008
-266.282	-51.565	0.289	0.134
-265.267	-51.109	0.391	0.183
-264.253	54.016	0.071	-0.068
-263.238	-200.000	0.010	-0.285
-262.224	1.143	-0.068	0.049
-261.209	429.046	-0.170	0.367
-260.195	-42.565	0.334	-0.170
-259.180	-43.417	-0.080	0.040
-258.165	-11.510	-0.150	0.098
-257.151	-19.347	0.107	-0.066
-256.136	-99.562	-0.040	-0.010
-255.122	800.000	0.057	0.190
-254.107	239.438	-0.149	0.248
-253.092	16.098	0.223	-0.175
-252.078	-200.000	-0.053	-0.331
-251.063	613.319	0.132	-0.330
-250.049	800.000	0.103	0.373
-249.034	240.597	-0.085	-0.141
-248.019	800.000	0.097	-0.396
-247.005	-63.566	0.029	-0.012
-245.990	-94.817	-0.352	0.095
-244.976	-76.584	-0.069	0.024
-243.961	145.020	-0.094	0.125
-242.946	87.817	0.202	-0.223
-241.932	-106.214	0.220	-0.049
-240.917	-131.454	0.343	-0.045
-239.903	706.609	-0.061	-0.162
-238.888	137.726	0.031	-0.041
-237.873	-47.115	0.197	0.096
-236.859	712.021	-0.121	0.319
-235.844	136.403	0.069	-0.090
-234.830	448.895	0.120	0.263
-233.815	-31.811	-0.217	-0.121
-232.800	800.000	-0.072	-0.302
-231.786	800.000	-0.096	0.306
-230.771	152.914	0.124	0.168
-229.757	-68.761	0.387	-0.149
-228.742	5.343	0.140	-0.103
-227.727	205.325	-0.039	-0.061
-226.713	699.168	-0.103	0.270
-225.698	800.000	0.091	0.252
-224.684	-200.000	-0.062	-0.353
-223.669	800.000	0.070	-0.236
-222.655	-75.091	0.202	-0.072
-221.640	-140.694	0.226	-0.023
-220.625	46.651	-0.123	0.113
-219.611	-200.000	-0.033	0.197
-218.596	112.508	-0.092	0.110
-217.582	800.000	-0.099	-0.401
-216.567	-78.697	-0.212	-0.072
-215.552	-29.059	0.347	0.198
-214.538	124.937	-0.073	-0.092
-213.523	-49.971	0.118	-0.056
-212.509	-200.000	-0.005	0.096
-211.494	-91.563	0.310	0.088
-210.479	-135.933	-0.537	0.063
-209.465	800.000	0.099	0.343
-208.450	-200.000	-0.059	-0.363
-207.436	179.445	0.163	-0.237
-206.421	-19.384	-0.177	-0.109
-205.406	83.654	-0.127	0.138
-204.392	-81.268	-0.165	-0.054
-203.377	-88.772	0.227	-0.067
-202.363	-83.958	-0.088	0.028
-201.348	15.793	-0.077	-0.060
-200.333	387.318	-0.046	-0.094
-199.319	-128.162	-0.072	0.010
-198.304	-68.822	-0.145	0.056
-197.290	355.467	0.100	0.198
-196.275	-200.000	0.012	-0.149
-195.260	800.000	-0.022	0.071
-194.246	-200.000	-0.002	0.142
-193.231	800.000	-0.124	-0.403
-192.217	9.182	-0.277	-0.208
-191.202	-14.191	0.092	-0.059
-190.187	-200.000	0.024	0.140
-189.173	283.000	0.054	0.096
-188.158	44.060	0.129	-0.118
-187.144	91.702	-0.263	-0.295
-186.129	-126.649	0.034	0.005
-185.114	-30.540	0.190	-0.107
-184.100	39.529	-0.169	0.151
-183.085	-200.000	-0.041	-0.303
-182.071	-90.094	0.136	0.039
-181.056	-200.000	-0.007	-0.228
-180.042	-200.000	-0.019	0.127
-179.027	658.492	-0.062	-0.158
-178.012	71.055	0.177	-0.182
-176.998	-200.000	0.020	-0.348
-175.983	-187.708	0.032	0.000
-174.969	-189.537	-0.167	-0.002
-173.954	-200.000	0.007	-0.061
-172.939	-11.588	-0.083	-0.054
-171.925	659.820	0.095	0.244
-170.910	-119.282	-0.389	0.067
-169.896	6.747	-0.134	-0.099
-168.881	264.738	0.164	0.284
-167.866	607.698	0.010	-0.026
-166.852	-38.858	0.052	0.027
-165.837	51.606	0.264	-0.250
-164.823	235.424	0.047	0.077
-163.808	-70.821	-0.324	0.122
-162.793	-196.315	-0.108	-0.001
-161.779	56.242	0.043	-0.042
-160.764	-110.979	0.163	-0.033
-159.750	100.624	-0.094	0.108
-158.735	224.192	-0.077	0.123
-157.720	-105.379	-0.321	0.073
-156.706	-24.460	0.348	-0.206
-155.691	8.313	0.161	0.120
-154.677	38.488	0.073	0.065
-153.662	-63.286	-0.339	0.139
-152.647	-96.721	-0.319	0.083
-151.633	-200.000	0.018	-0.082
-150.618	-153.848	-0.299	-0.020
-149.604	300.733	0.022	-0.040
-148.589	-136.740	0.045	-0.005
-147.574	800.000	-0.074	0.253
-146.560	-28.717	0.303	0.173
-145.545	486.682	-0.059	-0.134
-144.531	-112.343	-0.212	0.042
-143.516	242.599	0.096	0.159
-142.502	-200.000	0.068	0.367
-141.487	-200.000	-0.013	-0.174
-140.472	-200.000	-0.008	-0.348
-139.458	-200.000	0.045	-0.227
-138.443	72.421	-0.228	-0.235
-137.429	800.000	-0.043	0.137
-136.414	-200.000	-0.012	-0.419
-135.399	-200.000	-0.019	-0.168
-134.385	44.295	0.102	0.093
-133.370	363.477	0.168	0.336
-132.356	26.961	-0.341	-0.283
-131.341	52.776	-0.125	0.119
-130.326	-140.527	0.352	-0.036
-129.312	-120.262	-0.327	0.055
-128.297	-136.198	0.451	-0.052
-127.283	-200.000	-0.005	-0.325
-126.268	358.216	-0.028	-0.056
-125.253	-127.037	-0.326	-0.047
-124.239	444.983	0.144	0.315
-123.224	151.091	0.046	-0.062
-122.210	-121.391	0.320	0.053
-121.195	20.107	0.172	0.137
-120.180	-117.276	-0.193	0.035
-119.166	-52.778	0.232	-0.106
-118.151	-87.634	-0.171	0.051
-117.137	-126.964	0.145	0.021
-116.122	-111.375	-0.129	-0.026
-115.107	-74.025	-0.165	-0.059
-114.093	-72.617	-0.056	0.020
-113.078	-200.000	0.022	0.240
-112.064	178.682	0.103	-0.149
-111.049	-104.738	-0.280	0.064
-110.034	340.773	-0.063	0.123
-109.020	-200.000	-0.007	-0.162
-108.005	82.488	-0.171	-0.184
-106.991	-200.000	-0.012	0.064
-105.976	134.570	-0.185	0.238
-104.962	-200.000	0.002	-0.050
-103.947	-104.924	-0.100	-0.023
-102.932	-139.435	0.218	0.023
-101.918	800.000	-0.053	0.184
-100.903	327.104	0.172	0.328
-99.889	-107.640	-0.214	-0.046
-98.874	44.054	0.019	0.017
-97.859	178.711	0.185	-0.268
-96.845	-200.000	0.025	-0.112
-95.830	-200.000	0.006	-0.295
-94.816	229.111	0.132	0.213
-93.801	183.953	0.116	-0.170
-92.786	-200.000	-0.040	-0.303
-91.772	-200.000	0.029	0.145
-90.757	286.084	0.093	0.167
-89.743	-111.432	0.038	-0.008
-88.728	800.000	-0.080	0.230
-87.713	-190.539	-0.222	-0.002
-86.699	-48.516	0.245	0.117
-85.684	-200.000	-0.001	0.027
-84.670	-64.331	0.266	0.107
-83.655	-113.313	0.210	0.041
-82.640	291.874	0.191	0.344
-81.626	-36.059	-0.474	0.254
-80.611	-200.000	-0.007	0.352
-79.597	39.082	-0.104	-0.092
-78.582	-200.000	-0.020	0.260
-77.567	390.085	-0.085	0.175
-76.553	800.000	0.117	0.320
-75.538	-111.317	0.263	0.053
-74.524	-99.007	0.101	0.025
-73.509	-12.916	0.260	-0.168
-72.494	-117.713	-0.026	0.005
-71.480	-96.368	-0.092	-0.024
-70.465	-116.474	-0.093	0.017
-69.451	-33.211	-0.333	0.183
-68.436	23.231	-0.268	0.218
-67.422	-200.000	-0.010	-0.070
-66.407	192.029	0.047	-0.070
-65.392	-71.429	0.261	0.097
-64.378	589.319	0.047	-0.115
-63.363	382.677	0.208	0.423
-62.349	-61.142	0.173	0.072
-61.334	9.242	-0.870	-0.651
-60.319	80.697	0.367	0.392
-59.305	-200.000	-0.168	-1.063
-58.290	337.927	0.549	1.056
-57.276	800.000	0.498	1.378
-56.261	-200.000	96.491	580.522
-55.246	539.397	1387.242	3264.106
-54.232	152.947	2587.910	3499.452
-53.217	102.727	2310.649	2674.195
-52.203	40.320	2061.640	1834.481
-51.188	35.718	1975.932	1717.165
-50.173	34.074	1958.201	1687.122
-49.159	49.094	2008.229	1865.432
-48.144	50.986	2027.204	1899.988
-47.130	36.378	1986.724	1732.194
-46.115	33.965	1975.757	1700.999
-45.100	33.919	1972.794	1697.972
-44.086	33.866	1970.462	1695.417
-43.071	33.786	1968.322	1692.802
-42.057	33.662	1966.547	1690.099
-41.042	33.731	1964.374	1688.782
-40.027	33.780	1962.865	1687.856
-39.013	33.837	1960.048	1685.867
-37.998	33.858	1958.343	1684.524
-36.984	33.902	1956.149	1682.952
-35.969	33.860	1954.938	1681.473
-34.954	33.982	1952.730	1680.588
-33.940	33.967	1951.388	1679.231
-32.925	33.932	1949.776	1677.471
-31.911	33.981	1948.071	1676.367
-30.896	34.039	1946.036	1675.061
-29.881	34.047	1945.059	1674.226
-28.867	34.012	1943.409	1672.429
-27.852	33.976	1941.830	1670.695
-26.838	34.058	1939.316	1669.182
-25.823	33.993	1938.075	1667.473
-24.809	34.028	1935.737	1665.702
-23.794	34.060	1934.226	1664.624
-22.779	34.012	1933.073	1663.140
-21.765	34.037	1931.351	1661.816
-20.750	33.964	1929.635	1659.632
-19.736	34.068	1927.901	1658.981
-18.721	33.948	1927.215	1657.276
-17.706	33.958	1925.485	1655.811
-16.692	34.110	1922.946	1654.883
-15.677	34.062	1921.358	1653.039
-14.663	34.081	1920.318	1652.238
-13.648	34.004	1919.116	1650.470
-12.633	33.966	1918.180	1649.270
-11.619	34.006	1916.871	1648.429
-10.604	33.951	1915.462	1646.676
-9.590	33.990	1914.153	1645.824
-8.575	34.035	1912.521	1644.748
-7.560	33.927	1911.774	1643.102
-6.546	34.000	1910.055	1642.192
-5.531	34.073	1908.637	1641.532
-4.517	34.001	1908.249	1640.514
-3.502	34.006	1906.710	1639.168
-2.487	33.991	1904.886	1637.404
-1.473	33.912	1904.780	1636.573
-0.458	33.974	1900.046	1632.975
0.556	34.114	1879.610	1604.595
1.571	29.897	1860.608	1552.943
2.586	26.042	1884.038	1539.528
3.600	25.280	1919.420	1561.673
4.615	24.916	1915.851	1555.473
5.629	19.269	1814.746	1426.648
6.644	8.419	1692.241	1246.018
7.659	2.616	1651.880	1171.916
8.673	2.128	1648.462	1165.662
9.688	2.077	1646.964	1164.116
10.702	1.944	1645.827	1162.192
11.717	1.772	1642.521	1158.446
12.731	2.284	1641.587	1161.575
13.746	9.285	1659.296	1227.621
14.761	20.057	1683.205	1328.224
15.775	25.402	1692.561	1376.571
16.790	26.338	1693.351	1384.268
17.804	26.489	1692.444	1384.560
18.819	26.540	1691.843	1384.332
19.834	26.626	1691.396	1384.505
20.848	26.933	1690.621	1386.090
21.863	26.895	1689.825	1385.024
22.877	26.880	1689.260	1384.321
23.892	26.891	1688.067	1383.305
24.907	26.901	1687.220	1382.570
25.921	26.925	1686.075	1381.691
26.936	26.892	1685.314	1380.693
27.950	26.964	1683.994	1380.035
28.965	26.934	1683.456	1379.243
29.980	27.030	1682.188	1378.817
30.994	26.920	1681.207	1377.052
32.009	26.949	1679.718	1375.931
33.023	26.888	1678.956	1374.725
34.038	26.882	1678.545	1374.217
35.053	26.935	1677.124	1373.335
36.067	26.947	1676.059	1372.436
37.082	26.921	1675.114	1371.345
38.096	26.949	1674.443	1370.881
39.111	26.920	1673.275	1369.582
40.126	26.879	1672.753	1368.729
41.140	26.949	1671.483	1368.097
42.155	26.963	1670.623	1367.373
43.169	26.910	1669.981	1366.328
44.184	26.913	1668.934	1365.376
45.199	26.876	1667.850	1364.088
46.213	26.948	1666.301	1363.246
47.228	26.862	1665.682	1361.973
48.242	26.958	1664.583	1361.668
49.257	26.915	1663.489	1360.332
50.271	26.934	1662.156	1359.269
51.286	26.933	1660.937	1358.141
52.301	26.817	1659.977	1356.370
53.315	26.927	1658.076	1355.517
54.330	26.974	1656.832	1354.733
55.344	26.952	1655.088	1353.021
56.359	26.877	1654.333	1351.726
57.374	26.929	1653.180	1351.050
58.388	27.012	1651.728	1350.363
59.403	26.983	1650.467	1348.992
60.417	26.858	1650.219	1347.747
61.432	26.990	1648.597	1347.280
62.447	26.930	1647.511	1345.829
63.461	26.965	1646.789	1345.382
64.476	26.960	1646.203	1344.742
65.490	26.949	1644.924	1343.498
66.505	26.886	1644.088	1342.235
67.520	26.954	1642.967	1341.699
68.534	26.958	1641.829	1340.679
69.549	27.035	1640.440	1339.995
70.563	27.067	1639.285	1339.172
71.578	26.915	1638.662	1337.425
72.593	27.020	1637.301	1336.966
73.607	26.920	1636.927	1335.808
74.622	26.960	1635.707	1334.986
75.636	26.978	1634.908	1334.350
76.651	26.987	1633.771	1333.373
77.666	26.968	1633.026	1332.501
78.680	26.978	1632.149	1331.744
79.695	26.983	1631.152	1330.850
80.709	27.074	1630.253	1330.667
81.724	26.978	1629.644	1329.348
82.739	26.951	1628.638	1328.215
83.753	26.953	1627.280	1326.997
84.768	26.896	1626.733	1326.018
85.782	26.941	1625.783	1325.459
86.797	26.915	1625.018	1324.530
87.812	26.935	1624.105	1323.815
88.826	26.970	1622.951	1323.010
89.841	26.991	1621.990	1322.263
90.855	26.971	1621.127	1321.295
91.870	26.954	1620.183	1320.287
92.884	27.033	1618.821	1319.633
93.899	27.008	1618.139	1318.781
94.914	26.980	1616.891	1317.441
95.928	27.030	1615.350	1316.432
96.943	26.999	1614.237	1315.185
97.957	26.986	1612.897	1313.880
98.972	26.968	1612.121	1313.002
99.987	27.051	1610.546	1312.200
101.001	26.982	1609.377	1310.636
102.016	26.948	1607.945	1309.109
103.030	26.947	1606.750	1308.014
104.045	26.931	1605.519	1306.784
105.060	27.005	1603.710	1305.725
106.074	26.892	1602.959	1304.186
107.089	26.954	1601.717	1303.503
108.103	27.012	1601.153	1303.347
109.118	27.032	1599.329	1301.892
110.133	27.065	1598.546	1301.376
111.147	27.085	1597.224	1300.329
112.162	27.037	1596.005	1298.879
113.176	27.063	1594.993	1298.122
114.191	27.095	1593.512	1297.030
115.206	27.063	1592.542	1295.898
116.220	27.022	1591.436	1294.593
117.235	27.040	1590.308	1293.687
118.249	27.084	1589.112	1292.911
119.264	27.100	1588.298	1292.248
120.279	26.986	1587.441	1290.631
121.293	27.073	1585.570	1289.608
122.308	27.066	1585.261	1289.198
123.322	27.054	1583.341	1287.438
124.337	27.107	1582.356	1286.899
125.352	27.105	1581.313	1285.920
126.366	27.105	1580.383	1285.049
127.381	27.164	1579.448	1284.595
128.395	27.140	1578.580	1283.606
129.410	27.048	1578.105	1282.454
130.424	27.114	1576.195	1281.253
131.439	27.109	1575.198	1280.296
132.454	27.186	1573.845	1279.624
133.468	27.103	1573.010	1278.246
134.483	27.072	1571.505	1276.695
135.497	27.133	1570.266	1276.003
136.512	27.160	1569.102	1275.137
137.527	27.076	1568.374	1273.841
138.541	27.104	1567.139	1272.923
139.556	27.117	1565.892	1271.886
140.570	27.205	1564.550	1271.297
141.585	27.206	1563.189	1270.089
142.600	27.066	1562.964	1268.816
143.614	27.203	1561.270	1268.282
144.629	27.185	1560.344	1267.294
145.643	27.074	1559.705	1265.886
146.658	27.084	1558.416	1264.800
147.673	27.052	1556.535	1262.938
148.687	27.052	1555.742	1262.181
149.702	27.121	1554.775	1261.765
150.716	27.067	1553.093	1259.915
151.731	27.018	1552.478	1258.962
152.746	27.118	1551.218	1258.527
153.760	27.111	1549.794	1257.210
154.775	27.103	1549.024	1256.415
155.789	27.269	1547.597	1256.298
156.804	27.190	1546.771	1254.972
157.819	27.186	1545.825	1254.062
158.833	27.135	1544.712	1252.695
159.848	27.260	1543.238	1252.252
160.862	27.194	1542.841	1251.365
161.877	27.294	1541.558	1250.901
162.892	27.129	1540.863	1249.094
163.906	27.333	1539.853	1249.564
164.921	27.248	1538.802	1248.016
165.935	27.251	1538.170	1247.412
166.950	27.355	1536.994	1247.060
167.964	27.314	1536.045	1245.900
168.979	27.308	1534.901	1244.824
169.994	27.254	1534.388	1243.931
171.008	27.231	1533.832	1243.207
172.023	27.320	1532.206	1242.392
173.037	27.321	1531.299	1241.548
174.052	27.413	1530.203	1241.181
175.067	27.248	1529.590	1239.449
176.081	27.206	1529.135	1238.681
177.096	27.265	1527.585	1237.717
178.110	27.250	1526.817	1236.887
179.125	27.270	1525.501	1235.845
180.140	27.350	1524.476	1235.453
181.154	27.374	1523.884	1235.026
182.169	27.327	1523.297	1234.117
183.183	27.341	1522.151	1233.176
184.198	27.277	1521.295	1231.943
185.213	27.357	1520.157	1231.452
186.227	27.331	1519.376	1230.537
187.242	27.366	1518.391	1229.862
188.256	27.392	1517.662	1229.339
189.271	27.367	1517.027	1228.548
190.286	27.416	1515.964	1227.908
191.300	27.460	1515.411	1227.647
192.315	27.354	1514.985	1226.479
193.329	27.353	1513.530	1225.186
194.344	27.287	1512.859	1224.090
195.359	27.393	1511.833	1223.864
196.373	27.357	1511.039	1222.875
197.388	27.379	1510.412	1222.407
198.402	27.323	1509.132	1220.886
199.417	27.370	1507.873	1220.077
200.432	27.335	1507.471	1219.410
201.446	27.413	1506.584	1219.102
202.461	27.362	1505.707	1217.946
203.475	27.320	1504.960	1216.953
204.490	27.486	1503.821	1217.032
205.504	27.324	1503.097	1215.255
206.519	27.325	1502.286	1214.502
207.534	27.380	1501.692	1214.282
208.548	27.446	1500.548	1213.689
209.563	27.484	1499.851	1213.269
210.577	27.475	1499.002	1212.416
211.592	27.520	1497.884	1211.705
212.607	27.461	1497.574	1210.950
213.621	27.386	1497.329	1210.152
214.636	27.534	1496.056	1209.994
215.650	27.492	1495.357	1209.047
216.665	27.461	1494.737	1208.233
217.680	27.396	1493.741	1206.885
218.694	27.361	1492.782	1205.774
219.709	27.501	1491.956	1205.924
220.723	27.563	1491.030	1205.482
221.738	27.533	1490.482	1204.736
222.753	27.474	1489.597	1203.521
223.767	27.468	1488.582	1202.555
224.782	27.402	1487.673	1201.283
225.796	27.518	1486.782	1201.222
226.811	27.551	1486.092	1200.775
227.826	27.588	1485.607	1200.518
228.840	27.528	1484.927	1199.468
229.855	27.641	1484.022	1199.372
230.869	27.479	1483.225	1197.561
231.884	27.471	1482.759	1197.021
232.899	27.613	1481.210	1196.598
233.913	27.503	1480.193	1194.947
234.928	27.526	1479.045	1194.069
235.942	27.573	1478.287	1193.660
236.957	27.723	1477.033	1193.520
237.972	27.652	1476.047	1192.155
238.986	27.625	1475.177	1191.171
240.001	27.638	1474.539	1190.633
241.015	27.639	1473.286	1189.522
242.030	27.767	1472.300	1189.460
243.045	27.793	1471.077	1188.534
244.059	27.728	1470.798	1187.778
245.074	27.766	1469.624	1186.973
246.088	27.712	1469.500	1186.417
247.103	27.734	1468.487	1185.635
248.117	27.813	1467.642	1185.365
249.132	27.879	1466.435	1184.710
250.147	27.792	1466.096	1183.770
251.161	27.780	1465.770	1183.321
252.176	27.906	1464.498	1183.009
253.190	27.770	1464.383	1181.930
254.205	27.841	1463.111	1181.259
255.220	27.973	1461.932	1181.055
256.234	27.933	1461.063	1179.990
257.249	27.778	1460.640	1178.545
258.263	27.923	1459.860	1178.744
259.278	27.900	1459.394	1178.113
260.293	27.941	1458.644	1177.671
261.307	27.885	1457.706	1176.452
262.322	27.863	1456.982	1175.620
263.336	27.925	1456.168	1175.259
264.351	27.902	1455.237	1174.250
265.366	27.914	1454.613	1173.723
266.380	27.938	1453.592	1172.949
267.395	27.897	1452.644	1171.820
268.409	27.959	1451.933	1171.540
269.424	27.906	1451.005	1170.349
270.439	27.933	1450.137	1169.715
271.453	27.979	1448.934	1168.937
272.468	27.934	1448.948	1168.556
273.482	27.895	1448.362	1167.731
274.497	27.849	1446.999	1166.236
275.512	27.910	1446.107	1165.804
276.526	27.926	1445.118	1165.004
277.541	27.949	1444.956	1164.915
278.555	28.010	1444.125	1164.534
279.570	28.120	1443.088	1164.291
280.585	28.052	1442.180	1163.023
281.599	28.029	1441.753	1162.428
282.614	28.116	1440.266	1161.683
283.628	28.125	1439.182	1160.759
284.643	28.012	1438.884	1159.701
285.657	28.045	1438.043	1159.128
286.672	28.025	1437.053	1158.100
287.687	27.954	1436.075	1156.760
288.701	28.072	1435.154	1156.666
289.716	28.114	1434.593	1156.378
290.730	28.190	1434.094	1156.349
291.745	28.165	1432.869	1155.101
292.760	28.109	1432.174	1154.086
293.774	28.188	1430.791	1153.372
294.789	28.115	1430.508	1152.578
295.803	28.126	1429.305	1151.576
296.818	28.242	1428.620	1151.652
297.833	28.171	1428.210	1150.777
298.847	28.074	1427.521	1149.511
299.862	28.231	1426.271	1149.388
300.876	28.171	1425.710	1148.453
301.891	28.220	1424.650	1147.806
302.906	28.232	1424.255	1147.463
303.920	28.279	1423.589	1147.117
304.935	28.317	1422.764	1146.589
305.949	28.337	1421.773	1145.814
306.964	28.286	1420.929	1144.714
307.979	28.239	1420.165	1143.701
308.993	28.262	1419.549	1143.252
310.008	28.335	1418.667	1142.893
311.022	28.326	1417.969	1142.174
312.037	28.301	1416.883	1141.046
313.052	28.416	1415.354	1140.425
314.066	28.325	1415.431	1139.824
315.081	28.298	1414.138	1138.513
316.095	28.297	1413.252	1137.692
317.110	28.343	1412.495	1137.269
318.125	28.353	1411.528	1136.450
319.139	28.372	1411.022	1136.058
320.154	28.386	1409.796	1135.061
321.168	28.428	1409.148	1134.698
322.183	28.459	1408.261	1134.074
323.197	28.423	1407.263	1132.944
324.212	28.410	1406.392	1132.068
325.227	28.528	1405.454	1131.937
326.241	28.469	1404.994	1131.105
327.256	28.448	1404.597	1130.556
328.270	28.485	1403.212	1129.569
329.285	28.463	1403.103	1129.246
330.300	28.467	1401.675	1128.021
331.314	28.576	1400.827	1127.905
332.329	28.603	1399.655	1127.030
333.343	28.536	1399.337	1126.260
334.358	28.650	1398.581	1126.251
335.373	28.544	1398.166	1125.173
336.387	28.659	1397.481	1125.222
337.402	28.641	1397.096	1124.706
338.416	28.633	1396.140	1123.786
339.431	28.706	1395.550	1123.660
340.446	28.724	1394.740	1123.020
341.460	28.664	1393.691	1121.707
342.475	28.641	1393.128	1121.015
343.489	28.664	1392.362	1120.441
344.504	28.700	1391.670	1120.003
345.519	28.730	1390.196	1118.902
346.533	28.640	1389.821	1117.951
347.548	28.779	1388.677	1117.779
348.562	28.685	1387.968	1116.536
349.577	28.734	1387.192	1116.111
350.592	28.738	1386.624	1115.579
351.606	28.763	1385.755	1114.931
352.621	28.647	1384.428	1113.065
353.635	28.744	1383.941	1113.164
354.650	28.717	1382.876	1112.044
355.665	28.876	1381.971	1112.180
356.679	28.787	1381.187	1110.911
357.694	28.873	1380.132	1110.487
358.708	28.928	1378.654	1109.528
359.723	28.877	1377.967	1108.569
360.738	28.921	1376.733	1107.743
361.752	28.841	1375.653	1106.296
362.767	28.880	1374.905	1105.833
363.781	28.760	1373.983	1104.271
364.796	28.835	1373.512	1104.245
365.810	28.919	1372.858	1104.123
366.825	28.883	1372.157	1103.246
367.840	28.956	1371.091	1102.728
368.854	28.976	1370.405	1102.199
369.869	28.995	1369.899	1101.808
370.883	28.939	1369.550	1101.096
371.898	28.959	1368.723	1100.455
372.913	29.101	1367.952	1100.586
373.927	28.979	1367.218	1099.167
374.942	29.071	1366.045	1098.677
375.956	29.041	1365.373	1097.858
376.971	29.157	1364.687	1097.905
377.986	28.992	1364.400	1096.593
379.000	28.980	1363.533	1095.726
380.015	29.064	1362.950	1095.664
381.029	29.171	1362.014	1095.447
382.044	29.146	1361.157	1094.513
383.059	29.084	1360.816	1093.774
384.073	29.030	1360.366	1092.998
385.088	29.177	1359.360	1092.961
386.102	29.038	1359.259	1091.961
387.117	29.205	1358.251	1092.042
388.132	29.152	1357.374	1090.926
389.146	29.025	1357.205	1089.941
390.161	29.075	1356.306	1089.418
391.175	29.202	1355.433	1089.375
392.190	29.248	1354.875	1089.103
393.205	29.252	1353.776	1088.148
394.219	29.301	1353.120	1087.812
395.234	29.220	1351.841	1086.211
396.248	29.194	1351.306	1085.532
397.263	29.261	1350.182	1084.924
398.278	29.292	1348.833	1083.925
399.292	29.334	1348.352	1083.689
400.307	29.280	1347.468	1082.571
401.321	29.391	1346.166	1082.077
402.336	29.344	1345.289	1081.000
403.350	29.319	1344.605	1080.210
404.365	29.352	1343.385	1079.330
405.380	29.364	1342.738	1078.783
406.394	29.351	1342.241	1078.212
407.409	29.352	1341.473	1077.502
408.423	29.376	1340.731	1076.955
409.438	29.442	1339.998	1076.656
410.453	29.399	1339.704	1076.070
411.467	29.472	1338.490	1075.427
412.482	29.462	1338.221	1075.057
413.496	29.477	1337.728	1074.656
414.511	29.454	1336.630	1073.545
415.526	29.441	1335.922	1072.802
416.540	29.582	1334.634	1072.496
417.555	29.539	1334.631	1072.144
418.569	29.529	1334.150	1071.607
419.584	29.516	1333.503	1070.920
420.599	29.499	1332.861	1070.207
421.613	95.034	1350.268	1451.474
422.628	94.573	1352.780	1451.588
