DTS Sentinel unit serial number:	SN413079Multiplexer serial number:	ORYXHardware model number:	OX4-SRSoftware version number:	ORYX F/W v4.00 Oryx Data Collector v3.7.2.0data status	okinstallation	princeton_trtdifferential loss correction	single-endedforward channel	channel 4reverse channel	N/Adate	2019/09/10time	20:55:10forward acquisition time	60.00reverse acquisition time	0.00gamma	496.2192k internal	0.2313k external	0.2313temperature offset calibration	0.9945default loss term (dB/km)	0.3790temperature slope calibration	1.0000multiplexer offset coefficient	1.0000multiplexer slope coefficient	1.0000fibre end	0.00T internal ref (°C)	31.69T ext. ref 1 (°C)	-0.31T ext. ref 2 (°C)	25.09length (m)	temperature (°C)	Stokes	anti-Stokes-747.200	-200.000	0.033	-0.173
-746.185	-200.000	-0.001	0.073
-745.171	-127.558	-0.515	-0.076
-744.156	-200.000	-0.068	0.398
-743.142	-200.000	0.010	-0.100
-742.127	109.699	-0.208	0.253
-741.112	-200.000	0.029	0.262
-740.098	-86.049	-0.389	0.122
-739.083	-83.677	-0.167	-0.054
-738.069	47.722	-0.379	0.358
-737.054	-48.350	-0.270	0.132
-736.039	555.866	-0.047	-0.115
-735.025	671.504	0.019	-0.049
-734.010	-193.812	-0.181	0.002
-732.996	81.692	-0.099	-0.109
-731.981	-74.385	-0.197	0.072
-730.966	354.835	-0.082	-0.165
-729.952	156.787	-0.115	-0.161
-728.937	-25.303	-0.222	-0.133
-727.923	479.228	0.074	0.169
-726.908	-116.152	-0.071	-0.013
-725.894	349.693	0.104	-0.209
-724.879	57.936	-0.134	-0.133
-723.864	-200.000	0.009	-0.282
-722.850	-92.767	0.313	-0.089
-721.835	738.898	-0.093	0.253
-720.821	-200.000	-0.196	0.001
-719.806	-109.521	-0.205	0.044
-718.791	-200.000	-0.014	0.149
-717.777	-36.773	-0.103	0.056
-716.762	-96.727	0.157	0.042
-715.748	-182.600	-0.428	0.008
-714.733	800.000	-0.106	-0.397
-713.718	153.194	0.265	-0.367
-712.704	88.229	0.044	-0.050
-711.689	14.184	-0.109	0.086
-710.675	-93.879	0.313	-0.087
-709.660	28.450	0.146	-0.125
-708.645	-112.154	-0.017	-0.003
-707.631	-93.237	0.256	-0.072
-706.616	-200.000	0.013	0.234
-705.602	-99.856	-0.254	0.064
-704.587	-60.138	0.148	0.064
-703.572	205.931	-0.154	0.242
-702.558	-200.000	0.002	-0.034
-701.543	-123.737	0.383	0.061
-700.529	229.557	-0.164	0.270
-699.514	-103.292	0.061	-0.015
-698.499	-156.185	-0.195	-0.012
-697.485	170.786	-0.008	-0.011
-696.470	-200.000	0.000	-0.122
-695.456	800.000	0.032	0.091
-694.441	-19.922	0.303	-0.189
-693.426	-20.615	-0.126	0.078
-692.412	415.512	0.064	-0.139
-691.397	-200.000	0.020	-0.116
-690.383	227.656	0.068	-0.111
-689.368	222.637	-0.042	-0.069
-688.354	-77.466	0.153	-0.054
-687.339	114.475	0.175	-0.215
-686.324	-82.059	-0.237	-0.078
-685.310	-200.000	-0.021	-0.106
-684.295	-146.442	-0.122	0.011
-683.281	-80.141	0.268	0.091
-682.266	40.599	-0.125	0.114
-681.251	82.468	0.193	-0.212
-680.237	318.651	0.060	-0.114
-679.222	238.151	0.130	-0.218
-678.208	-200.000	-0.040	-0.404
-677.193	110.152	0.229	-0.279
-676.178	355.334	0.053	0.106
-675.164	-109.965	0.292	-0.062
-674.149	-83.017	-0.121	-0.039
-673.135	436.629	0.074	0.163
-672.120	49.401	0.330	0.314
-671.105	-99.635	0.181	-0.046
-670.091	-36.088	0.106	-0.058
-669.076	800.000	0.038	-0.119
-668.062	-171.984	0.240	-0.008
-667.047	-104.534	-0.083	0.019
-666.032	-135.664	-0.487	-0.058
-665.018	-12.958	0.147	0.096
-664.003	135.593	-0.183	0.241
-662.989	-89.052	-0.033	0.010
-661.974	-200.000	-0.047	-0.248
-660.959	-200.000	-0.031	-0.142
-659.945	-200.000	0.003	-0.046
-658.930	165.724	-0.115	-0.165
-657.916	26.485	0.078	-0.066
-656.901	-18.636	0.267	-0.168
-655.886	-73.893	0.167	0.061
-654.872	-200.000	-0.024	-0.185
-653.857	495.265	0.053	0.122
-652.843	-35.542	-0.138	0.076
-651.828	10.445	0.154	-0.119
-650.814	220.566	0.108	0.175
-649.799	32.508	-0.107	-0.093
-648.784	-45.388	-0.176	-0.088
-647.770	-200.000	-0.037	-0.266
-646.755	-27.435	0.183	0.108
-645.741	-99.344	-0.471	-0.120
-644.726	546.476	0.149	-0.359
-643.711	-200.000	-0.013	0.075
-642.697	-36.708	0.139	0.076
-641.682	40.246	0.274	0.249
-640.668	165.241	0.052	-0.075
-639.653	-16.127	0.053	-0.034
-638.638	800.000	0.034	0.128
-637.624	496.845	-0.134	-0.312
-636.609	583.337	0.060	-0.149
-635.595	202.102	0.123	0.191
-634.580	-48.184	-0.365	0.178
-633.565	-200.000	0.041	-0.293
-632.551	-200.000	0.026	-0.260
-631.536	383.507	-0.003	-0.006
-630.522	507.964	-0.074	-0.172
-629.507	-66.553	-0.114	0.046
-628.492	-200.000	-0.004	0.246
-627.478	522.783	-0.038	-0.090
-626.463	148.274	-0.187	-0.255
-625.449	109.811	-0.294	-0.356
-624.434	195.787	-0.106	0.163
-623.419	800.000	0.053	0.174
-622.405	-200.000	-0.003	0.168
-621.390	-200.000	-0.016	-0.243
-620.376	-54.881	-0.090	-0.041
-619.361	87.675	0.095	0.106
-618.346	150.011	-0.088	0.121
-617.332	-1.580	-0.221	-0.157
-616.317	19.745	0.094	0.077
-615.303	108.309	0.071	-0.085
-614.288	159.058	-0.113	0.159
-613.273	152.738	0.119	0.164
-612.259	800.000	-0.050	-0.211
-611.244	-176.482	0.040	0.001
-610.230	-200.000	0.035	-0.160
-609.215	-55.165	-0.246	-0.111
-608.201	-138.899	-0.195	0.021
-607.186	717.099	0.121	-0.325
-606.171	11.137	-0.211	-0.163
-605.157	-84.726	-0.240	-0.076
-604.142	-200.000	0.014	-0.178
-603.128	140.474	-0.106	-0.142
-602.113	293.292	0.116	-0.213
-601.098	57.521	-0.185	-0.182
-600.084	129.423	-0.093	0.119
-599.069	-200.000	0.054	0.275
-598.055	24.175	0.207	0.172
-597.040	-87.829	0.251	0.076
-596.025	-107.512	-0.107	-0.024
-595.011	136.204	-0.274	-0.360
-593.996	-200.000	0.013	-0.128
-592.982	134.375	0.090	0.117
-591.967	54.878	0.306	0.297
-590.952	215.160	0.144	-0.231
-589.938	-200.000	-0.041	0.206
-588.923	4.206	-0.130	-0.096
-587.909	15.906	0.180	0.143
-586.894	-23.463	-0.095	0.057
-585.879	10.529	-0.066	0.051
-584.865	-96.712	0.499	0.132
-583.850	142.993	0.088	-0.119
-582.836	314.986	0.151	-0.287
-581.821	32.626	0.113	0.099
-580.806	800.000	0.045	-0.184
-579.792	800.000	-0.065	-0.210
-578.777	-100.909	-0.219	-0.054
-577.763	358.557	0.086	-0.173
-576.748	-113.500	-0.059	0.012
-575.733	-42.577	-0.241	-0.123
-574.719	144.829	-0.078	-0.105
-573.704	65.992	0.101	-0.103
-572.690	111.680	-0.059	0.072
-571.675	-200.000	0.022	-0.105
-570.661	86.853	-0.104	0.116
-569.646	3.602	-0.252	-0.185
-568.631	-103.689	-0.134	0.032
-567.617	-200.000	-0.014	0.169
-566.602	417.043	-0.089	-0.192
-565.588	-0.727	-0.204	0.146
-564.573	149.805	0.187	0.256
-563.558	342.228	-0.116	0.229
-562.544	-135.139	-0.193	0.023
-561.529	800.000	-0.010	-0.033
-560.515	-35.702	0.135	-0.074
-559.500	-117.478	-0.088	0.016
-558.485	188.052	-0.122	0.184
-557.471	-143.698	-0.338	0.032
-556.456	39.107	0.172	0.155
-555.442	-89.306	0.448	-0.133
-554.427	-37.627	0.120	0.064
-553.412	-44.325	-0.177	0.089
-552.398	407.954	-0.168	-0.357
-551.383	26.104	0.274	-0.230
-550.369	46.465	0.275	-0.256
-549.354	179.784	-0.126	-0.185
-548.339	-108.962	-0.284	-0.061
-547.325	-200.000	0.009	0.090
-546.310	-55.779	0.060	0.027
-545.296	-200.000	0.020	0.287
-544.281	-200.000	0.017	-0.138
-543.266	-165.047	0.201	-0.009
-542.252	-200.000	-0.038	0.276
-541.237	649.985	0.119	0.305
-540.223	193.569	-0.130	-0.197
-539.208	-28.472	-0.254	0.147
-538.193	-125.948	-0.176	0.027
-537.179	-32.425	0.199	0.112
-536.164	329.868	0.061	-0.118
-535.150	-125.311	0.156	0.024
-534.135	-60.032	0.205	0.088
-533.121	-70.192	0.177	0.068
-532.106	800.000	-0.040	0.169
-531.091	800.000	0.060	-0.194
-530.077	-29.380	-0.153	0.088
-529.062	-200.000	-0.049	0.324
-528.048	-108.810	0.112	-0.024
-527.033	104.554	0.244	-0.288
-526.018	-152.067	0.116	-0.008
-525.004	170.454	-0.178	-0.256
-523.989	42.709	-0.333	-0.305
-522.975	-101.442	-0.254	-0.062
-521.960	-9.823	-0.391	-0.262
-520.945	-200.000	0.010	-0.162
-519.931	-104.181	0.036	0.008
-518.916	-167.817	-0.095	0.004
-517.902	-22.941	-0.246	-0.149
-516.887	-121.604	-0.338	0.056
-515.872	0.380	-0.081	0.058
-514.858	29.940	-0.084	0.072
-513.843	236.597	0.239	0.397
-512.829	-139.922	0.222	0.024
-511.814	2.493	-0.176	-0.128
-510.799	-130.585	0.351	-0.048
-509.785	215.782	0.099	0.157
-508.770	-8.285	-0.266	-0.180
-507.756	-30.315	0.263	-0.150
-506.741	-3.845	0.133	0.093
-505.726	-24.662	-0.202	0.121
-504.712	-200.000	-0.038	0.230
-503.697	406.244	-0.132	0.280
-502.683	0.579	0.026	-0.019
-501.668	745.330	-0.158	-0.427
-500.653	45.145	0.086	-0.080
-499.639	406.491	-0.182	-0.386
-498.624	166.548	0.159	0.226
-497.610	-72.095	0.090	0.033
-496.595	190.634	-0.106	-0.160
-495.581	313.937	0.158	-0.299
-494.566	-162.349	-0.278	-0.014
-493.551	-128.695	-0.131	0.019
-492.537	70.948	-0.051	0.053
-491.522	-58.301	-0.082	-0.036
-490.508	-200.000	0.009	0.104
-489.493	-125.606	0.198	-0.030
-488.478	-98.814	0.123	0.031
-487.464	-200.000	-0.018	0.092
-486.449	159.465	-0.145	0.203
-485.435	-112.101	0.083	-0.017
-484.420	-57.229	-0.203	0.090
-483.405	120.760	0.295	0.368
-482.391	-100.468	0.047	0.012
-481.376	-92.017	0.512	0.146
-480.362	-200.000	0.008	0.042
-479.347	-200.000	-0.014	0.131
-478.332	-200.000	0.034	0.157
-477.318	800.000	-0.098	-0.289
-476.303	383.673	-0.008	0.017
-475.289	-200.000	0.008	0.090
-474.274	-88.506	0.341	-0.102
-473.259	-200.000	0.010	-0.099
-472.245	-116.520	0.366	0.068
-471.230	-200.000	-0.005	0.168
-470.216	93.539	0.187	0.213
-469.201	800.000	0.097	-0.311
-468.186	-122.097	-0.154	-0.025
-467.172	-76.098	0.066	0.023
-466.157	13.186	0.092	0.071
-465.143	-140.844	0.186	0.019
-464.128	-15.298	-0.244	-0.157
-463.113	800.000	0.146	0.492
-462.099	6.671	0.184	0.137
-461.084	-8.812	0.444	-0.299
-460.070	551.506	-0.046	0.111
-459.055	-112.466	-0.088	-0.018
-458.040	-51.345	-0.198	-0.093
-457.026	-44.165	0.053	-0.027
-456.011	541.903	-0.025	-0.060
-454.997	-99.931	0.246	0.062
-453.982	213.782	-0.166	0.264
-452.968	800.000	-0.071	0.242
-451.953	-200.000	-0.007	-0.176
-450.938	103.995	0.218	-0.258
-449.924	800.000	-0.039	0.121
-448.909	-157.274	0.279	-0.017
-447.895	3.872	-0.377	-0.276
-446.880	-110.207	0.418	0.087
-445.865	227.395	0.067	0.109
-444.851	245.931	0.124	0.209
-443.836	-4.104	-0.180	0.125
-442.822	-73.953	0.192	0.070
-441.807	160.281	0.119	0.166
-440.792	-125.800	0.255	-0.039
-439.778	222.130	-0.145	0.233
-438.763	224.809	0.082	0.134
-437.749	-60.665	-0.360	0.153
-436.734	-7.229	-0.247	-0.168
-435.719	-200.000	0.274	0.000
-434.705	-21.340	0.055	-0.033
-433.690	-39.483	0.113	0.059
-432.676	47.446	-0.139	-0.130
-431.661	-159.687	0.326	-0.018
-430.646	-200.000	0.028	-0.223
-429.632	89.064	-0.048	0.053
-428.617	54.653	-0.141	0.136
-427.603	-200.000	0.037	-0.234
-426.588	-105.233	-0.221	-0.051
-425.573	275.403	0.081	0.144
-424.559	-130.090	0.202	0.028
-423.544	800.000	0.052	-0.200
-422.530	-131.931	0.408	-0.053
-421.515	579.788	0.059	-0.145
-420.500	-48.656	0.193	0.093
-419.486	3.707	-0.138	-0.101
-418.471	800.000	0.015	-0.061
-417.457	12.908	-0.223	0.172
-416.442	391.608	-0.064	0.133
-415.428	597.290	0.074	0.184
-414.413	800.000	0.083	0.298
-413.398	91.674	-0.137	0.154
-412.384	532.419	0.056	-0.133
-411.369	-47.988	0.125	0.061
-410.355	102.573	0.135	0.159
-409.340	359.579	-0.181	0.362
-408.325	-200.000	0.017	0.181
-407.311	712.347	0.165	-0.437
-406.296	-87.311	-0.177	-0.054
-405.282	-199.535	-0.269	0.001
-404.267	-40.505	-0.298	-0.155
-403.252	-200.000	0.006	0.341
-402.238	-63.779	0.287	-0.118
-401.223	-200.000	-0.017	-0.189
-400.209	-0.558	0.244	-0.173
-399.194	-55.132	-0.208	0.094
-398.179	-200.000	0.048	0.220
-397.165	-76.930	0.107	-0.037
-396.150	-200.000	0.043	-0.280
-395.136	-200.000	-0.030	-0.332
-394.121	-83.764	-0.137	0.044
-393.106	800.000	0.077	-0.213
-392.092	-200.000	0.071	-0.325
-391.077	787.561	-0.082	-0.226
-390.063	35.273	-0.226	0.198
-389.048	-162.730	0.213	0.010
-388.033	779.962	-0.024	-0.067
-387.019	248.467	-0.305	0.516
-386.004	-3.035	0.141	-0.099
-384.990	270.802	-0.168	0.295
-383.975	-69.304	-0.333	0.128
-382.960	25.328	0.112	0.093
-381.946	362.927	-0.064	-0.129
-380.931	-127.832	-0.217	0.031
-379.917	126.228	-0.124	-0.156
-378.902	89.450	0.175	-0.196
-377.888	-118.479	0.349	-0.062
-376.873	-47.690	-0.459	-0.223
-375.858	778.040	0.117	-0.319
-374.844	393.547	-0.089	-0.186
-373.829	-167.307	-0.228	-0.009
-372.815	-96.113	0.114	-0.030
-371.800	139.575	0.138	0.182
-370.785	-176.709	0.101	0.003
-369.771	13.356	-0.443	-0.343
-368.756	129.018	-0.073	0.093
-367.742	800.000	0.064	-0.208
-366.727	4.042	-0.415	-0.303
-365.712	-97.983	-0.269	0.069
-364.698	-158.353	-0.215	0.013
-363.683	-200.000	-0.023	-0.333
-362.669	-106.601	0.345	-0.077
-361.654	15.147	-0.274	0.215
-360.639	-45.372	0.317	0.157
-359.625	4.324	0.073	0.054
-358.610	37.514	0.150	-0.133
-357.596	800.000	0.017	0.055
-356.581	58.963	0.051	-0.050
-355.566	-90.114	0.212	0.062
-354.552	-14.156	0.111	-0.072
-353.537	-96.750	-0.073	-0.019
-352.523	14.036	-0.311	-0.242
-351.508	-104.012	-0.293	-0.068
-350.493	177.810	-0.210	0.306
-349.479	-27.402	-0.218	0.126
-348.464	-114.050	-0.422	-0.082
-347.450	-200.000	0.077	-0.431
-346.435	800.000	0.081	-0.333
-345.420	92.764	0.091	-0.103
-344.406	66.084	-0.280	0.284
-343.391	-33.571	0.305	0.168
-342.377	-40.936	0.157	-0.081
-341.362	121.806	-0.159	-0.198
-340.348	114.478	-0.209	-0.255
-339.333	-200.000	-0.036	0.308
-338.318	800.000	0.059	0.236
-337.304	65.534	-0.152	-0.153
-336.289	-200.000	-0.009	-0.141
-335.275	-112.287	-0.314	0.063
-334.260	-34.707	-0.133	0.073
-333.245	-101.780	-0.245	-0.059
-332.231	-200.000	-0.088	-0.470
-331.216	-164.040	-0.093	-0.004
-330.202	219.140	-0.228	0.364
-329.187	-200.000	-0.035	-0.200
-328.172	-156.779	-0.329	0.020
-327.158	-108.801	-0.087	0.019
-326.143	188.980	-0.075	-0.112
-325.129	238.395	0.266	0.440
-324.114	-200.000	0.000	0.054
-323.099	12.117	-0.274	-0.210
-322.085	130.413	0.158	-0.202
-321.070	49.594	-0.067	0.063
-320.056	254.365	0.145	-0.247
-319.041	-23.751	-0.113	0.067
-318.026	89.223	0.125	-0.139
-317.012	-128.503	-0.069	0.010
-315.997	99.035	0.167	-0.192
-314.983	-43.556	-0.242	-0.122
-313.968	-53.350	-0.087	0.040
-312.953	-32.582	-0.207	0.115
-311.939	-200.000	-0.055	0.298
-310.924	-140.477	-0.300	0.031
-309.910	41.951	-0.144	-0.131
-308.895	44.511	-0.098	0.090
-307.880	-70.110	0.121	-0.046
-306.866	676.602	-0.096	-0.249
-305.851	209.409	-0.130	-0.203
-304.837	31.652	-0.140	-0.120
-303.822	-200.000	0.037	-0.165
-302.807	-79.554	0.127	-0.043
-301.793	-200.000	-0.003	-0.124
-300.778	-90.574	-0.140	0.040
-299.764	27.941	-0.107	-0.090
-298.749	-104.720	-0.289	-0.066
-297.735	-19.236	-0.206	-0.127
-296.720	26.646	0.111	-0.092
-295.705	251.132	-0.128	-0.217
-294.691	-46.187	0.177	-0.087
-293.676	-90.792	-0.174	0.050
-292.662	-200.000	0.005	0.204
-291.647	95.238	-0.148	-0.168
-290.632	-84.241	-0.113	0.036
-289.618	8.600	0.113	-0.085
-288.603	-22.290	0.189	-0.114
-287.589	-87.185	0.483	0.146
-286.574	-17.621	0.271	0.170
-285.559	800.000	0.048	0.159
-284.545	302.528	0.234	0.432
-283.530	283.869	-0.073	0.131
-282.516	28.469	-0.199	0.167
-281.501	778.068	0.019	-0.051
-280.486	-200.000	-0.020	0.112
-279.472	489.413	0.042	0.097
-278.457	2.403	0.177	0.127
-277.443	91.523	0.195	-0.219
-276.428	-106.933	0.381	-0.084
-275.413	272.660	0.096	-0.168
-274.399	800.000	0.048	-0.184
-273.384	-200.000	-0.001	-0.362
-272.370	-200.000	0.003	0.168
-271.355	395.437	0.068	-0.142
-270.340	800.000	-0.058	0.239
-269.326	-200.000	0.000	-0.235
-268.311	-161.175	0.154	0.008
-267.297	-2.723	-0.245	-0.171
-266.282	-200.000	0.012	-0.166
-265.267	569.965	0.155	0.376
-264.253	445.507	-0.072	0.157
-263.238	-96.827	0.347	0.091
-262.224	800.000	-0.101	0.333
-261.209	-158.466	0.112	-0.006
-260.195	232.200	-0.105	0.171
-259.180	-96.625	-0.215	-0.056
-258.165	-7.984	-0.174	-0.117
-257.151	-92.391	0.034	-0.010
-256.136	-137.508	-0.264	0.030
-255.122	-117.400	0.131	0.024
-254.107	-45.960	0.222	-0.109
-253.092	800.000	-0.083	0.312
-252.078	146.206	-0.034	-0.045
-251.063	326.327	0.106	0.202
-250.049	-200.000	-0.035	0.327
-249.034	-4.733	0.311	0.213
-248.019	374.319	-0.021	-0.042
-247.005	142.150	-0.087	0.115
-245.990	-200.000	0.020	-0.123
-244.976	800.000	0.145	0.440
-243.961	-200.000	0.646	-0.002
-242.946	251.116	-0.058	-0.098
-241.932	0.187	-0.078	0.055
-240.917	224.725	-0.034	-0.055
-239.903	-200.000	-0.038	0.321
-238.888	-47.815	-0.169	0.081
-237.873	800.000	0.110	0.421
-236.859	88.117	0.075	0.082
-235.844	-46.381	-0.277	-0.135
-234.830	527.214	0.091	-0.213
-233.815	-187.222	0.275	-0.004
-232.800	299.556	-0.183	0.336
-231.786	-45.499	-0.073	0.036
-230.771	573.611	0.080	0.194
-229.757	408.743	0.065	0.137
-228.742	-72.192	0.256	0.094
-227.727	2.542	0.114	-0.082
-226.713	-65.124	-0.075	0.030
-225.698	-127.698	0.235	0.034
-224.684	5.568	-0.081	-0.060
-223.669	-200.000	0.029	0.185
-222.655	-144.131	0.528	-0.049
-221.640	158.203	-0.142	0.196
-220.625	-49.953	0.131	0.062
-219.611	-200.000	-0.008	-0.089
-218.596	-200.000	0.013	-0.096
-217.582	-57.695	-0.113	0.049
-216.567	311.973	-0.020	-0.037
-215.552	-130.790	0.081	-0.011
-214.538	-7.734	0.315	-0.211
-213.523	15.774	0.206	0.161
-212.509	-27.879	0.202	0.116
-211.494	-200.000	-0.043	0.275
-210.479	-53.826	-0.137	0.062
-209.465	-78.782	0.137	0.046
-208.450	64.633	0.382	-0.383
-207.436	-39.930	-0.379	0.196
-206.421	800.000	0.091	0.357
-205.406	-50.235	0.299	0.140
-204.392	-56.043	0.326	-0.144
-203.377	-96.057	-0.050	-0.013
-202.363	458.919	0.048	-0.106
-201.348	-79.686	0.151	0.051
-200.333	800.000	0.075	0.272
-199.319	-78.021	0.125	0.043
-198.304	-183.058	-0.096	0.002
-197.290	-200.000	-0.025	-0.122
-196.275	-200.000	-0.021	-0.183
-195.260	467.380	-0.075	0.166
-194.246	135.222	0.181	-0.234
-193.231	-132.104	0.293	0.038
-192.217	-73.451	0.054	0.019
-191.202	167.521	0.099	-0.140
-190.187	298.630	0.122	0.222
-189.173	290.340	-0.059	-0.106
-188.158	800.000	-0.063	0.186
-187.144	-106.869	-0.114	0.025
-186.129	-200.000	-0.040	0.223
-185.114	226.283	0.159	0.256
-184.100	-200.000	-0.008	0.257
-183.085	-200.000	0.013	0.322
-182.071	-200.000	0.050	-0.279
-181.056	-24.737	-0.194	0.114
-180.042	-111.275	0.222	-0.045
-179.027	-62.790	-0.117	-0.048
-178.012	-118.186	0.144	0.025
-176.998	102.434	-0.257	-0.298
-175.983	119.399	-0.058	-0.071
-174.969	24.532	-0.079	0.065
-173.954	-111.431	-0.038	0.008
-172.939	306.047	-0.060	0.110
-171.925	18.113	-0.172	0.136
-170.910	-95.029	0.171	0.046
-169.896	-46.755	-0.225	-0.109
-168.881	-200.000	0.010	0.391
-167.866	156.660	0.181	0.248
-166.852	507.759	-0.065	0.149
-165.837	106.687	0.155	-0.182
-164.823	-101.013	-0.101	0.024
-163.808	-110.665	0.212	-0.044
-162.793	30.277	-0.165	0.140
-161.779	-35.614	-0.266	-0.143
-160.764	629.046	-0.207	-0.518
-159.750	26.832	0.032	-0.027
-158.735	-200.000	0.010	0.074
-157.720	-24.857	-0.160	-0.094
-156.706	-51.034	0.233	-0.108
-155.691	164.621	0.394	0.550
-154.677	-89.884	0.320	0.093
-153.662	-12.487	-0.210	-0.136
-152.647	332.622	0.132	0.253
-151.633	800.000	-0.028	-0.080
-150.618	116.229	0.101	-0.122
-149.604	122.659	0.215	-0.266
-148.589	-16.959	-0.121	0.075
-147.574	351.128	-0.160	0.314
-146.560	-7.639	-0.058	-0.039
-145.545	-64.575	0.138	0.055
-144.531	-60.936	0.330	-0.138
-143.516	-200.000	0.052	0.400
-142.502	-39.700	0.173	0.089
-141.487	-103.655	0.411	-0.096
-140.472	800.000	0.089	-0.349
-139.458	17.437	0.188	-0.148
-138.443	-200.000	0.025	-0.158
-137.429	-155.135	0.090	0.006
-136.414	-124.011	0.173	-0.027
-135.399	-29.276	-0.366	-0.207
-134.385	78.425	-0.079	-0.083
-133.370	250.000	0.124	-0.208
-132.356	-65.331	0.257	-0.103
-131.341	241.587	0.105	0.174
-130.326	-83.166	-0.146	-0.047
-129.312	134.091	0.116	-0.149
-128.297	-60.960	-0.063	0.026
-127.283	20.072	0.176	0.141
-126.268	0.668	0.349	0.247
-125.253	1.357	0.230	-0.163
-124.239	-28.831	-0.083	0.047
-123.224	272.498	0.137	0.239
-122.210	38.183	0.157	0.138
-121.195	-109.151	-0.152	0.032
-120.180	800.000	0.070	0.219
-119.166	31.152	-0.228	0.194
-118.151	532.535	-0.083	0.195
-117.137	-97.286	-0.148	0.038
-116.122	800.000	0.078	-0.236
-115.107	-117.980	0.042	-0.007
-114.093	-200.000	0.018	0.187
-113.078	-97.920	0.289	0.074
-112.064	265.698	0.142	-0.245
-111.049	800.000	-0.024	-0.069
-110.034	-36.561	-0.087	0.046
-109.020	-42.466	0.279	-0.141
-108.005	-188.843	0.184	0.002
-106.991	-152.480	0.130	0.009
-105.976	417.209	-0.082	0.174
-104.962	300.955	0.110	0.200
-103.947	-64.045	0.191	0.077
-102.932	19.575	0.096	-0.077
-101.918	800.000	-0.119	-0.345
-100.903	-148.792	0.134	-0.011
-99.889	171.426	0.034	0.049
-98.874	495.992	0.063	-0.142
-97.859	-200.000	-0.052	-0.287
-96.845	800.000	0.036	0.102
-95.830	800.000	0.041	0.127
-94.816	800.000	-0.021	0.077
-93.801	-200.000	-0.313	0.000
-92.786	-83.545	0.143	0.045
-91.772	366.989	0.048	-0.096
-90.757	-20.896	-0.120	-0.073
-89.743	-84.093	0.248	-0.078
-88.728	-98.255	0.129	0.033
-87.713	26.513	-0.082	0.068
-86.699	188.456	0.118	-0.174
-85.684	800.000	-0.042	-0.176
-84.670	-113.245	-0.158	-0.031
-83.655	21.967	-0.091	-0.073
-82.640	-200.000	0.033	-0.211
-81.626	-69.026	-0.278	-0.106
-80.611	800.000	0.078	0.260
-79.597	-97.085	-0.203	0.052
-78.582	-58.832	0.190	-0.081
-77.567	489.897	0.106	-0.239
-76.553	800.000	0.064	-0.228
-75.538	-93.839	-0.114	0.031
-74.524	-200.000	-0.003	-0.102
-73.509	-175.112	0.146	0.004
-72.494	57.024	0.209	0.202
-71.480	-125.526	0.382	-0.057
-70.465	-21.530	-0.362	0.218
-69.451	-109.579	0.360	-0.075
-68.436	-1.514	0.234	0.163
-67.422	-200.000	0.026	-0.184
-66.407	-98.003	-0.366	0.093
-65.392	-168.317	0.269	-0.010
-64.378	-200.000	0.043	-0.290
-63.363	134.630	0.218	0.279
-62.349	63.663	0.056	0.056
-61.334	67.486	-1.091	-1.100
-60.319	18.353	0.631	0.497
-59.305	800.000	-0.267	-1.049
-58.290	551.731	0.516	1.222
-57.276	347.183	0.740	1.439
-56.261	-200.000	97.242	607.953
-55.246	604.739	1396.301	3432.141
-54.232	189.721	2595.428	3843.039
-53.217	107.789	2307.114	2712.568
-52.203	38.348	2063.753	1814.838
-51.188	33.515	1978.326	1696.515
-50.173	31.989	1959.432	1666.700
-49.159	46.727	2010.264	1842.908
-48.144	48.021	2028.218	1870.950
-47.130	34.074	1989.131	1710.541
-46.115	31.703	1979.308	1680.776
-45.100	31.619	1976.899	1677.911
-44.086	31.607	1974.029	1675.300
-43.071	31.515	1971.629	1672.372
-42.057	31.472	1969.284	1669.934
-41.042	31.539	1967.241	1668.734
-40.027	31.591	1965.356	1667.536
-39.013	31.497	1963.407	1664.975
-37.998	31.653	1961.184	1664.409
-36.984	31.562	1959.782	1662.352
-35.969	31.601	1958.126	1661.224
-34.954	31.607	1956.580	1659.896
-33.940	31.717	1954.670	1659.184
-32.925	31.770	1953.360	1658.479
-31.911	31.668	1951.388	1655.838
-30.896	31.747	1949.170	1654.589
-29.881	31.702	1948.163	1653.265
-28.867	31.809	1946.627	1652.843
-27.852	31.781	1944.523	1650.748
-26.838	31.749	1942.796	1648.934
-25.823	31.724	1940.974	1647.102
-24.809	31.692	1939.974	1645.907
-23.794	31.686	1938.055	1644.162
-22.779	31.718	1935.823	1642.484
-21.765	31.671	1934.422	1640.819
-20.750	31.699	1933.006	1639.790
-19.736	31.756	1931.143	1638.645
-18.721	31.734	1929.640	1637.111
-17.706	31.676	1928.308	1635.415
-16.692	31.678	1926.670	1633.973
-15.677	31.686	1924.973	1632.541
-14.663	31.782	1923.083	1631.709
-13.648	31.698	1922.818	1630.686
-12.633	31.711	1921.331	1629.474
-11.619	31.687	1919.737	1627.855
-10.604	31.759	1917.897	1626.854
-9.590	31.666	1917.134	1625.332
-8.575	31.617	1915.608	1623.551
-7.560	31.698	1914.396	1623.158
-6.546	31.721	1913.247	1622.317
-5.531	31.687	1912.153	1621.034
-4.517	31.742	1910.124	1619.724
-3.502	31.651	1909.622	1618.447
-2.487	31.606	1908.408	1616.967
-1.473	31.641	1907.848	1616.729
-0.458	31.645	1902.512	1612.180
0.556	29.025	1882.666	1584.025
1.571	24.747	1863.123	1530.908
2.586	20.792	1884.881	1514.331
3.600	19.797	1920.827	1534.253
4.615	19.535	1917.004	1528.741
5.629	14.779	1817.316	1409.099
6.644	5.361	1698.004	1241.940
7.659	0.245	1659.552	1173.912
8.673	-0.237	1656.489	1167.887
9.688	-0.291	1655.052	1166.351
10.702	-0.290	1653.213	1164.964
11.717	-0.442	1649.825	1161.295
12.731	-0.132	1648.833	1162.889
13.746	5.905	1663.702	1220.325
14.761	15.302	1684.408	1309.087
15.775	19.501	1692.045	1347.768
16.790	20.098	1691.561	1351.918
17.804	20.154	1691.359	1352.075
18.819	20.139	1690.267	1350.961
19.834	20.287	1689.478	1351.368
20.848	20.500	1689.144	1352.637
21.863	20.500	1688.568	1352.056
22.877	20.549	1687.329	1351.324
23.892	20.530	1686.212	1350.167
24.907	20.494	1685.931	1349.538
25.921	20.487	1684.908	1348.549
26.936	20.538	1683.533	1347.724
27.950	20.523	1682.462	1346.627
28.965	20.578	1681.851	1346.446
29.980	20.485	1681.022	1344.950
30.994	20.446	1679.695	1343.467
32.009	20.596	1677.924	1343.083
33.023	20.519	1677.503	1342.035
34.038	20.508	1676.574	1341.088
35.053	20.480	1675.458	1339.861
36.067	20.615	1674.184	1339.762
37.082	20.564	1673.107	1338.390
38.096	20.517	1672.349	1337.301
39.111	20.476	1672.091	1336.667
40.126	20.543	1670.441	1335.745
41.140	20.503	1669.511	1334.576
42.155	20.475	1668.741	1333.627
43.169	20.512	1667.899	1333.115
44.184	20.559	1666.422	1332.179
45.199	20.551	1665.364	1331.158
46.213	20.473	1664.541	1329.784
47.228	20.490	1663.131	1328.665
48.242	20.508	1661.837	1327.657
49.257	20.451	1660.718	1326.205
50.271	20.537	1659.229	1325.554
51.286	20.502	1658.493	1324.585
52.301	20.519	1657.079	1323.465
53.315	20.499	1655.552	1321.977
54.330	20.500	1654.281	1320.853
55.344	20.424	1653.114	1319.228
56.359	20.533	1651.147	1318.368
57.374	20.418	1650.974	1317.241
58.388	20.529	1649.644	1316.907
59.403	20.473	1648.905	1315.777
60.417	20.507	1647.199	1314.554
61.432	20.549	1646.056	1313.844
62.447	20.432	1645.687	1312.548
63.461	20.537	1644.165	1312.015
64.476	20.536	1643.280	1311.181
65.490	20.475	1642.208	1309.748
66.505	20.584	1641.127	1309.594
67.520	20.578	1639.936	1308.479
68.534	20.586	1638.758	1307.485
69.549	20.507	1637.432	1305.721
70.563	20.523	1636.560	1305.029
71.578	20.429	1635.629	1303.464
72.593	20.540	1634.193	1303.041
73.607	20.554	1633.322	1302.332
74.622	20.579	1632.131	1301.454
75.636	20.516	1631.685	1300.515
76.651	20.527	1630.610	1299.620
77.666	20.599	1629.425	1299.104
78.680	20.536	1628.994	1298.172
79.695	20.569	1627.954	1297.474
80.709	20.545	1626.930	1296.368
81.724	20.515	1625.839	1295.155
82.739	20.675	1624.826	1295.425
83.753	20.552	1624.140	1293.850
84.768	20.520	1623.188	1292.743
85.782	20.468	1622.356	1291.580
86.797	20.539	1621.026	1290.928
87.812	20.591	1620.120	1290.483
88.826	20.491	1618.985	1288.719
89.841	20.586	1618.054	1288.568
90.855	20.598	1617.126	1287.805
91.870	20.558	1615.747	1286.298
92.884	20.486	1615.082	1285.122
93.899	20.621	1614.080	1285.207
94.914	20.596	1612.909	1283.976
95.928	20.599	1611.545	1282.799
96.943	20.586	1610.112	1281.450
97.957	20.555	1609.006	1280.228
98.972	20.585	1607.202	1278.902
99.987	20.669	1606.099	1278.526
101.001	20.628	1604.788	1277.071
102.016	20.565	1603.429	1275.410
103.030	20.614	1601.400	1274.044
104.045	20.606	1600.298	1272.998
105.060	20.495	1599.618	1271.534
106.074	20.468	1598.252	1270.134
107.089	20.588	1596.872	1269.801
108.103	20.607	1595.402	1268.658
109.118	20.540	1594.277	1267.164
110.133	20.569	1592.747	1266.044
111.147	20.585	1591.365	1264.958
112.162	20.652	1590.109	1264.327
113.176	20.639	1588.689	1262.992
114.191	20.615	1587.573	1261.822
115.206	20.660	1586.221	1260.965
116.220	20.610	1584.771	1259.337
117.235	20.677	1583.471	1258.673
118.249	20.659	1582.852	1257.942
119.264	20.621	1581.278	1256.302
120.279	20.584	1580.121	1255.005
121.293	20.637	1578.634	1254.098
122.308	20.656	1577.072	1252.886
123.322	20.672	1575.843	1251.909
124.337	20.631	1574.783	1250.667
125.352	20.670	1573.454	1249.779
126.366	20.642	1572.862	1248.996
127.381	20.711	1571.285	1248.126
128.395	20.707	1570.637	1247.477
129.410	20.719	1569.341	1246.422
130.424	20.710	1568.059	1245.225
131.439	20.705	1567.184	1244.385
132.454	20.627	1566.074	1242.838
133.468	20.686	1564.622	1241.999
134.483	20.679	1562.986	1240.537
135.497	20.635	1562.050	1239.374
136.512	20.699	1560.466	1238.459
137.527	20.681	1559.411	1237.389
138.541	20.735	1557.762	1236.349
139.556	20.782	1556.766	1235.786
140.570	20.827	1555.394	1234.907
141.585	20.640	1554.622	1232.859
142.600	20.558	1553.595	1231.357
143.614	20.732	1552.194	1231.369
144.629	20.763	1551.063	1230.581
145.643	20.755	1549.481	1229.159
146.658	20.607	1548.788	1227.457
147.673	20.610	1547.127	1226.049
148.687	20.600	1545.933	1224.925
149.702	20.699	1544.673	1224.518
150.716	20.618	1543.402	1222.829
151.731	20.663	1541.963	1221.900
152.746	20.701	1541.436	1221.639
153.760	20.693	1540.055	1220.384
154.775	20.697	1539.033	1219.490
155.789	20.784	1538.058	1219.223
156.804	20.724	1536.909	1217.780
157.819	20.763	1535.367	1216.725
158.833	20.736	1534.798	1215.980
159.848	20.749	1533.562	1214.983
160.862	20.712	1532.648	1213.895
161.877	20.820	1531.672	1213.768
162.892	20.818	1530.531	1212.741
163.906	20.817	1529.493	1211.800
164.921	20.822	1528.589	1211.011
165.935	20.781	1527.798	1209.993
166.950	20.757	1527.213	1209.256
167.964	20.857	1525.209	1208.256
168.979	20.872	1524.771	1207.911
169.994	20.835	1523.789	1206.767
171.008	20.829	1523.118	1206.090
172.023	20.874	1522.022	1205.423
173.037	20.906	1520.676	1204.476
174.052	20.831	1519.963	1203.283
175.067	20.867	1518.875	1202.562
176.081	20.822	1518.093	1201.527
177.096	20.898	1516.690	1200.838
178.110	20.930	1515.482	1199.990
179.125	20.809	1515.007	1198.678
180.140	20.937	1513.642	1198.372
181.154	20.868	1512.992	1197.278
182.169	21.029	1511.597	1197.170
183.183	20.826	1511.074	1195.262
184.198	20.846	1510.384	1194.747
185.213	20.844	1509.260	1193.739
186.227	20.886	1508.111	1193.010
187.242	20.935	1507.617	1192.845
188.256	20.977	1506.829	1192.403
189.271	20.991	1505.538	1191.378
190.286	20.870	1505.008	1190.022
191.300	20.933	1504.027	1189.574
192.315	20.961	1503.324	1189.102
193.329	20.854	1502.123	1187.317
194.344	20.932	1501.217	1187.029
195.359	20.928	1500.542	1186.363
196.373	20.988	1499.547	1185.875
197.388	20.994	1498.219	1184.764
198.402	20.895	1498.099	1183.895
199.417	20.829	1496.842	1182.347
200.432	20.824	1495.952	1181.507
201.446	20.915	1495.361	1181.550
202.461	20.964	1494.284	1180.927
203.475	20.932	1493.230	1179.773
204.490	20.876	1492.654	1178.832
205.504	20.913	1491.686	1178.216
206.519	20.921	1490.645	1177.343
207.534	21.011	1489.863	1177.227
208.548	20.991	1488.942	1176.262
209.563	21.002	1488.036	1175.514
210.577	20.992	1487.375	1174.821
211.592	21.001	1486.490	1174.079
212.607	21.008	1485.866	1173.529
213.621	21.038	1485.353	1173.222
214.636	21.076	1484.291	1172.536
215.650	21.063	1483.404	1171.641
216.665	20.963	1482.493	1170.150
217.680	21.018	1481.703	1169.795
218.694	21.023	1480.927	1169.112
219.709	21.090	1480.040	1168.753
220.723	20.988	1479.331	1167.410
221.738	20.932	1478.702	1166.433
222.753	20.968	1477.519	1165.635
223.767	20.895	1476.746	1164.436
224.782	21.046	1475.326	1164.225
225.796	21.066	1474.822	1163.857
226.811	21.083	1474.252	1163.418
227.826	21.166	1473.334	1163.140
228.840	21.156	1472.480	1162.298
229.855	21.101	1471.779	1161.277
230.869	21.115	1471.111	1160.741
231.884	21.098	1470.301	1159.882
232.899	21.168	1468.750	1159.023
233.913	21.088	1467.919	1157.731
234.928	21.166	1466.844	1157.301
235.942	21.110	1466.116	1156.252
236.957	21.165	1465.002	1155.634
237.972	21.241	1463.967	1155.219
238.986	21.289	1462.374	1154.175
240.001	21.232	1461.617	1153.102
241.015	21.195	1461.245	1152.465
242.030	21.271	1460.035	1151.907
243.045	21.240	1459.435	1151.128
244.059	21.348	1458.194	1150.755
245.074	21.264	1457.167	1149.294
246.088	21.247	1456.940	1148.899
247.103	21.300	1455.745	1148.206
248.117	21.394	1454.781	1147.957
249.132	21.325	1454.164	1146.919
250.147	21.260	1453.948	1146.217
251.161	21.325	1453.433	1146.141
252.176	21.369	1452.131	1145.297
253.190	21.388	1451.561	1144.875
254.205	21.342	1450.849	1143.910
255.220	21.368	1450.183	1143.453
256.234	21.332	1449.210	1142.350
257.249	21.382	1448.451	1141.977
258.263	21.426	1447.395	1141.331
259.278	21.357	1446.506	1140.074
260.293	21.394	1446.197	1139.971
261.307	21.442	1445.329	1139.500
262.322	21.418	1444.440	1138.542
263.336	21.376	1444.292	1138.053
264.351	21.560	1442.656	1137.862
265.366	21.425	1441.618	1136.060
266.380	21.407	1441.227	1135.538
267.395	21.418	1440.055	1134.583
268.409	21.476	1439.482	1134.412
269.424	21.508	1438.380	1133.648
270.439	21.411	1437.550	1132.268
271.453	21.400	1437.106	1131.741
272.468	21.526	1435.549	1131.233
273.482	21.582	1434.958	1131.031
274.497	21.425	1434.608	1129.635
275.512	21.577	1433.389	1129.559
276.526	21.465	1433.561	1128.871
277.541	21.564	1432.027	1128.203
278.555	21.495	1431.547	1127.278
279.570	21.566	1430.210	1126.586
280.585	21.580	1429.257	1125.822
281.599	21.596	1428.532	1125.258
282.614	21.715	1427.537	1125.139
283.628	21.549	1426.730	1123.339
284.643	21.498	1426.044	1122.371
285.657	21.593	1424.780	1121.881
286.672	21.602	1424.071	1121.286
287.687	21.542	1423.606	1120.435
288.701	21.511	1422.775	1119.485
289.716	21.666	1421.516	1119.381
290.730	21.602	1421.610	1118.950
291.745	21.654	1419.930	1117.859
292.760	21.675	1419.324	1117.420
293.774	21.719	1418.205	1116.717
294.789	21.674	1417.673	1115.916
295.803	21.591	1416.649	1114.478
296.818	21.666	1415.666	1114.084
297.833	21.695	1415.314	1113.894
298.847	21.584	1414.335	1112.321
299.862	21.636	1413.604	1111.974
300.876	21.731	1412.737	1111.801
301.891	21.752	1411.693	1111.014
302.906	21.735	1411.012	1110.274
303.920	21.732	1410.560	1109.796
304.935	21.799	1409.716	1109.459
305.949	21.771	1408.860	1108.514
306.964	21.789	1408.159	1107.976
307.979	21.845	1407.010	1107.326
308.993	21.860	1406.440	1106.877
310.008	21.788	1405.945	1105.936
311.022	21.897	1404.627	1105.484
312.037	21.933	1403.105	1104.416
313.052	21.874	1402.342	1103.350
314.066	21.872	1401.707	1102.740
315.081	21.801	1401.158	1101.761
316.095	21.833	1400.296	1101.189
317.110	21.852	1399.246	1100.385
318.125	21.864	1398.255	1099.583
319.139	21.965	1397.300	1099.366
320.154	21.922	1396.519	1098.384
321.168	21.879	1395.756	1097.419
322.183	21.867	1394.955	1096.615
323.197	21.875	1394.197	1095.974
324.212	21.852	1393.005	1094.799
325.227	21.918	1392.449	1094.676
326.241	21.953	1391.476	1094.031
327.256	21.864	1391.190	1093.155
328.270	22.016	1390.222	1093.246
329.285	22.061	1388.959	1092.435
330.300	21.978	1388.539	1091.490
331.314	22.029	1387.747	1091.087
332.329	22.097	1386.536	1090.464
333.343	22.102	1385.661	1089.706
334.358	22.064	1385.248	1089.048
335.373	22.206	1384.288	1089.080
336.387	22.129	1383.658	1088.013
337.402	22.136	1383.166	1087.572
338.416	22.076	1382.449	1086.539
339.431	22.195	1381.709	1086.600
340.446	22.129	1381.322	1085.791
341.460	22.185	1380.440	1085.344
342.475	22.232	1379.303	1084.644
343.489	22.179	1378.519	1083.608
344.504	22.226	1377.743	1083.189
345.519	22.141	1377.060	1082.037
346.533	22.164	1375.648	1080.970
347.548	22.204	1375.261	1080.819
348.562	22.222	1374.216	1080.009
349.577	22.154	1373.737	1079.118
350.592	22.219	1372.613	1078.540
351.606	22.239	1371.751	1077.892
352.621	22.249	1370.828	1077.130
353.635	22.204	1369.920	1076.050
354.650	22.321	1369.185	1076.090
355.665	22.325	1368.643	1075.593
356.679	22.345	1367.627	1074.822
357.694	22.265	1366.254	1073.162
358.708	22.356	1365.202	1072.795
359.723	22.321	1363.982	1071.525
360.738	22.475	1362.600	1071.284
361.752	22.344	1362.106	1070.002
362.767	22.276	1361.123	1068.724
363.781	22.309	1360.633	1068.442
364.796	22.359	1359.930	1068.101
365.810	22.395	1359.145	1067.607
366.825	22.330	1358.425	1066.555
367.840	22.404	1357.655	1066.306
368.854	22.400	1356.684	1065.426
369.869	22.418	1356.600	1065.371
370.883	22.512	1355.532	1065.007
371.898	22.487	1354.809	1064.196
372.913	22.490	1354.362	1063.764
373.927	22.475	1353.780	1063.125
374.942	22.457	1352.612	1062.005
375.956	22.554	1351.818	1061.875
376.971	22.487	1351.262	1060.940
377.986	22.515	1350.312	1060.269
379.000	22.503	1349.443	1059.421
380.015	22.479	1348.776	1058.654
381.029	22.529	1348.466	1058.620
382.044	22.623	1347.166	1058.068
383.059	22.552	1346.696	1057.183
384.073	22.538	1346.377	1056.756
385.088	22.646	1345.421	1056.558
386.102	22.553	1345.125	1055.672
387.117	22.644	1344.276	1055.461
388.132	22.619	1343.824	1054.859
389.146	22.579	1342.873	1053.782
390.161	22.544	1342.567	1053.236
391.175	22.737	1341.619	1053.554
392.190	22.689	1340.732	1052.478
393.205	22.698	1340.228	1052.045
394.219	22.746	1339.228	1051.452
395.234	22.737	1338.061	1050.388
396.248	22.665	1337.082	1049.101
397.263	22.861	1334.978	1048.518
398.278	22.786	1334.365	1047.502
399.292	22.831	1333.513	1047.003
400.307	22.792	1332.826	1046.141
401.321	22.848	1331.785	1045.567
402.336	22.805	1330.610	1044.297
403.350	22.787	1329.271	1043.045
404.365	22.846	1328.292	1042.533
405.380	22.791	1327.931	1041.835
406.394	22.850	1327.015	1041.372
407.409	22.872	1326.543	1041.039
408.423	22.841	1326.203	1040.496
409.438	22.890	1325.241	1039.936
410.453	22.962	1324.397	1039.603
411.467	22.952	1323.686	1038.895
412.482	22.974	1322.947	1038.353
413.496	22.988	1321.752	1037.404
414.511	23.053	1321.588	1037.568
415.526	23.003	1320.805	1036.569
416.540	22.996	1319.892	1035.717
417.555	22.995	1319.564	1035.362
418.569	22.862	1319.176	1034.186
419.584	22.920	1318.676	1034.046
420.599	22.993	1317.541	1033.492
421.613	138.754	1429.810	1795.959
422.628	134.951	1446.146	1796.039
