DTS Sentinel unit serial number:	SN413079Multiplexer serial number:	ORYXHardware model number:	OX4-SRSoftware version number:	ORYX F/W v4.00 Oryx Data Collector v3.7.2.0data status	okinstallation	princeton_trtdifferential loss correction	single-endedforward channel	channel 4reverse channel	N/Adate	2019/09/11time	17:47:11forward acquisition time	60.00reverse acquisition time	0.00gamma	496.2192k internal	0.2274k external	0.2274temperature offset calibration	1.0023default loss term (dB/km)	0.3790temperature slope calibration	1.0000multiplexer offset coefficient	1.0000multiplexer slope coefficient	1.0000fibre end	0.00T internal ref (°C)	43.94T ext. ref 1 (°C)	1.11T ext. ref 2 (°C)	39.29length (m)	temperature (°C)	Stokes	anti-Stokes-747.200	3.787	0.154	-0.116
-746.185	-200.000	0.014	-0.065
-745.171	-72.009	-0.110	0.042
-744.156	-5.452	0.175	-0.124
-743.142	-200.000	0.001	-0.212
-742.127	-11.065	0.259	0.177
-741.112	-200.000	-0.027	-0.237
-740.098	11.383	0.251	0.198
-739.083	-158.404	-0.049	-0.003
-738.069	-104.573	0.160	0.038
-737.054	240.177	0.158	-0.271
-736.039	0.840	-0.173	0.128
-735.025	762.941	-0.092	-0.256
-734.010	8.358	-0.231	-0.179
-732.996	-137.832	-0.335	-0.039
-731.981	499.639	-0.138	-0.329
-730.966	375.829	-0.111	-0.233
-729.952	173.141	0.229	0.340
-728.937	187.341	0.190	-0.292
-727.923	133.959	-0.214	0.285
-726.908	-42.260	-0.491	-0.258
-725.894	21.361	-0.267	0.223
-724.879	-200.000	-0.012	0.122
-723.864	-55.628	-0.196	-0.090
-722.850	-200.000	0.008	-0.265
-721.835	46.748	0.149	-0.143
-720.821	800.000	-0.024	0.095
-719.806	358.400	0.087	0.178
-718.791	505.393	-0.148	-0.354
-717.777	-7.473	0.037	-0.026
-716.762	9.200	0.184	-0.143
-715.748	-200.000	0.053	-0.310
-714.733	-115.805	0.184	-0.036
-713.718	184.056	-0.170	-0.260
-712.704	-200.000	-0.033	-0.196
-711.689	-200.000	-0.035	0.197
-710.675	-200.000	-0.534	-0.001
-709.660	261.765	0.084	-0.150
-708.645	124.260	-0.126	0.163
-707.631	111.313	-0.113	0.140
-706.616	662.594	0.112	-0.299
-705.602	800.000	-0.064	-0.208
-704.587	-200.000	0.012	0.085
-703.572	-200.000	-0.007	0.087
-702.558	-107.658	0.303	0.068
-701.543	177.366	0.183	0.275
-700.529	115.818	0.242	-0.305
-699.514	-111.031	0.047	-0.010
-698.499	395.492	-0.038	-0.082
-697.485	70.715	-0.245	-0.261
-696.470	-200.000	-0.057	-0.268
-695.456	79.418	-0.089	-0.098
-694.441	377.981	0.168	-0.354
-693.426	800.000	-0.049	-0.176
-692.412	-200.000	-0.003	-0.030
-691.397	-74.451	0.274	0.102
-690.383	98.327	-0.042	-0.049
-689.368	-200.000	-0.039	-0.235
-688.354	-200.000	-0.071	-0.453
-687.339	90.636	0.089	0.102
-686.324	-79.262	0.307	-0.107
-685.310	-1.024	0.081	0.059
-684.295	-87.964	0.207	0.064
-683.281	77.007	0.159	-0.174
-682.266	800.000	-0.094	-0.318
-681.251	-137.997	0.289	-0.033
-680.237	-167.847	0.317	-0.013
-679.222	-200.000	-0.021	-0.163
-678.208	800.000	0.124	0.409
-677.193	-200.000	0.026	0.142
-676.178	-16.757	-0.149	0.097
-675.164	61.537	-0.173	-0.177
-674.149	-187.698	0.456	-0.006
-673.135	-74.628	0.264	-0.098
-672.120	412.897	0.145	-0.317
-671.105	-7.457	0.212	-0.147
-670.091	800.000	0.077	-0.240
-669.076	176.942	-0.052	0.078
-668.062	800.000	0.044	-0.159
-667.047	-200.000	0.002	-0.078
-666.032	32.118	-0.244	0.216
-665.018	73.843	-0.040	0.043
-664.003	-200.000	-0.049	-0.574
-662.989	-200.000	-0.039	-0.463
-661.974	179.510	0.145	-0.219
-660.959	47.251	-0.155	-0.149
-659.945	451.072	-0.059	-0.133
-658.930	-200.000	0.049	-0.288
-657.916	10.865	0.273	-0.214
-656.901	-164.134	-0.152	-0.007
-655.886	71.795	0.112	-0.120
-654.872	256.830	0.126	-0.223
-653.857	568.507	0.056	-0.139
-652.843	135.314	-0.146	0.195
-651.828	-128.315	0.138	-0.020
-650.814	-128.687	0.106	-0.015
-649.799	543.553	0.053	-0.130
-648.784	165.268	-0.201	0.292
-647.770	-200.000	0.029	-0.310
-646.755	-37.329	-0.153	0.084
-645.741	770.611	0.085	-0.238
-644.726	-4.156	0.083	0.059
-643.711	-200.000	0.002	0.326
-642.697	213.741	0.040	-0.065
-641.682	-19.118	0.154	-0.098
-640.668	39.655	-0.210	-0.194
-639.653	-72.869	0.249	0.094
-638.638	647.830	0.027	0.071
-637.624	48.089	0.061	0.059
-636.609	-116.917	0.201	0.038
-635.595	23.101	0.277	0.233
-634.580	-122.587	-0.240	0.040
-633.565	286.902	-0.035	0.066
-632.551	3.467	0.185	0.138
-631.536	-200.000	-0.050	0.418
-630.522	800.000	0.112	-0.358
-629.507	-11.574	-0.263	-0.178
-628.492	-200.000	-0.032	-0.279
-627.478	-200.000	0.015	-0.204
-626.463	-100.468	-0.324	-0.082
-625.449	-101.470	0.288	0.072
-624.434	139.344	0.132	0.179
-623.419	160.570	0.167	-0.239
-622.405	-108.850	-0.091	0.020
-621.390	-76.863	0.118	0.042
-620.376	-120.795	-0.178	-0.031
-619.361	167.281	0.069	-0.101
-618.346	-17.860	-0.217	0.140
-617.332	-200.000	0.032	0.233
-616.317	-127.032	0.317	-0.048
-615.303	-200.000	-0.002	0.194
-614.288	-200.000	-0.015	-0.193
-613.273	219.319	0.079	-0.130
-612.259	-200.000	-0.033	-0.198
-611.244	82.155	-0.145	0.161
-610.230	-200.000	0.001	-0.009
-609.215	-200.000	0.036	-0.308
-608.201	220.612	-0.183	-0.302
-607.186	-4.680	-0.058	-0.041
-606.171	-200.000	0.019	0.195
-605.157	800.000	-0.054	0.232
-604.142	-99.515	-0.208	0.054
-603.128	72.597	0.090	0.097
-602.113	-97.631	0.146	-0.039
-601.098	-80.026	-0.381	-0.131
-600.084	459.449	-0.093	-0.212
-599.069	800.000	0.023	0.069
-598.055	-7.482	0.391	-0.272
-597.040	-63.592	-0.223	-0.094
-596.025	150.176	-0.182	0.253
-595.011	-190.894	0.065	-0.001
-593.996	159.158	0.010	-0.015
-592.982	-200.000	0.036	0.289
-591.967	-117.248	-0.160	-0.030
-590.952	-200.000	0.029	0.156
-589.938	209.197	-0.168	0.270
-588.923	-124.203	-0.201	0.032
-587.909	800.000	-0.016	0.067
-586.894	-1.017	-0.190	-0.138
-585.879	-19.564	-0.030	-0.019
-584.865	-62.750	-0.140	0.059
-583.850	-200.000	-0.010	-0.093
-582.836	-200.000	0.001	0.156
-581.821	-191.998	0.175	-0.002
-580.806	-200.000	-0.008	-0.152
-579.792	7.231	-0.235	-0.180
-578.777	41.744	-0.081	-0.075
-577.763	147.553	0.044	0.061
-576.748	-146.229	0.294	0.026
-575.733	-200.000	-0.005	-0.248
-574.719	800.000	0.011	0.032
-573.704	-51.248	-0.267	0.128
-572.690	411.832	-0.020	-0.044
-571.675	-200.000	0.038	0.437
-570.661	164.294	-0.072	-0.104
-569.646	260.908	-0.072	-0.128
-568.631	211.733	-0.109	-0.176
-567.617	-200.000	-0.012	-0.100
-566.602	-41.557	0.280	-0.147
-565.588	151.550	0.107	0.149
-564.573	-100.009	-0.356	0.091
-563.558	-114.453	0.170	0.034
-562.544	-129.257	-0.276	0.039
-561.529	800.000	-0.044	0.151
-560.515	-200.000	0.050	0.303
-559.500	135.094	0.072	0.095
-558.485	-6.841	0.366	0.255
-557.471	800.000	0.081	-0.236
-556.456	-27.813	0.165	0.098
-555.442	113.755	0.065	0.081
-554.427	-125.622	-0.199	0.031
-553.412	-6.887	0.112	-0.078
-552.398	146.432	-0.153	-0.211
-551.383	339.374	-0.064	-0.127
-550.369	-200.000	0.010	0.159
-549.354	48.503	0.115	-0.111
-548.339	349.650	0.050	-0.102
-547.325	2.450	-0.144	0.107
-546.310	-200.000	-0.026	-0.309
-545.296	-200.000	-0.003	-0.017
-544.281	-6.099	0.064	0.045
-543.266	800.000	-0.086	0.315
-542.252	-117.663	0.211	0.039
-541.237	-97.070	0.193	0.052
-540.223	-11.384	0.178	-0.120
-539.208	800.000	0.020	-0.085
-538.193	-16.128	0.225	-0.146
-537.179	-131.694	0.096	-0.013
-536.164	47.981	-0.360	-0.344
-535.150	166.631	-0.152	0.221
-534.135	-16.764	-0.088	-0.057
-533.121	171.380	-0.296	-0.435
-532.106	-117.227	0.057	-0.011
-531.091	-200.000	-0.014	-0.076
-530.077	12.891	0.087	-0.069
-529.062	-58.337	-0.263	-0.117
-528.048	-200.000	-0.006	-0.094
-527.033	800.000	0.141	0.416
-526.018	-33.184	0.185	0.105
-525.004	58.571	-0.234	-0.235
-523.989	800.000	-0.088	0.267
-522.975	136.524	0.109	-0.145
-521.960	-200.000	0.015	-0.288
-520.945	-53.118	0.207	-0.097
-519.931	-23.912	0.124	0.076
-518.916	30.864	0.093	-0.081
-517.902	-120.246	-0.297	0.052
-516.887	-200.000	-0.040	-0.209
-515.872	115.986	0.114	-0.142
-514.858	182.646	0.014	-0.021
-513.843	-145.277	0.101	0.009
-512.829	28.773	0.184	0.159
-511.814	2.773	-0.207	-0.154
-510.799	-200.000	0.039	-0.193
-509.785	-5.484	0.266	0.187
-508.770	-64.964	0.374	-0.155
-507.756	-200.000	-0.051	-0.347
-506.741	-52.935	-0.032	-0.015
-505.726	42.259	-0.103	-0.096
-504.712	409.818	0.106	-0.230
-503.697	-72.891	0.110	0.041
-502.683	-28.297	-0.213	0.126
-501.668	-141.011	0.339	-0.036
-500.653	-130.245	-0.057	0.008
-499.639	-200.000	0.030	-0.202
-498.624	33.646	-0.107	-0.095
-497.610	-128.165	0.385	-0.056
-496.595	-68.044	0.047	-0.019
-495.581	17.833	0.038	0.031
-494.566	233.295	0.167	0.280
-493.551	31.336	-0.194	-0.170
-492.537	-60.035	-0.240	0.105
-491.522	-107.373	-0.172	0.039
-490.508	45.720	-0.095	0.090
-489.493	-200.000	0.029	-0.284
-488.478	390.468	0.081	-0.171
-487.464	-38.977	0.112	-0.060
-486.449	84.273	-0.075	0.084
-485.435	-56.353	-0.045	-0.020
-484.420	-183.368	0.331	-0.006
-483.405	-114.537	-0.237	-0.046
-482.391	-70.968	0.184	0.071
-481.376	299.160	-0.023	-0.044
-480.362	111.078	0.035	0.043
-479.347	-200.000	-0.061	-0.318
-478.332	-82.447	-0.117	-0.039
-477.318	-200.000	0.011	0.055
-476.303	277.809	0.118	0.214
-475.289	140.967	0.051	-0.069
-474.274	461.925	0.108	0.245
-473.259	-28.776	0.081	-0.047
-472.245	-174.859	-0.370	-0.011
-471.230	-105.596	0.208	0.048
-470.216	350.178	-0.100	0.202
-469.201	-87.076	0.294	0.091
-468.186	-91.475	0.245	0.071
-467.172	-86.644	0.087	0.027
-466.157	800.000	0.037	-0.160
-465.143	143.292	-0.089	0.121
-464.128	-56.646	0.274	0.124
-463.113	-56.110	-0.136	0.062
-462.099	151.913	-0.162	-0.225
-461.084	149.288	0.059	-0.081
-460.070	-162.325	0.139	-0.007
-459.055	100.784	0.218	0.258
-458.040	-51.086	0.107	0.051
-457.026	560.174	0.141	-0.348
-456.011	-50.418	0.069	0.033
-454.997	372.769	0.140	0.291
-453.982	800.000	0.098	0.378
-452.968	140.288	-0.102	0.137
-451.953	-200.000	-0.001	0.247
-450.938	-110.758	0.133	0.028
-449.924	27.493	-0.245	-0.210
-448.909	734.102	-0.084	-0.228
-447.895	800.000	0.020	-0.058
-446.880	-87.644	0.155	0.048
-445.865	-106.140	0.131	0.030
-444.851	-32.884	-0.211	-0.120
-443.836	-45.208	-0.058	-0.029
-442.822	32.026	0.177	-0.156
-441.807	-88.337	0.389	-0.119
-440.792	800.000	-0.060	-0.263
-439.778	-73.966	-0.197	0.073
-438.763	-174.985	0.262	0.007
-437.749	-17.576	0.271	-0.174
-436.734	-200.000	-0.004	0.161
-435.719	234.220	0.042	0.070
-434.705	-200.000	0.020	0.163
-433.690	304.492	0.125	-0.236
-432.676	86.061	0.312	-0.350
-431.661	-4.748	0.285	-0.200
-430.646	-200.000	-0.005	0.053
-429.632	-159.464	-0.160	0.009
-428.617	800.000	0.092	0.301
-427.603	-142.713	0.567	-0.056
-426.588	9.748	-0.340	0.262
-425.573	203.834	0.105	0.166
-424.559	37.105	0.038	-0.034
-423.544	-103.488	-0.570	0.137
-422.530	-200.000	0.004	-0.216
-421.515	-200.000	0.024	-0.166
-420.500	-200.000	-0.038	0.172
-419.486	-200.000	0.036	0.296
-418.471	201.915	-0.018	0.029
-417.457	-66.671	0.330	0.133
-416.442	29.270	-0.117	-0.101
-415.428	326.177	-0.098	0.192
-414.413	-163.336	-0.239	0.012
-413.398	-35.759	0.169	0.093
-412.384	-73.969	0.333	-0.123
-411.369	156.708	0.179	0.251
-410.355	243.456	0.185	0.315
-409.340	13.021	0.037	0.029
-408.325	-41.805	-0.127	0.066
-407.311	84.802	0.243	0.271
-406.296	5.919	-0.134	0.101
-405.282	-200.000	-0.012	-0.151
-404.267	-162.592	-0.327	-0.016
-403.252	-90.435	-0.162	0.048
-402.238	-148.683	0.135	0.011
-401.223	-200.000	0.027	0.407
-400.209	262.334	-0.079	0.139
-399.194	-54.522	0.133	0.061
-398.179	-200.000	-0.046	-0.329
-397.165	-200.000	0.002	0.093
-396.150	-6.344	-0.372	-0.258
-395.136	-70.316	-0.272	0.105
-394.121	-76.683	-0.226	-0.081
-393.106	-128.532	0.382	0.055
-392.092	25.877	0.238	0.202
-391.077	-81.715	-0.187	0.062
-390.063	-92.164	-0.173	-0.050
-389.048	-96.341	0.110	-0.030
-388.033	13.116	0.024	-0.019
-387.019	-18.391	-0.123	-0.078
-386.004	180.118	-0.048	0.071
-384.990	-65.661	0.170	-0.069
-383.975	-86.438	0.326	0.102
-382.960	-126.431	0.298	0.045
-381.946	-54.259	-0.140	-0.064
-380.931	-174.282	-0.381	-0.011
-379.917	-99.631	-0.243	-0.062
-378.902	784.901	-0.109	0.305
-377.888	-200.000	0.013	0.471
-376.873	174.425	-0.056	0.082
-375.858	131.754	-0.026	-0.034
-374.844	-58.856	0.207	0.091
-373.829	-200.000	-0.082	-0.488
-372.815	223.974	-0.139	0.228
-371.800	-69.152	-0.233	-0.091
-370.785	-200.000	-0.005	0.039
-369.771	-2.389	0.064	-0.046
-368.756	-39.292	-0.155	0.083
-367.742	20.145	-0.391	-0.320
-366.727	-12.046	-0.204	-0.136
-365.712	-33.393	-0.079	-0.044
-364.698	48.388	-0.126	0.120
-363.683	-82.707	0.362	-0.119
-362.669	159.006	0.091	-0.128
-361.654	464.557	-0.056	0.127
-360.639	-114.177	-0.216	-0.042
-359.625	671.470	0.140	0.367
-358.610	-65.600	-0.206	-0.084
-357.596	-60.412	-0.181	-0.078
-356.581	-100.605	0.208	-0.052
-355.566	400.271	0.075	0.160
-354.552	800.000	-0.090	0.259
-353.537	800.000	0.029	0.103
-352.523	-104.947	0.266	0.062
-351.508	-142.261	0.112	-0.011
-350.493	604.103	-0.023	0.059
-349.479	-14.387	-0.210	0.138
-348.464	47.644	0.085	-0.080
-347.450	214.928	0.078	0.125
-346.435	-150.382	-0.221	-0.017
-345.420	-100.195	0.300	0.076
-344.406	-58.053	0.362	-0.160
-343.391	800.000	0.050	-0.184
-342.377	-200.000	0.049	0.248
-341.362	-76.937	0.077	-0.027
-340.348	-200.000	-0.028	0.233
-339.333	-200.000	0.023	-0.182
-338.318	-113.472	-0.212	0.042
-337.304	60.004	-0.187	0.188
-336.289	491.727	0.034	0.078
-335.275	18.989	0.129	0.105
-334.260	550.499	-0.075	-0.182
-333.245	127.547	0.118	-0.152
-332.231	98.321	0.224	0.261
-331.216	-5.697	0.198	-0.138
-330.202	-182.361	-0.120	0.002
-329.187	22.170	-0.320	-0.266
-328.172	247.732	-0.083	-0.142
-327.158	66.089	0.167	0.172
-326.143	-122.299	0.115	-0.019
-325.129	198.889	-0.158	0.246
-324.114	677.196	-0.089	0.234
-323.099	5.371	-0.228	0.171
-322.085	-45.429	0.169	0.085
-321.070	206.643	-0.070	-0.111
-320.056	-61.002	0.016	0.007
-319.041	-46.460	0.231	-0.115
-318.026	-153.734	-0.303	0.021
-317.012	-112.688	0.234	-0.047
-315.997	596.807	0.032	0.079
-314.983	248.549	0.092	-0.159
-313.968	-90.944	-0.259	-0.076
-312.953	-47.834	-0.611	0.300
-311.939	-47.523	-0.071	-0.035
-310.924	-15.490	0.209	0.135
-309.910	-200.000	0.026	-0.217
-308.895	-44.464	0.088	-0.045
-307.880	-122.199	-0.253	-0.042
-306.866	181.851	0.035	0.052
-305.851	-107.500	-0.080	0.018
-304.837	205.176	0.079	0.125
-303.822	-200.000	0.014	-0.145
-302.807	-91.585	0.355	0.103
-301.793	-200.000	0.004	0.030
-300.778	-154.689	-0.175	-0.012
-299.764	125.377	0.018	-0.022
-298.749	-106.153	0.034	-0.008
-297.735	-200.000	0.023	-0.150
-296.720	-85.683	0.143	0.045
-295.705	-110.870	-0.144	-0.030
-294.691	800.000	-0.055	-0.207
-293.676	51.190	0.148	0.143
-292.662	30.085	-0.034	0.029
-291.647	648.119	-0.061	-0.159
-290.632	521.065	-0.038	-0.090
-289.618	228.212	-0.089	-0.148
-288.603	-89.415	-0.131	0.039
-287.589	393.215	0.133	-0.281
-286.574	800.000	0.090	0.260
-285.559	-37.480	0.080	0.043
-284.545	-25.171	-0.251	0.151
-283.530	-200.000	-0.050	0.312
-282.516	-113.454	-0.337	-0.067
-281.501	247.852	-0.086	-0.147
-280.486	258.261	-0.114	0.199
-279.472	226.086	-0.144	-0.236
-278.457	-90.708	-0.045	0.013
-277.443	-126.669	0.097	-0.014
-276.428	32.985	-0.326	-0.286
-275.413	-156.695	0.074	0.005
-274.399	-185.487	-0.099	0.002
-273.384	-119.931	0.351	-0.061
-272.370	-200.000	-0.013	-0.192
-271.355	356.336	-0.069	-0.139
-270.340	-200.000	-0.012	0.321
-269.326	210.390	0.055	0.087
-268.311	-139.195	0.236	-0.026
-267.297	-55.444	0.203	0.092
-266.282	107.453	-0.049	-0.059
-265.267	-200.000	-0.039	-0.415
-264.253	5.049	0.173	-0.129
-263.238	-200.000	0.020	-0.096
-262.224	800.000	0.056	0.183
-261.209	-91.196	0.266	-0.077
-260.195	95.097	-0.095	-0.110
-259.180	55.730	0.108	-0.106
-258.165	142.964	0.089	0.120
-257.151	-71.994	-0.364	0.137
-256.136	-200.000	0.010	0.170
-255.122	-200.000	-0.023	-0.306
-254.107	-0.495	-0.067	0.048
-253.092	-164.991	0.134	-0.006
-252.078	367.438	-0.193	0.395
-251.063	362.730	0.063	-0.128
-250.049	129.035	0.243	0.313
-249.034	-6.986	0.211	0.145
-248.019	-113.451	-0.066	-0.013
-247.005	-79.739	-0.216	0.074
-245.990	-36.621	0.128	0.070
-244.976	375.964	0.162	-0.334
-243.961	723.517	-0.025	0.068
-242.946	-88.199	0.239	0.072
-241.932	-166.913	0.319	0.013
-240.917	-200.000	0.037	0.237
-239.903	-30.717	0.182	0.104
-238.888	658.974	-0.023	0.060
-237.873	-200.000	-0.038	0.197
-236.859	453.328	-0.074	0.167
-235.844	-200.000	0.009	0.089
-234.830	-67.834	-0.330	-0.130
-233.815	500.507	-0.084	0.197
-232.800	-104.572	0.343	-0.080
-231.786	253.544	0.156	-0.269
-230.771	-168.184	0.124	-0.005
-229.757	28.033	0.136	-0.116
-228.742	36.218	-0.101	-0.090
-227.727	-108.741	-0.326	-0.071
-226.713	-200.000	0.005	-0.167
-225.698	-109.308	-0.094	0.020
-224.684	-133.388	0.048	0.006
-223.669	271.832	0.076	-0.136
-222.655	800.000	-0.033	-0.127
-221.640	-200.000	0.005	-0.149
-220.625	-41.142	0.120	0.062
-219.611	-200.000	-0.005	-0.152
-218.596	32.610	-0.055	-0.048
-217.582	174.896	0.044	0.065
-216.567	0.723	-0.183	0.132
-215.552	-50.249	0.070	0.034
-214.538	-100.750	-0.218	0.054
-213.523	-22.814	-0.199	0.121
-212.509	377.874	0.080	-0.165
-211.494	800.000	0.045	0.186
-210.479	-200.000	0.038	-0.352
-209.465	209.429	-0.083	0.131
-208.450	-142.175	0.119	0.012
-207.436	-129.426	0.090	0.013
-206.421	60.143	0.203	-0.203
-205.406	-160.156	0.404	0.022
-204.392	336.554	0.099	0.194
-203.377	-59.507	-0.155	-0.067
-202.363	-42.214	-0.244	-0.126
-201.348	800.000	-0.115	0.370
-200.333	-14.287	0.100	0.065
-199.319	-118.781	-0.169	-0.030
-198.304	-200.000	0.004	0.094
-197.290	-165.172	-0.221	-0.010
-196.275	644.069	0.024	-0.061
-195.260	-168.527	0.205	0.008
-194.246	54.823	-0.058	0.057
-193.231	711.770	0.040	0.106
-192.217	228.085	0.161	0.265
-191.202	-111.972	-0.227	-0.046
-190.187	299.185	0.086	0.160
-189.173	-40.975	-0.178	0.093
-188.158	800.000	0.149	-0.419
-187.144	44.562	0.193	0.179
-186.129	-200.000	-0.059	0.269
-185.114	-70.992	-0.322	0.122
-184.100	-56.720	0.015	0.007
-183.085	-42.831	-0.164	0.084
-182.071	-10.720	-0.030	-0.020
-181.056	494.288	0.166	-0.385
-180.042	-87.831	-0.230	0.070
-179.027	569.522	-0.115	-0.283
-178.012	-57.013	-0.371	-0.165
-176.998	-0.157	-0.077	-0.055
-175.983	-153.266	-0.188	0.013
-174.969	-11.825	0.169	0.112
-173.954	-18.066	-0.259	0.164
-172.939	34.903	0.120	-0.106
-171.925	190.461	-0.232	0.351
-170.910	-116.234	-0.103	-0.019
-169.896	158.047	0.216	-0.302
-168.881	122.990	0.077	-0.098
-167.866	-111.737	-0.208	0.043
-166.852	-127.735	-0.430	0.063
-165.837	-200.000	0.008	-0.353
-164.823	126.116	-0.058	0.074
-163.808	-16.542	0.109	0.070
-162.793	142.768	0.272	-0.365
-161.779	-59.668	0.247	-0.107
-160.764	-76.281	0.046	-0.016
-159.750	-200.000	-0.162	0.000
-158.735	0.092	-0.217	-0.156
-157.720	800.000	0.097	0.356
-156.706	-179.347	0.151	-0.003
-155.691	295.221	-0.168	-0.310
-154.677	-123.669	-0.277	0.044
-153.662	1.970	-0.318	-0.232
-152.647	221.775	-0.070	-0.114
-151.633	-162.949	-0.384	-0.019
-150.618	20.229	-0.296	0.241
-149.604	-112.168	0.360	0.073
-148.589	-160.902	0.431	0.023
-147.574	649.344	-0.064	0.165
-146.560	119.468	0.113	-0.140
-145.545	-200.000	0.033	-0.234
-144.531	800.000	-0.076	-0.299
-143.516	-111.642	0.118	0.024
-142.502	113.875	-0.147	-0.180
-141.487	-114.660	-0.247	-0.048
-140.472	-200.000	-0.003	0.049
-139.458	272.823	0.116	-0.207
-138.443	51.362	-0.139	-0.133
-137.429	-48.778	0.260	-0.126
-136.414	-34.337	0.224	0.124
-135.399	-200.000	0.003	0.111
-134.385	-94.424	0.101	0.028
-133.370	-124.830	-0.237	-0.037
-132.356	-11.794	-0.163	0.107
-131.341	244.211	-0.134	-0.227
-130.326	-24.731	0.253	0.152
-129.312	311.870	0.067	0.126
-128.297	52.685	0.382	0.367
-127.283	505.109	0.061	0.143
-126.268	-200.000	-0.018	-0.254
-125.253	73.276	-0.162	-0.171
-124.239	-18.558	0.335	0.210
-123.224	-55.867	0.282	0.127
-122.210	76.260	0.106	-0.113
-121.195	31.558	-0.083	0.072
-120.180	218.540	0.093	0.150
-119.166	164.602	0.056	-0.079
-118.151	-154.829	-0.144	-0.010
-117.137	-122.268	-0.270	0.044
-116.122	-105.583	-0.174	-0.040
-115.107	78.179	-0.099	-0.106
-114.093	280.129	-0.115	-0.206
-113.078	275.034	0.162	0.289
-112.064	366.647	0.152	0.309
-111.049	-121.973	-0.122	0.020
-110.034	-99.115	-0.137	-0.035
-109.020	-15.690	0.290	-0.186
-108.005	-55.113	0.390	0.176
-106.991	-6.014	-0.089	-0.061
-105.976	-156.137	0.198	-0.013
-104.962	36.373	0.333	0.295
-103.947	-161.004	0.325	-0.017
-102.932	-120.043	-0.124	-0.021
-101.918	-200.000	0.000	0.130
-100.903	-127.287	-0.368	-0.054
-99.889	91.792	0.287	0.325
-98.874	-200.000	-0.007	0.199
-97.859	177.106	-0.116	-0.170
-96.845	-131.607	0.081	-0.011
-95.830	309.356	-0.079	-0.149
-94.816	71.269	-0.137	0.143
-93.801	800.000	0.078	0.304
-92.786	-200.000	-0.038	0.508
-91.772	-98.616	0.205	0.053
-90.757	-127.441	-0.438	0.064
-89.743	-113.224	0.272	0.054
-88.728	-200.000	0.023	0.299
-87.713	0.453	-0.264	0.190
-86.699	158.021	0.195	0.271
-85.684	571.337	-0.138	0.337
-84.670	99.016	-0.136	0.158
-83.655	-19.986	0.186	-0.115
-82.640	-118.179	0.185	-0.033
-81.626	-92.285	0.075	-0.021
-80.611	123.740	0.081	0.102
-79.597	301.855	0.072	-0.133
-78.582	-85.518	-0.181	-0.057
-77.567	-142.234	-0.123	0.012
-76.553	355.614	0.053	0.106
-75.538	-31.945	0.118	0.066
-74.524	68.517	0.191	-0.196
-73.509	224.294	-0.101	-0.164
-72.494	577.482	-0.100	0.245
-71.480	800.000	0.036	-0.104
-70.465	287.544	0.098	0.178
-69.451	-176.831	0.269	0.007
-68.436	-154.937	-0.109	-0.007
-67.422	-6.951	0.090	-0.062
-66.407	-200.000	-0.012	-0.129
-65.392	143.400	0.070	-0.093
-64.378	-151.860	0.223	-0.016
-63.363	182.581	-0.078	0.115
-62.349	-200.000	-0.014	0.148
-61.334	56.609	-0.740	-0.723
-60.319	546.067	0.136	0.325
-59.305	414.791	-0.310	-0.663
-58.290	381.106	0.428	0.881
-57.276	582.974	0.675	1.664
-56.261	-200.000	70.703	514.748
-55.246	592.183	1265.531	3137.938
-54.232	144.763	2492.212	3344.352
-53.217	111.411	2367.200	2865.640
-52.203	51.388	2106.137	2008.221
-51.188	46.102	2011.872	1870.314
-50.173	44.271	1992.509	1835.709
-49.159	55.646	2026.962	1971.151
-48.144	61.534	2047.990	2045.106
-47.130	46.872	2013.231	1878.292
-46.115	44.022	2002.523	1842.372
-45.100	43.850	1999.839	1838.269
-44.086	43.840	1997.713	1836.152
-43.071	43.854	1995.220	1833.917
-42.057	43.745	1993.302	1831.096
-41.042	43.742	1991.615	1829.445
-40.027	43.846	1989.275	1828.165
-39.013	43.853	1987.429	1826.454
-37.998	43.864	1985.300	1824.531
-36.984	43.886	1983.917	1823.384
-35.969	43.895	1982.229	1821.840
-34.954	43.910	1980.318	1820.143
-33.940	43.923	1978.863	1818.849
-32.925	43.960	1977.034	1817.429
-31.911	44.001	1975.431	1816.254
-30.896	43.948	1973.896	1814.291
-29.881	43.923	1972.390	1812.619
-28.867	44.051	1970.635	1812.070
-27.852	43.943	1969.206	1809.721
-26.838	44.069	1966.690	1808.466
-25.823	43.972	1965.113	1806.073
-24.809	43.947	1963.389	1804.196
-23.794	44.056	1961.272	1803.153
-22.779	44.041	1959.069	1800.916
-21.765	43.942	1958.162	1799.137
-20.750	43.862	1956.878	1797.172
-19.736	43.993	1954.815	1796.371
-18.721	43.992	1953.405	1794.990
-17.706	43.972	1951.595	1793.083
-16.692	43.894	1950.206	1791.047
-15.677	43.940	1948.734	1790.025
-14.663	43.961	1947.064	1788.607
-13.648	43.823	1946.218	1786.545
-12.633	43.999	1944.452	1786.407
-11.619	43.867	1943.918	1784.677
-10.604	43.867	1941.907	1782.759
-9.590	43.920	1940.282	1781.668
-8.575	43.878	1939.164	1780.201
-7.560	43.993	1937.236	1779.368
-6.546	43.938	1936.517	1778.154
-5.531	44.044	1935.011	1777.627
-4.517	44.009	1934.038	1776.358
-3.502	43.850	1933.389	1774.298
-2.487	43.921	1931.487	1773.106
-1.473	43.974	1930.485	1772.581
-0.458	44.037	1926.502	1769.397
0.556	43.415	1907.749	1745.418
1.571	39.390	1887.448	1692.189
2.586	34.690	1907.095	1668.702
3.600	33.026	1943.266	1685.376
4.615	31.789	1940.347	1671.669
5.629	23.867	1833.813	1512.647
6.644	9.587	1699.964	1288.662
7.659	1.838	1653.608	1192.924
8.673	1.243	1649.289	1185.064
9.688	1.158	1647.484	1182.996
10.702	1.088	1646.035	1181.305
11.717	0.961	1643.191	1178.168
12.731	1.401	1642.347	1180.886
13.746	9.118	1662.501	1255.809
14.761	20.449	1686.695	1363.411
15.775	24.739	1694.004	1402.933
16.790	24.948	1693.444	1403.980
17.804	25.056	1693.104	1404.420
18.819	25.062	1692.400	1403.764
19.834	25.158	1691.449	1403.603
20.848	25.390	1690.616	1404.600
21.863	25.334	1690.135	1403.639
22.877	25.447	1688.543	1403.069
23.892	25.419	1687.887	1402.183
24.907	25.353	1687.138	1400.926
25.921	25.391	1686.363	1400.454
26.936	25.340	1685.176	1398.946
27.950	25.345	1684.025	1397.908
28.965	25.366	1683.355	1397.389
29.980	25.420	1682.259	1396.778
30.994	25.375	1681.196	1395.422
32.009	25.406	1679.391	1394.035
33.023	25.326	1678.815	1392.815
34.038	25.334	1678.392	1392.402
35.053	25.348	1677.740	1391.852
36.067	25.471	1675.675	1390.962
37.082	25.407	1675.035	1389.812
38.096	25.355	1674.275	1388.658
39.111	25.301	1674.055	1387.939
40.126	25.432	1672.864	1387.835
41.140	25.395	1671.781	1386.528
42.155	25.317	1670.854	1385.035
43.169	25.325	1670.047	1384.309
44.184	25.304	1668.836	1383.018
45.199	25.410	1667.945	1382.979
46.213	25.416	1666.513	1381.712
47.228	25.398	1665.729	1380.797
48.242	25.332	1664.679	1379.299
49.257	25.344	1663.265	1378.104
50.271	25.355	1661.835	1376.875
51.286	25.313	1661.126	1375.849
52.301	25.376	1659.409	1374.783
53.315	25.398	1658.234	1373.859
54.330	25.426	1656.316	1372.365
55.344	25.418	1654.956	1371.050
56.359	25.381	1653.946	1369.813
57.374	25.419	1652.599	1368.864
58.388	25.382	1652.238	1368.162
59.403	25.417	1650.670	1367.009
60.417	25.426	1649.404	1365.906
61.432	25.441	1648.654	1365.284
62.447	25.435	1647.584	1364.232
63.461	25.490	1646.123	1363.317
64.476	25.376	1645.965	1362.202
65.490	25.354	1645.004	1361.115
66.505	25.409	1643.443	1360.121
67.520	25.415	1642.725	1359.449
68.534	25.465	1641.991	1359.105
69.549	25.458	1640.554	1357.742
70.563	25.415	1639.592	1356.501
71.578	25.397	1638.911	1355.679
72.593	25.401	1637.752	1354.628
73.607	25.485	1636.874	1354.417
74.622	25.504	1635.678	1353.449
75.636	25.462	1635.139	1352.567
76.651	25.450	1634.286	1351.654
77.666	25.525	1633.150	1351.162
78.680	25.459	1632.312	1349.853
79.695	25.420	1631.882	1349.082
80.709	25.533	1630.305	1348.505
81.724	25.465	1630.330	1347.895
82.739	25.450	1629.064	1346.620
83.753	25.440	1628.420	1345.893
84.768	25.461	1626.790	1344.584
85.782	25.433	1626.225	1343.789
86.797	25.436	1625.276	1342.907
87.812	25.481	1624.564	1342.534
88.826	25.454	1623.327	1341.194
89.841	25.486	1622.534	1340.656
90.855	25.550	1621.345	1340.035
91.870	25.399	1620.878	1338.407
92.884	25.468	1619.587	1337.732
93.899	25.489	1618.526	1336.893
94.914	25.466	1617.606	1335.845
95.928	25.478	1616.182	1334.640
96.943	25.463	1615.012	1333.446
97.957	25.405	1613.958	1332.026
98.972	25.441	1612.295	1330.804
99.987	25.464	1611.079	1329.850
101.001	25.477	1609.521	1328.546
102.016	25.402	1608.545	1327.065
103.030	25.360	1607.352	1325.657
104.045	25.383	1606.236	1324.786
105.060	25.410	1604.874	1323.748
106.074	25.375	1603.663	1322.375
107.089	25.444	1602.199	1321.556
108.103	25.506	1600.972	1320.885
109.118	25.504	1599.751	1319.742
110.133	25.509	1598.755	1318.839
111.147	25.547	1597.720	1318.151
112.162	25.503	1596.563	1316.757
113.176	25.464	1595.370	1315.373
114.191	25.584	1594.020	1315.021
115.206	25.515	1592.949	1313.513
116.220	25.626	1591.472	1312.990
117.235	25.501	1590.690	1311.316
118.249	25.587	1589.848	1311.137
119.264	25.546	1588.557	1309.654
120.279	25.558	1587.467	1308.731
121.293	25.461	1586.725	1307.296
122.308	25.554	1584.998	1306.431
123.322	25.518	1583.780	1305.049
124.337	25.493	1582.928	1304.052
125.352	25.642	1581.346	1303.712
126.366	25.634	1580.848	1303.134
127.381	25.704	1579.726	1302.596
128.395	25.591	1579.307	1301.320
129.410	25.625	1577.886	1300.278
130.424	25.694	1576.417	1299.454
131.439	25.667	1575.526	1298.409
132.454	25.558	1574.442	1296.614
133.468	25.597	1572.909	1295.517
134.483	25.577	1571.913	1294.436
135.497	25.590	1570.917	1293.595
136.512	25.542	1570.431	1292.737
137.527	25.653	1568.421	1291.766
138.541	25.636	1567.383	1290.676
139.556	25.673	1566.341	1289.967
140.570	25.636	1564.919	1288.417
141.585	25.643	1563.314	1287.031
142.600	25.622	1562.934	1286.456
143.614	25.660	1561.528	1285.455
144.629	25.612	1560.639	1284.263
145.643	25.596	1559.510	1283.109
146.658	25.610	1558.031	1281.877
147.673	25.500	1557.120	1280.228
148.687	25.581	1555.741	1279.565
149.702	25.622	1554.810	1278.976
150.716	25.548	1553.071	1276.904
151.731	25.627	1552.208	1276.643
152.746	25.609	1551.105	1275.495
153.760	25.638	1549.618	1274.368
154.775	25.637	1549.079	1273.799
155.789	25.645	1547.660	1272.578
156.804	25.643	1546.617	1271.596
157.819	25.632	1545.270	1270.294
158.833	25.661	1544.339	1269.620
159.848	25.743	1543.003	1268.994
160.862	25.654	1542.530	1267.864
161.877	25.716	1541.619	1267.435
162.892	25.654	1540.852	1266.258
163.906	25.609	1540.276	1265.360
164.921	25.633	1539.068	1264.424
165.935	25.732	1537.910	1264.054
166.950	25.693	1537.472	1263.311
167.964	25.628	1536.118	1261.629
168.979	25.587	1535.510	1260.729
169.994	25.691	1534.280	1260.335
171.008	25.714	1533.699	1259.905
172.023	25.699	1533.102	1259.203
173.037	25.648	1531.419	1257.351
174.052	25.768	1530.091	1256.987
175.067	25.626	1529.795	1255.641
176.081	25.715	1528.561	1255.139
177.096	25.753	1527.299	1254.259
178.110	25.674	1526.146	1252.651
179.125	25.677	1525.516	1252.041
180.140	25.606	1524.941	1250.968
181.154	25.738	1523.825	1250.853
182.169	25.826	1522.675	1250.411
183.183	25.905	1521.656	1250.012
184.198	25.809	1520.822	1248.554
185.213	25.781	1520.326	1247.840
186.227	25.830	1519.009	1246.985
187.242	25.902	1518.230	1246.737
188.256	25.805	1517.846	1245.642
189.271	25.829	1516.944	1244.951
190.286	25.828	1515.839	1243.929
191.300	25.814	1515.071	1243.095
192.315	25.884	1514.090	1242.664
193.329	25.886	1512.792	1241.497
194.344	25.852	1511.624	1240.195
195.359	25.860	1511.272	1239.851
196.373	25.861	1510.668	1239.253
197.388	25.829	1509.619	1238.068
198.402	25.736	1509.058	1236.860
199.417	25.653	1508.282	1235.541
200.432	25.722	1507.320	1235.119
201.446	25.771	1506.400	1234.592
202.461	25.854	1505.455	1234.275
203.475	25.832	1504.660	1233.365
204.490	25.743	1503.877	1232.003
205.504	25.822	1503.183	1231.866
206.519	25.839	1502.174	1231.045
207.534	25.855	1501.149	1230.207
208.548	25.899	1500.482	1229.853
209.563	25.870	1499.718	1228.919
210.577	25.752	1498.660	1227.142
211.592	25.946	1497.474	1227.377
212.607	25.846	1496.843	1226.073
213.621	25.894	1496.612	1226.107
214.636	25.953	1495.868	1225.783
215.650	26.055	1494.380	1225.155
216.665	25.914	1494.221	1223.955
217.680	25.986	1492.872	1223.231
218.694	25.934	1492.230	1222.243
219.709	25.988	1491.272	1221.717
220.723	25.962	1491.008	1221.216
221.738	25.937	1489.942	1220.068
222.753	26.016	1489.440	1220.083
223.767	25.914	1488.172	1218.245
224.782	25.954	1487.236	1217.642
225.796	25.851	1487.133	1216.755
226.811	25.991	1486.042	1216.698
227.826	26.072	1484.999	1216.284
228.840	26.055	1484.334	1215.516
229.855	25.952	1483.684	1214.183
230.869	25.993	1482.711	1213.556
231.884	25.914	1482.234	1212.528
232.899	26.022	1480.855	1212.016
233.913	26.027	1479.457	1210.795
234.928	26.014	1478.895	1210.144
235.942	25.961	1478.060	1208.997
236.957	26.126	1476.914	1209.059
237.972	26.075	1475.780	1207.683
238.986	26.111	1474.588	1206.841
240.001	26.064	1473.954	1205.898
241.015	26.058	1473.279	1205.200
242.030	26.215	1471.741	1204.881
243.045	26.263	1470.672	1204.221
244.059	26.206	1470.309	1203.439
245.074	26.244	1469.242	1202.714
246.088	26.289	1468.391	1202.205
247.103	26.219	1468.127	1201.419
248.117	26.238	1467.124	1200.621
249.132	26.283	1466.329	1200.160
250.147	26.163	1465.891	1198.900
251.161	26.328	1464.509	1198.760
252.176	26.417	1464.061	1198.876
253.190	26.314	1463.540	1197.659
254.205	26.315	1462.716	1196.889
255.220	26.361	1461.598	1196.169
256.234	26.340	1461.000	1195.434
257.249	26.268	1460.480	1194.426
258.263	26.353	1459.412	1194.010
259.278	26.338	1458.662	1193.189
260.293	26.321	1458.016	1192.445
261.307	26.309	1457.406	1191.764
262.322	26.330	1456.429	1190.999
263.336	26.406	1455.664	1190.765
264.351	26.340	1455.157	1189.813
265.366	26.375	1453.838	1188.861
266.380	26.366	1452.697	1187.761
267.395	26.403	1452.046	1187.366
268.409	26.355	1451.583	1186.568
269.424	26.336	1451.058	1185.908
270.439	26.336	1449.590	1184.605
271.453	26.428	1448.744	1184.409
272.468	26.355	1448.187	1183.374
273.482	26.395	1447.682	1183.118
274.497	26.484	1446.434	1182.576
275.512	26.388	1445.654	1181.206
276.526	26.457	1444.925	1180.954
277.541	26.480	1444.372	1180.548
278.555	26.471	1443.222	1179.443
279.570	26.463	1442.412	1178.625
280.585	26.477	1441.502	1177.873
281.599	26.504	1440.563	1177.176
282.614	26.503	1439.691	1176.352
283.628	26.453	1438.932	1175.302
284.643	26.430	1438.031	1174.313
285.657	26.511	1436.934	1173.838
286.672	26.403	1436.393	1172.593
287.687	26.503	1435.302	1172.246
288.701	26.437	1434.413	1170.991
289.716	26.499	1434.191	1171.108
290.730	26.655	1433.300	1171.280
291.745	26.614	1432.613	1170.353
292.760	26.606	1431.648	1169.412
293.774	26.580	1430.733	1168.388
294.789	26.592	1429.880	1167.669
295.803	26.627	1429.204	1167.240
296.818	26.674	1428.246	1166.655
297.833	26.632	1427.313	1165.522
298.847	26.630	1426.633	1164.849
299.862	26.709	1425.873	1164.633
300.876	26.742	1425.048	1164.066
301.891	26.683	1424.179	1162.876
302.906	26.714	1423.369	1162.313
303.920	26.808	1422.924	1162.444
304.935	26.642	1422.503	1160.938
305.949	26.664	1421.772	1160.377
306.964	26.710	1420.683	1159.680
307.979	26.725	1419.568	1158.766
308.993	26.704	1418.783	1157.887
310.008	26.723	1418.071	1157.326
311.022	26.854	1416.767	1156.995
312.037	26.722	1416.129	1155.527
313.052	26.820	1415.104	1155.216
314.066	26.842	1414.268	1154.569
315.081	26.830	1413.516	1153.779
316.095	26.770	1412.788	1152.698
317.110	26.774	1411.662	1151.700
318.125	26.796	1411.154	1151.327
319.139	26.886	1410.183	1151.004
320.154	26.868	1408.885	1149.730
321.168	26.849	1408.355	1149.076
322.183	26.885	1407.750	1148.708
323.197	26.860	1406.579	1147.489
324.212	26.933	1405.497	1146.967
325.227	26.896	1405.090	1146.299
326.241	26.875	1404.495	1145.583
327.256	26.883	1403.792	1144.958
328.270	26.996	1402.640	1144.629
329.285	26.943	1402.208	1143.842
330.300	27.004	1400.843	1143.009
331.314	26.927	1400.187	1141.888
332.329	27.135	1399.087	1142.198
333.343	27.015	1398.627	1140.966
334.358	26.947	1398.353	1140.215
335.373	27.108	1397.476	1140.414
336.387	27.081	1396.688	1139.500
337.402	26.997	1396.274	1138.533
338.416	27.105	1395.730	1138.664
339.431	27.039	1395.014	1137.567
340.446	27.067	1394.526	1137.245
341.460	27.193	1393.393	1137.010
342.475	27.204	1392.460	1136.215
343.489	27.075	1391.954	1134.898
344.504	27.179	1390.508	1134.266
345.519	27.174	1389.766	1133.529
346.533	27.163	1388.926	1132.676
347.548	27.151	1388.095	1131.821
348.562	27.266	1387.099	1131.621
349.577	27.194	1386.721	1130.769
350.592	27.185	1385.756	1129.826
351.606	27.242	1385.049	1129.504
352.621	27.121	1383.960	1127.763
353.635	27.064	1383.574	1126.996
354.650	27.150	1382.633	1126.659
355.665	27.221	1381.546	1126.119
356.679	27.204	1381.082	1125.534
357.694	27.356	1379.364	1124.976
358.708	27.332	1378.656	1124.150
359.723	27.276	1377.183	1122.500
360.738	27.255	1376.265	1121.526
361.752	27.210	1375.613	1120.615
362.767	27.278	1374.490	1120.024
363.781	27.273	1373.389	1118.993
364.796	27.371	1372.493	1118.767
365.810	27.423	1372.110	1118.679
366.825	27.443	1371.081	1117.861
367.840	27.388	1370.769	1117.173
368.854	27.453	1370.335	1117.119
369.869	27.431	1369.463	1116.172
370.883	27.435	1369.055	1115.764
371.898	27.446	1368.398	1115.201
372.913	27.520	1367.686	1114.971
373.927	27.507	1366.559	1113.876
374.942	27.385	1365.660	1112.300
375.956	27.488	1365.095	1112.368
376.971	27.461	1364.415	1111.553
377.986	27.453	1363.675	1110.800
379.000	27.532	1362.643	1110.343
380.015	27.534	1361.934	1109.682
381.029	27.539	1361.505	1109.266
382.044	27.487	1360.750	1108.233
383.059	27.506	1360.324	1107.908
384.073	27.593	1359.633	1107.775
385.088	27.556	1359.216	1107.112
386.102	27.587	1358.260	1106.424
387.117	27.618	1357.633	1105.998
388.132	27.576	1357.214	1105.309
389.146	27.663	1355.990	1104.738
390.161	27.609	1355.684	1104.066
391.175	27.577	1355.309	1103.471
392.190	27.677	1354.287	1103.144
393.205	27.668	1353.404	1102.272
394.219	27.654	1352.744	1101.549
395.234	27.602	1351.697	1100.289
396.248	27.744	1350.287	1099.898
397.263	27.775	1349.508	1099.353
398.278	27.765	1348.192	1098.125
399.292	27.728	1347.789	1097.476
400.307	27.808	1346.855	1097.103
401.321	27.795	1345.894	1096.145
402.336	27.699	1344.972	1094.717
403.350	27.688	1344.106	1093.851
404.365	27.695	1343.160	1093.024
405.380	27.832	1342.250	1093.007
406.394	27.817	1341.435	1092.157
407.409	27.802	1340.971	1091.597
408.423	27.870	1340.160	1091.243
409.438	27.917	1339.112	1090.574
410.453	27.985	1338.276	1090.203
411.467	27.932	1337.964	1089.538
412.482	27.925	1337.186	1088.763
413.496	27.880	1336.928	1088.188
414.511	27.839	1335.964	1087.064
415.526	28.010	1335.108	1087.292
416.540	28.038	1334.189	1086.611
417.555	27.938	1333.706	1085.527
418.569	27.927	1333.155	1084.916
419.584	27.941	1332.789	1084.609
420.599	28.108	1332.119	1084.959
421.613	69.021	1307.119	1296.222
422.628	69.733	1303.463	1296.385
