DTS Sentinel unit serial number:	SN413079Multiplexer serial number:	ORYXHardware model number:	OX4-SRSoftware version number:	ORYX F/W v4.00 Oryx Data Collector v3.7.2.0data status	okinstallation	princeton_trtdifferential loss correction	single-endedforward channel	channel 4reverse channel	N/Adate	2019/09/11time	08:43:10forward acquisition time	60.00reverse acquisition time	0.00gamma	496.2192k internal	0.2302k external	0.2302temperature offset calibration	0.9972default loss term (dB/km)	0.3790temperature slope calibration	1.0000multiplexer offset coefficient	1.0000multiplexer slope coefficient	1.0000fibre end	0.00T internal ref (°C)	33.58T ext. ref 1 (°C)	0.12T ext. ref 2 (°C)	31.12length (m)	temperature (°C)	Stokes	anti-Stokes-747.200	-72.710	0.171	0.064
-746.185	174.460	-0.037	-0.055
-745.171	589.544	-0.114	-0.287
-744.156	94.508	0.159	-0.184
-743.142	309.060	0.094	-0.180
-742.127	-54.381	-0.224	-0.103
-741.112	-200.000	-0.045	-0.272
-740.098	347.381	0.106	-0.213
-739.083	-60.329	0.192	0.083
-738.069	81.723	-0.105	0.116
-737.054	8.394	-0.149	0.114
-736.039	278.199	-0.242	0.440
-735.025	-122.372	0.273	0.045
-734.010	17.606	-0.355	-0.288
-732.996	3.361	-0.018	-0.014
-731.981	-90.517	0.355	-0.105
-730.966	61.054	0.172	0.174
-729.952	-36.232	-0.176	0.097
-728.937	-44.656	-0.339	-0.173
-727.923	29.243	0.132	0.114
-726.908	-200.000	-0.047	-0.499
-725.894	-200.000	0.009	-0.090
-724.879	-152.919	-0.328	-0.024
-723.864	800.000	-0.043	-0.188
-722.850	-33.601	-0.061	0.034
-721.835	65.767	-0.017	0.017
-720.821	23.108	0.038	-0.032
-719.806	364.838	-0.073	-0.149
-718.791	76.582	-0.114	-0.123
-717.777	-55.485	-0.405	0.185
-716.762	-23.749	-0.043	-0.026
-715.748	-194.067	0.211	-0.002
-714.733	-200.000	0.027	-0.147
-713.718	-119.888	0.316	-0.055
-712.704	77.933	-0.211	-0.229
-711.689	-68.096	0.476	-0.189
-710.675	800.000	0.072	-0.269
-709.660	-108.644	0.100	-0.022
-708.645	-200.000	0.004	-0.230
-707.631	151.395	-0.113	0.157
-706.616	-99.959	-0.048	0.012
-705.602	-89.209	-0.192	0.058
-704.587	-48.241	0.186	-0.092
-703.572	-156.552	0.195	-0.012
-702.558	-200.000	-0.030	0.143
-701.543	51.429	0.060	0.058
-700.529	135.941	0.305	-0.404
-699.514	201.823	-0.050	0.078
-698.499	205.750	-0.009	-0.015
-697.485	101.178	0.153	-0.181
-696.470	800.000	-0.075	-0.284
-695.456	303.112	-0.157	-0.295
-694.441	-82.529	-0.233	-0.077
-693.426	800.000	0.054	-0.167
-692.412	-200.000	-0.009	-0.039
-691.397	-99.403	-0.207	0.053
-690.383	-200.000	0.018	-0.118
-689.368	26.111	0.223	0.189
-688.354	124.105	-0.106	0.136
-687.339	-32.614	-0.347	-0.196
-686.324	-200.000	-0.029	-0.178
-685.310	-72.122	0.148	0.056
-684.295	653.163	-0.013	-0.034
-683.281	70.477	-0.124	0.130
-682.266	-62.109	-0.380	0.161
-681.251	158.336	0.187	0.263
-680.237	-200.000	0.003	0.077
-679.222	800.000	-0.049	-0.156
-678.208	800.000	0.081	-0.260
-677.193	144.050	-0.181	0.245
-676.178	27.196	0.264	-0.226
-675.164	292.912	0.056	-0.103
-674.149	-200.000	-0.005	-0.051
-673.135	-144.601	-0.240	-0.023
-672.120	800.000	0.031	0.107
-671.105	-115.697	-0.266	0.051
-670.091	800.000	0.085	-0.298
-669.076	222.961	0.090	0.147
-668.062	76.701	0.024	0.026
-667.047	-200.000	-0.025	0.189
-666.032	-77.885	0.232	0.081
-665.018	-200.000	0.013	-0.067
-664.003	675.192	0.102	-0.270
-662.989	-200.000	-0.001	0.154
-661.974	-174.010	-0.419	-0.013
-660.959	198.781	0.187	-0.291
-659.945	107.457	0.062	0.075
-658.930	147.908	0.165	-0.225
-657.916	-24.933	0.179	-0.108
-656.901	329.948	0.056	0.109
-655.886	352.769	0.183	0.368
-654.872	79.396	-0.151	0.164
-653.857	31.521	-0.186	-0.163
-652.843	48.184	0.235	0.223
-651.828	-61.378	0.131	-0.056
-650.814	-75.221	-0.416	-0.151
-649.799	-87.545	0.112	-0.034
-648.784	71.140	-0.267	-0.281
-647.770	72.527	-0.177	-0.188
-646.755	-75.261	-0.283	-0.103
-645.741	248.580	-0.071	0.123
-644.726	17.531	-0.028	-0.023
-643.711	37.757	-0.256	-0.230
-642.697	-56.287	-0.192	0.087
-641.682	94.539	0.022	0.025
-640.668	-168.155	-0.207	-0.008
-639.653	-117.046	-0.162	0.030
-638.638	-126.239	-0.358	-0.054
-637.624	57.509	0.076	-0.075
-636.609	369.037	0.178	-0.365
-635.595	-127.290	-0.142	0.021
-634.580	-99.130	0.106	0.027
-633.565	37.480	0.109	-0.098
-632.551	293.064	-0.198	0.367
-631.536	-49.024	0.145	-0.070
-630.522	351.862	-0.066	0.133
-629.507	-42.671	0.137	-0.071
-628.492	593.310	0.106	0.267
-627.478	800.000	0.097	0.346
-626.463	-163.409	-0.132	0.006
-625.449	44.734	-0.227	0.212
-624.434	38.575	0.205	0.185
-623.419	800.000	-0.064	0.266
-622.405	-87.832	0.031	0.009
-621.390	528.742	0.028	-0.067
-620.376	800.000	0.019	-0.053
-619.361	-200.000	-0.000	0.013
-618.346	499.602	-0.080	-0.188
-617.332	-200.000	0.012	-0.080
-616.317	129.527	-0.078	-0.101
-615.303	19.914	0.081	0.066
-614.288	66.146	0.165	0.170
-613.273	82.764	0.053	-0.059
-612.259	97.646	-0.128	-0.149
-611.244	117.649	-0.155	-0.194
-610.230	67.788	0.222	-0.230
-609.215	-33.954	-0.287	0.160
-608.201	800.000	0.033	-0.125
-607.186	-52.128	0.222	0.104
-606.171	265.042	-0.146	-0.259
-605.157	18.041	0.276	-0.223
-604.142	398.013	0.107	0.227
-603.128	2.198	-0.234	-0.172
-602.113	-38.081	-0.133	0.071
-601.098	38.258	-0.326	-0.294
-600.084	-200.000	0.017	0.133
-599.069	-32.103	0.244	0.138
-598.055	-200.000	-0.071	-0.536
-597.040	-200.000	0.052	-0.302
-596.025	22.759	-0.186	0.154
-595.011	136.876	-0.175	0.232
-593.996	-112.770	0.342	0.069
-592.982	5.962	0.317	-0.238
-591.967	57.669	-0.037	0.036
-590.952	-129.460	0.104	-0.015
-589.938	800.000	0.023	0.080
-588.923	-200.000	-0.141	0.000
-587.909	663.313	-0.065	0.169
-586.894	357.552	-0.088	0.177
-585.879	800.000	0.040	0.135
-584.865	44.576	0.046	-0.043
-583.850	102.418	0.179	-0.212
-582.836	37.001	-0.086	0.077
-581.821	164.268	-0.163	-0.233
-580.806	-54.343	-0.032	-0.015
-579.792	-200.000	-0.008	0.105
-578.777	281.300	0.158	-0.287
-577.763	58.644	-0.035	0.035
-576.748	138.986	0.130	-0.173
-575.733	-10.130	-0.072	0.048
-574.719	47.983	-0.057	-0.054
-573.704	370.166	-0.187	-0.384
-572.690	741.405	-0.042	-0.115
-571.675	-41.157	-0.291	0.152
-570.661	148.391	0.166	-0.227
-569.646	521.280	0.040	-0.096
-568.631	18.954	-0.254	-0.206
-567.617	86.113	-0.233	-0.260
-566.602	-136.387	-0.164	-0.019
-565.588	-200.000	-0.019	-0.256
-564.573	162.078	-0.280	-0.397
-563.558	-200.000	-0.014	-0.448
-562.544	-25.770	0.179	0.107
-561.529	800.000	-0.105	-0.334
-560.515	282.780	0.100	0.181
-559.500	-26.588	-0.170	-0.100
-558.485	-79.698	0.146	-0.050
-557.471	-194.660	0.112	0.001
-556.456	451.889	-0.107	-0.239
-555.442	-200.000	0.026	-0.117
-554.427	-35.114	0.075	-0.042
-553.412	-200.000	-0.033	-0.238
-552.398	-68.824	0.148	-0.058
-551.383	-160.808	-0.164	0.009
-550.369	-125.425	-0.145	-0.022
-549.354	62.785	0.171	-0.173
-548.339	397.323	0.221	-0.467
-547.325	-159.045	-0.248	-0.014
-546.310	651.914	-0.118	-0.305
-545.296	-200.000	0.047	0.340
-544.281	447.501	0.038	-0.085
-543.266	-51.546	-0.263	0.124
-542.252	-148.149	-0.081	0.007
-541.237	-80.232	-0.344	-0.117
-540.223	315.523	0.110	0.209
-539.208	-135.834	-0.093	0.011
-538.193	-69.489	0.355	0.137
-537.179	-27.183	0.252	-0.148
-536.164	-11.500	0.368	-0.244
-535.150	-200.000	-0.018	-0.099
-534.135	-22.502	-0.124	0.076
-533.121	71.905	0.082	0.086
-532.106	-200.000	0.005	0.131
-531.091	-93.324	0.392	0.110
-530.077	11.227	-0.044	-0.034
-529.062	-200.000	-0.008	-0.204
-528.048	-17.534	-0.307	-0.195
-527.033	317.719	-0.099	-0.189
-526.018	-92.293	-0.052	0.015
-525.004	75.210	0.207	0.221
-523.989	800.000	0.088	0.250
-522.975	-169.915	0.188	0.007
-521.960	-22.564	-0.373	0.228
-520.945	800.000	-0.050	0.143
-519.931	46.289	0.168	-0.157
-518.916	-72.993	0.324	0.120
-517.902	-98.294	0.258	0.067
-516.887	-200.000	0.007	-0.223
-515.872	97.270	-0.086	0.100
-514.858	-132.734	0.104	0.013
-513.843	165.062	0.247	0.352
-512.829	-7.999	-0.194	0.132
-511.814	-140.189	-0.094	-0.010
-510.799	-200.000	0.026	0.185
-509.785	-15.026	0.182	-0.118
-508.770	261.127	-0.141	-0.246
-507.756	19.390	0.076	0.062
-506.741	72.203	-0.155	-0.162
-505.726	-25.255	0.229	-0.137
-504.712	109.283	0.175	-0.212
-503.697	-101.561	-0.214	0.053
-502.683	-200.000	-0.004	-0.096
-501.668	800.000	-0.094	-0.330
-500.653	800.000	-0.086	0.255
-499.639	800.000	0.052	0.221
-498.624	299.486	0.138	0.257
-497.610	157.300	-0.174	-0.242
-496.595	800.000	-0.062	-0.182
-495.581	135.934	-0.060	-0.079
-494.566	800.000	0.107	0.405
-493.551	20.662	0.182	0.149
-492.537	-200.000	0.015	-0.220
-491.522	-200.000	0.017	-0.107
-490.508	-80.626	0.381	0.128
-489.493	-200.000	0.059	-0.000
-488.478	22.072	0.259	-0.213
-487.464	-157.329	-0.040	-0.002
-486.449	48.589	-0.102	-0.096
-485.435	716.709	-0.121	-0.325
-484.420	-13.905	0.234	-0.153
-483.405	-112.652	-0.307	-0.062
-482.391	-107.360	-0.141	0.031
-481.376	125.047	-0.117	-0.149
-480.362	76.755	0.216	0.232
-479.347	800.000	0.042	0.119
-478.332	-46.507	-0.177	0.087
-477.318	58.176	0.166	0.164
-476.303	5.118	0.137	-0.102
-475.289	183.881	-0.135	-0.202
-474.274	-200.000	-0.003	-0.180
-473.259	-136.458	-0.393	-0.046
-472.245	151.838	-0.098	0.135
-471.230	-168.436	-0.159	-0.006
-470.216	122.972	-0.128	-0.161
-469.201	190.782	0.093	0.142
-468.186	11.901	-0.188	0.145
-467.172	800.000	-0.075	0.254
-466.157	-200.000	-0.014	0.073
-465.143	513.212	-0.094	0.220
-464.128	226.540	-0.106	0.174
-463.113	105.391	0.112	-0.133
-462.099	-24.653	-0.185	0.111
-461.084	800.000	0.065	-0.211
-460.070	-200.000	-0.044	0.242
-459.055	513.076	0.069	-0.161
-458.040	800.000	0.076	0.267
-457.026	-147.567	0.184	0.016
-456.011	-200.000	-0.002	0.243
-454.997	226.631	0.097	-0.159
-453.982	-200.000	-0.055	0.475
-452.968	-200.000	0.022	-0.170
-451.953	-45.994	-0.193	-0.096
-450.938	-4.147	-0.197	0.138
-449.924	-200.000	0.064	0.541
-448.909	248.024	-0.084	0.144
-447.895	-39.104	0.288	0.153
-446.880	800.000	0.036	-0.158
-445.865	-99.597	0.343	-0.087
-444.851	-200.000	-0.042	-0.339
-443.836	-200.000	-0.025	0.180
-442.822	161.579	0.053	0.075
-441.807	-8.360	0.105	-0.071
-440.792	364.921	-0.109	0.222
-439.778	-200.000	0.024	-0.218
-438.763	-200.000	-0.010	-0.269
-437.749	-200.000	-0.137	0.000
-436.734	800.000	0.107	0.355
-435.719	-66.533	-0.185	-0.074
-434.705	-45.862	-0.111	-0.055
-433.690	563.949	-0.070	-0.170
-432.676	-106.857	-0.194	0.043
-431.661	-17.140	-0.250	0.159
-430.646	-200.000	0.039	0.185
-429.632	418.764	-0.088	0.188
-428.617	368.881	-0.127	-0.259
-427.603	55.582	0.221	0.215
-426.588	-48.046	0.110	-0.053
-425.573	-200.000	-0.028	-0.171
-424.559	-200.000	-0.047	0.218
-423.544	-144.640	-0.259	0.024
-422.530	625.666	0.097	0.245
-421.515	-167.232	0.182	0.007
-420.500	800.000	0.023	0.073
-419.486	1.645	-0.243	-0.176
-418.471	-200.000	0.034	0.264
-417.457	-119.602	0.434	0.076
-416.442	114.796	-0.087	0.107
-415.428	-98.164	0.199	-0.051
-414.413	-177.238	-0.033	0.001
-413.398	94.166	-0.081	0.093
-412.384	112.337	0.135	0.164
-411.369	-158.651	-0.144	-0.008
-410.355	357.924	0.292	-0.586
-409.340	-82.256	-0.155	0.051
-408.325	21.987	-0.142	0.117
-407.311	28.833	-0.239	-0.204
-406.296	314.749	-0.075	-0.141
-405.282	-40.375	-0.293	0.153
-404.267	83.165	0.115	-0.126
-403.252	800.000	-0.114	0.320
-402.238	219.207	-0.103	0.166
-401.223	-164.291	0.209	-0.010
-400.209	800.000	0.102	0.344
-399.194	-46.760	0.268	-0.132
-398.179	-31.272	-0.259	0.146
-397.165	-200.000	-0.033	0.180
-396.150	-200.000	-0.027	0.162
-395.136	407.941	-0.135	-0.287
-394.121	129.295	-0.106	-0.136
-393.106	-123.591	-0.026	-0.004
-392.092	19.746	-0.100	0.081
-391.077	239.675	0.080	-0.134
-390.063	-10.281	0.270	-0.180
-389.048	556.204	-0.112	-0.271
-388.033	-109.532	-0.253	-0.054
-387.019	515.367	0.121	-0.284
-386.004	-94.837	0.147	-0.040
-384.990	132.650	0.043	-0.056
-383.975	-191.335	0.194	-0.002
-382.960	-200.000	-0.014	0.114
-381.946	-126.627	-0.272	-0.041
-380.931	66.497	-0.116	-0.118
-379.917	-139.650	0.145	-0.015
-378.902	-95.328	-0.144	0.039
-377.888	324.491	0.133	-0.256
-376.873	351.378	0.157	-0.313
-375.858	-140.754	-0.155	-0.016
-374.844	-100.178	-0.101	-0.025
-373.829	758.143	-0.039	-0.107
-372.815	-119.204	-0.117	-0.020
-371.800	-126.646	-0.450	-0.067
-370.785	-153.187	-0.196	-0.014
-369.771	800.000	0.032	0.094
-368.756	-152.896	0.113	0.008
-367.742	266.690	0.054	0.094
-366.727	731.848	-0.104	-0.278
-365.712	-12.511	-0.118	0.077
-364.698	-38.698	0.085	0.045
-363.683	-66.839	-0.133	0.053
-362.669	-200.000	0.050	-0.265
-361.654	-68.308	0.113	-0.044
-360.639	-46.814	0.246	0.121
-359.625	119.004	-0.191	0.237
-358.610	-5.662	0.129	0.089
-357.596	19.029	-0.106	-0.085
-356.581	-61.887	0.262	-0.110
-355.566	257.690	-0.144	0.249
-354.552	800.000	-0.067	0.209
-353.537	305.277	-0.068	0.126
-352.523	-86.708	0.530	0.163
-351.508	-46.128	0.140	-0.069
-350.493	-141.987	0.144	-0.014
-349.479	-124.522	0.170	0.026
-348.464	176.312	0.080	-0.117
-347.450	800.000	-0.024	0.072
-346.435	-16.105	-0.220	-0.141
-345.420	142.754	0.098	0.130
-344.406	-24.121	-0.259	0.155
-343.391	-171.671	-0.132	-0.004
-342.377	-200.000	-0.012	-0.250
-341.362	236.381	0.036	0.060
-340.348	-200.000	-0.007	0.121
-339.333	-77.994	-0.150	0.052
-338.318	-58.850	0.097	-0.042
-337.304	-38.612	-0.049	-0.026
-336.289	-124.203	-0.327	-0.051
-335.275	-107.476	0.275	-0.061
-334.260	-123.325	-0.403	-0.064
-333.245	-96.389	0.293	0.078
-332.231	800.000	0.159	-0.488
-331.216	33.305	0.284	0.247
-330.202	452.558	-0.130	0.288
-329.187	800.000	0.111	0.400
-328.172	46.879	-0.134	-0.125
-327.158	186.709	-0.092	0.137
-326.143	-82.523	0.065	-0.021
-325.129	597.768	-0.067	0.167
-324.114	-200.000	-0.016	0.384
-323.099	27.819	-0.177	0.150
-322.085	459.423	-0.117	0.261
-321.070	800.000	0.022	-0.072
-320.056	215.858	-0.161	0.257
-319.041	-80.404	0.274	0.092
-318.026	-97.525	0.063	0.016
-317.012	-111.581	0.292	-0.059
-315.997	-200.000	0.009	0.158
-314.983	-116.986	0.187	-0.034
-313.968	-99.043	0.183	0.046
-312.953	665.025	0.077	-0.200
-311.939	43.764	0.055	0.050
-310.924	73.959	-0.062	-0.065
-309.910	0.981	0.110	-0.079
-308.895	-145.313	0.370	0.033
-307.880	800.000	0.038	0.143
-306.866	-200.000	0.040	0.284
-305.851	-12.516	0.234	-0.153
-304.837	800.000	0.087	0.379
-303.822	-22.686	-0.221	0.134
-302.807	-200.000	-0.037	0.279
-301.793	-78.661	0.136	-0.047
-300.778	-116.432	-0.089	0.017
-299.764	-72.655	-0.170	0.063
-298.749	-69.793	0.021	0.008
-297.735	9.611	0.170	-0.129
-296.720	-146.931	-0.099	0.009
-295.705	11.764	0.144	-0.111
-294.691	-85.425	0.264	0.083
-293.676	800.000	0.042	-0.146
-292.662	800.000	0.085	-0.313
-291.647	52.766	-0.156	-0.150
-290.632	-135.015	0.051	-0.006
-289.618	545.513	0.081	-0.195
-288.603	61.771	-0.180	-0.179
-287.589	-65.855	0.296	-0.118
-286.574	-200.000	-0.025	0.160
-285.559	178.079	-0.226	0.330
-284.545	344.526	0.107	0.209
-283.530	-94.910	-0.199	0.054
-282.516	451.184	-0.122	0.270
-281.501	103.277	-0.217	0.254
-280.486	-28.681	-0.177	0.102
-279.472	631.786	-0.051	0.128
-278.457	152.668	0.084	0.115
-277.443	-60.365	-0.074	0.032
-276.428	130.316	0.205	-0.263
-275.413	-14.771	-0.138	0.088
-274.399	113.822	-0.120	0.146
-273.384	430.158	0.154	0.333
-272.370	-91.823	-0.226	0.064
-271.355	56.489	-0.078	0.076
-270.340	800.000	0.037	-0.141
-269.326	-57.863	0.178	-0.078
-268.311	152.506	0.211	0.289
-267.297	800.000	0.051	0.181
-266.282	-82.526	0.234	0.076
-265.267	-86.145	-0.294	-0.091
-264.253	55.093	-0.038	0.037
-263.238	144.831	0.249	-0.333
-262.224	-200.000	-0.056	-0.263
-261.209	-88.547	-0.291	-0.087
-260.195	208.511	-0.114	0.179
-259.180	-43.985	0.329	-0.165
-258.165	-30.534	0.486	0.276
-257.151	55.654	0.064	0.062
-256.136	-189.280	-0.070	0.001
-255.122	-200.000	-0.011	-0.076
-254.107	800.000	-0.103	0.330
-253.092	-127.610	0.147	0.021
-252.078	-3.742	0.024	-0.017
-251.063	800.000	0.065	0.212
-250.049	-51.141	-0.088	-0.041
-249.034	23.477	0.125	0.102
-248.019	605.283	-0.137	0.341
-247.005	-52.021	-0.119	0.055
-245.990	1.316	-0.232	-0.167
-244.976	-200.000	-0.006	-0.232
-243.961	-200.000	-0.008	-0.092
-242.946	-13.261	0.020	-0.013
-241.932	402.578	0.098	-0.207
-240.917	-54.555	0.071	0.032
-239.903	-149.024	-0.138	0.011
-238.888	178.843	0.080	0.117
-237.873	800.000	0.061	0.189
-236.859	31.579	-0.052	-0.045
-235.844	-43.486	-0.199	0.100
-234.830	-95.355	0.224	-0.060
-233.815	36.538	0.126	-0.111
-232.800	1.112	-0.542	0.388
-231.786	-124.503	-0.515	0.080
-230.771	-135.689	0.361	0.043
-229.757	-11.952	0.254	0.166
-228.742	9.561	0.076	0.057
-227.727	15.414	-0.231	-0.181
-226.713	-10.804	0.330	0.218
-225.698	-200.000	0.045	0.306
-224.684	-200.000	0.020	0.186
-223.669	800.000	0.015	0.045
-222.655	-91.461	0.247	-0.070
-221.640	-24.838	-0.317	-0.188
-220.625	-77.145	0.249	0.087
-219.611	-72.586	-0.233	0.086
-218.596	800.000	-0.039	-0.115
-217.582	800.000	-0.037	-0.145
-216.567	-165.640	-0.168	0.007
-215.552	-200.000	-0.052	-0.246
-214.538	800.000	0.088	0.328
-213.523	-200.000	0.036	-0.265
-212.509	800.000	-0.072	0.231
-211.494	-177.038	0.229	0.006
-210.479	-99.419	-0.233	-0.059
-209.465	6.986	0.195	-0.145
-208.450	12.184	0.204	-0.157
-207.436	285.552	-0.074	0.132
-206.421	35.362	0.237	0.208
-205.406	230.228	-0.082	-0.135
-204.392	-200.000	0.004	-0.173
-203.377	-98.147	-0.109	-0.028
-202.363	222.020	0.200	-0.322
-201.348	122.805	0.100	0.125
-200.333	92.350	0.168	0.189
-199.319	-63.281	0.326	0.134
-198.304	-32.978	-0.193	-0.107
-197.290	-169.985	-0.206	-0.007
-196.275	-200.000	-0.001	0.008
-195.260	-200.000	0.027	0.171
-194.246	-142.493	-0.150	-0.015
-193.231	-74.309	0.103	-0.037
-192.217	-2.298	-0.341	0.238
-191.202	472.972	0.065	-0.147
-190.187	800.000	0.020	0.067
-189.173	754.556	0.050	0.135
-188.158	-200.000	0.006	0.041
-187.144	224.768	-0.054	0.088
-186.129	-122.785	0.123	-0.020
-185.114	271.548	0.085	-0.149
-184.100	-69.820	0.174	0.066
-183.085	-51.063	-0.315	-0.147
-182.071	111.878	0.120	0.144
-181.056	-200.000	-0.006	-0.082
-180.042	-105.506	0.148	0.034
-179.027	767.630	0.099	0.270
-178.012	-88.795	0.025	0.007
-176.998	-200.000	0.020	-0.222
-175.983	688.487	0.067	-0.176
-174.969	-200.000	-0.055	-0.265
-173.954	-200.000	0.047	-0.354
-172.939	-200.000	-0.031	-0.345
-171.925	170.434	0.146	-0.208
-170.910	800.000	-0.024	0.079
-169.896	-200.000	-0.015	0.154
-168.881	-38.000	0.320	-0.169
-167.866	-200.000	0.013	-0.112
-166.852	287.987	-0.145	-0.262
-165.837	-38.668	-0.110	0.058
-164.823	89.087	-0.097	-0.107
-163.808	29.928	-0.139	-0.118
-162.793	-166.388	-0.165	0.007
-161.779	38.223	0.141	-0.125
-160.764	-129.539	0.376	0.052
-159.750	-42.511	0.287	-0.146
-158.735	800.000	-0.064	-0.181
-157.720	54.269	-0.220	0.211
-156.706	-40.230	0.576	0.298
-155.691	-200.000	0.055	-0.368
-154.677	-135.947	-0.079	-0.009
-153.662	536.101	0.102	0.242
-152.647	156.249	-0.125	0.171
-151.633	-200.000	-0.033	0.327
-150.618	800.000	0.080	0.298
-149.604	195.476	-0.130	-0.196
-148.589	-70.618	0.158	-0.059
-147.574	-80.102	0.314	-0.105
-146.560	-11.320	0.197	-0.129
-145.545	251.794	0.042	-0.071
-144.531	68.523	-0.202	-0.206
-143.516	194.982	-0.127	0.192
-142.502	-38.528	-0.034	0.018
-141.487	114.826	-0.090	-0.109
-140.472	-47.412	0.203	0.098
-139.458	800.000	-0.030	-0.096
-138.443	-114.668	-0.332	-0.063
-137.429	130.388	-0.208	-0.266
-136.414	-49.698	-0.210	0.100
-135.399	127.360	0.245	-0.309
-134.385	277.790	0.108	0.191
-133.370	-106.771	0.286	0.063
-132.356	93.934	-0.106	0.119
-131.341	178.195	0.146	0.212
-130.326	-119.362	-0.184	-0.032
-129.312	721.734	0.055	-0.147
-128.297	452.856	0.088	-0.193
-127.283	-133.256	0.107	-0.013
-126.268	-200.000	-0.065	-0.000
-125.253	-119.988	0.296	0.051
-124.239	16.047	0.178	0.139
-123.224	300.245	-0.152	0.278
-122.210	306.803	-0.179	0.332
-121.195	41.584	-0.255	0.230
-120.180	-147.083	0.178	-0.015
-119.166	-191.155	0.173	-0.002
-118.151	800.000	-0.067	-0.217
-117.137	178.057	-0.065	0.094
-116.122	-135.261	-0.278	-0.033
-115.107	-200.000	0.049	-0.396
-114.093	-200.000	0.015	-0.200
-113.078	77.085	0.235	-0.249
-112.064	-159.831	-0.210	-0.011
-111.049	-1.642	-0.204	-0.143
-110.034	-200.000	-0.015	0.127
-109.020	142.958	0.209	0.277
-108.005	67.162	0.074	-0.075
-106.991	101.231	0.076	-0.088
-105.976	328.179	-0.044	-0.083
-104.962	-48.547	-0.136	-0.065
-103.947	-4.873	-0.220	0.151
-102.932	526.816	0.063	0.148
-101.918	800.000	0.070	-0.269
-100.903	800.000	0.043	-0.170
-99.889	-200.000	0.075	-0.395
-98.874	800.000	-0.026	-0.095
-97.859	-200.000	0.006	-0.097
-96.845	72.415	-0.348	-0.360
-95.830	-29.804	-0.128	0.073
-94.816	283.430	0.085	0.151
-93.801	521.301	-0.094	0.218
-92.786	411.574	0.177	0.373
-91.772	800.000	-0.033	0.121
-90.757	41.337	0.406	0.365
-89.743	-200.000	0.036	-0.169
-88.728	72.213	0.062	-0.064
-87.713	-37.001	-0.184	0.098
-86.699	800.000	-0.059	0.174
-85.684	-115.945	0.152	-0.028
-84.670	-200.000	0.049	-0.382
-83.655	-128.011	-0.310	-0.044
-82.640	64.036	0.188	0.188
-81.626	213.984	-0.060	0.094
-80.611	-82.566	-0.275	0.088
-79.597	-99.626	-0.029	-0.007
-78.582	122.346	0.122	0.151
-77.567	-29.710	0.104	0.059
-76.553	152.380	-0.309	-0.419
-75.538	-48.342	0.024	-0.011
-74.524	-200.000	0.010	0.138
-73.509	-42.395	-0.207	0.105
-72.494	9.172	0.116	-0.087
-71.480	129.617	0.270	0.342
-70.465	-101.851	-0.124	0.030
-69.451	-73.966	0.067	-0.024
-68.436	164.821	-0.198	0.278
-67.422	-116.790	0.154	0.028
-66.407	-151.957	0.155	-0.011
-65.392	52.480	-0.033	-0.031
-64.378	-32.386	-0.351	-0.194
-63.363	-200.000	0.026	0.227
-62.349	253.210	-0.175	0.296
-61.334	-9.607	-0.911	-0.603
-60.319	-200.000	-0.058	0.531
-59.305	-200.000	0.095	-1.080
-58.290	-200.000	0.240	1.090
-57.276	-200.000	0.204	1.507
-56.261	-200.000	99.300	584.026
-55.246	603.217	1417.492	3497.267
-54.232	177.801	2656.103	3841.071
-53.217	109.309	2360.000	2802.338
-52.203	40.299	2105.540	1878.877
-51.188	35.271	2018.817	1755.518
-50.173	33.683	2000.266	1724.903
-49.159	48.340	2053.957	1906.646
-48.144	50.913	2072.999	1947.973
-47.130	36.064	2029.127	1771.502
-46.115	33.636	2017.531	1739.076
-45.100	33.507	2014.908	1735.567
-44.086	33.471	2012.230	1732.863
-43.071	33.453	2009.656	1730.418
-42.057	33.358	2007.597	1727.704
-41.042	33.422	2005.387	1726.316
-40.027	33.432	2004.228	1725.340
-39.013	33.505	2001.330	1723.440
-37.998	33.442	1999.507	1721.232
-36.984	33.430	1998.173	1719.906
-35.969	33.506	1995.718	1718.415
-34.954	33.527	1994.155	1717.196
-33.940	33.491	1993.224	1715.993
-32.925	33.552	1991.378	1714.891
-31.911	33.577	1989.624	1713.536
-30.896	33.613	1987.864	1712.278
-29.881	33.561	1986.752	1710.780
-28.867	33.632	1984.950	1709.807
-27.852	33.631	1982.932	1707.989
-26.838	33.610	1980.687	1705.795
-25.823	33.568	1979.692	1704.493
-24.809	33.566	1978.134	1703.072
-23.794	33.530	1976.058	1700.891
-22.779	33.565	1974.364	1699.683
-21.765	33.623	1972.276	1698.336
-20.750	33.611	1970.700	1696.800
-19.736	33.608	1969.273	1695.481
-18.721	33.598	1968.076	1694.291
-17.706	33.602	1966.146	1692.599
-16.692	33.650	1964.389	1691.450
-15.677	33.642	1962.860	1689.989
-14.663	33.620	1961.057	1688.180
-13.648	33.688	1959.703	1687.546
-12.633	33.621	1958.863	1686.160
-11.619	33.647	1957.370	1685.047
-10.604	33.673	1956.137	1684.142
-9.590	33.561	1955.220	1682.291
-8.575	33.624	1953.433	1681.248
-7.560	33.548	1952.551	1679.755
-6.546	33.614	1950.804	1678.765
-5.531	33.667	1949.693	1678.215
-4.517	33.588	1948.406	1676.340
-3.502	33.637	1947.445	1675.878
-2.487	33.583	1946.270	1674.319
-1.473	33.578	1945.522	1673.571
-0.458	33.714	1941.192	1670.977
0.556	32.011	1921.330	1646.146
1.571	28.312	1903.112	1598.184
2.586	24.793	1927.205	1587.118
3.600	23.964	1965.050	1610.633
4.615	23.248	1959.395	1599.394
5.629	16.865	1853.459	1458.058
6.644	5.901	1728.015	1270.881
7.659	0.656	1689.055	1200.518
8.673	0.223	1685.097	1194.171
9.688	0.135	1683.651	1192.339
10.702	0.082	1682.294	1190.855
11.717	0.030	1678.945	1187.968
12.731	0.313	1678.097	1189.496
13.746	6.928	1694.560	1253.652
14.761	17.402	1718.765	1355.305
15.775	22.440	1727.994	1402.700
16.790	23.214	1728.780	1409.376
17.804	23.323	1727.971	1409.465
18.819	23.321	1727.251	1408.735
19.834	23.493	1726.196	1409.120
20.848	23.654	1726.010	1410.117
21.863	23.697	1725.062	1409.565
22.877	23.693	1724.230	1408.724
23.892	23.788	1722.633	1408.050
24.907	23.669	1722.635	1406.986
25.921	23.672	1721.596	1406.035
26.936	23.669	1720.189	1404.738
27.950	23.802	1719.061	1404.740
28.965	23.728	1718.720	1403.756
29.980	23.763	1717.463	1402.881
30.994	23.700	1716.153	1401.192
32.009	23.750	1714.352	1399.991
33.023	23.661	1713.686	1398.622
34.038	23.713	1713.299	1398.590
35.053	23.669	1712.486	1397.454
36.067	23.667	1711.091	1396.179
37.082	23.682	1710.247	1395.485
38.096	23.731	1708.885	1394.632
39.111	23.653	1708.627	1393.684
40.126	23.618	1707.308	1392.209
41.140	23.715	1706.573	1392.248
42.155	23.701	1705.247	1390.934
43.169	23.631	1704.358	1389.543
44.184	23.683	1703.356	1389.005
45.199	23.685	1702.634	1388.308
46.213	23.636	1700.960	1386.440
47.228	23.699	1699.610	1385.707
48.242	23.671	1698.549	1384.500
49.257	23.751	1697.432	1384.091
50.271	23.672	1696.445	1382.549
51.286	23.671	1694.880	1381.144
52.301	23.677	1693.700	1380.112
53.315	23.662	1692.692	1379.051
54.330	23.655	1691.085	1377.564
55.344	23.718	1689.638	1376.751
56.359	23.677	1688.397	1375.304
57.374	23.704	1687.056	1374.298
58.388	23.658	1686.823	1373.630
59.403	23.619	1685.634	1372.233
60.417	23.754	1683.742	1371.619
61.432	23.746	1683.187	1370.986
62.447	23.713	1682.394	1369.961
63.461	23.678	1680.951	1368.391
64.476	23.683	1680.462	1367.913
65.490	23.747	1678.854	1366.973
66.505	23.701	1677.694	1365.556
67.520	23.660	1676.678	1364.291
68.534	23.664	1675.825	1363.511
69.549	23.715	1674.944	1363.063
70.563	23.783	1673.401	1362.206
71.578	23.693	1672.354	1360.550
72.593	23.751	1671.191	1359.925
73.607	23.764	1670.511	1359.351
74.622	23.761	1669.987	1358.782
75.636	23.647	1668.891	1356.898
76.651	23.782	1667.642	1356.793
77.666	23.748	1666.964	1355.858
78.680	23.700	1666.317	1354.850
79.695	23.771	1664.781	1354.017
80.709	23.768	1663.981	1353.230
81.724	23.787	1663.133	1352.566
82.739	23.685	1662.736	1351.347
83.753	23.613	1661.646	1349.795
84.768	23.816	1659.894	1349.792
85.782	23.708	1659.320	1348.381
86.797	23.683	1658.560	1347.459
87.812	23.645	1657.711	1346.358
88.826	23.788	1656.202	1346.098
89.841	23.669	1655.358	1344.396
90.855	23.736	1654.580	1344.151
91.870	23.810	1653.209	1343.479
92.884	23.683	1653.327	1342.496
93.899	23.742	1651.786	1341.568
94.914	23.787	1650.152	1340.461
95.928	23.763	1649.061	1339.276
96.943	23.704	1648.156	1337.977
97.957	23.792	1646.212	1336.947
98.972	23.829	1644.837	1335.987
99.987	23.757	1643.788	1334.475
101.001	23.725	1642.352	1332.951
102.016	23.687	1641.196	1331.611
103.030	23.707	1639.489	1330.258
104.045	23.722	1638.423	1329.385
105.060	23.692	1636.904	1327.810
106.074	23.764	1635.498	1327.093
107.089	23.800	1634.513	1326.444
108.103	23.727	1633.555	1325.009
109.118	23.795	1632.544	1324.575
110.133	23.847	1630.838	1323.463
111.147	23.835	1629.668	1322.304
112.162	23.858	1628.673	1321.550
113.176	23.830	1627.786	1320.505
114.191	23.808	1626.423	1319.124
115.206	23.817	1625.262	1318.129
116.220	23.836	1624.262	1317.344
117.235	23.801	1622.894	1315.861
118.249	23.749	1622.209	1314.799
119.264	23.784	1620.634	1313.667
120.279	23.755	1619.534	1312.442
121.293	23.839	1618.087	1311.773
122.308	23.841	1616.792	1310.625
123.322	23.852	1615.624	1309.642
124.337	23.789	1614.663	1308.287
125.352	23.916	1613.083	1307.822
126.366	23.811	1612.334	1306.326
127.381	23.939	1611.327	1306.336
128.395	23.808	1610.943	1304.945
129.410	23.897	1609.156	1304.035
130.424	23.874	1608.359	1303.107
131.439	23.884	1606.790	1301.795
132.454	23.859	1605.435	1300.400
133.468	23.849	1604.122	1299.145
134.483	23.865	1603.036	1298.272
135.497	23.888	1601.797	1297.321
136.512	23.857	1600.626	1296.029
137.527	23.860	1599.272	1294.842
138.541	23.854	1598.458	1294.027
139.556	23.852	1597.247	1292.912
140.570	23.916	1595.412	1291.780
141.585	23.785	1594.500	1289.977
142.600	23.907	1592.784	1289.359
143.614	23.805	1592.400	1288.195
144.629	23.823	1591.248	1287.282
145.643	23.875	1589.240	1285.914
146.658	23.782	1588.254	1284.332
147.673	23.759	1587.731	1283.627
148.687	23.790	1586.554	1282.786
149.702	23.823	1585.261	1281.866
150.716	23.857	1583.712	1280.748
151.731	23.788	1582.814	1279.408
152.746	23.894	1581.307	1278.844
153.760	23.862	1580.297	1277.680
154.775	23.904	1579.296	1277.063
155.789	24.084	1577.558	1276.832
156.804	23.871	1576.959	1274.708
157.819	23.911	1575.888	1274.014
158.833	23.828	1575.103	1272.676
159.848	23.933	1573.705	1272.180
160.862	23.921	1573.207	1271.580
161.877	23.920	1571.802	1270.329
162.892	23.914	1570.910	1269.453
163.906	24.029	1570.018	1269.439
164.921	23.951	1569.105	1268.034
165.935	23.975	1567.830	1267.060
166.950	23.974	1567.284	1266.497
167.964	23.874	1566.572	1265.101
168.979	23.908	1565.303	1264.203
169.994	23.993	1564.437	1264.000
171.008	24.006	1563.554	1263.266
172.023	23.979	1562.642	1262.226
173.037	24.088	1561.244	1261.757
174.052	24.029	1560.114	1260.315
175.067	23.992	1559.798	1259.684
176.081	23.998	1558.909	1258.897
177.096	23.964	1557.617	1257.502
178.110	23.980	1556.324	1256.458
179.125	24.002	1555.317	1255.688
180.140	24.012	1554.640	1255.103
181.154	24.141	1553.312	1254.833
182.169	24.145	1552.385	1253.998
183.183	24.080	1551.421	1252.654
184.198	24.003	1550.763	1251.469
185.213	24.066	1550.012	1251.196
186.227	24.072	1548.978	1250.288
187.242	24.093	1548.154	1249.660
188.256	24.180	1547.371	1249.529
189.271	24.088	1546.475	1248.054
190.286	24.093	1545.525	1247.208
191.300	24.159	1544.651	1246.854
192.315	24.139	1543.359	1245.561
193.329	24.074	1543.018	1244.721
194.344	24.100	1541.778	1243.797
195.359	24.149	1541.201	1243.558
196.373	24.124	1540.264	1242.520
197.388	24.093	1538.971	1241.150
198.402	24.062	1538.424	1240.382
199.417	23.985	1537.866	1239.291
200.432	24.046	1536.245	1238.294
201.446	24.090	1535.521	1237.912
202.461	24.067	1534.950	1237.181
203.475	24.088	1534.297	1236.689
204.490	24.204	1532.515	1235.951
205.504	24.026	1532.442	1234.543
206.519	24.052	1531.693	1234.012
207.534	24.176	1530.089	1233.468
208.548	24.098	1529.865	1232.638
209.563	24.115	1528.618	1231.645
210.577	24.183	1527.309	1230.950
211.592	24.109	1527.108	1230.165
212.607	24.038	1526.677	1229.221
213.621	24.149	1525.585	1228.997
214.636	24.252	1524.671	1228.868
215.650	24.282	1523.481	1228.004
216.665	24.171	1523.236	1226.934
217.680	24.260	1522.062	1226.491
218.694	24.271	1521.388	1225.914
219.709	24.264	1520.193	1224.793
220.723	24.310	1519.567	1224.500
221.738	24.283	1518.734	1223.531
222.753	24.216	1518.105	1222.458
223.767	24.186	1517.015	1221.267
224.782	24.093	1516.517	1220.125
225.796	24.274	1514.808	1219.878
226.811	24.265	1514.984	1219.850
227.826	24.229	1514.136	1218.814
228.840	24.354	1512.986	1218.635
229.855	24.286	1512.351	1217.551
230.869	24.285	1511.563	1216.801
231.884	24.302	1510.272	1215.768
232.899	24.271	1509.496	1214.829
233.913	24.271	1508.278	1213.741
234.928	24.281	1507.656	1213.197
235.942	24.228	1506.403	1211.720
236.957	24.298	1505.690	1211.518
237.972	24.364	1504.264	1210.712
238.986	24.316	1503.089	1209.330
240.001	24.220	1502.794	1208.336
241.015	24.410	1501.346	1208.352
242.030	24.386	1500.471	1207.378
243.045	24.433	1499.666	1206.944
244.059	24.505	1498.688	1206.534
245.074	24.391	1497.871	1205.002
246.088	24.399	1497.361	1204.536
247.103	24.569	1496.203	1204.648
248.117	24.501	1495.457	1203.483
249.132	24.488	1494.464	1202.490
250.147	24.477	1493.886	1201.842
251.161	24.532	1493.746	1201.994
252.176	24.594	1492.553	1201.342
253.190	24.587	1491.740	1200.533
254.205	24.546	1490.801	1199.401
255.220	24.645	1490.191	1199.465
256.234	24.448	1489.804	1197.729
257.249	24.517	1488.666	1197.165
258.263	24.496	1488.294	1196.625
259.278	24.564	1487.164	1196.064
260.293	24.572	1486.016	1195.089
261.307	24.577	1485.376	1194.500
262.322	24.665	1484.779	1194.502
263.336	24.655	1483.759	1193.511
264.351	24.624	1482.777	1192.409
265.366	24.633	1481.949	1191.700
266.380	24.611	1480.930	1190.628
267.395	24.705	1480.289	1190.632
268.409	24.637	1479.506	1189.443
269.424	24.625	1478.568	1188.503
270.439	24.567	1477.969	1187.531
271.453	24.690	1476.899	1187.385
272.468	24.686	1476.010	1186.537
273.482	24.628	1475.678	1185.783
274.497	24.558	1474.602	1184.343
275.512	24.581	1473.772	1183.726
276.526	24.739	1473.132	1184.157
277.541	24.787	1471.812	1183.309
278.555	24.599	1471.595	1181.782
279.570	24.787	1470.806	1182.290
280.585	24.781	1469.479	1181.076
281.599	24.720	1468.850	1180.067
282.614	24.808	1467.671	1179.594
283.628	24.701	1466.842	1178.121
284.643	24.745	1465.907	1177.553
285.657	24.783	1465.433	1177.315
286.672	24.736	1464.170	1175.888
287.687	24.726	1463.762	1175.393
288.701	24.644	1462.601	1173.818
289.716	24.822	1461.680	1174.144
290.730	24.868	1460.834	1173.661
291.745	24.797	1460.286	1172.655
292.760	24.819	1459.449	1172.019
293.774	24.824	1458.326	1171.046
294.789	24.732	1457.609	1169.764
295.803	24.805	1457.040	1169.683
296.818	24.865	1456.254	1169.341
297.833	24.894	1455.190	1168.573
298.847	24.908	1454.019	1167.620
299.862	24.865	1453.904	1167.144
300.876	24.986	1452.216	1166.474
301.891	24.948	1451.569	1165.602
302.906	24.912	1451.147	1164.924
303.920	24.958	1450.210	1164.371
304.935	25.039	1449.548	1164.261
305.949	25.069	1448.558	1163.559
306.964	24.963	1448.108	1162.405
307.979	25.070	1446.918	1162.041
308.993	25.056	1446.263	1161.323
310.008	25.011	1445.654	1160.441
311.022	25.089	1444.491	1159.906
312.037	24.978	1443.273	1158.110
313.052	25.014	1442.474	1157.600
314.066	25.069	1441.459	1157.033
315.081	25.074	1440.525	1156.217
316.095	25.024	1440.027	1155.391
317.110	25.091	1438.996	1154.897
318.125	25.157	1437.881	1154.322
319.139	25.146	1436.967	1153.417
320.154	25.180	1436.535	1153.183
321.168	25.141	1435.258	1151.808
322.183	25.194	1434.290	1151.269
323.197	25.206	1433.456	1150.574
324.212	25.120	1432.638	1149.268
325.227	25.097	1432.524	1148.922
326.241	25.214	1431.295	1148.584
327.256	25.233	1430.372	1147.866
328.270	25.256	1429.782	1147.441
329.285	25.255	1428.433	1146.248
330.300	25.270	1427.908	1145.819
331.314	25.173	1427.626	1144.872
332.329	25.209	1426.448	1144.058
333.343	25.254	1425.798	1143.719
334.358	25.305	1424.993	1143.302
335.373	25.282	1424.335	1142.523
336.387	25.244	1423.829	1141.775
337.402	25.309	1423.016	1141.436
338.416	25.340	1422.331	1140.979
339.431	25.279	1421.932	1140.173
340.446	25.377	1421.086	1140.017
341.460	25.424	1420.068	1139.397
342.475	25.316	1419.533	1138.180
343.489	25.475	1417.959	1137.826
344.504	25.493	1417.237	1137.259
345.519	25.468	1416.059	1136.056
346.533	25.470	1415.210	1135.288
347.548	25.397	1414.699	1134.315
348.562	25.432	1413.802	1133.719
349.577	25.346	1413.441	1132.782
350.592	25.360	1412.859	1132.309
351.606	25.418	1411.923	1131.823
352.621	25.403	1410.508	1130.492
353.635	25.429	1409.217	1129.517
354.650	25.427	1408.707	1129.000
355.665	25.433	1407.782	1128.193
356.679	25.472	1406.671	1127.450
357.694	25.551	1405.496	1126.902
358.708	25.582	1404.725	1126.382
359.723	25.517	1403.370	1124.791
360.738	25.506	1402.527	1123.943
361.752	25.436	1401.832	1122.852
362.767	25.439	1400.630	1121.808
363.781	25.570	1399.354	1121.499
364.796	25.534	1399.273	1121.115
365.810	25.586	1398.345	1120.592
366.825	25.628	1397.444	1120.037
367.840	25.624	1396.516	1119.165
368.854	25.605	1396.135	1118.644
369.869	25.673	1395.519	1118.473
370.883	25.708	1395.152	1118.300
371.898	25.666	1394.330	1117.281
372.913	25.672	1393.463	1116.525
373.927	25.806	1392.344	1116.361
374.942	25.741	1391.472	1115.159
375.956	25.746	1390.851	1114.590
376.971	25.830	1389.899	1114.254
377.986	25.729	1389.343	1113.085
379.000	25.790	1388.701	1112.845
380.015	25.753	1387.445	1111.516
381.029	25.830	1387.598	1112.015
382.044	25.791	1387.068	1111.247
383.059	25.746	1385.908	1109.944
384.073	25.810	1385.145	1109.629
385.088	25.860	1384.561	1109.373
386.102	25.873	1383.991	1108.897
387.117	25.769	1383.368	1107.660
388.132	25.893	1382.514	1107.637
389.146	25.831	1382.190	1106.903
390.161	25.868	1381.415	1106.406
391.175	25.887	1380.384	1105.602
392.190	25.816	1380.258	1104.969
393.205	25.987	1378.964	1104.881
394.219	25.939	1378.012	1103.729
395.234	25.961	1376.784	1102.781
396.248	25.963	1375.720	1101.846
397.263	25.977	1375.064	1101.307
398.278	26.018	1373.848	1100.484
399.292	25.922	1372.859	1099.008
400.307	26.038	1371.786	1098.762
401.321	25.970	1371.165	1097.750
402.336	25.980	1370.000	1096.783
403.350	25.989	1368.825	1095.798
404.365	25.987	1368.335	1095.301
405.380	26.020	1367.337	1094.606
406.394	26.170	1366.293	1094.582
407.409	26.044	1366.145	1093.601
408.423	26.165	1365.185	1093.467
409.438	26.072	1364.857	1092.544
410.453	26.156	1364.168	1092.407
411.467	26.039	1363.579	1091.128
412.482	26.012	1363.145	1090.521
413.496	26.174	1361.960	1090.455
414.511	26.191	1360.973	1089.672
415.526	26.223	1360.346	1089.268
416.540	26.164	1359.820	1088.396
417.555	26.130	1359.182	1087.584
418.569	26.200	1358.694	1087.517
419.584	26.158	1358.427	1086.957
420.599	26.209	1357.601	1086.505
421.613	136.258	1435.643	1793.798
422.628	133.664	1446.985	1793.892
