DTS Sentinel unit serial number:	SN413079Multiplexer serial number:	ORYXHardware model number:	OX4-SRSoftware version number:	ORYX F/W v4.00 Oryx Data Collector v3.7.2.0data status	okinstallation	princeton_trtdifferential loss correction	single-endedforward channel	channel 4reverse channel	N/Adate	2019/09/11time	06:23:10forward acquisition time	60.00reverse acquisition time	0.00gamma	496.2192k internal	0.2315k external	0.2315temperature offset calibration	0.9942default loss term (dB/km)	0.3790temperature slope calibration	1.0000multiplexer offset coefficient	1.0000multiplexer slope coefficient	1.0000fibre end	0.00T internal ref (°C)	29.56T ext. ref 1 (°C)	-0.21T ext. ref 2 (°C)	24.05length (m)	temperature (°C)	Stokes	anti-Stokes-747.200	29.097	0.110	-0.094
-746.185	-200.000	-0.005	0.436
-745.171	-133.077	0.209	0.027
-744.156	800.000	-0.011	0.037
-743.142	-151.578	-0.144	-0.011
-742.127	-200.000	-0.020	0.437
-741.112	-200.000	-0.024	0.255
-740.098	-99.515	0.143	0.037
-739.083	-172.516	0.110	-0.004
-738.069	86.552	-0.291	-0.325
-737.054	629.719	-0.096	0.247
-736.039	18.540	-0.365	0.295
-735.025	87.872	0.284	0.319
-734.010	-200.000	0.027	-0.181
-732.996	264.170	-0.036	-0.064
-731.981	199.890	-0.046	-0.071
-730.966	362.042	-0.128	0.260
-729.952	-76.127	0.143	-0.051
-728.937	-200.000	-0.010	-0.129
-727.923	138.217	0.020	-0.027
-726.908	-48.093	-0.214	0.105
-725.894	124.276	0.133	0.169
-724.879	800.000	0.069	-0.201
-723.864	-200.000	0.006	-0.216
-722.850	-14.107	-0.200	0.131
-721.835	-177.603	-0.345	0.008
-720.821	241.671	-0.127	-0.215
-719.806	800.000	0.125	-0.442
-718.791	652.471	-0.088	-0.229
-717.777	519.343	0.116	-0.276
-716.762	189.560	-0.165	0.250
-715.748	255.840	0.136	-0.236
-714.733	449.549	0.137	0.305
-713.718	-84.479	-0.134	0.043
-712.704	107.929	0.217	0.262
-711.689	51.220	-0.328	-0.315
-710.675	-97.039	-0.229	0.061
-709.660	-200.000	-0.000	0.233
-708.645	142.061	-0.194	0.260
-707.631	-76.458	-0.117	-0.041
-706.616	-49.578	0.241	0.116
-705.602	800.000	-0.035	0.109
-704.587	-200.000	0.011	-0.201
-703.572	-91.619	0.415	0.120
-702.558	164.679	-0.048	-0.069
-701.543	45.120	-0.082	-0.077
-700.529	75.282	-0.236	-0.252
-699.514	-64.386	-0.233	-0.096
-698.499	-54.551	0.279	0.128
-697.485	299.966	0.089	0.166
-696.470	-200.000	-0.014	0.303
-695.456	-58.178	-0.090	-0.040
-694.441	-58.570	0.075	-0.033
-693.426	-200.000	0.014	-0.234
-692.412	-12.690	-0.116	0.077
-691.397	314.432	-0.047	0.089
-690.383	360.014	0.174	-0.351
-689.368	-200.000	-0.009	-0.172
-688.354	-125.416	0.127	0.020
-687.339	800.000	0.069	0.216
-686.324	501.340	0.040	0.093
-685.310	-95.198	-0.231	0.063
-684.295	-78.327	-0.255	0.089
-683.281	800.000	-0.031	-0.103
-682.266	6.329	0.180	-0.135
-681.251	34.501	0.060	-0.053
-680.237	-48.670	-0.072	0.035
-679.222	-16.184	0.082	0.053
-678.208	-153.012	-0.145	-0.010
-677.193	16.414	-0.107	0.085
-676.178	-50.507	0.223	-0.106
-675.164	-135.697	0.086	0.010
-674.149	-200.000	-0.038	-0.184
-673.135	-200.000	0.022	0.413
-672.120	604.619	-0.076	-0.192
-671.105	800.000	-0.095	0.301
-670.091	-200.000	-0.014	0.220
-669.076	-200.000	-0.015	0.166
-668.062	-21.470	-0.226	0.139
-667.047	442.104	0.054	0.120
-666.032	800.000	0.046	0.183
-665.018	28.529	-0.023	0.020
-664.003	358.346	0.065	-0.131
-662.989	497.228	-0.089	0.206
-661.974	800.000	0.097	0.355
-660.959	378.310	-0.106	-0.219
-659.945	800.000	-0.025	-0.105
-658.930	24.777	0.233	-0.195
-657.916	800.000	-0.047	-0.152
-656.901	-53.127	0.228	0.106
-655.886	-12.571	-0.277	0.183
-654.872	-169.343	0.234	-0.009
-653.857	-58.911	-0.253	-0.110
-652.843	-30.866	0.104	0.059
-651.828	-136.229	0.272	0.032
-650.814	-20.237	0.139	0.086
-649.799	66.909	-0.257	0.264
-648.784	-100.512	-0.335	-0.084
-647.770	84.437	0.219	-0.242
-646.755	54.549	-0.178	-0.174
-645.741	-109.619	-0.221	-0.047
-644.726	800.000	-0.133	0.490
-643.711	-200.000	0.044	0.252
-642.697	-99.822	0.344	0.087
-641.682	11.598	0.085	-0.066
-640.668	-31.608	0.203	-0.115
-639.653	-88.543	0.450	0.135
-638.638	11.654	-0.130	-0.100
-637.624	719.200	-0.081	0.218
-636.609	236.013	0.029	0.048
-635.595	368.054	0.070	-0.143
-634.580	-76.238	0.106	0.038
-633.565	207.970	0.026	-0.041
-632.551	-55.219	0.342	0.155
-631.536	-68.669	0.253	0.099
-630.522	34.045	0.091	0.080
-629.507	-200.000	-0.017	0.217
-628.492	-12.334	-0.383	0.253
-627.478	54.714	0.178	0.174
-626.463	227.960	-0.086	-0.140
-625.449	-200.000	0.010	0.050
-624.434	-33.764	-0.064	0.036
-623.419	699.953	-0.073	-0.194
-622.405	48.985	-0.164	-0.155
-621.390	-150.312	-0.111	0.009
-620.376	109.478	-0.201	-0.243
-619.361	-22.463	-0.116	0.071
-618.346	33.813	-0.180	0.158
-617.332	-104.843	-0.195	0.045
-616.317	-115.074	0.311	-0.060
-615.303	180.647	0.077	0.114
-614.288	-23.293	-0.136	-0.083
-613.273	426.923	-0.159	0.347
-612.259	-76.876	-0.353	0.124
-611.244	78.149	0.185	0.199
-610.230	211.354	-0.233	0.370
-609.215	226.901	0.183	0.300
-608.201	-46.132	-0.174	0.086
-607.186	-200.000	-0.077	-0.368
-606.171	800.000	-0.136	-0.440
-605.157	-99.090	0.389	-0.099
-604.142	800.000	0.037	-0.131
-603.128	55.452	0.172	0.167
-602.113	116.177	0.195	-0.240
-601.098	-19.333	-0.224	-0.140
-600.084	408.537	0.149	-0.318
-599.069	-108.061	0.184	0.040
-598.055	-106.376	0.040	0.009
-597.040	-118.550	-0.277	0.049
-596.025	-32.215	0.225	0.127
-595.011	87.146	-0.066	0.074
-593.996	-24.215	0.088	-0.053
-592.982	-50.164	0.168	0.080
-591.967	-49.317	-0.150	-0.072
-590.952	-200.000	-0.004	-0.072
-589.938	-157.314	0.144	0.009
-588.923	442.026	-0.069	-0.152
-587.909	-106.766	0.335	0.075
-586.894	800.000	0.092	-0.323
-585.879	-29.995	-0.210	-0.121
-584.865	-5.320	0.090	0.062
-583.850	-128.191	-0.052	-0.008
-582.836	26.517	-0.067	-0.057
-581.821	-200.000	-0.011	0.078
-580.806	229.225	-0.117	-0.192
-579.792	-23.431	0.192	-0.116
-578.777	120.473	-0.135	-0.169
-577.763	-83.788	0.487	-0.156
-576.748	257.070	0.073	-0.127
-575.733	87.126	-0.128	0.142
-574.719	61.391	0.093	0.094
-573.704	157.869	-0.106	0.148
-572.690	457.100	-0.151	-0.338
-571.675	90.663	0.215	0.242
-570.661	-177.501	0.059	-0.001
-569.646	-0.012	-0.255	-0.183
-568.631	-0.577	-0.196	-0.140
-567.617	-200.000	-0.078	-0.488
-566.602	-124.043	-0.048	0.008
-565.588	800.000	0.035	0.125
-564.573	185.233	-0.082	-0.123
-563.558	58.262	0.208	-0.205
-562.544	-174.839	0.226	0.006
-561.529	-151.374	-0.301	0.023
-560.515	583.309	0.041	-0.100
-559.500	-200.000	0.015	-0.167
-558.485	474.255	-0.183	-0.416
-557.471	399.305	0.062	0.130
-556.456	87.079	-0.366	0.407
-555.442	-200.000	0.069	-0.314
-554.427	513.591	0.081	-0.190
-553.412	-200.000	0.016	0.175
-552.398	199.183	0.041	-0.063
-551.383	-62.578	0.204	-0.085
-550.369	697.495	-0.054	-0.143
-549.354	-158.074	0.455	0.027
-548.339	161.276	-0.125	0.176
-547.325	-92.980	0.320	-0.090
-546.310	-3.091	-0.329	-0.231
-545.296	-75.028	0.234	-0.084
-544.281	-200.000	-0.036	-0.237
-543.266	-82.715	-0.532	-0.173
-542.252	-15.460	-0.153	-0.099
-541.237	-139.337	0.163	-0.018
-540.223	96.851	0.170	-0.196
-539.208	-117.575	-0.231	0.042
-538.193	-49.196	-0.112	-0.054
-537.179	100.261	-0.150	-0.175
-536.164	79.944	0.096	-0.104
-535.150	-44.130	0.064	0.032
-534.135	1.961	0.276	0.200
-533.121	-92.275	0.098	-0.028
-532.106	228.105	-0.054	-0.088
-531.091	-200.000	-0.090	-0.439
-530.077	168.088	-0.054	0.077
-529.062	134.850	0.059	0.077
-528.048	38.309	0.127	-0.113
-527.033	37.669	-0.174	-0.155
-526.018	-14.832	-0.170	0.110
-525.004	-200.000	0.006	0.124
-523.989	146.373	0.101	0.137
-522.975	-68.135	-0.281	-0.110
-521.960	766.152	0.022	0.061
-520.945	-32.491	0.243	-0.136
-519.931	-113.917	-0.192	-0.037
-518.916	123.667	0.106	0.133
-517.902	-76.252	-0.311	-0.110
-516.887	28.066	0.208	-0.176
-515.872	-200.000	0.040	-0.193
-514.858	-200.000	-0.033	0.253
-513.843	-200.000	0.007	-0.125
-512.829	-200.000	0.111	-0.517
-511.814	56.535	0.207	0.202
-510.799	658.632	0.075	0.193
-509.785	20.276	0.123	0.099
-508.770	-44.970	0.236	0.118
-507.756	498.725	-0.111	-0.257
-506.741	-126.025	0.182	-0.028
-505.726	-122.889	0.364	0.059
-504.712	-200.000	-0.366	-0.002
-503.697	23.111	-0.175	0.144
-502.683	-67.164	-0.156	-0.062
-501.668	473.107	-0.082	-0.186
-500.653	-200.000	0.011	-0.255
-499.639	673.825	-0.046	0.120
-498.624	18.350	-0.050	-0.040
-497.610	166.868	0.060	-0.085
-496.595	467.720	0.036	-0.081
-495.581	-6.775	-0.149	0.101
-494.566	121.779	0.172	0.215
-493.551	17.586	0.245	-0.195
-492.537	136.350	0.155	0.203
-491.522	-63.113	0.340	-0.141
-490.508	-33.257	-0.075	-0.042
-489.493	-200.000	0.031	-0.137
-488.478	-149.278	-0.225	-0.018
-487.464	-6.122	-0.097	0.066
-486.449	397.481	0.070	-0.147
-485.435	-119.970	0.209	0.036
-484.420	800.000	-0.134	-0.525
-483.405	-200.000	0.022	-0.097
-482.391	438.599	0.049	0.108
-481.376	800.000	-0.145	0.457
-480.362	-149.618	-0.098	0.008
-479.347	11.381	-0.268	-0.206
-478.332	149.658	0.071	-0.097
-477.318	-100.677	-0.449	-0.111
-476.303	682.362	-0.138	0.362
-475.289	-67.425	0.070	0.028
-474.274	272.839	0.110	0.195
-473.259	-130.441	-0.096	0.013
-472.245	495.339	-0.048	0.111
-471.230	89.612	0.197	0.220
-470.216	-200.000	0.035	0.263
-469.201	-91.361	0.039	0.011
-468.186	-45.701	0.248	-0.123
-467.172	-177.829	-0.167	0.004
-466.157	63.624	-0.026	0.026
-465.143	-200.000	0.009	0.113
-464.128	-55.904	-0.115	-0.052
-463.113	-150.602	0.466	-0.036
-462.099	36.401	-0.177	-0.156
-461.084	63.344	0.217	-0.218
-460.070	800.000	0.029	-0.081
-459.055	-136.502	0.385	0.045
-458.040	-119.151	0.145	0.025
-457.026	-45.797	-0.239	0.118
-456.011	800.000	-0.089	0.309
-454.997	593.155	-0.117	0.290
-453.982	-12.272	0.097	-0.064
-452.968	38.740	0.197	-0.177
-451.953	217.245	-0.148	-0.237
-450.938	-200.000	0.005	-0.194
-449.924	34.217	-0.110	-0.096
-448.909	-200.000	-0.006	-0.254
-447.895	-119.127	-0.105	0.018
-446.880	384.531	-0.075	0.156
-445.865	-125.519	0.145	0.022
-444.851	-200.000	-0.048	-0.427
-443.836	3.270	0.035	-0.025
-442.822	140.594	-0.168	-0.222
-441.807	-52.113	-0.134	-0.063
-440.792	800.000	0.104	-0.297
-439.778	-73.413	-0.146	-0.053
-438.763	111.402	0.183	0.221
-437.749	98.309	0.314	0.363
-436.734	435.125	-0.025	0.054
-435.719	150.568	0.050	-0.068
-434.705	-200.000	-0.002	-0.162
-433.690	-15.677	-0.039	-0.025
-432.676	-112.614	0.382	0.076
-431.661	800.000	0.063	-0.195
-430.646	249.465	-0.050	-0.085
-429.632	-200.000	-0.037	-0.294
-428.617	800.000	0.038	-0.144
-427.603	-41.844	-0.085	-0.044
-426.588	200.023	-0.246	0.378
-425.573	-200.000	0.069	-0.332
-424.559	120.188	-0.273	-0.339
-423.544	-30.738	0.168	0.095
-422.530	249.197	0.017	0.029
-421.515	45.499	0.096	-0.088
-420.500	-61.312	-0.099	0.042
-419.486	354.022	-0.071	0.141
-418.471	-78.910	0.334	0.114
-417.457	-200.000	0.059	0.336
-416.442	-44.240	-0.247	-0.124
-415.428	-85.501	0.259	-0.081
-414.413	67.834	0.153	0.156
-413.398	95.256	-0.195	-0.222
-412.384	152.201	-0.093	0.126
-411.369	385.236	0.133	-0.274
-410.355	-60.948	0.081	0.034
-409.340	-54.919	0.356	-0.161
-408.325	41.845	-0.343	-0.311
-407.311	-200.000	0.004	-0.051
-406.296	-200.000	0.057	-0.255
-405.282	336.270	0.108	0.211
-404.267	70.686	-0.165	0.171
-403.252	-200.000	0.285	0.000
-402.238	-200.000	0.000	-0.183
-401.223	-48.462	0.048	0.023
-400.209	20.751	0.292	-0.236
-399.194	74.213	-0.331	0.347
-398.179	57.826	0.161	-0.158
-397.165	800.000	-0.060	-0.177
-396.150	2.635	-0.167	-0.121
-395.136	-75.730	0.174	0.062
-394.121	-200.000	-0.027	-0.214
-393.106	-103.388	0.382	0.090
-392.092	217.023	-0.167	0.265
-391.077	-137.513	-0.355	0.040
-390.063	-193.728	0.173	-0.001
-389.048	-200.000	0.002	-0.029
-388.033	800.000	0.031	0.118
-387.019	-22.503	-0.119	-0.072
-386.004	260.981	0.057	-0.099
-384.990	370.412	0.094	0.189
-383.975	-10.714	0.321	0.212
-382.960	-168.248	-0.183	-0.007
-381.946	-118.233	-0.076	0.014
-380.931	62.188	-0.337	-0.336
-379.917	-200.000	0.044	-0.196
-378.902	122.949	-0.083	0.104
-377.888	328.841	-0.075	-0.144
-376.873	180.444	-0.233	0.342
-375.858	-120.479	0.369	-0.063
-374.844	-51.152	-0.332	-0.155
-373.829	-200.000	0.010	-0.179
-372.815	-200.000	-0.005	-0.167
-371.800	-200.000	0.019	0.231
-370.785	-200.000	0.012	0.146
-369.771	800.000	0.082	-0.293
-368.756	455.140	-0.210	0.465
-367.742	-200.000	0.004	-0.048
-366.727	-163.951	-0.129	0.006
-365.712	54.757	-0.014	-0.013
-364.698	-123.104	0.057	0.009
-363.683	211.933	0.108	0.170
-362.669	539.237	-0.116	0.276
-361.654	-41.454	0.167	-0.086
-360.639	800.000	0.052	-0.160
-359.625	-87.693	0.260	-0.078
-358.610	374.586	0.014	-0.028
-357.596	800.000	0.030	-0.107
-356.581	-118.987	-0.149	0.026
-355.566	12.821	-0.161	0.125
-354.552	136.484	-0.103	-0.134
-353.537	-200.000	-0.003	-0.183
-352.523	800.000	-0.027	-0.098
-351.508	-129.857	0.125	-0.017
-350.493	255.322	0.097	0.165
-349.479	-22.940	-0.099	0.060
-348.464	-41.853	0.342	-0.175
-347.450	272.584	0.101	-0.177
-346.435	-200.000	-0.018	0.190
-345.420	13.757	-0.134	0.104
-344.406	147.994	0.236	-0.317
-343.391	60.547	0.143	0.141
-342.377	-89.510	0.255	-0.075
-341.362	-64.597	-0.193	0.078
-340.348	365.826	0.203	-0.409
-339.333	800.000	-0.119	0.506
-338.318	800.000	0.082	0.354
-337.304	207.029	0.149	0.232
-336.289	365.095	0.104	0.209
-335.275	-161.252	-0.404	0.021
-334.260	24.481	-0.107	0.089
-333.245	-110.896	-0.577	0.118
-332.231	800.000	-0.006	-0.023
-331.216	800.000	0.030	0.090
-330.202	20.209	0.118	0.095
-329.187	142.519	0.095	-0.126
-328.172	-51.516	0.446	-0.208
-327.158	-22.414	-0.191	0.115
-326.143	-73.170	-0.193	0.070
-325.129	214.056	-0.140	0.221
-324.114	-143.354	-0.169	-0.016
-323.099	-200.000	0.048	-0.258
-322.085	-139.612	0.142	-0.015
-321.070	396.842	0.120	-0.250
-320.056	-192.159	-0.363	0.003
-319.041	-200.000	0.020	0.158
-318.026	800.000	-0.049	-0.148
-317.012	-44.478	-0.336	-0.167
-315.997	7.173	0.185	0.138
-314.983	-85.907	0.367	-0.113
-313.968	800.000	0.025	0.081
-312.953	-200.000	0.011	-0.204
-311.939	-26.791	0.135	-0.079
-310.924	-200.000	0.029	0.144
-309.910	-108.805	-0.339	0.072
-308.895	-134.395	-0.171	-0.021
-307.880	-200.000	0.001	0.071
-306.866	800.000	0.026	-0.111
-305.851	-105.273	-0.235	0.053
-304.837	-108.307	-0.488	-0.105
-303.822	-200.000	0.010	-0.134
-302.807	-103.408	-0.262	-0.061
-301.793	789.441	0.076	0.207
-300.778	-200.000	-0.004	0.078
-299.764	55.094	0.181	-0.174
-298.749	5.537	0.032	-0.023
-297.735	-91.962	0.052	-0.015
-296.720	-28.106	0.078	-0.045
-295.705	-200.000	0.034	-0.249
-294.691	800.000	-0.120	-0.380
-293.676	289.303	-0.207	0.374
-292.662	-97.033	0.267	-0.070
-291.647	-79.304	0.116	0.039
-290.632	495.591	0.130	0.298
-289.618	152.384	0.036	-0.049
-288.603	-200.000	0.001	-0.065
-287.589	75.403	-0.254	0.266
-286.574	-29.299	-0.237	0.135
-285.559	141.953	0.040	0.053
-284.545	-130.044	0.309	-0.042
-283.530	41.662	0.255	0.230
-282.516	457.569	-0.058	-0.128
-281.501	428.681	-0.046	-0.098
-280.486	53.117	0.147	-0.140
-279.472	653.840	0.065	-0.166
-278.457	329.865	0.067	-0.128
-277.443	-37.353	-0.145	0.077
-276.428	-69.786	-0.321	-0.122
-275.413	23.433	-0.168	-0.138
-274.399	800.000	0.057	0.178
-273.384	45.230	-0.073	0.067
-272.370	-120.717	0.112	-0.019
-271.355	-115.249	0.314	-0.059
-270.340	-164.906	-0.286	-0.013
-269.326	21.570	-0.091	-0.074
-268.311	-96.917	-0.035	0.009
-267.297	161.721	-0.191	0.265
-266.282	249.903	0.135	0.228
-265.267	35.860	0.051	0.045
-264.253	-200.000	-0.041	-0.246
-263.238	-100.551	-0.221	0.054
-262.224	-200.000	0.011	0.281
-261.209	259.033	-0.120	-0.206
-260.195	-128.534	-0.179	0.025
-259.180	437.596	-0.081	0.176
-258.165	150.980	-0.129	0.175
-257.151	139.938	-0.228	0.299
-256.136	-144.308	0.234	0.022
-255.122	42.156	-0.233	-0.210
-254.107	800.000	-0.062	0.193
-253.092	-200.000	-0.041	-0.352
-252.078	110.507	0.088	0.105
-251.063	560.107	0.029	-0.069
-250.049	-154.142	0.383	0.026
-249.034	-200.000	-0.029	0.163
-248.019	253.515	0.198	0.337
-247.005	-100.420	0.219	0.054
-245.990	-123.964	0.138	0.022
-244.976	-39.276	0.388	0.203
-243.961	800.000	0.103	0.307
-242.946	232.988	0.222	0.363
-241.932	16.619	-0.124	0.097
-240.917	-200.000	0.049	0.287
-239.903	-200.000	-0.003	-0.135
-238.888	-19.853	-0.314	-0.193
-237.873	-200.000	0.008	0.130
-236.859	380.313	-0.089	-0.182
-235.844	800.000	-0.065	0.276
-234.830	-200.000	0.010	-0.226
-233.815	800.000	-0.085	0.351
-232.800	-2.413	0.485	0.338
-231.786	800.000	0.073	0.204
-230.771	-121.665	-0.271	0.045
-229.757	13.868	0.187	-0.144
-228.742	36.695	-0.322	0.283
-227.727	-200.000	-0.018	0.102
-226.713	16.284	-0.097	0.076
-225.698	59.347	0.044	0.043
-224.684	-200.000	0.014	0.069
-223.669	3.749	0.105	0.076
-222.655	-200.000	-0.019	-0.090
-221.640	245.802	-0.083	-0.139
-220.625	-53.593	0.089	0.040
-219.611	344.039	-0.054	0.106
-218.596	34.467	0.117	-0.101
-217.582	-24.837	-0.141	0.083
-216.567	800.000	-0.064	0.246
-215.552	-21.740	0.242	0.146
-214.538	-64.424	-0.150	-0.060
-213.523	800.000	0.078	0.238
-212.509	10.944	0.210	-0.159
-211.494	112.442	-0.071	0.085
-210.479	375.273	-0.008	-0.017
-209.465	3.149	-0.283	0.204
-208.450	42.426	0.229	-0.207
-207.436	800.000	0.078	0.244
-206.421	-116.821	-0.076	0.014
-205.406	71.421	-0.222	0.229
-204.392	-87.929	-0.119	0.035
-203.377	261.111	-0.190	-0.326
-202.363	-20.319	0.240	0.146
-201.348	-77.598	-0.336	-0.116
-200.333	64.735	0.103	0.103
-199.319	527.923	0.032	-0.075
-198.304	-152.362	-0.213	-0.015
-197.290	-47.446	-0.422	0.204
-196.275	-150.216	0.101	0.008
-195.260	-3.632	0.170	-0.117
-194.246	65.934	-0.184	0.185
-193.231	-200.000	0.130	0.617
-192.217	169.677	0.072	0.102
-191.202	-60.844	0.288	0.121
-190.187	-12.056	-0.266	0.173
-189.173	151.312	0.105	0.142
-188.158	240.911	-0.177	0.293
-187.144	113.442	0.103	-0.124
-186.129	-128.883	0.308	-0.043
-185.114	-87.474	0.069	0.021
-184.100	74.465	0.091	-0.095
-183.085	5.475	-0.203	-0.148
-182.071	-102.625	-0.149	0.035
-181.056	317.481	0.141	-0.265
-180.042	-82.909	0.175	-0.056
-179.027	-164.891	0.061	0.003
-178.012	-200.000	-0.010	-0.209
-176.998	145.010	-0.301	-0.399
-175.983	-45.876	0.180	0.088
-174.969	-23.587	0.181	0.107
-173.954	-124.408	-0.363	0.056
-172.939	178.228	-0.147	0.213
-171.925	66.165	-0.214	-0.215
-170.910	-200.000	0.014	0.103
-169.896	-81.358	-0.053	-0.017
-168.881	-177.921	0.120	0.003
-167.866	-200.000	0.028	0.157
-166.852	-200.000	-0.019	0.090
-165.837	-103.683	0.220	0.051
-164.823	120.077	-0.186	0.228
-163.808	61.623	-0.058	-0.057
-162.793	-145.043	0.080	-0.007
-161.779	153.010	-0.042	0.057
-160.764	-200.000	0.038	-0.198
-159.750	110.898	0.158	0.188
-158.735	-182.986	0.217	-0.004
-157.720	-200.000	0.016	0.337
-156.706	-40.586	-0.081	0.041
-155.691	57.528	-0.178	0.172
-154.677	800.000	0.001	0.005
-153.662	99.690	-0.180	-0.206
-152.647	98.026	-0.138	-0.157
-151.633	-82.617	0.165	-0.053
-150.618	-200.000	0.001	-0.010
-149.604	300.115	0.052	-0.094
-148.589	-79.773	0.092	-0.031
-147.574	800.000	-0.012	0.039
-146.560	-64.357	-0.124	-0.050
-145.545	-184.504	0.347	-0.006
-144.531	-129.636	0.322	0.044
-143.516	-191.398	0.276	-0.003
-142.502	1.441	-0.164	-0.117
-141.487	800.000	0.050	0.184
-140.472	620.332	0.126	-0.312
-139.458	-200.000	0.068	0.360
-138.443	210.991	0.184	0.286
-137.429	792.657	-0.075	-0.203
-136.414	330.041	-0.130	-0.248
-135.399	-133.489	-0.123	0.015
-134.385	800.000	-0.040	-0.151
-133.370	-120.720	-0.182	-0.030
-132.356	800.000	-0.019	0.066
-131.341	-104.677	0.321	0.073
-130.326	-50.353	0.210	0.098
-129.312	-200.000	0.011	-0.399
-128.297	9.988	0.192	-0.144
-127.283	523.868	0.035	0.081
-126.268	10.051	-0.012	-0.009
-125.253	747.816	0.057	-0.152
-124.239	-87.319	-0.184	0.055
-123.224	-200.000	0.007	0.097
-122.210	228.931	-0.090	0.145
-121.195	179.519	0.179	-0.259
-120.180	648.777	0.046	-0.117
-119.166	800.000	-0.031	-0.110
-118.151	103.896	0.096	-0.112
-117.137	-46.615	0.227	0.110
-116.122	-17.710	0.170	-0.106
-115.107	420.576	-0.190	-0.403
-114.093	-105.455	0.066	0.015
-113.078	145.769	0.150	-0.198
-112.064	-84.424	0.376	0.118
-111.049	-60.917	0.436	0.182
-110.034	800.000	-0.061	0.258
-109.020	508.702	0.164	-0.377
-108.005	-80.025	-0.086	0.029
-106.991	-51.290	-0.130	0.060
-105.976	345.786	0.098	0.191
-104.962	36.650	0.090	0.079
-103.947	-18.974	-0.118	-0.072
-102.932	58.312	-0.157	0.152
-101.918	-91.001	0.190	-0.054
-100.903	800.000	-0.053	0.194
-99.889	-200.000	-0.010	-0.111
-98.874	800.000	-0.020	-0.067
-97.859	-51.463	0.258	0.119
-96.845	-31.485	0.241	-0.134
-95.830	800.000	0.134	-0.421
-94.816	58.534	0.289	-0.280
-93.801	-87.185	-0.502	0.151
-92.786	-155.796	0.259	0.016
-91.772	8.184	-0.083	0.062
-90.757	-200.000	-0.044	0.258
-89.743	-92.101	-0.423	-0.118
-88.728	253.943	-0.037	-0.062
-87.713	289.809	0.095	-0.171
-86.699	115.317	-0.082	0.099
-85.684	-200.000	0.053	-0.429
-84.670	759.920	0.159	-0.426
-83.655	24.269	0.188	0.153
-82.640	-55.146	0.232	-0.103
-81.626	201.390	0.111	-0.169
-80.611	-89.298	-0.216	-0.063
-79.597	-200.000	0.010	-0.098
-78.582	-155.297	0.290	-0.019
-77.567	-37.308	0.371	-0.196
-76.553	800.000	0.052	-0.192
-75.538	-19.789	0.092	-0.056
-74.524	647.178	0.116	-0.293
-73.509	317.480	0.073	0.136
-72.494	132.104	-0.222	-0.282
-71.480	-20.027	-0.125	0.076
-70.465	225.324	-0.094	0.150
-69.451	224.999	-0.220	-0.351
-68.436	-146.167	-0.179	-0.016
-67.422	793.789	0.060	0.164
-66.407	52.654	0.075	-0.071
-65.392	0.789	0.047	-0.033
-64.378	-86.801	0.390	0.118
-63.363	669.854	0.035	-0.088
-62.349	505.041	-0.051	0.118
-61.334	80.987	-1.068	-1.137
-60.319	38.817	0.617	0.544
-59.305	471.395	-0.445	-0.987
-58.290	203.046	0.680	1.038
-57.276	392.121	0.861	1.765
-56.261	-200.000	105.852	609.550
-55.246	491.394	1508.168	3406.027
-54.232	172.412	2709.633	3844.993
-53.217	101.070	2336.182	2680.814
-52.203	36.091	2077.910	1804.528
-51.188	31.203	1990.588	1684.647
-50.173	29.848	1972.699	1657.313
-49.159	45.593	2029.352	1848.487
-48.144	46.156	2046.273	1868.952
-47.130	31.848	2004.600	1702.092
-46.115	29.636	1993.407	1672.526
-45.100	29.491	1990.767	1668.928
-44.086	29.446	1988.517	1666.570
-43.071	29.471	1986.115	1664.717
-42.057	29.451	1983.963	1662.666
-41.042	29.359	1982.387	1660.451
-40.027	29.423	1980.520	1659.399
-39.013	29.425	1978.043	1657.275
-37.998	29.505	1976.346	1656.507
-36.984	29.540	1974.192	1654.946
-35.969	29.467	1972.648	1652.937
-34.954	29.536	1970.966	1652.074
-33.940	29.562	1969.297	1650.843
-32.925	29.578	1967.771	1649.642
-31.911	29.523	1965.823	1647.455
-30.896	29.509	1964.669	1646.295
-29.881	29.497	1963.189	1644.882
-28.867	29.600	1961.202	1644.070
-27.852	29.594	1959.228	1642.296
-26.838	29.532	1957.986	1640.638
-25.823	29.553	1956.223	1639.282
-24.809	29.585	1954.029	1637.666
-23.794	29.571	1952.483	1636.181
-22.779	29.620	1950.376	1634.786
-21.765	29.617	1948.810	1633.383
-20.750	29.636	1947.572	1632.441
-19.736	29.632	1945.941	1630.982
-18.721	29.661	1944.063	1629.591
-17.706	29.615	1942.776	1628.050
-16.692	29.561	1941.326	1626.293
-15.677	29.544	1939.096	1624.209
-14.663	29.637	1937.390	1623.535
-13.648	29.622	1936.421	1622.520
-12.633	29.589	1935.639	1621.511
-11.619	29.606	1933.893	1620.138
-10.604	29.548	1933.348	1619.107
-9.590	29.614	1931.777	1618.309
-8.575	29.569	1930.238	1616.559
-7.560	29.637	1929.045	1616.090
-6.546	29.538	1927.941	1614.231
-5.531	29.534	1926.524	1612.950
-4.517	29.608	1925.258	1612.470
-3.502	29.562	1923.993	1610.949
-2.487	29.475	1922.899	1609.204
-1.473	29.624	1921.646	1609.396
-0.458	29.644	1916.844	1605.487
0.556	27.062	1897.215	1578.234
1.571	23.241	1879.395	1530.309
2.586	19.665	1902.929	1517.982
3.600	18.717	1939.879	1538.828
4.615	18.567	1935.117	1533.574
5.629	14.156	1834.339	1416.108
6.644	5.161	1715.206	1252.133
7.659	0.276	1678.367	1186.723
8.673	-0.210	1675.469	1180.745
9.688	-0.193	1673.943	1179.700
10.702	-0.181	1671.903	1178.253
11.717	-0.256	1668.712	1175.315
12.731	0.316	1668.138	1179.281
13.746	6.760	1685.093	1241.975
14.761	16.429	1705.849	1333.823
15.775	21.310	1714.406	1379.018
16.790	22.287	1716.248	1388.092
17.804	22.473	1715.577	1388.893
18.819	22.477	1714.580	1387.990
19.834	22.705	1713.481	1388.776
20.848	22.790	1713.581	1389.403
21.863	22.804	1712.786	1388.742
22.877	22.864	1711.534	1388.081
23.892	22.823	1711.053	1387.239
24.907	22.917	1710.195	1387.160
25.921	22.889	1708.403	1385.363
26.936	22.789	1708.150	1384.254
27.950	22.824	1707.530	1383.907
28.965	22.877	1706.533	1383.385
29.980	22.831	1705.364	1381.955
30.994	22.939	1704.082	1381.644
32.009	22.865	1702.776	1379.881
33.023	22.843	1702.091	1379.035
34.038	22.847	1701.303	1378.302
35.053	22.799	1700.963	1377.532
36.067	22.783	1698.992	1375.691
37.082	22.814	1698.561	1375.460
38.096	22.806	1697.199	1374.170
39.111	22.829	1696.345	1373.542
40.126	22.948	1695.502	1373.661
41.140	22.877	1694.951	1372.539
42.155	22.814	1693.324	1370.611
43.169	22.719	1692.591	1369.160
44.184	22.813	1691.395	1368.797
45.199	22.780	1690.477	1367.685
46.213	22.748	1689.254	1366.323
47.228	22.720	1688.356	1365.257
48.242	22.788	1686.955	1364.532
49.257	22.836	1685.409	1363.528
50.271	22.819	1684.216	1362.311
51.286	22.804	1683.163	1361.222
52.301	22.790	1681.942	1360.012
53.315	22.827	1680.625	1359.110
54.330	22.851	1678.788	1357.688
55.344	22.795	1677.827	1356.360
56.359	22.874	1675.947	1355.324
57.374	22.889	1675.240	1354.754
58.388	22.835	1674.841	1353.891
59.403	22.885	1673.034	1352.694
60.417	22.892	1671.600	1351.471
61.432	22.841	1671.271	1350.699
62.447	22.816	1670.006	1349.365
63.461	22.861	1668.987	1348.761
64.476	22.798	1668.252	1347.571
65.490	22.890	1666.976	1347.118
66.505	22.943	1665.215	1345.980
67.520	22.879	1664.519	1344.814
68.534	22.950	1663.737	1344.605
69.549	22.920	1662.789	1343.492
70.563	22.931	1661.470	1342.386
71.578	22.922	1660.480	1341.401
72.593	22.917	1659.424	1340.393
73.607	22.894	1658.774	1339.571
74.622	22.841	1658.164	1338.559
75.636	22.870	1656.310	1337.168
76.651	22.899	1655.350	1336.494
77.666	22.896	1654.742	1335.862
78.680	22.964	1654.119	1335.753
79.695	22.869	1653.129	1334.120
80.709	22.969	1651.918	1333.773
81.724	22.910	1651.688	1333.030
82.739	22.859	1650.373	1331.467
83.753	22.785	1649.783	1330.310
84.768	22.915	1648.429	1330.080
85.782	22.872	1647.588	1328.963
86.797	22.887	1646.622	1328.178
87.812	22.850	1645.879	1327.186
88.826	22.882	1644.576	1326.258
89.841	22.884	1643.864	1325.577
90.855	22.937	1642.374	1324.659
91.870	22.859	1641.530	1323.271
92.884	22.904	1640.512	1322.671
93.899	22.929	1639.632	1322.033
94.914	22.895	1638.779	1320.974
95.928	22.923	1637.272	1319.850
96.943	22.878	1636.426	1318.716
97.957	22.825	1635.319	1317.318
98.972	22.903	1633.430	1316.259
99.987	22.866	1632.018	1314.725
101.001	22.970	1630.342	1314.033
102.016	22.857	1629.450	1312.356
103.030	22.815	1628.107	1310.851
104.045	22.827	1626.733	1309.717
105.060	22.886	1625.274	1308.864
106.074	22.945	1623.776	1307.980
107.089	22.993	1622.318	1307.046
108.103	22.910	1621.639	1305.766
109.118	22.859	1620.430	1304.303
110.133	22.931	1618.813	1303.412
111.147	22.996	1617.966	1303.093
112.162	23.002	1616.959	1302.217
113.176	22.932	1615.162	1300.138
114.191	22.990	1614.289	1299.748
115.206	22.896	1613.095	1297.982
116.220	22.969	1612.226	1297.699
117.235	22.998	1610.753	1296.615
118.249	22.889	1609.662	1294.824
119.264	23.084	1608.290	1295.031
120.279	22.891	1607.513	1292.876
121.293	22.940	1606.309	1292.158
122.308	23.017	1604.662	1291.274
123.322	22.994	1603.131	1289.766
124.337	23.046	1602.026	1289.139
125.352	23.075	1600.570	1288.065
126.366	23.009	1599.663	1286.738
127.381	22.999	1598.976	1286.001
128.395	22.989	1598.281	1285.252
129.410	23.062	1596.388	1284.148
130.424	23.009	1595.104	1282.617
131.439	22.950	1594.516	1281.608
132.454	22.984	1593.263	1280.733
133.468	23.050	1591.737	1279.870
134.483	23.061	1590.671	1278.976
135.497	22.935	1589.407	1276.935
136.512	23.013	1587.739	1276.045
137.527	23.048	1586.497	1275.188
138.541	23.035	1585.983	1274.569
139.556	23.104	1584.275	1273.578
140.570	23.092	1582.619	1272.050
141.585	23.012	1581.888	1270.776
142.600	23.018	1580.201	1269.354
143.614	22.953	1579.887	1268.521
144.629	23.027	1578.354	1267.708
145.643	23.081	1577.465	1267.265
146.658	23.007	1575.761	1265.260
147.673	22.959	1574.719	1263.966
148.687	22.999	1574.421	1263.897
149.702	23.039	1572.865	1262.824
150.716	22.936	1571.312	1260.730
151.731	23.028	1570.379	1260.527
152.746	22.995	1569.243	1259.267
153.760	23.082	1567.446	1258.337
154.775	23.022	1567.136	1257.545
155.789	23.137	1565.754	1257.146
156.804	23.018	1564.814	1255.435
157.819	23.076	1564.068	1255.137
158.833	23.100	1562.872	1254.237
159.848	23.074	1562.033	1253.263
160.862	23.094	1560.896	1252.388
161.877	23.149	1559.484	1251.527
162.892	23.119	1559.189	1250.974
163.906	23.105	1558.333	1250.074
164.921	23.144	1556.835	1249.037
165.935	23.103	1556.474	1248.348
166.950	23.191	1554.797	1247.510
167.964	23.136	1554.165	1246.507
168.979	23.121	1553.465	1245.732
169.994	23.134	1552.422	1244.873
171.008	23.080	1551.947	1244.003
172.023	23.164	1550.679	1243.468
173.037	23.111	1549.348	1241.918
174.052	23.183	1548.485	1241.625
175.067	23.144	1547.513	1240.463
176.081	23.178	1546.500	1239.778
177.096	23.120	1545.658	1238.584
178.110	23.239	1544.124	1238.082
179.125	23.147	1543.617	1236.921
180.140	23.174	1542.515	1236.118
181.154	23.187	1541.792	1235.518
182.169	23.289	1540.879	1235.388
183.183	23.271	1539.629	1234.148
184.198	23.197	1539.021	1233.042
185.213	23.151	1538.303	1232.034
186.227	23.180	1537.178	1231.223
187.242	23.266	1536.181	1230.916
188.256	23.229	1535.112	1229.694
189.271	23.328	1534.391	1229.696
190.286	23.232	1533.391	1228.117
191.300	23.190	1533.010	1227.414
192.315	23.322	1531.790	1227.243
193.329	23.269	1530.687	1225.882
194.344	23.254	1529.852	1225.004
195.359	23.259	1529.677	1224.791
196.373	23.321	1528.124	1223.864
197.388	23.236	1527.561	1222.720
198.402	23.232	1526.283	1221.558
199.417	23.152	1526.034	1220.699
200.432	23.166	1525.021	1219.876
201.446	23.151	1524.686	1219.397
202.461	23.296	1522.884	1218.849
203.475	23.246	1522.233	1217.877
204.490	23.228	1521.497	1217.059
205.504	23.185	1520.738	1216.042
206.519	23.270	1519.484	1215.518
207.534	23.320	1518.654	1215.088
208.548	23.283	1517.938	1214.158
209.563	23.249	1516.741	1212.861
210.577	23.264	1515.921	1212.201
211.592	23.314	1515.520	1212.113
212.607	23.350	1514.443	1211.388
213.621	23.423	1513.692	1211.182
214.636	23.343	1513.254	1210.178
215.650	23.357	1512.387	1209.471
216.665	23.314	1511.372	1208.261
217.680	23.313	1510.818	1207.701
218.694	23.352	1509.754	1207.008
219.709	23.382	1509.227	1206.685
220.723	23.397	1508.135	1205.807
221.738	23.371	1507.468	1204.990
222.753	23.373	1506.511	1204.136
223.767	23.320	1505.589	1202.932
224.782	23.212	1504.697	1201.376
225.796	23.403	1503.937	1201.964
226.811	23.421	1503.582	1201.691
227.826	23.472	1502.563	1201.120
228.840	23.499	1501.486	1200.334
229.855	23.503	1501.043	1199.898
230.869	23.461	1499.788	1198.508
231.884	23.468	1499.142	1197.934
232.899	23.478	1498.196	1197.140
233.913	23.438	1496.744	1195.601
234.928	23.426	1495.871	1194.717
235.942	23.488	1494.838	1194.204
236.957	23.726	1493.417	1194.568
237.972	23.557	1492.551	1192.628
238.986	23.474	1492.121	1191.620
240.001	23.478	1491.032	1190.673
241.015	23.491	1490.025	1189.853
242.030	23.536	1488.921	1189.167
243.045	23.626	1488.196	1189.088
244.059	23.641	1487.501	1188.525
245.074	23.622	1486.208	1187.260
246.088	23.624	1485.551	1186.647
247.103	23.706	1484.746	1186.444
248.117	23.675	1484.030	1185.561
249.132	23.722	1483.069	1185.001
250.147	23.663	1482.488	1184.041
251.161	23.663	1482.019	1183.561
252.176	23.680	1481.450	1183.115
253.190	23.761	1480.450	1182.747
254.205	23.752	1479.402	1181.749
255.220	23.660	1479.097	1180.787
256.234	23.693	1477.929	1179.971
257.249	23.700	1476.906	1179.096
258.263	23.695	1476.760	1178.838
259.278	23.714	1475.582	1177.923
260.293	23.774	1474.352	1177.233
261.307	23.818	1473.673	1176.876
262.322	23.808	1473.099	1176.248
263.336	23.824	1472.660	1175.901
264.351	23.772	1471.775	1174.749
265.366	23.821	1470.533	1173.975
266.380	23.881	1469.046	1173.080
267.395	23.839	1468.380	1172.169
268.409	23.768	1468.396	1171.608
269.424	23.805	1467.567	1171.085
270.439	23.788	1465.970	1169.599
271.453	23.860	1465.566	1169.643
272.468	23.815	1465.051	1168.834
273.482	23.847	1464.266	1168.317
274.497	23.770	1463.154	1166.817
275.512	23.825	1462.372	1166.456
276.526	23.815	1461.536	1165.614
277.541	23.843	1460.766	1165.085
278.555	23.924	1459.773	1164.719
279.570	23.951	1459.091	1164.247
280.585	23.907	1458.247	1163.183
281.599	23.844	1457.359	1161.958
282.614	23.887	1456.902	1161.773
283.628	23.887	1455.800	1160.791
284.643	23.867	1454.793	1159.759
285.657	23.928	1454.226	1159.598
286.672	23.910	1452.948	1158.360
287.687	23.849	1452.474	1157.484
288.701	23.882	1451.264	1156.632
289.716	23.887	1450.662	1156.083
290.730	23.993	1449.933	1156.085
291.745	24.051	1448.858	1155.506
292.760	24.028	1447.813	1154.418
293.774	23.977	1447.506	1153.745
294.789	24.015	1446.409	1153.008
295.803	23.972	1445.838	1152.173
296.818	24.049	1444.717	1151.677
297.833	24.004	1443.760	1150.520
298.847	24.055	1443.273	1150.366
299.862	24.105	1442.193	1149.726
300.876	24.016	1441.413	1148.425
301.891	24.133	1439.973	1147.933
302.906	24.116	1439.543	1147.375
303.920	24.091	1439.762	1147.292
304.935	24.129	1438.731	1146.610
305.949	24.181	1437.952	1146.220
306.964	24.229	1436.417	1145.203
307.979	24.166	1435.868	1144.261
308.993	24.229	1434.865	1143.767
310.008	24.116	1434.522	1142.664
311.022	24.241	1433.266	1142.368
312.037	24.146	1432.413	1140.978
313.052	24.146	1431.509	1140.153
314.066	24.237	1430.606	1139.916
315.081	24.184	1429.256	1138.402
316.095	24.155	1429.116	1138.004
317.110	24.222	1427.592	1137.121
318.125	24.301	1426.865	1136.945
319.139	24.283	1425.896	1135.957
320.154	24.294	1425.088	1135.280
321.168	24.271	1424.644	1134.682
322.183	24.316	1423.635	1134.061
323.197	24.287	1422.720	1133.050
324.212	24.261	1422.117	1132.303
325.227	24.236	1421.326	1131.411
326.241	24.353	1420.119	1131.096
327.256	24.281	1419.753	1130.248
328.270	24.425	1418.554	1130.106
329.285	24.352	1418.358	1129.383
330.300	24.399	1417.169	1128.636
331.314	24.372	1416.447	1127.791
332.329	24.373	1415.798	1127.183
333.343	24.347	1415.085	1126.352
334.358	24.324	1414.484	1125.629
335.373	24.503	1413.103	1125.557
336.387	24.424	1412.668	1124.612
337.402	24.420	1412.294	1124.190
338.416	24.551	1411.259	1124.089
339.431	24.432	1411.281	1123.260
340.446	24.444	1410.325	1122.477
341.460	24.541	1408.933	1121.877
342.475	24.474	1407.910	1120.547
343.489	24.602	1407.376	1120.821
344.504	24.525	1406.471	1119.518
345.519	24.508	1405.522	1118.558
346.533	24.472	1404.754	1117.623
347.548	24.607	1403.781	1117.592
348.562	24.595	1403.440	1117.151
349.577	24.681	1402.120	1116.535
350.592	24.602	1401.655	1115.573
351.606	24.581	1400.655	1114.550
352.621	24.575	1399.731	1113.677
353.635	24.560	1399.020	1112.919
354.650	24.652	1398.180	1112.726
355.665	24.573	1397.243	1111.390
356.679	24.640	1396.047	1110.759
357.694	24.739	1395.034	1110.469
358.708	24.803	1393.919	1109.881
359.723	24.583	1392.869	1107.583
360.738	24.701	1391.668	1107.261
361.752	24.727	1390.589	1106.463
362.767	24.674	1389.246	1104.969
363.781	24.685	1388.637	1104.454
364.796	24.761	1388.138	1104.431
365.810	24.725	1387.437	1103.549
366.825	24.778	1386.886	1103.346
367.840	24.712	1385.893	1102.049
368.854	24.804	1385.417	1102.140
369.869	24.850	1384.899	1101.910
370.883	24.816	1384.366	1101.185
371.898	24.803	1383.734	1100.504
372.913	24.831	1383.237	1100.183
373.927	24.902	1382.002	1099.536
374.942	24.802	1381.271	1098.247
375.956	24.940	1380.663	1098.509
376.971	24.949	1379.318	1097.402
377.986	24.882	1378.659	1096.368
379.000	24.902	1377.914	1095.799
380.015	24.899	1377.413	1095.288
381.029	24.893	1376.741	1094.621
382.044	24.902	1376.009	1093.994
383.059	24.975	1375.365	1093.832
384.073	25.003	1374.613	1093.310
385.088	24.988	1374.272	1092.845
386.102	24.943	1373.850	1092.144
387.117	24.989	1372.690	1091.404
388.132	24.983	1372.438	1091.068
389.146	24.987	1371.265	1090.062
390.161	24.996	1370.732	1089.599
391.175	25.026	1370.146	1089.219
392.190	24.973	1369.711	1088.455
393.205	25.034	1368.619	1087.864
394.219	25.064	1367.698	1087.212
395.234	24.990	1366.586	1085.787
396.248	25.133	1365.263	1085.503
397.263	24.948	1364.486	1083.671
398.278	25.036	1363.269	1083.140
399.292	25.164	1361.917	1082.746
400.307	25.300	1361.279	1082.960
401.321	25.170	1360.485	1081.451
402.336	25.152	1359.610	1080.549
403.350	25.213	1358.349	1079.818
404.365	25.078	1357.768	1078.449
405.380	25.223	1356.801	1078.462
406.394	25.143	1356.010	1077.254
407.409	25.192	1355.152	1076.771
408.423	25.218	1354.620	1076.410
409.438	25.351	1354.085	1076.686
410.453	25.266	1353.717	1075.787
411.467	25.297	1352.095	1074.593
412.482	25.398	1351.726	1074.809
413.496	25.378	1351.108	1074.101
414.511	25.329	1350.224	1073.011
415.526	25.413	1349.363	1072.730
416.540	25.393	1348.806	1072.076
417.555	25.294	1348.155	1070.870
418.569	25.351	1347.987	1070.981
419.584	25.289	1347.564	1070.183
420.599	25.440	1346.211	1069.912
421.613	137.884	1436.431	1798.558
422.628	134.856	1449.543	1798.628
