DTS Sentinel unit serial number:	SN413079Multiplexer serial number:	ORYXHardware model number:	OX4-SRSoftware version number:	ORYX F/W v4.00 Oryx Data Collector v3.7.2.0data status	okinstallation	princeton_trtdifferential loss correction	single-endedforward channel	channel 4reverse channel	N/Adate	2019/09/11time	12:47:10forward acquisition time	60.00reverse acquisition time	0.00gamma	496.2192k internal	0.2284k external	0.2284temperature offset calibration	0.9965default loss term (dB/km)	0.3790temperature slope calibration	1.0000multiplexer offset coefficient	1.0000multiplexer slope coefficient	1.0000fibre end	0.00T internal ref (°C)	41.11T ext. ref 1 (°C)	0.24T ext. ref 2 (°C)	38.93length (m)	temperature (°C)	Stokes	anti-Stokes-747.200	-4.043	-0.028	-0.020
-746.185	-200.000	-0.061	0.287
-745.171	-107.478	0.024	0.005
-744.156	-200.000	-0.006	0.129
-743.142	-29.385	-0.044	0.026
-742.127	800.000	-0.114	0.341
-741.112	792.761	0.100	-0.282
-740.098	1.783	0.075	0.055
-739.083	-127.752	-0.214	-0.032
-738.069	315.005	0.205	0.397
-737.054	-200.000	-0.015	0.109
-736.039	44.836	-0.348	-0.329
-735.025	-200.000	-0.025	-0.200
-734.010	-184.200	-0.255	-0.004
-732.996	-77.070	-0.406	-0.145
-731.981	156.284	-0.174	-0.247
-730.966	-200.000	0.015	-0.512
-729.952	-82.831	-0.113	-0.037
-728.937	-71.298	-0.314	-0.121
-727.923	-182.530	0.210	0.004
-726.908	-106.826	-0.384	0.087
-725.894	-200.000	-0.007	-0.117
-724.879	119.264	-0.219	-0.278
-723.864	-200.000	0.009	-0.047
-722.850	-112.421	0.071	0.015
-721.835	-34.213	0.080	-0.045
-720.821	-200.000	-0.005	-0.484
-719.806	-200.000	0.001	-0.248
-718.791	-11.695	0.098	-0.066
-717.777	-200.000	-0.017	-0.173
-716.762	-200.000	0.005	0.112
-715.748	-121.324	-0.344	0.059
-714.733	59.218	-0.229	-0.231
-713.718	240.989	0.089	-0.152
-712.704	800.000	-0.072	-0.266
-711.689	-86.998	-0.083	-0.026
-710.675	-131.168	-0.028	0.004
-709.660	-180.212	0.183	0.004
-708.645	-200.000	-0.041	-0.196
-707.631	-200.000	-0.012	-0.090
-706.616	-129.086	-0.197	0.028
-705.602	76.693	0.193	0.210
-704.587	-200.000	-0.076	0.383
-703.572	800.000	0.079	0.283
-702.558	-200.000	-0.043	0.197
-701.543	-156.892	0.147	-0.009
-700.529	-36.579	0.200	0.110
-699.514	-200.000	-0.029	-0.171
-698.499	-142.082	-0.194	-0.020
-697.485	-3.832	0.211	0.150
-696.470	361.441	-0.133	-0.274
-695.456	142.995	-0.104	0.142
-694.441	-200.000	0.002	-0.179
-693.426	248.310	0.170	-0.295
-692.412	-43.371	-0.090	0.047
-691.397	177.473	-0.171	-0.256
-690.383	-66.180	0.237	0.097
-689.368	-27.305	-0.168	0.100
-688.354	39.496	0.117	-0.108
-687.339	-200.000	-0.018	0.142
-686.324	-94.691	0.231	-0.064
-685.310	-74.157	0.195	-0.072
-684.295	-200.000	-0.034	-0.187
-683.281	-200.000	-0.079	-0.442
-682.266	-200.000	-0.002	-0.132
-681.251	-200.000	-0.052	0.504
-680.237	666.562	0.044	0.118
-679.222	-40.701	-0.196	-0.104
-678.208	47.601	-0.221	-0.211
-677.193	10.996	-0.208	-0.163
-676.178	-12.851	0.038	-0.025
-675.164	-96.033	-0.212	0.058
-674.149	-145.224	0.255	0.024
-673.135	128.723	0.190	0.248
-672.120	10.722	0.237	-0.185
-671.105	-200.000	0.048	0.247
-670.091	17.155	-0.282	-0.229
-669.076	-2.380	-0.292	-0.210
-668.062	785.932	-0.083	-0.233
-667.047	-100.417	0.190	-0.048
-666.032	-200.000	0.022	-0.186
-665.018	412.372	-0.053	0.116
-664.003	131.285	-0.055	0.073
-662.989	-200.000	0.043	0.277
-661.974	-56.099	0.505	-0.230
-660.959	265.676	0.109	-0.194
-659.945	-25.608	0.147	-0.089
-658.930	15.605	-0.217	0.174
-657.916	-200.000	-0.032	-0.432
-656.901	-200.000	-0.021	-0.190
-655.886	245.361	-0.096	0.165
-654.872	43.997	-0.156	-0.147
-653.857	-70.140	0.281	-0.109
-652.843	800.000	-0.126	-0.534
-651.828	293.436	0.203	-0.380
-650.814	800.000	-0.057	-0.219
-649.799	13.312	-0.216	0.172
-648.784	-140.216	0.189	0.020
-647.770	665.044	0.112	-0.296
-646.755	123.135	-0.259	0.332
-645.741	82.259	-0.018	-0.020
-644.726	-85.299	0.079	-0.025
-643.711	800.000	-0.096	0.371
-642.697	800.000	0.023	-0.087
-641.682	-200.000	-0.005	-0.266
-640.668	89.178	-0.322	-0.367
-639.653	96.300	-0.186	-0.218
-638.638	-164.334	-0.213	-0.010
-637.624	27.023	-0.049	-0.042
-636.609	2.961	0.083	0.061
-635.595	30.536	-0.209	-0.183
-634.580	-200.000	-0.031	0.148
-633.565	-147.315	0.158	-0.014
-632.551	800.000	-0.068	0.243
-631.536	-200.000	-0.035	-0.186
-630.522	-110.429	-0.004	0.001
-629.507	-59.304	-0.156	0.068
-628.492	170.902	0.219	-0.320
-627.478	800.000	0.051	0.152
-626.463	-200.000	-0.013	-0.358
-625.449	800.000	-0.035	0.116
-624.434	-46.192	0.010	-0.005
-623.419	-115.918	0.069	-0.013
-622.405	58.976	-0.098	-0.098
-621.390	-200.000	-0.001	0.170
-620.376	-200.000	-0.028	-0.138
-619.361	26.238	-0.105	0.089
-618.346	-200.000	0.017	-0.242
-617.332	-102.919	-0.020	-0.005
-616.317	31.586	0.136	0.120
-615.303	-200.000	-0.019	-0.168
-614.288	-118.270	-0.144	-0.026
-613.273	-40.857	0.205	-0.109
-612.259	-90.806	0.054	0.016
-611.244	-200.000	-0.005	-0.119
-610.230	320.744	0.061	-0.118
-609.215	16.781	0.154	0.125
-608.201	68.064	0.163	-0.170
-607.186	48.547	0.102	-0.098
-606.171	-96.623	-0.475	-0.128
-605.157	-44.633	0.157	-0.080
-604.142	87.202	0.240	-0.272
-603.128	-40.877	-0.302	-0.159
-602.113	129.016	-0.051	0.066
-601.098	217.151	-0.106	-0.172
-600.084	-113.513	0.576	0.115
-599.069	-95.498	0.423	0.116
-598.055	-6.546	0.320	0.223
-597.040	800.000	-0.043	-0.142
-596.025	-200.000	-0.030	-0.146
-595.011	-120.764	0.017	0.003
-593.996	59.018	0.116	0.117
-592.982	-151.384	-0.291	0.022
-591.967	23.296	-0.169	-0.141
-590.952	-173.680	0.177	0.005
-589.938	52.784	-0.151	-0.147
-588.923	-125.965	0.382	0.059
-587.909	800.000	-0.078	-0.285
-586.894	-22.040	-0.028	0.017
-585.879	-160.245	-0.166	0.009
-584.865	24.721	-0.158	0.134
-583.850	278.492	-0.053	0.097
-582.836	-45.748	0.297	0.150
-581.821	800.000	-0.050	0.209
-580.806	66.998	-0.207	0.216
-579.792	-81.857	-0.081	0.027
-578.777	-125.235	0.092	-0.014
-577.763	220.235	-0.272	0.444
-576.748	-200.000	0.020	0.175
-575.733	-116.452	-0.149	0.028
-574.719	339.173	0.108	-0.214
-573.704	-200.000	-0.003	-0.109
-572.690	-200.000	-0.019	-0.121
-571.675	437.784	-0.024	-0.054
-570.661	-89.472	0.070	0.021
-569.646	180.469	-0.097	0.145
-568.631	-69.106	-0.425	-0.167
-567.617	-54.686	0.134	-0.062
-566.602	-119.393	0.165	0.029
-565.588	8.905	0.177	-0.136
-564.573	-28.151	0.171	0.101
-563.558	-200.000	0.035	-0.211
-562.544	72.019	-0.166	-0.176
-561.529	-86.793	0.140	-0.044
-560.515	800.000	-0.034	0.117
-559.500	-118.098	0.171	0.031
-558.485	49.104	0.069	-0.066
-557.471	133.813	0.154	-0.203
-556.456	679.228	0.052	-0.139
-555.442	64.273	0.193	0.198
-554.427	-200.000	0.008	0.077
-553.412	-200.000	-0.010	0.184
-552.398	-112.671	-0.322	-0.065
-551.383	329.819	-0.093	-0.183
-550.369	800.000	-0.052	0.225
-549.354	-200.000	-0.002	-0.144
-548.339	176.126	0.145	-0.215
-547.325	147.796	0.080	-0.111
-546.310	-97.890	0.561	0.148
-545.296	-196.802	-0.139	-0.001
-544.281	35.561	-0.146	0.130
-543.266	800.000	0.034	-0.110
-542.252	-133.797	0.296	0.038
-541.237	-69.780	0.215	-0.084
-540.223	-200.000	0.047	0.286
-539.208	-200.000	-0.009	-0.119
-538.193	-200.000	0.020	-0.095
-537.179	-103.623	-0.259	-0.062
-536.164	-79.972	0.222	-0.076
-535.150	-104.638	0.298	-0.070
-534.135	219.829	-0.154	-0.250
-533.121	-35.584	-0.212	-0.117
-532.106	-5.132	0.236	-0.166
-531.091	-200.000	-0.234	0.000
-530.077	334.389	-0.113	0.222
-529.062	-149.496	-0.422	0.034
-528.048	800.000	0.111	0.382
-527.033	-127.774	-0.372	0.055
-526.018	-200.000	-0.036	-0.192
-525.004	-34.640	0.258	0.144
-523.989	72.835	0.214	0.228
-522.975	211.930	-0.095	0.153
-521.960	-17.971	0.235	-0.150
-520.945	-200.000	0.010	-0.310
-519.931	-200.000	0.046	-0.364
-518.916	-200.000	0.043	-0.231
-517.902	706.540	0.069	0.185
-516.887	33.427	-0.249	0.220
-515.872	191.274	-0.060	-0.092
-514.858	76.253	-0.188	0.203
-513.843	603.851	-0.098	-0.248
-512.829	-200.000	-0.035	-0.195
-511.814	800.000	-0.033	-0.094
-510.799	-85.599	-0.157	0.050
-509.785	-24.071	0.253	-0.154
-508.770	116.782	0.089	0.112
-507.756	252.408	-0.065	-0.113
-506.741	-200.000	0.012	0.388
-505.726	8.655	-0.294	-0.225
-504.712	-71.730	-0.119	0.045
-503.697	259.382	-0.055	0.096
-502.683	-34.451	0.122	0.068
-501.668	-71.051	-0.301	0.115
-500.653	46.968	0.092	0.087
-499.639	184.455	0.163	-0.246
-498.624	114.312	0.099	-0.122
-497.610	-147.095	-0.166	-0.014
-496.595	442.599	0.040	-0.089
-495.581	800.000	0.107	-0.334
-494.566	-136.935	-0.223	-0.026
-493.551	-59.788	0.071	0.031
-492.537	-33.488	0.386	0.217
-491.522	-72.650	-0.303	0.114
-490.508	89.676	0.116	-0.132
-489.493	-191.947	0.217	-0.002
-488.478	800.000	0.088	-0.298
-487.464	-200.000	0.062	-0.506
-486.449	-200.000	-0.003	-0.030
-485.435	38.629	-0.117	-0.106
-484.420	520.312	-0.074	0.177
-483.405	164.450	0.065	-0.093
-482.391	27.647	0.078	-0.067
-481.376	660.439	0.065	0.170
-480.362	800.000	-0.075	0.325
-479.347	-74.225	-0.087	0.032
-478.332	268.418	0.250	0.445
-477.318	-80.483	-0.223	0.076
-476.303	-200.000	-0.025	-0.192
-475.289	-45.161	0.142	0.072
-474.274	336.894	-0.019	-0.037
-473.259	-25.830	0.342	0.205
-472.245	-180.215	-0.157	0.003
-471.230	-200.000	-0.031	-0.141
-470.216	259.447	-0.131	0.230
-469.201	147.365	0.058	-0.080
-468.186	-199.066	-0.369	0.002
-467.172	46.302	0.258	0.243
-466.157	101.736	0.145	0.171
-465.143	87.979	0.191	0.215
-464.128	111.680	0.104	0.127
-463.113	48.894	-0.202	-0.192
-462.099	-139.178	-0.198	-0.022
-461.084	-200.000	0.015	0.261
-460.070	-138.762	0.233	-0.026
-459.055	800.000	-0.069	0.197
-458.040	-6.081	-0.293	0.204
-457.026	17.011	0.169	0.136
-456.011	-200.000	0.000	-0.003
-454.997	-112.016	0.080	-0.016
-453.982	97.762	-0.240	-0.280
-452.968	-81.124	0.049	-0.017
-451.953	65.258	0.169	0.173
-450.938	44.573	0.161	-0.150
-449.924	7.956	-0.173	0.132
-448.909	-52.302	0.500	0.235
-447.895	800.000	0.072	-0.201
-446.880	-51.941	-0.198	0.094
-445.865	408.670	-0.143	-0.308
-444.851	164.853	0.173	0.248
-443.836	175.254	0.152	-0.223
-442.822	-67.412	-0.145	0.058
-441.807	346.146	-0.188	-0.375
-440.792	212.844	-0.078	-0.125
-439.778	-45.783	0.259	0.130
-438.763	-157.022	-0.305	-0.019
-437.749	-200.000	-0.022	0.190
-436.734	-200.000	-0.001	-0.109
-435.719	72.115	0.139	-0.147
-434.705	346.447	0.026	0.052
-433.690	29.105	0.130	0.112
-432.676	-85.813	0.156	0.049
-431.661	488.177	0.097	-0.224
-430.646	103.428	-0.119	0.141
-429.632	23.351	-0.158	0.132
-428.617	-200.000	0.006	-0.333
-427.603	75.376	-0.035	-0.037
-426.588	-43.962	-0.364	-0.186
-425.573	800.000	-0.027	0.097
-424.559	-49.830	-0.271	-0.131
-423.544	-28.064	-0.233	0.137
-422.530	108.483	-0.131	0.159
-421.515	552.797	-0.099	0.242
-420.500	132.203	-0.112	0.147
-419.486	-132.115	-0.249	0.033
-418.471	-200.000	-0.028	-0.144
-417.457	10.348	0.073	0.056
-416.442	-70.630	0.097	0.037
-415.428	800.000	-0.067	-0.239
-414.413	122.289	0.303	0.384
-413.398	800.000	-0.050	0.181
-412.384	-56.861	0.216	-0.097
-411.369	174.273	0.222	-0.325
-410.355	99.946	-0.102	-0.120
-409.340	192.652	-0.195	0.298
-408.325	166.596	-0.083	0.120
-407.311	-200.000	-0.045	-0.436
-406.296	-200.000	-0.050	0.233
-405.282	800.000	0.029	0.081
-404.267	-200.000	0.051	0.386
-403.252	-76.949	0.097	0.034
-402.238	-68.252	0.029	-0.011
-401.223	-107.617	0.402	-0.089
-400.209	21.805	-0.101	-0.083
-399.194	161.415	0.119	0.169
-398.179	800.000	0.111	0.430
-397.165	-72.272	-0.343	0.129
-396.150	174.613	-0.168	0.246
-395.136	-56.703	0.168	0.075
-394.121	20.948	0.248	-0.204
-393.106	-53.899	0.119	-0.055
-392.092	36.680	-0.297	0.266
-391.077	-49.875	-0.277	0.133
-390.063	82.321	-0.071	0.078
-389.048	-193.273	-0.161	0.001
-388.033	-81.499	-0.173	-0.058
-387.019	-39.660	0.134	0.071
-386.004	45.245	-0.113	-0.105
-384.990	-23.989	-0.247	-0.150
-383.975	-163.853	-0.496	-0.023
-382.960	-56.183	0.161	-0.073
-381.946	-35.263	0.215	-0.118
-380.931	-200.000	-0.003	-0.121
-379.917	-8.485	0.062	0.042
-378.902	-200.000	-0.001	0.043
-377.888	-60.299	-0.125	0.054
-376.873	413.950	0.046	0.100
-375.858	-155.889	-0.157	0.010
-374.844	800.000	-0.030	0.128
-373.829	15.027	0.126	0.100
-372.815	-200.000	0.000	0.071
-371.800	-200.000	0.026	0.219
-370.785	97.118	-0.122	0.142
-369.771	16.370	-0.032	-0.026
-368.756	169.010	0.266	-0.384
-367.742	125.714	0.137	-0.174
-366.727	76.508	-0.085	0.091
-365.712	-53.141	-0.111	-0.052
-364.698	800.000	-0.071	0.280
-363.683	-91.755	-0.076	0.022
-362.669	-85.737	0.057	-0.018
-361.654	-187.165	0.155	0.002
-360.639	-28.457	0.163	0.095
-359.625	2.604	-0.325	-0.238
-358.610	499.885	0.088	-0.205
-357.596	-200.000	-0.026	0.265
-356.581	229.490	-0.266	-0.440
-355.566	-200.000	-0.024	-0.200
-354.552	-200.000	-0.010	-0.283
-353.537	-200.000	-0.003	0.235
-352.523	206.074	0.179	0.281
-351.508	-115.537	0.135	-0.026
-350.493	-93.821	-0.110	-0.031
-349.479	164.068	0.145	-0.207
-348.464	-157.298	0.124	-0.008
-347.450	118.256	-0.124	0.154
-346.435	-200.000	-0.001	0.111
-345.420	-134.451	-0.076	0.009
-344.406	159.903	-0.156	0.220
-343.391	120.653	0.216	-0.271
-342.377	388.665	-0.088	0.183
-341.362	434.014	-0.057	-0.125
-340.348	588.366	0.073	0.183
-339.333	29.621	-0.215	0.185
-338.318	-192.773	0.518	-0.005
-337.304	624.428	-0.064	-0.162
-336.289	-16.011	0.339	-0.218
-335.275	-7.506	0.195	-0.133
-334.260	100.703	-0.185	-0.217
-333.245	55.190	-0.106	-0.103
-332.231	141.496	-0.069	-0.092
-331.216	-200.000	0.018	0.097
-330.202	-200.000	-0.039	0.287
-329.187	-71.509	-0.409	0.155
-328.172	800.000	-0.096	0.322
-327.158	-200.000	0.011	-0.160
-326.143	100.203	0.177	-0.208
-325.129	-53.112	-0.585	0.272
-324.114	347.824	0.127	0.253
-323.099	-97.381	-0.142	0.037
-322.085	93.863	0.099	0.114
-321.070	800.000	-0.069	0.279
-320.056	-59.558	-0.196	0.085
-319.041	-29.596	-0.030	-0.017
-318.026	-43.347	0.262	0.134
-317.012	148.518	-0.059	-0.080
-315.997	272.699	-0.197	-0.351
-314.983	158.662	-0.063	-0.088
-313.968	142.782	-0.032	-0.043
-312.953	-78.774	0.191	-0.066
-311.939	-142.833	-0.241	0.024
-310.924	-106.977	0.293	-0.066
-309.910	235.971	-0.070	-0.117
-308.895	-64.758	-0.226	0.092
-307.880	-33.282	0.140	0.078
-306.866	-71.468	-0.291	-0.110
-305.851	-100.563	-0.082	0.021
-304.837	1.612	0.170	-0.124
-303.822	221.410	-0.034	0.055
-302.807	19.918	0.227	-0.185
-301.793	-200.000	-0.036	-0.195
-300.778	-200.000	0.064	0.290
-299.764	800.000	0.016	-0.057
-298.749	-200.000	0.003	0.051
-297.735	800.000	-0.011	-0.033
-296.720	387.398	-0.102	0.213
-295.705	262.406	-0.198	0.347
-294.691	-11.137	0.310	-0.206
-293.676	37.694	-0.078	0.070
-292.662	240.829	-0.121	-0.204
-291.647	-200.000	-0.003	-0.116
-290.632	-147.327	-0.006	-0.001
-289.618	800.000	-0.061	-0.247
-288.603	-56.849	0.494	-0.220
-287.589	72.776	-0.128	0.135
-286.574	-98.269	-0.361	0.094
-285.559	-72.559	0.045	-0.017
-284.545	346.127	-0.093	-0.184
-283.530	-200.000	0.015	-0.146
-282.516	-38.536	0.290	0.155
-281.501	-200.000	-0.005	-0.029
-280.486	262.905	0.128	-0.225
-279.472	416.043	0.058	0.125
-278.457	250.590	-0.033	-0.056
-277.443	-161.989	-0.066	0.003
-276.428	102.182	-0.207	0.244
-275.413	-127.798	0.178	0.026
-274.399	85.501	-0.031	0.034
-273.384	-47.169	-0.171	0.084
-272.370	-200.000	-0.035	-0.336
-271.355	-164.558	0.164	0.008
-270.340	32.103	-0.294	-0.256
-269.326	40.281	-0.074	-0.067
-268.311	-39.913	-0.186	0.098
-267.297	-169.072	-0.116	-0.004
-266.282	-200.000	-0.030	0.181
-265.267	187.628	0.174	0.262
-264.253	124.167	0.193	-0.245
-263.238	34.542	0.438	-0.386
-262.224	-74.826	-0.065	-0.024
-261.209	81.042	0.162	0.177
-260.195	800.000	0.039	-0.115
-259.180	85.431	-0.248	-0.274
-258.165	-68.508	0.076	0.030
-257.151	-5.735	0.159	0.110
-256.136	627.030	0.056	0.143
-255.122	-190.696	-0.271	0.003
-254.107	-19.038	-0.166	-0.104
-253.092	452.568	0.071	-0.157
-252.078	25.362	0.087	0.073
-251.063	-152.621	0.349	0.025
-250.049	314.977	0.112	0.213
-249.034	800.000	0.057	-0.211
-248.019	-29.685	-0.308	0.177
-247.005	-20.399	-0.262	0.162
-245.990	46.656	0.260	0.243
-244.976	282.073	0.109	-0.197
-243.961	237.747	-0.190	-0.317
-242.946	-147.838	-0.253	0.021
-241.932	274.736	0.102	-0.182
-240.917	800.000	-0.095	0.305
-239.903	-200.000	-0.048	-0.253
-238.888	-18.375	-0.077	0.049
-237.873	-58.612	0.380	0.166
-236.859	-200.000	0.018	-0.119
-235.844	179.235	-0.258	0.380
-234.830	557.765	0.124	0.301
-233.815	800.000	-0.045	0.171
-232.800	-57.673	-0.128	0.057
-231.786	800.000	0.040	0.116
-230.771	-7.080	0.308	-0.211
-229.757	-161.629	-0.073	-0.004
-228.742	-0.923	0.066	0.047
-227.727	-16.432	0.090	0.057
-226.713	-121.720	0.376	0.063
-225.698	198.384	-0.064	-0.099
-224.684	800.000	-0.099	0.345
-223.669	221.214	0.099	-0.159
-222.655	13.996	0.397	-0.311
-221.640	245.288	0.146	0.246
-220.625	-32.556	0.350	-0.196
-219.611	-200.000	-0.040	-0.266
-218.596	120.817	-0.091	0.114
-217.582	270.425	-0.077	0.137
-216.567	800.000	-0.034	0.148
-215.552	800.000	-0.107	0.446
-214.538	-27.919	0.228	0.133
-213.523	-159.763	0.183	0.010
-212.509	-149.833	0.514	0.041
-211.494	-200.000	-0.010	-0.231
-210.479	800.000	0.091	0.358
-209.465	-200.000	0.076	0.440
-208.450	-200.000	-0.003	0.070
-207.436	-195.288	-0.344	0.003
-206.421	800.000	-0.082	0.253
-205.406	-131.657	0.080	0.011
-204.392	298.186	0.087	-0.161
-203.377	236.092	0.237	-0.393
-202.363	393.447	0.017	-0.036
-201.348	38.388	-0.194	0.174
-200.333	103.665	0.285	0.336
-199.319	222.875	-0.096	0.156
-198.304	226.882	0.062	-0.101
-197.290	785.470	-0.050	0.138
-196.275	-109.843	0.019	0.004
-195.260	-44.981	0.129	-0.065
-194.246	152.478	0.055	0.076
-193.231	-53.470	0.106	-0.049
-192.217	800.000	0.073	-0.206
-191.202	-10.307	0.253	-0.169
-190.187	162.373	-0.254	-0.358
-189.173	-200.000	-0.006	0.141
-188.158	-97.182	0.130	-0.034
-187.144	97.076	-0.124	0.143
-186.129	110.027	0.163	0.197
-185.114	21.644	0.119	-0.098
-184.100	53.800	-0.138	-0.133
-183.085	-48.064	0.150	-0.073
-182.071	800.000	-0.120	0.351
-181.056	-200.000	0.043	-0.214
-180.042	-128.056	-0.258	0.037
-179.027	79.144	0.086	0.093
-178.012	18.569	-0.093	-0.075
-176.998	-85.515	-0.256	-0.080
-175.983	-200.000	-0.029	-0.161
-174.969	-200.000	-0.078	0.436
-173.954	800.000	0.065	0.276
-172.939	637.496	-0.053	-0.136
-171.925	-33.712	-0.239	-0.132
-170.910	800.000	-0.064	-0.239
-169.896	-48.333	0.050	0.024
-168.881	-29.183	-0.308	-0.177
-167.866	-183.573	-0.500	-0.009
-166.852	238.301	0.171	-0.285
-165.837	-117.414	-0.268	0.049
-164.823	404.908	-0.033	-0.069
-163.808	66.469	0.202	-0.207
-162.793	288.239	-0.169	0.307
-161.779	-12.290	0.235	-0.154
-160.764	704.300	0.156	-0.414
-159.750	800.000	-0.111	-0.315
-158.735	-110.775	0.216	0.045
-157.720	-189.986	-0.438	-0.005
-156.706	-200.000	0.003	0.177
-155.691	724.818	0.068	0.183
-154.677	32.153	0.319	0.276
-153.662	-98.899	-0.157	0.040
-152.647	228.680	0.122	-0.199
-151.633	-134.576	0.246	0.030
-150.618	-19.932	-0.101	0.063
-149.604	153.353	-0.082	-0.112
-148.589	-40.350	-0.399	0.208
-147.574	-149.185	-0.207	-0.017
-146.560	145.878	-0.219	-0.295
-145.545	-65.538	-0.278	-0.112
-144.531	23.516	-0.397	0.328
-143.516	98.370	-0.052	0.060
-142.502	164.975	-0.133	-0.189
-141.487	800.000	-0.030	-0.106
-140.472	-158.062	0.448	0.026
-139.458	-142.511	0.098	-0.010
-138.443	102.983	0.052	-0.061
-137.429	-137.448	-0.357	-0.040
-136.414	-200.000	0.013	-0.185
-135.399	6.468	-0.233	-0.174
-134.385	-181.298	0.064	0.001
-133.370	-16.641	-0.141	-0.089
-132.356	82.028	0.158	0.172
-131.341	800.000	-0.082	0.314
-130.326	-200.000	0.027	0.429
-129.312	4.014	0.100	-0.074
-128.297	417.510	-0.037	-0.080
-127.283	-138.421	-0.101	-0.011
-126.268	-84.533	-0.228	0.072
-125.253	-90.727	0.237	0.069
-124.239	-200.000	0.014	-0.071
-123.224	187.292	-0.131	-0.196
-122.210	15.896	0.127	-0.100
-121.195	-66.645	-0.445	0.177
-120.180	-200.000	0.063	0.535
-119.166	-200.000	-0.037	0.163
-118.151	-200.000	0.059	-0.342
-117.137	74.347	0.162	-0.171
-116.122	-103.925	0.357	-0.084
-115.107	-130.937	-0.258	-0.035
-114.093	427.646	-0.076	-0.165
-113.078	149.845	-0.053	0.072
-112.064	180.743	-0.240	0.352
-111.049	-120.319	0.174	0.030
-110.034	-51.402	0.085	-0.040
-109.020	-44.543	0.094	0.047
-108.005	176.319	-0.116	-0.168
-106.991	-200.000	-0.007	0.382
-105.976	-200.000	0.043	0.296
-104.962	800.000	0.031	-0.113
-103.947	19.290	-0.135	0.109
-102.932	-64.678	0.103	-0.042
-101.918	-46.914	-0.254	0.124
-100.903	205.705	-0.045	-0.069
-99.889	800.000	-0.093	0.384
-98.874	220.097	0.005	0.008
-97.859	11.663	0.252	0.194
-96.845	-85.781	-0.144	0.045
-95.830	104.430	-0.195	-0.230
-94.816	-95.513	0.349	-0.094
-93.801	119.477	0.084	-0.104
-92.786	-138.008	0.217	0.024
-91.772	459.987	-0.118	0.263
-90.757	800.000	0.065	0.240
-89.743	-64.615	-0.104	0.042
-88.728	-22.280	0.042	0.026
-87.713	800.000	-0.038	0.119
-86.699	-43.119	0.127	-0.064
-85.684	-60.644	0.046	-0.020
-84.670	-5.262	0.203	-0.139
-83.655	-54.964	-0.297	0.134
-82.640	-200.000	0.055	0.301
-81.626	127.809	-0.170	-0.216
-80.611	-200.000	0.024	0.162
-79.597	-172.501	0.535	0.017
-78.582	154.667	0.170	-0.233
-77.567	-162.208	-0.143	0.007
-76.553	800.000	0.098	0.371
-75.538	-200.000	-0.021	-0.137
-74.524	189.435	0.059	0.089
-73.509	-200.000	-0.001	-0.037
-72.494	106.079	-0.060	0.071
-71.480	231.159	0.122	0.199
-70.465	9.924	-0.023	-0.018
-69.451	-200.000	-0.010	-0.259
-68.436	-15.696	0.239	-0.152
-67.422	-200.000	0.007	-0.094
-66.407	800.000	-0.011	-0.044
-65.392	-31.707	-0.110	-0.062
-64.378	101.590	-0.074	-0.086
-63.363	-200.000	0.017	0.240
-62.349	-70.709	0.275	0.104
-61.334	241.315	-0.639	-1.068
-60.319	-97.713	0.221	0.057
-59.305	293.207	-0.372	-0.679
-58.290	67.681	0.475	0.486
-57.276	800.000	0.615	1.888
-56.261	-200.000	75.986	513.556
-55.246	530.737	1314.781	3106.818
-54.232	142.227	2574.802	3415.462
-53.217	107.159	2396.233	2846.936
-52.203	47.878	2135.293	1993.657
-51.188	42.921	2042.484	1861.253
-50.173	41.137	2023.987	1827.965
-49.159	53.191	2062.179	1974.218
-48.144	57.880	2082.654	2037.149
-47.130	43.802	2046.709	1872.962
-46.115	41.123	2035.054	1837.535
-45.100	41.007	2032.294	1833.897
-44.086	40.926	2030.564	1831.517
-43.071	40.969	2027.720	1829.281
-42.057	40.945	2025.529	1827.008
-41.042	40.970	2023.806	1825.608
-40.027	41.014	2021.919	1824.244
-39.013	41.026	2019.518	1822.115
-37.998	40.897	2018.378	1819.827
-36.984	40.999	2016.311	1818.824
-35.969	41.041	2013.875	1816.944
-34.954	41.059	2012.710	1815.979
-33.940	41.077	2011.067	1814.593
-32.925	41.063	2008.999	1812.526
-31.911	41.150	2006.928	1811.382
-30.896	41.143	2005.580	1810.024
-29.881	41.128	2004.022	1808.409
-28.867	41.154	2001.915	1806.672
-27.852	41.185	2000.242	1805.373
-26.838	41.101	1998.392	1802.873
-25.823	41.173	1996.358	1801.616
-24.809	41.221	1994.366	1800.180
-23.794	41.178	1992.652	1798.176
-22.779	41.203	1990.758	1796.615
-21.765	41.174	1989.433	1795.093
-20.750	41.127	1987.562	1792.910
-19.736	41.150	1985.790	1791.447
-18.721	41.104	1984.590	1789.881
-17.706	41.144	1983.055	1788.778
-16.692	41.138	1980.850	1786.669
-15.677	41.097	1979.522	1785.032
-14.663	41.113	1977.852	1783.598
-13.648	41.142	1976.982	1782.999
-12.633	41.133	1975.837	1781.820
-11.619	41.090	1974.696	1780.338
-10.604	41.098	1972.996	1778.808
-9.590	41.142	1971.227	1777.526
-8.575	41.131	1969.891	1776.161
-7.560	41.149	1968.683	1775.161
-6.546	41.141	1967.497	1773.950
-5.531	41.111	1966.414	1772.633
-4.517	41.165	1964.806	1771.592
-3.502	41.109	1963.912	1770.217
-2.487	41.079	1962.713	1768.797
-1.473	41.134	1961.511	1768.135
-0.458	41.295	1957.855	1766.196
0.556	39.692	1939.234	1744.084
1.571	35.991	1920.777	1694.845
2.586	31.984	1942.019	1677.694
3.600	30.556	1979.683	1697.054
4.615	29.409	1976.422	1683.649
5.629	21.763	1866.744	1523.880
6.644	7.978	1732.480	1302.163
7.659	0.988	1686.937	1212.021
8.673	0.402	1682.811	1204.269
9.688	0.297	1681.315	1202.254
10.702	0.201	1679.657	1200.199
11.717	0.051	1677.295	1197.215
12.731	0.365	1676.556	1199.076
13.746	8.022	1696.094	1274.372
14.761	19.459	1721.977	1386.096
15.775	23.739	1728.758	1425.867
16.790	23.635	1728.050	1424.322
17.804	23.725	1726.715	1423.816
18.819	23.720	1726.239	1423.257
19.834	23.872	1724.897	1423.247
20.848	24.092	1724.323	1424.402
21.863	24.026	1723.251	1422.868
22.877	24.171	1722.146	1422.988
23.892	24.126	1721.572	1422.030
24.907	24.085	1720.688	1420.848
25.921	24.044	1719.983	1419.813
26.936	24.115	1718.708	1419.196
27.950	24.024	1718.387	1418.079
28.965	24.093	1717.163	1417.495
29.980	24.077	1716.514	1416.706
30.994	24.113	1714.764	1415.420
32.009	24.119	1713.522	1414.318
33.023	24.080	1712.493	1413.037
34.038	24.134	1711.651	1412.643
35.053	24.058	1710.775	1411.196
36.067	24.117	1709.520	1410.500
37.082	24.092	1708.493	1409.332
38.096	24.094	1707.595	1408.485
39.111	24.080	1707.329	1408.030
40.126	24.104	1706.010	1407.006
41.140	23.951	1705.693	1405.411
42.155	24.081	1704.067	1404.968
43.169	24.006	1702.778	1403.195
44.184	23.946	1702.310	1402.208
45.199	24.057	1701.271	1402.104
46.213	23.960	1699.669	1399.895
47.228	24.035	1698.629	1399.503
48.242	24.074	1696.806	1398.187
49.257	24.133	1696.033	1397.892
50.271	24.099	1694.716	1396.416
51.286	24.188	1693.552	1396.029
52.301	24.067	1692.660	1394.222
53.315	24.118	1690.998	1393.125
54.330	24.111	1689.111	1391.394
55.344	24.025	1688.094	1389.764
56.359	24.163	1686.663	1389.540
57.374	24.116	1685.957	1388.466
58.388	24.086	1684.873	1387.217
59.403	24.130	1683.593	1386.381
60.417	24.147	1682.134	1385.191
61.432	24.099	1681.925	1384.527
62.447	24.146	1680.580	1383.656
63.461	24.083	1679.945	1382.523
64.476	24.102	1678.736	1381.554
65.490	24.147	1677.319	1380.618
66.505	24.128	1676.678	1379.822
67.520	24.106	1675.195	1378.303
68.534	24.064	1674.192	1377.031
69.549	24.045	1673.464	1376.169
70.563	24.123	1671.910	1375.369
71.578	24.136	1670.305	1374.027
72.593	24.157	1669.744	1373.607
73.607	24.206	1668.683	1372.989
74.622	24.190	1667.542	1371.805
75.636	24.009	1667.671	1370.395
76.651	24.141	1666.366	1370.222
77.666	24.237	1665.277	1369.944
78.680	24.123	1664.407	1368.231
79.695	24.101	1663.488	1367.183
80.709	24.126	1662.877	1366.753
81.724	24.112	1662.181	1365.949
82.739	24.150	1661.142	1365.265
83.753	24.064	1659.963	1363.519
84.768	24.172	1658.679	1363.173
85.782	24.153	1658.291	1362.586
86.797	24.169	1656.892	1361.439
87.812	24.118	1656.219	1360.376
88.826	24.129	1655.339	1359.612
89.841	24.103	1654.180	1358.345
90.855	24.203	1653.080	1358.081
91.870	24.229	1651.535	1356.893
92.884	24.087	1651.050	1355.289
93.899	24.238	1649.792	1355.286
94.914	24.207	1648.829	1354.145
95.928	24.113	1648.029	1352.649
96.943	24.154	1646.666	1351.722
97.957	24.141	1645.238	1350.335
98.972	24.146	1643.886	1349.145
99.987	24.192	1642.695	1348.397
101.001	24.171	1641.237	1346.915
102.016	24.088	1639.658	1344.876
103.030	24.068	1638.408	1343.585
104.045	24.194	1637.086	1343.328
105.060	24.141	1635.699	1341.669
106.074	24.087	1634.736	1340.359
107.089	24.166	1633.715	1339.995
108.103	24.226	1632.696	1339.490
109.118	24.247	1631.468	1338.524
110.133	24.230	1629.814	1336.920
111.147	24.189	1629.059	1335.876
112.162	24.182	1628.279	1335.063
113.176	24.253	1626.995	1334.430
114.191	24.265	1625.602	1333.252
115.206	24.263	1624.299	1332.058
116.220	24.200	1623.562	1330.858
117.235	24.136	1622.447	1329.353
118.249	24.160	1620.763	1328.030
119.264	24.234	1619.699	1327.598
120.279	24.141	1618.671	1325.945
121.293	24.302	1617.426	1326.000
122.308	24.196	1616.230	1324.114
123.322	24.213	1614.903	1323.043
124.337	24.239	1613.618	1322.063
125.352	24.216	1612.888	1321.174
126.366	24.274	1611.714	1320.531
127.381	24.301	1610.325	1319.476
128.395	24.360	1609.513	1319.127
129.410	24.248	1608.646	1317.475
130.424	24.282	1607.336	1316.534
131.439	24.308	1605.797	1315.346
132.454	24.211	1605.125	1313.969
133.468	24.332	1603.455	1313.377
134.483	24.250	1602.238	1311.656
135.497	24.279	1601.423	1311.091
136.512	24.269	1599.940	1309.681
137.527	24.318	1598.654	1308.876
138.541	24.394	1597.528	1308.396
139.556	24.254	1596.875	1306.718
140.570	24.379	1594.975	1305.965
141.585	24.301	1593.834	1304.346
142.600	24.331	1592.952	1303.722
143.614	24.336	1591.497	1302.453
144.629	24.303	1590.518	1301.302
145.643	24.280	1589.175	1299.918
146.658	24.286	1587.889	1298.795
147.673	24.285	1586.412	1297.465
148.687	24.291	1585.432	1296.593
149.702	24.263	1584.531	1295.533
150.716	24.310	1582.604	1294.185
151.731	24.191	1582.625	1293.227
152.746	24.222	1581.212	1292.185
153.760	24.238	1579.892	1291.107
154.775	24.216	1578.844	1289.971
155.789	24.329	1577.587	1289.650
156.804	24.293	1576.615	1288.480
157.819	24.304	1575.412	1287.464
158.833	24.212	1574.958	1286.315
159.848	24.381	1573.283	1286.051
160.862	24.379	1572.390	1285.195
161.877	24.369	1571.326	1284.140
162.892	24.324	1570.784	1283.255
163.906	24.291	1569.797	1282.101
164.921	24.405	1568.681	1281.896
165.935	24.352	1567.782	1280.662
166.950	24.421	1566.600	1280.084
167.964	24.452	1565.461	1279.259
168.979	24.334	1565.106	1278.007
169.994	24.487	1563.502	1277.685
171.008	24.385	1563.195	1276.590
172.023	24.390	1562.239	1275.729
173.037	24.456	1561.027	1275.097
174.052	24.412	1559.941	1273.787
175.067	24.421	1559.175	1273.114
176.081	24.565	1557.693	1272.817
177.096	24.488	1557.053	1271.628
178.110	24.429	1555.572	1269.891
179.125	24.383	1554.978	1268.964
180.140	24.381	1554.576	1268.509
181.154	24.494	1553.335	1268.191
182.169	24.498	1552.266	1267.232
183.183	24.405	1551.135	1265.539
184.198	24.409	1550.925	1265.280
185.213	24.508	1549.569	1264.766
186.227	24.589	1548.645	1264.473
187.242	24.528	1547.704	1263.161
188.256	24.536	1547.338	1262.805
189.271	24.517	1546.410	1261.802
190.286	24.462	1545.758	1260.771
191.300	24.471	1544.577	1259.762
192.315	24.544	1543.818	1259.546
193.329	24.515	1542.521	1258.172
194.344	24.446	1542.026	1257.170
195.359	24.452	1541.451	1256.630
196.373	24.473	1540.744	1256.088
197.388	24.488	1539.285	1254.897
198.402	24.458	1538.295	1253.765
199.417	24.446	1537.071	1252.575
200.432	24.514	1536.074	1252.126
201.446	24.470	1535.909	1251.577
202.461	24.450	1535.221	1250.766
203.475	24.456	1534.101	1249.781
204.490	24.601	1533.011	1249.797
205.504	24.484	1532.340	1248.325
206.519	24.418	1531.494	1247.058
207.534	24.494	1530.548	1246.713
208.548	24.570	1529.704	1246.444
209.563	24.550	1529.162	1245.755
210.577	24.527	1527.700	1244.291
211.592	24.579	1526.969	1243.948
212.607	24.540	1526.399	1243.103
213.621	24.569	1525.950	1242.827
214.636	24.713	1524.854	1242.823
215.650	24.666	1523.916	1241.623
216.665	24.623	1523.162	1240.604
217.680	24.635	1522.419	1239.972
218.694	24.616	1521.454	1238.945
219.709	24.696	1520.760	1238.822
220.723	24.603	1520.046	1237.487
221.738	24.585	1519.099	1236.485
222.753	24.657	1518.142	1236.090
223.767	24.603	1517.415	1235.019
224.782	24.569	1516.505	1233.930
225.796	24.591	1515.788	1233.391
226.811	24.664	1515.084	1233.215
227.826	24.690	1514.493	1232.799
228.840	24.731	1513.292	1231.996
229.855	24.770	1512.688	1231.670
230.869	24.721	1511.546	1230.293
231.884	24.658	1510.708	1229.067
232.899	24.688	1509.803	1228.424
233.913	24.707	1508.500	1227.391
234.928	24.660	1507.628	1226.247
235.942	24.797	1506.386	1226.069
236.957	24.802	1505.448	1225.233
237.972	24.836	1504.173	1224.319
238.986	24.732	1503.365	1222.838
240.001	24.791	1502.426	1222.371
241.015	24.718	1501.847	1221.297
242.030	24.907	1500.574	1221.443
243.045	24.884	1499.460	1220.269
244.059	24.921	1498.785	1219.862
245.074	24.880	1498.276	1219.064
246.088	24.833	1497.401	1217.919
247.103	24.953	1496.458	1217.861
248.117	24.923	1495.907	1217.101
249.132	24.895	1494.771	1215.883
250.147	24.861	1494.408	1215.250
251.161	24.930	1493.277	1214.686
252.176	24.973	1492.715	1214.419
253.190	25.000	1491.917	1213.844
254.205	24.918	1491.399	1212.754
255.220	25.031	1490.521	1212.700
256.234	24.945	1489.486	1211.171
257.249	24.953	1489.059	1210.770
258.263	24.957	1488.406	1210.157
259.278	24.981	1487.413	1209.408
260.293	24.994	1486.360	1208.530
261.307	24.964	1485.859	1207.817
262.322	25.106	1485.086	1208.033
263.336	25.003	1484.030	1206.375
264.351	24.983	1482.978	1205.277
265.366	24.977	1482.297	1204.581
266.380	25.029	1481.599	1204.257
267.395	25.108	1480.388	1203.694
268.409	25.001	1479.833	1202.417
269.424	25.008	1478.789	1201.513
270.439	25.000	1477.820	1200.566
271.453	25.090	1476.987	1200.385
272.468	25.063	1476.354	1199.580
273.482	25.086	1475.509	1198.945
274.497	25.044	1474.771	1197.959
275.512	24.988	1474.160	1196.979
276.526	25.154	1472.886	1196.950
277.541	25.144	1472.310	1196.308
278.555	25.105	1471.422	1195.222
279.570	25.142	1470.603	1194.693
280.585	25.187	1469.549	1194.033
281.599	25.062	1469.177	1192.795
282.614	25.108	1468.236	1192.231
283.628	25.170	1466.763	1191.342
284.643	25.163	1466.150	1190.692
285.657	25.232	1464.941	1190.059
286.672	25.194	1464.285	1189.172
287.687	25.072	1463.768	1187.838
288.701	25.133	1462.818	1187.367
289.716	25.236	1461.974	1187.256
290.730	25.211	1461.359	1186.486
291.745	25.295	1460.078	1185.894
292.760	25.227	1459.307	1184.714
293.774	25.302	1458.450	1184.412
294.789	25.318	1457.595	1183.718
295.803	25.319	1457.076	1183.198
296.818	25.227	1456.889	1182.332
297.833	25.334	1455.195	1181.560
298.847	25.273	1454.749	1180.693
299.862	25.350	1453.575	1180.139
300.876	25.240	1452.928	1178.789
301.891	25.358	1451.604	1178.385
302.906	25.336	1451.298	1177.884
303.920	25.321	1450.958	1177.407
304.935	25.426	1449.984	1177.204
305.949	25.399	1449.129	1176.226
306.964	25.402	1448.499	1175.630
307.979	25.518	1447.123	1175.167
308.993	25.437	1446.670	1174.169
310.008	25.415	1445.792	1173.203
311.022	25.435	1444.558	1172.235
312.037	25.453	1443.630	1171.493
313.052	25.456	1443.169	1171.031
314.066	25.356	1442.592	1169.814
315.081	25.396	1441.439	1169.035
316.095	25.516	1439.944	1168.499
317.110	25.554	1439.135	1167.984
318.125	25.540	1438.348	1167.154
319.139	25.486	1437.525	1166.030
320.154	25.558	1436.965	1165.940
321.168	25.491	1435.875	1164.517
322.183	25.515	1434.768	1163.673
323.197	25.645	1434.009	1163.796
324.212	25.569	1433.311	1162.634
325.227	25.608	1432.352	1162.003
326.241	25.685	1431.415	1161.640
327.256	25.599	1430.927	1160.587
328.270	25.661	1429.854	1160.012
329.285	25.600	1429.375	1159.126
330.300	25.659	1428.473	1158.673
331.314	25.659	1427.990	1158.181
332.329	25.684	1426.740	1157.223
333.343	25.650	1426.115	1156.394
334.358	25.680	1425.308	1155.831
335.373	25.756	1424.540	1155.596
336.387	25.773	1423.574	1154.820
337.402	25.737	1423.065	1154.070
338.416	25.752	1422.548	1153.645
339.431	25.823	1421.855	1153.437
340.446	25.829	1421.537	1153.116
341.460	25.858	1420.133	1152.061
342.475	25.766	1419.434	1150.802
343.489	25.868	1418.217	1150.364
344.504	25.817	1417.744	1149.557
345.519	25.796	1416.822	1148.573
346.533	25.894	1416.093	1148.503
347.548	25.879	1414.709	1147.181
348.562	25.789	1414.301	1146.179
349.577	25.868	1413.383	1145.835
350.592	25.906	1412.587	1145.333
351.606	25.886	1411.898	1144.543
352.621	25.739	1410.871	1142.680
353.635	25.799	1409.930	1142.192
354.650	25.812	1409.092	1141.494
355.665	25.817	1408.052	1140.583
356.679	25.953	1406.751	1140.292
357.694	25.969	1405.992	1139.678
358.708	26.034	1404.902	1139.102
359.723	26.034	1403.736	1138.057
360.738	26.050	1402.251	1136.854
361.752	25.980	1401.684	1135.849
362.767	26.009	1400.234	1134.754
363.781	25.980	1399.632	1133.988
364.796	25.998	1398.937	1133.434
365.810	25.917	1398.927	1132.820
366.825	26.004	1398.252	1132.720
367.840	26.083	1397.074	1132.158
368.854	26.157	1396.306	1131.899
369.869	26.189	1395.847	1131.632
370.883	26.142	1395.060	1130.594
371.898	26.064	1394.794	1129.793
372.913	26.136	1393.976	1129.480
373.927	26.161	1393.181	1128.896
374.942	26.091	1392.333	1127.667
375.956	26.162	1391.314	1127.189
376.971	26.180	1390.781	1126.770
377.986	26.178	1389.728	1125.802
379.000	26.246	1388.876	1125.434
380.015	26.236	1388.142	1124.680
381.029	26.131	1387.778	1123.633
382.044	26.169	1387.286	1123.372
383.059	26.185	1386.465	1122.703
384.073	26.156	1386.191	1122.205
385.088	26.306	1385.078	1122.136
386.102	26.343	1384.310	1121.644
387.117	26.302	1383.967	1121.013
388.132	26.340	1383.223	1120.547
389.146	26.304	1382.250	1119.433
390.161	26.223	1381.767	1118.443
391.175	26.395	1380.925	1118.729
392.190	26.474	1379.944	1118.319
393.205	26.249	1379.523	1116.490
394.219	26.421	1378.604	1116.708
395.234	26.363	1377.623	1115.457
396.248	26.311	1376.725	1114.310
397.263	26.325	1375.421	1113.247
398.278	26.409	1374.234	1112.704
399.292	26.539	1373.177	1112.551
400.307	26.469	1372.515	1111.481
401.321	26.432	1371.715	1110.510
402.336	26.539	1370.547	1110.121
403.350	26.493	1369.316	1108.745
404.365	26.467	1368.706	1107.996
405.380	26.531	1368.154	1107.839
406.394	26.397	1367.337	1106.258
407.409	26.492	1366.857	1106.357
408.423	26.535	1365.900	1105.745
409.438	26.585	1365.065	1105.275
410.453	26.678	1364.035	1104.914
411.467	26.544	1364.005	1103.973
412.482	26.641	1363.038	1103.681
413.496	26.590	1362.654	1102.966
414.511	26.553	1361.515	1101.717
415.526	26.602	1360.833	1101.368
416.540	26.662	1360.256	1101.168
417.555	26.597	1359.728	1100.247
418.569	26.685	1358.819	1099.948
419.584	26.718	1358.235	1099.580
420.599	26.524	1357.901	1098.037
421.613	77.664	1328.440	1367.361
422.628	78.515	1324.144	1367.495
