DTS Sentinel unit serial number:	SN413079Multiplexer serial number:	ORYXHardware model number:	OX4-SRSoftware version number:	ORYX F/W v4.00 Oryx Data Collector v3.7.2.0data status	okinstallation	princeton_trtdifferential loss correction	single-endedforward channel	channel 4reverse channel	N/Adate	2019/09/11time	15:43:11forward acquisition time	60.00reverse acquisition time	0.00gamma	496.2192k internal	0.2278k external	0.2278temperature offset calibration	1.0014default loss term (dB/km)	0.3790temperature slope calibration	1.0000multiplexer offset coefficient	1.0000multiplexer slope coefficient	1.0000fibre end	0.00T internal ref (°C)	42.81T ext. ref 1 (°C)	1.00T ext. ref 2 (°C)	37.84length (m)	temperature (°C)	Stokes	anti-Stokes-747.200	29.390	0.039	-0.034
-746.185	26.283	0.102	0.088
-745.171	208.873	-0.142	0.229
-744.156	-19.061	0.283	0.181
-743.142	-9.651	0.082	-0.056
-742.127	-120.043	-0.073	-0.013
-741.112	62.303	0.160	-0.165
-740.098	237.705	-0.104	0.177
-739.083	-105.069	0.372	0.088
-738.069	-200.000	-0.043	0.281
-737.054	-200.000	-0.027	0.527
-736.039	2.926	-0.094	-0.070
-735.025	-3.038	-0.268	0.192
-734.010	-200.000	-0.013	-0.066
-732.996	-77.069	-0.453	-0.163
-731.981	-161.487	-0.254	0.013
-730.966	724.946	-0.092	-0.253
-729.952	800.000	-0.021	-0.069
-728.937	-200.000	-0.065	0.336
-727.923	-83.502	0.193	-0.064
-726.908	-78.756	-0.193	-0.068
-725.894	179.102	-0.101	0.152
-724.879	800.000	-0.056	-0.215
-723.864	-135.981	-0.098	-0.012
-722.850	619.106	-0.054	-0.140
-721.835	8.636	-0.139	0.107
-720.821	-200.000	0.003	-0.130
-719.806	65.621	-0.220	-0.229
-718.791	501.442	0.155	0.368
-717.777	434.914	-0.043	-0.096
-716.762	-185.519	0.146	-0.002
-715.748	-200.000	-0.005	-0.340
-714.733	76.241	-0.111	-0.121
-713.718	24.565	0.134	0.114
-712.704	603.342	0.082	-0.210
-711.689	-106.469	-0.164	-0.038
-710.675	-62.822	-0.126	-0.054
-709.660	-113.221	0.206	0.042
-708.645	-49.029	-0.304	-0.149
-707.631	49.984	0.205	-0.198
-706.616	-108.039	0.148	-0.033
-705.602	-200.000	-0.066	-0.313
-704.587	198.970	0.164	0.258
-703.572	202.409	-0.096	-0.153
-702.558	800.000	-0.010	-0.032
-701.543	33.110	0.365	0.325
-700.529	800.000	-0.072	0.218
-699.514	-200.000	0.038	-0.278
-698.499	-93.806	0.153	-0.043
-697.485	-137.084	-0.040	0.005
-696.470	430.713	-0.146	0.325
-695.456	329.323	-0.134	0.264
-694.441	-178.776	-0.168	0.004
-693.426	-134.813	-0.101	-0.013
-692.412	291.801	-0.162	0.303
-691.397	-200.000	-0.002	0.013
-690.383	-200.000	-0.006	-0.188
-689.368	-160.093	0.159	-0.009
-688.354	-137.597	0.517	-0.060
-687.339	-25.578	0.296	0.180
-686.324	57.241	-0.116	0.117
-685.310	800.000	-0.097	-0.356
-684.295	-51.816	-0.204	-0.097
-683.281	-65.970	-0.145	0.060
-682.266	212.217	0.087	-0.141
-681.251	395.680	0.090	-0.194
-680.237	800.000	-0.062	0.199
-679.222	87.358	0.136	-0.154
-678.208	-200.000	0.007	-0.246
-677.193	-74.395	0.526	-0.195
-676.178	132.633	-0.103	-0.136
-675.164	800.000	-0.077	-0.345
-674.149	92.990	-0.212	-0.246
-673.135	121.990	-0.072	-0.092
-672.120	435.534	0.172	-0.384
-671.105	-165.335	0.250	0.011
-670.091	800.000	-0.041	0.160
-669.076	-152.713	0.454	-0.033
-668.062	178.824	-0.146	-0.220
-667.047	-116.957	0.056	-0.011
-666.032	-194.417	0.133	-0.001
-665.018	10.876	-0.055	-0.043
-664.003	-92.078	0.190	0.055
-662.989	68.526	0.118	0.124
-661.974	-200.000	0.100	-0.460
-660.959	431.529	-0.095	-0.211
-659.945	-67.783	-0.149	-0.060
-658.930	463.506	0.112	-0.257
-657.916	38.240	0.139	0.127
-656.901	257.425	-0.032	-0.056
-655.886	124.067	-0.187	-0.241
-654.872	-55.165	-0.246	-0.114
-653.857	-139.011	0.094	0.010
-652.843	-132.305	0.594	-0.079
-651.828	-69.659	0.289	0.114
-650.814	-148.175	0.194	0.016
-649.799	605.372	0.170	0.434
-648.784	800.000	-0.044	-0.133
-647.770	293.033	-0.200	-0.373
-646.755	800.000	-0.057	0.208
-645.741	800.000	-0.053	-0.219
-644.726	275.525	0.165	-0.300
-643.711	75.010	-0.116	0.125
-642.697	-200.000	-0.011	0.186
-641.682	690.245	0.087	0.234
-640.668	800.000	0.065	0.186
-639.653	25.260	0.092	0.078
-638.638	12.831	-0.245	-0.194
-637.624	-144.037	-0.401	-0.039
-636.609	-200.000	-0.006	-0.223
-635.595	-39.757	-0.103	-0.055
-634.580	-18.591	0.074	-0.047
-633.565	-134.393	0.239	0.030
-632.551	800.000	-0.052	-0.169
-631.536	-200.000	0.002	-0.066
-630.522	-200.000	0.008	-0.081
-629.507	-200.000	-0.006	-0.056
-628.492	-102.906	-0.193	-0.047
-627.478	-74.336	0.146	-0.054
-626.463	-200.000	-0.014	-0.234
-625.449	-144.297	0.402	-0.038
-624.434	-200.000	0.005	-0.032
-623.419	-27.182	-0.146	-0.087
-622.405	373.046	-0.134	0.279
-621.390	-112.721	-0.037	-0.007
-620.376	123.385	0.091	-0.117
-619.361	-80.944	0.108	-0.037
-618.346	-200.000	0.001	-0.041
-617.332	241.689	0.060	-0.104
-616.317	-69.350	-0.321	0.126
-615.303	71.211	-0.185	0.196
-614.288	106.177	0.080	0.097
-613.273	-200.000	0.001	0.130
-612.259	259.956	0.110	-0.194
-611.244	-200.000	0.004	0.018
-610.230	159.839	-0.111	0.159
-609.215	128.987	-0.102	-0.133
-608.201	-57.028	-0.214	0.097
-607.186	-200.000	-0.013	0.165
-606.171	44.136	0.064	0.060
-605.157	-84.223	0.181	-0.059
-604.142	-28.307	-0.188	-0.111
-603.128	158.513	-0.188	-0.268
-602.113	-151.482	0.288	0.022
-601.098	-200.000	0.026	-0.266
-600.084	800.000	-0.043	0.145
-599.069	37.238	-0.084	0.076
-598.055	-133.913	0.052	0.007
-597.040	-73.833	0.138	0.051
-596.025	-76.200	0.236	-0.085
-595.011	-75.036	-0.087	-0.032
-593.996	-200.000	-0.044	-0.306
-592.982	-200.000	0.020	-0.238
-591.967	-21.515	-0.209	0.130
-590.952	22.336	-0.092	0.077
-589.938	-138.314	-0.356	-0.040
-588.923	-13.515	-0.230	-0.153
-587.909	-200.000	-0.020	0.201
-586.894	84.779	-0.099	0.111
-585.879	-193.285	-0.115	-0.001
-584.865	-200.000	-0.003	0.063
-583.850	40.715	-0.260	0.240
-582.836	-200.000	-0.009	0.273
-581.821	282.022	0.157	-0.287
-580.806	-200.000	0.060	-0.374
-579.792	-34.139	-0.104	-0.058
-578.777	116.488	-0.131	-0.165
-577.763	-195.393	0.058	-0.000
-576.748	-186.025	-0.281	0.004
-575.733	-94.021	0.092	0.026
-574.719	-28.624	0.125	-0.074
-573.704	800.000	0.045	-0.129
-572.690	-103.074	-0.189	0.046
-571.675	-200.000	-0.007	-0.101
-570.661	64.985	0.324	0.335
-569.646	424.790	0.087	-0.190
-568.631	-12.347	0.024	0.016
-567.617	156.055	0.073	-0.103
-566.602	800.000	-0.033	-0.100
-565.588	79.533	-0.089	0.097
-564.573	151.953	0.235	0.328
-563.558	-45.607	0.059	0.030
-562.544	330.404	-0.084	-0.166
-561.529	-8.598	0.240	-0.165
-560.515	-133.170	-0.354	-0.046
-559.500	119.318	0.129	0.164
-558.485	-14.542	0.164	-0.108
-557.471	-134.001	0.253	0.032
-556.456	-200.000	0.023	0.379
-555.442	-110.450	0.236	-0.050
-554.427	-200.000	0.021	0.102
-553.412	800.000	-0.076	-0.268
-552.398	-200.000	-0.031	0.203
-551.383	800.000	0.028	-0.081
-550.369	431.547	-0.047	0.103
-549.354	800.000	-0.048	-0.154
-548.339	-73.653	-0.193	0.072
-547.325	-87.267	0.391	-0.121
-546.310	732.538	0.117	-0.319
-545.296	-144.982	0.151	0.014
-544.281	-75.883	-0.034	-0.012
-543.266	123.918	-0.159	-0.204
-542.252	800.000	0.037	-0.148
-541.237	-200.000	-0.015	0.210
-540.223	-6.320	0.325	0.226
-539.208	71.319	-0.092	-0.098
-538.193	-65.203	0.293	0.120
-537.179	800.000	0.075	-0.266
-536.164	800.000	0.079	0.327
-535.150	125.626	0.205	0.264
-534.135	-128.143	0.174	0.025
-533.121	-200.000	-0.013	-0.396
-532.106	-72.620	0.158	-0.059
-531.091	-200.000	-0.062	-0.433
-530.077	-40.867	0.014	-0.007
-529.062	-200.000	-0.025	0.262
-528.048	200.945	-0.218	0.342
-527.033	313.335	0.051	0.097
-526.018	-200.000	-0.002	-0.103
-525.004	-200.000	-0.052	-0.315
-523.989	-88.195	0.213	0.065
-522.975	-2.812	0.161	-0.115
-521.960	232.972	0.131	-0.220
-520.945	-200.000	0.021	-0.221
-519.931	158.151	0.274	0.388
-518.916	106.648	-0.091	0.111
-517.902	-200.000	0.001	-0.050
-516.887	800.000	0.057	0.223
-515.872	-200.000	-0.053	0.377
-514.858	139.670	0.018	0.025
-513.843	-20.884	0.195	0.122
-512.829	-2.429	-0.103	-0.074
-511.814	-150.893	-0.310	0.024
-510.799	-167.276	0.104	-0.004
-509.785	-121.057	0.213	0.037
-508.770	-200.000	0.008	-0.110
-507.756	56.551	-0.352	0.350
-506.741	52.677	0.272	-0.265
-505.726	-200.000	0.026	-0.148
-504.712	800.000	0.088	-0.389
-503.697	-61.340	-0.301	0.129
-502.683	-147.328	-0.051	0.004
-501.668	-23.216	-0.223	-0.137
-500.653	-68.964	0.082	0.032
-499.639	-121.971	-0.042	0.007
-498.624	-58.747	-0.158	-0.070
-497.610	-34.333	0.260	0.145
-496.595	-89.401	-0.208	0.062
-495.581	-200.000	0.045	-0.275
-494.566	-124.294	-0.151	0.024
-493.551	-117.509	-0.160	0.029
-492.537	139.939	-0.111	-0.149
-491.522	-178.381	0.315	0.007
-490.508	162.970	-0.082	0.117
-489.493	61.687	-0.277	-0.281
-488.478	637.784	-0.144	-0.374
-487.464	-19.494	0.230	-0.145
-486.449	-200.000	0.023	-0.259
-485.435	100.490	0.177	-0.210
-484.420	211.846	0.070	0.113
-483.405	-35.780	-0.216	-0.119
-482.391	467.298	0.105	0.239
-481.376	-200.000	0.033	0.322
-480.362	378.486	0.112	0.234
-479.347	-200.000	0.002	-0.145
-478.332	-200.000	0.008	-0.084
-477.318	-200.000	-0.018	-0.159
-476.303	759.186	0.143	0.395
-475.289	623.304	-0.042	-0.108
-474.274	52.651	-0.149	-0.145
-473.259	550.740	0.104	-0.255
-472.245	-142.235	-0.090	-0.009
-471.230	-96.852	0.125	-0.034
-470.216	162.002	-0.106	0.151
-469.201	272.927	-0.062	-0.111
-468.186	174.747	-0.135	-0.199
-467.172	145.176	-0.330	-0.449
-466.157	216.898	-0.029	-0.047
-465.143	227.733	-0.138	-0.229
-464.128	-58.949	-0.312	-0.137
-463.113	-6.088	-0.068	0.047
-462.099	-70.321	0.176	0.068
-461.084	371.385	-0.160	0.330
-460.070	-200.000	0.051	0.231
-459.055	-200.000	0.026	0.180
-458.040	800.000	0.056	0.223
-457.026	-40.002	0.314	0.167
-456.011	800.000	-0.048	0.189
-454.997	-67.611	-0.176	-0.070
-453.982	-200.000	0.010	0.124
-452.968	-117.609	0.141	-0.026
-451.953	-200.000	0.064	-0.483
-450.938	800.000	0.055	0.161
-449.924	161.695	0.128	0.182
-448.909	-75.843	0.056	0.020
-447.895	800.000	-0.098	0.325
-446.880	279.984	0.150	-0.272
-445.865	800.000	0.089	-0.385
-444.851	-43.577	-0.062	-0.032
-443.836	-43.297	0.123	-0.063
-442.822	191.226	0.146	-0.224
-441.807	9.314	0.030	-0.023
-440.792	54.221	-0.186	0.182
-439.778	-134.697	0.358	-0.044
-438.763	587.390	-0.053	0.133
-437.749	-16.778	-0.065	-0.042
-436.734	800.000	-0.088	0.354
-435.719	-23.664	0.318	-0.194
-434.705	53.573	0.161	-0.157
-433.690	53.205	0.187	-0.182
-432.676	369.986	-0.108	-0.223
-431.661	-33.326	-0.217	-0.122
-430.646	-200.000	-0.038	-0.202
-429.632	16.362	0.114	0.092
-428.617	355.308	-0.103	-0.208
-427.603	-7.348	-0.147	-0.101
-426.588	1.264	0.353	-0.258
-425.573	-76.967	-0.310	0.110
-424.559	-128.514	0.120	-0.017
-423.544	-49.484	-0.129	-0.062
-422.530	800.000	0.075	0.216
-421.515	-52.652	0.199	0.093
-420.500	-200.000	0.014	-0.184
-419.486	-50.414	-0.222	0.106
-418.471	800.000	-0.028	0.099
-417.457	-11.690	0.310	-0.207
-416.442	-91.268	-0.171	-0.050
-415.428	438.335	-0.101	0.224
-414.413	-62.339	-0.135	0.057
-413.398	250.874	0.045	-0.078
-412.384	-129.164	-0.392	0.056
-411.369	-185.562	-0.307	-0.005
-410.355	-200.000	-0.015	-0.076
-409.340	-42.298	0.249	0.129
-408.325	-200.000	0.027	0.318
-407.311	167.722	-0.109	0.157
-406.296	47.201	-0.315	0.298
-405.282	-111.828	-0.218	-0.045
-404.267	86.001	-0.043	0.048
-403.252	434.621	0.154	-0.341
-402.238	427.837	0.012	-0.026
-401.223	269.436	-0.034	0.060
-400.209	-45.203	-0.098	-0.049
-399.194	-200.000	0.076	0.438
-398.179	-139.487	-0.066	-0.007
-397.165	-30.646	0.063	0.036
-396.150	-34.970	0.334	0.185
-395.136	-180.670	0.256	-0.005
-394.121	-68.838	0.230	-0.090
-393.106	-32.700	-0.130	0.073
-392.092	-114.476	0.172	0.034
-391.077	800.000	-0.040	0.159
-390.063	-74.704	0.427	0.156
-389.048	321.132	-0.144	-0.278
-388.033	-21.439	-0.219	0.136
-387.019	224.695	0.224	0.368
-386.004	-200.000	-0.015	-0.230
-384.990	133.204	0.118	-0.155
-383.975	-200.000	0.062	-0.450
-382.960	-200.000	0.091	0.465
-381.946	74.047	-0.111	0.118
-380.931	-200.000	-0.049	0.252
-379.917	-200.000	-0.005	0.336
-378.902	-200.000	-0.008	-0.290
-377.888	-21.807	0.097	-0.060
-376.873	-200.000	0.080	-0.359
-375.858	800.000	0.017	0.051
-374.844	800.000	0.073	-0.247
-373.829	52.356	-0.220	-0.213
-372.815	-41.859	0.287	0.149
-371.800	187.628	-0.173	0.262
-370.785	-200.000	-0.026	-0.148
-369.771	-200.000	-0.018	0.106
-368.756	-100.018	-0.113	0.029
-367.742	73.170	0.170	-0.180
-366.727	-74.189	0.299	0.110
-365.712	-132.406	0.314	0.041
-364.698	-62.841	0.161	0.068
-363.683	435.666	-0.096	0.212
-362.669	62.720	0.038	-0.038
-361.654	216.321	-0.107	0.173
-360.639	-200.000	-0.012	0.162
-359.625	800.000	-0.005	0.016
-358.610	800.000	-0.107	0.349
-357.596	190.010	0.023	0.035
-356.581	800.000	0.006	0.021
-355.566	-117.443	-0.622	0.114
-354.552	125.800	0.064	0.082
-353.537	-83.076	0.386	-0.126
-352.523	-76.028	-0.174	0.062
-351.508	-42.655	-0.089	-0.046
-350.493	-98.344	-0.210	0.055
-349.479	-62.500	-0.349	-0.147
-348.464	69.702	-0.314	0.328
-347.450	-200.000	-0.002	-0.127
-346.435	26.642	-0.204	-0.173
-345.420	-56.446	-0.265	0.119
-344.406	-200.000	0.001	0.078
-343.391	427.033	0.176	-0.384
-342.377	800.000	-0.091	-0.380
-341.362	-112.953	0.178	0.036
-340.348	-96.928	0.135	0.036
-339.333	-174.180	0.133	0.004
-338.318	786.395	0.101	0.280
-337.304	311.676	-0.188	0.356
-336.289	-7.195	-0.176	-0.121
-335.275	-89.633	0.140	-0.042
-334.260	449.708	0.040	0.089
-333.245	-76.051	0.110	0.039
-332.231	800.000	0.122	0.368
-331.216	-200.000	-0.068	-0.306
-330.202	176.196	-0.119	0.176
-329.187	800.000	0.059	0.179
-328.172	73.353	-0.035	0.037
-327.158	39.740	-0.138	-0.126
-326.143	-129.804	-0.306	-0.043
-325.129	800.000	-0.034	0.113
-324.114	-64.934	-0.252	-0.103
-323.099	14.521	0.150	-0.119
-322.085	800.000	-0.053	-0.199
-321.070	-200.000	0.011	0.082
-320.056	-102.181	-0.165	0.040
-319.041	-128.849	0.236	-0.034
-318.026	-162.691	0.426	0.021
-317.012	74.068	0.335	0.356
-315.997	-89.410	0.254	0.076
-314.983	-78.511	-0.459	-0.159
-313.968	4.660	-0.283	0.210
-312.953	-200.000	-0.029	-0.136
-311.939	-93.605	-0.038	-0.011
-310.924	-80.312	0.261	-0.088
-309.910	-200.000	0.008	0.267
-308.895	158.669	-0.098	0.137
-307.880	25.561	0.166	-0.139
-306.866	178.879	0.301	-0.445
-305.851	386.621	0.110	-0.230
-304.837	148.049	-0.126	-0.173
-303.822	-31.569	0.182	-0.103
-302.807	-200.000	-0.025	0.125
-301.793	329.957	-0.132	-0.256
-300.778	-53.774	-0.294	-0.136
-299.764	50.066	-0.213	0.204
-298.749	800.000	0.059	-0.199
-297.735	112.258	0.226	-0.276
-296.720	39.569	0.266	-0.241
-295.705	-163.675	0.339	-0.016
-294.691	-200.000	-0.052	0.296
-293.676	113.190	0.229	0.281
-292.662	-200.000	-0.041	0.260
-291.647	310.757	0.077	-0.146
-290.632	-128.928	-0.168	0.024
-289.618	18.612	0.199	0.161
-288.603	610.694	-0.043	0.109
-287.589	-105.582	-0.167	-0.038
-286.574	254.211	0.073	-0.126
-285.559	-38.346	-0.163	-0.087
-284.545	-19.217	-0.242	0.152
-283.530	525.946	-0.117	-0.278
-282.516	138.014	-0.082	-0.108
-281.501	-200.000	0.001	-0.085
-280.486	-62.741	0.145	-0.061
-279.472	159.253	-0.217	0.305
-278.457	-200.000	-0.035	-0.294
-277.443	-32.553	-0.120	-0.067
-276.428	-200.000	-0.063	0.364
-275.413	-78.790	-0.155	-0.054
-274.399	555.824	0.130	-0.317
-273.384	-37.473	0.125	-0.068
-272.370	431.525	0.077	0.168
-271.355	-46.996	-0.357	0.176
-270.340	-200.000	0.061	-0.285
-269.326	511.120	-0.046	0.109
-268.311	-17.720	0.477	-0.303
-267.297	-60.208	-0.097	0.042
-266.282	64.408	-0.244	-0.248
-265.267	-67.983	-0.081	-0.032
-264.253	114.596	-0.310	0.382
-263.238	-119.067	0.116	-0.020
-262.224	431.428	-0.175	-0.382
-261.209	-163.194	-0.247	-0.012
-260.195	-75.713	0.143	0.051
-259.180	800.000	-0.034	-0.140
-258.165	-200.000	-0.026	-0.258
-257.151	172.115	-0.108	-0.157
-256.136	143.134	0.072	-0.097
-255.122	-200.000	0.083	0.544
-254.107	-92.791	-0.197	0.056
-253.092	130.710	0.176	-0.228
-252.078	-2.112	-0.164	0.116
-251.063	-200.000	0.032	-0.555
-250.049	-35.194	0.275	0.151
-249.034	-56.103	0.127	-0.057
-248.019	-58.652	-0.176	-0.077
-247.005	-200.000	0.010	0.073
-245.990	75.504	0.206	0.220
-244.976	293.990	-0.085	-0.157
-243.961	-157.657	0.367	-0.022
-242.946	-200.000	-0.006	0.334
-241.932	-200.000	-0.044	0.333
-240.917	303.732	0.153	-0.286
-239.903	41.834	0.046	-0.042
-238.888	-28.999	-0.258	0.150
-237.873	800.000	-0.077	0.245
-236.859	4.786	0.187	0.138
-235.844	272.475	-0.129	0.230
-234.830	-200.000	-0.017	0.183
-233.815	-128.436	-0.258	0.037
-232.800	-130.191	0.174	-0.024
-231.786	129.539	0.287	0.371
-230.771	-130.066	-0.211	0.029
-229.757	664.907	-0.101	0.262
-228.742	-49.010	0.261	-0.126
-227.727	800.000	0.116	-0.478
-226.713	215.518	-0.114	0.182
-225.698	546.396	-0.061	-0.148
-224.684	31.287	-0.170	-0.147
-223.669	562.188	-0.105	0.255
-222.655	649.734	0.052	0.134
-221.640	550.716	-0.111	0.270
-220.625	-200.000	-0.053	-0.371
-219.611	697.969	0.065	0.173
-218.596	86.652	-0.097	0.108
-217.582	-32.886	0.095	-0.053
-216.567	-90.055	-0.189	-0.056
-215.552	510.747	0.086	-0.201
-214.538	69.677	0.184	0.191
-213.523	290.549	0.092	-0.169
-212.509	800.000	-0.018	-0.078
-211.494	76.961	0.080	0.085
-210.479	583.597	0.047	0.117
-209.465	-200.000	0.002	-0.103
-208.450	800.000	0.055	-0.197
-207.436	49.081	0.047	0.045
-206.421	205.627	0.077	0.121
-205.406	28.527	0.373	-0.318
-204.392	-125.444	0.205	-0.032
-203.377	-129.497	-0.174	-0.024
-202.363	-115.692	-0.215	0.041
-201.348	229.643	-0.152	-0.250
-200.333	-200.000	0.379	-0.001
-199.319	-53.397	-0.146	0.067
-198.304	124.760	0.238	0.302
-197.290	330.084	-0.199	-0.387
-196.275	-200.000	0.016	0.118
-195.260	-157.094	0.315	-0.019
-194.246	183.133	-0.053	-0.078
-193.231	-106.616	0.218	0.049
-192.217	800.000	-0.126	0.516
-191.202	800.000	-0.135	0.426
-190.187	263.995	-0.091	0.159
-189.173	800.000	0.065	-0.214
-188.158	6.241	-0.134	-0.100
-187.144	311.349	-0.127	0.240
-186.129	-59.942	-0.452	0.195
-185.114	800.000	-0.112	-0.339
-184.100	13.698	-0.073	-0.057
-183.085	-59.310	-0.248	0.107
-182.071	567.932	-0.087	0.213
-181.056	-160.284	-0.350	0.019
-180.042	15.894	-0.179	-0.142
-179.027	-113.543	0.133	-0.026
-178.012	-18.099	0.308	0.194
-176.998	355.016	0.140	0.280
-175.983	237.958	-0.131	0.219
-174.969	-102.926	-0.194	-0.046
-173.954	-117.965	0.209	-0.038
-172.939	155.683	-0.097	0.134
-171.925	16.614	0.142	-0.113
-170.910	78.854	-0.212	-0.228
-169.896	84.780	0.145	-0.160
-168.881	-70.674	0.320	0.122
-167.866	799.182	-0.082	0.227
-166.852	629.760	0.090	0.229
-165.837	7.347	-0.309	0.232
-164.823	720.683	0.006	0.016
-163.808	-50.463	0.182	-0.086
-162.793	-58.933	0.250	-0.109
-161.779	28.269	0.204	0.173
-160.764	-170.724	-0.182	0.006
-159.750	-200.000	0.024	0.401
-158.735	38.086	0.085	-0.076
-157.720	-167.008	-0.342	-0.014
-156.706	13.842	0.091	-0.071
-155.691	-73.553	0.073	0.027
-154.677	-98.327	0.200	-0.052
-153.662	-114.110	0.167	0.033
-152.647	-46.327	-0.155	0.077
-151.633	-200.000	-0.001	-0.237
-150.618	10.447	0.130	0.099
-149.604	-93.125	-0.191	-0.054
-148.589	520.676	0.102	-0.240
-147.574	-85.943	0.422	-0.131
-146.560	680.642	0.122	-0.320
-145.545	-69.767	-0.215	0.082
-144.531	-163.098	0.160	-0.008
-143.516	-200.000	0.022	-0.194
-142.502	-78.451	0.230	0.079
-141.487	34.971	0.102	-0.090
-140.472	-165.780	-0.118	0.005
-139.458	800.000	-0.025	-0.086
-138.443	-200.000	0.040	-0.282
-137.429	-11.949	0.161	0.106
-136.414	56.512	0.187	0.183
-135.399	-69.233	0.326	0.126
-134.385	187.099	-0.036	0.053
-133.370	-32.928	-0.419	-0.234
-132.356	-200.000	-0.006	0.132
-131.341	459.935	-0.083	-0.187
-130.326	-57.698	-0.088	-0.039
-129.312	-92.173	-0.352	-0.100
-128.297	134.646	0.158	-0.206
-127.283	-200.000	-0.021	-0.153
-126.268	67.410	0.195	-0.200
-125.253	-87.400	0.247	-0.075
-124.239	-104.093	0.210	0.049
-123.224	-200.000	0.008	0.140
-122.210	-103.259	0.126	0.030
-121.195	543.054	0.023	0.056
-120.180	470.351	-0.051	0.114
-119.166	-70.646	0.245	0.093
-118.151	718.026	-0.043	-0.115
-117.137	-200.000	-0.004	0.048
-116.122	800.000	0.079	0.307
-115.107	-200.000	-0.002	0.110
-114.093	68.179	0.171	0.176
-113.078	-60.670	0.234	0.100
-112.064	-92.344	0.358	0.101
-111.049	26.793	-0.147	-0.123
-110.034	-147.334	0.196	0.017
-109.020	-151.895	0.135	-0.010
-108.005	-40.192	0.363	-0.190
-106.991	-149.346	-0.139	-0.011
-105.976	-200.000	0.008	-0.149
-104.962	711.840	0.065	-0.173
-103.947	-61.228	-0.343	-0.145
-102.932	800.000	-0.035	0.121
-101.918	800.000	-0.156	0.443
-100.903	800.000	0.008	0.034
-99.889	-73.013	-0.071	-0.026
-98.874	800.000	-0.012	0.051
-97.859	-200.000	0.016	0.093
-96.845	-28.708	0.431	-0.249
-95.830	-199.702	0.186	-0.001
-94.816	375.626	-0.064	-0.132
-93.801	418.199	-0.076	0.162
-92.786	38.641	0.093	-0.083
-91.772	478.829	-0.047	-0.106
-90.757	-10.205	-0.212	-0.141
-89.743	-200.000	0.021	-0.245
-88.728	45.755	-0.164	-0.152
-87.713	707.102	-0.169	0.448
-86.699	31.410	-0.153	-0.132
-85.684	447.255	-0.097	0.214
-84.670	129.218	-0.092	0.118
-83.655	173.679	0.063	0.091
-82.640	53.694	0.102	-0.098
-81.626	130.415	-0.162	-0.209
-80.611	5.443	0.023	-0.017
-79.597	800.000	0.024	-0.070
-78.582	112.928	-0.161	0.195
-77.567	-20.564	-0.140	-0.086
-76.553	-200.000	0.003	0.475
-75.538	46.744	0.093	0.087
-74.524	-200.000	0.003	0.104
-73.509	-200.000	-0.011	-0.273
-72.494	5.747	-0.082	-0.061
-71.480	-200.000	0.005	-0.075
-70.465	800.000	0.023	0.071
-69.451	619.429	0.064	-0.162
-68.436	447.264	-0.146	-0.322
-67.422	147.498	0.066	0.088
-66.407	193.961	0.143	0.218
-65.392	-200.000	-0.009	-0.162
-64.378	82.196	-0.101	-0.109
-63.363	284.450	0.076	0.137
-62.349	16.516	-0.142	0.113
-61.334	42.493	-0.790	-0.720
-60.319	800.000	0.093	0.263
-59.305	-200.000	-0.003	-0.679
-58.290	267.503	0.390	0.685
-57.276	341.221	0.910	1.782
-56.261	-200.000	75.097	541.728
-55.246	572.263	1300.013	3174.594
-54.232	144.426	2528.552	3383.919
-53.217	112.022	2369.762	2869.583
-52.203	50.234	2107.715	1995.291
-51.188	44.977	2015.036	1859.713
-50.173	43.089	1996.223	1825.208
-49.159	55.042	2032.623	1967.711
-48.144	60.293	2053.554	2035.792
-47.130	45.666	2018.215	1868.644
-46.115	42.859	2007.279	1832.930
-45.100	42.734	2004.870	1829.517
-44.086	42.791	2001.914	1827.263
-43.071	42.660	2000.221	1824.457
-42.057	42.656	1998.001	1822.328
-41.042	42.713	1996.346	1821.258
-40.027	42.788	1993.812	1819.551
-39.013	42.724	1991.631	1816.913
-37.998	42.714	1990.004	1815.266
-36.984	42.711	1988.558	1813.853
-35.969	42.798	1986.188	1812.402
-34.954	42.753	1985.217	1811.033
-33.940	42.810	1983.103	1809.551
-32.925	42.866	1981.511	1808.522
-31.911	42.826	1980.323	1807.014
-30.896	42.810	1978.151	1804.811
-29.881	42.878	1976.112	1803.489
-28.867	42.851	1974.870	1802.041
-27.852	42.868	1972.970	1800.389
-26.838	42.861	1970.983	1798.443
-25.823	42.847	1968.779	1796.241
-24.809	42.851	1967.399	1794.941
-23.794	42.863	1965.933	1793.641
-22.779	42.948	1963.848	1792.419
-21.765	42.840	1962.650	1790.296
-20.750	42.790	1960.883	1788.174
-19.736	42.777	1959.579	1786.792
-18.721	42.812	1958.441	1785.997
-17.706	42.816	1956.629	1784.314
-16.692	42.832	1954.744	1782.663
-15.677	42.831	1952.774	1780.785
-14.663	42.833	1951.651	1779.710
-13.648	42.842	1950.339	1778.521
-12.633	42.802	1948.797	1776.691
-11.619	42.843	1947.431	1775.736
-10.604	42.828	1945.921	1774.160
-9.590	42.780	1944.743	1772.593
-8.575	42.803	1943.427	1771.518
-7.560	42.791	1942.059	1770.102
-6.546	42.863	1940.420	1769.164
-5.531	42.813	1939.301	1767.634
-4.517	42.825	1938.419	1766.873
-3.502	42.782	1937.254	1765.361
-2.487	42.834	1935.409	1764.063
-1.473	42.837	1934.638	1763.319
-0.458	43.006	1930.670	1761.108
0.556	42.107	1912.059	1736.539
1.571	38.234	1892.293	1685.113
2.586	34.059	1913.848	1667.648
3.600	32.803	1951.184	1688.800
4.615	31.794	1949.091	1677.806
5.629	24.036	1841.079	1518.784
6.644	9.578	1706.874	1292.722
7.659	1.778	1660.435	1196.359
8.673	1.122	1656.061	1187.957
9.688	1.064	1654.725	1186.442
10.702	0.990	1653.627	1184.970
11.717	0.835	1650.709	1181.565
12.731	1.291	1650.110	1184.591
13.746	9.595	1670.940	1264.855
14.761	21.123	1696.626	1375.581
15.775	25.024	1702.037	1410.625
16.790	24.745	1700.656	1407.156
17.804	24.916	1699.776	1407.648
18.819	24.861	1698.947	1406.408
19.834	24.955	1698.171	1406.376
20.848	25.198	1697.766	1407.829
21.863	25.222	1696.710	1407.012
22.877	25.106	1696.010	1405.402
23.892	25.203	1695.042	1405.232
24.907	25.168	1694.224	1404.159
25.921	25.157	1692.976	1402.915
26.936	25.163	1692.265	1402.242
27.950	25.178	1691.007	1401.193
28.965	25.197	1690.446	1400.758
29.980	25.217	1689.813	1400.262
30.994	25.132	1688.320	1398.242
32.009	25.222	1686.408	1397.231
33.023	25.126	1686.322	1396.292
34.038	25.168	1685.544	1395.851
35.053	25.153	1684.228	1394.517
36.067	25.152	1683.476	1393.764
37.082	25.178	1681.692	1392.365
38.096	25.246	1681.179	1392.351
39.111	25.171	1680.691	1391.237
40.126	25.189	1679.239	1390.051
41.140	25.079	1678.903	1388.801
42.155	25.193	1677.263	1388.201
43.169	25.153	1676.265	1386.946
44.184	25.112	1675.540	1385.907
45.199	25.133	1674.465	1385.055
46.213	25.136	1673.235	1383.939
47.228	25.074	1672.460	1382.693
48.242	25.048	1671.087	1381.240
49.257	25.196	1669.364	1380.830
50.271	25.194	1667.965	1379.535
51.286	25.146	1667.383	1378.564
52.301	25.155	1666.092	1377.443
53.315	25.129	1664.878	1376.122
54.330	25.161	1663.238	1374.888
55.344	25.178	1662.190	1374.030
56.359	25.159	1661.056	1372.825
57.374	25.193	1659.666	1371.817
58.388	25.165	1658.712	1370.687
59.403	25.221	1657.489	1369.983
60.417	25.136	1656.724	1368.586
61.432	25.222	1655.398	1368.026
62.447	25.237	1654.351	1367.154
63.461	25.235	1653.295	1366.139
64.476	25.203	1652.404	1365.041
65.490	25.189	1651.475	1364.048
66.505	25.249	1650.420	1363.509
67.520	25.208	1649.175	1362.048
68.534	25.167	1648.778	1361.293
69.549	25.151	1647.367	1359.885
70.563	25.238	1646.137	1359.409
71.578	25.085	1645.497	1357.598
72.593	25.153	1644.606	1357.257
73.607	25.330	1643.142	1357.271
74.622	25.299	1641.966	1355.942
75.636	25.246	1641.790	1355.278
76.651	25.247	1640.499	1354.101
77.666	25.189	1639.997	1353.127
78.680	25.198	1638.887	1352.159
79.695	25.212	1637.979	1351.398
80.709	25.334	1636.715	1351.150
81.724	25.247	1636.339	1350.070
82.739	25.204	1635.686	1349.086
83.753	25.160	1634.842	1347.937
84.768	25.202	1633.607	1347.117
85.782	25.229	1632.743	1346.491
86.797	25.146	1632.116	1345.234
87.812	25.240	1631.028	1344.917
88.826	25.237	1629.550	1343.563
89.841	25.230	1628.844	1342.803
90.855	25.261	1627.624	1341.914
91.870	25.265	1626.673	1341.038
92.884	25.170	1625.895	1339.569
93.899	25.190	1624.862	1338.747
94.914	25.319	1623.747	1338.679
95.928	25.233	1622.877	1337.201
96.943	25.350	1620.697	1336.159
97.957	25.239	1620.174	1334.777
98.972	25.161	1618.984	1333.102
99.987	25.312	1617.026	1332.495
101.001	25.266	1615.441	1330.730
102.016	25.244	1614.629	1329.780
103.030	25.196	1613.233	1328.158
104.045	25.272	1611.907	1327.505
105.060	25.257	1610.628	1326.230
106.074	25.201	1609.879	1325.079
107.089	25.246	1608.433	1324.101
108.103	25.172	1607.450	1322.632
109.118	25.275	1606.308	1322.333
110.133	25.315	1605.213	1321.613
111.147	25.266	1604.190	1320.288
112.162	25.284	1602.894	1319.241
113.176	25.205	1601.910	1317.729
114.191	25.246	1600.413	1316.686
115.206	25.357	1598.941	1316.173
116.220	25.296	1597.911	1314.756
117.235	25.184	1597.358	1313.369
118.249	25.263	1595.799	1312.551
119.264	25.300	1594.647	1311.756
120.279	25.205	1593.484	1309.987
121.293	25.322	1592.162	1309.639
122.308	25.325	1591.040	1308.621
123.322	25.338	1589.702	1307.497
124.337	25.341	1588.837	1306.698
125.352	25.297	1587.471	1305.140
126.366	25.363	1586.571	1304.762
127.381	25.307	1586.286	1304.006
128.395	25.322	1585.102	1303.024
129.410	25.389	1583.877	1302.385
130.424	25.345	1582.941	1301.186
131.439	25.374	1581.710	1300.269
132.454	25.303	1580.707	1298.816
133.468	25.402	1579.075	1298.075
134.483	25.378	1578.087	1296.975
135.497	25.420	1576.592	1295.935
136.512	25.425	1575.584	1295.026
137.527	25.416	1574.209	1293.719
138.541	25.399	1573.497	1292.893
139.556	25.385	1571.817	1291.299
140.570	25.510	1570.638	1291.113
141.585	25.332	1569.970	1289.171
142.600	25.360	1568.541	1288.084
143.614	25.419	1567.150	1287.255
144.629	25.380	1566.480	1286.309
145.643	25.458	1564.830	1285.398
146.658	25.425	1563.880	1284.267
147.673	25.348	1562.096	1282.139
148.687	25.361	1561.642	1281.745
149.702	25.355	1560.506	1280.655
150.716	25.317	1559.232	1279.229
151.731	25.383	1558.010	1278.579
152.746	25.332	1557.334	1277.554
153.760	25.389	1556.121	1276.848
154.775	25.410	1555.279	1276.190
155.789	25.384	1554.070	1274.902
156.804	25.395	1552.820	1273.846
157.819	25.420	1551.532	1272.855
158.833	25.346	1550.908	1271.701
159.848	25.347	1549.772	1270.665
160.862	25.477	1548.881	1270.746
161.877	25.470	1547.656	1269.573
162.892	25.395	1547.135	1268.507
163.906	25.448	1545.538	1267.456
164.921	25.429	1544.610	1266.452
165.935	25.432	1544.223	1266.042
166.950	25.490	1543.500	1265.743
167.964	25.478	1542.145	1264.436
168.979	25.448	1541.145	1263.299
169.994	25.412	1540.597	1262.481
171.008	25.560	1539.253	1262.311
172.023	25.554	1538.462	1261.506
173.037	25.508	1537.705	1260.453
174.052	25.472	1536.448	1259.056
175.067	25.485	1535.727	1258.443
176.081	25.450	1534.694	1257.240
177.096	25.412	1533.743	1256.084
178.110	25.476	1532.823	1255.673
179.125	25.450	1531.636	1254.406
180.140	25.496	1530.772	1253.906
181.154	25.549	1529.895	1253.446
182.169	25.617	1528.457	1252.629
183.183	25.477	1527.879	1251.075
184.198	25.470	1526.856	1250.076
185.213	25.555	1525.871	1249.746
186.227	25.462	1525.130	1248.383
187.242	25.588	1524.373	1248.527
188.256	25.618	1523.622	1248.009
189.271	25.585	1522.555	1246.798
190.286	25.593	1521.679	1246.029
191.300	25.610	1521.205	1245.645
192.315	25.645	1520.266	1245.010
193.329	25.577	1519.067	1243.446
194.344	25.578	1517.992	1242.461
195.359	25.558	1517.529	1241.835
196.373	25.594	1516.659	1241.266
197.388	25.567	1516.028	1240.448
198.402	25.528	1514.764	1239.037
199.417	25.532	1513.528	1237.949
200.432	25.502	1512.905	1237.120
201.446	25.570	1512.466	1237.119
202.461	25.607	1511.708	1236.643
203.475	25.621	1510.650	1235.765
204.490	25.642	1509.601	1234.942
205.504	25.514	1508.935	1233.410
206.519	25.539	1508.323	1232.970
207.534	25.576	1507.359	1232.327
208.548	25.665	1506.283	1231.949
209.563	25.666	1505.369	1231.099
210.577	25.589	1504.449	1229.712
211.592	25.669	1503.732	1229.560
212.607	25.638	1503.348	1228.925
213.621	25.670	1502.730	1228.530
214.636	25.690	1501.782	1227.789
215.650	25.831	1500.319	1227.443
216.665	25.719	1499.673	1226.043
217.680	25.721	1499.163	1225.533
218.694	25.670	1498.361	1224.418
219.709	25.736	1497.303	1223.894
220.723	25.757	1496.866	1223.569
221.738	25.740	1496.187	1222.791
222.753	25.709	1495.354	1221.793
223.767	25.675	1494.388	1220.668
224.782	25.652	1493.343	1219.549
225.796	25.709	1492.791	1219.373
226.811	25.773	1491.751	1218.852
227.826	25.826	1491.379	1218.796
228.840	25.724	1490.737	1217.475
229.855	25.868	1489.643	1217.447
230.869	25.743	1488.797	1215.808
231.884	25.793	1488.180	1215.534
232.899	25.854	1486.697	1214.625
233.913	25.875	1485.515	1213.691
234.928	25.782	1484.383	1212.035
235.942	25.769	1483.982	1211.512
236.957	25.864	1482.837	1211.105
237.972	25.824	1481.856	1209.931
238.986	25.894	1480.605	1209.274
240.001	25.855	1479.992	1208.401
241.015	25.832	1479.074	1207.391
242.030	25.982	1477.670	1207.141
243.045	26.005	1476.870	1206.536
244.059	26.021	1476.022	1205.845
245.074	25.983	1475.044	1204.685
246.088	25.959	1474.634	1204.084
247.103	25.972	1473.949	1203.506
248.117	25.968	1473.108	1202.685
249.132	26.033	1471.842	1201.981
250.147	25.988	1471.772	1201.511
251.161	26.018	1471.034	1201.005
252.176	26.163	1469.832	1200.884
253.190	26.062	1469.347	1199.708
254.205	26.009	1468.598	1198.638
255.220	26.130	1467.673	1198.582
256.234	26.135	1466.815	1197.809
257.249	26.069	1465.954	1196.559
258.263	26.038	1465.695	1196.040
259.278	26.171	1464.295	1195.671
260.293	26.163	1463.139	1194.564
261.307	26.143	1462.860	1194.102
262.322	26.138	1462.024	1193.282
263.336	26.166	1461.456	1192.895
264.351	26.154	1460.611	1192.022
265.366	26.143	1459.417	1190.871
266.380	26.151	1458.778	1190.293
267.395	26.130	1457.824	1189.271
268.409	26.123	1457.139	1188.560
269.424	26.142	1456.177	1187.800
270.439	26.106	1455.547	1186.943
271.453	26.167	1454.525	1186.407
272.468	26.223	1453.537	1185.865
273.482	26.244	1453.058	1185.506
274.497	26.212	1452.111	1184.414
275.512	26.096	1451.680	1183.202
276.526	26.211	1450.980	1183.275
277.541	26.219	1450.181	1182.571
278.555	26.221	1449.324	1181.783
279.570	26.237	1448.371	1181.007
280.585	26.264	1447.051	1180.001
281.599	26.378	1446.293	1180.026
282.614	26.160	1445.972	1178.235
283.628	26.289	1444.494	1177.765
284.643	26.255	1443.918	1176.971
285.657	26.256	1443.206	1176.296
286.672	26.229	1442.385	1175.347
287.687	26.277	1441.248	1174.627
288.701	26.206	1440.463	1173.423
289.716	26.247	1440.078	1173.271
290.730	26.364	1438.881	1172.950
291.745	26.347	1437.780	1171.840
292.760	26.348	1437.401	1171.431
293.774	26.408	1436.128	1170.678
294.789	26.319	1435.608	1169.579
295.803	26.351	1435.110	1169.275
296.818	26.378	1433.973	1168.419
297.833	26.388	1433.395	1167.910
298.847	26.362	1432.657	1167.036
299.862	26.391	1431.640	1166.291
300.876	26.478	1430.685	1165.970
301.891	26.339	1430.212	1164.587
302.906	26.443	1429.215	1164.343
303.920	26.546	1428.378	1164.223
304.935	26.430	1428.548	1163.507
305.949	26.470	1427.318	1162.665
306.964	26.509	1426.224	1161.918
307.979	26.489	1425.603	1161.180
308.993	26.583	1424.416	1160.716
310.008	26.548	1423.895	1159.959
311.022	26.563	1422.932	1159.173
312.037	26.515	1421.920	1157.940
313.052	26.545	1421.000	1157.275
314.066	26.546	1420.281	1156.597
315.081	26.581	1419.296	1155.916
316.095	26.586	1418.394	1155.106
317.110	26.503	1417.748	1153.954
318.125	26.594	1416.368	1153.304
319.139	26.688	1415.445	1153.051
320.154	26.593	1414.915	1151.910
321.168	26.622	1414.341	1151.531
322.183	26.702	1413.063	1150.891
323.197	26.648	1412.520	1150.004
324.212	26.634	1411.968	1149.369
325.227	26.655	1410.640	1148.320
326.241	26.656	1409.737	1147.486
327.256	26.722	1409.317	1147.464
328.270	26.701	1408.673	1146.703
329.285	26.763	1407.245	1145.832
330.300	26.800	1406.440	1145.305
331.314	26.738	1406.095	1144.533
332.329	26.827	1405.095	1144.178
333.343	26.739	1404.398	1142.957
334.358	26.806	1403.563	1142.595
335.373	26.861	1403.231	1142.570
336.387	26.867	1402.290	1141.742
337.402	26.731	1401.819	1140.404
338.416	26.710	1401.717	1140.085
339.431	26.855	1400.787	1140.140
340.446	26.901	1400.261	1139.899
341.460	26.903	1398.995	1138.784
342.475	26.878	1398.243	1137.911
343.489	26.998	1397.085	1137.619
344.504	26.964	1396.046	1136.463
345.519	26.972	1395.120	1135.656
346.533	26.956	1394.498	1134.949
347.548	27.040	1393.763	1134.779
348.562	27.025	1392.856	1133.845
349.577	26.988	1392.056	1132.863
350.592	27.015	1390.990	1132.060
351.606	26.908	1390.566	1130.951
352.621	26.901	1389.316	1129.792
353.635	26.895	1388.605	1129.077
354.650	26.941	1388.196	1128.931
355.665	26.964	1386.999	1127.997
356.679	27.015	1386.016	1127.416
357.694	27.111	1384.574	1126.735
358.708	27.061	1383.756	1125.662
359.723	27.091	1382.765	1124.942
360.738	27.067	1381.610	1123.755
361.752	27.038	1380.308	1122.415
362.767	27.085	1379.281	1121.773
363.781	27.027	1378.997	1121.083
364.796	27.040	1378.305	1120.504
365.810	27.151	1377.400	1120.352
366.825	27.128	1376.629	1119.487
367.840	27.081	1376.154	1118.709
368.854	27.201	1375.495	1118.814
369.869	27.238	1374.949	1118.496
370.883	27.144	1374.567	1117.512
371.898	27.187	1373.487	1116.796
372.913	27.180	1373.065	1116.316
373.927	27.187	1371.817	1115.240
374.942	27.239	1371.161	1114.929
375.956	27.209	1370.482	1114.095
376.971	27.377	1369.774	1114.452
377.986	27.263	1368.833	1112.888
379.000	27.340	1367.960	1112.547
380.015	27.271	1367.495	1111.654
381.029	27.340	1366.592	1111.239
382.044	27.278	1366.148	1110.400
383.059	27.232	1365.613	1109.589
384.073	27.270	1365.003	1109.224
385.088	27.369	1364.368	1109.219
386.102	27.355	1363.721	1108.505
387.117	27.396	1362.872	1107.969
388.132	27.369	1362.635	1107.511
389.146	27.319	1361.685	1106.341
390.161	27.347	1361.021	1105.874
391.175	27.510	1360.300	1106.179
392.190	27.571	1359.251	1105.596
393.205	27.448	1358.874	1104.444
394.219	27.379	1358.058	1103.267
395.234	27.404	1356.839	1102.331
396.248	27.419	1356.413	1101.979
397.263	27.448	1355.056	1100.952
398.278	27.566	1353.735	1100.493
399.292	27.530	1352.433	1099.121
400.307	27.594	1351.882	1098.962
401.321	27.661	1350.851	1098.434
402.336	27.607	1349.696	1097.068
403.350	27.594	1348.976	1096.310
404.365	27.445	1348.415	1094.861
405.380	27.609	1347.131	1094.705
406.394	27.569	1346.891	1094.174
407.409	27.553	1345.758	1093.061
408.423	27.599	1345.173	1092.765
409.438	27.515	1345.263	1092.235
410.453	27.659	1343.959	1091.946
411.467	27.657	1343.247	1091.257
412.482	27.733	1342.574	1091.067
413.496	27.836	1341.819	1090.972
414.511	27.682	1341.201	1089.459
415.526	27.802	1340.449	1089.466
416.540	27.712	1339.893	1088.377
417.555	27.719	1339.151	1087.724
418.569	27.720	1338.768	1087.323
419.584	27.784	1338.396	1087.306
420.599	27.713	1337.955	1086.428
421.613	74.331	1318.647	1335.817
422.628	74.900	1315.831	1335.958
