DTS Sentinel unit serial number:	SN413079Multiplexer serial number:	ORYXHardware model number:	OX4-SRSoftware version number:	ORYX F/W v4.00 Oryx Data Collector v3.7.2.0data status	okinstallation	princeton_trtdifferential loss correction	single-endedforward channel	channel 4reverse channel	N/Adate	2019/09/11time	18:43:11forward acquisition time	60.00reverse acquisition time	0.00gamma	496.2192k internal	0.2279k external	0.2279temperature offset calibration	1.0027default loss term (dB/km)	0.3790temperature slope calibration	1.0000multiplexer offset coefficient	1.0000multiplexer slope coefficient	1.0000fibre end	0.00T internal ref (°C)	43.33T ext. ref 1 (°C)	1.19T ext. ref 2 (°C)	35.49length (m)	temperature (°C)	Stokes	anti-Stokes-747.200	-134.157	0.235	0.030
-746.185	287.441	-0.168	0.313
-745.171	785.502	-0.093	0.261
-744.156	-42.629	0.242	0.127
-743.142	-30.017	-0.306	0.179
-742.127	800.000	0.068	0.306
-741.112	68.283	0.304	0.320
-740.098	49.770	-0.144	0.139
-739.083	18.526	0.119	-0.098
-738.069	149.458	-0.058	-0.080
-737.054	5.057	-0.184	0.140
-736.039	800.000	-0.013	-0.047
-735.025	-76.531	0.176	-0.064
-734.010	187.740	0.131	0.201
-732.996	-74.870	0.280	0.103
-731.981	-57.805	-0.108	0.048
-730.966	800.000	-0.131	0.431
-729.952	-84.181	-0.235	-0.077
-728.937	-107.360	-0.187	-0.042
-727.923	-111.573	-0.014	-0.003
-726.908	224.982	-0.091	-0.151
-725.894	-145.119	-0.386	0.036
-724.879	12.513	-0.065	-0.051
-723.864	-200.000	-0.042	0.387
-722.850	-65.548	0.117	0.048
-721.835	1.042	0.109	0.080
-720.821	-86.442	0.262	-0.083
-719.806	46.654	-0.170	-0.163
-718.791	-33.593	0.240	0.136
-717.777	205.544	-0.235	-0.375
-716.762	-32.369	0.219	-0.125
-715.748	-112.106	0.121	0.025
-714.733	800.000	-0.048	-0.187
-713.718	-145.049	-0.100	0.009
-712.704	-27.291	-0.256	-0.154
-711.689	-200.000	-0.033	-0.169
-710.675	800.000	-0.052	-0.161
-709.660	157.300	-0.247	-0.351
-708.645	-2.773	-0.052	-0.038
-707.631	-144.414	0.047	-0.005
-706.616	-152.800	-0.249	-0.018
-705.602	-200.000	0.003	0.104
-704.587	203.933	0.298	0.474
-703.572	604.063	-0.050	-0.129
-702.558	-90.327	0.090	0.027
-701.543	29.269	-0.197	-0.172
-700.529	-133.438	0.159	0.020
-699.514	-45.578	0.226	0.115
-698.499	-200.000	-0.026	-0.249
-697.485	-31.532	-0.297	-0.172
-696.470	-20.513	-0.128	0.081
-695.456	800.000	-0.051	-0.144
-694.441	800.000	0.057	-0.169
-693.426	155.504	-0.106	-0.150
-692.412	-48.092	0.269	-0.134
-691.397	9.438	-0.263	0.204
-690.383	-78.762	-0.175	0.061
-689.368	800.000	0.058	0.219
-688.354	42.379	0.193	-0.180
-687.339	-55.853	0.176	-0.081
-686.324	506.316	-0.015	0.035
-685.310	95.247	0.233	-0.272
-684.295	-200.000	-0.077	-0.540
-683.281	431.051	-0.095	0.211
-682.266	-50.945	0.298	0.144
-681.251	6.091	0.061	-0.047
-680.237	800.000	0.073	0.234
-679.222	-110.100	-0.062	-0.013
-678.208	201.348	-0.032	-0.051
-677.193	-119.081	-0.317	0.057
-676.178	-163.962	-0.272	-0.013
-675.164	169.452	0.202	-0.296
-674.149	-85.173	0.127	-0.041
-673.135	-62.853	0.125	0.053
-672.120	416.279	-0.107	0.234
-671.105	-200.000	-0.013	-0.327
-670.091	470.426	-0.044	-0.102
-669.076	679.580	0.160	-0.427
-668.062	-200.000	-0.008	0.064
-667.047	-200.000	-0.012	0.100
-666.032	-200.000	0.004	-0.416
-665.018	-86.507	-0.057	0.018
-664.003	-128.869	0.124	-0.018
-662.989	57.519	-0.057	-0.057
-661.974	24.014	-0.272	-0.230
-660.959	-200.000	-0.021	0.410
-659.945	800.000	-0.005	-0.019
-658.930	-138.352	0.321	0.036
-657.916	800.000	0.094	-0.381
-656.901	-200.000	0.004	0.178
-655.886	73.340	-0.070	-0.075
-654.872	-200.000	-0.014	-0.074
-653.857	229.649	0.045	-0.075
-652.843	-200.000	0.003	0.217
-651.828	71.061	-0.030	-0.032
-650.814	-139.192	-0.119	-0.013
-649.799	14.796	-0.157	-0.126
-648.784	-109.991	0.260	0.056
-647.770	-123.348	-0.120	-0.020
-646.755	-200.000	-0.007	-0.155
-645.741	17.787	0.141	-0.115
-644.726	-146.893	0.244	0.022
-643.711	229.865	0.054	0.090
-642.697	129.292	0.140	-0.183
-641.682	27.451	-0.176	-0.152
-640.668	-200.000	-0.073	0.345
-639.653	-26.931	0.350	0.210
-638.638	408.931	0.096	-0.208
-637.624	-91.292	0.156	0.046
-636.609	-200.000	-0.041	-0.190
-635.595	-145.541	0.168	0.015
-634.580	-200.000	-0.030	-0.264
-633.565	-104.642	0.089	-0.021
-632.551	-101.613	0.037	-0.009
-631.536	118.171	-0.175	0.222
-630.522	738.452	0.025	0.068
-629.507	34.276	0.242	0.216
-628.492	-66.799	0.089	-0.036
-627.478	-113.204	0.478	0.096
-626.463	-100.169	-0.179	-0.046
-625.449	69.301	0.153	-0.161
-624.434	8.479	-0.097	-0.075
-623.419	248.928	-0.059	0.102
-622.405	-141.857	-0.248	0.025
-621.390	405.397	0.082	-0.177
-620.376	129.100	-0.225	0.294
-619.361	-200.000	0.030	-0.268
-618.346	-130.682	0.229	0.032
-617.332	66.796	0.194	-0.203
-616.317	-37.322	0.263	-0.144
-615.303	292.317	-0.085	-0.159
-614.288	-161.581	0.232	0.012
-613.273	333.680	0.200	-0.397
-612.259	800.000	0.040	0.177
-611.244	-39.260	-0.217	-0.117
-610.230	16.327	0.170	-0.138
-609.215	-74.488	-0.393	0.145
-608.201	8.141	0.111	-0.086
-607.186	-160.611	-0.064	-0.004
-606.171	-29.901	0.145	0.085
-605.157	-2.297	0.113	0.081
-604.142	-73.453	0.241	-0.090
-603.128	452.636	-0.062	-0.140
-602.113	22.853	-0.211	0.177
-601.098	-76.355	-0.150	-0.054
-600.084	8.520	-0.062	0.048
-599.069	303.472	0.104	0.197
-598.055	551.616	-0.026	-0.063
-597.040	276.822	-0.111	-0.201
-596.025	-63.717	0.148	0.062
-595.011	-123.204	-0.363	0.059
-593.996	-200.000	-0.081	0.367
-592.982	-58.296	-0.220	-0.098
-591.967	-200.000	0.038	-0.202
-590.952	167.588	0.157	-0.228
-589.938	-172.068	-0.284	0.009
-588.923	508.488	-0.030	-0.071
-587.909	586.254	-0.049	0.124
-586.894	-200.000	-0.013	-0.094
-585.879	-87.488	0.157	-0.049
-584.865	637.276	0.124	-0.321
-583.850	-0.584	-0.105	-0.076
-582.836	258.726	-0.055	-0.097
-581.821	216.763	-0.164	0.266
-580.806	426.761	-0.026	-0.058
-579.792	-61.403	-0.174	-0.075
-578.777	49.560	-0.235	0.226
-577.763	-176.605	-0.009	-0.000
-576.748	104.557	0.099	0.120
-575.733	-200.000	0.004	0.057
-574.719	-200.000	0.011	-0.256
-573.704	709.725	-0.144	0.390
-572.690	79.637	-0.172	0.189
-571.675	-200.000	0.014	0.449
-570.661	-47.629	-0.282	0.140
-569.646	69.697	-0.107	0.113
-568.631	-80.178	-0.248	-0.085
-567.617	746.253	0.106	-0.293
-566.602	-200.000	-0.012	0.255
-565.588	-17.246	-0.116	0.075
-564.573	7.875	-0.163	-0.125
-563.558	300.058	0.137	-0.258
-562.544	159.655	0.130	-0.185
-561.529	-60.152	-0.249	0.108
-560.515	208.100	-0.092	-0.147
-559.500	-73.737	0.383	0.143
-558.485	2.866	-0.162	0.120
-557.471	233.419	-0.107	0.180
-556.456	800.000	0.135	-0.393
-555.442	92.883	0.127	0.146
-554.427	800.000	0.082	0.248
-553.412	-76.517	-0.290	-0.104
-552.398	-22.304	0.154	0.095
-551.383	274.357	-0.087	0.158
-550.369	-200.000	0.008	0.340
-549.354	292.177	0.036	0.068
-548.339	314.276	0.100	-0.193
-547.325	366.556	-0.050	0.102
-546.310	800.000	0.063	-0.243
-545.296	-45.652	-0.275	-0.139
-544.281	144.330	0.137	0.187
-543.266	-81.791	-0.102	0.034
-542.252	-37.877	0.149	0.081
-541.237	-200.000	-0.011	-0.108
-540.223	119.206	0.083	0.105
-539.208	90.789	-0.132	0.151
-538.193	-112.711	-0.106	-0.021
-537.179	-200.000	0.014	0.146
-536.164	-101.026	0.205	0.051
-535.150	4.231	-0.229	-0.172
-534.135	108.687	-0.108	-0.131
-533.121	208.773	-0.194	-0.310
-532.106	-156.207	-0.102	0.007
-531.091	18.295	0.255	0.208
-530.077	-200.000	0.020	0.154
-529.062	-103.755	0.059	0.014
-528.048	800.000	-0.016	-0.058
-527.033	-35.410	-0.125	-0.070
-526.018	-50.091	0.149	0.072
-525.004	-13.241	-0.253	-0.168
-523.989	800.000	0.077	-0.262
-522.975	-56.804	0.464	-0.209
-521.960	-200.000	-0.042	0.228
-520.945	-200.000	0.008	0.046
-519.931	-200.000	0.005	0.136
-518.916	-16.949	0.123	0.079
-517.902	227.134	0.089	0.148
-516.887	-200.000	0.002	-0.082
-515.872	800.000	-0.018	0.068
-514.858	-42.051	0.310	0.162
-513.843	-154.849	-0.148	0.010
-512.829	66.843	-0.150	-0.156
-511.814	-27.520	-0.134	0.080
-510.799	75.319	-0.025	-0.027
-509.785	-200.000	0.014	-0.130
-508.770	32.912	0.113	-0.099
-507.756	-32.502	-0.230	-0.131
-506.741	-71.097	0.196	0.075
-505.726	-200.000	-0.017	0.168
-504.712	137.869	-0.156	-0.208
-503.697	-150.140	0.428	-0.034
-502.683	13.395	-0.154	-0.122
-501.668	-43.234	-0.195	-0.101
-500.653	490.884	0.067	-0.156
-499.639	-200.000	0.003	-0.183
-498.624	-135.567	0.191	-0.023
-497.610	-39.241	-0.126	0.068
-496.595	313.059	0.139	-0.267
-495.581	800.000	-0.039	0.164
-494.566	21.366	-0.299	0.247
-493.551	-164.646	-0.255	0.012
-492.537	-36.445	0.110	-0.060
-491.522	16.006	-0.132	-0.106
-490.508	-182.205	0.151	0.003
-489.493	56.140	0.101	-0.100
-488.478	-21.374	-0.069	0.043
-487.464	-137.921	0.112	0.013
-486.449	800.000	0.025	0.107
-485.435	80.597	0.061	0.067
-484.420	33.387	0.141	-0.125
-483.405	-200.000	0.009	0.194
-482.391	251.850	0.141	0.244
-481.376	58.483	0.098	-0.098
-480.362	-10.212	-0.121	-0.082
-479.347	-35.926	0.125	-0.069
-478.332	301.876	0.033	0.063
-477.318	-156.256	-0.188	0.012
-476.303	140.957	-0.188	-0.253
-475.289	-134.279	0.074	-0.009
-474.274	-90.970	0.169	-0.050
-473.259	103.933	-0.248	-0.297
-472.245	-78.575	-0.440	0.153
-471.230	202.246	0.026	0.040
-470.216	-200.000	0.002	-0.125
-469.201	196.977	-0.069	0.107
-468.186	800.000	-0.051	-0.152
-467.172	800.000	0.039	0.146
-466.157	26.554	0.199	0.169
-465.143	317.296	-0.128	0.247
-464.128	-63.483	-0.174	0.073
-463.113	-14.769	0.194	0.126
-462.099	798.951	-0.021	0.059
-461.084	-21.331	0.282	0.175
-460.070	-200.000	-0.017	0.433
-459.055	-200.000	-0.058	-0.281
-458.040	800.000	-0.061	-0.223
-457.026	114.796	0.156	0.193
-456.011	-29.819	-0.200	-0.116
-454.997	-26.897	0.268	-0.159
-453.982	-70.842	0.527	-0.202
-452.968	577.326	0.080	-0.200
-451.953	223.641	-0.110	-0.180
-450.938	-200.000	0.007	-0.234
-449.924	273.256	-0.005	0.009
-448.909	800.000	0.111	-0.323
-447.895	-200.000	0.014	0.143
-446.880	-200.000	-0.043	0.386
-445.865	90.292	-0.244	0.278
-444.851	-200.000	-0.005	0.231
-443.836	-97.094	-0.200	-0.053
-442.822	-34.827	-0.050	-0.028
-441.807	-22.294	-0.261	-0.161
-440.792	-141.228	-0.067	-0.007
-439.778	-122.930	-0.281	-0.046
-438.763	13.615	0.127	-0.100
-437.749	-168.186	-0.080	0.003
-436.734	716.954	-0.116	0.313
-435.719	-107.087	0.052	0.012
-434.705	800.000	0.055	-0.226
-433.690	338.645	-0.138	-0.273
-432.676	-144.692	-0.136	-0.013
-431.661	-67.074	0.043	0.017
-430.646	-200.000	-0.042	0.257
-429.632	800.000	-0.038	0.109
-428.617	-28.412	-0.021	-0.012
-427.603	-88.932	-0.231	-0.070
-426.588	-128.808	0.293	0.042
-425.573	-110.417	0.120	0.025
-424.559	-200.000	0.006	0.233
-423.544	-200.000	-0.029	-0.145
-422.530	800.000	-0.034	0.136
-421.515	-12.346	-0.104	0.069
-420.500	-83.751	0.055	0.018
-419.486	68.108	-0.242	0.252
-418.471	118.336	-0.140	0.176
-417.457	-162.967	0.209	-0.010
-416.442	-76.098	-0.139	-0.050
-415.428	-133.722	0.117	0.015
-414.413	800.000	0.039	-0.137
-413.398	-38.718	-0.181	0.097
-412.384	-200.000	0.044	0.310
-411.369	-50.169	0.230	-0.110
-410.355	-135.741	-0.028	-0.003
-409.340	77.567	-0.034	-0.037
-408.325	124.325	0.273	-0.349
-407.311	-200.000	0.037	0.314
-406.296	-54.507	-0.362	0.167
-405.282	50.948	-0.032	-0.031
-404.267	800.000	0.078	0.302
-403.252	509.590	-0.115	0.271
-402.238	341.913	0.118	-0.234
-401.223	-63.816	-0.278	0.115
-400.209	73.191	0.078	-0.083
-399.194	-34.227	-0.249	-0.139
-398.179	593.881	0.071	0.177
-397.165	-83.035	0.216	0.071
-396.150	-52.359	-0.333	0.157
-395.136	-151.267	0.120	-0.009
-394.121	800.000	-0.018	-0.070
-393.106	105.205	0.176	0.211
-392.092	216.974	-0.080	0.129
-391.077	-37.222	0.258	0.140
-390.063	-32.676	0.110	0.062
-389.048	103.618	-0.105	0.125
-388.033	42.649	0.119	-0.110
-387.019	-200.000	-0.019	-0.726
-386.004	-200.000	-0.001	-0.120
-384.990	-200.000	0.055	-0.302
-383.975	-97.190	-0.197	0.052
-382.960	-139.623	0.370	-0.040
-381.946	800.000	-0.027	0.080
-380.931	800.000	0.057	-0.174
-379.917	-159.339	0.306	0.017
-378.902	-200.000	0.007	0.047
-377.888	-131.043	0.222	-0.030
-376.873	-71.339	0.131	0.050
-375.858	-25.077	0.203	-0.122
-374.844	114.533	-0.043	0.053
-373.829	-200.000	0.036	0.209
-372.815	184.881	0.117	-0.177
-371.800	-200.000	0.021	-0.126
-370.785	-200.000	0.031	0.143
-369.771	379.966	0.181	0.376
-368.756	-88.769	0.208	0.063
-367.742	-140.903	-0.295	-0.031
-366.727	-35.197	0.196	0.108
-365.712	120.729	-0.009	0.012
-364.698	-178.213	0.152	-0.004
-363.683	9.726	0.169	0.130
-362.669	76.714	0.317	0.341
-361.654	149.644	-0.149	0.205
-360.639	-83.537	0.189	0.061
-359.625	-200.000	0.035	0.246
-358.610	800.000	0.027	0.075
-357.596	-200.000	-0.028	-0.180
-356.581	-152.089	0.240	-0.018
-355.566	800.000	-0.061	0.241
-354.552	182.119	-0.056	0.084
-353.537	40.429	-0.179	0.164
-352.523	-150.040	0.106	0.008
-351.508	505.872	0.120	-0.281
-350.493	-58.573	-0.112	-0.049
-349.479	-55.804	0.082	-0.037
-348.464	-66.564	-0.491	0.197
-347.450	-126.500	-0.141	0.021
-346.435	-52.654	-0.300	-0.140
-345.420	31.936	-0.079	0.069
-344.406	-3.910	-0.355	0.249
-343.391	550.068	0.085	0.205
-342.377	-200.000	0.006	-0.260
-341.362	-107.784	0.030	0.007
-340.348	-114.969	0.165	-0.032
-339.333	23.812	-0.084	-0.070
-338.318	-66.971	-0.096	0.038
-337.304	-105.456	0.191	-0.044
-336.289	132.298	0.160	-0.209
-335.275	439.158	-0.147	-0.325
-334.260	-159.128	-0.149	0.009
-333.245	-87.104	0.322	0.099
-332.231	52.647	-0.188	-0.182
-331.216	743.863	0.077	0.209
-330.202	800.000	0.119	-0.376
-329.187	800.000	-0.012	0.050
-328.172	-23.733	-0.296	0.180
-327.158	13.476	-0.197	-0.155
-326.143	162.641	-0.168	-0.239
-325.129	-200.000	-0.011	-0.119
-324.114	-112.937	0.274	0.055
-323.099	-48.103	0.098	-0.048
-322.085	173.375	0.163	-0.238
-321.070	-99.921	-0.076	0.019
-320.056	-84.998	0.170	0.054
-319.041	306.929	-0.226	-0.425
-318.026	-6.773	-0.204	-0.141
-317.012	582.757	-0.100	0.249
-315.997	-155.285	-0.156	0.010
-314.983	-105.143	0.316	0.073
-313.968	-200.000	0.018	0.175
-312.953	-54.070	0.143	-0.066
-311.939	-66.845	-0.112	-0.045
-310.924	175.900	-0.119	0.175
-309.910	37.071	-0.094	-0.084
-308.895	800.000	0.077	0.302
-307.880	800.000	-0.032	-0.131
-306.866	-200.000	0.009	0.222
-305.851	-44.397	-0.040	-0.020
-304.837	-83.793	-0.311	-0.100
-303.822	111.269	-0.308	-0.375
-302.807	95.289	-0.130	0.150
-301.793	309.158	-0.109	0.206
-300.778	211.587	0.149	0.237
-299.764	619.874	-0.139	-0.353
-298.749	-67.133	0.054	0.022
-297.735	-98.509	0.392	-0.101
-296.720	-23.365	-0.273	-0.166
-295.705	46.765	0.105	-0.099
-294.691	299.020	0.095	-0.177
-293.676	82.607	0.188	-0.207
-292.662	-29.433	0.294	-0.170
-291.647	-200.000	-0.038	0.335
-290.632	-200.000	0.030	-0.199
-289.618	-135.471	-0.379	-0.046
-288.603	-200.000	0.022	0.145
-287.589	-170.296	0.252	-0.009
-286.574	274.108	0.117	-0.210
-285.559	-200.000	-0.051	-0.539
-284.545	-142.799	0.343	-0.034
-283.530	161.830	-0.123	-0.175
-282.516	-79.452	-0.179	0.061
-281.501	-90.798	0.150	0.044
-280.486	245.331	0.166	-0.282
-279.472	-200.000	-0.008	0.262
-278.457	-139.696	-0.204	0.022
-277.443	-26.672	0.108	-0.064
-276.428	-46.373	0.328	-0.163
-275.413	6.034	-0.072	-0.054
-274.399	-61.540	0.233	0.099
-273.384	-22.494	-0.069	-0.042
-272.370	-126.579	-0.089	0.013
-271.355	-200.000	-0.008	-0.052
-270.340	800.000	-0.032	-0.141
-269.326	-200.000	-0.020	0.269
-268.311	-54.840	-0.497	0.227
-267.297	101.738	-0.313	0.369
-266.282	-49.792	0.109	0.052
-265.267	800.000	-0.161	0.459
-264.253	-200.000	-0.041	0.397
-263.238	-33.991	-0.133	0.074
-262.224	37.210	-0.058	-0.052
-261.209	-85.820	-0.088	0.028
-260.195	167.298	0.135	-0.193
-259.180	-33.446	0.065	0.036
-258.165	-70.241	0.389	-0.149
-257.151	-100.135	0.348	-0.087
-256.136	-200.000	0.029	0.233
-255.122	-200.000	0.013	0.060
-254.107	800.000	-0.129	-0.397
-253.092	-200.000	0.022	0.272
-252.078	-200.000	0.021	0.278
-251.063	-5.774	-0.144	-0.100
-250.049	82.439	-0.177	-0.194
-249.034	800.000	-0.038	-0.115
-248.019	74.539	0.221	-0.235
-247.005	800.000	0.080	-0.343
-245.990	-200.000	-0.062	-0.318
-244.976	-29.680	0.404	0.233
-243.961	177.056	0.132	-0.193
-242.946	800.000	0.063	-0.248
-241.932	184.672	-0.234	-0.350
-240.917	-200.000	0.022	-0.098
-239.903	-129.597	-0.204	-0.028
-238.888	306.991	-0.201	0.377
-237.873	316.562	0.187	0.356
-236.859	-24.523	-0.310	-0.186
-235.844	-187.968	-0.303	-0.004
-234.830	-79.355	0.056	-0.019
-233.815	135.335	0.256	0.336
-232.800	320.793	-0.103	-0.197
-231.786	800.000	-0.082	-0.237
-230.771	-200.000	0.022	0.160
-229.757	-200.000	0.040	-0.224
-228.742	561.833	0.131	0.320
-227.727	-200.000	0.005	-0.279
-226.713	-125.739	-0.147	0.022
-225.698	38.069	0.197	0.177
-224.684	20.197	-0.039	0.032
-223.669	800.000	-0.082	-0.335
-222.655	-200.000	-0.008	-0.178
-221.640	-73.039	-0.043	-0.016
-220.625	-200.000	-0.036	0.193
-219.611	-78.027	-0.426	-0.148
-218.596	-69.557	0.198	-0.077
-217.582	52.119	-0.299	0.287
-216.567	55.967	-0.116	0.114
-215.552	-174.538	0.214	-0.006
-214.538	-76.349	-0.220	-0.078
-213.523	186.417	-0.046	0.069
-212.509	-126.745	0.161	-0.024
-211.494	-62.980	0.190	-0.079
-210.479	-200.000	-0.002	-0.148
-209.465	293.106	0.122	0.224
-208.450	-200.000	-0.025	0.225
-207.436	-21.737	0.101	0.062
-206.421	-2.163	-0.155	-0.110
-205.406	88.468	-0.058	-0.065
-204.392	-20.339	0.305	-0.189
-203.377	127.729	-0.304	0.389
-202.363	-159.081	0.103	-0.006
-201.348	800.000	-0.065	0.197
-200.333	800.000	0.039	-0.123
-199.319	-200.000	-0.035	-0.276
-198.304	-63.201	-0.126	-0.052
-197.290	166.595	0.100	0.143
-196.275	-99.425	0.297	-0.075
-195.260	800.000	0.029	-0.107
-194.246	-137.405	0.125	-0.014
-193.231	-42.110	0.322	0.166
-192.217	-131.479	0.056	-0.007
-191.202	-28.698	-0.097	-0.056
-190.187	800.000	0.146	0.455
-189.173	-56.524	0.084	-0.037
-188.158	-40.588	0.108	-0.056
-187.144	-161.026	0.225	0.012
-186.129	-4.468	0.109	0.076
-185.114	-200.000	-0.016	0.207
-184.100	-183.737	0.185	0.003
-183.085	-200.000	-0.011	-0.059
-182.071	14.237	-0.268	-0.210
-181.056	19.174	-0.098	-0.079
-180.042	-151.472	0.294	0.022
-179.027	-102.767	-0.090	0.022
-178.012	-83.156	-0.326	-0.106
-176.998	357.864	-0.115	0.231
-175.983	191.186	0.048	0.073
-174.969	14.497	0.078	0.061
-173.954	-200.000	0.037	0.309
-172.939	-200.000	-0.038	-0.310
-171.925	-79.300	-0.291	-0.099
-170.910	-96.251	0.172	-0.046
-169.896	-68.728	0.175	0.068
-168.881	-200.000	-0.030	-0.169
-167.866	82.247	-0.097	-0.106
-166.852	-110.157	-0.177	-0.037
-165.837	-160.440	0.180	-0.010
-164.823	348.566	-0.086	0.171
-163.808	-200.000	-0.049	0.310
-162.793	20.679	-0.211	0.172
-161.779	54.989	0.198	0.193
-160.764	109.162	-0.233	-0.280
-159.750	-136.883	0.055	-0.006
-158.735	349.550	-0.189	0.375
-157.720	800.000	0.053	0.181
-156.706	153.963	0.017	0.024
-155.691	-200.000	0.019	-0.262
-154.677	187.844	-0.338	-0.508
-153.662	800.000	0.055	-0.218
-152.647	326.729	-0.069	0.132
-151.633	522.350	0.099	0.234
-150.618	-142.326	-0.272	0.027
-149.604	-68.737	-0.240	0.093
-148.589	420.437	0.141	-0.303
-147.574	163.901	-0.149	-0.211
-146.560	-138.399	0.099	0.011
-145.545	-38.184	0.211	0.113
-144.531	509.404	-0.048	0.112
-143.516	-200.000	-0.031	0.146
-142.502	347.292	0.015	-0.030
-141.487	165.286	0.116	0.164
-140.472	-153.477	0.203	-0.014
-139.458	800.000	0.104	0.312
-138.443	148.549	0.203	-0.275
-137.429	73.501	0.192	0.202
-136.414	-102.546	-0.194	-0.047
-135.399	-24.052	-0.253	0.152
-134.385	-18.447	0.263	0.165
-133.370	97.664	0.193	-0.223
-132.356	-173.420	-0.335	-0.010
-131.341	289.083	0.098	0.179
-130.326	-139.203	-0.146	-0.016
-129.312	800.000	-0.080	0.239
-128.297	800.000	0.039	0.167
-127.283	800.000	0.054	-0.195
-126.268	-96.343	0.146	-0.039
-125.253	-200.000	-0.084	0.437
-124.239	-200.000	-0.022	0.132
-123.224	-144.022	0.304	0.029
-122.210	-151.472	-0.156	-0.012
-121.195	53.128	0.185	-0.178
-120.180	-104.542	0.310	0.072
-119.166	-9.340	-0.274	-0.184
-118.151	78.107	-0.295	-0.316
-117.137	-66.371	-0.263	0.105
-116.122	-64.514	0.159	0.065
-115.107	-200.000	0.040	0.204
-114.093	-74.915	0.340	0.122
-113.078	-64.692	0.320	-0.130
-112.064	-49.719	0.116	-0.055
-111.049	184.705	-0.056	-0.083
-110.034	-5.785	-0.452	-0.311
-109.020	-200.000	0.055	-0.352
-108.005	26.128	-0.074	0.062
-106.991	182.417	0.041	-0.061
-105.976	602.854	-0.059	0.148
-104.962	11.967	0.148	-0.115
-103.947	-164.539	0.100	-0.005
-102.932	-95.214	-0.225	-0.061
-101.918	-45.077	0.047	-0.024
-100.903	800.000	-0.007	0.029
-99.889	-23.409	-0.232	-0.140
-98.874	-16.622	0.244	-0.155
-97.859	42.216	-0.177	0.162
-96.845	-58.011	0.267	-0.117
-95.830	124.222	0.086	0.109
-94.816	16.413	0.221	0.175
-93.801	-60.241	0.383	-0.164
-92.786	-200.000	-0.021	0.242
-91.772	-43.340	0.076	-0.038
-90.757	-143.013	-0.269	0.026
-89.743	-15.161	0.030	0.020
-88.728	-200.000	0.013	0.178
-87.713	-44.605	-0.142	0.071
-86.699	-145.520	-0.029	0.003
-85.684	-200.000	-0.050	0.286
-84.670	-194.800	-0.219	-0.002
-83.655	367.861	-0.076	-0.154
-82.640	327.236	0.085	-0.164
-81.626	-147.835	0.348	-0.029
-80.611	-141.734	-0.318	-0.032
-79.597	26.396	0.302	-0.254
-78.582	-92.678	-0.443	0.124
-77.567	118.659	-0.131	0.162
-76.553	1.466	-0.082	-0.059
-75.538	-95.275	-0.159	-0.043
-74.524	-200.000	-0.022	0.155
-73.509	-200.000	-0.020	-0.209
-72.494	-152.417	0.205	-0.015
-71.480	43.657	-0.122	-0.112
-70.465	-44.106	0.190	0.096
-69.451	-97.569	0.171	0.044
-68.436	402.562	-0.043	-0.091
-67.422	147.208	0.120	0.162
-66.407	-46.659	0.129	0.063
-65.392	172.984	-0.103	-0.149
-64.378	114.618	0.149	0.182
-63.363	-200.000	0.041	-0.345
-62.349	152.990	0.179	0.245
-61.334	56.555	-0.608	-0.593
-60.319	601.268	0.147	0.367
-59.305	318.091	-0.289	-0.549
-58.290	66.928	0.635	0.648
-57.276	368.225	0.786	1.591
-56.261	-200.000	75.800	563.115
-55.246	579.706	1302.682	3196.081
-54.232	143.382	2531.922	3376.904
-53.217	113.673	2366.161	2879.788
-52.203	51.058	2103.307	1998.035
-51.188	45.500	2012.035	1860.907
-50.173	43.540	1993.048	1825.595
-49.159	56.344	2029.922	1976.025
-48.144	61.729	2049.929	2044.333
-47.130	46.236	2014.709	1869.781
-46.115	43.417	2003.543	1833.800
-45.100	43.403	2000.264	1830.597
-44.086	43.207	1998.875	1827.479
-43.071	43.231	1996.193	1825.174
-42.057	43.251	1994.632	1823.859
-41.042	43.220	1992.527	1821.574
-40.027	43.252	1990.459	1819.904
-39.013	43.245	1988.331	1817.826
-37.998	43.289	1986.926	1816.862
-36.984	43.296	1984.585	1814.716
-35.969	43.301	1983.191	1813.408
-34.954	43.285	1981.348	1811.509
-33.940	43.313	1979.927	1810.390
-32.925	43.386	1977.896	1809.112
-31.911	43.280	1976.736	1807.034
-30.896	43.330	1974.811	1805.646
-29.881	43.354	1973.150	1804.269
-28.867	43.418	1971.487	1803.256
-27.852	43.463	1969.085	1801.381
-26.838	43.433	1967.338	1799.444
-25.823	43.378	1965.827	1797.505
-24.809	43.347	1963.850	1795.351
-23.794	43.332	1962.669	1794.063
-22.779	43.399	1960.674	1792.767
-21.765	43.380	1958.733	1790.753
-20.750	43.345	1957.388	1789.141
-19.736	43.377	1955.935	1788.028
-18.721	43.381	1954.236	1786.435
-17.706	43.279	1953.305	1784.614
-16.692	43.288	1950.940	1782.464
-15.677	43.362	1949.468	1781.693
-14.663	43.367	1947.855	1780.196
-13.648	43.355	1946.444	1778.729
-12.633	43.374	1945.559	1778.014
-11.619	43.308	1944.195	1776.120
-10.604	43.274	1943.169	1774.813
-9.590	43.362	1940.937	1773.478
-8.575	43.262	1939.737	1771.437
-7.560	43.252	1938.643	1770.274
-6.546	43.308	1937.176	1769.360
-5.531	43.285	1936.053	1768.062
-4.517	43.352	1934.564	1767.213
-3.502	43.293	1933.130	1765.321
-2.487	43.352	1932.062	1764.790
-1.473	43.376	1930.668	1763.660
-0.458	43.400	1926.591	1760.075
0.556	42.062	1906.398	1727.922
1.571	36.892	1883.440	1662.736
2.586	31.754	1902.378	1634.620
3.600	30.209	1938.666	1651.911
4.615	29.394	1935.920	1642.171
5.629	22.241	1831.890	1493.284
6.644	9.074	1701.291	1282.169
7.659	1.924	1656.252	1192.361
8.673	1.301	1651.552	1184.011
9.688	1.205	1650.238	1182.214
10.702	1.196	1648.786	1181.001
11.717	1.059	1646.228	1178.003
12.731	1.437	1645.316	1180.181
13.746	8.598	1663.864	1249.470
14.761	19.616	1688.318	1354.600
15.775	24.566	1696.597	1400.020
16.790	25.068	1697.001	1404.162
17.804	25.172	1696.125	1404.134
18.819	25.268	1695.234	1404.022
19.834	25.358	1694.730	1404.183
20.848	25.535	1693.906	1404.757
21.863	25.540	1693.055	1403.964
22.877	25.501	1692.143	1402.784
23.892	25.561	1691.081	1402.245
24.907	25.593	1690.330	1401.749
25.921	25.543	1689.300	1400.377
26.936	25.583	1688.205	1399.659
27.950	25.528	1686.994	1398.102
28.965	25.551	1686.361	1397.636
29.980	25.539	1685.367	1396.593
30.994	25.539	1684.354	1395.634
32.009	25.631	1682.981	1395.084
33.023	25.561	1682.530	1394.044
34.038	25.500	1681.455	1392.555
35.053	25.515	1680.319	1391.611
36.067	25.557	1679.459	1391.101
37.082	25.587	1678.323	1390.268
38.096	25.549	1677.066	1388.812
39.111	25.561	1676.077	1387.956
40.126	25.532	1675.930	1387.494
41.140	25.560	1674.944	1386.767
42.155	25.557	1673.994	1385.835
43.169	25.570	1672.820	1384.845
44.184	25.652	1671.739	1384.455
45.199	25.565	1670.525	1382.660
46.213	25.522	1669.668	1381.497
47.228	25.569	1668.408	1380.692
48.242	25.526	1667.147	1379.194
49.257	25.629	1665.918	1378.848
50.271	25.585	1665.296	1377.878
51.286	25.557	1663.982	1376.452
52.301	25.583	1662.416	1375.228
53.315	25.565	1660.798	1373.635
54.330	25.549	1659.638	1372.432
55.344	25.626	1657.936	1371.489
56.359	25.557	1657.124	1370.168
57.374	25.629	1656.110	1369.755
58.388	25.663	1655.149	1369.104
59.403	25.551	1654.615	1367.690
60.417	25.647	1652.796	1366.795
61.432	25.546	1652.062	1365.299
62.447	25.600	1650.507	1364.304
63.461	25.569	1649.699	1363.281
64.476	25.562	1648.748	1362.317
65.490	25.611	1647.865	1361.838
66.505	25.702	1646.477	1361.260
67.520	25.609	1645.910	1359.964
68.534	25.686	1644.730	1359.451
69.549	25.527	1643.853	1357.405
70.563	25.603	1642.598	1356.826
71.578	25.541	1641.846	1355.617
72.593	25.570	1640.827	1354.874
73.607	25.644	1640.403	1354.963
74.622	25.621	1638.537	1353.125
75.636	25.607	1638.288	1352.693
76.651	25.621	1637.092	1351.696
77.666	25.582	1636.671	1350.934
78.680	25.626	1635.522	1350.194
79.695	25.561	1635.001	1349.158
80.709	25.601	1633.888	1348.424
81.724	25.595	1633.287	1347.762
82.739	25.653	1631.856	1346.894
83.753	25.726	1630.844	1346.485
84.768	25.562	1630.299	1344.689
85.782	25.626	1629.296	1344.219
86.797	25.568	1628.825	1343.283
87.812	25.651	1627.489	1342.681
88.826	25.682	1626.931	1342.330
89.841	25.640	1625.823	1340.984
90.855	25.627	1624.480	1339.664
91.870	25.688	1623.649	1339.310
92.884	25.644	1622.399	1337.834
93.899	25.624	1621.925	1337.176
94.914	25.670	1620.458	1336.190
95.928	25.678	1619.194	1335.094
96.943	25.736	1617.861	1334.303
97.957	25.754	1616.550	1333.237
98.972	25.779	1615.399	1332.354
99.987	25.754	1614.345	1331.181
101.001	25.800	1612.215	1329.653
102.016	25.646	1611.058	1327.442
103.030	25.608	1610.239	1326.369
104.045	25.566	1609.241	1325.116
105.060	25.602	1607.766	1324.051
106.074	25.591	1607.003	1323.229
107.089	25.639	1605.695	1322.386
108.103	25.715	1603.912	1321.360
109.118	25.704	1602.922	1320.343
110.133	25.707	1602.111	1319.579
111.147	25.718	1600.905	1318.550
112.162	25.721	1599.756	1317.510
113.176	25.652	1598.976	1316.246
114.191	25.750	1597.647	1315.752
115.206	25.752	1596.551	1314.752
116.220	25.659	1595.798	1313.334
117.235	25.658	1594.269	1311.953
118.249	25.741	1592.925	1311.335
119.264	25.773	1591.585	1310.346
120.279	25.671	1590.700	1308.761
121.293	25.724	1589.653	1308.169
122.308	25.736	1588.698	1307.357
123.322	25.701	1587.409	1305.925
124.337	25.625	1586.546	1304.549
125.352	25.862	1584.408	1304.392
126.366	25.841	1583.592	1303.454
127.381	25.784	1583.040	1302.473
128.395	25.794	1581.705	1301.326
129.410	25.854	1580.810	1300.913
130.424	25.743	1579.971	1299.302
131.439	25.781	1578.663	1298.385
132.454	25.862	1577.131	1297.596
133.468	25.857	1575.634	1296.210
134.483	25.780	1574.951	1294.983
135.497	25.799	1573.612	1293.902
136.512	25.717	1572.497	1292.286
137.527	25.773	1571.186	1291.491
138.541	25.849	1570.109	1291.040
139.556	25.878	1569.332	1290.491
140.570	25.886	1567.468	1288.902
141.585	25.778	1566.507	1287.225
142.600	25.745	1565.651	1286.171
143.614	25.867	1564.698	1286.148
144.629	25.877	1563.452	1285.081
145.643	25.838	1562.111	1283.586
146.658	25.858	1561.081	1282.770
147.673	25.697	1559.618	1280.306
148.687	25.772	1558.633	1279.920
149.702	25.746	1557.436	1278.638
150.716	25.643	1556.583	1277.099
151.731	25.659	1555.222	1275.979
152.746	25.795	1554.097	1275.911
153.760	25.721	1552.763	1274.176
154.775	25.789	1551.792	1273.745
155.789	25.787	1551.239	1273.164
156.804	25.856	1549.979	1272.510
157.819	25.797	1548.638	1270.878
158.833	25.765	1547.832	1269.878
159.848	25.846	1546.519	1269.261
160.862	25.878	1546.022	1268.961
161.877	25.804	1544.959	1267.458
162.892	25.769	1544.099	1266.394
163.906	25.866	1543.016	1266.078
164.921	25.791	1542.162	1264.734
165.935	25.965	1540.931	1264.833
166.950	25.868	1540.286	1263.514
167.964	25.873	1539.076	1262.445
168.979	25.889	1538.254	1261.767
169.994	25.882	1537.094	1260.655
171.008	25.902	1536.326	1260.058
172.023	25.973	1535.504	1259.767
173.037	25.936	1534.659	1258.703
174.052	25.870	1533.330	1257.045
175.067	25.937	1532.412	1256.643
176.081	25.965	1531.498	1255.981
177.096	25.901	1530.148	1254.315
178.110	25.974	1529.002	1253.774
179.125	25.856	1528.817	1252.692
180.140	25.944	1527.508	1252.117
181.154	25.953	1526.789	1251.481
182.169	25.923	1525.943	1250.469
183.183	25.954	1524.779	1249.621
184.198	25.920	1524.028	1248.657
185.213	25.932	1522.977	1247.769
186.227	26.003	1522.243	1247.549
187.242	26.035	1521.546	1247.091
188.256	25.966	1520.761	1245.855
189.271	26.029	1519.672	1245.287
190.286	25.960	1518.751	1243.951
191.300	25.943	1517.992	1243.100
192.315	25.972	1517.284	1242.606
193.329	26.003	1516.367	1241.962
194.344	25.855	1515.757	1240.335
195.359	26.048	1514.400	1240.439
196.373	26.009	1513.690	1239.484
197.388	26.031	1512.771	1238.770
198.402	25.978	1511.968	1237.641
199.417	25.904	1510.906	1236.152
200.432	25.872	1510.613	1235.583
201.446	25.924	1509.790	1235.157
202.461	25.909	1509.016	1234.316
203.475	25.972	1507.919	1233.735
204.490	26.001	1506.705	1232.837
205.504	25.958	1506.069	1231.910
206.519	25.982	1505.131	1231.199
207.534	26.041	1504.378	1230.879
208.548	26.117	1503.452	1230.529
209.563	26.078	1502.774	1229.598
210.577	26.062	1501.519	1228.356
211.592	26.120	1500.644	1227.921
212.607	26.041	1500.410	1227.084
213.621	26.076	1499.785	1226.705
214.636	26.142	1498.750	1226.198
215.650	26.126	1497.830	1225.225
216.665	26.121	1496.698	1224.161
217.680	26.127	1496.207	1223.688
218.694	26.138	1495.599	1223.158
219.709	26.170	1494.617	1222.462
220.723	26.096	1493.856	1221.233
221.738	26.207	1492.632	1220.874
222.753	26.204	1491.907	1220.151
223.767	26.132	1491.029	1218.844
224.782	26.134	1490.337	1218.178
225.796	26.193	1489.404	1217.707
226.811	26.170	1488.970	1217.093
227.826	26.164	1488.138	1216.264
228.840	26.163	1487.762	1215.844
229.855	26.258	1486.807	1215.594
230.869	26.157	1485.665	1213.870
231.884	26.132	1485.183	1213.200
232.899	26.232	1483.751	1212.594
233.913	26.194	1482.680	1211.362
234.928	26.176	1481.578	1210.231
235.942	26.255	1480.904	1210.104
236.957	26.238	1479.522	1208.751
237.972	26.261	1478.793	1208.205
238.986	26.243	1477.696	1207.083
240.001	26.193	1477.181	1206.219
241.015	26.256	1475.981	1205.551
242.030	26.303	1475.005	1204.965
243.045	26.431	1473.622	1204.576
244.059	26.323	1473.525	1203.675
245.074	26.296	1472.717	1202.730
246.088	26.413	1471.420	1202.337
247.103	26.282	1470.977	1201.001
248.117	26.355	1470.266	1200.799
249.132	26.293	1469.298	1199.489
250.147	26.429	1468.818	1199.897
251.161	26.471	1467.870	1199.289
252.176	26.404	1467.557	1198.486
253.190	26.533	1466.414	1198.301
254.205	26.450	1465.817	1197.160
255.220	26.469	1464.447	1196.060
256.234	26.526	1464.003	1195.967
257.249	26.390	1463.330	1194.415
258.263	26.552	1462.360	1194.584
259.278	26.324	1461.916	1192.612
260.293	26.415	1460.985	1192.350
261.307	26.478	1460.032	1191.880
262.322	26.553	1459.410	1191.762
263.336	26.631	1458.856	1191.715
264.351	26.544	1457.860	1190.220
265.366	26.577	1456.888	1189.539
266.380	26.495	1456.065	1188.228
267.395	26.506	1455.046	1187.358
268.409	26.539	1454.525	1187.048
269.424	26.571	1453.332	1186.181
270.439	26.613	1452.717	1185.846
271.453	26.607	1451.667	1184.842
272.468	26.541	1451.450	1184.133
273.482	26.531	1450.674	1183.330
274.497	26.565	1449.478	1182.472
275.512	26.601	1448.431	1181.745
276.526	26.623	1447.878	1181.332
277.541	26.568	1447.408	1180.485
278.555	26.684	1446.427	1180.342
279.570	26.600	1445.846	1179.214
280.585	26.573	1444.650	1177.957
281.599	26.631	1443.967	1177.676
282.614	26.577	1443.730	1177.024
283.628	26.688	1441.756	1176.033
284.643	26.741	1440.902	1175.577
285.657	26.693	1440.023	1174.441
286.672	26.619	1439.586	1173.502
287.687	26.660	1438.368	1172.673
288.701	26.677	1437.691	1172.123
289.716	26.632	1437.393	1171.486
290.730	26.737	1436.578	1171.401
291.745	26.737	1435.016	1170.019
292.760	26.762	1434.579	1169.721
293.774	26.836	1433.145	1168.925
294.789	26.853	1432.331	1168.270
295.803	26.725	1432.515	1167.490
296.818	26.819	1431.336	1167.033
297.833	26.787	1430.089	1165.704
298.847	26.836	1429.658	1165.569
299.862	26.801	1428.763	1164.511
300.876	26.911	1427.537	1164.111
301.891	26.807	1427.185	1163.053
302.906	26.775	1426.591	1162.266
303.920	26.850	1425.738	1161.945
304.935	26.915	1425.025	1161.681
305.949	26.909	1424.207	1160.873
306.964	26.965	1423.252	1160.348
307.979	26.868	1423.064	1159.468
308.993	26.938	1421.963	1158.921
310.008	27.017	1420.767	1158.347
311.022	26.919	1419.986	1156.981
312.037	27.010	1419.208	1156.828
313.052	26.875	1418.501	1155.289
314.066	27.041	1417.356	1155.311
315.081	26.961	1416.350	1153.877
316.095	26.893	1415.927	1152.999
317.110	27.006	1414.761	1152.665
318.125	27.004	1413.667	1151.660
319.139	27.018	1412.827	1150.961
320.154	27.054	1411.996	1150.413
321.168	27.032	1411.241	1149.555
322.183	27.040	1410.568	1148.953
323.197	27.004	1409.776	1147.982
324.212	26.981	1409.073	1147.164
325.227	27.018	1408.048	1146.461
326.241	27.034	1407.666	1146.148
327.256	27.113	1406.470	1145.569
328.270	27.165	1405.398	1144.926
329.285	27.168	1405.228	1144.704
330.300	27.046	1404.495	1143.234
331.314	27.181	1403.087	1142.838
332.329	27.229	1402.417	1142.491
333.343	27.123	1401.615	1141.073
334.358	27.197	1400.802	1140.773
335.373	27.165	1400.872	1140.532
336.387	27.175	1399.674	1139.516
337.402	27.341	1398.843	1139.780
338.416	27.354	1398.437	1139.429
339.431	27.320	1398.036	1138.786
340.446	27.235	1397.401	1137.638
341.460	27.329	1396.094	1137.062
342.475	27.326	1395.616	1136.549
343.489	27.341	1394.612	1135.725
344.504	27.420	1393.462	1135.180
345.519	27.338	1392.719	1133.969
346.533	27.357	1391.466	1132.963
347.548	27.288	1390.849	1131.931
348.562	27.422	1389.819	1131.825
349.577	27.331	1389.450	1130.860
350.592	27.441	1388.546	1130.710
351.606	27.404	1387.809	1129.778
352.621	27.394	1386.292	1128.381
353.635	27.369	1385.200	1127.238
354.650	27.426	1385.324	1127.590
355.665	27.399	1384.272	1126.468
356.679	27.505	1382.955	1125.954
357.694	27.496	1382.064	1125.074
358.708	27.537	1380.867	1124.248
359.723	27.433	1380.008	1122.810
360.738	27.457	1379.275	1122.265
361.752	27.363	1378.047	1120.586
362.767	27.348	1376.993	1119.534
363.781	27.555	1375.962	1119.871
364.796	27.546	1375.809	1119.592
365.810	27.565	1374.978	1118.936
366.825	27.578	1373.887	1118.029
367.840	27.528	1373.507	1117.312
368.854	27.557	1372.493	1116.564
369.869	27.588	1372.213	1116.429
370.883	27.643	1371.650	1116.209
371.898	27.635	1371.025	1115.552
372.913	27.578	1370.164	1114.407
373.927	27.631	1369.295	1113.921
374.942	27.576	1368.523	1112.860
375.956	27.557	1368.076	1112.281
376.971	27.672	1367.042	1112.046
377.986	27.704	1366.298	1111.535
379.000	27.627	1365.628	1110.424
380.015	27.687	1364.580	1109.840
381.029	27.686	1363.909	1109.188
382.044	27.736	1363.367	1108.952
383.059	27.726	1363.009	1108.501
384.073	27.765	1362.068	1107.879
385.088	27.853	1361.724	1108.035
386.102	27.777	1361.157	1107.013
387.117	27.771	1360.401	1106.262
388.132	27.738	1359.908	1105.564
389.146	27.762	1358.966	1104.846
390.161	27.672	1358.663	1103.960
391.175	27.838	1357.910	1104.253
392.190	27.862	1356.558	1103.199
393.205	27.820	1356.276	1102.623
394.219	27.785	1355.438	1101.630
395.234	27.722	1354.517	1100.401
396.248	27.905	1353.101	1100.258
397.263	27.873	1351.939	1099.026
398.278	27.892	1350.820	1098.134
399.292	27.997	1350.161	1098.127
400.307	28.086	1349.138	1097.736
401.321	28.023	1348.308	1096.584
402.336	27.948	1347.136	1095.087
403.350	27.936	1346.739	1094.595
404.365	27.886	1345.737	1093.384
405.380	27.917	1344.678	1092.609
406.394	27.986	1344.026	1092.394
407.409	28.079	1343.250	1092.224
408.423	28.027	1342.664	1091.340
409.438	28.043	1342.211	1090.971
410.453	28.053	1341.482	1090.344
411.467	28.138	1340.561	1090.002
412.482	28.155	1339.872	1089.448
413.496	28.093	1339.740	1088.873
414.511	28.021	1339.086	1087.821
415.526	28.185	1337.958	1087.782
416.540	28.082	1337.465	1086.672
417.555	28.147	1336.677	1086.323
418.569	28.181	1336.135	1085.988
419.584	28.171	1335.995	1085.718
420.599	28.200	1334.837	1084.855
421.613	73.876	1316.538	1328.811
422.628	74.412	1313.885	1328.946
