DTS Sentinel unit serial number:	SN413079Multiplexer serial number:	ORYXHardware model number:	OX4-SRSoftware version number:	ORYX F/W v4.00 Oryx Data Collector v3.7.2.0data status	okinstallation	princeton_trtdifferential loss correction	single-endedforward channel	channel 4reverse channel	N/Adate	2019/09/10time	16:15:11forward acquisition time	60.00reverse acquisition time	0.00gamma	496.2192k internal	0.2294k external	0.2294temperature offset calibration	0.9933default loss term (dB/km)	0.3790temperature slope calibration	1.0000multiplexer offset coefficient	1.0000multiplexer slope coefficient	1.0000fibre end	0.00T internal ref (°C)	38.25T ext. ref 1 (°C)	-0.30T ext. ref 2 (°C)	31.38length (m)	temperature (°C)	Stokes	anti-Stokes-747.200	17.927	0.185	0.150
-746.185	-137.569	0.323	-0.037
-745.171	-30.663	0.076	0.044
-744.156	238.359	-0.102	0.173
-743.142	23.192	-0.168	0.141
-742.127	-62.038	0.202	0.086
-741.112	-165.312	-0.202	-0.009
-740.098	-138.602	0.245	0.027
-739.083	-27.193	0.236	0.141
-738.069	-187.073	-0.264	0.004
-737.054	-135.525	-0.195	0.024
-736.039	287.213	0.052	-0.096
-735.025	-66.252	-0.099	0.040
-734.010	-107.721	0.083	-0.019
-732.996	19.754	-0.181	-0.149
-731.981	800.000	0.069	-0.204
-730.966	800.000	0.033	-0.122
-729.952	422.958	-0.071	0.157
-728.937	-200.000	-0.035	-0.195
-727.923	-200.000	0.015	-0.154
-726.908	673.257	-0.057	-0.152
-725.894	15.891	-0.352	-0.284
-724.879	800.000	0.020	-0.062
-723.864	23.557	-0.120	0.101
-722.850	-165.494	-0.282	0.013
-721.835	-198.836	-0.236	-0.001
-720.821	800.000	-0.078	-0.261
-719.806	32.505	-0.144	-0.127
-718.791	-155.138	-0.553	-0.037
-717.777	-81.692	0.225	-0.076
-716.762	258.811	-0.078	-0.137
-715.748	-6.317	-0.179	-0.125
-714.733	-13.484	-0.277	0.184
-713.718	160.209	-0.162	0.231
-712.704	25.307	0.064	0.055
-711.689	-200.000	0.067	0.323
-710.675	-23.712	0.294	0.180
-709.660	103.034	-0.240	-0.287
-708.645	432.794	0.117	0.259
-707.631	175.001	-0.096	0.142
-706.616	14.605	-0.064	-0.051
-705.602	42.035	0.193	-0.179
-704.587	-55.520	0.159	0.073
-703.572	-145.941	-0.292	-0.026
-702.558	-35.921	0.280	-0.155
-701.543	-71.738	0.093	-0.036
-700.529	262.013	-0.148	0.262
-699.514	251.888	0.128	-0.223
-698.499	-21.763	-0.306	-0.190
-697.485	800.000	0.057	-0.222
-696.470	186.384	0.148	-0.224
-695.456	-101.233	0.524	0.131
-694.441	800.000	0.172	-0.510
-693.426	800.000	0.029	0.098
-692.412	-123.113	0.165	0.027
-691.397	-90.895	-0.272	0.080
-690.383	-34.159	0.283	0.159
-689.368	-94.624	0.157	-0.044
-688.354	-113.052	0.280	0.056
-687.339	104.402	-0.047	0.056
-686.324	-200.000	-0.010	0.130
-685.310	-134.730	0.270	0.034
-684.295	97.150	0.087	-0.102
-683.281	-28.137	-0.013	-0.008
-682.266	8.959	0.133	-0.103
-681.251	255.910	0.198	-0.346
-680.237	30.760	-0.149	0.130
-679.222	800.000	0.064	0.187
-678.208	-200.000	0.024	0.178
-677.193	43.865	-0.336	0.314
-676.178	-96.746	0.393	0.105
-675.164	-95.881	0.266	0.072
-674.149	4.867	-0.083	0.062
-673.135	-200.000	0.010	0.225
-672.120	-55.495	-0.198	-0.090
-671.105	216.745	-0.068	-0.110
-670.091	-200.000	-0.019	-0.109
-669.076	-61.957	-0.306	-0.130
-668.062	-11.263	-0.252	-0.169
-667.047	-200.000	-0.004	-0.153
-666.032	440.729	0.116	-0.259
-665.018	306.285	0.162	0.308
-664.003	-60.528	-0.115	-0.050
-662.989	-2.768	-0.107	-0.076
-661.974	-70.304	-0.148	-0.057
-660.959	-28.262	-0.238	-0.140
-659.945	-130.767	0.220	0.030
-658.930	24.438	0.221	0.186
-657.916	-200.000	-0.032	-0.143
-656.901	-190.144	-0.249	0.003
-655.886	-200.000	-0.015	0.163
-654.872	-148.321	-0.173	0.015
-653.857	-65.483	0.345	0.141
-652.843	-200.000	-0.016	0.459
-651.828	-29.807	0.337	-0.196
-650.814	251.850	0.058	-0.101
-649.799	259.615	-0.124	-0.218
-648.784	740.172	0.016	-0.044
-647.770	-99.892	0.270	0.069
-646.755	39.054	0.087	-0.079
-645.741	-85.939	-0.366	-0.115
-644.726	121.624	-0.167	0.213
-643.711	-197.403	0.367	0.002
-642.697	-200.000	0.001	-0.342
-641.682	119.735	-0.205	-0.259
-640.668	611.604	0.042	0.108
-639.653	-200.000	-0.101	-0.455
-638.638	-96.617	0.118	0.032
-637.624	-52.022	0.193	-0.091
-636.609	-66.107	0.123	-0.050
-635.595	-200.000	-0.032	-0.268
-634.580	-61.817	-0.112	0.048
-633.565	-49.689	-0.157	0.076
-632.551	403.767	-0.018	0.038
-631.536	800.000	0.130	-0.399
-630.522	8.975	-0.340	-0.261
-629.507	40.300	-0.123	-0.113
-628.492	-136.775	-0.446	-0.052
-627.478	-156.413	-0.121	0.008
-626.463	-4.204	0.093	-0.065
-625.449	300.344	-0.073	0.138
-624.434	278.789	0.146	0.266
-623.419	-111.212	0.211	-0.044
-622.405	41.395	-0.078	0.072
-621.390	-35.819	0.333	0.184
-620.376	104.440	-0.180	-0.216
-619.361	106.663	0.185	-0.223
-618.346	800.000	-0.052	-0.215
-617.332	-64.271	-0.097	0.040
-616.317	307.417	-0.106	-0.201
-615.303	800.000	-0.021	0.091
-614.288	38.757	-0.192	-0.175
-613.273	38.204	-0.030	0.027
-612.259	-200.000	0.033	0.195
-611.244	-200.000	0.004	0.052
-610.230	-49.305	-0.462	-0.224
-609.215	-27.374	0.310	0.183
-608.201	-86.287	-0.287	0.090
-607.186	-178.200	-0.098	0.002
-606.171	347.594	-0.050	0.100
-605.157	800.000	0.055	-0.234
-604.142	-71.891	0.219	-0.083
-603.128	-117.171	-0.240	0.044
-602.113	41.423	0.162	0.149
-601.098	381.423	-0.109	-0.227
-600.084	-96.039	-0.199	-0.054
-599.069	-26.526	0.321	0.191
-598.055	-200.000	0.031	-0.160
-597.040	159.285	-0.095	0.134
-596.025	-34.807	0.170	-0.095
-595.011	48.377	0.334	-0.318
-593.996	-7.471	0.169	0.116
-592.982	-63.237	0.191	0.080
-591.967	-51.950	-0.097	0.046
-590.952	274.717	0.120	0.215
-589.938	-140.291	0.233	-0.025
-588.923	-200.000	0.012	0.071
-587.909	208.193	0.167	-0.266
-586.894	-42.372	0.083	-0.043
-585.879	-16.001	0.265	0.172
-584.865	60.185	0.160	0.161
-583.850	-90.103	0.063	-0.019
-582.836	-200.000	-0.000	-0.072
-581.821	-119.148	-0.125	-0.022
-580.806	-200.000	0.002	-0.121
-579.792	-46.840	0.228	0.114
-578.777	477.170	0.119	-0.274
-577.763	-98.539	0.345	0.090
-576.748	-78.807	-0.499	-0.173
-575.733	36.541	-0.039	0.035
-574.719	-154.373	-0.020	-0.001
-573.704	-200.000	-0.001	0.010
-572.690	28.917	-0.022	-0.019
-571.675	-200.000	0.006	0.166
-570.661	674.035	-0.123	0.325
-569.646	-199.428	-0.251	-0.001
-568.631	187.241	-0.137	-0.207
-567.617	41.766	-0.127	0.117
-566.602	-200.000	0.046	0.280
-565.588	201.386	0.026	-0.041
-564.573	299.332	0.036	-0.067
-563.558	-17.772	-0.154	-0.098
-562.544	397.288	-0.078	-0.166
-561.529	71.606	-0.254	-0.268
-560.515	-200.000	0.053	-0.394
-559.500	185.243	0.026	0.039
-558.485	158.468	0.135	0.190
-557.471	-96.621	-0.243	-0.065
-556.456	141.639	0.065	0.088
-555.442	-17.790	0.182	-0.116
-554.427	-11.138	-0.093	-0.062
-553.412	423.147	0.149	-0.326
-552.398	-67.445	0.540	-0.215
-551.383	-73.973	-0.159	-0.058
-550.369	-200.000	0.052	-0.342
-549.354	284.416	0.093	-0.171
-548.339	-200.000	-0.027	0.139
-547.325	539.608	0.086	0.208
-546.310	-200.000	0.004	-0.451
-545.296	177.533	0.179	-0.265
-544.281	22.994	0.201	0.167
-543.266	800.000	-0.038	0.164
-542.252	501.956	-0.191	0.449
-541.237	153.023	-0.033	-0.046
-540.223	125.163	0.203	0.260
-539.208	194.476	0.168	0.259
-538.193	-99.537	-0.279	-0.071
-537.179	-11.668	-0.326	-0.217
-536.164	-108.500	0.209	-0.046
-535.150	-48.554	-0.097	-0.047
-534.135	-95.967	0.151	0.041
-533.121	800.000	-0.037	0.154
-532.106	387.725	-0.056	-0.117
-531.091	-118.061	0.215	0.039
-530.077	-200.000	-0.005	0.113
-529.062	800.000	-0.139	0.457
-528.048	-83.899	-0.279	-0.090
-527.033	200.287	0.086	-0.134
-526.018	-30.215	-0.156	0.090
-525.004	12.737	0.307	0.241
-523.989	-173.134	0.139	-0.004
-522.975	-59.249	-0.304	0.133
-521.960	-35.468	-0.287	-0.158
-520.945	607.053	0.093	0.234
-519.931	-139.043	-0.310	0.034
-518.916	177.355	-0.030	-0.044
-517.902	497.329	0.047	-0.111
-516.887	-200.000	0.011	0.112
-515.872	77.971	-0.119	0.129
-514.858	-100.836	-0.415	-0.104
-513.843	-162.174	-0.214	-0.011
-512.829	48.996	-0.408	-0.389
-511.814	-200.000	-0.020	-0.317
-510.799	-200.000	-0.010	0.048
-509.785	312.419	-0.054	0.103
-508.770	35.903	-0.330	-0.295
-507.756	-92.505	0.193	0.055
-506.741	-31.194	-0.015	0.008
-505.726	6.297	0.233	0.175
-504.712	-0.618	-0.267	-0.192
-503.697	-57.462	0.133	0.059
-502.683	107.824	0.069	-0.083
-501.668	214.095	-0.156	-0.250
-500.653	83.496	0.149	-0.165
-499.639	342.145	-0.150	0.298
-498.624	-200.000	0.135	-0.664
-497.610	75.975	0.319	-0.342
-496.595	-13.822	0.174	-0.114
-495.581	-190.843	-0.094	0.001
-494.566	73.684	-0.107	0.113
-493.551	557.673	0.101	-0.248
-492.537	-52.036	-0.095	0.045
-491.522	20.932	-0.149	-0.122
-490.508	-10.176	-0.365	-0.245
-489.493	25.639	-0.314	0.265
-488.478	-84.005	0.256	0.082
-487.464	84.106	-0.134	0.148
-486.449	-200.000	0.005	0.115
-485.435	-200.000	0.007	0.336
-484.420	-122.464	-0.154	-0.025
-483.405	-48.229	-0.189	-0.092
-482.391	289.508	0.169	-0.310
-481.376	242.728	0.197	0.335
-480.362	-200.000	-0.015	0.132
-479.347	-176.995	0.238	0.006
-478.332	134.188	0.173	-0.228
-477.318	32.190	-0.056	0.049
-476.303	-38.939	-0.268	0.143
-475.289	-173.142	0.214	0.007
-474.274	321.940	0.067	-0.129
-473.259	155.822	-0.082	-0.114
-472.245	88.081	0.343	0.385
-471.230	800.000	0.086	0.283
-470.216	-200.000	0.060	0.286
-469.201	800.000	-0.057	0.190
-468.186	12.704	-0.089	0.070
-467.172	-200.000	0.002	0.039
-466.157	-87.644	0.385	0.118
-465.143	-200.000	-0.014	0.256
-464.128	549.228	0.083	-0.202
-463.113	-116.343	0.126	0.024
-462.099	-200.000	0.024	-0.294
-461.084	59.075	-0.016	-0.016
-460.070	136.127	0.237	0.313
-459.055	-116.476	-0.362	0.068
-458.040	42.026	-0.186	-0.170
-457.026	7.255	-0.121	-0.092
-456.011	800.000	0.108	0.316
-454.997	-94.052	-0.084	0.023
-453.982	-70.405	0.113	0.043
-452.968	-102.309	-0.154	0.037
-451.953	-200.000	-0.033	0.338
-450.938	-140.159	0.182	-0.019
-449.924	730.480	-0.118	-0.318
-448.909	67.010	0.254	0.261
-447.895	-68.081	-0.107	0.042
-446.880	118.897	0.072	0.090
-445.865	-110.158	-0.109	0.023
-444.851	-44.432	-0.220	-0.111
-443.836	-164.028	-0.445	0.021
-442.822	-44.205	-0.063	0.032
-441.807	-142.643	-0.126	0.012
-440.792	-9.749	-0.092	0.062
-439.778	205.796	0.121	0.190
-438.763	-147.291	-0.157	-0.014
-437.749	-114.943	0.082	0.016
-436.734	709.600	-0.042	-0.112
-435.719	40.320	-0.258	0.235
-434.705	800.000	0.119	0.439
-433.690	-200.000	0.068	-0.364
-432.676	-123.219	0.260	-0.042
-431.661	-133.836	0.248	0.031
-430.646	298.673	-0.055	-0.102
-429.632	334.770	-0.095	-0.186
-428.617	107.368	-0.274	-0.329
-427.603	-105.485	0.109	0.025
-426.588	-169.853	0.103	-0.004
-425.573	574.993	-0.114	0.282
-424.559	-8.114	0.031	0.021
-423.544	-86.311	0.214	-0.066
-422.530	-97.969	-0.343	-0.089
-421.515	-200.000	0.032	-0.145
-420.500	-162.220	0.193	0.010
-419.486	-200.000	-0.076	0.394
-418.471	-86.160	0.067	0.021
-417.457	-173.492	-0.229	-0.007
-416.442	355.067	0.155	-0.311
-415.428	-61.654	0.254	0.108
-414.413	41.134	-0.152	0.139
-413.398	134.035	-0.177	0.231
-412.384	29.200	0.395	0.338
-411.369	-83.425	0.298	-0.096
-410.355	-13.193	-0.136	0.089
-409.340	42.253	0.161	0.148
-408.325	-200.000	0.011	-0.102
-407.311	-34.014	-0.126	0.070
-406.296	226.303	0.138	0.226
-405.282	-93.173	0.154	-0.043
-404.267	268.456	0.199	-0.353
-403.252	-54.962	0.183	-0.083
-402.238	-53.381	-0.308	0.142
-401.223	-53.798	-0.181	-0.083
-400.209	-107.235	0.124	0.028
-399.194	800.000	-0.062	0.234
-398.179	-72.500	0.158	0.059
-397.165	-200.000	0.026	0.283
-396.150	-15.720	0.084	-0.054
-395.136	-200.000	0.010	0.325
-394.121	111.430	-0.125	0.153
-393.106	-105.106	0.233	-0.054
-392.092	-31.555	-0.111	0.063
-391.077	114.985	0.050	0.062
-390.063	-153.139	0.062	0.004
-389.048	-28.554	0.163	0.095
-388.033	-136.652	-0.304	0.035
-387.019	86.114	-0.085	-0.094
-386.004	-200.000	-0.005	-0.156
-384.990	252.286	0.038	-0.066
-383.975	449.167	-0.090	-0.201
-382.960	-136.673	-0.274	-0.032
-381.946	800.000	0.031	0.099
-380.931	-200.000	-0.002	-0.215
-379.917	14.408	-0.205	-0.161
-378.902	-66.482	-0.113	0.045
-377.888	221.437	0.088	-0.142
-376.873	8.429	-0.029	0.022
-375.858	288.356	0.132	-0.241
-374.844	-78.849	-0.271	-0.093
-373.829	-64.461	0.395	0.162
-372.815	-52.925	0.054	-0.025
-371.800	82.061	0.081	0.088
-370.785	800.000	0.028	-0.106
-369.771	347.297	0.082	-0.163
-368.756	-200.000	0.029	-0.196
-367.742	101.723	-0.089	-0.105
-366.727	247.317	-0.022	-0.038
-365.712	-70.371	0.227	0.087
-364.698	187.528	-0.148	-0.223
-363.683	-41.352	-0.310	0.161
-362.669	-200.000	-0.026	0.130
-361.654	40.211	0.174	-0.158
-360.639	-19.616	0.249	0.155
-359.625	-62.285	0.034	0.014
-358.610	39.302	0.026	-0.023
-357.596	800.000	-0.032	0.100
-356.581	-200.000	0.063	-0.357
-355.566	289.688	-0.245	-0.447
-354.552	800.000	-0.055	-0.234
-353.537	-135.631	0.184	0.022
-352.523	-58.543	0.428	0.187
-351.508	240.813	0.036	-0.060
-350.493	185.233	0.122	0.183
-349.479	-200.000	0.020	-0.393
-348.464	800.000	-0.041	-0.167
-347.450	284.886	0.124	-0.225
-346.435	-200.000	0.045	0.339
-345.420	7.008	0.111	-0.083
-344.406	-200.000	-0.046	0.203
-343.391	-200.000	0.025	0.257
-342.377	-28.949	0.119	0.069
-341.362	126.687	0.037	-0.047
-340.348	38.287	-0.185	-0.166
-339.333	-42.514	-0.231	-0.119
-338.318	128.429	-0.258	0.331
-337.304	-97.380	0.225	-0.059
-336.289	-200.000	-0.048	0.409
-335.275	-132.291	0.362	0.047
-334.260	73.296	0.380	0.400
-333.245	-20.353	-0.350	0.217
-332.231	-12.462	0.323	0.212
-331.216	440.729	-0.123	0.271
-330.202	800.000	0.040	0.168
-329.187	686.112	0.105	0.276
-328.172	-171.716	0.560	0.019
-327.158	88.441	-0.327	0.366
-326.143	-97.821	-0.121	-0.032
-325.129	180.755	-0.164	-0.242
-324.114	-186.145	0.282	0.004
-323.099	-71.241	-0.291	-0.110
-322.085	55.067	-0.168	0.164
-321.070	-89.780	-0.323	-0.095
-320.056	476.066	0.035	-0.079
-319.041	11.527	0.151	0.116
-318.026	-200.000	0.016	0.210
-317.012	-81.015	-0.211	-0.070
-315.997	-109.214	0.113	0.024
-314.983	-193.989	-0.192	0.002
-313.968	800.000	0.120	0.333
-312.953	19.272	0.174	0.140
-311.939	800.000	0.085	-0.280
-310.924	-60.532	0.273	-0.117
-309.910	-200.000	0.175	0.001
-308.895	95.010	0.118	-0.135
-307.880	-90.918	0.086	0.025
-306.866	-65.950	0.215	0.087
-305.851	800.000	-0.108	-0.346
-304.837	-200.000	-0.045	-0.325
-303.822	11.562	0.509	0.392
-302.807	-148.817	-0.213	-0.017
-301.793	97.477	0.188	-0.217
-300.778	-81.979	-0.179	0.059
-299.764	-200.000	-0.025	-0.297
-298.749	34.415	-0.043	0.038
-297.735	-200.000	0.022	0.263
-296.720	314.945	-0.095	0.179
-295.705	800.000	-0.070	-0.202
-294.691	-92.424	0.035	0.010
-293.676	-2.209	0.080	-0.056
-292.662	13.918	-0.230	-0.180
-291.647	226.231	0.047	0.077
-290.632	-93.772	0.308	-0.085
-289.618	125.210	-0.130	-0.164
-288.603	-27.751	-0.184	0.107
-287.589	-200.000	-0.030	0.204
-286.574	-96.020	0.136	-0.036
-285.559	-200.000	-0.046	0.298
-284.545	-23.391	0.320	-0.193
-283.530	-200.000	0.012	0.060
-282.516	-200.000	0.018	0.170
-281.501	10.573	-0.082	0.063
-280.486	-94.869	-0.131	-0.036
-279.472	800.000	0.048	-0.201
-278.457	599.241	0.150	0.373
-277.443	5.926	0.089	0.066
-276.428	-68.244	-0.026	0.010
-275.413	-31.388	0.254	-0.143
-274.399	99.887	-0.062	0.072
-273.384	74.358	0.209	0.221
-272.370	162.916	-0.223	0.315
-271.355	-39.516	0.074	-0.039
-270.340	-124.787	0.454	-0.070
-269.326	35.608	0.246	-0.217
-268.311	-171.807	-0.321	-0.011
-267.297	-174.688	-0.026	0.001
-266.282	-134.568	-0.399	0.049
-265.267	350.141	-0.339	-0.673
-264.253	145.964	0.160	-0.216
-263.238	-50.082	0.358	0.170
-262.224	-200.000	-0.096	-0.467
-261.209	-200.000	-0.090	-0.398
-260.195	23.608	-0.297	0.246
-259.180	192.430	-0.220	0.334
-258.165	-200.000	0.033	-0.242
-257.151	662.126	0.047	0.122
-256.136	74.308	0.182	0.192
-255.122	-85.042	-0.146	-0.046
-254.107	31.407	0.179	0.154
-253.092	-72.402	-0.055	0.020
-252.078	-0.295	0.266	0.190
-251.063	-68.565	-0.231	-0.090
-250.049	234.830	0.118	-0.195
-249.034	63.044	0.123	0.124
-248.019	71.319	0.289	0.300
-247.005	-181.970	-0.319	0.006
-245.990	67.271	0.070	-0.072
-244.976	6.770	0.243	-0.181
-243.961	30.284	0.191	0.163
-242.946	-101.283	-0.225	-0.055
-241.932	-200.000	-0.002	-0.044
-240.917	-113.861	-0.135	-0.026
-239.903	7.022	-0.184	0.137
-238.888	-150.131	0.179	0.014
-237.873	-200.000	-0.056	0.546
-236.859	-99.479	0.157	-0.040
-235.844	-47.526	0.138	-0.067
-234.830	-91.808	-0.202	-0.058
-233.815	112.377	-0.295	-0.358
-232.800	-200.000	0.005	0.313
-231.786	-26.220	-0.114	0.067
-230.771	-98.695	-0.237	-0.060
-229.757	57.208	0.219	0.214
-228.742	-51.738	-0.173	0.081
-227.727	800.000	0.012	-0.043
-226.713	-22.718	0.219	0.133
-225.698	-7.704	0.130	0.088
-224.684	800.000	0.030	0.125
-223.669	219.017	0.077	0.123
-222.655	11.159	-0.227	-0.174
-221.640	-49.622	-0.106	0.051
-220.625	-80.093	-0.611	-0.205
-219.611	-1.438	-0.216	-0.153
-218.596	-200.000	0.035	-0.163
-217.582	139.470	0.194	0.255
-216.567	315.023	-0.001	-0.002
-215.552	105.881	-0.118	0.140
-214.538	40.470	0.052	0.047
-213.523	800.000	0.066	0.215
-212.509	-143.971	0.236	0.022
-211.494	65.888	0.052	0.053
-210.479	-49.470	0.214	0.102
-209.465	-95.434	0.090	0.024
-208.450	800.000	0.145	-0.521
-207.436	-37.187	-0.358	0.192
-206.421	-94.239	0.216	-0.059
-205.406	50.161	-0.151	-0.143
-204.392	191.225	-0.211	0.318
-203.377	453.959	-0.096	0.212
-202.363	-117.161	0.079	-0.014
-201.348	-110.798	-0.075	-0.015
-200.333	121.547	-0.215	-0.269
-199.319	171.002	-0.091	-0.131
-198.304	37.728	-0.307	-0.273
-197.290	90.585	0.078	0.087
-196.275	-200.000	0.007	0.114
-195.260	800.000	0.031	0.135
-194.246	-200.000	-0.009	-0.234
-193.231	-197.913	-0.128	-0.001
-192.217	508.930	0.157	-0.365
-191.202	235.725	0.156	-0.258
-190.187	701.748	0.101	0.266
-189.173	-103.617	-0.187	0.044
-188.158	-200.000	0.035	-0.280
-187.144	246.076	-0.144	0.243
-186.129	75.491	-0.219	0.231
-185.114	-32.037	-0.225	0.126
-184.100	1.576	-0.114	0.082
-183.085	-101.623	0.165	-0.040
-182.071	756.343	0.059	0.160
-181.056	82.399	-0.256	0.278
-180.042	-10.494	-0.236	0.156
-179.027	-44.480	-0.105	-0.052
-178.012	-4.270	-0.320	0.222
-176.998	-36.634	-0.093	-0.050
-175.983	-41.030	-0.120	-0.062
-174.969	-125.485	0.212	-0.032
-173.954	800.000	0.045	-0.158
-172.939	179.394	-0.252	-0.369
-171.925	-20.551	0.274	0.169
-170.910	-60.078	0.471	-0.201
-169.896	-98.275	0.139	0.036
-168.881	-52.851	-0.238	-0.110
-167.866	-119.225	0.223	-0.039
-166.852	290.082	0.079	-0.144
-165.837	-72.493	0.109	0.040
-164.823	-200.000	0.040	0.175
-163.808	-200.000	0.003	-0.027
-162.793	272.331	0.230	0.405
-161.779	-22.662	0.094	-0.057
-160.764	800.000	0.081	-0.309
-159.750	-95.354	-0.344	-0.092
-158.735	-105.288	0.072	0.016
-157.720	127.354	-0.016	-0.020
-156.706	-52.792	0.264	-0.122
-155.691	-200.000	0.006	0.349
-154.677	215.111	-0.284	-0.451
-153.662	-8.853	-0.051	-0.034
-152.647	441.009	0.080	0.175
-151.633	-102.889	-0.174	-0.041
-150.618	41.196	0.132	-0.119
-149.604	-149.914	-0.042	0.003
-148.589	540.391	-0.128	-0.305
-147.574	-42.447	-0.134	0.068
-146.560	187.014	-0.108	-0.160
-145.545	800.000	-0.090	-0.384
-144.531	787.558	0.072	-0.196
-143.516	419.872	-0.130	-0.279
-142.502	417.735	0.015	0.031
-141.487	-60.776	0.594	0.251
-140.472	-96.518	-0.218	0.057
-139.458	-178.789	0.124	-0.003
-138.443	265.187	-0.028	0.048
-137.429	-160.293	0.105	0.006
-136.414	104.496	0.149	0.175
-135.399	69.111	-0.118	-0.121
-134.385	800.000	-0.066	0.234
-133.370	207.098	0.093	0.145
-132.356	-19.130	-0.148	0.092
-131.341	-48.525	-0.158	-0.076
-130.326	-200.000	0.067	-0.337
-129.312	-126.682	-0.199	0.029
-128.297	3.749	-0.214	0.156
-127.283	800.000	0.114	-0.315
-126.268	116.700	0.358	-0.439
-125.253	742.929	-0.018	-0.048
-124.239	252.774	0.078	0.133
-123.224	359.296	-0.059	-0.117
-122.210	-61.230	0.095	-0.040
-121.195	463.603	0.130	0.290
-120.180	-121.739	-0.246	-0.041
-119.166	-200.000	0.016	0.112
-118.151	75.477	0.169	-0.178
-117.137	293.502	0.154	-0.281
-116.122	12.512	-0.297	0.228
-115.107	800.000	-0.020	-0.056
-114.093	-142.713	-0.237	0.023
-113.078	-162.003	0.389	0.020
-112.064	-78.763	0.209	0.071
-111.049	-200.000	0.010	0.244
-110.034	281.882	-0.236	0.422
-109.020	800.000	-0.047	0.147
-108.005	-200.000	0.016	0.118
-106.991	-110.778	-0.474	-0.098
-105.976	-26.869	-0.163	-0.095
-104.962	171.249	0.082	0.118
-103.947	800.000	0.034	0.114
-102.932	144.191	-0.088	-0.118
-101.918	-179.865	0.181	-0.004
-100.903	-30.829	0.251	-0.141
-99.889	-200.000	0.011	0.064
-98.874	-91.306	0.243	-0.069
-97.859	238.892	-0.103	0.170
-96.845	-17.410	-0.225	-0.141
-95.830	108.048	-0.289	0.344
-94.816	-47.120	-0.097	-0.047
-93.801	49.686	-0.067	-0.063
-92.786	-51.413	-0.065	-0.030
-91.772	-67.751	0.115	0.045
-90.757	-70.760	-0.208	-0.078
-89.743	529.469	-0.186	-0.437
-88.728	-161.150	0.131	-0.007
-87.713	800.000	-0.069	0.220
-86.699	800.000	-0.100	0.378
-85.684	18.683	-0.121	0.096
-84.670	614.620	-0.058	-0.145
-83.655	800.000	-0.057	-0.166
-82.640	-28.745	-0.193	-0.111
-81.626	800.000	0.033	0.142
-80.611	6.508	0.174	0.129
-79.597	-123.079	0.091	0.014
-78.582	32.104	-0.209	-0.180
-77.567	632.897	0.033	0.084
-76.553	-145.751	-0.174	-0.015
-75.538	44.606	-0.116	0.106
-74.524	86.104	0.067	0.074
-73.509	636.208	-0.067	-0.170
-72.494	-200.000	-0.046	0.302
-71.480	-62.125	-0.179	-0.074
-70.465	-200.000	-0.047	-0.281
-69.451	-122.960	0.217	0.035
-68.436	527.428	-0.116	0.273
-67.422	202.900	0.123	0.189
-66.407	248.523	0.060	-0.100
-65.392	35.462	0.033	-0.029
-64.378	120.962	0.114	-0.141
-63.363	-102.239	-0.161	0.039
-62.349	293.313	-0.099	0.181
-61.334	-0.084	-0.997	-0.707
-60.319	-200.000	0.008	0.591
-59.305	-200.000	0.059	-0.524
-58.290	230.152	0.496	0.808
-57.276	411.506	0.804	1.699
-56.261	-200.000	83.249	502.960
-55.246	556.240	1380.612	3310.969
-54.232	175.814	2645.759	3821.610
-53.217	112.384	2425.327	2920.633
-52.203	44.858	2161.470	1980.362
-51.188	39.935	2067.311	1848.113
-50.173	38.301	2047.339	1815.030
-49.159	50.781	2089.191	1969.304
-48.144	54.305	2107.962	2019.941
-47.130	40.811	2071.771	1860.011
-46.115	38.287	2060.498	1826.275
-45.100	38.186	2057.846	1822.909
-44.086	38.297	2055.666	1821.940
-43.071	38.131	2053.405	1818.316
-42.057	38.110	2050.910	1815.841
-41.042	38.139	2048.959	1814.308
-40.027	38.147	2047.459	1812.983
-39.013	38.138	2045.293	1810.913
-37.998	38.222	2043.161	1809.727
-36.984	38.207	2041.117	1807.709
-35.969	38.211	2039.511	1806.253
-34.954	38.242	2037.454	1804.647
-33.940	38.153	2036.828	1803.198
-32.925	38.205	2034.355	1801.419
-31.911	38.313	2032.455	1800.654
-30.896	38.307	2030.654	1798.933
-29.881	38.288	2029.376	1797.554
-28.867	38.266	2027.589	1795.694
-27.852	38.341	2025.364	1794.345
-26.838	38.268	2023.799	1792.219
-25.823	38.283	2022.084	1790.765
-24.809	38.320	2019.979	1789.171
-23.794	38.308	2018.157	1787.371
-22.779	38.220	2016.724	1785.226
-21.765	38.328	2014.296	1783.992
-20.750	38.200	2013.526	1782.079
-19.736	38.230	2011.713	1780.674
-18.721	38.275	2009.751	1779.279
-17.706	38.208	2008.556	1777.538
-16.692	38.231	2006.005	1775.422
-15.677	38.250	2004.830	1774.482
-14.663	38.232	2003.162	1772.769
-13.648	38.302	2001.997	1772.303
-12.633	38.319	2000.731	1771.263
-11.619	38.291	1999.741	1770.064
-10.604	38.291	1997.782	1768.258
-9.590	38.184	1996.769	1766.331
-8.575	38.295	1995.591	1766.215
-7.560	38.251	1993.721	1764.095
-6.546	38.316	1992.029	1763.119
-5.531	38.265	1991.177	1761.829
-4.517	38.248	1990.364	1760.893
-3.502	38.317	1988.385	1759.692
-2.487	38.274	1987.409	1758.367
-1.473	38.254	1986.326	1757.164
-0.458	38.379	1981.307	1753.771
0.556	35.709	1961.388	1726.502
1.571	31.461	1940.875	1670.445
2.586	27.002	1962.768	1648.756
3.600	25.712	2000.457	1668.322
4.615	25.258	1998.383	1662.237
5.629	20.765	1895.967	1537.331
6.644	9.044	1763.273	1332.795
7.659	0.733	1714.924	1228.783
8.673	-0.121	1709.854	1218.117
9.688	-0.242	1708.518	1216.081
10.702	-0.392	1706.871	1213.587
11.717	-0.455	1704.080	1210.985
12.731	0.071	1704.235	1215.236
13.746	7.740	1723.669	1291.463
14.761	15.667	1740.280	1368.567
15.775	15.032	1735.630	1359.634
16.790	13.147	1730.394	1340.130
17.804	13.035	1728.996	1338.019
18.819	12.977	1727.800	1336.507
19.834	13.058	1727.518	1336.832
20.848	13.214	1726.913	1337.502
21.863	13.164	1725.548	1335.921
22.877	13.132	1724.672	1334.867
23.892	13.208	1723.455	1334.425
24.907	13.199	1722.894	1333.796
25.921	13.106	1721.852	1332.125
26.936	13.153	1720.973	1331.705
27.950	13.165	1719.930	1330.876
28.965	13.125	1719.667	1330.234
29.980	13.168	1718.263	1329.371
30.994	13.144	1717.041	1328.118
32.009	13.180	1714.923	1326.652
33.023	13.184	1713.707	1325.628
34.038	13.172	1712.891	1324.781
35.053	13.195	1711.697	1323.924
36.067	13.153	1710.535	1322.570
37.082	13.176	1709.603	1321.921
38.096	13.191	1708.485	1321.060
39.111	13.199	1706.961	1319.827
40.126	13.180	1705.900	1318.737
41.140	13.205	1705.233	1318.307
42.155	13.095	1704.442	1316.699
43.169	13.179	1702.766	1315.960
44.184	13.245	1701.375	1315.287
45.199	13.161	1700.208	1313.607
46.213	13.140	1699.475	1312.757
47.228	13.191	1697.618	1311.609
48.242	13.212	1696.167	1310.542
49.257	13.127	1695.463	1309.207
50.271	13.176	1693.642	1308.068
51.286	13.258	1692.116	1307.423
52.301	13.209	1690.835	1305.933
53.315	13.195	1689.077	1304.352
54.330	13.231	1687.515	1303.314
55.344	13.201	1686.586	1302.244
56.359	13.197	1684.543	1300.520
57.374	13.243	1683.160	1299.697
58.388	13.274	1681.608	1298.628
59.403	13.214	1680.764	1297.387
60.417	13.248	1679.451	1296.525
61.432	13.176	1678.006	1294.729
62.447	13.257	1676.524	1294.109
63.461	13.247	1675.586	1293.194
64.476	13.246	1674.568	1292.288
65.490	13.195	1672.909	1290.490
66.505	13.238	1671.536	1289.650
67.520	13.316	1670.248	1289.150
68.534	13.244	1669.319	1287.766
69.549	13.223	1668.447	1286.813
70.563	13.259	1666.300	1285.326
71.578	13.263	1664.827	1284.100
72.593	13.255	1663.781	1283.122
73.607	13.243	1662.958	1282.277
74.622	13.288	1661.097	1281.078
75.636	13.231	1660.509	1280.069
76.651	13.203	1659.546	1278.997
77.666	13.282	1658.695	1278.840
78.680	13.257	1657.211	1277.387
79.695	13.295	1656.418	1276.960
80.709	13.329	1654.803	1275.861
81.724	13.251	1653.552	1274.189
82.739	13.344	1652.705	1274.135
83.753	13.292	1651.158	1272.430
84.768	13.248	1650.289	1271.307
85.782	13.222	1649.366	1270.289
86.797	13.326	1647.747	1269.725
87.812	13.294	1646.719	1268.576
88.826	13.312	1645.478	1267.645
89.841	13.212	1644.151	1265.747
90.855	13.288	1642.558	1264.987
91.870	13.209	1641.723	1263.629
92.884	13.298	1640.416	1263.193
93.899	13.318	1638.803	1261.989
94.914	13.339	1637.558	1261.078
95.928	13.327	1636.007	1259.684
96.943	13.393	1634.275	1258.741
97.957	13.351	1632.891	1257.241
98.972	13.343	1631.198	1255.768
99.987	13.367	1629.766	1254.734
101.001	13.410	1627.771	1253.418
102.016	13.354	1625.589	1251.203
103.030	13.385	1623.923	1250.040
104.045	13.352	1622.724	1248.762
105.060	13.332	1620.553	1246.825
106.074	13.302	1619.654	1245.802
107.089	13.367	1617.848	1244.792
108.103	13.390	1616.426	1243.756
109.118	13.423	1614.965	1242.773
110.133	13.355	1613.204	1240.798
111.147	13.423	1611.076	1239.560
112.162	13.342	1609.849	1237.902
113.176	13.415	1608.397	1237.221
114.191	13.404	1606.281	1235.396
115.206	13.406	1604.948	1234.279
116.220	13.391	1603.508	1232.954
117.235	13.402	1601.765	1231.588
118.249	13.383	1600.687	1230.509
119.264	13.374	1599.123	1229.126
120.279	13.333	1597.824	1227.718
121.293	13.326	1595.979	1226.134
122.308	13.468	1593.788	1225.399
123.322	13.429	1591.756	1223.438
124.337	13.443	1590.482	1222.453
125.352	13.399	1588.920	1220.821
126.366	13.375	1587.317	1219.301
127.381	13.420	1586.366	1218.799
128.395	13.495	1584.931	1218.137
129.410	13.533	1583.040	1216.856
130.424	13.457	1581.280	1214.836
131.439	13.409	1580.117	1213.488
132.454	13.445	1578.193	1212.161
133.468	13.363	1576.984	1210.532
134.483	13.402	1575.361	1209.458
135.497	13.456	1573.417	1208.257
136.512	13.427	1571.854	1206.734
137.527	13.538	1570.515	1206.408
138.541	13.461	1569.579	1205.023
139.556	13.466	1567.423	1203.300
140.570	13.412	1566.616	1202.180
141.585	13.460	1564.738	1200.980
142.600	13.428	1562.815	1199.165
143.614	13.503	1561.420	1198.532
144.629	13.495	1560.399	1197.589
145.643	13.452	1557.998	1195.327
146.658	13.433	1557.103	1194.400
147.673	13.389	1555.833	1192.998
148.687	13.408	1554.042	1191.662
149.702	13.428	1552.399	1190.440
150.716	13.470	1550.944	1189.520
151.731	13.417	1549.726	1188.099
152.746	13.453	1548.399	1187.231
153.760	13.486	1546.910	1186.223
154.775	13.529	1545.043	1184.996
155.789	13.610	1543.691	1184.432
156.804	13.460	1542.702	1182.499
157.819	13.463	1540.878	1181.017
158.833	13.496	1539.860	1180.368
159.848	13.521	1538.725	1179.572
160.862	13.516	1537.056	1178.150
161.877	13.458	1535.924	1176.768
162.892	13.480	1534.907	1176.038
163.906	13.505	1533.625	1175.132
164.921	13.569	1531.765	1174.054
165.935	13.470	1531.101	1172.738
166.950	13.585	1529.910	1172.537
167.964	13.461	1528.792	1170.698
168.979	13.453	1527.807	1169.787
169.994	13.478	1526.281	1168.692
171.008	13.539	1525.170	1168.166
172.023	13.548	1524.331	1167.483
173.037	13.482	1523.626	1166.374
174.052	13.424	1521.978	1164.607
175.067	13.420	1521.321	1163.973
176.081	13.593	1519.396	1163.607
177.096	13.546	1518.023	1162.125
178.110	13.579	1517.302	1161.702
179.125	13.535	1516.049	1160.332
180.140	13.615	1514.506	1159.606
181.154	13.541	1514.041	1158.630
182.169	13.592	1512.823	1157.950
183.183	13.550	1511.242	1156.348
184.198	13.512	1510.226	1155.203
185.213	13.544	1509.468	1154.746
186.227	13.573	1508.410	1154.034
187.242	13.553	1507.161	1152.834
188.256	13.464	1506.745	1151.799
189.271	13.606	1504.909	1151.281
190.286	13.492	1504.271	1149.900
191.300	13.580	1502.844	1149.313
192.315	13.585	1502.251	1148.792
193.329	13.613	1501.339	1148.191
194.344	13.607	1499.966	1146.998
195.359	13.641	1498.785	1146.226
196.373	13.635	1498.285	1145.701
197.388	13.571	1496.749	1143.982
198.402	13.596	1495.507	1143.106
199.417	13.535	1494.206	1141.591
200.432	13.617	1493.350	1141.396
201.446	13.632	1492.687	1140.896
202.461	13.606	1491.405	1139.634
203.475	13.501	1490.856	1138.395
204.490	13.518	1489.910	1137.689
205.504	13.581	1488.809	1137.175
206.519	13.509	1487.476	1135.568
207.534	13.549	1486.513	1135.001
208.548	13.603	1485.067	1134.169
209.563	13.599	1484.355	1133.494
210.577	13.553	1483.489	1132.423
211.592	13.635	1482.108	1131.830
212.607	13.721	1481.151	1131.580
213.621	13.591	1481.004	1130.481
214.636	13.616	1480.048	1129.828
215.650	13.665	1478.846	1129.137
216.665	13.655	1478.132	1128.425
217.680	13.531	1477.472	1126.979
218.694	13.644	1476.303	1126.757
219.709	13.602	1475.926	1126.086
220.723	13.583	1474.807	1125.000
221.738	13.648	1473.523	1124.361
222.753	13.639	1472.543	1123.456
223.767	13.613	1471.605	1122.463
224.782	13.623	1470.305	1121.441
225.796	13.673	1469.705	1121.223
226.811	13.678	1468.711	1120.397
227.826	13.588	1467.956	1119.117
228.840	13.567	1467.265	1118.350
229.855	13.713	1465.885	1118.181
230.869	13.649	1465.425	1117.304
231.884	13.639	1464.151	1116.162
232.899	13.602	1463.428	1115.263
233.913	13.719	1461.802	1114.716
234.928	13.727	1460.724	1113.846
235.942	13.703	1459.616	1112.739
236.957	13.698	1458.569	1111.814
237.972	13.775	1457.575	1111.473
238.986	13.642	1456.464	1109.635
240.001	13.649	1455.515	1108.858
241.015	13.708	1454.610	1108.471
242.030	13.687	1453.459	1107.350
243.045	13.787	1452.420	1107.128
244.059	13.664	1451.715	1105.673
245.074	13.651	1450.683	1104.704
246.088	13.682	1450.350	1104.562
247.103	13.727	1449.496	1104.108
248.117	13.775	1448.202	1103.345
249.132	13.748	1447.721	1102.702
250.147	13.746	1446.421	1101.602
251.161	13.644	1446.445	1100.845
252.176	13.727	1445.897	1100.879
253.190	13.773	1444.680	1100.163
254.205	13.774	1443.705	1099.333
255.220	13.671	1442.582	1097.698
256.234	13.827	1441.543	1097.841
257.249	13.731	1441.091	1096.762
258.263	13.728	1440.351	1096.082
259.278	13.754	1439.138	1095.235
260.293	13.659	1438.306	1093.875
261.307	13.676	1437.310	1093.133
262.322	13.812	1436.521	1093.336
263.336	13.825	1436.009	1092.931
264.351	13.698	1434.868	1091.133
265.366	13.801	1433.549	1090.709
266.380	13.763	1432.874	1089.849
267.395	13.801	1431.613	1089.044
268.409	13.802	1430.941	1088.442
269.424	13.762	1429.948	1087.331
270.439	13.874	1428.989	1087.239
271.453	13.752	1427.840	1085.469
272.468	13.772	1426.899	1084.788
273.482	13.736	1426.720	1084.321
274.497	13.744	1425.829	1083.599
275.512	13.853	1424.463	1083.179
276.526	13.732	1424.285	1082.159
277.541	13.769	1423.162	1081.449
278.555	13.706	1422.156	1080.181
279.570	13.746	1421.188	1079.607
280.585	13.795	1420.168	1079.058
281.599	13.757	1419.547	1078.243
282.614	13.823	1418.498	1077.776
283.628	13.844	1417.060	1076.725
284.643	13.777	1416.197	1075.541
285.657	13.817	1415.148	1074.910
286.672	13.758	1414.487	1073.929
287.687	13.840	1413.290	1073.457
288.701	13.769	1412.431	1072.252
289.716	13.796	1411.491	1071.615
290.730	13.784	1410.945	1071.032
291.745	13.770	1409.704	1069.902
292.760	13.719	1408.829	1068.813
293.774	13.799	1407.284	1068.060
294.789	13.829	1406.593	1067.639
295.803	13.822	1405.708	1066.829
296.818	13.826	1404.672	1065.971
297.833	13.797	1404.121	1065.270
298.847	13.758	1403.309	1064.313
299.862	13.833	1401.699	1063.477
300.876	13.770	1401.137	1062.553
301.891	13.803	1400.164	1061.935
302.906	13.745	1399.088	1060.651
303.920	13.848	1398.109	1060.474
304.935	13.773	1397.942	1059.776
305.949	13.797	1396.647	1058.850
306.964	13.716	1395.928	1057.698
307.979	13.888	1394.587	1057.682
308.993	13.799	1393.834	1056.454
310.008	13.874	1392.811	1056.061
311.022	13.869	1392.133	1055.417
312.037	13.789	1390.750	1053.771
313.052	13.781	1390.427	1053.383
314.066	13.845	1389.063	1052.659
315.081	13.850	1388.070	1051.844
316.095	13.864	1387.060	1051.078
317.110	13.861	1386.261	1050.361
318.125	13.837	1385.224	1049.328
319.139	13.827	1384.273	1048.452
320.154	13.876	1383.319	1047.943
321.168	13.877	1382.186	1046.999
322.183	13.775	1381.119	1045.459
323.197	13.872	1380.438	1045.463
324.212	13.835	1379.234	1044.225
325.227	13.795	1378.806	1043.554
326.241	13.847	1377.907	1043.113
327.256	13.860	1376.879	1042.324
328.270	13.828	1376.058	1041.407
329.285	13.824	1375.242	1040.673
330.300	13.806	1374.263	1039.728
331.314	13.810	1373.295	1038.928
332.329	13.764	1372.449	1037.908
333.343	13.740	1371.753	1037.142
334.358	13.815	1370.955	1036.913
335.373	13.855	1369.934	1036.296
336.387	13.802	1368.916	1035.107
337.402	13.844	1367.850	1034.472
338.416	13.813	1367.375	1033.829
339.431	13.755	1367.284	1033.304
340.446	13.803	1366.363	1032.817
341.460	13.819	1365.313	1032.028
342.475	13.756	1364.353	1030.825
343.489	13.820	1363.489	1030.476
344.504	13.767	1362.082	1028.989
345.519	13.861	1361.029	1028.685
346.533	13.835	1360.347	1027.923
347.548	13.883	1359.116	1027.198
348.562	13.726	1358.696	1025.818
349.577	13.867	1357.833	1025.943
350.592	13.804	1356.976	1024.817
351.606	13.795	1356.107	1024.019
352.621	13.891	1354.702	1023.458
353.635	13.753	1354.216	1022.147
354.650	13.878	1353.053	1021.949
355.665	13.865	1351.651	1020.719
356.679	13.932	1350.406	1020.100
357.694	13.921	1349.272	1019.087
358.708	13.907	1348.158	1018.069
359.723	13.882	1346.832	1016.827
360.738	13.768	1346.487	1015.778
361.752	13.784	1345.508	1015.048
362.767	13.741	1344.524	1013.954
363.781	13.752	1343.593	1013.224
364.796	13.797	1342.851	1012.854
365.810	13.735	1342.386	1012.035
366.825	13.709	1341.593	1011.189
367.840	13.812	1340.267	1010.727
368.854	13.812	1339.179	1009.816
369.869	13.741	1338.688	1008.926
370.883	13.775	1338.304	1008.751
371.898	13.859	1337.339	1008.447
372.913	13.715	1337.268	1007.427
373.927	13.771	1335.941	1006.677
374.942	13.790	1335.161	1006.121
375.956	13.773	1334.197	1005.199
376.971	13.804	1333.201	1004.546
377.986	13.762	1332.322	1003.542
379.000	13.731	1331.680	1002.785
380.015	13.674	1330.996	1001.836
381.029	13.693	1330.269	1001.312
382.044	13.746	1329.290	1000.810
383.059	13.802	1328.238	1000.262
384.073	13.792	1327.281	999.396
385.088	13.766	1327.007	998.942
386.102	13.769	1325.811	997.976
387.117	13.735	1325.256	997.266
388.132	13.783	1324.560	996.940
389.146	13.703	1323.867	995.847
390.161	13.751	1323.043	995.430
391.175	13.819	1321.905	994.893
392.190	13.834	1321.113	994.296
393.205	13.776	1320.103	993.101
394.219	13.712	1319.097	991.875
395.234	13.806	1317.643	991.258
396.248	13.834	1316.440	990.429
397.263	13.685	1315.579	988.804
398.278	13.824	1313.771	988.189
399.292	13.700	1312.518	986.423
400.307	13.735	1311.724	985.947
401.321	13.671	1311.001	984.936
402.336	13.734	1309.624	984.187
403.350	13.809	1308.344	983.580
404.365	13.784	1307.901	983.013
405.380	13.705	1306.984	981.769
406.394	13.625	1305.932	980.421
407.409	13.670	1305.061	979.944
408.423	13.645	1304.365	979.184
409.438	13.774	1303.417	979.152
410.453	13.611	1302.740	977.594
411.467	13.637	1301.983	977.091
412.482	13.645	1301.047	976.348
413.496	13.753	1300.239	976.295
414.511	13.618	1299.901	975.157
415.526	13.646	1298.885	974.474
416.540	13.560	1298.123	973.314
417.555	13.577	1297.290	972.701
418.569	13.634	1296.326	972.228
419.584	13.655	1296.117	972.107
420.599	13.666	1295.178	971.379
421.613	134.453	1416.569	1773.852
422.628	130.395	1434.238	1773.967
