DTS Sentinel unit serial number:	SN413079Multiplexer serial number:	ORYXHardware model number:	OX4-SRSoftware version number:	ORYX F/W v4.00 Oryx Data Collector v3.7.2.0data status	okinstallation	princeton_trtdifferential loss correction	single-endedforward channel	channel 4reverse channel	N/Adate	2019/09/11time	14:15:11forward acquisition time	60.00reverse acquisition time	0.00gamma	496.2192k internal	0.2282k external	0.2282temperature offset calibration	1.0006default loss term (dB/km)	0.3790temperature slope calibration	1.0000multiplexer offset coefficient	1.0000multiplexer slope coefficient	1.0000fibre end	0.00T internal ref (°C)	41.94T ext. ref 1 (°C)	0.87T ext. ref 2 (°C)	37.81length (m)	temperature (°C)	Stokes	anti-Stokes-747.200	800.000	0.072	0.232
-746.185	461.632	0.105	0.240
-745.171	-200.000	0.028	-0.149
-744.156	-28.746	-0.147	-0.087
-743.142	479.460	0.060	0.140
-742.127	537.363	0.137	0.335
-741.112	365.765	-0.012	0.026
-740.098	-47.261	0.069	0.035
-739.083	-96.381	-0.273	-0.074
-738.069	101.110	0.107	0.128
-737.054	185.309	-0.142	-0.216
-736.039	198.400	-0.213	0.335
-735.025	-67.377	0.091	0.037
-734.010	115.514	-0.283	-0.356
-732.996	-124.055	-0.041	-0.007
-731.981	-72.535	-0.141	0.053
-730.966	-200.000	0.013	0.198
-729.952	-114.093	-0.335	-0.067
-728.937	252.115	-0.186	-0.325
-727.923	125.871	-0.094	-0.122
-726.908	-200.000	-0.037	0.387
-725.894	58.263	-0.180	0.182
-724.879	-200.000	-0.002	0.222
-723.864	-26.383	-0.087	-0.052
-722.850	-200.000	-0.014	0.240
-721.835	-0.779	-0.173	0.126
-720.821	36.298	-0.165	-0.149
-719.806	-200.000	-0.063	-0.315
-718.791	-47.605	0.154	0.077
-717.777	-65.098	0.246	-0.102
-716.762	427.729	-0.175	-0.387
-715.748	-102.366	0.137	-0.034
-714.733	8.133	0.060	-0.046
-713.718	-62.492	0.280	0.120
-712.704	92.300	0.247	-0.286
-711.689	800.000	0.100	-0.311
-710.675	-126.554	-0.417	0.064
-709.660	800.000	0.093	-0.336
-708.645	-12.899	0.022	-0.015
-707.631	-200.000	0.002	-0.071
-706.616	-2.841	-0.145	-0.104
-705.602	-37.962	-0.101	0.055
-704.587	-65.644	-0.178	0.073
-703.572	38.362	0.164	-0.150
-702.558	-200.000	0.033	0.221
-701.543	-106.208	-0.310	0.071
-700.529	715.017	0.043	0.116
-699.514	-37.291	-0.168	0.092
-698.499	-178.529	-0.102	-0.002
-697.485	800.000	-0.052	0.194
-696.470	-200.000	-0.006	0.031
-695.456	-143.544	0.280	-0.027
-694.441	-138.722	0.285	0.032
-693.426	67.477	-0.277	0.290
-692.412	11.897	-0.228	0.179
-691.397	-71.176	0.027	0.010
-690.383	-200.000	0.002	0.312
-689.368	31.614	-0.222	0.196
-688.354	-27.194	0.387	0.231
-687.339	211.707	-0.117	0.190
-686.324	-200.000	0.036	-0.300
-685.310	-130.558	0.251	0.035
-684.295	10.377	-0.091	0.071
-683.281	-140.827	0.037	-0.004
-682.266	65.705	-0.113	0.118
-681.251	-200.000	-0.001	0.356
-680.237	-200.000	-0.021	0.120
-679.222	-23.673	-0.093	-0.057
-678.208	359.297	0.036	0.074
-677.193	-80.413	-0.154	-0.053
-676.178	-192.239	-0.313	0.003
-675.164	164.876	-0.237	-0.343
-674.149	-200.000	0.051	0.282
-673.135	-126.886	0.009	-0.001
-672.120	-52.600	0.107	-0.051
-671.105	302.000	0.064	0.121
-670.091	800.000	0.076	-0.292
-669.076	-54.810	-0.169	0.078
-668.062	79.356	0.130	-0.143
-667.047	-53.535	0.422	0.198
-666.032	-111.179	-0.197	0.041
-665.018	-23.541	0.114	-0.070
-664.003	-74.865	-0.286	-0.105
-662.989	-57.533	-0.099	-0.045
-661.974	-200.000	-0.011	-0.104
-660.959	75.828	-0.151	0.163
-659.945	-142.376	-0.215	0.022
-658.930	-92.227	0.214	-0.062
-657.916	-200.000	0.017	-0.109
-656.901	-10.834	0.170	0.115
-655.886	-123.718	0.239	0.039
-654.872	309.055	-0.053	-0.102
-653.857	-200.000	-0.015	0.110
-652.843	-2.749	0.142	0.102
-651.828	800.000	0.033	-0.125
-650.814	-128.307	-0.105	0.015
-649.799	270.692	0.112	-0.201
-648.784	-104.010	0.189	0.045
-647.770	-67.859	-0.337	-0.135
-646.755	-58.251	0.234	0.104
-645.741	-72.775	0.170	0.064
-644.726	249.690	0.133	0.232
-643.711	545.045	0.115	-0.282
-642.697	41.473	0.198	-0.183
-641.682	30.636	0.154	-0.135
-640.668	-200.000	-0.041	-0.310
-639.653	800.000	-0.023	0.071
-638.638	39.509	-0.051	-0.046
-637.624	95.363	-0.212	-0.247
-636.609	800.000	0.032	-0.093
-635.595	-2.969	-0.219	0.156
-634.580	-200.000	-0.083	-0.508
-633.565	33.726	-0.285	0.254
-632.551	-66.922	-0.344	0.139
-631.536	334.273	-0.159	0.315
-630.522	197.333	-0.034	-0.054
-629.507	126.247	-0.131	-0.170
-628.492	-141.076	-0.226	-0.024
-627.478	-51.524	0.184	0.088
-626.463	-135.932	0.132	-0.016
-625.449	800.000	0.057	0.180
-624.434	-10.624	0.139	0.094
-623.419	29.538	-0.240	-0.209
-622.405	800.000	0.107	-0.409
-621.390	-59.252	0.246	0.108
-620.376	-1.357	0.091	0.065
-619.361	305.699	-0.064	-0.122
-618.346	66.492	0.216	0.224
-617.332	567.861	-0.018	0.046
-616.317	-200.000	-0.067	-0.386
-615.303	-168.279	-0.246	0.010
-614.288	208.004	0.177	-0.283
-613.273	99.208	-0.171	-0.202
-612.259	-151.357	0.413	-0.031
-611.244	800.000	0.057	0.184
-610.230	800.000	0.018	0.077
-609.215	-123.701	-0.447	-0.072
-608.201	800.000	-0.007	0.029
-607.186	-200.000	0.000	-0.233
-606.171	800.000	-0.025	0.089
-605.157	155.527	-0.118	0.165
-604.142	-86.222	-0.314	-0.099
-603.128	-200.000	0.058	0.277
-602.113	-200.000	-0.019	0.151
-601.098	135.004	0.148	-0.196
-600.084	-200.000	0.073	-0.384
-599.069	-171.764	0.157	0.005
-598.055	-164.798	-0.275	0.013
-597.040	800.000	0.097	-0.336
-596.025	-178.495	-0.409	0.010
-595.011	-200.000	0.068	0.395
-593.996	-15.551	0.316	0.206
-592.982	45.830	-0.324	0.306
-591.967	62.645	0.228	-0.233
-590.952	58.068	-0.241	-0.242
-589.938	480.064	-0.138	-0.319
-588.923	-200.000	0.045	-0.306
-587.909	800.000	0.111	-0.443
-586.894	-31.359	0.192	-0.110
-585.879	-200.000	0.009	-0.085
-584.865	700.610	0.060	-0.162
-583.850	103.538	0.054	-0.064
-582.836	-71.116	0.117	-0.045
-581.821	-200.000	-0.004	-0.146
-580.806	282.267	-0.003	0.005
-579.792	82.051	0.147	0.163
-578.777	12.618	0.259	0.204
-577.763	-176.430	0.356	-0.009
-576.748	208.059	0.145	-0.232
-575.733	277.836	0.076	0.138
-574.719	20.451	0.149	-0.123
-573.704	-200.000	0.009	0.085
-572.690	-200.000	-0.019	-0.184
-571.675	15.146	-0.351	-0.281
-570.661	-26.477	0.265	0.159
-569.646	194.080	-0.098	-0.151
-568.631	155.509	-0.077	-0.108
-567.617	15.746	-0.202	0.162
-566.602	-11.201	-0.089	0.060
-565.588	-77.211	-0.289	0.103
-564.573	3.092	-0.216	0.160
-563.558	422.221	0.168	-0.368
-562.544	-200.000	0.073	-0.366
-561.529	553.177	0.099	-0.242
-560.515	-200.000	0.003	0.148
-559.500	272.013	0.004	0.008
-558.485	-200.000	-0.006	-0.270
-557.471	-16.838	-0.131	-0.084
-556.456	34.333	-0.087	0.077
-555.442	-192.873	-0.247	0.002
-554.427	19.384	0.185	-0.152
-553.412	53.641	0.098	-0.096
-552.398	-90.773	-0.343	-0.101
-551.383	-79.134	0.363	-0.126
-550.369	-200.000	-0.035	0.165
-549.354	-155.714	0.019	0.001
-548.339	800.000	0.040	-0.122
-547.325	34.303	0.226	0.201
-546.310	-128.722	-0.149	0.021
-545.296	-200.000	-0.030	-0.252
-544.281	-166.389	0.154	0.007
-543.266	-200.000	0.012	0.257
-542.252	800.000	-0.070	-0.309
-541.237	-154.025	0.108	0.007
-540.223	-37.786	-0.162	0.088
-539.208	11.293	0.175	0.137
-538.193	-62.696	-0.195	0.083
-537.179	-158.249	-0.240	0.014
-536.164	800.000	0.065	-0.220
-535.150	-19.876	-0.132	-0.083
-534.135	-200.000	0.018	0.176
-533.121	-41.850	0.081	-0.042
-532.106	638.992	0.073	0.189
-531.091	519.995	-0.262	0.627
-530.077	-181.860	-0.119	0.002
-529.062	-200.000	-0.017	-0.209
-528.048	-101.860	-0.142	0.035
-527.033	800.000	0.056	0.239
-526.018	136.950	-0.113	0.151
-525.004	-78.143	-0.179	0.063
-523.989	-102.324	-0.315	0.077
-522.975	-200.000	0.236	0.000
-521.960	-200.000	0.011	-0.178
-520.945	-98.670	-0.601	0.156
-519.931	572.767	-0.094	0.234
-518.916	800.000	-0.091	-0.310
-517.902	-200.000	0.023	-0.259
-516.887	337.754	0.146	0.289
-515.872	-129.789	0.286	0.040
-514.858	-86.535	-0.051	0.016
-513.843	800.000	0.027	0.080
-512.829	800.000	-0.059	-0.181
-511.814	50.847	-0.049	-0.047
-510.799	587.483	-0.144	0.360
-509.785	-200.000	0.024	0.256
-508.770	364.248	-0.006	0.012
-507.756	177.507	-0.179	-0.266
-506.741	20.302	0.052	0.043
-505.726	-198.546	-0.119	0.001
-504.712	5.111	-0.189	0.142
-503.697	17.479	0.339	0.274
-502.683	-124.718	0.194	-0.031
-501.668	-8.325	-0.164	0.112
-500.653	34.037	0.047	-0.042
-499.639	129.965	0.071	0.093
-498.624	25.981	-0.306	-0.260
-497.610	-200.000	-0.006	-0.285
-496.595	-146.596	-0.113	0.010
-495.581	800.000	0.077	0.293
-494.566	0.249	0.234	0.170
-493.551	-200.000	-0.024	0.223
-492.537	800.000	0.056	0.179
-491.522	-200.000	0.030	0.316
-490.508	800.000	-0.027	0.108
-489.493	365.349	-0.102	-0.210
-488.478	-200.000	0.023	-0.108
-487.464	362.708	0.099	-0.202
-486.449	-200.000	0.027	-0.283
-485.435	16.211	0.172	-0.138
-484.420	-8.633	-0.191	0.130
-483.405	-198.616	-0.139	-0.001
-482.391	-200.000	0.048	-0.323
-481.376	545.201	-0.118	-0.287
-480.362	251.362	-0.138	0.238
-479.347	800.000	0.031	0.139
-478.332	358.629	0.141	0.286
-477.318	340.064	-0.097	0.192
-476.303	321.558	-0.100	-0.194
-475.289	800.000	-0.112	-0.391
-474.274	-45.097	-0.266	-0.135
-473.259	401.940	-0.154	-0.329
-472.245	800.000	-0.050	0.163
-471.230	290.417	0.116	0.215
-470.216	-127.058	0.066	0.010
-469.201	574.662	-0.092	-0.228
-468.186	122.851	0.194	0.247
-467.172	1.487	-0.295	-0.216
-466.157	-91.165	-0.226	0.066
-465.143	-50.296	0.271	-0.130
-464.128	444.710	0.032	0.071
-463.113	115.517	0.219	0.272
-462.099	283.683	-0.116	0.212
-461.084	-89.126	0.069	-0.021
-460.070	-37.727	-0.228	-0.124
-459.055	-200.000	-0.005	0.108
-458.040	-200.000	0.028	0.214
-457.026	-200.000	0.002	-0.011
-456.011	645.581	0.039	0.100
-454.997	177.873	0.240	0.355
-453.982	800.000	0.068	-0.240
-452.968	-100.430	-0.392	0.099
-451.953	800.000	-0.093	-0.262
-450.938	77.522	0.359	0.389
-449.924	800.000	0.119	-0.381
-448.909	-200.000	-0.024	0.227
-447.895	101.721	0.163	0.194
-446.880	-200.000	-0.012	-0.143
-445.865	-80.270	-0.264	-0.090
-444.851	20.108	-0.089	-0.073
-443.836	-161.261	-0.349	0.018
-442.822	-200.000	0.048	-0.284
-441.807	2.614	0.124	0.091
-440.792	71.930	-0.130	0.137
-439.778	-43.413	0.309	-0.159
-438.763	-200.000	0.010	-0.472
-437.749	-101.332	0.266	0.066
-436.734	622.460	0.156	0.400
-435.719	18.847	-0.214	-0.174
-434.705	-200.000	-0.028	0.538
-433.690	-183.497	0.426	-0.007
-432.676	2.013	-0.210	0.154
-431.661	33.795	-0.330	-0.291
-430.646	-200.000	0.048	-0.231
-429.632	-200.000	0.018	0.080
-428.617	181.396	-0.183	0.273
-427.603	14.751	-0.073	-0.058
-426.588	-123.811	0.238	0.038
-425.573	800.000	0.042	0.182
-424.559	-200.000	-0.011	0.198
-423.544	-179.772	0.315	-0.007
-422.530	-70.347	0.245	0.094
-421.515	-30.847	0.043	-0.025
-420.500	8.021	0.374	-0.285
-419.486	-200.000	-0.000	0.198
-418.471	-200.000	0.002	-0.182
-417.457	268.505	-0.088	0.156
-416.442	377.783	0.143	0.296
-415.428	-113.121	0.336	0.067
-414.413	-200.000	0.043	0.210
-413.398	322.217	0.053	0.102
-412.384	129.253	0.061	0.079
-411.369	-18.276	0.200	0.127
-410.355	9.570	-0.105	-0.081
-409.340	-200.000	0.143	0.000
-408.325	-116.116	-0.200	-0.038
-407.311	-195.181	-0.202	0.002
-406.296	162.653	-0.277	0.394
-405.282	-146.738	0.124	0.011
-404.267	-66.148	0.221	0.089
-403.252	800.000	-0.021	0.077
-402.238	554.810	0.094	-0.230
-401.223	-33.215	-0.104	-0.059
-400.209	-200.000	-0.022	0.336
-399.194	-79.482	-0.347	0.119
-398.179	-37.106	-0.141	-0.077
-397.165	-200.000	0.061	0.474
-396.150	5.954	0.076	0.057
-395.136	-124.611	-0.289	0.046
-394.121	-89.372	0.240	-0.072
-393.106	6.261	0.118	-0.089
-392.092	-65.950	-0.159	0.064
-391.077	290.196	0.049	0.091
-390.063	-17.127	0.270	-0.173
-389.048	-42.976	-0.068	-0.035
-388.033	-73.007	0.200	0.074
-387.019	-122.481	-0.354	0.058
-386.004	211.470	0.063	-0.100
-384.990	800.000	0.095	-0.308
-383.975	800.000	0.045	-0.176
-382.960	233.770	0.166	0.277
-381.946	-167.218	0.304	-0.012
-380.931	346.906	0.087	-0.173
-379.917	-97.410	-0.104	-0.027
-378.902	609.559	-0.124	0.314
-377.888	-8.055	-0.298	-0.204
-376.873	12.176	0.095	-0.074
-375.858	-200.000	0.049	0.350
-374.844	300.139	0.167	0.311
-373.829	-87.507	-0.131	0.040
-372.815	302.237	-0.086	-0.161
-371.800	-70.645	-0.111	-0.042
-370.785	-3.869	-0.302	-0.213
-369.771	-109.900	-0.163	0.035
-368.756	72.474	0.077	0.081
-367.742	-128.056	0.067	-0.010
-366.727	547.908	0.119	0.290
-365.712	181.228	0.173	0.258
-364.698	-60.598	0.072	0.031
-363.683	-200.000	0.015	-0.207
-362.669	-42.061	0.234	-0.121
-361.654	-200.000	-0.031	0.173
-360.639	375.218	0.078	0.161
-359.625	674.737	0.114	0.301
-358.610	-63.443	0.307	0.128
-357.596	-200.000	-0.013	-0.242
-356.581	-183.315	-0.297	-0.005
-355.566	8.583	-0.154	-0.117
-354.552	196.946	-0.092	0.142
-353.537	800.000	-0.090	-0.314
-352.523	-144.212	0.526	-0.050
-351.508	-69.427	0.325	-0.126
-350.493	117.004	0.222	0.275
-349.479	641.500	-0.100	0.259
-348.464	81.588	-0.095	-0.104
-347.450	-53.875	0.364	-0.168
-346.435	-115.956	-0.173	0.033
-345.420	-200.000	0.022	-0.500
-344.406	-60.780	-0.233	0.100
-343.391	-200.000	-0.013	0.069
-342.377	-200.000	-0.052	0.415
-341.362	82.869	0.070	0.077
-340.348	33.707	-0.063	-0.056
-339.333	800.000	0.133	-0.438
-338.318	-94.222	0.098	-0.027
-337.304	-87.281	-0.139	0.043
-336.289	107.673	-0.173	0.208
-335.275	-172.034	-0.250	-0.008
-334.260	-34.830	0.125	0.069
-333.245	173.366	0.153	-0.223
-332.231	137.561	-0.203	0.269
-331.216	-3.085	0.302	0.213
-330.202	241.347	-0.060	0.101
-329.187	-30.938	0.386	-0.220
-328.172	-33.510	-0.170	-0.095
-327.158	800.000	0.076	-0.279
-326.143	32.683	0.213	-0.186
-325.129	-15.831	0.251	-0.162
-324.114	-44.208	0.467	0.237
-323.099	-200.000	0.107	0.582
-322.085	205.406	-0.106	-0.167
-321.070	-122.602	-0.237	0.039
-320.056	213.537	-0.099	0.158
-319.041	-17.674	0.253	0.161
-318.026	-19.665	-0.024	-0.015
-317.012	800.000	-0.054	0.187
-315.997	-97.762	-0.167	-0.044
-314.983	40.652	-0.089	-0.081
-313.968	50.077	0.264	-0.252
-312.953	-19.330	-0.109	0.068
-311.939	-200.000	-0.018	-0.133
-310.924	-128.195	-0.281	0.041
-309.910	-200.000	-0.016	0.126
-308.895	800.000	0.063	-0.243
-307.880	-102.421	0.445	-0.108
-306.866	-151.912	-0.219	-0.016
-305.851	613.489	0.097	0.246
-304.837	342.895	-0.016	-0.031
-303.822	244.505	0.024	-0.042
-302.807	68.994	-0.162	0.168
-301.793	-200.000	0.031	-0.210
-300.778	-77.836	-0.098	0.034
-299.764	-16.436	0.273	-0.175
-298.749	-85.754	-0.267	-0.084
-297.735	-47.910	-0.287	-0.140
-296.720	-88.249	0.344	-0.104
-295.705	-67.007	-0.185	0.074
-294.691	229.930	-0.148	0.245
-293.676	800.000	0.017	-0.066
-292.662	-34.070	-0.170	-0.094
-291.647	-200.000	-0.012	0.248
-290.632	-159.231	-0.077	0.004
-289.618	297.151	0.047	-0.086
-288.603	96.319	0.176	-0.203
-287.589	-200.000	0.018	0.337
-286.574	800.000	0.122	0.367
-285.559	341.732	-0.063	-0.124
-284.545	-41.152	0.456	0.238
-283.530	-62.426	0.233	0.098
-282.516	-64.166	-0.324	-0.133
-281.501	-11.055	0.289	0.193
-280.486	171.297	0.094	-0.137
-279.472	-75.042	-0.100	-0.036
-278.457	-34.360	-0.126	0.070
-277.443	36.353	-0.083	0.074
-276.428	16.695	0.172	0.137
-275.413	58.286	0.110	-0.109
-274.399	-68.251	0.208	0.082
-273.384	152.183	-0.071	0.098
-272.370	-44.924	-0.225	0.113
-271.355	77.276	-0.147	-0.158
-270.340	-17.726	-0.136	0.086
-269.326	46.844	0.066	0.062
-268.311	96.442	-0.178	0.205
-267.297	-200.000	0.000	0.333
-266.282	-57.287	0.271	-0.120
-265.267	586.159	-0.160	-0.396
-264.253	800.000	0.063	-0.230
-263.238	-200.000	-0.012	-0.243
-262.224	343.747	0.033	-0.065
-261.209	166.513	0.104	-0.149
-260.195	19.265	-0.143	0.116
-259.180	61.395	0.113	0.113
-258.165	33.900	-0.103	0.091
-257.151	-200.000	-0.028	0.191
-256.136	-32.036	0.139	0.079
-255.122	800.000	0.056	-0.233
-254.107	-109.093	0.220	-0.047
-253.092	-200.000	-0.059	-0.455
-252.078	-14.622	0.070	-0.046
-251.063	800.000	0.060	0.182
-250.049	-200.000	-0.017	0.215
-249.034	-200.000	0.007	0.145
-248.019	112.822	-0.234	-0.286
-247.005	220.862	0.074	-0.119
-245.990	-200.000	0.002	0.152
-244.976	-76.163	-0.347	-0.124
-243.961	34.527	0.123	0.109
-242.946	204.542	0.133	-0.208
-241.932	137.708	0.040	0.053
-240.917	57.310	-0.205	-0.201
-239.903	12.681	-0.220	-0.171
-238.888	800.000	0.079	-0.225
-237.873	-153.103	0.243	-0.017
-236.859	118.905	-0.096	-0.119
-235.844	160.635	-0.050	0.071
-234.830	142.960	-0.181	0.242
-233.815	181.635	-0.233	-0.346
-232.800	282.203	-0.097	0.176
-231.786	81.969	-0.055	0.060
-230.771	-50.056	-0.049	0.023
-229.757	-35.186	0.059	-0.032
-228.742	-200.000	-0.010	-0.317
-227.727	-119.954	0.128	-0.022
-226.713	-200.000	-0.045	-0.203
-225.698	-145.386	-0.241	0.022
-224.684	197.200	0.091	0.139
-223.669	249.867	0.142	-0.243
-222.655	798.732	-0.069	-0.190
-221.640	-8.382	-0.107	0.072
-220.625	76.484	0.180	-0.193
-219.611	-48.132	0.275	-0.134
-218.596	683.881	-0.123	0.324
-217.582	309.832	0.128	-0.240
-216.567	27.224	0.044	-0.037
-215.552	-162.238	0.249	0.013
-214.538	-145.739	0.364	-0.033
-213.523	-200.000	0.023	0.243
-212.509	-154.466	-0.440	0.030
-211.494	83.479	-0.190	0.208
-210.479	-186.074	0.156	-0.002
-209.465	-200.000	0.009	0.047
-208.450	-200.000	0.011	0.051
-207.436	109.737	-0.089	-0.108
-206.421	-31.055	0.038	-0.022
-205.406	-200.000	0.021	-0.222
-204.392	140.532	-0.131	-0.174
-203.377	194.931	0.139	-0.212
-202.363	117.935	0.155	-0.192
-201.348	-24.421	0.109	-0.065
-200.333	800.000	-0.041	-0.120
-199.319	-200.000	0.023	-0.178
-198.304	-139.125	0.127	-0.014
-197.290	-200.000	0.089	0.468
-196.275	-116.986	-0.118	0.022
-195.260	-96.774	0.108	0.029
-194.246	-18.871	0.088	0.055
-193.231	-58.665	-0.164	0.071
-192.217	-42.548	-0.420	-0.216
-191.202	-104.223	0.142	0.033
-190.187	81.723	-0.171	0.186
-189.173	-49.265	0.142	-0.068
-188.158	-137.295	-0.147	-0.017
-187.144	130.254	0.085	-0.109
-186.129	114.164	-0.017	0.021
-185.114	247.902	-0.082	0.139
-184.100	24.150	-0.408	0.339
-183.085	800.000	0.099	0.398
-182.071	800.000	0.115	-0.344
-181.056	39.679	-0.186	0.168
-180.042	-11.888	0.263	0.173
-179.027	-4.468	-0.187	0.130
-178.012	-19.335	-0.218	-0.136
-176.998	-80.881	-0.286	-0.095
-175.983	-200.000	0.003	0.149
-174.969	-104.864	-0.322	-0.074
-173.954	-72.138	0.341	-0.127
-172.939	82.584	0.085	0.092
-171.925	-76.397	0.129	0.046
-170.910	800.000	0.126	0.380
-169.896	-150.500	0.297	0.023
-168.881	322.583	0.019	0.036
-167.866	-200.000	-0.029	0.176
-166.852	800.000	0.087	-0.364
-165.837	-41.668	-0.206	0.106
-164.823	-200.000	0.007	-0.402
-163.808	-102.612	-0.151	0.036
-162.793	-128.368	0.198	0.028
-161.779	-121.161	0.118	0.020
-160.764	79.720	-0.112	-0.120
-159.750	800.000	-0.111	0.327
-158.735	-94.203	-0.362	0.099
-157.720	182.343	-0.150	0.222
-156.706	212.494	-0.115	-0.182
-155.691	-200.000	0.036	0.297
-154.677	50.814	-0.101	0.096
-153.662	-112.871	-0.279	0.056
-152.647	-44.975	0.215	-0.108
-151.633	38.956	0.287	-0.258
-150.618	151.281	-0.045	0.061
-149.604	-104.697	-0.559	0.129
-148.589	-200.000	-0.014	0.205
-147.574	-48.817	0.062	-0.030
-146.560	40.624	0.299	0.270
-145.545	-200.000	-0.005	-0.050
-144.531	800.000	0.071	0.255
-143.516	-148.534	-0.223	-0.018
-142.502	208.770	-0.204	-0.320
-141.487	-56.720	-0.252	0.112
-140.472	168.954	-0.094	0.134
-139.458	159.788	0.124	-0.174
-138.443	79.696	-0.191	-0.206
-137.429	40.735	-0.089	-0.081
-136.414	-200.000	-0.010	0.539
-135.399	-64.208	-0.270	0.111
-134.385	-200.000	-0.151	-0.000
-133.370	-171.614	-0.261	0.009
-132.356	-200.000	-0.002	-0.067
-131.341	39.763	0.366	0.330
-130.326	-77.012	0.182	0.064
-129.312	-55.254	-0.178	0.080
-128.297	137.341	-0.181	0.238
-127.283	800.000	-0.049	0.202
-126.268	282.824	0.065	0.118
-125.253	-200.000	-0.030	0.205
-124.239	-135.065	-0.198	0.024
-123.224	121.177	-0.062	-0.078
-122.210	-118.232	0.099	-0.018
-121.195	65.949	0.069	0.070
-120.180	-17.722	0.181	0.114
-119.166	-200.000	-0.024	0.471
-118.151	-72.526	0.310	0.115
-117.137	170.329	0.239	0.344
-116.122	-90.581	-0.090	0.026
-115.107	102.853	0.177	-0.208
-114.093	45.472	0.091	0.084
-113.078	-200.000	0.002	0.073
-112.064	263.905	-0.127	-0.222
-111.049	199.646	0.108	-0.167
-110.034	-130.712	0.168	-0.023
-109.020	17.269	0.214	-0.171
-108.005	-34.529	-0.159	0.087
-106.991	83.002	0.209	-0.228
-105.976	-70.889	0.197	0.074
-104.962	678.454	0.069	0.180
-103.947	-15.097	0.150	-0.096
-102.932	-23.688	-0.161	-0.097
-101.918	-19.835	0.420	0.260
-100.903	10.133	0.390	0.297
-99.889	63.570	-0.037	-0.037
-98.874	-200.000	-0.014	-0.207
-97.859	-200.000	-0.006	-0.055
-96.845	58.639	-0.135	0.133
-95.830	-37.244	-0.072	-0.039
-94.816	-63.905	0.053	0.022
-93.801	-39.480	0.520	0.273
-92.786	-200.000	-0.012	0.110
-91.772	800.000	-0.038	0.129
-90.757	88.733	-0.252	0.281
-89.743	314.056	0.105	0.198
-88.728	-200.000	0.013	-0.147
-87.713	-200.000	-0.097	0.615
-86.699	-200.000	0.055	0.368
-85.684	-35.914	0.201	0.109
-84.670	-200.000	-0.008	-0.197
-83.655	112.292	0.110	-0.133
-82.640	-200.000	-0.058	-0.369
-81.626	800.000	-0.066	0.232
-80.611	180.592	-0.058	-0.085
-79.597	-60.150	0.287	-0.123
-78.582	-81.236	-0.076	-0.025
-77.567	-200.000	0.013	0.393
-76.553	18.173	-0.054	0.043
-75.538	-76.991	0.114	-0.040
-74.524	-200.000	-0.008	-0.048
-73.509	251.227	0.128	-0.218
-72.494	800.000	0.018	0.065
-71.480	-116.922	0.169	-0.031
-70.465	200.209	-0.017	-0.027
-69.451	800.000	-0.090	-0.268
-68.436	575.657	0.069	0.169
-67.422	-54.812	0.301	0.136
-66.407	221.004	0.058	-0.093
-65.392	-52.010	0.156	-0.073
-64.378	-200.000	-0.024	-0.308
-63.363	-98.033	-0.322	-0.083
-62.349	-102.926	0.598	0.142
-61.334	91.748	-0.766	-0.862
-60.319	318.717	-0.069	0.130
-59.305	46.981	-0.181	-0.168
-58.290	166.452	0.350	0.496
-57.276	567.710	0.693	1.685
-56.261	-200.000	75.800	532.315
-55.246	552.191	1305.126	3136.856
-54.232	144.512	2548.025	3405.329
-53.217	110.427	2374.782	2855.692
-52.203	49.067	2113.591	1986.558
-51.188	43.861	2021.844	1852.796
-50.173	42.103	2002.501	1819.051
-49.159	54.443	2041.258	1967.446
-48.144	59.516	2061.248	2033.058
-47.130	44.710	2025.641	1863.761
-46.115	41.986	2014.627	1828.707
-45.100	41.835	2011.533	1824.450
-44.086	41.866	2009.256	1822.592
-43.071	41.747	2006.759	1819.168
-42.057	41.741	2004.872	1817.337
-41.042	41.852	2002.723	1816.323
-40.027	41.840	2000.997	1814.578
-39.013	41.763	1999.124	1812.103
-37.998	41.862	1996.641	1810.676
-36.984	41.854	1994.764	1808.838
-35.969	41.829	1993.310	1807.217
-34.954	41.818	1991.646	1805.542
-33.940	41.954	1989.819	1805.039
-32.925	41.950	1988.310	1803.564
-31.911	42.017	1986.237	1802.209
-30.896	41.968	1984.934	1800.521
-29.881	41.927	1983.869	1799.115
-28.867	42.027	1981.876	1798.130
-27.852	42.003	1979.928	1796.079
-26.838	41.969	1978.207	1794.142
-25.823	42.013	1976.288	1792.718
-24.809	41.969	1974.386	1790.528
-23.794	41.959	1973.169	1789.271
-22.779	41.970	1971.219	1787.528
-21.765	41.928	1969.877	1785.866
-20.750	42.022	1967.627	1784.587
-19.736	42.039	1966.105	1783.292
-18.721	41.899	1964.717	1780.716
-17.706	42.029	1962.742	1780.013
-16.692	41.961	1961.577	1778.275
-15.677	41.924	1959.952	1776.406
-14.663	41.970	1958.106	1775.068
-13.648	41.999	1956.889	1774.153
-12.633	41.922	1956.033	1772.628
-11.619	42.018	1953.904	1771.475
-10.604	41.974	1952.917	1770.122
-9.590	41.918	1952.101	1768.812
-8.575	41.898	1950.538	1767.150
-7.560	41.898	1949.181	1765.856
-6.546	41.969	1947.622	1765.000
-5.531	41.904	1946.644	1763.469
-4.517	41.968	1945.273	1762.716
-3.502	41.974	1944.130	1761.666
-2.487	41.946	1942.426	1759.809
-1.473	42.007	1942.080	1759.960
-0.458	42.127	1937.423	1756.719
0.556	41.172	1919.113	1733.331
1.571	37.575	1899.288	1684.207
2.586	33.408	1922.231	1667.801
3.600	32.092	1959.742	1688.374
4.615	31.083	1956.717	1676.557
5.629	23.313	1848.260	1517.227
6.644	9.075	1713.823	1292.827
7.659	1.681	1667.892	1199.949
8.673	0.997	1663.438	1191.256
9.688	0.895	1662.049	1189.359
10.702	0.906	1660.155	1187.983
11.717	0.702	1658.027	1184.750
12.731	1.123	1657.442	1187.531
13.746	9.255	1677.097	1265.757
14.761	20.406	1703.175	1374.044
15.775	24.500	1708.944	1411.005
16.790	24.480	1708.289	1410.179
17.804	24.545	1707.431	1409.858
18.819	24.562	1706.824	1409.374
19.834	24.777	1705.438	1409.795
20.848	25.032	1704.489	1410.898
21.863	24.979	1704.039	1409.979
22.877	24.903	1703.100	1408.477
23.892	24.945	1702.023	1407.795
24.907	25.038	1700.830	1407.412
25.921	24.982	1699.979	1406.148
26.936	24.955	1698.958	1404.965
27.950	24.928	1698.449	1404.207
28.965	24.921	1698.154	1403.787
29.980	24.942	1697.139	1402.990
30.994	24.963	1695.393	1401.581
32.009	24.920	1694.135	1400.084
33.023	24.955	1693.016	1399.308
34.038	24.972	1692.027	1398.499
35.053	24.906	1691.176	1397.156
36.067	24.975	1689.937	1396.548
37.082	24.926	1689.328	1395.537
38.096	24.895	1687.915	1394.009
39.111	24.977	1687.031	1393.791
40.126	25.002	1686.403	1393.343
41.140	24.922	1685.960	1392.230
42.155	24.963	1685.008	1391.642
43.169	24.917	1683.631	1390.026
44.184	24.922	1682.528	1389.033
45.199	24.929	1681.385	1388.016
46.213	24.976	1679.838	1386.978
47.228	24.951	1679.028	1385.997
48.242	24.964	1677.966	1385.096
49.257	24.947	1677.058	1384.093
50.271	24.985	1675.589	1383.050
51.286	24.908	1674.774	1381.663
52.301	24.841	1673.766	1380.196
53.315	24.923	1671.879	1379.147
54.330	24.933	1670.470	1377.939
55.344	24.943	1669.181	1376.828
56.359	24.938	1667.842	1375.569
57.374	25.021	1666.482	1374.960
58.388	24.965	1665.784	1373.831
59.403	24.941	1664.865	1372.769
60.417	24.958	1663.535	1371.686
61.432	24.961	1662.465	1370.703
62.447	25.006	1661.212	1369.888
63.461	24.922	1660.342	1368.411
64.476	24.983	1659.688	1368.216
65.490	24.953	1658.132	1366.584
66.505	25.026	1656.905	1366.004
67.520	24.997	1656.128	1365.028
68.534	25.005	1655.172	1364.175
69.549	24.974	1654.079	1362.917
70.563	25.050	1652.919	1362.424
71.578	24.981	1651.932	1360.962
72.593	25.018	1651.030	1360.378
73.607	24.900	1650.683	1359.077
74.622	25.067	1649.010	1358.847
75.636	25.031	1648.252	1357.827
76.651	25.062	1647.253	1357.123
77.666	24.995	1646.730	1356.061
78.680	25.004	1645.327	1354.859
79.695	24.998	1644.812	1354.270
80.709	25.014	1643.777	1353.418
81.724	24.992	1642.945	1352.444
82.739	24.994	1642.289	1351.798
83.753	24.948	1641.246	1350.473
84.768	24.960	1640.328	1349.693
85.782	25.010	1639.321	1349.123
86.797	25.008	1638.608	1348.396
87.812	24.919	1637.954	1347.071
88.826	25.108	1636.596	1347.255
89.841	25.059	1635.579	1345.931
90.855	25.043	1634.512	1344.812
91.870	25.025	1633.513	1343.741
92.884	24.983	1632.498	1342.469
93.899	25.085	1631.764	1342.507
94.914	25.081	1630.254	1341.120
95.928	25.055	1629.158	1339.905
96.943	24.948	1628.054	1338.078
97.957	25.045	1626.362	1337.296
98.972	25.084	1624.727	1336.124
99.987	25.089	1623.748	1335.239
101.001	24.979	1622.632	1333.384
102.016	24.951	1621.377	1332.025
103.030	24.964	1619.953	1330.833
104.045	25.017	1618.744	1330.115
105.060	25.038	1617.361	1329.017
106.074	25.087	1615.916	1328.073
107.089	24.968	1615.452	1326.691
108.103	25.037	1613.823	1325.753
109.118	25.084	1612.617	1324.986
110.133	24.980	1612.078	1323.663
111.147	25.030	1610.658	1322.744
112.162	25.075	1609.472	1321.988
113.176	25.042	1608.205	1320.590
114.191	25.062	1606.963	1319.601
115.206	25.095	1606.214	1319.112
116.220	25.113	1604.726	1317.899
117.235	25.094	1603.634	1316.747
118.249	25.070	1602.609	1315.611
119.264	25.061	1601.168	1314.248
120.279	25.125	1599.588	1313.303
121.293	25.112	1598.836	1312.479
122.308	25.089	1597.780	1311.325
123.322	25.140	1596.194	1310.278
124.337	25.180	1595.232	1309.666
125.352	25.130	1594.133	1308.284
126.366	25.101	1593.598	1307.515
127.381	25.236	1591.994	1307.066
128.395	25.233	1591.270	1306.337
129.410	25.171	1590.425	1305.077
130.424	25.169	1589.324	1304.040
131.439	25.204	1587.967	1303.065
132.454	25.275	1586.623	1302.364
133.468	25.170	1585.926	1300.917
134.483	25.155	1584.293	1299.352
135.497	25.199	1583.129	1298.603
136.512	25.158	1582.169	1297.403
137.527	25.254	1580.754	1296.822
138.541	25.216	1579.747	1295.604
139.556	25.247	1578.736	1294.886
140.570	25.249	1577.042	1293.398
141.585	25.197	1576.412	1292.394
142.600	25.164	1575.230	1291.071
143.614	25.212	1573.729	1290.069
144.629	25.153	1573.158	1289.062
145.643	25.082	1572.000	1287.493
146.658	25.162	1570.183	1286.465
147.673	25.087	1568.943	1284.793
148.687	25.122	1568.097	1284.239
149.702	25.137	1567.281	1283.565
150.716	24.997	1566.134	1281.509
151.731	25.201	1564.078	1281.173
152.746	25.213	1563.277	1280.486
153.760	25.155	1561.744	1278.706
154.775	25.165	1561.425	1278.403
155.789	25.158	1560.221	1277.251
156.804	25.165	1558.908	1276.119
157.819	25.224	1557.413	1275.202
158.833	25.144	1556.679	1273.916
159.848	25.153	1556.026	1273.332
160.862	25.192	1555.038	1272.692
161.877	25.177	1553.744	1271.412
162.892	25.183	1553.349	1271.022
163.906	25.267	1552.229	1270.585
164.921	25.274	1551.121	1269.616
165.935	25.306	1550.397	1269.137
166.950	25.285	1549.350	1268.020
167.964	25.322	1547.745	1266.856
168.979	25.295	1546.882	1265.847
169.994	25.265	1546.418	1265.144
171.008	25.194	1545.773	1264.005
172.023	25.276	1544.546	1263.463
173.037	25.261	1543.646	1262.510
174.052	25.221	1542.262	1260.983
175.067	25.321	1541.338	1260.824
176.081	25.285	1540.579	1259.834
177.096	25.287	1539.766	1259.077
178.110	25.373	1538.372	1258.422
179.125	25.333	1537.243	1257.110
180.140	25.257	1536.998	1256.269
181.154	25.261	1535.986	1255.356
182.169	25.242	1534.993	1254.299
183.183	25.318	1533.864	1253.799
184.198	25.265	1533.055	1252.652
185.213	25.271	1532.181	1251.873
186.227	25.353	1531.236	1251.559
187.242	25.417	1530.447	1251.252
188.256	25.378	1529.761	1250.308
189.271	25.337	1528.982	1249.276
190.286	25.443	1527.601	1248.770
191.300	25.324	1527.460	1247.720
192.315	25.370	1526.431	1247.086
193.329	25.289	1525.442	1245.612
194.344	25.273	1524.540	1244.650
195.359	25.416	1523.858	1244.978
196.373	25.404	1522.835	1243.945
197.388	25.471	1521.724	1243.393
198.402	25.402	1520.650	1241.929
199.417	25.332	1519.962	1240.769
200.432	25.399	1518.505	1239.933
201.446	25.260	1518.649	1238.985
202.461	25.379	1517.507	1238.762
203.475	25.354	1516.643	1237.779
204.490	25.338	1515.680	1236.770
205.504	25.317	1515.225	1236.147
206.519	25.321	1514.325	1235.329
207.534	25.451	1512.770	1234.842
208.548	25.477	1512.059	1234.333
209.563	25.318	1511.943	1233.039
210.577	25.446	1510.193	1232.382
211.592	25.428	1509.802	1231.826
212.607	25.388	1509.583	1231.268
213.621	25.480	1508.763	1231.119
214.636	25.581	1507.826	1230.938
215.650	25.522	1506.420	1229.277
216.665	25.484	1506.115	1228.655
217.680	25.556	1505.305	1228.380
218.694	25.426	1504.679	1226.871
219.709	25.512	1503.595	1226.466
220.723	25.519	1502.700	1225.679
221.738	25.593	1501.802	1225.339
222.753	25.547	1501.207	1224.433
223.767	25.453	1500.390	1223.021
224.782	25.481	1499.122	1222.066
225.796	25.477	1498.699	1221.584
226.811	25.538	1498.080	1221.389
227.826	25.566	1497.299	1220.833
228.840	25.547	1496.541	1219.976
229.855	25.466	1495.737	1218.665
230.869	25.517	1494.739	1218.088
231.884	25.567	1493.557	1217.359
232.899	25.558	1492.857	1216.620
233.913	25.695	1491.381	1216.234
234.928	25.529	1490.686	1214.440
235.942	25.672	1489.293	1214.163
236.957	25.639	1488.161	1212.909
237.972	25.676	1487.427	1212.451
238.986	25.667	1486.570	1211.584
240.001	25.622	1485.849	1210.590
241.015	25.599	1485.111	1209.726
242.030	25.693	1483.630	1209.046
243.045	25.719	1482.780	1208.419
244.059	25.747	1481.904	1207.783
245.074	25.801	1481.051	1207.347
246.088	25.880	1480.332	1207.183
247.103	25.893	1479.319	1206.336
248.117	25.929	1478.329	1205.659
249.132	25.819	1477.786	1204.377
250.147	25.794	1477.296	1203.703
251.161	25.750	1476.952	1203.026
252.176	25.876	1476.247	1203.187
253.190	25.855	1474.770	1201.736
254.205	25.775	1474.448	1200.834
255.220	25.817	1473.705	1200.397
256.234	25.849	1472.832	1199.799
257.249	25.889	1471.970	1199.257
258.263	25.786	1471.691	1198.234
259.278	25.884	1470.168	1197.537
260.293	25.864	1469.944	1197.116
261.307	25.873	1468.885	1196.214
262.322	25.980	1468.010	1196.101
263.336	25.944	1467.197	1195.094
264.351	25.898	1466.481	1194.104
265.366	25.886	1465.489	1193.107
266.380	25.866	1464.840	1192.339
267.395	26.017	1463.643	1192.260
268.409	25.906	1463.143	1191.011
269.424	25.874	1462.074	1189.828
270.439	26.024	1460.753	1189.636
271.453	25.905	1460.533	1188.568
272.468	25.900	1460.069	1188.049
273.482	25.880	1459.290	1187.179
274.497	25.935	1458.193	1186.545
275.512	25.863	1457.203	1185.163
276.526	26.013	1456.607	1185.558
277.541	26.010	1456.084	1185.008
278.555	26.020	1455.032	1184.114
279.570	26.019	1454.631	1183.674
280.585	26.134	1452.949	1182.956
281.599	26.036	1452.573	1181.904
282.614	26.009	1451.677	1180.893
283.628	26.048	1450.416	1180.019
284.643	25.962	1449.461	1178.572
285.657	26.137	1448.475	1178.806
286.672	26.033	1447.871	1177.536
287.687	26.004	1446.854	1176.416
288.701	26.038	1446.247	1176.039
289.716	26.004	1445.796	1175.348
290.730	26.037	1445.376	1175.116
291.745	26.104	1444.156	1174.454
292.760	26.128	1443.092	1173.641
293.774	26.170	1442.135	1173.035
294.789	26.073	1441.832	1172.051
295.803	26.105	1441.010	1171.488
296.818	26.105	1440.001	1170.567
297.833	26.124	1438.886	1169.679
298.847	26.123	1438.265	1169.063
299.862	26.203	1437.164	1168.585
300.876	26.238	1436.550	1168.205
301.891	26.249	1435.335	1167.188
302.906	26.145	1434.888	1166.050
303.920	26.269	1434.478	1166.411
304.935	26.358	1433.762	1166.302
305.949	26.332	1432.621	1165.104
306.964	26.257	1431.782	1163.832
307.979	26.314	1431.176	1163.603
308.993	26.279	1430.359	1162.613
310.008	26.319	1429.481	1162.050
311.022	26.371	1428.580	1161.553
312.037	26.360	1427.605	1160.585
313.052	26.321	1426.542	1159.365
314.066	26.357	1425.895	1158.968
315.081	26.322	1424.801	1157.757
316.095	26.432	1423.660	1157.429
317.110	26.378	1422.873	1156.344
318.125	26.456	1421.880	1155.932
319.139	26.364	1421.612	1155.026
320.154	26.390	1420.478	1154.167
321.168	26.378	1419.620	1153.289
322.183	26.424	1418.615	1152.664
323.197	26.452	1417.815	1152.087
324.212	26.430	1417.326	1151.448
325.227	26.507	1416.155	1150.888
326.241	26.468	1415.437	1149.951
327.256	26.523	1414.787	1149.676
328.270	26.533	1413.791	1148.829
329.285	26.435	1413.320	1147.723
330.300	26.476	1412.468	1147.186
331.314	26.518	1411.441	1146.514
332.329	26.434	1410.836	1145.392
333.343	26.526	1409.808	1145.038
334.358	26.542	1409.194	1144.537
335.373	26.661	1408.325	1144.485
336.387	26.613	1407.908	1143.741
337.402	26.667	1407.306	1143.494
338.416	26.580	1406.814	1142.440
339.431	26.597	1406.403	1142.115
340.446	26.632	1405.891	1141.818
341.460	26.705	1404.402	1140.965
342.475	26.673	1404.000	1140.340
343.489	26.773	1402.759	1139.858
344.504	26.798	1401.679	1139.036
345.519	26.659	1400.766	1137.320
346.533	26.785	1399.982	1137.377
347.548	26.739	1399.061	1136.237
348.562	26.681	1398.280	1135.138
349.577	26.733	1397.523	1134.747
350.592	26.717	1396.952	1134.083
351.606	26.742	1396.108	1133.457
352.621	26.695	1395.216	1132.338
353.635	26.687	1394.200	1131.362
354.650	26.768	1393.166	1130.927
355.665	26.804	1392.466	1130.486
356.679	26.790	1391.451	1129.476
357.694	26.804	1390.233	1128.472
358.708	26.853	1389.222	1127.859
359.723	26.908	1388.325	1127.374
360.738	26.671	1387.588	1125.204
361.752	26.794	1386.325	1124.838
362.767	26.782	1385.302	1123.838
363.781	26.838	1384.064	1123.079
364.796	26.914	1383.580	1123.057
365.810	26.806	1383.218	1121.994
366.825	26.837	1382.604	1121.592
367.840	26.864	1381.564	1120.816
368.854	26.999	1380.804	1120.931
369.869	27.001	1380.261	1120.404
370.883	26.992	1379.830	1119.903
371.898	27.005	1378.973	1119.185
372.913	27.031	1377.981	1118.439
373.927	27.069	1377.277	1118.008
374.942	27.026	1377.215	1117.589
375.956	26.943	1376.296	1116.237
376.971	27.004	1375.207	1115.627
377.986	27.132	1374.474	1115.720
379.000	27.089	1373.387	1114.475
380.015	27.123	1373.112	1114.364
381.029	27.096	1372.147	1113.318
382.044	27.078	1371.973	1112.966
383.059	27.121	1370.920	1112.277
384.073	27.084	1370.538	1111.643
385.088	27.122	1369.981	1111.327
386.102	27.087	1369.590	1110.694
387.117	27.164	1368.736	1110.373
388.132	27.143	1367.821	1109.402
389.146	27.103	1367.457	1108.769
390.161	27.112	1366.184	1107.695
391.175	27.143	1365.516	1107.241
392.190	27.286	1365.187	1107.747
393.205	27.171	1364.091	1106.059
394.219	27.200	1363.756	1105.870
395.234	27.123	1362.659	1104.410
396.248	27.198	1361.343	1103.706
397.263	27.271	1360.200	1103.125
398.278	27.290	1358.969	1102.141
399.292	27.256	1358.084	1101.119
400.307	27.385	1357.553	1101.370
401.321	27.319	1356.368	1099.915
402.336	27.312	1355.755	1099.278
403.350	27.359	1354.658	1098.574
404.365	27.289	1354.002	1097.521
405.380	27.351	1352.769	1096.800
406.394	27.441	1351.889	1096.535
407.409	27.395	1351.271	1095.659
408.423	27.457	1350.770	1095.529
409.438	27.441	1349.857	1094.590
410.453	27.517	1348.978	1094.238
411.467	27.434	1348.981	1093.647
412.482	27.493	1348.408	1093.441
413.496	27.437	1347.241	1092.062
414.511	27.513	1346.450	1091.778
415.526	27.537	1345.750	1091.257
416.540	27.539	1344.939	1090.519
417.555	27.575	1344.234	1090.065
418.569	27.527	1343.610	1089.175
419.584	27.483	1343.307	1088.569
420.599	27.558	1343.069	1088.725
421.613	77.393	1324.270	1357.195
422.628	77.963	1321.492	1357.349
