DTS Sentinel unit serial number:	SN413079Multiplexer serial number:	ORYXHardware model number:	OX4-SRSoftware version number:	ORYX F/W v4.00 Oryx Data Collector v3.7.2.0data status	okinstallation	princeton_trtdifferential loss correction	single-endedforward channel	channel 4reverse channel	N/Adate	2019/09/11time	13:11:11forward acquisition time	60.00reverse acquisition time	0.00gamma	496.2192k internal	0.2282k external	0.2282temperature offset calibration	0.9999default loss term (dB/km)	0.3790temperature slope calibration	1.0000multiplexer offset coefficient	1.0000multiplexer slope coefficient	1.0000fibre end	0.00T internal ref (°C)	41.91T ext. ref 1 (°C)	0.77T ext. ref 2 (°C)	37.81length (m)	temperature (°C)	Stokes	anti-Stokes-747.200	88.711	0.153	0.175
-746.185	800.000	-0.063	0.185
-745.171	-113.994	-0.186	-0.037
-744.156	-63.129	-0.229	0.097
-743.142	-200.000	0.036	0.189
-742.127	-11.619	-0.241	0.163
-741.112	-200.000	-0.002	-0.141
-740.098	800.000	0.080	0.297
-739.083	-35.499	-0.348	0.194
-738.069	-112.022	-0.344	0.071
-737.054	-200.000	0.016	-0.096
-736.039	-127.351	-0.156	0.023
-735.025	207.506	0.105	-0.168
-734.010	85.086	-0.120	-0.135
-732.996	-101.587	-0.272	-0.068
-731.981	-20.455	-0.309	0.195
-730.966	154.068	0.167	0.236
-729.952	-0.763	-0.179	0.130
-728.937	75.342	-0.074	-0.080
-727.923	-86.945	-0.178	0.056
-726.908	-200.000	0.025	-0.194
-725.894	651.830	-0.117	-0.307
-724.879	-91.606	-0.399	-0.117
-723.864	-21.919	0.088	0.055
-722.850	800.000	0.042	-0.151
-721.835	-200.000	0.044	-0.300
-720.821	800.000	-0.094	-0.281
-719.806	476.234	-0.135	-0.312
-718.791	-122.238	-0.075	0.013
-717.777	800.000	-0.030	0.085
-716.762	-140.160	-0.215	-0.023
-715.748	800.000	0.073	0.246
-714.733	-59.877	-0.140	-0.061
-713.718	-53.824	-0.189	-0.089
-712.704	753.347	0.032	-0.089
-711.689	-55.926	-0.382	0.175
-710.675	-108.268	0.417	0.092
-709.660	-40.857	0.175	0.093
-708.645	16.136	0.025	0.020
-707.631	62.965	0.223	0.229
-706.616	800.000	-0.081	0.231
-705.602	20.919	0.153	-0.127
-704.587	94.228	0.234	-0.272
-703.572	42.096	-0.264	-0.246
-702.558	336.903	-0.054	0.107
-701.543	-200.000	0.025	-0.225
-700.529	-114.909	0.307	-0.060
-699.514	447.583	0.094	0.213
-698.499	-77.388	0.106	-0.038
-697.485	-200.000	0.025	0.170
-696.470	11.526	-0.201	-0.158
-695.456	317.192	-0.107	-0.207
-694.441	-200.000	-0.008	-0.069
-693.426	-5.440	0.205	-0.144
-692.412	-200.000	-0.053	-0.492
-691.397	452.896	-0.029	0.067
-690.383	-11.712	-0.163	-0.110
-689.368	-200.000	0.030	-0.222
-688.354	42.014	0.224	0.209
-687.339	-66.479	-0.054	-0.022
-686.324	47.210	0.133	0.127
-685.310	-5.123	0.103	0.073
-684.295	645.585	-0.139	0.363
-683.281	237.736	-0.064	-0.108
-682.266	631.541	-0.157	-0.409
-681.251	-102.720	0.120	-0.029
-680.237	661.060	0.110	-0.291
-679.222	800.000	0.072	-0.256
-678.208	30.664	0.223	0.195
-677.193	800.000	-0.083	-0.248
-676.178	-140.656	-0.030	-0.003
-675.164	78.581	-0.107	0.118
-674.149	58.155	0.146	-0.146
-673.135	133.261	0.106	0.141
-672.120	44.811	-0.170	-0.161
-671.105	67.672	0.258	-0.270
-670.091	-83.041	-0.177	-0.058
-669.076	800.000	-0.052	-0.226
-668.062	-117.535	0.264	-0.049
-667.047	-19.327	-0.036	-0.023
-666.032	800.000	0.100	-0.293
-665.018	130.645	0.144	-0.189
-664.003	685.690	-0.024	-0.064
-662.989	-171.439	0.318	-0.011
-661.974	22.366	0.109	0.091
-660.959	-55.974	-0.184	-0.084
-659.945	-151.520	0.217	0.017
-658.930	-200.000	-0.016	-0.221
-657.916	226.999	0.284	-0.473
-656.901	-200.000	-0.012	0.063
-655.886	-42.745	-0.185	-0.096
-654.872	-166.254	0.108	0.005
-653.857	239.867	0.035	-0.060
-652.843	-116.776	-0.108	0.020
-651.828	290.402	0.049	0.090
-650.814	-133.132	-0.425	-0.055
-649.799	99.566	-0.234	-0.277
-648.784	-114.293	-0.267	0.053
-647.770	-108.409	-0.108	-0.024
-646.755	-200.000	0.036	-0.253
-645.741	-101.014	-0.312	0.078
-644.726	-140.145	-0.116	0.013
-643.711	501.499	0.042	0.100
-642.697	365.222	0.070	-0.145
-641.682	-55.575	-0.207	-0.095
-640.668	12.382	-0.279	0.220
-639.653	-119.391	-0.235	-0.042
-638.638	592.443	-0.070	-0.178
-637.624	-180.429	0.254	0.005
-636.609	420.879	-0.026	0.056
-635.595	-200.000	-0.024	-0.274
-634.580	370.101	-0.035	-0.073
-633.565	54.045	0.230	-0.227
-632.551	12.391	0.031	-0.025
-631.536	800.000	-0.009	0.035
-630.522	192.519	0.058	0.089
-629.507	-137.257	-0.270	0.031
-628.492	-143.914	-0.460	0.044
-627.478	54.303	-0.323	0.318
-626.463	216.514	-0.145	-0.236
-625.449	122.463	-0.317	-0.405
-624.434	-25.228	0.064	0.039
-623.419	24.198	0.065	-0.055
-622.405	-93.757	0.334	-0.094
-621.390	530.882	-0.223	-0.539
-620.376	57.104	0.097	-0.097
-619.361	-136.373	-0.237	-0.028
-618.346	39.517	0.086	0.079
-617.332	-98.577	0.241	-0.063
-616.317	75.007	-0.232	0.250
-615.303	-112.341	-0.219	0.045
-614.288	293.109	-0.099	-0.184
-613.273	-55.037	-0.165	-0.076
-612.259	225.451	-0.222	-0.368
-611.244	248.018	0.193	-0.334
-610.230	123.079	0.187	0.239
-609.215	1.373	0.033	0.024
-608.201	800.000	0.031	-0.099
-607.186	-200.000	-0.008	0.081
-606.171	-85.098	-0.241	-0.077
-605.157	800.000	0.033	0.104
-604.142	16.404	0.005	-0.004
-603.128	-107.367	0.220	0.049
-602.113	0.357	0.153	-0.112
-601.098	-110.748	0.187	0.039
-600.084	800.000	0.015	0.065
-599.069	-103.143	0.119	0.029
-598.055	365.587	0.048	-0.100
-597.040	-46.288	0.053	0.027
-596.025	350.325	-0.083	-0.169
-595.011	82.363	-0.269	-0.298
-593.996	396.261	0.130	0.278
-592.982	556.726	0.058	-0.143
-591.967	-164.468	0.164	-0.008
-590.952	-109.369	-0.080	0.017
-589.938	-20.714	-0.122	0.077
-588.923	712.324	-0.063	0.172
-587.909	-200.000	-0.035	-0.234
-586.894	191.115	-0.179	0.276
-585.879	800.000	-0.034	0.103
-584.865	481.906	0.112	-0.259
-583.850	-30.524	0.345	-0.200
-582.836	800.000	-0.053	-0.177
-581.821	17.518	-0.206	0.167
-580.806	-183.508	-0.139	-0.002
-579.792	142.971	-0.135	0.183
-578.777	-123.659	-0.179	-0.029
-577.763	62.126	-0.147	-0.150
-576.748	-108.855	-0.084	-0.018
-575.733	-200.000	-0.022	-0.241
-574.719	-152.872	0.191	0.014
-573.704	107.192	-0.123	0.149
-572.690	800.000	0.116	0.357
-571.675	-200.000	0.007	-0.257
-570.661	140.328	-0.156	-0.210
-569.646	212.948	-0.176	0.283
-568.631	129.152	0.216	-0.282
-567.617	294.983	-0.028	0.053
-566.602	-36.873	-0.225	0.123
-565.588	-200.000	0.017	0.219
-564.573	800.000	-0.056	0.227
-563.558	-166.854	0.400	0.017
-562.544	-8.200	-0.193	0.133
-561.529	126.359	-0.040	0.052
-560.515	-200.000	-0.030	-0.155
-559.500	-67.645	0.095	-0.038
-558.485	15.750	-0.104	-0.083
-557.471	-89.520	-0.104	-0.031
-556.456	171.051	-0.194	0.284
-555.442	-200.000	0.013	0.134
-554.427	-165.422	0.313	0.014
-553.412	-60.452	-0.616	0.267
-552.398	-73.262	-0.225	0.084
-551.383	205.100	-0.115	-0.182
-550.369	-138.466	-0.156	-0.018
-549.354	-78.100	0.034	-0.012
-548.339	-200.000	0.033	-0.399
-547.325	-140.041	-0.418	-0.045
-546.310	231.998	0.145	-0.242
-545.296	382.471	0.123	-0.258
-544.281	-200.000	0.010	-0.250
-543.266	-161.718	-0.235	-0.012
-542.252	198.252	0.140	0.218
-541.237	-200.000	0.044	-0.218
-540.223	-104.437	0.182	0.043
-539.208	-151.228	0.185	0.014
-538.193	9.898	0.315	0.244
-537.179	189.437	-0.149	0.228
-536.164	800.000	-0.143	0.410
-535.150	-150.040	-0.342	0.027
-534.135	-41.963	0.222	0.116
-533.121	-200.000	-0.047	0.258
-532.106	-75.306	-0.362	0.132
-531.091	-47.057	0.298	0.148
-530.077	-69.658	0.098	-0.038
-529.062	-121.738	-0.210	-0.035
-528.048	-171.002	0.135	-0.005
-527.033	800.000	-0.098	0.294
-526.018	-4.416	0.060	0.042
-525.004	201.999	0.156	-0.245
-523.989	-200.000	0.017	0.366
-522.975	-57.888	0.049	0.022
-521.960	-200.000	-0.024	-0.133
-520.945	-200.000	0.013	0.121
-519.931	-93.142	0.053	-0.015
-518.916	-200.000	-0.040	0.250
-517.902	370.041	0.054	0.111
-516.887	-63.883	-0.147	-0.061
-515.872	28.817	-0.211	-0.182
-514.858	-200.000	0.053	-0.330
-513.843	-46.621	0.125	0.063
-512.829	-32.071	0.085	0.048
-511.814	-51.106	0.199	-0.095
-510.799	-107.327	-0.101	-0.023
-509.785	112.827	-0.295	-0.364
-508.770	800.000	0.073	-0.271
-507.756	-72.899	0.247	-0.092
-506.741	-200.000	0.097	0.441
-505.726	800.000	0.035	-0.117
-504.712	41.810	0.126	0.117
-503.697	36.445	-0.209	-0.188
-502.683	-156.592	-0.196	-0.012
-501.668	-79.360	-0.507	-0.175
-500.653	-124.581	-0.222	-0.035
-499.639	-32.834	0.198	0.112
-498.624	145.409	0.166	-0.226
-497.610	571.757	-0.156	-0.387
-496.595	-200.000	0.009	-0.079
-495.581	-200.000	-0.051	0.326
-494.566	172.858	-0.221	0.323
-493.551	-195.425	0.030	-0.000
-492.537	-94.235	0.140	-0.039
-491.522	-137.752	0.084	-0.010
-490.508	13.247	0.341	-0.269
-489.493	136.799	0.070	-0.093
-488.478	-9.401	0.183	0.124
-487.464	12.239	-0.277	-0.217
-486.449	-17.411	-0.281	-0.180
-485.435	474.920	0.065	0.150
-484.420	-147.434	-0.248	-0.021
-483.405	693.593	0.041	0.109
-482.391	-137.484	-0.216	0.025
-481.376	173.814	-0.171	0.251
-480.362	150.233	0.107	-0.148
-479.347	-106.191	-0.146	-0.033
-478.332	-76.945	0.077	-0.027
-477.318	-200.000	-0.025	-0.376
-476.303	547.428	0.066	-0.160
-475.289	53.008	-0.035	-0.034
-474.274	800.000	0.049	-0.139
-473.259	800.000	-0.047	-0.157
-472.245	-161.411	0.227	-0.012
-471.230	800.000	-0.076	0.292
-470.216	559.418	-0.096	0.235
-469.201	-90.032	-0.104	-0.031
-468.186	34.090	0.103	0.092
-467.172	-200.000	-0.025	0.189
-466.157	139.961	-0.123	-0.165
-465.143	17.944	0.188	-0.153
-464.128	-136.844	0.244	0.029
-463.113	-200.000	0.016	0.288
-462.099	-92.272	0.183	-0.052
-461.084	193.611	-0.133	0.205
-460.070	147.489	0.119	-0.163
-459.055	31.122	0.180	-0.157
-458.040	455.245	-0.164	-0.369
-457.026	-152.986	0.464	0.033
-456.011	-6.147	-0.101	0.070
-454.997	65.445	0.157	0.162
-453.982	-200.000	-0.007	0.118
-452.968	520.989	0.025	-0.060
-451.953	-119.939	-0.200	0.035
-450.938	363.490	0.053	0.109
-449.924	-200.000	-0.001	-0.234
-448.909	574.472	0.024	0.059
-447.895	149.342	-0.092	-0.126
-446.880	-80.936	-0.234	0.079
-445.865	-98.491	-0.143	-0.037
-444.851	727.201	-0.070	0.189
-443.836	-56.382	-0.306	0.138
-442.822	208.674	-0.094	0.149
-441.807	-200.000	0.043	0.195
-440.792	-200.000	0.007	0.034
-439.778	724.189	-0.127	0.344
-438.763	28.106	0.088	-0.075
-437.749	107.633	-0.184	-0.223
-436.734	-106.304	0.239	0.054
-435.719	800.000	-0.052	0.180
-434.705	146.399	-0.212	-0.289
-433.690	-133.295	0.346	0.044
-432.676	-77.019	0.336	-0.119
-431.661	-78.609	0.355	-0.123
-430.646	-26.398	0.263	-0.157
-429.632	-108.969	-0.451	0.098
-428.617	200.776	-0.074	-0.116
-427.603	-138.692	-0.031	0.003
-426.588	-200.000	0.007	0.147
-425.573	76.324	-0.467	0.502
-424.559	-71.073	-0.236	-0.090
-423.544	-200.000	0.034	0.159
-422.530	-149.565	-0.193	-0.015
-421.515	17.744	0.181	0.146
-420.500	-70.233	0.203	0.078
-419.486	6.225	0.209	0.157
-418.471	20.284	0.151	-0.124
-417.457	-0.393	0.428	0.309
-416.442	-200.000	0.009	-0.156
-415.428	-19.333	-0.097	0.061
-414.413	3.828	0.186	-0.138
-413.398	-62.345	-0.190	-0.080
-412.384	-143.085	-0.237	-0.023
-411.369	-99.708	0.426	0.108
-410.355	-104.149	0.103	0.024
-409.340	-200.000	-0.031	0.330
-408.325	36.676	-0.087	0.078
-407.311	366.271	-0.067	0.136
-406.296	-135.212	-0.087	0.011
-405.282	40.054	-0.379	-0.346
-404.267	800.000	0.133	0.426
-403.252	689.825	-0.079	0.211
-402.238	-42.725	0.218	0.113
-401.223	35.049	0.140	0.124
-400.209	94.003	-0.119	-0.137
-399.194	-200.000	0.025	0.183
-398.179	279.517	-0.183	-0.331
-397.165	-200.000	-0.014	-0.239
-396.150	565.203	-0.097	-0.237
-395.136	800.000	-0.031	0.108
-394.121	800.000	-0.025	-0.092
-393.106	-6.426	0.596	0.412
-392.092	171.918	-0.104	0.152
-391.077	800.000	0.026	0.100
-390.063	-49.431	0.294	-0.142
-389.048	-12.597	0.285	0.189
-388.033	-102.300	0.301	0.073
-387.019	-1.509	0.125	-0.090
-386.004	-200.000	-0.076	-0.382
-384.990	646.390	0.125	-0.322
-383.975	39.555	-0.085	0.077
-382.960	-59.891	-0.272	0.118
-381.946	15.843	-0.242	0.193
-380.931	83.777	0.124	0.137
-379.917	334.701	0.182	0.358
-378.902	-165.271	0.052	0.002
-377.888	-200.000	-0.018	0.154
-376.873	800.000	-0.034	0.134
-375.858	800.000	0.083	0.344
-374.844	154.626	0.107	-0.149
-373.829	-12.047	-0.184	-0.122
-372.815	-97.818	0.235	-0.062
-371.800	-100.553	-0.023	-0.006
-370.785	-48.716	-0.103	0.050
-369.771	796.490	-0.106	0.297
-368.756	-200.000	-0.058	-0.465
-367.742	29.483	0.151	-0.130
-366.727	253.789	-0.057	-0.099
-365.712	112.843	-0.004	-0.005
-364.698	-53.583	0.191	-0.088
-363.683	212.592	0.108	0.173
-362.669	126.111	-0.081	0.103
-361.654	130.805	0.017	-0.022
-360.639	50.969	-0.065	-0.062
-359.625	-59.532	-0.093	-0.040
-358.610	-67.250	-0.200	0.080
-357.596	152.988	0.012	0.017
-356.581	800.000	0.051	0.193
-355.566	-200.000	-0.050	-0.295
-354.552	800.000	0.080	0.294
-353.537	-200.000	0.038	0.192
-352.523	-73.906	-0.106	0.039
-351.508	3.278	0.270	0.199
-350.493	-51.410	-0.182	0.086
-349.479	152.020	-0.218	-0.301
-348.464	800.000	-0.040	0.147
-347.450	800.000	0.077	-0.271
-346.435	-95.031	0.245	-0.067
-345.420	211.679	-0.094	0.149
-344.406	166.080	-0.126	0.181
-343.391	-200.000	-0.077	-0.345
-342.377	29.653	-0.150	-0.129
-341.362	-200.000	-0.014	-0.323
-340.348	-56.280	-0.478	-0.215
-339.333	234.165	0.160	-0.267
-338.318	800.000	0.042	-0.164
-337.304	-117.345	0.269	-0.049
-336.289	-17.107	0.232	0.148
-335.275	-121.415	0.227	-0.038
-334.260	800.000	-0.052	0.210
-333.245	-200.000	0.027	0.376
-332.231	-200.000	0.032	-0.388
-331.216	-89.172	0.200	0.060
-330.202	35.672	-0.049	-0.043
-329.187	-200.000	-0.000	0.258
-328.172	38.410	0.253	0.228
-327.158	-132.474	-0.135	0.018
-326.143	-26.678	0.039	-0.023
-325.129	58.933	0.122	0.121
-324.114	211.073	-0.159	-0.254
-323.099	766.033	-0.020	0.055
-322.085	-200.000	-0.027	-0.363
-321.070	-27.585	-0.080	0.047
-320.056	-22.003	-0.259	-0.159
-319.041	145.300	-0.079	-0.108
-318.026	-113.686	0.283	-0.056
-317.012	132.533	0.129	0.169
-315.997	-24.392	-0.120	-0.072
-314.983	648.131	0.105	-0.272
-313.968	-79.532	-0.345	-0.118
-312.953	-43.367	-0.035	-0.018
-311.939	104.193	-0.170	-0.202
-310.924	-49.134	-0.182	0.088
-309.910	-197.716	-0.350	0.002
-308.895	-46.988	0.105	0.052
-307.880	-84.394	0.224	-0.071
-306.866	-74.106	0.266	0.097
-305.851	49.269	0.079	-0.075
-304.837	-158.373	0.205	0.012
-303.822	-112.948	0.385	-0.077
-302.807	29.931	-0.242	-0.209
-301.793	-200.000	-0.014	-0.230
-300.778	800.000	-0.053	0.152
-299.764	-34.804	0.029	0.016
-298.749	-59.610	0.272	-0.118
-297.735	35.800	-0.058	-0.051
-296.720	652.133	-0.077	0.200
-295.705	-200.000	0.531	-0.001
-294.691	-9.965	-0.237	-0.159
-293.676	-200.000	-0.017	-0.151
-292.662	-142.023	0.138	-0.014
-291.647	133.983	0.069	-0.091
-290.632	70.167	0.109	0.113
-289.618	47.437	0.215	-0.203
-288.603	-80.087	0.381	0.129
-287.589	-200.000	-0.016	0.198
-286.574	-99.817	0.331	0.084
-285.559	-200.000	-0.020	-0.093
-284.545	-67.355	-0.123	-0.049
-283.530	66.065	-0.173	0.177
-282.516	269.468	-0.016	0.028
-281.501	-60.754	-0.168	0.072
-280.486	-200.000	-0.008	0.213
-279.472	-159.177	-0.196	-0.011
-278.457	-200.000	-0.012	0.127
-277.443	-103.066	0.452	0.108
-276.428	-155.806	-0.190	-0.012
-275.413	-183.679	-0.459	-0.008
-274.399	421.674	-0.065	-0.141
-273.384	800.000	0.085	0.246
-272.370	143.752	0.074	-0.099
-271.355	-200.000	0.022	0.395
-270.340	-200.000	-0.048	-0.254
-269.326	800.000	-0.064	-0.191
-268.311	-47.451	0.322	-0.158
-267.297	-200.000	0.057	-0.268
-266.282	317.560	-0.050	-0.096
-265.267	125.941	0.189	0.241
-264.253	-200.000	-0.052	-0.273
-263.238	548.025	0.064	0.154
-262.224	-200.000	-0.003	-0.224
-261.209	21.680	-0.250	-0.206
-260.195	-79.612	0.143	0.049
-259.180	-78.306	0.229	0.079
-258.165	-89.787	-0.056	-0.017
-257.151	-49.972	0.140	0.067
-256.136	-113.936	-0.436	-0.085
-255.122	-85.060	-0.225	-0.071
-254.107	507.961	0.180	0.421
-253.092	91.972	-0.126	0.142
-252.078	-114.250	-0.063	0.012
-251.063	-147.174	0.247	-0.021
-250.049	83.990	0.270	0.297
-249.034	-169.395	-0.186	-0.007
-248.019	-16.923	-0.275	0.175
-247.005	608.508	0.037	0.092
-245.990	288.144	0.119	0.217
-244.976	-112.637	0.071	0.014
-243.961	297.902	-0.078	-0.145
-242.946	-200.000	-0.011	0.250
-241.932	15.974	0.082	0.065
-240.917	82.458	0.248	-0.271
-239.903	-132.998	-0.136	-0.017
-238.888	-151.365	0.129	-0.010
-237.873	-32.830	0.064	0.036
-236.859	-18.312	-0.091	0.057
-235.844	-117.383	-0.179	-0.033
-234.830	13.325	-0.205	0.160
-233.815	182.935	0.137	0.204
-232.800	412.674	-0.076	-0.163
-231.786	-86.004	0.364	-0.113
-230.771	-118.291	-0.285	0.051
-229.757	-23.091	0.123	-0.075
-228.742	-200.000	0.017	-0.369
-227.727	-48.691	0.032	-0.016
-226.713	238.537	0.230	-0.385
-225.698	-200.000	0.020	0.585
-224.684	800.000	-0.018	0.064
-223.669	-98.748	-0.047	-0.012
-222.655	19.390	-0.264	-0.214
-221.640	-92.930	-0.280	0.079
-220.625	42.487	0.107	0.098
-219.611	-14.377	-0.074	0.048
-218.596	656.384	-0.093	0.240
-217.582	-153.182	0.100	-0.007
-216.567	800.000	-0.096	0.291
-215.552	-89.326	0.182	-0.054
-214.538	-200.000	0.037	0.175
-213.523	800.000	-0.049	0.174
-212.509	623.423	-0.108	-0.274
-211.494	-200.000	0.009	0.079
-210.479	-200.000	-0.015	-0.108
-209.465	-76.171	-0.239	-0.085
-208.450	161.809	0.230	-0.324
-207.436	237.432	-0.142	-0.237
-206.421	-124.586	0.235	0.037
-205.406	-150.758	-0.266	0.020
-204.392	-200.000	0.019	0.117
-203.377	-84.161	-0.176	-0.056
-202.363	48.214	0.287	-0.270
-201.348	-88.959	0.102	-0.030
-200.333	-130.981	-0.340	0.046
-199.319	164.827	0.225	0.320
-198.304	-42.412	0.089	-0.046
-197.290	-10.365	0.337	-0.225
-196.275	-185.478	0.284	-0.004
-195.260	326.383	0.084	0.163
-194.246	269.205	-0.098	0.172
-193.231	185.307	0.083	0.124
-192.217	-32.765	-0.252	0.141
-191.202	-168.700	0.146	-0.006
-190.187	125.037	-0.070	0.089
-189.173	-200.000	-0.001	-0.083
-188.158	337.669	0.066	-0.129
-187.144	-57.657	0.382	0.168
-186.129	-61.590	0.169	0.071
-185.114	91.877	0.102	0.115
-184.100	-103.673	0.109	0.026
-183.085	-51.006	0.154	-0.072
-182.071	-134.293	0.191	-0.024
-181.056	-109.937	-0.221	-0.047
-180.042	164.695	0.041	0.058
-179.027	-50.716	0.549	-0.260
-178.012	67.036	-0.057	-0.059
-176.998	737.145	-0.065	0.176
-175.983	800.000	-0.014	-0.048
-174.969	-93.573	-0.469	0.130
-173.954	-200.000	0.203	0.001
-172.939	-117.671	-0.190	0.034
-171.925	-107.871	0.338	-0.074
-170.910	800.000	0.057	-0.178
-169.896	-200.000	0.048	-0.360
-168.881	-27.682	0.094	0.055
-167.866	-200.000	0.028	-0.173
-166.852	-200.000	-0.007	-0.056
-165.837	-3.989	0.307	0.214
-164.823	-11.432	-0.363	-0.240
-163.808	-200.000	-0.019	0.340
-162.793	661.187	0.178	0.461
-161.779	-62.608	-0.278	0.116
-160.764	800.000	-0.082	0.296
-159.750	-200.000	0.438	0.001
-158.735	-32.599	-0.178	-0.100
-157.720	-131.455	0.031	-0.004
-156.706	-75.918	-0.165	0.059
-155.691	-54.741	0.366	0.166
-154.677	-200.000	0.013	0.309
-153.662	800.000	0.051	0.183
-152.647	-200.000	-0.046	-0.323
-151.633	669.716	0.158	-0.411
-150.618	800.000	-0.072	0.219
-149.604	-200.000	-0.069	0.318
-148.589	78.333	0.250	-0.268
-147.574	117.679	-0.111	0.138
-146.560	-93.929	-0.171	-0.047
-145.545	800.000	-0.032	-0.114
-144.531	800.000	0.094	-0.298
-143.516	780.491	0.093	-0.255
-142.502	-200.000	-0.009	0.043
-141.487	96.323	0.297	0.341
-140.472	-130.831	0.075	-0.010
-139.458	-84.771	0.153	0.048
-138.443	-94.954	0.087	0.024
-137.429	246.504	0.095	-0.161
-136.414	-71.561	0.493	-0.185
-135.399	96.022	0.252	0.288
-134.385	317.863	0.058	0.111
-133.370	275.425	-0.185	0.330
-132.356	-130.182	0.456	-0.062
-131.341	241.656	0.095	-0.160
-130.326	-62.724	-0.085	-0.035
-129.312	800.000	-0.071	-0.255
-128.297	66.522	0.157	-0.160
-127.283	4.853	0.383	-0.282
-126.268	255.028	0.172	-0.296
-125.253	95.855	-0.271	-0.310
-124.239	-92.112	-0.085	0.024
-123.224	665.702	0.063	0.164
-122.210	1.999	-0.009	-0.007
-121.195	-62.720	0.139	-0.058
-120.180	-116.991	0.343	-0.063
-119.166	-91.865	-0.258	-0.073
-118.151	1.085	-0.253	-0.182
-117.137	-91.126	-0.071	0.020
-116.122	800.000	-0.033	-0.103
-115.107	379.222	-0.169	0.348
-114.093	-133.809	0.190	-0.024
-113.078	-158.340	0.141	-0.008
-112.064	358.606	0.059	-0.118
-111.049	-67.518	0.124	-0.049
-110.034	18.527	0.106	0.085
-109.020	800.000	0.064	0.259
-108.005	-200.000	-0.031	0.269
-106.991	800.000	-0.083	0.246
-105.976	99.191	-0.070	0.081
-104.962	598.863	0.050	0.124
-103.947	166.942	-0.054	0.077
-102.932	-94.821	-0.029	0.008
-101.918	-78.311	0.412	-0.142
-100.903	-134.819	0.267	0.033
-99.889	-200.000	-0.038	-0.374
-98.874	-110.855	-0.114	0.023
-97.859	-121.389	0.318	0.053
-96.845	31.991	0.094	-0.081
-95.830	-200.000	0.003	-0.112
-94.816	216.661	0.129	0.206
-93.801	-116.596	0.410	-0.076
-92.786	-135.836	0.432	0.051
-91.772	255.678	-0.076	-0.131
-90.757	311.633	-0.073	0.137
-89.743	476.063	-0.059	-0.134
-88.728	161.122	0.014	-0.020
-87.713	-70.129	-0.106	-0.040
-86.699	228.001	-0.075	0.122
-85.684	56.207	0.085	-0.083
-84.670	-182.412	-0.260	-0.005
-83.655	437.059	0.094	0.206
-82.640	73.130	-0.115	0.120
-81.626	-29.842	0.103	0.059
-80.611	-45.755	-0.119	-0.059
-79.597	51.895	-0.093	-0.089
-78.582	-53.562	0.341	-0.156
-77.567	800.000	-0.041	0.151
-76.553	-98.795	0.267	-0.068
-75.538	15.156	0.055	0.043
-74.524	391.971	-0.062	0.128
-73.509	-66.366	0.215	-0.086
-72.494	-150.814	0.202	-0.015
-71.480	174.693	0.142	-0.205
-70.465	293.413	-0.119	0.217
-69.451	96.638	0.351	-0.403
-68.436	-5.124	0.139	-0.096
-67.422	420.221	0.071	-0.152
-66.407	247.698	-0.088	0.149
-65.392	-200.000	-0.001	-0.029
-64.378	-123.298	-0.131	0.021
-63.363	-10.633	-0.282	0.187
-62.349	-200.000	0.043	0.230
-61.334	16.626	-1.020	-0.807
-60.319	-76.082	0.587	-0.208
-59.305	-200.000	-0.011	-0.714
-58.290	114.006	0.403	0.491
-57.276	439.275	0.676	1.477
-56.261	-200.000	74.863	523.076
-55.246	543.533	1304.771	3115.689
-54.232	142.405	2559.034	3399.077
-53.217	108.544	2393.902	2860.017
-52.203	48.918	2132.517	2002.676
-51.188	43.881	2040.727	1870.054
-50.173	42.056	2022.066	1836.167
-49.159	54.006	2059.869	1981.120
-48.144	58.912	2080.351	2046.088
-47.130	44.710	2045.133	1881.454
-46.115	41.938	2033.545	1845.209
-45.100	41.936	2030.351	1842.220
-44.086	41.750	2029.028	1839.234
-43.071	41.772	2025.984	1836.604
-42.057	41.667	2024.104	1833.860
-41.042	41.811	2021.975	1833.180
-40.027	41.776	2019.892	1830.901
-39.013	41.780	2017.504	1828.700
-37.998	41.891	2015.467	1827.789
-36.984	41.852	2013.864	1825.912
-35.969	41.833	2012.345	1824.286
-34.954	41.891	2010.568	1823.131
-33.940	41.950	2008.422	1821.652
-32.925	41.939	2007.029	1820.212
-31.911	41.947	2005.583	1818.903
-30.896	41.870	2003.917	1816.620
-29.881	41.904	2002.612	1815.675
-28.867	41.916	2001.273	1814.497
-27.852	41.956	1998.823	1812.565
-26.838	41.927	1996.843	1810.441
-25.823	41.878	1995.049	1808.294
-24.809	41.988	1993.002	1807.364
-23.794	41.933	1991.974	1805.865
-22.779	41.987	1989.847	1804.348
-21.765	41.909	1987.801	1801.722
-20.750	41.855	1986.890	1800.333
-19.736	41.861	1985.121	1798.719
-18.721	41.950	1983.156	1797.661
-17.706	42.003	1981.307	1796.387
-16.692	41.878	1980.330	1794.308
-15.677	41.891	1978.005	1792.251
-14.663	41.978	1976.450	1791.553
-13.648	41.977	1975.587	1790.686
-12.633	41.944	1974.803	1789.613
-11.619	41.911	1973.246	1787.834
-10.604	41.895	1971.763	1786.278
-9.590	41.863	1970.771	1785.024
-8.575	41.910	1968.584	1783.391
-7.560	41.876	1967.875	1782.373
-6.546	41.966	1966.245	1781.630
-5.531	41.957	1964.997	1780.345
-4.517	41.926	1963.954	1779.055
-3.502	41.846	1963.325	1777.701
-2.487	41.823	1961.547	1775.819
-1.473	41.948	1960.311	1775.739
-0.458	42.081	1956.049	1772.986
0.556	40.888	1937.612	1748.530
1.571	36.821	1916.491	1693.830
2.586	32.330	1937.543	1672.462
3.600	30.864	1975.116	1691.443
4.615	30.021	1972.591	1681.475
5.629	22.575	1864.567	1525.091
6.644	8.782	1729.914	1303.327
7.659	1.534	1683.703	1210.838
8.673	0.955	1679.132	1202.843
9.688	0.728	1678.358	1200.375
10.702	0.768	1676.232	1199.067
11.717	0.640	1673.612	1196.074
12.731	1.040	1673.022	1198.711
13.746	8.989	1694.009	1277.127
14.761	20.360	1718.923	1387.167
15.775	24.378	1725.111	1424.182
16.790	24.340	1724.501	1423.253
17.804	24.352	1723.795	1422.642
18.819	24.530	1722.522	1422.885
19.834	24.504	1722.105	1422.207
20.848	24.652	1721.790	1422.995
21.863	24.712	1720.453	1422.240
22.877	24.640	1719.378	1420.656
23.892	24.734	1718.658	1420.686
24.907	24.706	1717.722	1419.560
25.921	24.718	1716.457	1418.487
26.936	24.706	1715.611	1417.566
27.950	24.726	1714.844	1416.963
28.965	24.680	1714.038	1415.810
29.980	24.687	1712.816	1414.731
30.994	24.733	1711.773	1414.106
32.009	24.775	1710.356	1413.143
33.023	24.647	1709.404	1411.222
34.038	24.696	1708.486	1410.724
35.053	24.783	1707.682	1410.618
36.067	24.630	1706.947	1408.687
37.082	24.759	1705.470	1408.359
38.096	24.750	1704.265	1407.166
39.111	24.737	1703.760	1406.519
40.126	24.757	1702.797	1405.756
41.140	24.709	1702.394	1404.927
42.155	24.714	1700.906	1403.613
43.169	24.766	1699.644	1402.854
44.184	24.786	1699.055	1402.401
45.199	24.690	1697.752	1400.447
46.213	24.636	1696.610	1398.963
47.228	24.683	1695.523	1398.309
48.242	24.663	1694.128	1396.880
49.257	24.779	1692.912	1396.656
50.271	24.779	1691.516	1395.379
51.286	24.752	1690.515	1394.221
52.301	24.744	1689.285	1393.024
53.315	24.695	1687.855	1391.337
54.330	24.745	1686.570	1390.543
55.344	24.816	1684.522	1389.282
56.359	24.766	1683.759	1388.146
57.374	24.784	1682.858	1387.416
58.388	24.706	1682.253	1386.189
59.403	24.703	1680.925	1384.956
60.417	24.826	1679.276	1384.423
61.432	24.737	1678.807	1383.226
62.447	24.744	1677.500	1382.076
63.461	24.735	1676.320	1380.916
64.476	24.811	1675.445	1380.657
65.490	24.775	1674.440	1379.435
66.505	24.756	1673.139	1378.094
67.520	24.809	1672.006	1377.447
68.534	24.804	1671.019	1376.468
69.549	24.821	1670.451	1376.013
70.563	24.753	1669.129	1374.280
71.578	24.775	1668.361	1373.693
72.593	24.747	1667.265	1372.455
73.607	24.791	1665.705	1371.387
74.622	24.875	1664.875	1371.229
75.636	24.761	1664.505	1369.929
76.651	24.830	1663.361	1369.395
77.666	24.793	1662.428	1368.223
78.680	24.727	1662.150	1367.363
79.695	24.799	1660.941	1366.802
80.709	24.765	1659.590	1365.304
81.724	24.821	1659.066	1365.181
82.739	24.782	1657.917	1363.822
83.753	24.730	1657.437	1362.908
84.768	24.824	1655.873	1362.217
85.782	24.776	1654.944	1360.967
86.797	24.689	1654.603	1359.903
87.812	24.836	1653.103	1359.666
88.826	24.824	1651.942	1358.501
89.841	24.757	1651.308	1357.353
90.855	24.788	1650.158	1356.522
91.870	24.825	1649.531	1356.168
92.884	24.848	1648.226	1355.143
93.899	24.795	1647.412	1353.957
94.914	24.826	1645.838	1352.780
95.928	24.813	1644.961	1351.842
96.943	24.834	1643.646	1350.796
97.957	24.804	1642.480	1349.492
98.972	24.727	1640.843	1347.450
99.987	24.852	1639.552	1347.212
101.001	24.774	1638.768	1345.858
102.016	24.773	1636.743	1344.067
103.030	24.799	1635.242	1342.909
104.045	24.834	1634.167	1342.176
105.060	24.704	1633.231	1340.313
106.074	24.795	1631.808	1339.711
107.089	24.811	1630.583	1338.703
108.103	24.715	1629.812	1337.234
109.118	24.802	1628.734	1336.884
110.133	24.808	1627.270	1335.606
111.147	24.857	1625.909	1334.734
112.162	24.914	1624.902	1334.216
113.176	24.892	1623.516	1332.793
114.191	24.897	1622.441	1331.836
115.206	24.955	1621.344	1331.242
116.220	24.909	1620.552	1330.137
117.235	24.789	1619.129	1327.958
118.249	24.780	1618.009	1326.858
119.264	24.846	1616.953	1326.362
120.279	24.837	1615.566	1325.043
121.293	24.802	1614.618	1323.888
122.308	24.915	1612.910	1323.202
123.322	24.898	1611.920	1322.152
124.337	24.920	1610.592	1321.104
125.352	24.911	1609.645	1320.146
126.366	25.017	1608.738	1320.067
127.381	24.973	1607.843	1318.892
128.395	24.918	1607.299	1317.922
129.410	24.950	1605.789	1316.801
130.424	24.908	1604.726	1315.504
131.439	24.891	1603.379	1314.160
132.454	24.993	1602.022	1313.682
133.468	25.001	1600.934	1312.731
134.483	24.953	1599.776	1311.315
135.497	24.993	1598.217	1310.214
136.512	24.960	1597.435	1309.217
137.527	24.912	1596.306	1307.825
138.541	25.098	1594.544	1307.618
139.556	24.985	1593.298	1305.658
140.570	25.000	1592.050	1304.632
141.585	25.031	1591.084	1303.948
142.600	24.940	1590.528	1302.716
143.614	25.013	1589.145	1302.001
144.629	25.003	1587.965	1300.842
145.643	25.017	1586.737	1299.823
146.658	24.993	1585.110	1298.201
147.673	24.874	1584.069	1296.373
148.687	24.959	1582.785	1295.820
149.702	24.956	1581.788	1294.868
150.716	24.921	1579.971	1293.015
151.731	24.926	1579.314	1292.397
152.746	25.008	1577.897	1291.715
153.760	24.999	1576.897	1290.721
154.775	24.980	1575.774	1289.551
155.789	24.939	1575.002	1288.512
156.804	24.938	1573.746	1287.364
157.819	25.022	1572.755	1287.042
158.833	24.959	1571.611	1285.537
159.848	24.926	1570.646	1284.393
160.862	25.055	1569.282	1284.094
161.877	25.011	1568.897	1283.348
162.892	25.022	1567.976	1282.561
163.906	25.028	1567.005	1281.693
164.921	25.073	1565.539	1280.703
165.935	25.072	1564.600	1279.813
166.950	25.043	1563.778	1278.822
167.964	25.098	1562.822	1278.317
168.979	25.090	1562.107	1277.566
169.994	25.029	1560.977	1276.095
171.008	25.129	1560.222	1276.075
172.023	25.060	1559.240	1274.670
173.037	25.142	1557.920	1274.062
174.052	25.121	1556.686	1272.791
175.067	25.114	1556.010	1272.074
176.081	25.067	1554.954	1270.767
177.096	25.061	1554.241	1270.023
178.110	25.035	1552.799	1268.551
179.125	25.058	1552.176	1268.096
180.140	25.085	1551.166	1267.348
181.154	25.209	1550.078	1267.222
182.169	25.252	1549.336	1266.810
183.183	25.142	1548.040	1264.861
184.198	25.039	1547.395	1263.492
185.213	25.093	1546.717	1263.210
186.227	25.100	1545.868	1262.454
187.242	25.159	1544.812	1261.896
188.256	25.148	1544.020	1261.057
189.271	25.213	1543.043	1260.603
190.286	25.178	1542.519	1259.823
191.300	25.183	1541.602	1258.996
192.315	25.190	1540.913	1258.372
193.329	25.253	1539.727	1257.730
194.344	25.156	1538.697	1256.100
195.359	25.177	1538.276	1255.789
196.373	25.235	1537.184	1255.197
197.388	25.167	1536.449	1254.009
198.402	25.117	1535.237	1252.561
199.417	25.211	1534.309	1252.347
200.432	25.182	1533.360	1251.260
201.446	25.095	1533.261	1250.464
202.461	25.110	1532.108	1249.512
203.475	25.165	1531.109	1248.974
204.490	25.173	1530.199	1248.173
205.504	25.202	1529.335	1247.563
206.519	25.158	1528.332	1246.325
207.534	25.166	1527.809	1245.847
208.548	25.298	1526.933	1245.936
209.563	25.226	1526.019	1244.582
210.577	25.296	1524.732	1243.904
211.592	25.283	1524.435	1243.462
212.607	25.208	1523.613	1242.168
213.621	25.239	1523.020	1241.788
214.636	25.316	1522.458	1241.748
215.650	25.252	1521.431	1240.362
216.665	25.355	1520.179	1239.938
217.680	25.272	1519.848	1238.988
218.694	25.359	1518.722	1238.562
219.709	25.391	1517.576	1237.736
220.723	25.349	1516.854	1236.752
221.738	25.355	1516.229	1236.172
222.753	25.288	1515.417	1234.941
223.767	25.262	1514.595	1233.983
224.782	25.180	1513.829	1232.687
225.796	25.300	1512.815	1232.571
226.811	25.430	1512.180	1232.842
227.826	25.393	1511.193	1231.671
228.840	25.372	1510.734	1231.045
229.855	25.423	1510.096	1230.769
230.869	25.299	1509.052	1228.956
231.884	25.346	1508.019	1228.328
232.899	25.332	1506.876	1227.196
233.913	25.352	1505.543	1226.138
234.928	25.380	1504.496	1225.364
235.942	25.337	1503.951	1224.517
236.957	25.406	1502.703	1223.863
237.972	25.442	1501.225	1222.799
238.986	25.467	1500.312	1222.119
240.001	25.441	1499.665	1221.303
241.015	25.407	1498.761	1220.233
242.030	25.519	1497.970	1220.238
243.045	25.626	1496.797	1219.897
244.059	25.527	1495.948	1218.428
245.074	25.523	1495.439	1217.883
246.088	25.584	1494.701	1217.583
247.103	25.484	1493.953	1216.191
248.117	25.666	1492.649	1216.250
249.132	25.496	1492.248	1214.667
250.147	25.607	1491.347	1214.577
251.161	25.650	1490.591	1214.147
252.176	25.645	1490.021	1213.537
253.190	25.698	1489.337	1213.229
254.205	25.609	1488.434	1211.789
255.220	25.728	1487.464	1211.695
256.234	25.632	1486.982	1210.549
257.249	25.670	1486.278	1210.124
258.263	25.638	1485.523	1209.184
259.278	25.687	1484.622	1208.675
260.293	25.627	1483.873	1207.558
261.307	25.732	1482.955	1207.402
262.322	25.664	1482.454	1206.435
263.336	25.652	1481.856	1205.760
264.351	25.724	1480.370	1204.930
265.366	25.678	1479.668	1203.943
266.380	25.697	1478.933	1203.363
267.395	25.733	1477.626	1202.435
268.409	25.712	1476.947	1201.635
269.424	25.637	1476.303	1200.507
270.439	25.590	1475.794	1199.672
271.453	25.705	1474.555	1199.322
272.468	25.832	1473.661	1199.334
273.482	25.740	1473.059	1198.127
274.497	25.737	1471.856	1197.024
275.512	25.849	1470.762	1196.771
276.526	25.793	1470.315	1195.928
277.541	25.798	1469.301	1195.036
278.555	25.755	1468.751	1194.193
279.570	25.823	1468.223	1194.108
280.585	25.835	1466.965	1193.062
281.599	25.857	1466.174	1192.455
282.614	25.782	1465.364	1191.198
283.628	25.821	1464.297	1190.485
284.643	25.846	1463.227	1189.671
285.657	25.857	1462.745	1189.246
286.672	25.790	1461.951	1188.058
287.687	25.828	1460.987	1187.415
288.701	25.907	1459.641	1186.740
289.716	25.855	1459.284	1185.998
290.730	25.821	1459.114	1185.530
291.745	25.978	1457.532	1185.178
292.760	25.982	1456.716	1184.435
293.774	25.936	1455.764	1183.251
294.789	25.860	1455.390	1182.344
295.803	25.951	1454.428	1182.056
296.818	25.970	1453.522	1181.339
297.833	25.922	1452.739	1180.281
298.847	26.021	1451.658	1179.950
299.862	26.062	1450.844	1179.451
300.876	25.938	1450.247	1178.051
301.891	25.957	1449.066	1177.109
302.906	25.941	1449.054	1176.892
303.920	26.086	1447.841	1176.748
304.935	26.003	1447.727	1176.012
305.949	26.080	1446.680	1175.560
306.964	26.011	1445.539	1174.078
307.979	26.058	1444.670	1173.574
308.993	26.148	1444.079	1173.575
310.008	26.186	1442.859	1172.727
311.022	26.127	1442.541	1171.979
312.037	26.118	1441.097	1170.646
313.052	26.185	1440.170	1170.225
314.066	26.066	1439.456	1168.772
315.081	26.187	1438.374	1168.570
316.095	26.123	1437.674	1167.486
317.110	26.071	1436.928	1166.440
318.125	26.135	1435.979	1165.979
319.139	26.276	1434.726	1165.770
320.154	26.113	1434.391	1164.341
321.168	26.223	1433.497	1164.224
322.183	26.220	1432.183	1163.030
323.197	26.285	1431.403	1162.713
324.212	26.292	1430.380	1161.825
325.227	26.286	1429.784	1161.201
326.241	26.266	1429.116	1160.424
327.256	26.242	1428.831	1159.938
328.270	26.263	1427.831	1159.159
329.285	26.324	1426.746	1158.563
330.300	26.318	1425.792	1157.649
331.314	26.379	1424.963	1157.265
332.329	26.270	1424.458	1156.053
333.343	26.341	1423.531	1155.652
334.358	26.415	1422.696	1155.348
335.373	26.320	1422.599	1154.558
336.387	26.364	1421.410	1153.776
337.402	26.435	1420.373	1153.284
338.416	26.408	1420.001	1152.707
339.431	26.504	1419.562	1152.857
340.446	26.486	1418.875	1152.087
341.460	26.560	1418.041	1151.775
342.475	26.541	1416.966	1150.681
343.489	26.510	1416.245	1149.798
344.504	26.513	1415.307	1148.949
345.519	26.485	1414.271	1147.829
346.533	26.479	1413.373	1146.960
347.548	26.555	1412.820	1146.898
348.562	26.503	1411.953	1145.762
349.577	26.502	1411.186	1145.029
350.592	26.499	1410.572	1144.414
351.606	26.460	1409.441	1143.148
352.621	26.476	1408.479	1142.367
353.635	26.527	1407.162	1141.517
354.650	26.498	1406.770	1140.919
355.665	26.550	1405.986	1140.506
356.679	26.595	1404.671	1139.622
357.694	26.632	1403.978	1139.193
358.708	26.748	1402.635	1138.730
359.723	26.695	1401.355	1137.260
360.738	26.751	1400.378	1136.714
361.752	26.705	1399.265	1135.422
362.767	26.554	1398.592	1133.834
363.781	26.581	1397.714	1133.190
364.796	26.676	1396.881	1133.006
365.810	26.712	1396.123	1132.515
366.825	26.697	1395.430	1131.762
367.840	26.753	1394.656	1131.382
368.854	26.681	1394.428	1130.650
369.869	26.772	1393.564	1130.416
370.883	26.724	1393.114	1129.653
371.898	26.840	1392.149	1129.492
372.913	26.768	1391.356	1128.299
373.927	26.816	1390.441	1127.755
374.942	26.737	1389.582	1126.469
375.956	26.864	1389.108	1126.773
376.971	26.837	1388.686	1126.163
377.986	26.802	1387.613	1124.977
379.000	26.849	1386.627	1124.371
380.015	26.884	1386.163	1124.110
381.029	26.889	1385.557	1123.552
382.044	26.827	1384.758	1122.419
383.059	26.908	1383.791	1122.038
384.073	26.921	1383.323	1121.637
385.088	26.912	1383.084	1121.293
386.102	26.962	1382.058	1120.666
387.117	26.971	1381.575	1120.232
388.132	27.015	1380.867	1119.828
389.146	26.977	1379.832	1118.660
390.161	27.091	1378.705	1118.350
391.175	26.967	1378.949	1117.684
392.190	26.957	1377.760	1116.558
393.205	27.002	1377.432	1116.469
394.219	26.981	1376.442	1115.441
395.234	27.057	1375.119	1114.738
396.248	26.974	1374.244	1113.419
397.263	27.135	1373.166	1113.431
398.278	27.041	1372.287	1112.049
399.292	27.223	1370.871	1111.915
400.307	27.143	1369.940	1110.573
401.321	27.192	1368.958	1109.974
402.336	27.134	1368.703	1109.317
403.350	27.133	1367.305	1108.080
404.365	27.242	1366.594	1108.068
405.380	27.135	1366.213	1107.014
406.394	27.136	1364.923	1105.877
407.409	27.178	1363.924	1105.224
408.423	27.201	1363.643	1105.039
409.438	27.267	1362.678	1104.557
410.453	27.321	1361.814	1104.088
411.467	27.283	1361.352	1103.386
412.482	27.323	1360.645	1102.955
413.496	27.259	1360.240	1102.141
414.511	27.192	1359.637	1101.149
415.526	27.306	1358.599	1100.902
416.540	27.280	1357.958	1100.129
417.555	27.322	1357.167	1099.641
418.569	27.334	1356.580	1099.147
419.584	27.410	1356.433	1099.387
420.599	27.359	1355.584	1098.295
421.613	76.155	1324.089	1350.981
422.628	77.058	1319.498	1351.119
