DTS Sentinel unit serial number:	SN413079Multiplexer serial number:	ORYXHardware model number:	OX4-SRSoftware version number:	ORYX F/W v4.00 Oryx Data Collector v3.7.2.0data status	okinstallation	princeton_trtdifferential loss correction	single-endedforward channel	channel 4reverse channel	N/Adate	2019/09/11time	21:43:11forward acquisition time	60.00reverse acquisition time	0.00gamma	496.2192k internal	0.2306k external	0.2306temperature offset calibration	1.0065default loss term (dB/km)	0.3790temperature slope calibration	1.0000multiplexer offset coefficient	1.0000multiplexer slope coefficient	1.0000fibre end	0.00T internal ref (°C)	35.80T ext. ref 1 (°C)	1.63T ext. ref 2 (°C)	30.19length (m)	temperature (°C)	Stokes	anti-Stokes-747.200	-27.864	0.095	0.056
-746.185	-97.346	-0.299	-0.079
-745.171	-166.181	-0.265	0.011
-744.156	109.971	0.168	0.205
-743.142	432.240	-0.084	0.185
-742.127	800.000	-0.029	0.085
-741.112	-22.523	0.233	0.144
-740.098	-141.080	-0.249	0.026
-739.083	-45.682	-0.164	0.083
-738.069	-200.000	0.075	0.411
-737.054	-10.545	0.061	-0.041
-736.039	286.671	-0.197	-0.361
-735.025	-200.000	0.017	0.091
-734.010	-200.000	0.025	-0.377
-732.996	-200.000	0.003	0.089
-731.981	-49.681	-0.037	-0.018
-730.966	800.000	0.098	-0.355
-729.952	-42.838	0.263	0.136
-728.937	-98.038	-0.165	0.043
-727.923	-147.202	-0.105	-0.009
-726.908	6.771	-0.335	-0.253
-725.894	-63.356	-0.248	0.104
-724.879	-100.085	0.429	-0.109
-723.864	219.967	-0.163	0.265
-722.850	-31.083	-0.108	-0.062
-721.835	-122.484	-0.315	0.052
-720.821	235.916	-0.149	0.250
-719.806	-200.000	0.019	0.254
-718.791	96.274	-0.212	-0.247
-717.777	166.526	-0.181	0.260
-716.762	800.000	0.013	-0.044
-715.748	-200.000	-0.033	0.408
-714.733	172.156	0.181	-0.265
-713.718	144.542	-0.054	0.074
-712.704	152.976	0.089	0.123
-711.689	30.250	-0.081	-0.070
-710.675	-100.283	-0.227	0.057
-709.660	-200.000	0.016	-0.397
-708.645	800.000	0.041	-0.172
-707.631	-85.251	0.229	-0.073
-706.616	800.000	-0.079	-0.232
-705.602	-200.000	0.042	-0.407
-704.587	-69.288	0.130	-0.051
-703.572	-200.000	-0.029	0.365
-702.558	2.942	0.133	0.098
-701.543	15.101	-0.259	0.206
-700.529	-200.000	-0.005	-0.190
-699.514	241.640	-0.165	0.279
-698.499	800.000	-0.053	0.234
-697.485	800.000	-0.051	0.171
-696.470	45.722	0.293	0.275
-695.456	-145.177	0.010	-0.001
-694.441	34.916	0.145	-0.129
-693.426	49.948	-0.027	0.026
-692.412	800.000	0.045	-0.161
-691.397	-83.577	0.102	-0.033
-690.383	116.251	0.167	0.208
-689.368	745.181	-0.061	-0.165
-688.354	206.851	0.109	0.172
-687.339	-200.000	0.035	-0.193
-686.324	-60.628	-0.243	-0.105
-685.310	-22.713	0.133	-0.082
-684.295	800.000	-0.043	0.162
-683.281	-200.000	0.017	0.199
-682.266	-200.000	-0.003	0.340
-681.251	-7.654	0.335	0.230
-680.237	-69.278	-0.187	-0.073
-679.222	-66.901	0.202	0.081
-678.208	-81.862	0.096	0.032
-677.193	588.711	-0.045	-0.113
-676.178	177.016	-0.109	-0.161
-675.164	9.720	0.077	-0.059
-674.149	-33.302	0.326	-0.183
-673.135	-200.000	0.031	-0.215
-672.120	-200.000	0.039	0.186
-671.105	399.460	-0.045	-0.096
-670.091	-42.966	0.171	-0.088
-669.076	-92.173	0.183	-0.052
-668.062	-62.568	-0.195	-0.082
-667.047	800.000	-0.003	0.010
-666.032	800.000	-0.086	-0.276
-665.018	-98.514	0.093	-0.024
-664.003	800.000	-0.044	0.135
-662.989	-200.000	0.001	-0.050
-661.974	-58.013	0.148	-0.066
-660.959	-18.348	-0.187	0.119
-659.945	-181.188	-0.021	-0.000
-658.930	800.000	-0.111	0.324
-657.916	800.000	-0.081	-0.306
-656.901	800.000	-0.060	0.230
-655.886	-200.000	-0.035	0.161
-654.872	-164.654	-0.080	0.004
-653.857	6.912	-0.065	-0.049
-652.843	25.016	0.135	0.113
-651.828	519.771	-0.143	0.340
-650.814	-200.000	0.017	-0.122
-649.799	-42.356	0.137	-0.071
-648.784	34.518	-0.185	-0.164
-647.770	349.642	-0.148	-0.297
-646.755	-104.323	0.088	-0.021
-645.741	-41.130	-0.302	-0.158
-644.726	101.395	0.125	0.148
-643.711	270.102	0.061	0.109
-642.697	62.878	0.018	-0.018
-641.682	800.000	0.067	-0.219
-640.668	405.443	0.073	0.157
-639.653	7.404	-0.258	-0.195
-638.638	145.594	0.153	-0.208
-637.624	-66.499	-0.139	-0.056
-636.609	69.091	-0.135	-0.141
-635.595	21.904	-0.029	-0.024
-634.580	55.202	-0.235	0.230
-633.565	-200.000	0.005	0.033
-632.551	533.968	-0.082	-0.198
-631.536	-98.640	-0.119	-0.031
-630.522	-122.884	0.186	-0.030
-629.507	42.676	-0.051	-0.047
-628.492	252.540	-0.136	0.234
-627.478	800.000	-0.179	0.672
-626.463	564.707	0.024	0.060
-625.449	490.834	-0.102	0.237
-624.434	434.858	-0.135	-0.297
-623.419	800.000	0.042	-0.139
-622.405	-36.922	-0.198	0.108
-621.390	393.464	0.103	0.218
-620.376	-141.235	-0.207	-0.021
-619.361	150.575	0.189	0.260
-618.346	-111.009	0.260	0.054
-617.332	2.904	-0.307	0.225
-616.317	-200.000	0.003	-0.115
-615.303	371.756	-0.189	-0.389
-614.288	-200.000	0.012	-0.100
-613.273	-10.987	0.173	0.116
-612.259	166.775	0.137	-0.197
-611.244	-151.007	-0.039	-0.003
-610.230	148.784	0.051	-0.069
-609.215	-200.000	-0.031	-0.429
-608.201	-99.141	0.120	0.031
-607.186	-166.715	0.208	-0.009
-606.171	67.341	0.093	0.096
-605.157	-155.617	0.198	-0.013
-604.142	-32.748	0.321	-0.181
-603.128	-88.644	-0.133	0.040
-602.113	297.389	0.153	-0.284
-601.098	50.052	-0.248	-0.237
-600.084	800.000	0.055	0.210
-599.069	-104.941	-0.216	0.050
-598.055	26.192	0.126	0.106
-597.040	-200.000	-0.021	0.175
-596.025	-51.074	0.171	0.081
-595.011	-49.984	-0.126	-0.061
-593.996	-142.256	0.108	0.011
-592.982	-131.746	0.430	-0.057
-591.967	85.892	0.167	-0.186
-590.952	-200.000	0.027	0.119
-589.938	4.120	0.110	0.081
-588.923	115.863	0.028	-0.034
-587.909	152.611	0.054	0.074
-586.894	11.267	-0.093	-0.072
-585.879	800.000	-0.066	-0.224
-584.865	-136.665	-0.390	0.046
-583.850	219.671	-0.368	-0.596
-582.836	-174.202	0.101	0.003
-581.821	447.978	0.111	0.246
-580.806	-167.698	-0.178	0.007
-579.792	15.163	-0.145	-0.115
-578.777	800.000	-0.036	-0.149
-577.763	-109.656	-0.286	-0.061
-576.748	-192.299	0.184	-0.002
-575.733	-200.000	-0.026	-0.301
-574.719	-109.099	-0.277	-0.060
-573.704	-200.000	0.022	-0.116
-572.690	187.543	0.060	0.090
-571.675	-92.238	0.259	0.074
-570.661	-9.454	0.238	-0.161
-569.646	-140.284	-0.216	0.023
-568.631	800.000	-0.053	0.215
-567.617	120.406	-0.317	-0.398
-566.602	-190.022	-0.169	-0.002
-565.588	196.655	-0.088	-0.136
-564.573	-145.338	0.283	-0.026
-563.558	-200.000	-0.010	0.234
-562.544	122.799	0.133	0.169
-561.529	-71.745	-0.062	0.024
-560.515	-200.000	-0.044	0.219
-559.500	41.082	-0.060	0.055
-558.485	-144.430	0.057	0.005
-557.471	-112.478	-0.081	-0.016
-556.456	59.240	-0.223	0.221
-555.442	-56.335	-0.321	0.144
-554.427	279.325	0.078	-0.141
-553.412	78.589	-0.105	0.113
-552.398	800.000	0.051	0.206
-551.383	-54.771	-0.187	-0.085
-550.369	-200.000	0.009	0.067
-549.354	499.316	-0.111	-0.259
-548.339	-131.342	0.378	0.051
-547.325	-48.374	0.121	-0.059
-546.310	800.000	0.112	-0.392
-545.296	800.000	0.051	-0.222
-544.281	264.202	-0.081	0.142
-543.266	800.000	0.053	-0.214
-542.252	-4.850	-0.330	0.230
-541.237	44.979	0.067	0.062
-540.223	800.000	0.040	-0.161
-539.208	-200.000	0.013	0.100
-538.193	800.000	0.041	0.148
-537.179	27.542	-0.194	0.165
-536.164	113.415	-0.039	0.048
-535.150	800.000	-0.026	-0.077
-534.135	632.735	-0.105	-0.270
-533.121	-122.946	0.267	-0.043
-532.106	-11.717	0.114	-0.076
-531.091	-4.735	-0.271	0.189
-530.077	126.543	-0.065	-0.084
-529.062	-140.471	0.239	-0.025
-528.048	155.432	0.204	0.284
-527.033	-57.060	0.236	-0.105
-526.018	46.693	0.074	-0.070
-525.004	22.901	-0.209	-0.173
-523.989	-77.943	-0.428	0.149
-522.975	-50.423	-0.293	-0.139
-521.960	78.988	0.053	0.057
-520.945	-44.451	-0.078	-0.039
-519.931	-200.000	-0.003	0.026
-518.916	-200.000	0.021	0.213
-517.902	293.664	-0.100	-0.184
-516.887	99.165	0.036	0.042
-515.872	5.499	-0.308	-0.230
-514.858	-72.430	-0.352	0.131
-513.843	-97.833	-0.088	0.023
-512.829	456.664	0.078	-0.176
-511.814	-8.657	-0.322	0.218
-510.799	-29.012	-0.066	-0.038
-509.785	304.041	-0.022	0.042
-508.770	156.536	0.097	0.135
-507.756	-200.000	-0.057	-0.258
-506.741	-7.823	-0.457	-0.311
-505.726	250.836	0.076	0.130
-504.712	-160.441	0.181	-0.010
-503.697	99.023	0.115	-0.134
-502.683	-200.000	0.027	0.497
-501.668	-114.588	0.160	0.031
-500.653	-58.442	-0.275	0.120
-499.639	20.354	0.358	0.291
-498.624	-200.000	0.005	0.155
-497.610	162.523	0.153	0.216
-496.595	800.000	0.081	0.267
-495.581	-108.632	-0.190	0.041
-494.566	103.118	0.078	-0.093
-493.551	80.882	0.159	-0.173
-492.537	-152.756	-0.223	0.016
-491.522	-96.547	-0.181	0.048
-490.508	-200.000	-0.026	0.159
-489.493	-200.000	-0.009	-0.229
-488.478	-200.000	0.014	-0.273
-487.464	-30.210	0.105	-0.060
-486.449	-62.779	-0.328	-0.137
-485.435	-200.000	0.005	0.029
-484.420	431.385	-0.148	0.323
-483.405	240.236	0.095	-0.159
-482.391	-200.000	0.041	-0.239
-481.376	106.078	-0.105	-0.125
-480.362	-114.368	-0.108	0.021
-479.347	-136.466	0.289	-0.034
-478.332	-154.199	-0.133	-0.009
-477.318	800.000	-0.091	-0.274
-476.303	-29.687	-0.259	-0.149
-475.289	-61.513	0.119	-0.050
-474.274	331.822	-0.101	0.196
-473.259	90.879	-0.052	-0.059
-472.245	-200.000	-0.011	0.061
-471.230	126.030	0.153	0.195
-470.216	800.000	0.069	0.197
-469.201	-200.000	-0.016	-0.158
-468.186	-96.203	0.319	-0.085
-467.172	-200.000	0.047	0.298
-466.157	-181.261	-0.188	-0.004
-465.143	-200.000	-0.081	0.365
-464.128	263.760	-0.104	-0.181
-463.113	-86.989	-0.221	0.068
-462.099	800.000	0.123	0.460
-461.084	-28.637	0.095	-0.055
-460.070	138.118	-0.053	-0.070
-459.055	800.000	-0.011	-0.043
-458.040	526.430	-0.072	-0.170
-457.026	-132.587	0.109	0.014
-456.011	-85.788	-0.186	-0.058
-454.997	27.886	-0.111	0.094
-453.982	-200.000	-0.030	0.360
-452.968	-200.000	0.020	-0.248
-451.953	477.525	-0.088	-0.200
-450.938	39.501	-0.067	-0.060
-449.924	372.885	-0.071	-0.145
-448.909	-200.000	0.012	0.082
-447.895	-200.000	0.054	0.328
-446.880	-54.321	0.065	0.030
-445.865	-12.620	-0.168	-0.110
-444.851	-45.501	0.361	-0.180
-443.836	-12.171	-0.272	-0.179
-442.822	-94.763	0.175	0.048
-441.807	714.167	-0.104	-0.277
-440.792	195.890	0.053	-0.081
-439.778	12.022	-0.190	-0.147
-438.763	800.000	0.060	0.219
-437.749	-160.059	-0.036	-0.002
-436.734	-87.650	-0.250	0.076
-435.719	-130.558	0.124	0.017
-434.705	-127.841	0.266	-0.039
-433.690	156.449	0.080	0.111
-432.676	-200.000	-0.072	0.430
-431.661	108.012	0.175	0.210
-430.646	-57.873	-0.587	-0.258
-429.632	-130.764	-0.089	0.012
-428.617	-200.000	-0.027	-0.183
-427.603	10.285	0.069	-0.053
-426.588	-200.000	-0.045	-0.520
-425.573	318.227	-0.110	-0.210
-424.559	-200.000	0.014	0.416
-423.544	111.633	-0.104	0.126
-422.530	-73.221	0.337	-0.124
-421.515	-11.457	0.135	0.089
-420.500	-83.508	0.382	-0.123
-419.486	-43.337	-0.074	-0.037
-418.471	142.876	-0.121	-0.161
-417.457	56.718	0.122	-0.120
-416.442	-170.473	-0.088	-0.003
-415.428	800.000	-0.051	0.217
-414.413	-200.000	-0.053	0.277
-413.398	14.934	0.260	0.204
-412.384	107.126	-0.131	-0.157
-411.369	309.424	0.069	-0.129
-410.355	315.183	-0.152	-0.289
-409.340	-15.892	-0.195	0.124
-408.325	-54.873	-0.041	-0.018
-407.311	413.359	0.056	0.119
-406.296	-83.813	-0.330	-0.106
-405.282	800.000	0.130	0.465
-404.267	-13.947	0.231	-0.150
-403.252	54.146	-0.233	0.225
-402.238	800.000	0.036	-0.146
-401.223	1.433	0.209	-0.151
-400.209	-143.309	-0.389	-0.037
-399.194	1.130	0.316	0.227
-398.179	-191.879	0.058	-0.001
-397.165	-200.000	-0.026	-0.253
-396.150	93.962	-0.234	-0.267
-395.136	-141.722	0.178	-0.018
-394.121	-14.281	0.170	0.110
-393.106	89.230	0.177	-0.197
-392.092	-63.567	-0.269	0.111
-391.077	-28.336	-0.216	-0.125
-390.063	-79.491	0.267	-0.090
-389.048	185.406	-0.087	-0.130
-388.033	-116.569	0.082	0.015
-387.019	144.499	-0.139	0.186
-386.004	761.446	0.041	-0.111
-384.990	800.000	0.116	-0.351
-383.975	426.072	-0.117	-0.254
-382.960	53.153	0.116	0.111
-381.946	-88.320	0.484	0.145
-380.931	-200.000	-0.033	-0.227
-379.917	-200.000	0.003	-0.291
-378.902	-86.156	0.454	0.140
-377.888	-127.777	0.258	-0.037
-376.873	-200.000	0.003	0.018
-375.858	-16.776	-0.108	0.068
-374.844	-74.895	0.270	0.097
-373.829	46.672	-0.089	-0.083
-372.815	43.619	-0.088	-0.081
-371.800	-34.439	-0.125	-0.068
-370.785	-29.526	-0.046	0.026
-369.771	26.982	0.330	0.278
-368.756	-62.584	0.130	-0.054
-367.742	44.491	0.091	0.084
-366.727	-121.882	0.328	-0.054
-365.712	28.989	-0.028	-0.024
-364.698	-46.379	-0.108	-0.053
-363.683	-81.082	-0.088	0.029
-362.669	-78.770	0.320	0.109
-361.654	800.000	-0.031	-0.088
-360.639	-92.329	-0.211	0.060
-359.625	-136.540	0.129	0.015
-358.610	-51.449	-0.201	0.094
-357.596	-121.975	-0.231	-0.038
-356.581	349.428	0.016	0.031
-355.566	800.000	0.018	0.075
-354.552	16.888	0.148	-0.117
-353.537	-200.000	-0.069	-0.313
-352.523	-134.220	-0.164	0.020
-351.508	68.598	-0.202	0.207
-350.493	4.977	-0.355	-0.262
-349.479	-41.749	0.372	-0.191
-348.464	-56.017	-0.039	-0.017
-347.450	-200.000	0.019	0.176
-346.435	517.109	0.090	0.212
-345.420	-99.959	-0.035	-0.009
-344.406	71.394	0.145	-0.151
-343.391	39.636	-0.088	-0.079
-342.377	86.156	-0.147	0.163
-341.362	55.859	0.127	-0.123
-340.348	800.000	-0.019	0.069
-339.333	137.509	0.226	0.296
-338.318	800.000	0.098	0.385
-337.304	220.413	0.103	-0.165
-336.289	800.000	-0.133	0.424
-335.275	-200.000	0.008	0.241
-334.260	511.674	-0.139	0.323
-333.245	-200.000	0.008	0.190
-332.231	-77.185	-0.100	-0.035
-331.216	-125.958	-0.113	-0.017
-330.202	-27.550	0.086	-0.050
-329.187	-122.531	0.227	0.037
-328.172	800.000	0.047	-0.154
-327.158	-120.326	0.118	-0.020
-326.143	-26.980	0.186	0.108
-325.129	-66.201	0.111	-0.044
-324.114	227.243	0.147	-0.240
-323.099	103.637	-0.120	-0.141
-322.085	-200.000	-0.009	0.092
-321.070	-200.000	-0.008	0.069
-320.056	800.000	-0.052	-0.180
-319.041	-79.820	0.204	0.069
-318.026	-121.367	-0.547	-0.091
-317.012	-59.037	-0.248	-0.107
-315.997	68.191	0.147	0.150
-314.983	220.326	0.120	0.192
-313.968	-63.801	0.138	0.056
-312.953	-195.021	0.216	0.002
-311.939	-174.555	0.105	-0.003
-310.924	19.583	0.022	0.017
-309.910	-102.054	0.207	-0.050
-308.895	-116.832	0.133	-0.024
-307.880	13.701	-0.339	0.264
-306.866	-106.853	-0.229	-0.051
-305.851	800.000	0.005	-0.015
-304.837	58.931	-0.136	0.134
-303.822	230.176	-0.019	0.031
-302.807	-12.111	-0.097	0.064
-301.793	-136.527	-0.101	0.012
-300.778	191.813	0.080	0.121
-299.764	800.000	-0.094	-0.271
-298.749	-200.000	-0.063	-0.331
-297.735	274.623	0.026	0.046
-296.720	-32.191	-0.298	-0.167
-295.705	-36.784	-0.168	0.090
-294.691	800.000	0.011	0.037
-293.676	-132.233	0.285	0.037
-292.662	-200.000	-0.023	-0.344
-291.647	38.652	-0.309	-0.275
-290.632	-101.907	-0.301	-0.073
-289.618	221.775	-0.147	0.236
-288.603	-117.545	-0.206	0.037
-287.589	23.969	0.175	-0.144
-286.574	-145.215	0.260	-0.024
-285.559	466.317	-0.183	0.411
-284.545	-200.000	0.001	-0.266
-283.530	-4.666	0.132	-0.091
-282.516	66.307	-0.193	-0.196
-281.501	-200.000	0.032	-0.195
-280.486	-76.821	-0.346	0.121
-279.472	-100.421	0.307	-0.076
-278.457	553.052	-0.111	0.267
-277.443	-106.770	-0.188	0.042
-276.428	-200.000	0.031	0.172
-275.413	-83.356	-0.157	0.050
-274.399	74.645	0.059	-0.062
-273.384	81.050	0.131	0.142
-272.370	17.926	-0.158	0.126
-271.355	-77.661	0.076	-0.026
-270.340	800.000	0.047	0.206
-269.326	99.564	0.129	0.149
-268.311	-42.870	0.176	-0.089
-267.297	-200.000	-0.001	0.116
-266.282	-73.902	0.216	-0.078
-265.267	216.267	0.098	-0.156
-264.253	800.000	-0.013	0.047
-263.238	-127.164	0.426	0.062
-262.224	86.331	0.096	0.105
-261.209	159.205	0.070	-0.097
-260.195	-20.297	0.155	-0.095
-259.180	-89.744	0.187	0.055
-258.165	318.005	0.130	-0.246
-257.151	95.604	-0.230	-0.262
-256.136	-112.665	0.297	0.059
-255.122	-200.000	0.016	-0.288
-254.107	5.689	0.207	0.153
-253.092	596.162	0.062	0.152
-252.078	-25.956	0.308	-0.181
-251.063	373.687	0.128	-0.259
-250.049	36.215	0.212	0.186
-249.034	81.309	-0.054	0.058
-248.019	-191.097	0.303	0.003
-247.005	-200.000	-0.017	-0.090
-245.990	195.398	-0.131	-0.199
-244.976	-104.434	0.227	0.052
-243.961	-87.941	-0.306	0.092
-242.946	-127.288	0.054	-0.008
-241.932	-55.813	-0.135	-0.060
-240.917	-24.646	0.201	0.120
-239.903	-129.772	-0.134	0.018
-238.888	-124.494	0.290	0.045
-237.873	-47.129	0.106	0.051
-236.859	-200.000	-0.001	-0.071
-235.844	-55.486	0.314	0.141
-234.830	-200.000	-0.059	0.479
-233.815	246.258	0.057	0.096
-232.800	139.101	-0.117	-0.153
-231.786	-60.487	-0.297	0.126
-230.771	499.588	-0.099	0.228
-229.757	-200.000	0.017	0.100
-228.742	-36.091	0.161	0.087
-227.727	-73.553	-0.224	-0.081
-226.713	48.667	0.095	0.089
-225.698	-200.000	0.020	0.411
-224.684	339.881	0.015	-0.030
-223.669	441.286	0.082	0.179
-222.655	-17.011	-0.048	-0.030
-221.640	-43.181	-0.189	-0.095
-220.625	-77.357	0.090	0.031
-219.611	374.662	0.137	0.278
-218.596	141.745	0.287	0.379
-217.582	-122.257	-0.087	-0.014
-216.567	-130.400	0.363	-0.049
-215.552	57.201	-0.078	-0.076
-214.538	495.566	0.085	-0.195
-213.523	-13.543	0.223	0.144
-212.509	-162.804	0.281	-0.014
-211.494	172.707	-0.038	-0.055
-210.479	800.000	0.133	-0.518
-209.465	800.000	-0.012	-0.045
-208.450	6.999	0.274	0.203
-207.436	-121.208	-0.239	0.040
-206.421	35.444	0.023	-0.020
-205.406	-170.509	0.167	0.006
-204.392	92.868	0.161	0.182
-203.377	63.731	-0.121	-0.121
-202.363	800.000	0.086	-0.313
-201.348	321.778	0.057	-0.108
-200.333	335.674	-0.042	0.080
-199.319	-200.000	-0.003	-0.186
-198.304	-28.398	-0.179	-0.103
-197.290	34.457	0.161	0.140
-196.275	244.673	-0.145	-0.242
-195.260	100.240	-0.249	-0.287
-194.246	258.985	0.157	0.270
-193.231	222.374	0.202	-0.324
-192.217	181.024	0.040	0.059
-191.202	800.000	0.129	0.453
-190.187	-43.018	-0.195	0.098
-189.173	-200.000	-0.003	0.074
-188.158	-126.086	-0.289	-0.043
-187.144	-195.524	0.084	0.001
-186.129	29.447	0.048	-0.040
-185.114	70.074	0.052	0.053
-184.100	-89.090	0.162	-0.048
-183.085	160.462	0.074	0.103
-182.071	-200.000	0.046	-0.308
-181.056	326.690	0.095	0.182
-180.042	-168.434	0.357	0.014
-179.027	-194.918	0.133	-0.001
-178.012	-119.492	-0.233	-0.040
-176.998	-167.410	-0.223	0.009
-175.983	48.932	0.141	0.132
-174.969	198.758	-0.130	0.198
-173.954	-146.071	-0.401	0.035
-172.939	142.917	-0.225	0.297
-171.925	486.328	0.021	0.049
-170.910	120.029	-0.020	-0.025
-169.896	800.000	0.089	0.302
-168.881	35.536	0.105	0.091
-167.866	136.306	-0.142	0.184
-166.852	-200.000	-0.011	0.052
-165.837	-200.000	0.006	0.168
-164.823	19.660	-0.306	0.245
-163.808	549.072	-0.023	0.054
-162.793	-94.829	0.174	0.047
-161.779	-85.811	0.141	-0.044
-160.764	-33.494	0.215	0.118
-159.750	697.653	0.040	-0.106
-158.735	160.199	0.245	-0.340
-157.720	-200.000	-0.041	-0.200
-156.706	800.000	0.030	-0.122
-155.691	-56.825	-0.251	0.110
-154.677	-200.000	-0.037	-0.290
-153.662	-56.317	-0.143	-0.063
-152.647	-54.589	-0.294	0.132
-151.633	800.000	-0.012	-0.040
-150.618	616.408	0.040	0.100
-149.604	800.000	0.039	0.158
-148.589	213.911	-0.187	0.295
-147.574	-100.409	-0.272	0.067
-146.560	575.947	-0.152	-0.369
-145.545	-152.871	-0.054	0.004
-144.531	-74.887	-0.184	0.066
-143.516	105.465	-0.199	0.233
-142.502	-200.000	0.054	-0.337
-141.487	-53.145	-0.262	-0.119
-140.472	306.523	-0.133	0.246
-139.458	800.000	0.062	0.206
-138.443	236.621	0.120	-0.197
-137.429	-200.000	0.033	-0.195
-136.414	-200.000	0.002	-0.246
-135.399	157.340	-0.247	0.340
-134.385	440.695	-0.033	0.072
-133.370	-26.413	0.142	-0.083
-132.356	70.967	0.144	-0.148
-131.341	800.000	-0.061	-0.257
-130.326	32.821	0.036	0.031
-129.312	6.523	0.018	-0.013
-128.297	160.353	-0.078	-0.108
-127.283	686.790	-0.091	-0.237
-126.268	-200.000	0.012	-0.200
-125.253	153.029	-0.105	-0.143
-124.239	341.742	-0.108	0.210
-123.224	-107.955	-0.082	-0.018
-122.210	-88.299	0.159	0.047
-121.195	-200.000	0.026	-0.199
-120.180	7.131	-0.126	0.094
-119.166	-57.594	0.174	-0.076
-118.151	-145.086	0.092	0.008
-117.137	-200.000	-0.029	-0.362
-116.122	128.666	0.031	-0.039
-115.107	32.730	-0.312	-0.268
-114.093	-33.121	0.234	0.129
-113.078	800.000	0.060	0.220
-112.064	140.224	-0.085	0.111
-111.049	32.667	0.159	-0.137
-110.034	321.719	0.089	-0.169
-109.020	-158.347	-0.079	0.005
-108.005	115.307	-0.130	0.157
-106.991	-200.000	-0.001	-0.113
-105.976	312.230	-0.124	-0.231
-104.962	-90.446	0.474	0.136
-103.947	-129.306	0.219	0.030
-102.932	95.398	0.194	0.219
-101.918	-182.892	0.326	0.006
-100.903	-122.952	-0.299	0.048
-99.889	800.000	0.073	0.267
-98.874	-46.095	0.394	-0.192
-97.859	621.187	0.112	0.281
-96.845	-136.785	-0.473	-0.054
-95.830	-136.551	-0.408	0.047
-94.816	-21.871	-0.245	0.148
-93.801	3.113	-0.300	0.216
-92.786	191.601	0.224	0.334
-91.772	493.198	0.072	0.165
-90.757	266.216	0.048	0.083
-89.743	-129.424	0.106	-0.015
-88.728	61.276	0.159	0.157
-87.713	-109.972	0.123	-0.026
-86.699	-172.224	-0.355	-0.011
-85.684	345.763	0.085	-0.165
-84.670	218.276	-0.162	-0.257
-83.655	-108.490	0.113	0.024
-82.640	800.000	0.087	0.270
-81.626	-99.593	-0.179	0.045
-80.611	101.689	-0.081	-0.093
-79.597	12.960	-0.116	-0.089
-78.582	-164.427	-0.328	-0.015
-77.567	40.758	0.176	-0.157
-76.553	-172.907	-0.447	0.014
-75.538	-113.489	0.225	0.044
-74.524	39.897	-0.084	-0.075
-73.509	67.607	0.148	-0.150
-72.494	-98.317	-0.227	-0.058
-71.480	-123.352	0.054	0.009
-70.465	254.970	0.119	0.203
-69.451	430.221	0.035	0.075
-68.436	90.546	0.130	0.145
-67.422	176.657	0.094	0.135
-66.407	41.774	-0.138	-0.124
-65.392	89.517	0.252	-0.278
-64.378	800.000	0.106	-0.293
-63.363	800.000	0.116	0.336
-62.349	-27.974	0.134	0.077
-61.334	102.903	-0.817	-0.948
-60.319	-23.678	0.565	0.336
-59.305	-200.000	-0.019	-0.738
-58.290	511.792	0.484	1.117
-57.276	800.000	0.654	1.788
-56.261	-200.000	93.964	567.124
-55.246	551.398	1366.605	3248.676
-54.232	151.755	2582.599	3485.622
-53.217	107.509	2317.000	2730.101
-52.203	42.628	2068.198	1864.261
-51.188	37.607	1980.405	1740.308
-50.173	35.968	1962.050	1709.567
-49.159	50.703	2013.413	1887.179
-48.144	53.734	2033.056	1932.776
-47.130	38.308	1989.986	1754.742
-46.115	35.833	1978.218	1722.177
-45.100	35.773	1975.314	1719.045
-44.086	35.732	1973.267	1716.823
-43.071	35.659	1970.738	1713.911
-42.057	35.723	1967.905	1711.946
-41.042	35.666	1966.558	1710.196
-40.027	35.670	1964.866	1708.695
-39.013	35.757	1962.223	1707.106
-37.998	35.717	1960.660	1705.323
-36.984	35.686	1959.414	1703.895
-35.969	35.729	1957.044	1702.146
-34.954	35.795	1955.157	1701.017
-33.940	35.735	1954.203	1699.591
-32.925	35.763	1952.621	1698.393
-31.911	35.824	1950.917	1697.386
-30.896	35.854	1948.748	1695.694
-29.881	35.832	1947.625	1694.454
-28.867	35.852	1945.774	1692.952
-27.852	35.854	1944.200	1691.538
-26.838	35.968	1941.970	1690.533
-25.823	35.904	1940.059	1688.233
-24.809	35.798	1939.205	1686.497
-23.794	35.851	1937.238	1685.187
-22.779	35.697	1936.072	1682.753
-21.765	35.820	1934.024	1681.985
-20.750	35.817	1932.210	1680.315
-19.736	35.806	1931.015	1679.114
-18.721	35.784	1929.802	1677.796
-17.706	35.750	1928.181	1676.023
-16.692	35.772	1926.314	1674.531
-15.677	35.862	1924.321	1673.512
-14.663	35.911	1923.089	1672.799
-13.648	35.782	1921.977	1670.643
-12.633	35.840	1920.843	1670.099
-11.619	35.772	1919.524	1668.297
-10.604	35.800	1917.908	1667.063
-9.590	35.764	1916.804	1665.726
-8.575	35.782	1915.406	1664.603
-7.560	35.830	1914.072	1663.795
-6.546	35.832	1912.734	1662.579
-5.531	35.798	1911.407	1661.068
-4.517	35.835	1910.099	1660.181
-3.502	35.857	1908.706	1659.100
-2.487	35.821	1907.694	1657.846
-1.473	35.670	1907.393	1656.218
-0.458	35.915	1902.355	1653.876
0.556	35.613	1882.931	1626.261
1.571	31.557	1863.677	1575.428
2.586	27.499	1886.315	1559.758
3.600	26.499	1922.008	1580.405
4.615	26.047	1918.688	1573.591
5.629	19.883	1816.561	1438.624
6.644	8.444	1691.413	1250.355
7.659	2.219	1650.910	1172.655
8.673	1.763	1647.273	1166.473
9.688	1.632	1645.705	1164.258
10.702	1.591	1643.987	1162.625
11.717	1.554	1640.333	1159.655
12.731	1.889	1639.983	1161.860
13.746	8.978	1657.402	1228.545
14.761	19.862	1681.567	1330.497
15.775	25.134	1690.441	1378.032
16.790	25.844	1691.560	1384.280
17.804	25.989	1690.731	1384.593
18.819	25.988	1690.145	1383.983
19.834	26.181	1689.312	1384.662
20.848	26.334	1688.743	1385.240
21.863	26.373	1688.069	1384.869
22.877	26.353	1686.983	1383.702
23.892	26.339	1686.194	1382.821
24.907	26.432	1685.221	1382.610
25.921	26.376	1684.553	1381.518
26.936	26.350	1683.191	1380.078
27.950	26.451	1681.946	1379.702
28.965	26.367	1681.924	1378.921
29.980	26.415	1680.748	1378.205
30.994	26.516	1678.870	1377.314
32.009	26.385	1678.484	1375.876
33.023	26.407	1676.884	1374.605
34.038	26.457	1676.114	1374.239
35.053	26.375	1675.356	1372.868
36.067	26.400	1674.504	1372.243
37.082	26.479	1672.761	1371.292
38.096	26.456	1672.388	1370.687
39.111	26.433	1671.844	1369.949
40.126	26.347	1670.916	1368.417
41.140	26.406	1670.228	1368.177
42.155	26.462	1668.787	1367.295
43.169	26.440	1668.105	1366.452
44.184	26.427	1666.813	1365.177
45.199	26.383	1665.703	1363.812
46.213	26.319	1664.666	1362.364
47.228	26.334	1663.551	1361.442
48.242	26.494	1661.274	1360.660
49.257	26.390	1661.105	1359.618
50.271	26.441	1659.848	1358.853
51.286	26.442	1658.662	1357.766
52.301	26.369	1657.455	1356.113
53.315	26.323	1656.050	1354.498
54.330	26.335	1654.803	1353.449
55.344	26.376	1653.458	1352.536
56.359	26.443	1651.975	1351.705
57.374	26.421	1650.841	1350.494
58.388	26.377	1649.981	1349.342
59.403	26.369	1649.351	1348.648
60.417	26.283	1647.958	1346.745
61.432	26.417	1646.684	1346.583
62.447	26.351	1645.965	1345.385
63.461	26.428	1644.558	1344.689
64.476	26.360	1643.816	1343.458
65.490	26.508	1642.789	1343.597
66.505	26.377	1641.700	1341.615
67.520	26.396	1640.638	1340.771
68.534	26.324	1640.156	1339.730
69.549	26.529	1638.348	1339.646
70.563	26.445	1637.655	1338.344
71.578	26.466	1636.570	1337.495
72.593	26.454	1635.500	1336.412
73.607	26.454	1634.634	1335.582
74.622	26.428	1633.715	1334.525
75.636	26.452	1633.493	1334.401
76.651	26.454	1632.175	1333.218
77.666	26.405	1631.326	1332.048
78.680	26.396	1630.410	1331.116
79.695	26.380	1629.434	1330.083
80.709	26.396	1628.610	1329.412
81.724	26.436	1627.647	1328.801
82.739	26.372	1626.876	1327.588
83.753	26.436	1625.786	1327.051
84.768	26.403	1624.775	1325.863
85.782	26.412	1624.099	1325.264
86.797	26.498	1623.190	1325.034
87.812	26.401	1622.360	1323.527
88.826	26.415	1621.080	1322.468
89.841	26.420	1620.231	1321.691
90.855	26.430	1619.477	1321.038
91.870	26.402	1618.703	1320.082
92.884	26.395	1617.641	1319.050
93.899	26.521	1616.517	1318.932
94.914	26.450	1615.315	1317.323
95.928	26.454	1614.205	1316.324
96.943	26.521	1612.635	1315.414
97.957	26.480	1611.524	1314.098
98.972	26.479	1610.155	1312.860
99.987	26.445	1609.061	1311.606
101.001	26.386	1607.724	1309.967
102.016	26.454	1606.363	1309.239
103.030	26.381	1604.699	1307.233
104.045	26.406	1603.612	1306.416
105.060	26.410	1602.670	1305.561
106.074	26.432	1600.967	1304.215
107.089	26.501	1599.791	1303.641
108.103	26.363	1599.241	1302.080
109.118	26.392	1598.188	1301.317
110.133	26.450	1596.703	1300.414
111.147	26.419	1595.358	1298.981
112.162	26.485	1594.453	1298.603
113.176	26.520	1592.868	1297.446
114.191	26.557	1591.551	1296.527
115.206	26.471	1590.660	1295.069
116.220	26.532	1589.255	1294.245
117.235	26.501	1588.522	1293.313
118.249	26.488	1587.303	1292.111
119.264	26.426	1586.401	1290.819
120.279	26.468	1585.309	1290.119
121.293	26.468	1584.062	1288.990
122.308	26.530	1582.857	1288.336
123.322	26.589	1581.670	1287.674
124.337	26.546	1580.675	1286.447
125.352	26.554	1579.752	1285.637
126.366	26.567	1578.817	1284.853
127.381	26.627	1578.101	1284.582
128.395	26.532	1577.149	1283.025
129.410	26.597	1575.823	1282.292
130.424	26.599	1574.818	1281.374
131.439	26.510	1573.793	1279.795
132.454	26.539	1572.501	1278.839
133.468	26.566	1571.311	1277.945
134.483	26.640	1569.812	1277.141
135.497	26.606	1569.052	1276.164
136.512	26.620	1567.615	1274.987
137.527	26.509	1566.444	1273.135
138.541	26.585	1565.195	1272.545
139.556	26.656	1564.336	1272.235
140.570	26.681	1563.113	1271.303
141.585	26.535	1562.151	1269.382
142.600	26.626	1560.895	1268.887
143.614	26.540	1559.643	1267.157
144.629	26.622	1558.623	1266.790
145.643	26.582	1557.483	1265.467
146.658	26.578	1556.414	1264.462
147.673	26.533	1554.874	1262.785
148.687	26.564	1553.843	1262.051
149.702	26.627	1552.806	1261.533
150.716	26.616	1551.166	1260.015
151.731	26.592	1550.135	1258.901
152.746	26.619	1549.312	1258.303
153.760	26.664	1547.908	1257.364
154.775	26.629	1547.200	1256.439
155.789	26.637	1546.086	1255.478
156.804	26.626	1544.894	1254.321
157.819	26.611	1544.228	1253.567
158.833	26.574	1542.987	1252.192
159.848	26.589	1542.272	1251.602
160.862	26.749	1540.773	1251.381
161.877	26.725	1540.474	1250.863
162.892	26.726	1539.209	1249.736
163.906	26.716	1538.407	1248.903
164.921	26.687	1537.170	1247.589
165.935	26.615	1536.858	1246.728
166.950	26.707	1535.681	1246.299
167.964	26.680	1534.833	1245.315
168.979	26.694	1533.532	1244.240
169.994	26.755	1532.325	1243.569
171.008	26.711	1531.871	1242.788
172.023	26.775	1531.077	1242.479
173.037	26.825	1529.471	1241.404
174.052	26.915	1528.046	1240.756
175.067	26.758	1527.886	1239.439
176.081	26.794	1526.372	1238.352
177.096	26.697	1525.932	1237.217
178.110	26.792	1524.601	1236.680
179.125	26.751	1523.825	1235.663
180.140	26.761	1523.025	1234.971
181.154	26.801	1522.102	1234.386
182.169	26.758	1521.284	1233.317
183.183	26.777	1519.972	1232.278
184.198	26.751	1519.148	1231.326
185.213	26.813	1518.370	1231.008
186.227	26.787	1517.546	1230.051
187.242	26.777	1516.739	1229.223
188.256	26.784	1516.151	1228.683
189.271	26.792	1515.414	1228.027
190.286	26.904	1513.625	1227.227
191.300	26.849	1513.499	1226.649
192.315	26.852	1512.416	1225.679
193.329	26.754	1512.141	1224.689
194.344	26.796	1510.720	1223.714
195.359	26.872	1510.096	1223.614
196.373	26.794	1509.682	1222.640
197.388	26.855	1508.458	1221.954
198.402	26.761	1507.901	1220.759
199.417	26.792	1506.729	1219.909
200.432	26.708	1506.051	1218.693
201.446	26.764	1505.120	1218.208
202.461	26.804	1504.221	1217.638
203.475	26.805	1503.163	1216.682
204.490	26.752	1502.414	1215.610
205.504	26.811	1501.682	1215.307
206.519	26.863	1500.664	1214.721
207.534	26.839	1499.944	1213.872
208.548	26.900	1499.111	1213.498
209.563	26.830	1498.056	1212.069
210.577	26.882	1497.139	1211.568
211.592	26.935	1496.268	1211.111
212.607	26.845	1495.871	1210.079
213.621	26.906	1495.130	1209.783
214.636	27.029	1494.244	1209.779
215.650	27.017	1493.489	1208.977
216.665	26.983	1492.586	1207.913
217.680	26.962	1491.762	1207.004
218.694	26.846	1491.576	1205.969
219.709	26.795	1490.997	1205.062
220.723	26.933	1489.651	1204.779
221.738	26.937	1488.721	1203.950
222.753	26.997	1487.534	1203.280
223.767	26.929	1486.848	1202.168
224.782	26.900	1485.628	1200.884
225.796	26.867	1485.571	1200.515
226.811	26.991	1484.869	1200.658
227.826	26.896	1483.908	1199.146
228.840	26.999	1483.540	1199.423
229.855	26.914	1482.993	1198.314
230.869	26.969	1481.426	1197.308
231.884	27.051	1479.978	1196.568
232.899	27.042	1479.302	1195.861
233.913	27.004	1478.306	1194.698
234.928	27.019	1477.430	1193.979
235.942	27.104	1476.364	1193.576
236.957	27.107	1475.521	1192.803
237.972	27.088	1474.212	1191.517
238.986	27.113	1473.289	1190.827
240.001	27.010	1472.851	1189.697
241.015	27.041	1471.769	1188.918
242.030	27.123	1471.113	1188.819
243.045	27.257	1469.915	1188.624
244.059	27.187	1469.159	1187.453
245.074	27.130	1468.100	1186.117
246.088	27.205	1467.436	1185.963
247.103	27.241	1466.882	1185.648
248.117	27.147	1466.417	1184.552
249.132	27.105	1465.553	1183.476
250.147	27.240	1464.457	1183.365
251.161	27.275	1463.994	1183.112
252.176	27.302	1463.431	1182.733
253.190	27.405	1462.224	1182.318
254.205	27.239	1461.705	1180.717
255.220	27.303	1460.825	1180.318
256.234	27.275	1460.154	1179.486
257.249	27.320	1459.182	1178.893
258.263	27.317	1458.367	1178.110
259.278	27.236	1457.885	1177.091
260.293	27.400	1456.665	1177.062
261.307	27.328	1456.015	1175.970
262.322	27.400	1455.113	1175.598
263.336	27.344	1454.746	1174.839
264.351	27.337	1453.475	1173.660
265.366	27.344	1452.621	1172.916
266.380	27.366	1451.960	1172.418
267.395	27.290	1451.298	1171.292
268.409	27.393	1449.817	1170.654
269.424	27.314	1449.518	1169.802
270.439	27.331	1448.575	1169.048
271.453	27.442	1447.649	1168.908
272.468	27.434	1446.632	1167.930
273.482	27.537	1445.934	1167.927
274.497	27.354	1445.669	1166.433
275.512	27.317	1445.035	1165.585
276.526	27.484	1444.017	1165.731
277.541	27.491	1442.890	1164.762
278.555	27.458	1442.454	1164.091
279.570	27.456	1441.760	1163.418
280.585	27.520	1440.786	1162.935
281.599	27.549	1439.555	1162.024
282.614	27.508	1438.874	1161.112
283.628	27.406	1437.807	1159.497
284.643	27.462	1436.943	1159.056
285.657	27.462	1435.879	1158.095
286.672	27.487	1435.167	1157.577
287.687	27.510	1434.706	1157.250
288.701	27.512	1433.254	1155.986
289.716	27.552	1432.925	1155.872
290.730	27.541	1432.248	1155.156
291.745	27.508	1431.448	1154.198
292.760	27.495	1430.818	1153.505
293.774	27.446	1430.041	1152.468
294.789	27.546	1429.127	1152.260
295.803	27.546	1428.528	1151.677
296.818	27.550	1427.744	1150.969
297.833	27.625	1426.122	1150.030
298.847	27.678	1425.120	1149.455
299.862	27.658	1424.794	1148.968
300.876	27.660	1424.030	1148.263
301.891	27.659	1423.116	1147.418
302.906	27.691	1422.359	1146.902
303.920	27.814	1421.577	1146.948
304.935	27.837	1421.172	1146.663
305.949	27.751	1420.353	1145.359
306.964	27.685	1419.415	1144.089
307.979	27.704	1418.620	1143.465
308.993	27.819	1417.633	1143.291
310.008	27.777	1416.951	1142.376
311.022	27.668	1415.815	1140.675
312.037	27.775	1414.782	1140.411
313.052	27.777	1414.539	1140.130
314.066	27.775	1413.161	1138.906
315.081	27.722	1412.453	1137.901
316.095	27.749	1411.756	1137.410
317.110	27.782	1410.503	1136.504
318.125	27.853	1410.049	1136.480
319.139	27.775	1409.114	1135.139
320.154	27.739	1408.257	1134.126
321.168	27.821	1407.188	1133.673
322.183	27.873	1406.181	1133.083
323.197	27.922	1405.204	1132.500
324.212	27.824	1404.646	1131.341
325.227	27.806	1404.168	1130.748
326.241	27.899	1403.088	1130.353
327.256	28.034	1402.452	1130.574
328.270	27.905	1401.935	1129.259
329.285	27.846	1401.044	1128.081
330.300	27.905	1400.253	1127.703
331.314	27.908	1399.386	1126.926
332.329	28.055	1398.565	1127.068
333.343	27.902	1397.628	1125.274
334.358	28.043	1397.315	1125.793
335.373	27.962	1396.540	1124.568
336.387	28.022	1396.096	1124.480
337.402	28.185	1394.866	1124.389
338.416	28.096	1394.659	1123.577
339.431	28.133	1394.210	1123.347
340.446	28.190	1393.090	1122.691
341.460	27.981	1392.520	1120.850
342.475	28.123	1391.491	1120.798
343.489	28.136	1390.606	1120.063
344.504	28.129	1389.787	1119.258
345.519	28.236	1388.490	1118.773
346.533	28.141	1387.936	1117.645
347.548	28.220	1387.287	1117.508
348.562	28.234	1386.511	1116.867
349.577	28.086	1385.586	1115.120
350.592	28.221	1384.787	1115.204
351.606	28.229	1384.028	1114.541
352.621	28.175	1382.678	1113.025
353.635	28.235	1381.873	1112.643
354.650	28.318	1381.157	1112.475
355.665	28.235	1380.378	1111.243
356.679	28.303	1379.436	1110.801
357.694	28.274	1378.747	1109.973
358.708	28.339	1377.675	1109.405
359.723	28.296	1376.616	1108.192
360.738	28.296	1374.850	1106.673
361.752	28.269	1374.309	1105.974
362.767	28.264	1373.098	1104.874
363.781	28.370	1371.944	1104.485
364.796	28.306	1371.969	1104.023
365.810	28.452	1370.849	1103.902
366.825	28.397	1370.129	1102.894
367.840	28.311	1369.873	1102.073
368.854	28.392	1368.994	1101.754
369.869	28.349	1368.815	1101.255
370.883	28.390	1368.110	1100.840
371.898	28.394	1367.312	1100.121
372.913	28.358	1366.528	1099.179
373.927	28.412	1365.870	1098.876
374.942	28.404	1364.899	1097.947
375.956	28.546	1363.740	1097.771
376.971	28.495	1362.945	1096.726
377.986	28.533	1362.425	1096.437
379.000	28.537	1361.739	1095.812
380.015	28.544	1361.126	1095.267
381.029	28.607	1360.390	1094.954
382.044	28.516	1359.850	1093.877
383.059	28.505	1359.160	1093.163
384.073	28.481	1358.640	1092.500
385.088	28.582	1357.905	1092.418
386.102	28.650	1357.327	1092.258
387.117	28.522	1356.883	1091.043
388.132	28.648	1356.207	1091.152
389.146	28.431	1355.924	1089.541
390.161	28.603	1354.951	1089.682
391.175	28.608	1354.211	1089.018
392.190	28.549	1353.550	1088.043
393.205	28.575	1352.584	1087.325
394.219	28.752	1351.415	1087.337
395.234	28.685	1350.687	1086.260
396.248	28.680	1349.550	1085.219
397.263	28.776	1348.529	1084.870
398.278	28.869	1347.138	1084.203
399.292	28.767	1346.266	1082.800
400.307	28.854	1345.494	1082.597
401.321	28.742	1344.725	1081.224
402.336	28.865	1343.929	1081.214
403.350	28.798	1342.842	1079.846
404.365	28.750	1342.172	1078.934
405.380	28.834	1341.200	1078.548
406.394	28.867	1340.312	1077.933
407.409	28.877	1339.788	1077.476
408.423	28.838	1339.317	1076.770
409.438	28.905	1338.751	1076.615
410.453	28.972	1337.654	1076.027
411.467	28.975	1336.616	1075.116
412.482	29.030	1336.717	1075.425
413.496	28.977	1335.949	1074.398
414.511	28.982	1334.873	1073.469
415.526	29.006	1334.103	1072.894
416.540	28.957	1334.061	1072.479
417.555	28.938	1333.526	1071.846
418.569	28.953	1332.941	1071.369
419.584	28.879	1332.021	1070.099
420.599	28.940	1331.703	1070.109
421.613	92.213	1346.201	1437.585
422.628	91.846	1348.264	1437.694
