DTS Sentinel unit serial number:	SN413079Multiplexer serial number:	ORYXHardware model number:	OX4-SRSoftware version number:	ORYX F/W v4.00 Oryx Data Collector v3.7.2.0data status	okinstallation	princeton_trtdifferential loss correction	single-endedforward channel	channel 4reverse channel	N/Adate	2019/09/10time	18:23:11forward acquisition time	60.00reverse acquisition time	0.00gamma	496.2192k internal	0.2300k external	0.2300temperature offset calibration	0.9946default loss term (dB/km)	0.3790temperature slope calibration	1.0000multiplexer offset coefficient	1.0000multiplexer slope coefficient	1.0000fibre end	0.00T internal ref (°C)	36.19T ext. ref 1 (°C)	-0.34T ext. ref 2 (°C)	28.28length (m)	temperature (°C)	Stokes	anti-Stokes-747.200	-200.000	0.012	0.177
-746.185	-157.076	0.387	0.024
-745.171	800.000	0.070	-0.202
-744.156	-76.570	0.171	-0.061
-743.142	-44.049	0.281	-0.144
-742.127	-200.000	-0.022	-0.195
-741.112	-3.874	-0.120	0.085
-740.098	-11.619	0.049	-0.033
-739.083	-20.099	-0.220	-0.138
-738.069	-200.000	0.050	0.344
-737.054	800.000	-0.026	-0.102
-736.039	-2.872	-0.303	0.216
-735.025	-37.374	0.202	0.110
-734.010	-82.747	-0.188	0.062
-732.996	26.815	-0.113	0.097
-731.981	-16.599	-0.314	-0.203
-730.966	-35.471	-0.049	-0.027
-729.952	-74.191	-0.101	-0.037
-728.937	-128.200	0.265	0.039
-727.923	607.949	-0.164	0.416
-726.908	351.971	-0.170	-0.343
-725.894	218.079	-0.118	0.192
-724.879	-68.985	0.150	0.059
-723.864	-52.025	-0.179	-0.085
-722.850	-62.267	-0.302	0.128
-721.835	800.000	-0.071	-0.199
-720.821	279.669	0.079	-0.144
-719.806	-200.000	-0.016	0.078
-718.791	-110.486	0.056	0.012
-717.777	-107.406	-0.167	0.037
-716.762	-141.474	-0.253	0.026
-715.748	-96.945	0.355	-0.095
-714.733	-21.461	-0.205	-0.128
-713.718	-106.567	-0.284	0.064
-712.704	-200.000	0.133	0.000
-711.689	757.726	-0.062	0.170
-710.675	705.083	0.101	0.272
-709.660	-200.000	0.046	-0.370
-708.645	-78.952	0.252	0.087
-707.631	104.832	0.110	0.132
-706.616	-126.660	-0.113	0.017
-705.602	-103.369	-0.260	-0.062
-704.587	65.080	-0.063	-0.064
-703.572	439.736	0.078	-0.174
-702.558	23.397	-0.150	0.125
-701.543	-200.000	0.034	0.585
-700.529	800.000	-0.017	-0.051
-699.514	-200.000	-0.037	0.365
-698.499	3.812	0.019	-0.014
-697.485	107.888	-0.223	-0.271
-696.470	-200.000	0.007	-0.473
-695.456	-67.570	-0.120	0.048
-694.441	-107.702	0.286	-0.064
-693.426	-48.683	-0.235	0.115
-692.412	-10.278	0.194	0.131
-691.397	44.104	0.159	-0.149
-690.383	-29.360	0.200	0.116
-689.368	28.315	-0.170	-0.146
-688.354	-16.122	-0.188	0.122
-687.339	294.843	-0.036	0.066
-686.324	211.911	0.120	-0.192
-685.310	183.065	-0.061	0.091
-684.295	-79.273	-0.111	-0.038
-683.281	89.362	0.119	-0.135
-682.266	-34.308	0.123	-0.069
-681.251	-107.316	-0.297	0.066
-680.237	264.482	-0.074	-0.131
-679.222	-52.721	-0.271	0.127
-678.208	410.905	0.138	0.297
-677.193	81.355	0.197	-0.217
-676.178	51.591	0.192	-0.185
-675.164	254.307	-0.190	-0.330
-674.149	-200.000	-0.102	0.513
-673.135	59.361	0.239	0.239
-672.120	800.000	0.048	-0.195
-671.105	-200.000	-0.005	-0.249
-670.091	304.933	-0.161	-0.304
-669.076	458.676	0.177	0.401
-668.062	-147.411	-0.205	-0.018
-667.047	69.341	-0.130	0.136
-666.032	-25.662	-0.234	0.141
-665.018	-138.538	0.135	-0.015
-664.003	-85.162	-0.085	0.027
-662.989	800.000	-0.092	-0.336
-661.974	800.000	-0.039	0.153
-660.959	296.246	0.041	0.076
-659.945	800.000	0.012	-0.042
-658.930	235.397	0.049	0.082
-657.916	-200.000	-0.008	-0.133
-656.901	185.463	-0.056	-0.085
-655.886	-120.781	0.224	-0.038
-654.872	-58.852	-0.147	-0.065
-653.857	49.656	-0.219	-0.209
-652.843	61.832	0.173	-0.175
-651.828	-36.146	-0.311	-0.171
-650.814	543.584	-0.104	0.252
-649.799	-25.801	0.316	0.190
-648.784	800.000	-0.114	-0.327
-647.770	82.611	0.346	0.382
-646.755	-200.000	-0.031	-0.269
-645.741	-200.000	-0.042	-0.316
-644.726	-55.004	-0.163	-0.075
-643.711	-200.000	0.062	-0.406
-642.697	325.936	-0.028	-0.054
-641.682	-200.000	-0.044	0.238
-640.668	800.000	0.020	-0.071
-639.653	800.000	0.109	0.415
-638.638	629.889	-0.099	0.254
-637.624	-200.000	-0.045	-0.253
-636.609	-170.289	-0.089	-0.003
-635.595	-30.683	0.232	0.133
-634.580	800.000	0.009	0.038
-633.565	-72.546	-0.232	-0.087
-632.551	111.758	0.125	-0.153
-631.536	800.000	0.114	-0.406
-630.522	92.359	-0.135	0.154
-629.507	-123.010	-0.328	-0.054
-628.492	27.761	0.076	-0.065
-627.478	-136.915	-0.218	0.025
-626.463	-47.349	0.076	-0.038
-625.449	626.038	0.041	0.104
-624.434	-55.278	-0.221	0.101
-623.419	-125.536	0.241	-0.037
-622.405	800.000	-0.103	0.317
-621.390	-126.853	-0.241	-0.036
-620.376	3.710	0.187	-0.139
-619.361	245.737	0.172	-0.293
-618.346	112.295	0.022	-0.027
-617.332	-133.758	0.136	-0.017
-616.317	20.453	-0.214	-0.176
-615.303	800.000	-0.065	-0.272
-614.288	547.016	-0.054	-0.132
-613.273	-156.896	0.089	-0.006
-612.259	-131.535	-0.382	0.051
-611.244	-52.743	-0.140	-0.065
-610.230	217.295	-0.173	0.280
-609.215	-200.000	-0.037	-0.180
-608.201	556.917	-0.125	-0.306
-607.186	103.567	-0.153	0.183
-606.171	-21.258	-0.223	0.138
-605.157	-131.955	-0.096	-0.013
-604.142	110.481	0.152	-0.186
-603.128	-200.000	0.021	-0.119
-602.113	-14.368	-0.056	-0.037
-601.098	9.273	-0.132	0.101
-600.084	-56.344	-0.572	0.258
-599.069	473.334	0.096	-0.220
-598.055	800.000	-0.017	-0.059
-597.040	4.928	-0.317	-0.236
-596.025	-200.000	-0.031	-0.252
-595.011	-80.580	0.192	-0.065
-593.996	-35.834	-0.287	-0.158
-592.982	89.355	-0.159	0.179
-591.967	-87.768	0.203	0.062
-590.952	95.686	-0.146	-0.168
-589.938	-69.108	0.250	-0.098
-588.923	-10.329	0.304	-0.204
-587.909	-200.000	-0.018	-0.168
-586.894	-200.000	-0.038	0.316
-585.879	117.583	-0.153	0.191
-584.865	170.940	0.036	-0.053
-583.850	14.239	-0.268	-0.212
-582.836	569.113	-0.051	-0.126
-581.821	106.390	-0.088	-0.106
-580.806	-121.809	-0.265	0.044
-579.792	62.765	0.200	-0.203
-578.777	-117.620	0.168	0.031
-577.763	30.295	-0.080	-0.069
-576.748	800.000	0.107	0.326
-575.733	-200.000	-0.021	0.150
-574.719	-65.795	-0.195	-0.079
-573.704	709.000	0.102	0.274
-572.690	261.835	0.108	-0.190
-571.675	250.278	0.173	0.297
-570.661	-133.505	0.360	0.046
-569.646	-73.582	0.315	0.116
-568.631	-76.697	-0.089	-0.031
-567.617	-200.000	0.016	0.347
-566.602	800.000	-0.046	-0.192
-565.588	-200.000	0.007	0.271
-564.573	55.028	0.050	0.049
-563.558	207.633	0.048	-0.076
-562.544	-44.396	-0.226	-0.115
-561.529	-200.000	0.003	0.074
-560.515	440.605	-0.156	0.346
-559.500	544.232	-0.042	-0.102
-558.485	-200.000	-0.021	0.144
-557.471	800.000	-0.125	0.391
-556.456	-121.699	0.312	0.052
-555.442	800.000	-0.127	0.357
-554.427	8.972	0.358	0.273
-553.412	41.100	-0.192	0.175
-552.398	800.000	0.040	-0.157
-551.383	25.605	-0.129	-0.109
-550.369	276.373	0.190	-0.342
-549.354	-8.011	0.229	-0.156
-548.339	-102.330	0.209	0.051
-547.325	89.284	-0.161	0.181
-546.310	-35.082	-0.035	-0.019
-545.296	-32.074	0.347	-0.197
-544.281	-200.000	0.023	-0.158
-543.266	800.000	-0.029	0.085
-542.252	688.033	0.084	-0.222
-541.237	518.551	-0.071	-0.167
-540.223	-58.774	0.038	0.017
-539.208	-62.442	0.225	-0.095
-538.193	92.145	-0.043	0.049
-537.179	490.918	-0.098	-0.226
-536.164	-58.822	0.245	0.107
-535.150	143.976	0.085	0.115
-534.135	111.780	-0.141	-0.172
-533.121	236.929	-0.088	0.147
-532.106	800.000	-0.108	-0.471
-531.091	125.777	0.183	-0.234
-530.077	-110.690	0.591	-0.124
-529.062	-169.621	0.180	0.007
-528.048	151.099	-0.170	-0.234
-527.033	-200.000	0.009	-0.234
-526.018	103.134	0.097	0.115
-525.004	308.853	0.066	-0.125
-523.989	-55.055	-0.037	-0.017
-522.975	671.981	-0.044	0.116
-521.960	-113.009	0.471	-0.094
-520.945	-90.169	0.108	-0.032
-519.931	-200.000	0.009	-0.382
-518.916	-111.121	-0.076	0.016
-517.902	-74.345	-0.118	0.043
-516.887	-133.869	0.120	-0.015
-515.872	-33.864	-0.244	0.136
-514.858	13.597	0.149	0.117
-513.843	82.760	0.135	0.148
-512.829	-200.000	-0.013	-0.495
-511.814	350.156	0.140	0.280
-510.799	7.011	-0.401	-0.302
-509.785	-174.069	0.312	-0.009
-508.770	-167.200	0.125	-0.005
-507.756	57.122	-0.046	0.045
-506.741	800.000	-0.048	-0.135
-505.726	-200.000	0.001	-0.069
-504.712	800.000	-0.058	-0.222
-503.697	-39.463	-0.131	0.069
-502.683	127.739	0.115	0.148
-501.668	-200.000	-0.007	0.230
-500.653	-0.812	0.399	-0.285
-499.639	361.450	-0.114	0.230
-498.624	293.444	0.206	0.379
-497.610	0.551	-0.173	0.125
-496.595	-5.609	-0.123	0.085
-495.581	4.959	-0.235	-0.175
-494.566	-7.513	0.124	0.085
-493.551	469.477	-0.084	0.191
-492.537	-152.009	-0.168	0.012
-491.522	16.215	0.040	-0.032
-490.508	105.366	0.161	-0.192
-489.493	-198.717	-0.115	-0.001
-488.478	240.062	-0.046	0.077
-487.464	-91.795	-0.397	-0.114
-486.449	8.269	-0.141	0.107
-485.435	-2.702	-0.154	-0.109
-484.420	-200.000	-0.009	0.044
-483.405	-68.086	0.181	-0.071
-482.391	-76.214	-0.066	0.024
-481.376	240.323	0.114	-0.192
-480.362	-16.264	0.109	-0.070
-479.347	46.874	0.238	0.224
-478.332	247.090	-0.090	-0.153
-477.318	-36.316	-0.397	-0.216
-476.303	-184.493	0.312	0.005
-475.289	-125.026	-0.090	-0.014
-474.274	800.000	-0.107	0.338
-473.259	148.685	-0.241	0.328
-472.245	-200.000	-0.012	-0.211
-471.230	-38.098	-0.143	-0.077
-470.216	178.369	0.245	0.361
-469.201	-200.000	-0.002	-0.072
-468.186	-99.936	0.164	0.041
-467.172	-47.275	0.407	-0.200
-466.157	168.644	-0.162	0.233
-465.143	-6.779	-0.222	0.152
-464.128	-200.000	0.044	-0.196
-463.113	265.992	0.096	-0.169
-462.099	-200.000	-0.009	-0.064
-461.084	183.375	-0.100	-0.149
-460.070	185.869	0.157	0.236
-459.055	-141.904	0.238	0.024
-458.040	800.000	-0.064	-0.187
-457.026	174.169	-0.113	0.165
-456.011	-43.626	0.145	0.074
-454.997	-200.000	-0.004	0.046
-453.982	-63.209	-0.142	0.059
-452.968	309.402	-0.099	0.186
-451.953	65.546	0.159	0.162
-450.938	40.097	0.116	-0.105
-449.924	-31.761	-0.217	0.123
-448.909	159.078	0.222	0.311
-447.895	-136.056	0.361	0.043
-446.880	-78.042	-0.046	0.016
-445.865	-200.000	-0.003	-0.046
-444.851	-77.190	0.232	-0.081
-443.836	-131.916	0.148	0.019
-442.822	51.871	-0.218	0.209
-441.807	41.410	0.127	0.116
-440.792	-48.123	-0.098	-0.048
-439.778	348.016	-0.127	0.251
-438.763	800.000	0.049	0.146
-437.749	357.171	-0.117	-0.235
-436.734	38.747	-0.144	0.130
-435.719	396.486	0.179	-0.377
-434.705	70.298	-0.164	0.171
-433.690	-200.000	0.006	-0.035
-432.676	-44.123	-0.207	0.104
-431.661	-45.826	-0.219	0.109
-430.646	-200.000	0.001	-0.112
-429.632	2.054	0.076	-0.055
-428.617	-21.154	0.515	0.317
-427.603	-67.431	-0.219	-0.087
-426.588	-99.438	0.350	-0.089
-425.573	344.514	-0.053	0.105
-424.559	800.000	0.077	0.216
-423.544	171.879	-0.108	0.156
-422.530	-8.482	-0.197	0.133
-421.515	-116.700	-0.141	-0.026
-420.500	-25.855	0.155	-0.092
-419.486	800.000	0.100	0.355
-418.471	-117.851	-0.276	-0.050
-417.457	2.107	-0.110	0.080
-416.442	800.000	0.041	0.157
-415.428	148.565	-0.220	0.299
-414.413	-3.599	-0.152	0.106
-413.398	-123.319	-0.165	0.026
-412.384	800.000	0.097	-0.356
-411.369	122.794	-0.191	-0.241
-410.355	-200.000	-0.012	-0.054
-409.340	220.142	-0.034	-0.055
-408.325	-200.000	0.107	-0.476
-407.311	-200.000	0.012	0.140
-406.296	112.621	-0.238	0.291
-405.282	-121.559	0.195	-0.033
-404.267	21.192	-0.313	0.255
-403.252	800.000	-0.093	-0.274
-402.238	-200.000	-0.038	-0.304
-401.223	-200.000	-0.004	-0.174
-400.209	800.000	0.060	-0.200
-399.194	-43.445	-0.124	0.063
-398.179	20.324	-0.074	-0.060
-397.165	-200.000	-0.026	0.132
-396.150	105.325	-0.120	0.143
-395.136	115.870	-0.327	-0.402
-394.121	-26.367	0.270	-0.159
-393.106	-142.151	0.304	-0.030
-392.092	-137.273	0.147	0.017
-391.077	-7.806	-0.143	0.097
-390.063	-172.640	-0.214	0.007
-389.048	-200.000	0.033	0.270
-388.033	-200.000	0.011	-0.156
-387.019	289.808	-0.075	-0.137
-386.004	212.238	0.257	0.408
-384.990	-85.671	0.376	-0.117
-383.975	89.462	-0.212	0.237
-382.960	431.423	-0.053	-0.115
-381.946	320.632	-0.081	-0.155
-380.931	-147.694	-0.314	0.026
-379.917	-200.000	0.012	-0.271
-378.902	72.115	0.242	-0.254
-377.888	-74.995	-0.179	-0.064
-376.873	-65.249	-0.093	0.038
-375.858	-200.000	0.006	0.111
-374.844	75.879	-0.171	-0.182
-373.829	23.557	-0.140	0.116
-372.815	-200.000	0.029	0.529
-371.800	-125.926	-0.343	-0.052
-370.785	144.866	-0.089	-0.119
-369.771	-6.792	0.147	-0.100
-368.756	48.899	-0.166	-0.157
-367.742	132.579	-0.244	-0.317
-366.727	35.574	0.260	-0.229
-365.712	-200.000	-0.017	-0.081
-364.698	78.494	-0.134	-0.144
-363.683	-200.000	0.028	0.244
-362.669	647.816	0.128	0.328
-361.654	-200.000	-0.015	0.216
-360.639	-85.601	0.201	-0.063
-359.625	193.250	0.131	-0.199
-358.610	800.000	0.096	-0.363
-357.596	-143.261	0.150	-0.014
-356.581	-50.754	-0.449	-0.212
-355.566	302.069	-0.107	0.199
-354.552	-200.000	0.029	-0.178
-353.537	63.712	-0.070	-0.071
-352.523	95.079	-0.147	-0.168
-351.508	-200.000	0.028	-0.341
-350.493	140.071	0.032	-0.042
-349.479	10.410	-0.329	0.252
-348.464	198.713	0.059	0.091
-347.450	210.445	-0.206	0.324
-346.435	-20.773	0.293	0.181
-345.420	81.111	-0.141	-0.153
-344.406	800.000	0.072	-0.261
-343.391	-139.546	0.157	-0.017
-342.377	4.101	-0.029	0.021
-341.362	-48.436	-0.298	-0.144
-340.348	-141.255	0.153	0.016
-339.333	8.529	-0.128	0.096
-338.318	296.129	-0.063	0.116
-337.304	644.457	0.118	0.303
-336.289	-52.031	0.157	0.073
-335.275	422.735	-0.237	0.512
-334.260	-200.000	-0.026	0.337
-333.245	-153.845	0.197	-0.014
-332.231	91.619	-0.194	-0.218
-331.216	579.950	0.016	0.040
-330.202	177.102	0.227	0.332
-329.187	158.460	-0.164	-0.229
-328.172	-200.000	-0.007	0.143
-327.158	-22.782	-0.203	-0.123
-326.143	-10.938	0.240	0.159
-325.129	166.239	-0.248	0.353
-324.114	-27.935	-0.335	-0.194
-323.099	800.000	0.092	-0.263
-322.085	47.437	-0.092	0.086
-321.070	800.000	0.036	-0.137
-320.056	800.000	0.036	0.107
-319.041	-68.073	-0.247	0.096
-318.026	88.801	-0.098	0.109
-317.012	257.512	-0.042	0.073
-315.997	-52.219	0.321	-0.149
-314.983	-3.847	0.111	0.077
-313.968	388.059	-0.132	-0.274
-312.953	800.000	-0.092	0.397
-311.939	-129.361	0.131	0.018
-310.924	109.550	-0.038	-0.046
-309.910	35.631	-0.134	-0.118
-308.895	-136.521	0.127	0.015
-307.880	54.608	0.176	-0.170
-306.866	54.936	-0.142	0.137
-305.851	11.967	-0.106	-0.081
-304.837	222.565	-0.052	0.084
-303.822	800.000	-0.036	-0.131
-302.807	52.760	0.236	-0.227
-301.793	-106.997	-0.239	-0.053
-300.778	35.407	0.255	0.224
-299.764	-21.068	-0.229	-0.140
-298.749	261.237	0.115	0.200
-297.735	-200.000	-0.005	-0.032
-296.720	800.000	0.152	-0.453
-295.705	-200.000	-0.024	-0.161
-294.691	-18.282	0.248	-0.155
-293.676	597.759	0.062	0.153
-292.662	-44.239	-0.184	0.092
-291.647	-60.500	0.192	0.082
-290.632	-7.278	-0.125	0.085
-289.618	-200.000	-0.013	0.122
-288.603	89.950	0.307	-0.344
-287.589	-92.406	-0.197	-0.056
-286.574	125.668	-0.269	0.340
-285.559	-150.470	0.321	-0.025
-284.545	-58.314	-0.322	-0.140
-283.530	-143.810	-0.261	-0.025
-282.516	-200.000	0.010	-0.295
-281.501	75.422	-0.222	0.235
-280.486	283.570	0.087	-0.157
-279.472	-100.252	-0.096	0.024
-278.457	111.699	0.233	0.281
-277.443	-41.392	-0.033	-0.017
-276.428	176.050	-0.016	0.024
-275.413	-42.125	0.036	0.018
-274.399	-157.261	0.324	0.020
-273.384	649.606	-0.039	0.101
-272.370	800.000	-0.098	0.297
-271.355	11.172	0.101	0.077
-270.340	-200.000	0.026	0.141
-269.326	-200.000	0.019	0.188
-268.311	29.738	-0.542	-0.462
-267.297	800.000	0.090	0.330
-266.282	-103.344	0.076	-0.018
-265.267	225.224	0.173	-0.280
-264.253	170.597	0.347	-0.498
-263.238	421.090	0.083	-0.177
-262.224	-137.056	-0.318	-0.036
-261.209	46.598	0.072	-0.067
-260.195	-27.590	0.392	0.228
-259.180	-126.614	0.243	0.036
-258.165	-131.402	0.063	-0.008
-257.151	17.588	0.223	-0.178
-256.136	79.258	0.167	0.179
-255.122	-93.019	0.174	-0.049
-254.107	4.855	-0.314	0.231
-253.092	-116.153	-0.259	-0.048
-252.078	-183.481	-0.339	0.006
-251.063	-78.825	-0.137	0.047
-250.049	8.382	0.311	0.234
-249.034	687.914	-0.065	0.170
-248.019	-55.756	0.543	-0.243
-247.005	619.090	0.093	-0.233
-245.990	-121.609	0.178	0.030
-244.976	52.721	-0.049	0.046
-243.961	-148.659	0.090	0.007
-242.946	251.602	0.029	0.050
-241.932	403.084	0.061	0.129
-240.917	-125.094	-0.103	-0.016
-239.903	182.839	-0.074	0.109
-238.888	51.112	-0.116	-0.110
-237.873	344.408	-0.108	-0.213
-236.859	800.000	-0.114	-0.367
-235.844	-83.473	0.237	0.076
-234.830	618.103	0.026	-0.064
-233.815	-200.000	0.016	0.071
-232.800	-200.000	0.002	-0.121
-231.786	800.000	-0.071	-0.272
-230.771	-151.140	0.218	-0.016
-229.757	93.915	0.152	-0.172
-228.742	0.935	0.125	0.090
-227.727	-200.000	-0.019	-0.125
-226.713	49.664	-0.064	-0.061
-225.698	800.000	-0.065	-0.229
-224.684	-200.000	0.043	0.195
-223.669	-200.000	0.054	0.466
-222.655	-81.206	0.084	-0.028
-221.640	-26.201	0.043	-0.025
-220.625	-137.419	-0.153	-0.017
-219.611	-118.982	-0.197	0.034
-218.596	-55.002	-0.245	-0.111
-217.582	59.887	-0.318	0.314
-216.567	103.263	0.242	0.283
-215.552	800.000	0.032	-0.099
-214.538	8.042	0.221	0.165
-213.523	-132.153	-0.158	-0.021
-212.509	-46.314	0.134	0.066
-211.494	-83.337	0.450	0.144
-210.479	-118.232	-0.201	-0.036
-209.465	-68.032	0.168	0.065
-208.450	-139.940	0.150	0.016
-207.436	-81.093	0.181	-0.060
-206.421	10.859	-0.083	0.063
-205.406	2.475	-0.120	-0.087
-204.392	-51.689	-0.099	0.046
-203.377	800.000	-0.039	0.172
-202.363	-15.445	0.113	-0.072
-201.348	-166.011	0.448	0.019
-200.333	438.966	0.199	0.434
-199.319	175.644	-0.067	-0.096
-198.304	59.231	0.277	0.272
-197.290	20.078	-0.040	-0.032
-196.275	-33.266	-0.296	-0.164
-195.260	165.468	-0.115	0.163
-194.246	-200.000	-0.020	-0.191
-193.231	660.315	0.073	-0.187
-192.217	413.568	-0.093	0.198
-191.202	19.127	-0.204	-0.164
-190.187	399.668	0.146	0.305
-189.173	-67.318	0.132	0.052
-188.158	-158.110	-0.065	-0.004
-187.144	449.747	0.038	0.084
-186.129	-200.000	0.054	0.327
-185.114	800.000	0.055	-0.172
-184.100	-71.790	0.436	-0.162
-183.085	64.080	-0.242	-0.243
-182.071	-157.814	0.214	-0.013
-181.056	83.453	0.243	0.264
-180.042	-200.000	0.014	0.318
-179.027	426.444	-0.058	0.126
-178.012	800.000	-0.017	-0.068
-176.998	52.079	-0.064	0.061
-175.983	326.663	-0.186	-0.355
-174.969	-200.000	-0.013	-0.289
-173.954	800.000	0.028	0.100
-172.939	576.720	-0.129	0.313
-171.925	-106.318	0.172	-0.038
-170.910	93.554	0.160	0.181
-169.896	121.356	0.154	-0.192
-168.881	-156.700	-0.105	0.006
-167.866	800.000	0.089	0.281
-166.852	-76.128	0.140	-0.049
-165.837	-116.498	0.180	-0.033
-164.823	-140.274	-0.181	0.019
-163.808	-200.000	-0.258	0.000
-162.793	-45.023	-0.075	0.037
-161.779	-127.295	0.110	-0.016
-160.764	6.228	0.082	0.060
-159.750	-86.258	-0.264	-0.081
-158.735	-148.580	-0.043	-0.003
-157.720	715.666	0.093	-0.247
-156.706	800.000	0.021	0.063
-155.691	76.075	0.137	0.144
-154.677	-143.837	-0.075	-0.007
-153.662	-65.840	-0.289	0.115
-152.647	-200.000	-0.040	-0.187
-151.633	75.252	0.181	0.191
-150.618	-17.446	-0.188	0.118
-149.604	-113.274	-0.357	0.070
-148.589	-200.000	0.004	-0.272
-147.574	-59.986	0.285	-0.121
-146.560	800.000	0.068	0.231
-145.545	-19.941	-0.187	0.115
-144.531	69.276	0.189	0.194
-143.516	-200.000	0.027	0.272
-142.502	-101.766	0.202	-0.049
-141.487	590.970	-0.033	-0.081
-140.472	-13.553	0.318	-0.205
-139.458	82.184	-0.047	0.051
-138.443	-200.000	-0.016	-0.170
-137.429	266.972	0.143	0.248
-136.414	-200.000	-0.022	0.150
-135.399	-12.649	-0.128	-0.083
-134.385	282.918	0.212	-0.379
-133.370	51.264	0.189	0.178
-132.356	-69.974	0.309	-0.117
-131.341	11.049	-0.021	-0.016
-130.326	-138.355	0.330	0.036
-129.312	9.843	-0.135	-0.102
-128.297	-152.681	-0.241	-0.017
-127.283	-200.000	-0.011	0.070
-126.268	-50.021	-0.376	-0.178
-125.253	103.357	-0.203	-0.237
-124.239	-110.415	-0.082	-0.017
-123.224	-200.000	-0.001	0.167
-122.210	-200.000	0.062	-0.354
-121.195	-200.000	0.037	-0.169
-120.180	333.107	-0.103	-0.198
-119.166	-200.000	0.030	-0.390
-118.151	-138.246	-0.487	0.054
-117.137	-200.000	0.002	0.282
-116.122	-131.552	0.401	-0.053
-115.107	80.097	0.271	-0.290
-114.093	-8.658	-0.105	0.070
-113.078	-155.795	0.146	0.009
-112.064	-136.587	0.173	0.020
-111.049	22.244	0.232	0.188
-110.034	800.000	-0.049	-0.167
-109.020	800.000	0.053	0.159
-108.005	260.785	0.049	0.085
-106.991	-164.207	0.406	-0.019
-105.976	-77.717	0.239	0.082
-104.962	-140.177	-0.136	-0.014
-103.947	-200.000	-0.021	-0.331
-102.932	-124.411	0.077	0.012
-101.918	-200.000	0.017	0.227
-100.903	-150.039	-0.346	-0.027
-99.889	-17.529	0.368	0.230
-98.874	-41.038	-0.182	0.094
-97.859	-200.000	-0.049	0.381
-96.845	-179.448	-0.370	-0.008
-95.830	229.561	0.112	0.182
-94.816	671.204	0.105	0.269
-93.801	73.488	0.277	0.288
-92.786	-17.853	0.160	0.100
-91.772	541.577	0.118	0.279
-90.757	-68.333	-0.051	0.020
-89.743	800.000	-0.082	0.250
-88.728	-66.975	-0.041	0.016
-87.713	127.554	0.012	0.016
-86.699	-200.000	-0.066	0.412
-85.684	173.566	-0.057	-0.082
-84.670	158.041	-0.110	0.152
-83.655	-15.146	0.244	-0.156
-82.640	25.580	-0.135	0.112
-81.626	102.961	0.309	-0.360
-80.611	78.628	-0.182	-0.193
-79.597	-200.000	0.011	-0.153
-78.582	23.785	0.084	0.069
-77.567	280.873	0.060	0.107
-76.553	800.000	0.037	0.113
-75.538	-125.828	-0.161	-0.024
-74.524	-110.009	-0.310	-0.064
-73.509	-13.521	0.233	-0.150
-72.494	161.177	0.193	0.269
-71.480	-200.000	-0.031	-0.254
-70.465	-26.479	-0.232	0.135
-69.451	206.755	-0.180	0.278
-68.436	-40.956	0.174	-0.089
-67.422	-200.000	0.035	-0.183
-66.407	-200.000	-0.041	0.498
-65.392	11.278	-0.194	0.147
-64.378	-160.787	-0.134	-0.007
-63.363	-121.976	0.430	-0.070
-62.349	800.000	-0.040	-0.146
-61.334	48.933	-0.914	-0.852
-60.319	84.580	0.308	0.335
-59.305	800.000	0.218	-0.662
-58.290	274.089	0.578	1.016
-57.276	352.024	0.837	1.646
-56.261	-200.000	93.159	523.271
-55.246	565.608	1376.566	3314.292
-54.232	180.582	2631.819	3835.344
-53.217	109.600	2366.126	2815.052
-52.203	42.669	2110.805	1907.892
-51.188	38.036	2022.258	1785.524
-50.173	36.429	2002.910	1753.800
-49.159	49.394	2053.643	1917.818
-48.144	52.427	2073.154	1963.905
-47.130	38.604	2030.279	1797.542
-46.115	36.168	2018.531	1764.801
-45.100	36.166	2015.143	1761.751
-44.086	36.158	2013.317	1760.019
-43.071	36.087	2010.530	1756.865
-42.057	36.036	2008.491	1754.543
-41.042	36.037	2007.222	1753.374
-40.027	36.073	2004.904	1751.607
-39.013	36.118	2002.549	1749.893
-37.998	36.161	2000.762	1748.647
-36.984	36.096	1999.321	1746.731
-35.969	36.140	1997.029	1745.061
-34.954	36.091	1995.539	1743.245
-33.940	36.194	1994.317	1743.041
-32.925	36.160	1992.809	1741.344
-31.911	36.197	1990.734	1739.797
-30.896	36.140	1989.325	1737.981
-29.881	36.212	1987.376	1736.858
-28.867	36.255	1985.836	1735.832
-27.852	36.182	1983.553	1733.108
-26.838	36.268	1981.961	1732.419
-25.823	36.139	1980.635	1730.037
-24.809	36.253	1978.576	1729.190
-23.794	36.241	1976.584	1727.277
-22.779	36.215	1974.796	1725.413
-21.765	36.247	1973.045	1724.096
-20.750	36.260	1971.613	1722.896
-19.736	36.265	1970.302	1721.727
-18.721	36.262	1968.457	1720.018
-17.706	36.195	1966.965	1718.052
-16.692	36.211	1965.649	1716.975
-15.677	36.232	1963.422	1715.151
-14.663	36.231	1962.294	1714.084
-13.648	36.226	1961.008	1712.846
-12.633	36.183	1959.838	1711.382
-11.619	36.152	1958.742	1710.077
-10.604	36.234	1956.398	1708.691
-9.590	36.139	1955.386	1706.897
-8.575	36.096	1954.421	1705.610
-7.560	36.146	1952.916	1704.667
-6.546	36.250	1950.887	1703.745
-5.531	36.225	1949.762	1702.480
-4.517	36.107	1949.148	1700.833
-3.502	36.014	1948.299	1699.203
-2.487	36.095	1946.597	1698.370
-1.473	36.191	1945.477	1698.171
-0.458	36.186	1940.969	1694.123
0.556	33.264	1919.970	1661.882
1.571	28.202	1898.160	1598.767
2.586	23.527	1918.865	1574.675
3.600	22.302	1955.081	1593.160
4.615	21.857	1952.145	1586.599
5.629	16.840	1850.546	1460.763
6.644	6.301	1725.577	1276.877
7.659	0.343	1683.458	1198.334
8.673	-0.262	1679.938	1190.921
9.688	-0.286	1678.310	1189.477
10.702	-0.302	1676.747	1188.136
11.717	-0.490	1673.481	1184.233
12.731	-0.103	1673.052	1186.878
13.746	6.390	1689.397	1250.037
14.761	15.618	1708.692	1337.989
15.775	18.412	1713.547	1363.947
16.790	18.125	1712.051	1360.355
17.804	18.109	1711.468	1359.639
18.819	18.116	1710.603	1358.889
19.834	18.298	1709.206	1359.109
20.848	18.484	1709.120	1360.394
21.863	18.455	1708.253	1359.356
22.877	18.423	1706.949	1357.942
23.892	18.495	1706.286	1357.865
24.907	18.450	1704.716	1356.137
25.921	18.442	1704.132	1355.493
26.936	18.493	1702.920	1354.813
27.950	18.419	1702.028	1353.393
28.965	18.497	1701.438	1353.424
29.980	18.404	1700.533	1351.852
30.994	18.573	1699.153	1351.967
32.009	18.453	1698.066	1350.037
33.023	18.387	1697.040	1348.583
34.038	18.517	1695.534	1348.288
35.053	18.401	1695.129	1346.936
36.067	18.518	1693.736	1346.626
37.082	18.511	1692.395	1345.385
38.096	18.508	1691.296	1344.373
39.111	18.405	1690.825	1343.070
40.126	18.534	1689.658	1343.035
41.140	18.411	1689.180	1341.571
42.155	18.546	1687.427	1341.120
43.169	18.493	1686.248	1339.650
44.184	18.445	1685.404	1338.485
45.199	18.498	1683.770	1337.479
46.213	18.496	1682.779	1336.558
47.228	18.483	1682.104	1335.800
48.242	18.489	1680.664	1334.587
49.257	18.466	1679.355	1333.249
50.271	18.506	1678.038	1332.400
51.286	18.464	1677.047	1331.167
52.301	18.499	1675.100	1329.775
53.315	18.371	1674.454	1328.157
54.330	18.361	1672.729	1326.592
55.344	18.391	1671.572	1325.788
56.359	18.396	1669.803	1324.306
57.374	18.396	1668.948	1323.512
58.388	18.431	1667.966	1322.886
59.403	18.505	1666.306	1322.021
60.417	18.527	1665.001	1321.037
61.432	18.437	1663.825	1319.294
62.447	18.446	1662.636	1318.307
63.461	18.489	1661.586	1317.687
64.476	18.510	1660.866	1317.161
65.490	18.428	1659.947	1315.684
66.505	18.490	1658.384	1314.807
67.520	18.487	1657.296	1313.802
68.534	18.557	1656.135	1313.301
69.549	18.483	1655.255	1311.921
70.563	18.534	1653.675	1310.948
71.578	18.448	1652.793	1309.477
72.593	18.473	1651.845	1308.799
73.607	18.507	1650.730	1308.054
74.622	18.479	1650.137	1307.263
75.636	18.522	1648.361	1306.062
76.651	18.441	1647.838	1304.917
77.666	18.491	1646.973	1304.495
78.680	18.453	1646.371	1303.613
79.695	18.491	1644.945	1302.659
80.709	18.598	1643.541	1302.248
81.724	18.648	1642.570	1301.738
82.739	18.447	1642.226	1299.827
83.753	18.449	1641.028	1298.776
84.768	18.507	1639.691	1298.041
85.782	18.484	1639.024	1297.226
86.797	18.506	1637.594	1296.148
87.812	18.503	1637.330	1295.803
88.826	18.547	1635.888	1294.875
89.841	18.602	1634.683	1294.225
90.855	18.489	1634.020	1292.731
91.870	18.492	1633.110	1291.922
92.884	18.513	1631.476	1290.673
93.899	18.506	1630.449	1289.690
94.914	18.524	1629.292	1288.800
95.928	18.586	1627.459	1287.703
96.943	18.585	1626.289	1286.655
97.957	18.611	1624.574	1285.379
98.972	18.602	1623.160	1284.081
99.987	18.523	1622.387	1282.764
101.001	18.449	1620.441	1280.560
102.016	18.554	1618.546	1279.733
103.030	18.441	1617.471	1277.925
104.045	18.435	1616.187	1276.754
105.060	18.470	1614.671	1275.700
106.074	18.534	1612.995	1274.738
107.089	18.572	1611.921	1274.063
108.103	18.554	1610.773	1272.907
109.118	18.528	1609.484	1271.585
110.133	18.568	1607.613	1270.290
111.147	18.555	1606.499	1269.199
112.162	18.648	1604.838	1268.464
113.176	18.636	1603.563	1267.255
114.191	18.560	1602.436	1265.692
115.206	18.638	1600.973	1265.001
116.220	18.560	1599.886	1263.455
117.235	18.564	1598.238	1262.066
118.249	18.566	1597.364	1261.280
119.264	18.539	1596.137	1260.003
120.279	18.635	1594.654	1259.427
121.293	18.540	1593.162	1257.439
122.308	18.668	1591.778	1257.176
123.322	18.630	1590.227	1255.558
124.337	18.642	1588.935	1254.512
125.352	18.779	1587.239	1254.064
126.366	18.655	1586.483	1252.451
127.381	18.744	1585.235	1252.007
128.395	18.784	1584.525	1251.625
129.410	18.637	1583.313	1249.487
130.424	18.687	1581.579	1248.371
131.439	18.689	1580.336	1247.295
132.454	18.623	1579.235	1245.836
133.468	18.559	1577.590	1243.961
134.483	18.573	1575.865	1242.595
135.497	18.661	1574.624	1242.148
136.512	18.637	1573.454	1240.937
137.527	18.681	1571.851	1239.880
138.541	18.634	1570.894	1238.674
139.556	18.694	1569.262	1237.718
140.570	18.682	1568.049	1236.563
141.585	18.694	1566.260	1235.125
142.600	18.666	1565.550	1234.260
143.614	18.644	1564.274	1232.983
144.629	18.644	1562.872	1231.771
145.643	18.716	1560.892	1230.620
146.658	18.666	1560.020	1229.463
147.673	18.532	1558.724	1227.372
148.687	18.613	1557.319	1226.737
149.702	18.620	1555.749	1225.441
150.716	18.667	1554.553	1224.730
151.731	18.660	1553.137	1223.452
152.746	18.645	1552.515	1222.747
153.760	18.592	1551.171	1221.203
154.775	18.590	1550.138	1220.271
155.789	18.663	1548.929	1219.726
156.804	18.743	1547.343	1218.938
157.819	18.610	1546.596	1217.301
158.833	18.584	1545.125	1215.851
159.848	18.692	1544.007	1215.628
160.862	18.634	1543.014	1214.324
161.877	18.783	1541.603	1214.165
162.892	18.765	1540.420	1212.996
163.906	18.766	1539.563	1212.222
164.921	18.767	1538.975	1211.655
165.935	18.675	1538.194	1210.283
166.950	18.779	1536.393	1209.495
167.964	18.765	1535.642	1208.698
168.979	18.871	1534.192	1208.198
169.994	18.786	1533.577	1207.004
171.008	18.729	1533.020	1206.060
172.023	18.800	1531.610	1205.346
173.037	18.813	1530.539	1204.486
174.052	18.767	1529.153	1202.963
175.067	18.800	1528.655	1202.695
176.081	18.826	1527.670	1201.996
177.096	18.759	1526.491	1200.499
178.110	18.817	1524.978	1199.604
179.125	18.861	1523.658	1198.766
180.140	18.777	1523.293	1197.791
181.154	18.851	1522.553	1197.615
182.169	18.888	1520.888	1196.457
183.183	18.816	1520.219	1195.324
184.198	18.792	1519.640	1194.599
185.213	18.870	1518.222	1193.920
186.227	18.792	1517.488	1192.695
187.242	18.861	1516.446	1192.249
188.256	18.913	1515.824	1192.014
189.271	18.946	1514.485	1191.082
190.286	18.944	1513.725	1190.369
191.300	18.856	1513.247	1189.277
192.315	18.927	1511.685	1188.437
193.329	18.806	1511.028	1186.977
194.344	18.865	1510.268	1186.686
195.359	18.963	1509.255	1186.455
196.373	18.933	1508.333	1185.421
197.388	18.837	1507.672	1184.135
198.402	18.933	1506.336	1183.641
199.417	18.813	1505.319	1181.913
200.432	18.822	1504.502	1181.227
201.446	18.871	1503.724	1180.849
202.461	18.852	1502.863	1179.941
203.475	18.809	1502.181	1179.003
204.490	18.834	1501.061	1178.192
205.504	18.943	1499.799	1177.842
206.519	18.869	1499.192	1176.755
207.534	18.908	1498.243	1176.178
208.548	18.898	1497.725	1175.595
209.563	18.924	1496.329	1174.571
210.577	18.939	1495.538	1173.948
211.592	18.899	1494.970	1173.130
212.607	18.955	1494.122	1172.739
213.621	19.087	1493.087	1172.727
214.636	19.050	1492.501	1171.909
215.650	19.006	1491.498	1170.719
216.665	18.997	1490.776	1169.989
217.680	18.930	1490.091	1168.889
218.694	19.007	1488.915	1168.390
219.709	18.960	1488.744	1167.832
220.723	18.990	1487.411	1166.885
221.738	19.007	1487.086	1166.643
222.753	18.920	1486.141	1165.206
223.767	18.869	1484.744	1163.665
224.782	18.944	1483.912	1163.417
225.796	19.033	1483.348	1163.471
226.811	18.990	1482.743	1162.602
227.826	18.953	1482.026	1161.689
228.840	19.058	1481.017	1161.504
229.855	19.126	1480.186	1161.210
230.869	19.003	1479.032	1159.375
231.884	19.119	1477.803	1159.088
232.899	19.003	1477.143	1157.688
233.913	19.144	1475.389	1157.155
234.928	19.044	1474.540	1155.717
235.942	19.050	1474.104	1155.312
236.957	19.093	1473.108	1154.720
237.972	19.151	1471.610	1153.829
238.986	19.126	1470.659	1152.815
240.001	19.116	1470.157	1152.255
241.015	19.122	1468.786	1151.119
242.030	19.196	1467.894	1150.808
243.045	19.197	1466.890	1149.925
244.059	19.215	1466.191	1149.398
245.074	19.251	1465.575	1149.051
246.088	19.223	1464.725	1148.101
247.103	19.233	1464.044	1147.534
248.117	19.104	1463.496	1146.141
249.132	19.196	1462.322	1145.731
250.147	19.202	1461.632	1145.129
251.161	19.293	1460.711	1144.908
252.176	19.160	1460.302	1143.604
253.190	19.339	1459.421	1144.004
254.205	19.315	1458.346	1142.900
255.220	19.318	1457.743	1142.343
256.234	19.309	1456.947	1141.559
257.249	19.288	1456.010	1140.588
258.263	19.385	1455.302	1140.574
259.278	19.216	1454.722	1138.901
260.293	19.382	1453.781	1139.163
261.307	19.346	1453.131	1138.313
262.322	19.364	1452.089	1137.514
263.336	19.326	1451.481	1136.684
264.351	19.308	1450.348	1135.577
265.366	19.417	1449.525	1135.552
266.380	19.405	1448.412	1134.499
267.395	19.284	1447.496	1132.889
268.409	19.345	1446.890	1132.717
269.424	19.408	1445.998	1132.328
270.439	19.356	1444.962	1131.079
271.453	19.357	1444.286	1130.455
272.468	19.350	1443.446	1129.651
273.482	19.440	1442.343	1129.280
274.497	19.386	1441.712	1128.328
275.512	19.395	1440.973	1127.713
276.526	19.400	1440.359	1127.160
277.541	19.483	1439.412	1126.866
278.555	19.475	1438.449	1125.960
279.570	19.432	1437.716	1125.006
280.585	19.492	1437.017	1124.746
281.599	19.452	1435.994	1123.590
282.614	19.482	1435.194	1123.055
283.628	19.480	1433.944	1121.969
284.643	19.546	1432.871	1121.456
285.657	19.622	1431.876	1121.073
286.672	19.446	1431.736	1119.724
287.687	19.432	1430.613	1118.653
288.701	19.513	1429.468	1118.183
289.716	19.458	1429.205	1117.525
290.730	19.544	1428.025	1117.056
291.745	19.512	1427.130	1116.054
292.760	19.511	1426.243	1115.255
293.774	19.648	1425.059	1115.113
294.789	19.584	1424.266	1113.978
295.803	19.532	1423.723	1113.123
296.818	19.574	1423.046	1112.768
297.833	19.528	1421.871	1111.449
298.847	19.595	1420.976	1111.083
299.862	19.612	1420.277	1110.551
300.876	19.637	1419.675	1110.140
301.891	19.584	1418.658	1108.904
302.906	19.607	1417.742	1108.239
303.920	19.661	1417.363	1108.191
304.935	19.763	1416.099	1107.761
305.949	19.694	1415.157	1106.481
306.964	19.620	1414.473	1105.374
307.979	19.740	1413.545	1105.321
308.993	19.683	1412.638	1104.153
310.008	19.616	1411.982	1103.109
311.022	19.632	1410.603	1102.037
312.037	19.746	1409.797	1102.037
313.052	19.740	1409.327	1101.535
314.066	19.780	1408.338	1100.921
315.081	19.735	1407.208	1099.654
316.095	19.727	1406.302	1098.794
317.110	19.790	1405.447	1098.429
318.125	19.748	1404.645	1097.442
319.139	19.823	1403.678	1097.063
320.154	19.825	1402.650	1096.176
321.168	19.852	1401.696	1095.505
322.183	19.799	1401.252	1094.727
323.197	19.906	1399.604	1094.017
324.212	19.889	1399.073	1093.400
325.227	19.848	1398.307	1092.441
326.241	19.843	1397.387	1091.597
327.256	20.005	1396.404	1091.752
328.270	19.882	1395.968	1090.542
329.285	19.785	1395.522	1089.485
330.300	19.983	1393.911	1089.377
331.314	20.056	1393.209	1089.187
332.329	19.999	1392.495	1088.177
333.343	19.833	1391.699	1086.415
334.358	19.921	1391.018	1086.341
335.373	19.996	1390.239	1086.108
336.387	20.036	1389.355	1085.573
337.402	19.988	1388.899	1084.818
338.416	20.010	1388.476	1084.529
339.431	19.926	1388.088	1083.607
340.446	20.053	1387.075	1083.512
341.460	20.116	1385.460	1082.551
342.475	20.038	1384.573	1081.275
343.489	20.048	1384.403	1081.109
344.504	20.038	1383.570	1080.295
345.519	20.104	1382.390	1079.693
346.533	20.132	1381.056	1078.727
347.548	20.134	1380.159	1077.946
348.562	20.040	1379.396	1076.668
349.577	20.036	1379.026	1076.261
350.592	20.176	1378.436	1076.576
351.606	20.053	1377.530	1075.010
352.621	20.135	1375.931	1074.173
353.635	20.070	1375.434	1073.288
354.650	20.121	1374.661	1072.905
355.665	20.164	1373.641	1072.283
356.679	20.163	1372.384	1071.200
357.694	20.212	1371.222	1070.500
358.708	20.226	1370.533	1069.953
359.723	20.144	1369.453	1068.510
360.738	20.231	1367.940	1067.768
361.752	20.171	1367.407	1066.893
362.767	20.209	1366.231	1066.113
363.781	20.220	1365.433	1065.463
364.796	20.208	1364.860	1064.846
365.810	20.251	1363.942	1064.299
366.825	20.265	1363.176	1063.697
367.840	20.274	1362.154	1062.856
368.854	20.336	1361.685	1062.778
369.869	20.302	1361.422	1062.270
370.883	20.380	1360.839	1062.196
371.898	20.291	1360.192	1061.056
372.913	20.267	1359.450	1060.234
373.927	20.341	1358.655	1059.973
374.942	20.332	1357.499	1058.922
375.956	20.412	1357.216	1059.095
376.971	20.342	1356.200	1057.786
377.986	20.324	1355.334	1056.905
379.000	20.432	1354.281	1056.649
380.015	20.441	1353.258	1055.810
381.029	20.457	1353.146	1055.725
382.044	20.434	1352.321	1054.853
383.059	20.367	1351.719	1053.880
384.073	20.395	1351.138	1053.506
385.088	20.494	1350.590	1053.583
386.102	20.402	1349.952	1052.437
387.117	20.532	1349.143	1052.502
388.132	20.525	1348.418	1051.799
389.146	20.552	1347.381	1051.060
390.161	20.585	1346.541	1050.508
391.175	20.475	1346.230	1049.513
392.190	20.512	1345.554	1049.115
393.205	20.532	1344.933	1048.655
394.219	20.632	1343.215	1047.828
395.234	20.584	1342.033	1046.523
396.248	20.544	1341.309	1045.624
397.263	20.682	1339.628	1045.055
398.278	20.642	1338.680	1043.981
399.292	20.707	1337.715	1043.523
400.307	20.634	1336.866	1042.330
401.321	20.608	1336.005	1041.417
402.336	20.685	1335.104	1041.077
403.350	20.615	1333.958	1039.676
404.365	20.643	1333.473	1039.374
405.380	20.759	1332.043	1038.858
406.394	20.745	1331.459	1038.230
407.409	20.791	1330.419	1037.597
408.423	20.762	1330.099	1037.084
409.438	20.730	1329.528	1036.357
410.453	20.848	1328.276	1035.993
411.467	20.812	1328.034	1035.497
412.482	20.860	1327.192	1035.033
413.496	20.768	1326.658	1033.982
414.511	20.796	1326.004	1033.544
415.526	20.792	1325.117	1032.738
416.540	20.914	1324.364	1032.781
417.555	20.900	1323.585	1032.002
418.569	20.834	1323.368	1031.351
419.584	20.772	1322.905	1030.528
420.599	20.848	1322.037	1030.214
421.613	136.131	1426.478	1788.050
422.628	132.640	1441.664	1788.178
