DTS Sentinel unit serial number:	SN413079Multiplexer serial number:	ORYXHardware model number:	OX4-SRSoftware version number:	ORYX F/W v4.00 Oryx Data Collector v3.7.2.0data status	okinstallation	princeton_trtdifferential loss correction	single-endedforward channel	channel 4reverse channel	N/Adate	2019/09/11time	14:51:11forward acquisition time	60.00reverse acquisition time	0.00gamma	496.2192k internal	0.2278k external	0.2278temperature offset calibration	1.0007default loss term (dB/km)	0.3790temperature slope calibration	1.0000multiplexer offset coefficient	1.0000multiplexer slope coefficient	1.0000fibre end	0.00T internal ref (°C)	42.56T ext. ref 1 (°C)	0.92T ext. ref 2 (°C)	38.72length (m)	temperature (°C)	Stokes	anti-Stokes-747.200	-200.000	-0.003	-0.101
-746.185	-29.787	-0.297	0.175
-745.171	-47.200	-0.215	0.108
-744.156	-200.000	0.009	0.147
-743.142	-81.814	-0.288	-0.097
-742.127	260.472	-0.264	0.469
-741.112	-75.729	-0.395	0.144
-740.098	475.445	-0.125	0.290
-739.083	36.001	-0.127	-0.116
-738.069	134.459	0.104	0.139
-737.054	-87.656	0.123	0.038
-736.039	38.718	0.157	-0.145
-735.025	-183.075	-0.251	-0.005
-734.010	282.467	-0.060	0.110
-732.996	29.596	-0.280	-0.245
-731.981	-74.455	-0.299	0.111
-730.966	-91.371	0.167	-0.049
-729.952	-60.046	-0.192	0.084
-728.937	-200.000	0.005	0.082
-727.923	-30.081	0.010	0.006
-726.908	-143.626	-0.249	-0.024
-725.894	-177.507	-0.424	-0.011
-724.879	84.587	-0.179	-0.202
-723.864	-129.136	-0.413	-0.059
-722.850	142.778	-0.279	0.381
-721.835	26.768	0.341	-0.293
-720.821	800.000	0.121	-0.426
-719.806	39.432	-0.094	0.087
-718.791	-200.000	-0.005	-0.072
-717.777	800.000	-0.036	-0.104
-716.762	159.011	0.035	0.050
-715.748	584.708	0.067	0.170
-714.733	-95.181	-0.277	0.077
-713.718	-169.582	-0.237	-0.009
-712.704	-38.278	-0.148	-0.080
-711.689	-200.000	-0.028	-0.327
-710.675	61.956	-0.418	-0.428
-709.660	81.951	0.216	0.241
-708.645	-200.000	-0.006	0.071
-707.631	-200.000	0.005	-0.226
-706.616	-57.392	-0.282	0.127
-705.602	165.286	0.235	0.342
-704.587	-200.000	0.017	0.080
-703.572	-193.536	-0.236	0.002
-702.558	800.000	0.095	-0.383
-701.543	97.032	-0.060	-0.071
-700.529	-113.210	0.165	-0.033
-699.514	800.000	-0.100	-0.343
-698.499	-58.111	0.196	0.088
-697.485	-133.690	-0.186	-0.024
-696.470	422.824	-0.101	-0.223
-695.456	-200.000	0.013	-0.231
-694.441	-159.478	-0.163	-0.009
-693.426	-88.181	-0.055	-0.017
-692.412	273.033	-0.020	-0.035
-691.397	800.000	0.080	-0.258
-690.383	776.184	-0.112	0.315
-689.368	290.920	-0.161	-0.300
-688.354	-200.000	-0.009	0.186
-687.339	-136.458	0.162	0.019
-686.324	-118.669	0.228	0.041
-685.310	89.278	0.118	0.135
-684.295	-20.320	-0.094	0.059
-683.281	390.579	0.150	-0.320
-682.266	-51.808	0.131	0.062
-681.251	146.876	-0.012	-0.017
-680.237	-106.340	0.377	-0.087
-679.222	-90.905	-0.230	0.068
-678.208	599.105	0.062	-0.158
-677.193	270.789	-0.086	-0.156
-676.178	-69.849	-0.212	0.083
-675.164	-119.553	-0.198	0.035
-674.149	-200.000	0.014	-0.062
-673.135	-82.128	-0.286	0.096
-672.120	-121.305	-0.222	-0.038
-671.105	-200.000	-0.020	-0.347
-670.091	-143.314	-0.456	-0.045
-669.076	196.169	0.075	-0.117
-668.062	501.693	0.026	0.061
-667.047	-116.471	0.095	0.018
-666.032	117.203	0.138	0.174
-665.018	-200.000	0.025	0.124
-664.003	-100.153	0.510	0.130
-662.989	-173.806	-0.370	-0.011
-661.974	-200.000	0.053	0.270
-660.959	213.193	0.162	0.263
-659.945	-62.030	-0.258	-0.110
-658.930	378.189	-0.132	0.277
-657.916	-134.233	-0.149	0.019
-656.901	-200.000	0.019	-0.533
-655.886	-200.000	-0.027	-0.143
-654.872	-12.109	-0.366	0.246
-653.857	800.000	0.056	0.237
-652.843	-116.676	-0.131	-0.025
-651.828	-90.135	0.029	0.009
-650.814	800.000	-0.119	-0.340
-649.799	-74.288	0.059	0.022
-648.784	800.000	0.081	-0.290
-647.770	-200.000	-0.005	-0.405
-646.755	28.208	-0.124	-0.108
-645.741	-200.000	0.018	-0.102
-644.726	132.677	-0.179	0.236
-643.711	-91.491	-0.279	-0.082
-642.697	-90.938	-0.354	-0.105
-641.682	800.000	-0.044	-0.138
-640.668	283.019	-0.106	-0.196
-639.653	70.608	-0.249	-0.264
-638.638	800.000	-0.026	-0.100
-637.624	369.919	-0.207	-0.431
-636.609	150.384	0.061	0.085
-635.595	800.000	0.037	0.119
-634.580	115.611	-0.080	0.101
-633.565	108.324	-0.065	-0.079
-632.551	116.944	0.215	-0.271
-631.536	-139.226	-0.318	-0.035
-630.522	563.204	-0.093	-0.230
-629.507	-103.252	0.319	0.077
-628.492	59.165	-0.250	0.252
-627.478	-5.616	0.256	0.180
-626.463	800.000	-0.068	0.224
-625.449	233.694	-0.084	-0.141
-624.434	-161.243	-0.086	-0.005
-623.419	526.243	-0.177	-0.427
-622.405	-156.525	0.374	-0.024
-621.390	-200.000	0.033	-0.351
-620.376	-26.210	0.278	-0.168
-619.361	565.833	-0.030	0.076
-618.346	60.419	0.164	-0.166
-617.332	59.283	0.060	0.061
-616.317	-23.661	0.069	0.042
-615.303	69.369	0.154	-0.163
-614.288	-78.958	0.036	0.013
-613.273	-200.000	-0.001	-0.034
-612.259	16.722	0.118	0.096
-611.244	-200.000	-0.001	0.118
-610.230	12.896	0.136	-0.107
-609.215	-14.602	0.181	-0.119
-608.201	-3.383	-0.329	-0.235
-607.186	-200.000	-0.010	0.232
-606.171	472.479	-0.073	0.168
-605.157	82.211	-0.026	0.029
-604.142	9.622	-0.061	0.047
-603.128	-131.021	0.134	0.018
-602.113	128.189	0.095	0.124
-601.098	558.171	0.052	-0.128
-600.084	29.041	0.191	0.166
-599.069	-33.693	-0.164	-0.093
-598.055	-200.000	0.071	0.324
-597.040	0.045	0.220	-0.160
-596.025	-18.847	-0.254	-0.162
-595.011	416.769	-0.085	0.185
-593.996	-77.135	0.083	0.030
-592.982	800.000	-0.149	-0.501
-591.967	-200.000	-0.001	-0.133
-590.952	-110.775	-0.133	-0.028
-589.938	-79.045	-0.267	-0.093
-588.923	-0.059	-0.110	-0.080
-587.909	-200.000	0.035	-0.226
-586.894	-42.630	0.119	0.062
-585.879	-61.472	0.197	0.085
-584.865	-95.897	0.041	-0.011
-583.850	102.053	0.129	-0.155
-582.836	-200.000	-0.001	0.110
-581.821	-87.914	0.285	-0.088
-580.806	-200.000	0.004	-0.094
-579.792	-39.762	-0.244	0.130
-578.777	-12.451	-0.415	0.277
-577.763	157.062	-0.335	0.474
-576.748	800.000	0.067	0.201
-575.733	-117.077	-0.210	-0.039
-574.719	-19.699	-0.369	-0.233
-573.704	-200.000	-0.019	-0.285
-572.690	-138.482	-0.411	-0.046
-571.675	-200.000	-0.021	0.172
-570.661	257.032	0.073	-0.129
-569.646	72.118	0.190	0.203
-568.631	-200.000	0.062	0.279
-567.617	800.000	-0.034	-0.149
-566.602	-157.929	-0.341	0.021
-565.588	-7.999	-0.161	0.111
-564.573	-54.687	-0.157	-0.072
-563.558	523.044	0.020	0.048
-562.544	559.239	0.146	0.361
-561.529	800.000	-0.094	-0.277
-560.515	-200.000	-0.039	-0.219
-559.500	22.061	0.288	-0.240
-558.485	-39.921	0.284	-0.151
-557.471	-2.380	-0.209	0.150
-556.456	-56.064	0.027	0.012
-555.442	-43.933	0.348	-0.179
-554.427	-30.223	-0.081	0.047
-553.412	80.632	-0.200	-0.221
-552.398	204.014	0.150	-0.237
-551.383	-38.770	-0.196	0.106
-550.369	59.912	0.089	-0.090
-549.354	-44.549	-0.169	-0.086
-548.339	-30.144	-0.324	-0.188
-547.325	74.231	0.089	0.096
-546.310	-11.884	-0.085	0.057
-545.296	-200.000	-0.011	0.297
-544.281	-55.875	-0.203	-0.092
-543.266	-52.441	0.169	-0.080
-542.252	123.009	0.176	0.225
-541.237	-200.000	0.026	0.200
-540.223	-154.042	0.213	-0.015
-539.208	-88.975	0.245	-0.074
-538.193	-34.162	-0.234	0.132
-537.179	-179.947	0.149	-0.003
-536.164	-134.731	0.148	-0.018
-535.150	639.344	0.082	0.214
-534.135	99.082	0.091	0.108
-533.121	-200.000	-0.012	-0.118
-532.106	-200.000	-0.030	0.189
-531.091	88.313	-0.144	0.164
-530.077	-163.260	0.018	-0.001
-529.062	-38.039	-0.074	0.040
-528.048	-144.181	0.143	-0.014
-527.033	-200.000	0.035	0.307
-526.018	800.000	-0.053	-0.228
-525.004	137.131	0.161	-0.215
-523.989	800.000	0.110	0.360
-522.975	59.654	-0.151	0.152
-521.960	-12.815	0.188	0.125
-520.945	102.060	-0.127	0.151
-519.931	-140.130	0.398	-0.043
-518.916	-36.524	-0.238	-0.130
-517.902	-53.952	-0.345	0.161
-516.887	800.000	-0.044	0.125
-515.872	-163.998	-0.191	-0.009
-514.858	-200.000	0.009	-0.107
-513.843	256.590	-0.182	0.318
-512.829	-79.848	0.088	-0.030
-511.814	-46.239	-0.197	-0.099
-510.799	282.406	0.191	-0.349
-509.785	-75.853	-0.275	0.099
-508.770	800.000	0.080	-0.247
-507.756	800.000	0.009	-0.038
-506.741	-6.656	0.036	-0.025
-505.726	-69.298	0.106	-0.042
-504.712	-168.349	0.261	0.010
-503.697	115.786	-0.231	0.288
-502.683	-10.270	0.332	0.225
-501.668	233.168	0.191	-0.320
-500.653	205.773	-0.089	0.142
-499.639	-181.203	0.424	-0.009
-498.624	-61.063	0.147	-0.063
-497.610	440.900	0.145	0.324
-496.595	-200.000	-0.010	-0.048
-495.581	-200.000	0.079	-0.370
-494.566	54.598	-0.070	-0.069
-493.551	42.350	0.255	-0.236
-492.537	45.569	0.189	-0.178
-491.522	-200.000	0.048	0.254
-490.508	245.615	0.281	0.482
-489.493	86.346	-0.125	0.141
-488.478	-4.986	-0.204	-0.143
-487.464	192.481	0.032	-0.049
-486.449	202.397	0.061	-0.096
-485.435	101.498	0.092	0.109
-484.420	648.624	-0.078	-0.203
-483.405	-168.970	0.210	-0.008
-482.391	335.145	0.182	-0.359
-481.376	-141.807	0.273	-0.028
-480.362	309.218	0.017	0.033
-479.347	505.864	-0.105	-0.249
-478.332	148.729	0.129	0.178
-477.318	800.000	-0.110	0.316
-476.303	-198.514	0.049	-0.000
-475.289	-168.473	-0.255	0.010
-474.274	-200.000	-0.005	-0.135
-473.259	-91.859	-0.228	-0.066
-472.245	-106.655	0.222	0.050
-471.230	-57.535	-0.266	0.119
-470.216	-200.000	-0.023	0.179
-469.201	45.512	0.151	0.142
-468.186	293.734	-0.173	-0.321
-467.172	-81.571	-0.176	-0.059
-466.157	-46.664	-0.358	0.178
-465.143	20.122	0.182	0.149
-464.128	-22.851	-0.287	0.177
-463.113	40.455	-0.117	0.108
-462.099	7.101	0.062	0.047
-461.084	56.633	0.137	0.136
-460.070	129.743	0.071	-0.092
-459.055	776.651	0.078	-0.217
-458.040	33.747	0.226	-0.200
-457.026	-92.977	0.053	-0.015
-456.011	-200.000	-0.022	-0.137
-454.997	22.993	-0.045	0.037
-453.982	487.634	-0.046	0.108
-452.968	-74.419	0.396	0.145
-451.953	-115.271	-0.187	-0.036
-450.938	-88.638	0.362	0.110
-449.924	64.026	0.087	0.089
-448.909	-120.441	-0.183	-0.032
-447.895	3.861	-0.566	-0.421
-446.880	-95.319	-0.146	0.040
-445.865	433.393	0.046	0.102
-444.851	-88.390	0.201	-0.061
-443.836	94.888	0.248	0.287
-442.822	173.696	0.205	-0.301
-441.807	87.946	-0.249	-0.280
-440.792	800.000	-0.109	-0.320
-439.778	306.883	0.106	0.201
-438.763	370.048	0.107	0.221
-437.749	287.115	-0.035	0.064
-436.734	185.086	0.078	0.118
-435.719	-91.757	-0.024	0.007
-434.705	653.356	0.116	-0.303
-433.690	208.802	-0.144	-0.229
-432.676	-5.473	-0.204	0.142
-431.661	-140.247	-0.306	-0.033
-430.646	800.000	-0.054	0.183
-429.632	91.140	-0.206	-0.235
-428.617	-170.032	-0.123	0.004
-427.603	-32.059	0.205	0.117
-426.588	800.000	0.018	-0.066
-425.573	-6.926	-0.213	0.147
-424.559	558.526	0.121	0.297
-423.544	-125.154	-0.149	0.023
-422.530	-112.714	0.110	0.022
-421.515	-117.961	-0.183	0.033
-420.500	-200.000	0.036	0.258
-419.486	-187.819	0.267	-0.004
-418.471	800.000	0.088	0.263
-417.457	800.000	-0.099	0.298
-416.442	275.951	0.102	0.184
-415.428	212.267	-0.036	0.058
-414.413	148.998	0.072	-0.099
-413.398	195.570	-0.117	-0.180
-412.384	800.000	0.080	0.228
-411.369	-128.660	-0.078	0.011
-410.355	-200.000	-0.010	-0.124
-409.340	82.607	0.267	-0.295
-408.325	322.886	0.115	-0.222
-407.311	54.048	0.268	-0.262
-406.296	-26.653	-0.018	-0.011
-405.282	79.793	-0.070	-0.076
-404.267	-38.796	-0.063	0.034
-403.252	-123.199	0.047	0.008
-402.238	-200.000	0.026	0.176
-401.223	107.276	0.194	0.234
-400.209	66.861	0.270	0.279
-399.194	-112.224	0.234	0.048
-398.179	89.765	-0.164	-0.186
-397.165	-200.000	-0.011	0.354
-396.150	-174.385	0.263	-0.008
-395.136	351.772	0.150	0.303
-394.121	115.000	0.217	-0.268
-393.106	-200.000	-0.013	-0.062
-392.092	48.250	0.147	-0.140
-391.077	-110.284	-0.194	0.041
-390.063	800.000	0.076	0.242
-389.048	-143.310	-0.108	-0.011
-388.033	48.467	0.162	-0.154
-387.019	800.000	0.069	0.218
-386.004	-93.730	0.108	-0.030
-384.990	-119.717	0.254	-0.044
-383.975	-200.000	0.042	0.358
-382.960	-36.196	-0.257	0.141
-381.946	-200.000	0.031	0.170
-380.931	-91.683	0.065	0.019
-379.917	800.000	-0.035	-0.102
-378.902	-68.456	0.134	-0.053
-377.888	-130.163	0.182	-0.025
-376.873	-61.878	0.142	-0.060
-375.858	138.158	-0.192	0.255
-374.844	-144.036	-0.248	0.024
-373.829	-200.000	-0.016	-0.192
-372.815	47.688	0.294	-0.279
-371.800	-200.000	0.039	-0.223
-370.785	-108.356	-0.234	0.051
-369.771	-153.092	-0.129	0.009
-368.756	-77.249	-0.144	-0.051
-367.742	-200.000	-0.029	-0.159
-366.727	-70.124	-0.104	0.040
-365.712	103.973	0.066	-0.079
-364.698	-187.689	0.278	0.004
-363.683	55.308	0.026	0.026
-362.669	-38.310	-0.128	0.069
-361.654	466.872	0.065	0.148
-360.639	-200.000	-0.016	0.153
-359.625	73.340	0.253	0.269
-358.610	-200.000	0.017	0.084
-357.596	-66.743	-0.164	-0.066
-356.581	800.000	0.056	-0.238
-355.566	195.112	0.054	0.083
-354.552	-82.676	-0.164	0.054
-353.537	-200.000	0.001	0.349
-352.523	26.642	0.144	-0.123
-351.508	53.415	0.237	-0.231
-350.493	-137.323	-0.303	-0.035
-349.479	486.350	-0.055	0.127
-348.464	24.151	0.015	0.012
-347.450	-191.007	0.210	-0.002
-346.435	-200.000	0.014	0.105
-345.420	-42.347	0.105	0.054
-344.406	151.377	-0.097	-0.134
-343.391	-35.890	0.216	-0.118
-342.377	78.429	-0.070	0.076
-341.362	-200.000	0.051	0.233
-340.348	95.788	-0.111	-0.129
-339.333	-200.000	-0.009	0.125
-338.318	800.000	0.056	-0.241
-337.304	95.619	-0.176	0.203
-336.289	-200.000	0.064	0.000
-335.275	-151.293	0.069	0.005
-334.260	800.000	-0.055	-0.191
-333.245	156.894	-0.092	-0.128
-332.231	89.129	0.212	0.240
-331.216	-76.316	-0.264	0.094
-330.202	233.871	-0.121	-0.202
-329.187	257.790	-0.092	0.160
-328.172	-200.000	-0.014	0.190
-327.158	81.381	-0.099	0.108
-326.143	94.345	0.022	-0.025
-325.129	800.000	0.013	-0.037
-324.114	497.038	0.119	0.277
-323.099	-200.000	-0.022	-0.263
-322.085	144.016	0.144	0.195
-321.070	-200.000	-0.001	-0.146
-320.056	73.822	-0.209	-0.222
-319.041	800.000	0.065	-0.199
-318.026	84.868	0.131	-0.145
-317.012	81.397	0.095	0.104
-315.997	-102.542	-0.357	-0.086
-314.983	104.606	-0.063	-0.075
-313.968	800.000	-0.060	0.206
-312.953	109.242	-0.141	0.171
-311.939	126.300	-0.108	0.138
-310.924	2.900	-0.149	-0.110
-309.910	39.046	-0.288	-0.260
-308.895	800.000	-0.060	-0.265
-307.880	-110.610	-0.093	0.019
-306.866	3.291	-0.238	0.175
-305.851	-200.000	0.055	0.284
-304.837	800.000	0.075	-0.239
-303.822	189.797	-0.045	-0.068
-302.807	-101.219	0.131	0.032
-301.793	-98.932	-0.515	-0.132
-300.778	23.004	0.042	0.035
-299.764	-70.953	0.082	-0.031
-298.749	526.231	-0.148	-0.354
-297.735	409.817	0.063	0.135
-296.720	-84.370	-0.087	0.028
-295.705	-200.000	0.015	0.072
-294.691	-127.682	0.069	-0.010
-293.676	55.627	-0.245	-0.240
-292.662	60.561	0.112	-0.112
-291.647	800.000	0.036	0.143
-290.632	231.458	0.192	0.318
-289.618	597.572	-0.024	-0.059
-288.603	800.000	0.026	-0.079
-287.589	-200.000	-0.023	0.190
-286.574	267.285	0.028	0.050
-285.559	-200.000	0.011	0.263
-284.545	-154.751	0.376	0.025
-283.530	-143.751	0.122	-0.012
-282.516	-88.818	-0.597	0.179
-281.501	239.264	0.106	0.179
-280.486	-52.963	0.180	0.084
-279.472	-16.356	0.034	-0.022
-278.457	42.151	-0.084	0.078
-277.443	-200.000	0.026	0.220
-276.428	0.997	-0.236	0.171
-275.413	11.987	-0.090	0.070
-274.399	-130.354	-0.316	-0.043
-273.384	-116.372	-0.217	-0.041
-272.370	77.085	0.083	-0.089
-271.355	770.316	-0.094	-0.259
-270.340	71.080	-0.178	0.187
-269.326	204.342	0.100	-0.156
-268.311	414.083	-0.068	-0.147
-267.297	-21.369	0.221	0.136
-266.282	153.075	-0.049	0.068
-265.267	-91.196	0.142	-0.041
-264.253	133.149	0.002	0.003
-263.238	71.208	0.145	0.152
-262.224	-57.134	-0.158	0.070
-261.209	-23.325	0.172	-0.104
-260.195	125.732	0.315	-0.401
-259.180	51.778	0.020	-0.019
-258.165	-200.000	0.018	-0.126
-257.151	160.109	-0.022	-0.031
-256.136	266.855	-0.238	0.421
-255.122	800.000	-0.032	0.124
-254.107	115.729	-0.088	-0.109
-253.092	4.008	-0.106	0.078
-252.078	-95.926	-0.197	0.053
-251.063	-200.000	0.028	0.229
-250.049	128.743	-0.095	-0.122
-249.034	28.011	-0.253	-0.216
-248.019	239.689	-0.045	-0.076
-247.005	-28.144	-0.144	-0.084
-245.990	353.375	-0.208	0.417
-244.976	-199.206	0.135	-0.001
-243.961	31.497	0.154	0.134
-242.946	-42.802	0.034	0.018
-241.932	-200.000	0.023	-0.173
-240.917	35.183	-0.178	0.157
-239.903	275.086	-0.035	0.062
-238.888	159.920	-0.277	-0.389
-237.873	-79.455	-0.133	0.046
-236.859	-200.000	0.058	0.386
-235.844	9.921	-0.106	-0.082
-234.830	-141.063	-0.027	-0.003
-233.815	-200.000	-0.060	0.342
-232.800	-157.776	0.373	-0.022
-231.786	92.910	-0.096	-0.109
-230.771	23.458	0.081	-0.067
-229.757	-200.000	-0.053	0.362
-228.742	-200.000	-0.034	-0.282
-227.727	-126.808	-0.177	0.026
-226.713	800.000	-0.032	-0.105
-225.698	127.588	-0.174	-0.223
-224.684	-46.458	0.220	0.109
-223.669	-29.403	-0.083	0.048
-222.655	-200.000	0.010	-0.166
-221.640	-5.534	0.227	-0.157
-220.625	119.800	0.206	0.257
-219.611	86.254	-0.110	0.122
-218.596	204.617	0.078	-0.122
-217.582	176.852	0.241	-0.353
-216.567	-45.042	0.120	0.060
-215.552	-22.732	0.226	-0.138
-214.538	194.204	0.206	0.315
-213.523	96.800	-0.175	0.202
-212.509	-72.140	0.107	-0.040
-211.494	-95.817	-0.246	-0.066
-210.479	-35.266	-0.030	-0.017
-209.465	-142.490	0.364	-0.036
-208.450	0.906	0.273	0.197
-207.436	-200.000	0.009	0.201
-206.421	11.535	-0.135	-0.104
-205.406	800.000	-0.063	0.213
-204.392	-200.000	0.027	0.131
-203.377	-200.000	-0.019	0.116
-202.363	-200.000	-0.055	0.314
-201.348	118.129	-0.132	0.164
-200.333	-200.000	0.012	0.057
-199.319	-148.133	0.050	0.004
-198.304	203.534	-0.117	-0.183
-197.290	46.317	-0.071	0.067
-196.275	-200.000	0.031	-0.149
-195.260	-200.000	0.009	0.041
-194.246	-113.985	-0.172	0.034
-193.231	-200.000	0.019	-0.465
-192.217	100.539	0.171	-0.200
-191.202	-200.000	0.044	-0.356
-190.187	800.000	0.038	0.147
-189.173	-61.896	0.188	-0.079
-188.158	800.000	0.051	-0.200
-187.144	47.506	-0.195	0.183
-186.129	-35.801	-0.472	0.257
-185.114	178.461	0.070	-0.103
-184.100	14.094	0.030	0.024
-183.085	2.153	-0.230	0.168
-182.071	-200.000	-0.002	-0.135
-181.056	116.845	0.185	-0.228
-180.042	60.485	0.233	-0.233
-179.027	-64.107	-0.119	0.049
-178.012	1.809	0.105	0.076
-176.998	-48.734	0.321	0.155
-175.983	-200.000	-0.016	0.236
-174.969	-113.583	0.123	0.024
-173.954	240.861	0.062	-0.105
-172.939	-12.910	-0.073	-0.048
-171.925	93.606	0.147	-0.167
-170.910	282.159	-0.006	-0.010
-169.896	-74.354	-0.213	0.078
-168.881	124.924	-0.135	-0.171
-167.866	-200.000	-0.036	-0.367
-166.852	-53.323	0.188	-0.087
-165.837	-33.994	0.193	0.107
-164.823	-137.285	-0.196	-0.022
-163.808	-98.846	0.316	-0.081
-162.793	-200.000	-0.004	-0.022
-161.779	800.000	-0.026	0.074
-160.764	-1.464	-0.067	0.048
-159.750	337.224	-0.023	0.044
-158.735	130.506	0.043	-0.055
-157.720	-120.430	0.309	0.053
-156.706	-42.889	0.158	-0.081
-155.691	-19.716	0.101	0.063
-154.677	-200.000	-0.050	-0.253
-153.662	-96.120	-0.218	-0.058
-152.647	-59.115	0.309	-0.134
-151.633	-15.777	-0.060	-0.039
-150.618	-200.000	0.022	-0.203
-149.604	800.000	-0.105	0.320
-148.589	-200.000	-0.008	0.215
-147.574	31.116	-0.058	-0.050
-146.560	166.625	0.187	0.266
-145.545	-28.297	-0.087	-0.051
-144.531	-92.214	0.219	-0.062
-143.516	-24.357	-0.134	-0.080
-142.502	212.778	0.157	0.250
-141.487	-200.000	-0.057	-0.365
-140.472	-200.000	0.003	-0.060
-139.458	50.274	0.045	0.042
-138.443	20.651	-0.126	-0.103
-137.429	36.525	-0.186	-0.165
-136.414	-109.461	0.314	0.067
-135.399	-200.000	0.007	0.319
-134.385	800.000	0.013	-0.058
-133.370	631.838	0.077	0.196
-132.356	43.121	0.290	0.266
-131.341	175.698	0.154	0.225
-130.326	-75.905	0.190	0.068
-129.312	215.210	-0.048	-0.076
-128.297	-200.000	-0.027	0.187
-127.283	-9.986	-0.207	-0.138
-126.268	-57.528	0.213	0.094
-125.253	800.000	-0.031	0.097
-124.239	113.900	0.132	-0.161
-123.224	70.979	0.226	-0.235
-122.210	-120.979	0.059	-0.010
-121.195	800.000	-0.073	0.275
-120.180	110.666	0.197	0.239
-119.166	185.544	0.149	0.222
-118.151	800.000	0.072	0.233
-117.137	88.336	-0.039	0.043
-116.122	220.371	0.156	0.251
-115.107	320.292	0.047	0.089
-114.093	-98.956	-0.154	0.039
-113.078	-200.000	0.009	0.132
-112.064	326.760	0.073	-0.140
-111.049	-200.000	-0.031	-0.158
-110.034	-70.706	-0.147	0.056
-109.020	-28.397	-0.328	0.190
-108.005	-101.901	-0.089	0.022
-106.991	-200.000	-0.031	0.304
-105.976	189.699	0.068	-0.103
-104.962	-200.000	-0.034	-0.263
-103.947	-55.385	-0.257	-0.116
-102.932	143.163	-0.104	0.139
-101.918	58.028	-0.149	-0.147
-100.903	393.348	0.114	-0.237
-99.889	-46.402	0.035	0.017
-98.874	-200.000	0.001	0.131
-97.859	-200.000	-0.021	-0.103
-96.845	191.754	-0.123	0.186
-95.830	-200.000	0.024	0.125
-94.816	437.998	0.155	-0.339
-93.801	800.000	0.161	-0.463
-92.786	0.104	-0.234	-0.167
-91.772	-200.000	0.024	-0.166
-90.757	-158.261	0.074	0.004
-89.743	45.888	0.154	0.143
-88.728	800.000	0.027	0.078
-87.713	-63.729	0.545	0.224
-86.699	147.224	0.057	0.077
-85.684	24.163	-0.134	0.111
-84.670	191.787	-0.111	0.168
-83.655	66.578	-0.112	0.114
-82.640	226.764	0.219	-0.356
-81.626	-200.000	-0.003	-0.221
-80.611	-200.000	-0.025	0.134
-79.597	88.777	0.085	-0.095
-78.582	-200.000	0.016	0.085
-77.567	-200.000	0.033	0.149
-76.553	-151.147	-0.032	0.002
-75.538	188.543	0.124	-0.187
-74.524	-200.000	-0.039	0.195
-73.509	-116.871	0.154	0.028
-72.494	-88.628	-0.235	-0.070
-71.480	229.256	0.096	-0.157
-70.465	800.000	0.018	-0.077
-69.451	258.515	0.311	0.538
-68.436	-28.937	-0.202	-0.116
-67.422	544.929	0.087	-0.209
-66.407	353.478	0.093	0.185
-65.392	-88.325	-0.385	0.116
-64.378	52.259	-0.332	-0.317
-63.363	-154.740	-0.100	0.007
-62.349	-140.574	0.278	-0.029
-61.334	379.988	-0.434	-0.891
-60.319	-200.000	-0.061	0.302
-59.305	511.664	-0.267	-0.623
-58.290	88.173	0.466	0.518
-57.276	440.468	0.754	1.652
-56.261	-200.000	74.786	524.935
-55.246	554.277	1301.482	3137.895
-54.232	143.842	2534.174	3385.811
-53.217	110.698	2373.689	2861.598
-52.203	49.705	2111.816	1994.149
-51.188	44.618	2019.321	1860.392
-50.173	42.831	2000.246	1826.539
-49.159	54.700	2036.725	1968.575
-48.144	59.831	2057.615	2035.615
-47.130	45.395	2022.790	1870.404
-46.115	42.582	2011.386	1834.153
-45.100	42.461	2008.842	1830.651
-44.086	42.469	2006.364	1828.393
-43.071	42.435	2004.061	1825.920
-42.057	42.405	2002.123	1823.808
-41.042	42.428	2000.175	1822.165
-40.027	42.406	1998.369	1820.253
-39.013	42.499	1995.364	1818.288
-37.998	42.529	1993.914	1817.160
-36.984	42.480	1992.547	1815.404
-35.969	42.492	1990.792	1813.839
-34.954	42.546	1988.829	1812.468
-33.940	42.498	1987.785	1811.007
-32.925	42.634	1985.488	1810.071
-31.911	42.653	1983.455	1808.311
-30.896	42.581	1982.093	1806.357
-29.881	42.575	1980.457	1804.737
-28.867	42.578	1978.941	1803.310
-27.852	42.624	1976.672	1801.585
-26.838	42.572	1974.822	1799.359
-25.823	42.607	1973.108	1798.042
-24.809	42.615	1971.509	1796.581
-23.794	42.666	1969.919	1795.517
-22.779	42.568	1968.263	1793.063
-21.765	42.591	1966.507	1791.595
-20.750	42.557	1965.110	1789.949
-19.736	42.554	1963.738	1788.608
-18.721	42.553	1962.458	1787.361
-17.706	42.595	1960.483	1785.860
-16.692	42.571	1958.240	1783.535
-15.677	42.610	1956.537	1782.255
-14.663	42.614	1955.656	1781.425
-13.648	42.581	1954.665	1780.158
-12.633	42.502	1953.296	1778.141
-11.619	42.560	1951.739	1777.166
-10.604	42.572	1950.482	1776.057
-9.590	42.542	1948.782	1774.174
-8.575	42.557	1947.503	1773.068
-7.560	42.582	1946.030	1771.882
-6.546	42.564	1944.871	1770.590
-5.531	42.551	1943.397	1769.066
-4.517	42.538	1942.333	1767.918
-3.502	42.544	1940.709	1766.417
-2.487	42.625	1939.506	1765.968
-1.473	42.586	1938.618	1764.746
-0.458	42.697	1934.638	1762.020
0.556	41.935	1916.562	1740.263
1.571	38.208	1898.233	1691.277
2.586	33.967	1919.054	1672.461
3.600	32.383	1956.018	1690.305
4.615	31.291	1952.571	1677.383
5.629	23.429	1845.626	1518.326
6.644	9.262	1711.506	1294.522
7.659	1.656	1665.367	1199.728
8.673	1.030	1661.062	1191.599
9.688	0.984	1658.935	1189.605
10.702	0.872	1657.429	1187.536
11.717	0.784	1654.766	1184.840
12.731	1.161	1654.227	1187.296
13.746	9.015	1674.066	1263.476
14.761	20.122	1699.716	1371.062
15.775	24.432	1705.943	1410.102
16.790	24.542	1705.542	1410.514
17.804	24.578	1705.086	1410.298
18.819	24.714	1704.181	1410.492
19.834	24.693	1703.645	1409.761
20.848	24.896	1702.767	1410.506
21.863	24.958	1701.665	1409.960
22.877	24.996	1700.405	1409.089
23.892	25.076	1699.369	1408.733
24.907	24.996	1698.716	1407.443
25.921	24.983	1697.672	1406.347
26.936	25.008	1696.397	1405.361
27.950	25.008	1695.481	1404.480
28.965	25.016	1695.326	1404.288
29.980	25.000	1694.306	1403.194
30.994	25.004	1692.837	1401.885
32.009	25.002	1691.505	1400.648
33.023	24.987	1690.640	1399.690
34.038	25.021	1689.452	1398.845
35.053	24.936	1689.134	1397.796
36.067	25.005	1687.779	1397.092
37.082	24.965	1686.925	1395.942
38.096	25.022	1685.594	1395.168
39.111	25.008	1685.177	1394.589
40.126	24.934	1684.237	1393.106
41.140	25.001	1683.519	1392.918
42.155	25.051	1682.122	1392.022
43.169	24.919	1681.592	1390.434
44.184	24.944	1680.043	1389.230
45.199	24.989	1679.398	1388.918
46.213	24.930	1677.819	1387.031
47.228	24.937	1677.162	1386.421
48.242	24.929	1675.816	1385.129
49.257	24.916	1674.637	1383.924
50.271	25.063	1673.085	1383.660
51.286	25.034	1671.621	1382.100
52.301	24.987	1670.974	1381.080
53.315	24.999	1669.153	1379.546
54.330	25.035	1667.613	1378.425
55.344	25.034	1666.495	1377.372
56.359	24.998	1665.606	1376.245
57.374	25.046	1664.133	1375.273
58.388	25.063	1663.281	1374.578
59.403	25.034	1662.147	1373.292
60.417	25.034	1660.935	1372.169
61.432	24.950	1660.454	1371.011
62.447	25.095	1658.666	1370.525
63.461	24.996	1658.290	1369.331
64.476	25.058	1657.242	1368.818
65.490	25.043	1656.101	1367.642
66.505	25.057	1655.021	1366.736
67.520	24.932	1654.324	1365.089
68.534	25.078	1652.891	1364.891
69.549	25.093	1651.601	1363.824
70.563	25.101	1650.442	1362.807
71.578	25.116	1649.461	1361.991
72.593	25.043	1648.831	1360.796
73.607	25.061	1647.930	1360.070
74.622	25.077	1646.549	1358.925
75.636	25.103	1645.880	1358.455
76.651	25.025	1645.437	1357.373
77.666	25.024	1644.400	1356.394
78.680	25.130	1643.349	1356.204
79.695	25.031	1643.017	1355.066
80.709	25.060	1641.286	1353.735
81.724	25.074	1640.932	1353.433
82.739	25.125	1639.907	1352.852
83.753	25.062	1638.972	1351.482
84.768	25.117	1637.668	1350.704
85.782	25.119	1637.333	1350.319
86.797	25.038	1636.580	1348.971
87.812	25.193	1635.082	1348.787
88.826	24.983	1634.350	1346.480
89.841	25.028	1633.491	1345.990
90.855	25.004	1632.534	1344.908
91.870	25.022	1631.564	1344.123
92.884	25.054	1630.303	1343.203
93.899	25.058	1629.283	1342.279
94.914	25.100	1628.026	1341.437
95.928	25.024	1626.995	1339.899
96.943	25.090	1625.747	1339.246
97.957	25.074	1624.328	1337.838
98.972	25.002	1623.431	1336.442
99.987	25.043	1622.319	1335.715
101.001	25.128	1620.588	1334.805
102.016	25.062	1618.886	1332.792
103.030	24.993	1618.322	1331.696
104.045	25.023	1616.967	1330.693
105.060	24.941	1615.518	1328.769
106.074	25.012	1614.568	1328.399
107.089	24.965	1613.218	1326.823
108.103	25.076	1611.598	1326.191
109.118	25.036	1611.211	1325.463
110.133	25.150	1609.315	1324.630
111.147	25.145	1608.215	1323.568
112.162	25.095	1607.547	1322.534
113.176	25.074	1606.160	1321.121
114.191	25.126	1604.857	1320.313
115.206	25.127	1604.034	1319.530
116.220	25.070	1602.761	1317.943
117.235	25.069	1601.699	1316.944
118.249	25.154	1599.981	1316.041
119.264	25.089	1599.038	1314.672
120.279	25.080	1598.042	1313.672
121.293	25.200	1596.767	1313.383
122.308	25.226	1595.922	1312.762
123.322	25.202	1594.345	1311.173
124.337	25.177	1593.140	1309.884
125.352	25.256	1592.161	1309.541
126.366	25.159	1591.631	1308.279
127.381	25.256	1590.581	1308.008
128.395	25.201	1589.570	1306.660
129.410	25.122	1588.889	1305.414
130.424	25.213	1587.527	1304.838
131.439	25.156	1586.764	1303.681
132.454	25.275	1584.909	1302.911
133.468	25.244	1583.718	1301.587
134.483	25.193	1582.490	1300.095
135.497	25.248	1581.287	1299.387
136.512	25.224	1580.305	1298.296
137.527	25.170	1579.174	1296.859
138.541	25.108	1578.583	1295.809
139.556	25.295	1576.733	1295.526
140.570	25.257	1575.471	1294.101
141.585	25.190	1574.282	1292.529
142.600	25.245	1573.200	1291.922
143.614	25.287	1572.333	1291.396
144.629	25.296	1571.232	1290.444
145.643	25.344	1569.570	1289.309
146.658	25.220	1568.495	1287.424
147.673	25.184	1567.123	1285.927
148.687	25.179	1566.027	1284.876
149.702	25.148	1565.254	1283.902
150.716	25.156	1563.749	1282.616
151.731	25.102	1562.743	1281.292
152.746	25.107	1562.221	1280.785
153.760	25.200	1560.311	1279.765
154.775	25.212	1559.464	1279.043
155.789	25.279	1558.302	1278.455
156.804	25.230	1556.708	1276.684
157.819	25.252	1555.871	1276.045
158.833	25.215	1554.759	1274.756
159.848	25.297	1554.214	1274.776
160.862	25.296	1552.867	1273.558
161.877	25.228	1552.216	1272.426
162.892	25.283	1551.446	1272.069
163.906	25.285	1550.505	1271.202
164.921	25.223	1549.726	1270.010
165.935	25.286	1548.615	1269.437
166.950	25.338	1547.694	1268.932
167.964	25.303	1546.598	1267.674
168.979	25.353	1545.457	1266.981
169.994	25.366	1544.755	1266.386
171.008	25.351	1543.870	1265.443
172.023	25.289	1543.399	1264.509
173.037	25.368	1541.791	1263.632
174.052	25.318	1540.759	1262.326
175.067	25.372	1539.526	1261.583
176.081	25.374	1538.445	1260.598
177.096	25.409	1537.622	1260.062
178.110	25.306	1536.797	1258.548
179.125	25.323	1535.639	1257.608
180.140	25.338	1535.088	1257.152
181.154	25.479	1533.954	1257.096
182.169	25.363	1533.359	1255.687
183.183	25.255	1532.372	1254.011
184.198	25.380	1531.332	1253.921
185.213	25.414	1530.271	1253.181
186.227	25.406	1529.367	1252.272
187.242	25.449	1528.721	1251.934
188.256	25.485	1527.899	1251.400
189.271	25.398	1527.034	1249.979
190.286	25.481	1525.938	1249.545
191.300	25.457	1525.176	1248.646
192.315	25.421	1524.335	1247.594
193.329	25.397	1523.758	1246.850
194.344	25.459	1522.636	1246.245
195.359	25.380	1522.192	1245.229
196.373	25.503	1520.908	1244.918
197.388	25.380	1520.299	1243.457
198.402	25.403	1519.034	1242.476
199.417	25.432	1517.730	1241.499
200.432	25.307	1517.525	1240.354
201.446	25.472	1516.472	1240.526
202.461	25.497	1515.877	1240.101
203.475	25.460	1515.018	1239.032
204.490	25.490	1513.925	1238.236
205.504	25.417	1513.048	1236.905
206.519	25.370	1512.652	1236.148
207.534	25.480	1511.597	1235.932
208.548	25.577	1510.637	1235.706
209.563	25.508	1509.887	1234.514
210.577	25.437	1509.203	1233.354
211.592	25.355	1508.577	1232.172
212.607	25.467	1507.538	1231.978
213.621	25.521	1506.616	1231.491
214.636	25.555	1505.805	1230.951
215.650	25.605	1504.929	1230.465
216.665	25.580	1504.074	1229.484
217.680	25.509	1503.731	1228.611
218.694	25.561	1503.025	1228.283
219.709	25.565	1502.152	1227.490
220.723	25.564	1501.227	1226.613
221.738	25.599	1500.172	1225.888
222.753	25.649	1499.276	1225.381
223.767	25.462	1498.515	1223.384
224.782	25.426	1497.689	1222.352
225.796	25.672	1496.262	1222.750
226.811	25.581	1496.062	1221.863
227.826	25.656	1495.350	1221.686
228.840	25.645	1494.669	1220.944
229.855	25.704	1493.786	1220.512
230.869	25.646	1492.779	1219.187
231.884	25.587	1492.113	1218.140
232.899	25.657	1491.145	1217.718
233.913	25.606	1489.985	1216.312
234.928	25.595	1489.097	1215.405
235.942	25.686	1487.677	1214.758
236.957	25.726	1487.123	1214.465
237.972	25.657	1485.776	1212.796
238.986	25.694	1484.784	1212.127
240.001	25.704	1484.134	1211.555
241.015	25.716	1483.231	1210.788
242.030	25.783	1482.038	1210.160
243.045	25.879	1480.931	1209.793
244.059	25.877	1480.066	1208.969
245.074	25.920	1479.192	1208.437
246.088	25.808	1478.885	1207.326
247.103	25.860	1478.094	1206.919
248.117	25.870	1477.188	1206.138
249.132	25.834	1476.674	1205.372
250.147	25.797	1475.889	1204.380
251.161	25.831	1475.341	1204.055
252.176	25.908	1474.835	1204.048
253.190	25.934	1473.778	1203.252
254.205	25.961	1472.847	1202.566
255.220	25.990	1472.044	1201.997
256.234	25.901	1471.430	1200.792
257.249	25.852	1470.553	1199.645
258.263	25.991	1469.580	1199.675
259.278	25.900	1468.748	1198.279
260.293	25.960	1467.453	1197.519
261.307	26.012	1466.921	1197.320
262.322	25.877	1466.719	1196.153
263.336	25.923	1466.258	1195.982
264.351	25.906	1464.920	1194.671
265.366	26.012	1464.049	1194.556
266.380	25.953	1463.011	1193.215
267.395	25.965	1462.018	1192.379
268.409	25.943	1461.411	1191.630
269.424	26.013	1460.554	1191.290
270.439	25.977	1459.831	1190.354
271.453	26.036	1458.930	1189.903
272.468	26.034	1457.888	1188.934
273.482	26.034	1457.139	1188.219
274.497	25.989	1456.500	1187.297
275.512	26.078	1455.471	1186.939
276.526	26.164	1454.909	1186.940
277.541	26.086	1453.928	1185.526
278.555	26.097	1452.938	1184.682
279.570	26.130	1452.539	1184.472
280.585	26.197	1451.245	1183.752
281.599	26.168	1450.768	1183.066
282.614	26.146	1449.936	1182.142
283.628	26.008	1449.016	1180.383
284.643	26.134	1447.991	1180.268
285.657	26.243	1446.820	1179.921
286.672	26.058	1446.583	1178.411
287.687	26.127	1445.522	1177.896
288.701	26.159	1444.916	1177.504
289.716	26.119	1444.401	1176.723
290.730	26.166	1443.685	1176.342
291.745	26.148	1442.675	1175.295
292.760	26.194	1441.531	1174.557
293.774	26.216	1440.795	1173.996
294.789	26.219	1439.678	1173.006
295.803	26.219	1439.213	1172.520
296.818	26.251	1438.408	1171.967
297.833	26.337	1437.243	1171.475
298.847	26.226	1436.407	1169.969
299.862	26.233	1435.693	1169.330
300.876	26.251	1434.704	1168.537
301.891	26.199	1434.360	1167.818
302.906	26.297	1433.269	1167.458
303.920	26.410	1432.398	1167.374
304.935	26.329	1432.316	1166.683
305.949	26.436	1430.915	1166.128
306.964	26.329	1430.423	1164.934
307.979	26.315	1429.602	1164.073
308.993	26.377	1428.678	1163.615
310.008	26.367	1427.936	1162.842
311.022	26.407	1426.475	1161.809
312.037	26.491	1425.750	1161.654
313.052	26.376	1425.253	1160.406
314.066	26.438	1424.090	1159.759
315.081	26.456	1423.233	1159.071
316.095	26.369	1422.447	1157.770
317.110	26.405	1421.521	1157.147
318.125	26.434	1420.701	1156.564
319.139	26.364	1420.208	1155.610
320.154	26.507	1419.193	1155.597
321.168	26.424	1418.327	1154.256
322.183	26.456	1417.212	1153.451
323.197	26.398	1416.714	1152.578
324.212	26.504	1415.301	1152.001
325.227	26.509	1414.674	1151.417
326.241	26.464	1414.036	1150.514
327.256	26.556	1413.403	1150.479
328.270	26.530	1412.489	1149.467
329.285	26.522	1411.798	1148.752
330.300	26.520	1410.650	1147.703
331.314	26.616	1409.883	1147.588
332.329	26.579	1409.315	1146.787
333.343	26.615	1408.413	1146.185
334.358	26.563	1408.209	1145.589
335.373	26.726	1407.138	1145.644
336.387	26.608	1406.201	1144.032
337.402	26.727	1405.309	1143.960
338.416	26.748	1405.027	1143.762
339.431	26.688	1404.867	1143.148
340.446	26.711	1404.309	1142.738
341.460	26.642	1403.343	1141.419
342.475	26.724	1402.059	1140.791
343.489	26.765	1401.256	1140.293
344.504	26.775	1400.420	1139.572
345.519	26.694	1399.463	1138.188
346.533	26.756	1398.689	1137.842
347.548	26.824	1397.819	1137.463
348.562	26.855	1396.757	1136.694
349.577	26.805	1396.157	1135.793
350.592	26.790	1395.458	1135.029
351.606	26.865	1394.585	1134.687
352.621	26.732	1393.425	1132.813
353.635	26.818	1392.465	1132.464
354.650	26.902	1391.930	1132.457
355.665	26.840	1391.481	1131.604
356.679	26.876	1390.201	1130.684
357.694	26.902	1388.907	1129.693
358.708	26.864	1388.030	1128.648
359.723	26.984	1386.946	1128.410
360.738	26.925	1386.019	1127.189
361.752	26.838	1384.761	1125.528
362.767	26.871	1383.787	1124.840
363.781	26.904	1383.003	1124.306
364.796	26.882	1382.502	1123.668
365.810	26.949	1381.467	1123.139
366.825	26.993	1380.830	1122.793
367.840	26.970	1380.149	1121.998
368.854	27.001	1379.202	1121.320
369.869	27.076	1378.920	1121.453
370.883	27.079	1378.129	1120.733
371.898	27.052	1377.705	1120.125
372.913	27.059	1377.188	1119.642
373.927	27.032	1376.179	1118.560
374.942	27.066	1375.383	1118.020
375.956	27.103	1374.499	1117.434
376.971	27.117	1373.784	1116.837
377.986	27.142	1372.955	1116.222
379.000	27.184	1371.879	1115.502
380.015	27.203	1371.221	1114.986
381.029	27.150	1370.732	1114.166
382.044	27.172	1370.201	1113.772
383.059	27.147	1369.212	1112.716
384.073	27.202	1368.711	1112.543
385.088	27.285	1368.368	1112.677
386.102	27.260	1367.905	1112.050
387.117	27.233	1367.445	1111.410
388.132	27.187	1366.547	1110.302
389.146	27.194	1365.554	1109.438
390.161	27.304	1364.969	1109.537
391.175	27.221	1364.393	1108.463
392.190	27.223	1363.407	1107.575
393.205	27.263	1363.116	1107.484
394.219	27.267	1362.323	1106.767
395.234	27.187	1361.338	1105.387
396.248	27.257	1360.303	1104.869
397.263	27.431	1358.497	1104.363
398.278	27.359	1357.825	1103.281
399.292	27.457	1356.878	1103.007
400.307	27.379	1356.029	1101.747
401.321	27.437	1355.099	1101.244
402.336	27.421	1353.906	1100.081
403.350	27.390	1353.030	1099.084
404.365	27.426	1352.155	1098.498
405.380	27.399	1351.381	1097.605
406.394	27.457	1350.523	1097.162
407.409	27.506	1349.782	1096.755
408.423	27.468	1349.095	1095.875
409.438	27.524	1348.505	1095.633
410.453	27.571	1347.682	1095.152
411.467	27.563	1347.047	1094.491
412.482	27.540	1346.526	1093.830
413.496	27.508	1345.926	1093.054
414.511	27.571	1345.369	1092.884
415.526	27.587	1344.585	1092.248
416.540	27.487	1343.907	1091.003
417.555	27.676	1342.739	1091.084
418.569	27.595	1342.511	1090.318
419.584	27.542	1342.166	1089.629
420.599	27.645	1341.687	1089.760
421.613	74.446	1319.040	1337.713
422.628	75.109	1315.697	1337.833
