DTS Sentinel unit serial number:	SN413079Multiplexer serial number:	ORYXHardware model number:	OX4-SRSoftware version number:	ORYX F/W v4.00 Oryx Data Collector v3.7.2.0data status	okinstallation	princeton_trtdifferential loss correction	single-endedforward channel	channel 4reverse channel	N/Adate	2019/09/11time	12:39:11forward acquisition time	60.00reverse acquisition time	0.00gamma	496.2192k internal	0.2285k external	0.2285temperature offset calibration	0.9968default loss term (dB/km)	0.3790temperature slope calibration	1.0000multiplexer offset coefficient	1.0000multiplexer slope coefficient	1.0000fibre end	0.00T internal ref (°C)	40.81T ext. ref 1 (°C)	0.23T ext. ref 2 (°C)	38.50length (m)	temperature (°C)	Stokes	anti-Stokes-747.200	-46.997	-0.215	-0.108
-746.185	11.831	-0.156	0.123
-745.171	-200.000	0.050	0.312
-744.156	26.829	-0.139	0.119
-743.142	-13.128	-0.119	-0.079
-742.127	-142.862	-0.170	-0.017
-741.112	-159.925	0.348	-0.020
-740.098	800.000	-0.051	0.149
-739.083	-200.000	0.026	0.245
-738.069	313.423	-0.105	0.202
-737.054	-200.000	-0.048	-0.390
-736.039	9.572	-0.324	-0.252
-735.025	-200.000	-0.020	0.185
-734.010	-200.000	-0.053	-0.258
-732.996	23.840	-0.227	-0.192
-731.981	-173.719	-0.586	0.018
-730.966	-146.391	0.341	-0.031
-729.952	491.618	-0.060	0.141
-728.937	800.000	-0.039	-0.151
-727.923	90.666	-0.294	-0.338
-726.908	-149.248	0.182	0.015
-725.894	50.288	0.056	0.054
-724.879	-126.036	-0.067	-0.010
-723.864	-140.756	0.179	0.019
-722.850	-200.000	-0.052	-0.421
-721.835	285.941	0.080	-0.148
-720.821	-122.128	-0.458	-0.077
-719.806	144.834	-0.060	-0.082
-718.791	36.975	0.323	-0.293
-717.777	-156.726	-0.223	-0.014
-716.762	171.725	-0.179	0.264
-715.748	12.393	0.009	-0.007
-714.733	-111.036	0.252	0.053
-713.718	301.657	-0.196	0.371
-712.704	-31.138	0.242	0.140
-711.689	-111.795	-0.206	0.043
-710.675	-58.985	0.225	0.100
-709.660	261.665	0.096	-0.170
-708.645	70.908	0.270	-0.287
-707.631	-104.906	-0.146	0.034
-706.616	-161.983	-0.146	-0.008
-705.602	394.846	-0.068	0.145
-704.587	-45.552	0.200	0.102
-703.572	-115.184	-0.148	0.029
-702.558	80.763	0.352	0.389
-701.543	-60.777	-0.263	0.114
-700.529	-115.159	-0.085	0.017
-699.514	-78.389	-0.365	-0.128
-698.499	-200.000	0.019	0.174
-697.485	-139.729	0.122	0.013
-696.470	-190.820	0.245	0.003
-695.456	-141.925	0.124	0.013
-694.441	-62.858	-0.290	-0.123
-693.426	-6.647	-0.058	0.041
-692.412	-200.000	0.024	0.244
-691.397	-137.289	0.173	0.020
-690.383	-128.613	-0.336	0.049
-689.368	-54.621	0.415	0.192
-688.354	-166.091	-0.201	-0.009
-687.339	366.119	-0.088	-0.181
-686.324	255.898	-0.114	0.201
-685.310	-14.833	-0.147	0.097
-684.295	177.995	-0.245	0.367
-683.281	-28.040	-0.124	0.074
-682.266	-200.000	0.091	0.407
-681.251	66.592	0.081	-0.084
-680.237	-200.000	0.023	-0.116
-679.222	-200.000	0.075	0.449
-678.208	-200.000	-0.066	-0.342
-677.193	78.793	0.128	-0.141
-676.178	380.040	0.076	-0.160
-675.164	47.017	-0.179	-0.171
-674.149	61.510	0.113	-0.115
-673.135	-7.774	0.057	0.040
-672.120	-18.972	-0.183	-0.117
-671.105	-34.144	-0.245	0.138
-670.091	-105.046	-0.065	0.015
-669.076	800.000	0.063	0.223
-668.062	286.300	0.103	0.191
-667.047	-76.940	0.134	-0.048
-666.032	-143.447	-0.038	-0.004
-665.018	32.655	0.037	-0.032
-664.003	-25.679	0.220	-0.133
-662.989	-200.000	-0.005	0.229
-661.974	-10.419	-0.319	0.217
-660.959	-102.748	0.179	-0.044
-659.945	481.006	-0.047	-0.108
-658.930	189.512	-0.084	0.130
-657.916	-144.965	0.072	-0.007
-656.901	4.101	-0.193	-0.144
-655.886	322.255	0.150	0.292
-654.872	110.155	-0.208	-0.255
-653.857	-200.000	0.028	-0.300
-652.843	30.831	-0.232	-0.203
-651.828	-58.042	0.202	0.090
-650.814	703.012	-0.043	0.116
-649.799	-52.977	0.204	-0.096
-648.784	143.833	-0.041	-0.055
-647.770	200.266	-0.134	-0.211
-646.755	-24.404	-0.204	0.124
-645.741	-94.515	0.345	-0.096
-644.726	360.899	-0.084	-0.173
-643.711	40.177	0.205	-0.188
-642.697	447.840	-0.116	0.261
-641.682	800.000	0.152	0.446
-640.668	-139.060	0.060	-0.007
-639.653	236.800	-0.096	-0.162
-638.638	580.540	0.059	-0.147
-637.624	68.944	-0.065	-0.069
-636.609	314.482	0.013	-0.026
-635.595	358.159	-0.227	-0.463
-634.580	-80.713	0.572	0.194
-633.565	290.893	0.102	0.189
-632.551	-200.000	0.047	-0.272
-631.536	-85.245	-0.327	0.104
-630.522	800.000	0.026	-0.105
-629.507	800.000	-0.088	0.357
-628.492	-10.270	0.152	-0.103
-627.478	208.624	-0.081	-0.130
-626.463	121.097	-0.034	0.044
-625.449	-100.747	0.152	0.038
-624.434	-36.553	-0.385	0.212
-623.419	201.090	-0.174	-0.273
-622.405	-125.870	0.336	-0.052
-621.390	307.877	-0.069	-0.132
-620.376	-13.049	0.046	0.031
-619.361	12.886	-0.288	-0.228
-618.346	-200.000	-0.030	0.218
-617.332	148.023	-0.122	-0.168
-616.317	228.218	0.038	0.064
-615.303	800.000	-0.073	-0.276
-614.288	-24.502	0.139	-0.084
-613.273	630.313	0.211	-0.545
-612.259	115.925	0.090	-0.113
-611.244	800.000	-0.076	0.226
-610.230	-200.000	-0.029	0.234
-609.215	800.000	0.084	-0.275
-608.201	273.395	-0.197	-0.356
-607.186	29.729	0.085	-0.074
-606.171	-66.715	-0.196	0.079
-605.157	733.550	-0.040	0.109
-604.142	65.778	-0.104	-0.108
-603.128	-41.849	0.040	0.021
-602.113	245.355	-0.093	-0.160
-601.098	-83.291	0.104	-0.034
-600.084	63.983	-0.040	0.041
-599.069	380.930	-0.165	0.347
-598.055	-200.000	-0.015	0.106
-597.040	15.672	0.143	0.115
-596.025	668.641	0.031	0.083
-595.011	-200.000	-0.008	-0.142
-593.996	-200.000	0.023	-0.191
-592.982	-199.327	0.031	-0.000
-591.967	155.586	0.115	-0.161
-590.952	138.286	0.076	0.102
-589.938	800.000	0.089	-0.375
-588.923	-165.743	-0.088	-0.004
-587.909	-200.000	0.009	-0.393
-586.894	39.562	-0.084	0.076
-585.879	-200.000	-0.015	0.237
-584.865	-200.000	0.095	0.477
-583.850	800.000	0.029	0.092
-582.836	-200.000	-0.017	-0.131
-581.821	-200.000	0.045	-0.330
-580.806	89.086	-0.186	0.212
-579.792	-50.168	-0.307	0.148
-578.777	24.118	0.086	-0.073
-577.763	-124.627	-0.050	0.008
-576.748	-200.000	-0.028	-0.265
-575.733	-109.055	-0.020	0.004
-574.719	-126.245	-0.239	-0.036
-573.704	317.619	-0.141	-0.272
-572.690	446.357	-0.101	-0.227
-571.675	178.192	0.244	0.363
-570.661	-119.371	0.092	-0.016
-569.646	-78.905	0.301	-0.104
-568.631	-131.380	-0.245	-0.033
-567.617	800.000	-0.059	-0.188
-566.602	-85.467	0.193	0.061
-565.588	-200.000	0.014	0.158
-564.573	136.206	0.168	-0.223
-563.558	183.641	-0.108	0.162
-562.544	42.654	-0.072	-0.067
-561.529	-114.517	-0.035	-0.007
-560.515	-200.000	0.046	0.429
-559.500	568.349	0.095	-0.234
-558.485	351.505	-0.124	-0.250
-557.471	492.565	-0.076	0.178
-556.456	-5.649	0.324	-0.227
-555.442	-117.164	-0.160	0.030
-554.427	93.388	-0.227	-0.262
-553.412	237.948	-0.119	-0.201
-552.398	-70.513	0.178	-0.069
-551.383	752.261	-0.064	0.176
-550.369	-200.000	0.105	-0.000
-549.354	-66.658	0.326	0.132
-548.339	-200.000	0.002	-0.152
-547.325	-31.378	-0.108	0.062
-546.310	-85.620	0.029	-0.009
-545.296	-140.641	-0.020	-0.002
-544.281	-84.060	-0.063	0.020
-543.266	118.838	-0.146	-0.184
-542.252	-129.989	-0.075	-0.010
-541.237	117.699	0.098	-0.123
-540.223	-200.000	-0.045	-0.267
-539.208	-74.460	-0.256	0.094
-538.193	396.835	0.090	0.192
-537.179	37.110	0.240	0.217
-536.164	460.546	-0.139	0.316
-535.150	-31.857	0.129	0.074
-534.135	-5.070	0.138	0.097
-533.121	39.588	-0.154	-0.141
-532.106	-57.084	0.298	0.134
-531.091	-99.301	-0.345	0.089
-530.077	800.000	-0.027	-0.117
-529.062	800.000	0.018	0.069
-528.048	800.000	0.036	-0.136
-527.033	27.968	-0.242	0.208
-526.018	-200.000	-0.005	0.173
-525.004	23.409	-0.247	0.207
-523.989	50.095	0.130	0.124
-522.975	63.063	-0.261	0.266
-521.960	-66.450	0.332	-0.134
-520.945	-166.769	0.138	-0.006
-519.931	800.000	0.116	-0.347
-518.916	547.368	-0.135	-0.329
-517.902	800.000	-0.080	-0.279
-516.887	800.000	0.093	-0.297
-515.872	792.145	0.020	-0.056
-514.858	17.015	0.159	0.128
-513.843	-150.408	-0.084	-0.007
-512.829	-119.795	-0.090	0.016
-511.814	275.917	0.183	0.331
-510.799	-145.202	-0.116	0.011
-509.785	-67.735	-0.402	0.160
-508.770	667.439	0.082	0.215
-507.756	56.820	0.095	-0.095
-506.741	800.000	-0.053	0.185
-505.726	-1.570	0.292	0.209
-504.712	391.153	-0.082	-0.173
-503.697	368.328	0.055	-0.114
-502.683	177.682	-0.034	0.051
-501.668	90.731	-0.070	-0.080
-500.653	142.586	0.242	-0.327
-499.639	-32.236	0.021	-0.012
-498.624	-115.557	-0.172	0.033
-497.610	-86.858	-0.098	0.031
-496.595	-200.000	0.028	-0.301
-495.581	105.779	0.186	0.223
-494.566	-41.205	0.128	0.067
-493.551	-200.000	0.021	-0.197
-492.537	-144.199	0.098	-0.009
-491.522	262.520	-0.063	-0.111
-490.508	-174.852	0.151	-0.004
-489.493	-200.000	-0.032	-0.162
-488.478	-200.000	-0.006	0.050
-487.464	800.000	-0.121	-0.355
-486.449	-143.806	0.466	0.045
-485.435	-146.567	0.368	-0.032
-484.420	-172.393	-0.119	0.004
-483.405	-200.000	0.084	0.390
-482.391	-97.160	-0.228	-0.061
-481.376	-16.394	0.423	0.272
-480.362	-200.000	-0.030	-0.321
-479.347	-94.234	-0.108	-0.030
-478.332	-200.000	-0.015	-0.085
-477.318	-200.000	-0.015	0.293
-476.303	800.000	0.067	-0.262
-475.289	-147.353	0.167	0.014
-474.274	-59.583	0.133	-0.058
-473.259	-151.534	0.193	-0.015
-472.245	55.157	-0.070	-0.069
-471.230	-67.740	-0.314	0.125
-470.216	-33.760	-0.179	0.100
-469.201	-200.000	0.007	-0.286
-468.186	48.923	-0.171	0.163
-467.172	-172.572	0.221	0.007
-466.157	-200.000	-0.007	-0.121
-465.143	800.000	0.095	0.303
-464.128	-200.000	0.027	0.276
-463.113	-200.000	-0.048	-0.263
-462.099	-162.207	0.499	-0.025
-461.084	800.000	-0.068	0.236
-460.070	-15.177	-0.156	0.101
-459.055	745.156	-0.096	0.262
-458.040	-136.160	-0.092	0.011
-457.026	800.000	0.116	-0.402
-456.011	-62.990	0.119	0.050
-454.997	-96.815	0.311	0.083
-453.982	223.399	-0.128	0.209
-452.968	140.654	-0.203	0.272
-451.953	-159.576	0.274	-0.015
-450.938	-200.000	-0.023	-0.125
-449.924	-0.953	0.134	0.097
-448.909	800.000	0.091	0.334
-447.895	-94.293	-0.246	0.068
-446.880	-157.069	-0.029	-0.002
-445.865	-65.759	0.515	-0.209
-444.851	-200.000	0.040	-0.239
-443.836	-13.802	-0.140	0.092
-442.822	-58.811	0.173	0.076
-441.807	-46.768	-0.391	0.194
-440.792	-85.298	0.175	-0.055
-439.778	-103.517	-0.285	-0.068
-438.763	-185.220	-0.180	-0.003
-437.749	318.599	0.219	-0.422
-436.734	-64.245	-0.164	-0.068
-435.719	-200.000	0.021	0.133
-434.705	-112.980	-0.448	0.090
-433.690	199.816	0.072	0.111
-432.676	221.687	0.127	-0.207
-431.661	-200.000	-0.053	0.273
-430.646	626.409	0.126	-0.323
-429.632	-200.000	-0.015	0.098
-428.617	102.931	-0.250	0.297
-427.603	800.000	0.049	0.146
-426.588	166.737	-0.180	0.259
-425.573	-35.962	0.217	-0.119
-424.559	-90.178	-0.350	0.103
-423.544	-190.723	0.276	-0.003
-422.530	-154.593	0.320	0.022
-421.515	-9.663	0.334	0.226
-420.500	-179.194	-0.060	-0.001
-419.486	-200.000	0.062	0.360
-418.471	-166.223	0.010	0.000
-417.457	-64.691	0.222	0.091
-416.442	10.068	0.235	0.181
-415.428	75.863	0.078	-0.084
-414.413	65.344	0.188	-0.193
-413.398	63.849	0.181	-0.184
-412.384	-200.000	-0.013	-0.064
-411.369	-59.236	0.193	-0.084
-410.355	-200.000	-0.031	0.170
-409.340	-94.905	-0.024	0.007
-408.325	-97.581	0.075	0.020
-407.311	800.000	0.018	0.052
-406.296	312.062	0.105	-0.200
-405.282	-42.902	0.152	-0.078
-404.267	-200.000	0.083	0.387
-403.252	220.825	-0.018	-0.029
-402.238	-124.628	0.350	0.055
-401.223	6.242	-0.234	0.176
-400.209	-186.284	-0.383	0.006
-399.194	-200.000	0.013	0.074
-398.179	55.342	-0.065	-0.064
-397.165	562.335	-0.030	-0.073
-396.150	155.295	-0.088	0.123
-395.136	-200.000	0.079	0.000
-394.121	122.442	-0.211	-0.268
-393.106	-200.000	-0.026	-0.333
-392.092	17.919	-0.157	-0.127
-391.077	-200.000	-0.020	-0.326
-390.063	100.221	-0.087	-0.102
-389.048	319.595	0.080	-0.154
-388.033	800.000	-0.043	-0.184
-387.019	-14.982	0.192	-0.125
-386.004	-200.000	-0.001	0.188
-384.990	800.000	0.037	-0.113
-383.975	-132.606	0.268	0.035
-382.960	-54.766	-0.093	0.043
-381.946	-139.943	0.355	-0.038
-380.931	800.000	0.032	0.133
-379.917	-200.000	0.021	-0.154
-378.902	-200.000	-0.009	-0.588
-377.888	116.010	-0.039	-0.048
-376.873	4.231	0.146	0.108
-375.858	800.000	0.061	0.241
-374.844	-106.676	0.257	0.058
-373.829	-89.097	0.196	-0.059
-372.815	56.472	-0.174	0.171
-371.800	-200.000	-0.012	-0.252
-370.785	-187.905	-0.249	-0.003
-369.771	248.538	-0.148	-0.253
-368.756	-30.375	0.017	-0.010
-367.742	-32.812	-0.058	0.033
-366.727	293.542	-0.044	-0.081
-365.712	-200.000	-0.019	-0.183
-364.698	-58.285	0.233	-0.103
-363.683	800.000	0.072	0.250
-362.669	-200.000	0.005	0.237
-361.654	-27.773	0.422	0.248
-360.639	-97.845	0.105	0.027
-359.625	-68.870	-0.176	-0.069
-358.610	-200.000	0.034	0.253
-357.596	-200.000	-0.000	-0.157
-356.581	13.476	-0.274	0.215
-355.566	-114.703	0.088	0.017
-354.552	110.711	0.284	-0.346
-353.537	268.228	-0.132	-0.235
-352.523	8.089	0.118	-0.089
-351.508	800.000	0.044	-0.147
-350.493	-200.000	-0.022	-0.115
-349.479	-93.247	0.053	-0.015
-348.464	-63.595	-0.290	0.120
-347.450	800.000	-0.047	-0.136
-346.435	395.391	0.149	-0.315
-345.420	755.006	-0.138	0.377
-344.406	-200.000	-0.033	-0.253
-343.391	-18.725	-0.163	0.103
-342.377	0.301	-0.030	0.022
-341.362	17.042	-0.337	0.270
-340.348	-200.000	0.006	0.095
-339.333	238.068	0.210	0.353
-338.318	-51.944	-0.108	0.051
-337.304	800.000	0.074	0.215
-336.289	0.027	-0.174	-0.126
-335.275	259.254	-0.091	-0.158
-334.260	108.396	-0.128	-0.155
-333.245	-84.193	-0.242	-0.078
-332.231	-200.000	0.015	-0.078
-331.216	20.926	-0.201	0.164
-330.202	265.504	-0.087	0.154
-329.187	-87.957	-0.054	-0.016
-328.172	-93.364	0.171	-0.048
-327.158	800.000	-0.007	0.028
-326.143	-123.131	0.152	-0.025
-325.129	-200.000	-0.021	-0.095
-324.114	11.625	0.196	-0.152
-323.099	130.798	0.091	-0.118
-322.085	-130.697	0.478	-0.065
-321.070	-114.309	0.261	-0.051
-320.056	46.727	-0.136	0.127
-319.041	114.951	-0.130	0.161
-318.026	24.173	0.094	-0.078
-317.012	185.631	0.092	-0.138
-315.997	-65.654	-0.107	0.043
-314.983	-85.226	0.274	-0.086
-313.968	-200.000	-0.014	0.104
-312.953	-100.889	0.092	0.023
-311.939	6.675	-0.293	0.220
-310.924	144.596	-0.054	0.073
-309.910	76.205	0.299	0.319
-308.895	11.254	-0.261	-0.202
-307.880	-126.834	-0.183	-0.027
-306.866	-49.578	0.171	-0.082
-305.851	-161.556	-0.132	-0.007
-304.837	-157.190	0.240	-0.015
-303.822	-141.446	-0.221	-0.023
-302.807	148.740	-0.209	0.285
-301.793	-127.863	0.285	0.041
-300.778	-200.000	-0.062	-0.281
-299.764	109.713	-0.118	0.143
-298.749	-200.000	0.026	0.244
-297.735	21.381	-0.228	-0.187
-296.720	-16.556	-0.174	-0.111
-295.705	-78.315	-0.203	0.070
-294.691	-200.000	-0.002	0.053
-293.676	355.507	-0.052	0.105
-292.662	-135.072	0.112	-0.014
-291.647	-200.000	0.002	0.291
-290.632	-48.809	-0.174	-0.084
-289.618	81.878	-0.060	-0.066
-288.603	106.685	0.200	0.240
-287.589	-200.000	0.009	-0.122
-286.574	-108.611	-0.122	0.027
-285.559	-200.000	-0.013	-0.424
-284.545	-13.340	0.091	-0.060
-283.530	291.896	0.056	0.103
-282.516	38.465	0.185	-0.166
-281.501	-156.399	-0.360	0.023
-280.486	-69.425	-0.166	-0.064
-279.472	-190.726	-0.084	-0.001
-278.457	-25.230	-0.034	0.020
-277.443	-200.000	0.051	-0.323
-276.428	247.250	0.120	0.204
-275.413	-200.000	0.066	0.357
-274.399	800.000	0.050	0.156
-273.384	106.796	0.252	-0.302
-272.370	-161.661	-0.330	0.017
-271.355	57.532	-0.321	0.316
-270.340	-28.022	-0.225	0.131
-269.326	132.049	-0.107	0.138
-268.311	576.781	-0.075	-0.185
-267.297	260.028	-0.008	-0.014
-266.282	-21.950	0.165	0.101
-265.267	-2.156	-0.106	0.075
-264.253	-34.339	0.107	-0.059
-263.238	-86.677	-0.286	0.088
-262.224	18.492	-0.148	-0.119
-261.209	800.000	0.072	0.280
-260.195	-1.247	-0.346	-0.246
-259.180	76.645	0.205	-0.219
-258.165	800.000	0.083	-0.340
-257.151	800.000	-0.026	0.094
-256.136	-200.000	0.056	0.000
-255.122	-200.000	0.010	-0.138
-254.107	-2.526	-0.270	0.190
-253.092	-13.451	-0.165	0.108
-252.078	-21.003	-0.154	0.095
-251.063	-151.118	-0.249	0.019
-250.049	-200.000	0.030	-0.145
-249.034	-75.307	-0.270	-0.097
-248.019	-200.000	-0.024	0.258
-247.005	205.077	-0.167	0.262
-245.990	-200.000	0.013	-0.154
-244.976	-61.912	-0.435	0.183
-243.961	-200.000	-0.015	0.163
-242.946	800.000	-0.066	-0.247
-241.932	-200.000	0.018	-0.093
-240.917	-200.000	-0.039	-0.468
-239.903	-16.506	-0.175	-0.112
-238.888	-200.000	0.024	-0.216
-237.873	-200.000	0.003	0.412
-236.859	800.000	-0.030	-0.114
-235.844	-42.790	0.234	0.120
-234.830	-135.828	0.099	-0.012
-233.815	-60.944	0.220	0.094
-232.800	800.000	0.065	-0.278
-231.786	2.495	-0.180	0.131
-230.771	-71.665	0.250	0.094
-229.757	-200.000	0.017	0.194
-228.742	-90.633	0.124	-0.036
-227.727	-109.596	-0.339	0.072
-226.713	-60.173	-0.142	-0.061
-225.698	-173.412	0.307	-0.009
-224.684	-19.406	0.232	-0.145
-223.669	-124.534	0.235	0.037
-222.655	91.016	-0.347	-0.391
-221.640	-200.000	0.006	-0.257
-220.625	246.349	-0.048	0.082
-219.611	-200.000	-0.036	-0.304
-218.596	-26.930	0.197	-0.115
-217.582	201.405	-0.154	0.239
-216.567	111.295	0.325	-0.394
-215.552	-200.000	0.055	-0.381
-214.538	-118.436	0.329	-0.059
-213.523	-32.355	0.067	-0.038
-212.509	-18.766	0.116	0.072
-211.494	269.184	0.083	-0.147
-210.479	-156.140	-0.290	-0.018
-209.465	34.401	-0.108	-0.094
-208.450	-175.751	0.105	-0.003
-207.436	-200.000	-0.004	-0.204
-206.421	-49.651	0.331	0.158
-205.406	-130.302	0.125	-0.017
-204.392	-61.554	-0.065	0.027
-203.377	66.530	-0.167	0.171
-202.363	-140.575	-0.159	0.017
-201.348	459.483	0.091	-0.203
-200.333	7.787	0.243	0.183
-199.319	800.000	0.052	0.172
-198.304	183.560	0.091	0.135
-197.290	598.907	0.046	0.115
-196.275	-62.337	-0.067	-0.028
-195.260	40.780	0.273	0.247
-194.246	800.000	-0.090	0.297
-193.231	226.486	-0.165	-0.269
-192.217	83.975	0.033	0.036
-191.202	-177.369	0.556	0.014
-190.187	69.762	0.143	0.148
-189.173	202.795	-0.215	0.334
-188.158	-2.951	-0.294	-0.206
-187.144	-200.000	-0.037	0.349
-186.129	-56.151	-0.289	0.129
-185.114	150.013	-0.370	0.505
-184.100	800.000	-0.095	0.278
-183.085	89.706	-0.128	0.144
-182.071	-94.887	0.356	-0.097
-181.056	-74.349	-0.161	-0.058
-180.042	290.843	-0.053	0.097
-179.027	-128.799	-0.211	-0.030
-178.012	-174.862	0.126	-0.004
-176.998	58.476	0.142	-0.140
-175.983	389.120	-0.127	0.265
-174.969	82.872	-0.097	0.106
-173.954	-200.000	0.076	0.400
-172.939	98.741	0.043	0.050
-171.925	7.153	0.195	0.146
-170.910	234.862	-0.150	0.248
-169.896	120.116	0.145	0.180
-168.881	93.432	0.011	-0.012
-167.866	-200.000	-0.002	0.092
-166.852	-79.461	-0.126	-0.043
-165.837	75.638	-0.163	0.173
-164.823	-148.228	0.182	0.015
-163.808	800.000	0.038	0.129
-162.793	-50.671	-0.071	0.034
-161.779	101.966	-0.042	0.049
-160.764	800.000	-0.029	0.083
-159.750	449.399	-0.092	0.205
-158.735	-108.476	0.221	0.048
-157.720	-31.870	0.242	0.136
-156.706	255.616	-0.136	0.233
-155.691	-59.252	-0.142	-0.062
-154.677	-8.271	-0.323	-0.218
-153.662	-145.125	-0.356	-0.032
-152.647	41.334	-0.049	-0.045
-151.633	-200.000	0.009	-0.207
-150.618	690.364	0.094	0.247
-149.604	-200.000	-0.044	-0.354
-148.589	800.000	-0.033	-0.126
-147.574	800.000	0.052	-0.171
-146.560	-49.391	-0.044	-0.021
-145.545	-73.160	-0.237	0.087
-144.531	-33.156	-0.114	0.063
-143.516	61.691	0.026	-0.026
-142.502	-138.530	0.207	-0.023
-141.487	154.717	-0.052	-0.072
-140.472	-1.394	-0.138	-0.098
-139.458	42.453	-0.179	-0.164
-138.443	462.255	0.211	0.473
-137.429	64.804	-0.143	-0.145
-136.414	-57.247	-0.101	0.045
-135.399	-50.635	-0.334	-0.158
-134.385	242.135	-0.214	-0.358
-133.370	800.000	-0.011	-0.047
-132.356	167.274	-0.161	0.230
-131.341	158.096	0.074	0.102
-130.326	800.000	-0.049	0.162
-129.312	-200.000	0.014	-0.133
-128.297	-68.971	0.289	-0.112
-127.283	-200.000	-0.008	-0.089
-126.268	-38.782	0.208	-0.110
-125.253	-4.986	0.274	-0.189
-124.239	32.933	0.156	0.136
-123.224	-89.699	-0.511	-0.150
-122.210	-122.975	0.316	-0.051
-121.195	592.318	0.056	0.138
-120.180	-55.740	0.070	-0.031
-119.166	145.753	0.078	0.105
-118.151	38.113	0.239	-0.213
-117.137	-117.028	-0.178	0.033
-116.122	-200.000	0.042	-0.304
-115.107	-200.000	0.001	0.059
-114.093	150.579	-0.107	-0.145
-113.078	9.404	0.089	-0.067
-112.064	-162.560	-0.360	-0.018
-111.049	800.000	0.056	-0.193
-110.034	-55.879	-0.170	0.076
-109.020	24.861	0.308	-0.256
-108.005	-200.000	-0.018	0.163
-106.991	183.563	-0.187	0.277
-105.976	-41.137	-0.157	0.081
-104.962	68.060	-0.139	0.142
-103.947	219.011	0.136	0.218
-102.932	-200.000	-0.004	-0.212
-101.918	800.000	0.076	0.268
-100.903	-35.189	0.175	0.095
-99.889	627.314	-0.108	-0.274
-98.874	49.892	0.142	0.134
-97.859	35.506	-0.126	-0.111
-96.845	-200.000	0.024	-0.347
-95.830	-137.587	-0.134	0.015
-94.816	-59.262	-0.153	-0.066
-93.801	411.530	0.127	0.270
-92.786	800.000	-0.064	0.213
-91.772	730.979	0.069	0.184
-90.757	82.902	-0.033	-0.036
-89.743	-200.000	0.016	0.136
-88.728	800.000	-0.186	0.541
-87.713	611.399	0.052	0.129
-86.699	-90.089	-0.252	-0.074
-85.684	-48.454	-0.163	0.079
-84.670	196.335	-0.195	-0.298
-83.655	-52.902	-0.275	-0.127
-82.640	120.492	-0.209	0.260
-81.626	-91.922	-0.219	0.062
-80.611	357.113	0.163	-0.324
-79.597	3.735	0.122	0.089
-78.582	30.598	0.329	-0.282
-77.567	-200.000	-0.021	0.350
-76.553	83.580	0.219	-0.239
-75.538	800.000	0.039	-0.154
-74.524	-200.000	0.004	0.242
-73.509	127.531	-0.021	-0.027
-72.494	-200.000	0.039	0.211
-71.480	55.180	-0.081	0.078
-70.465	-86.633	0.102	0.031
-69.451	-186.093	0.080	0.001
-68.436	-144.407	-0.401	0.037
-67.422	67.370	-0.131	0.133
-66.407	408.713	-0.162	0.342
-65.392	-169.585	-0.110	0.004
-64.378	-63.667	0.135	-0.055
-63.363	800.000	0.080	0.262
-62.349	328.015	0.062	0.119
-61.334	100.062	-0.527	-0.611
-60.319	50.009	-0.132	0.125
-59.305	-200.000	-0.067	-0.843
-58.290	73.519	0.707	0.740
-57.276	800.000	0.328	1.399
-56.261	-200.000	75.419	512.870
-55.246	529.823	1324.112	3125.698
-54.232	141.538	2585.367	3421.615
-53.217	107.068	2398.070	2847.340
-52.203	47.582	2136.353	1991.176
-51.188	42.712	2042.952	1859.172
-50.173	40.793	2025.067	1825.206
-49.159	52.990	2062.480	1972.049
-48.144	57.779	2082.645	2035.577
-47.130	43.471	2047.607	1870.143
-46.115	40.860	2036.084	1835.465
-45.100	40.727	2033.137	1831.507
-44.086	40.686	2030.712	1828.873
-43.071	40.698	2028.252	1826.692
-42.057	40.690	2026.049	1824.569
-41.042	40.628	2024.616	1822.630
-40.027	40.656	2022.445	1820.863
-39.013	40.732	2019.699	1819.013
-37.998	40.750	2018.136	1817.697
-36.984	40.811	2016.166	1816.412
-35.969	40.745	2014.827	1814.529
-34.954	40.739	2013.119	1812.864
-33.940	40.835	2011.044	1811.804
-32.925	40.799	2009.573	1810.073
-31.911	40.735	2007.897	1807.908
-30.896	40.853	2005.815	1807.042
-29.881	40.788	2004.480	1805.176
-28.867	40.855	2002.458	1803.889
-27.852	40.855	2000.731	1802.259
-26.838	40.886	1998.436	1800.401
-25.823	40.918	1996.606	1798.971
-24.809	40.887	1994.992	1797.170
-23.794	40.837	1993.622	1795.411
-22.779	40.790	1992.300	1793.721
-21.765	40.875	1989.691	1792.073
-20.750	40.801	1988.342	1790.116
-19.736	40.853	1986.525	1788.874
-18.721	40.914	1985.010	1787.988
-17.706	40.823	1983.930	1786.130
-16.692	40.771	1981.905	1783.772
-15.677	40.853	1979.970	1782.689
-14.663	40.762	1979.259	1781.164
-13.648	40.850	1977.517	1780.314
-12.633	40.807	1976.561	1779.000
-11.619	40.759	1975.279	1777.342
-10.604	40.830	1973.660	1776.453
-9.590	40.805	1972.217	1774.858
-8.575	40.772	1970.922	1773.333
-7.560	40.860	1969.343	1772.618
-6.546	40.900	1967.510	1771.256
-5.531	40.823	1967.046	1770.086
-4.517	40.821	1965.817	1768.886
-3.502	40.844	1964.099	1767.476
-2.487	40.819	1962.854	1766.064
-1.473	40.861	1962.274	1765.850
-0.458	40.924	1958.309	1762.769
0.556	39.332	1939.300	1739.759
1.571	35.748	1919.587	1690.488
2.586	31.621	1941.963	1673.251
3.600	30.262	1978.957	1692.580
4.615	29.093	1975.217	1678.585
5.629	21.384	1866.172	1519.072
6.644	7.956	1732.408	1301.033
7.659	1.021	1686.750	1211.314
8.673	0.349	1682.902	1203.088
9.688	0.306	1681.288	1201.480
10.702	0.239	1679.822	1199.797
11.717	0.036	1676.987	1196.050
12.731	0.437	1676.482	1198.767
13.746	8.058	1696.117	1273.800
14.761	19.393	1721.060	1383.877
15.775	23.603	1728.436	1423.528
16.790	23.678	1727.468	1423.209
17.804	23.710	1726.867	1422.844
18.819	23.749	1726.083	1422.383
19.834	23.848	1725.466	1422.542
20.848	24.047	1724.851	1423.504
21.863	24.138	1723.672	1423.129
22.877	24.135	1722.807	1422.263
23.892	24.038	1721.907	1420.620
24.907	24.085	1721.286	1420.358
25.921	24.124	1719.795	1419.311
26.936	23.996	1719.158	1417.645
27.950	24.118	1717.968	1417.509
28.965	24.054	1717.317	1416.338
29.980	24.071	1716.368	1415.561
30.994	24.157	1715.125	1415.093
32.009	24.078	1713.918	1413.346
33.023	24.016	1713.171	1412.112
34.038	24.037	1712.275	1411.418
35.053	24.073	1711.092	1410.603
36.067	24.143	1709.642	1409.838
37.082	24.101	1708.677	1408.583
38.096	24.028	1708.316	1407.587
39.111	24.131	1707.210	1407.362
40.126	24.082	1706.279	1406.085
41.140	24.083	1705.743	1405.528
42.155	24.131	1704.247	1404.549
43.169	24.036	1703.188	1402.804
44.184	24.103	1701.973	1402.205
45.199	24.083	1700.745	1400.908
46.213	24.067	1700.055	1400.095
47.228	24.098	1698.315	1398.781
48.242	24.119	1697.463	1398.121
49.257	24.081	1696.550	1396.948
50.271	24.095	1695.165	1395.792
51.286	24.132	1694.191	1395.154
52.301	24.198	1692.089	1393.818
53.315	24.038	1691.342	1391.828
54.330	24.066	1689.701	1390.573
55.344	24.108	1688.458	1389.755
56.359	24.190	1686.595	1388.739
57.374	24.136	1685.934	1387.652
58.388	24.108	1685.011	1386.552
59.403	24.134	1683.784	1385.622
60.417	24.145	1682.680	1384.671
61.432	24.190	1681.428	1383.872
62.447	24.134	1680.499	1382.550
63.461	24.134	1679.753	1381.809
64.476	24.115	1678.760	1380.726
65.490	24.075	1677.349	1379.135
66.505	24.131	1676.759	1378.958
67.520	24.107	1675.871	1377.922
68.534	24.120	1674.744	1376.976
69.549	24.224	1673.014	1376.235
70.563	24.216	1672.046	1375.253
71.578	24.159	1671.052	1373.874
72.593	24.175	1670.102	1373.097
73.607	24.106	1669.275	1371.760
74.622	24.146	1668.303	1371.150
75.636	24.160	1667.697	1370.634
76.651	24.225	1666.139	1369.734
77.666	24.179	1665.558	1368.784
78.680	24.074	1664.914	1367.326
79.695	24.144	1663.967	1366.963
80.709	24.134	1663.279	1366.202
81.724	24.160	1662.430	1365.587
82.739	24.188	1661.067	1364.557
83.753	24.157	1660.069	1363.383
84.768	24.193	1658.853	1362.532
85.782	24.137	1658.347	1361.570
86.797	24.171	1657.589	1361.090
87.812	24.130	1657.002	1360.170
88.826	24.135	1655.850	1359.149
89.841	24.162	1654.812	1358.382
90.855	24.219	1653.628	1357.722
91.870	24.202	1652.201	1356.299
92.884	24.197	1651.644	1355.681
93.899	24.158	1650.260	1354.131
94.914	24.158	1649.259	1353.193
95.928	24.195	1648.062	1352.369
96.943	24.189	1646.934	1351.275
97.957	24.153	1645.253	1349.509
98.972	24.175	1644.349	1348.815
99.987	24.221	1642.652	1347.649
101.001	24.168	1641.545	1346.225
102.016	24.224	1639.741	1345.048
103.030	24.099	1638.359	1342.847
104.045	24.177	1637.567	1342.672
105.060	24.199	1635.875	1341.331
106.074	24.232	1634.420	1340.266
107.089	24.224	1633.690	1339.490
108.103	24.274	1632.636	1338.880
109.118	24.217	1631.228	1337.179
110.133	24.233	1629.956	1336.136
111.147	24.225	1628.943	1335.132
112.162	24.202	1627.718	1333.834
113.176	24.270	1626.685	1333.379
114.191	24.208	1625.918	1332.171
115.206	24.218	1624.793	1331.208
116.220	24.242	1623.098	1329.876
117.235	24.160	1622.534	1328.686
118.249	24.157	1620.903	1327.211
119.264	24.186	1619.939	1326.517
120.279	24.184	1618.634	1325.322
121.293	24.198	1617.682	1324.527
122.308	24.234	1616.611	1323.803
123.322	24.290	1615.197	1322.943
124.337	24.258	1613.906	1321.530
125.352	24.358	1612.352	1320.883
126.366	24.321	1611.554	1319.837
127.381	24.385	1610.834	1319.603
128.395	24.270	1610.501	1318.363
129.410	24.350	1608.993	1317.603
130.424	24.376	1607.532	1316.484
131.439	24.400	1605.944	1315.246
132.454	24.258	1605.464	1313.687
133.468	24.363	1603.448	1312.696
134.483	24.313	1602.103	1311.106
135.497	24.368	1601.094	1310.570
136.512	24.358	1599.966	1309.460
137.527	24.336	1598.733	1308.172
138.541	24.323	1597.980	1307.343
139.556	24.306	1596.662	1306.026
140.570	24.391	1595.164	1305.304
141.585	24.438	1593.742	1304.370
142.600	24.282	1592.958	1302.478
143.614	24.356	1592.088	1302.185
144.629	24.367	1590.612	1300.946
145.643	24.374	1589.780	1300.204
146.658	24.358	1588.321	1298.778
147.673	24.283	1587.046	1297.073
148.687	24.313	1585.762	1296.129
149.702	24.293	1584.507	1294.840
150.716	24.364	1583.100	1294.090
151.731	24.326	1582.242	1293.000
152.746	24.316	1581.052	1291.841
153.760	24.331	1580.082	1291.046
154.775	24.313	1579.216	1290.095
155.789	24.338	1578.378	1289.474
156.804	24.354	1576.934	1288.296
157.819	24.439	1575.393	1287.536
158.833	24.263	1575.097	1285.907
159.848	24.346	1573.672	1285.232
160.862	24.318	1573.254	1284.575
161.877	24.319	1572.281	1283.673
162.892	24.439	1570.868	1283.266
163.906	24.399	1570.148	1282.280
164.921	24.401	1569.066	1281.297
165.935	24.457	1568.261	1280.932
166.950	24.417	1567.228	1279.686
167.964	24.430	1565.985	1278.652
168.979	24.490	1564.966	1278.133
169.994	24.415	1564.380	1277.004
171.008	24.542	1562.960	1276.641
172.023	24.479	1562.568	1275.759
173.037	24.506	1561.089	1274.632
174.052	24.515	1559.982	1273.678
175.067	24.452	1559.369	1272.618
176.081	24.452	1558.386	1271.698
177.096	24.502	1557.283	1271.046
178.110	24.410	1556.181	1269.379
179.125	24.447	1555.158	1268.693
180.140	24.394	1554.385	1267.571
181.154	24.391	1553.665	1266.852
182.169	24.543	1552.026	1266.483
183.183	24.487	1551.518	1265.557
184.198	24.477	1550.220	1264.319
185.213	24.478	1549.717	1263.800
186.227	24.576	1548.463	1263.362
187.242	24.614	1547.788	1262.969
188.256	24.558	1547.172	1261.955
189.271	24.562	1546.299	1261.164
190.286	24.641	1545.373	1260.854
191.300	24.491	1544.470	1258.947
192.315	24.518	1543.764	1258.450
193.329	24.539	1543.107	1257.952
194.344	24.520	1541.938	1256.753
195.359	24.540	1541.034	1256.048
196.373	24.624	1540.416	1256.025
197.388	24.512	1539.429	1254.317
198.402	24.511	1537.965	1253.010
199.417	24.536	1536.735	1252.072
200.432	24.552	1536.101	1251.558
201.446	24.422	1536.116	1250.546
202.461	24.530	1535.033	1250.312
203.475	24.538	1533.897	1249.331
204.490	24.500	1533.010	1248.233
205.504	24.460	1532.559	1247.477
206.519	24.551	1531.109	1246.822
207.534	24.515	1530.703	1246.123
208.548	24.600	1529.573	1245.690
209.563	24.589	1528.770	1244.846
210.577	24.556	1528.123	1243.980
211.592	24.586	1527.168	1243.303
212.607	24.595	1526.528	1242.731
213.621	24.627	1525.858	1242.303
214.636	24.667	1524.904	1241.692
215.650	24.672	1524.144	1240.999
216.665	24.613	1523.411	1239.883
217.680	24.715	1522.072	1239.386
218.694	24.701	1521.777	1238.942
219.709	24.769	1520.402	1238.183
220.723	24.711	1519.650	1237.059
221.738	24.851	1518.739	1237.176
222.753	24.703	1518.328	1235.712
223.767	24.610	1517.386	1234.191
224.782	24.613	1516.521	1233.398
225.796	24.731	1515.648	1233.395
226.811	24.803	1514.892	1233.165
227.826	24.742	1514.650	1232.441
228.840	24.734	1514.008	1231.756
229.855	24.840	1512.574	1231.207
230.869	24.793	1511.639	1230.012
231.884	24.777	1510.371	1228.762
232.899	24.680	1509.976	1227.665
233.913	24.776	1508.685	1227.170
234.928	24.766	1507.548	1226.069
235.942	24.773	1506.754	1225.363
236.957	24.902	1505.626	1225.215
237.972	24.783	1504.764	1223.596
238.986	24.767	1503.617	1222.443
240.001	24.783	1502.660	1221.665
241.015	24.857	1501.831	1221.386
242.030	24.908	1500.845	1220.828
243.045	25.010	1499.684	1220.470
244.059	24.850	1498.963	1218.686
245.074	24.925	1498.177	1218.449
246.088	24.978	1497.273	1217.969
247.103	25.002	1496.612	1217.483
248.117	25.091	1495.748	1217.279
249.132	24.996	1494.946	1215.874
250.147	24.853	1494.409	1214.357
251.161	25.002	1493.765	1214.736
252.176	25.081	1493.003	1214.544
253.190	25.027	1491.986	1213.247
254.205	24.955	1491.417	1212.191
255.220	24.998	1490.362	1211.511
256.234	25.059	1489.691	1211.271
257.249	25.029	1488.587	1210.069
258.263	25.039	1487.978	1209.534
259.278	25.107	1487.259	1209.301
260.293	25.002	1486.444	1207.821
261.307	24.991	1485.922	1207.214
262.322	25.046	1485.133	1206.840
263.336	25.107	1484.191	1206.375
264.351	25.080	1483.117	1205.218
265.366	25.090	1482.270	1204.486
266.380	25.134	1481.584	1204.117
267.395	25.013	1480.416	1202.255
268.409	25.094	1480.057	1202.394
269.424	25.133	1478.741	1201.483
270.439	25.139	1477.865	1200.704
271.453	25.161	1476.994	1200.035
272.468	25.140	1476.188	1199.135
273.482	25.095	1475.770	1198.389
274.497	25.120	1474.691	1197.573
275.512	25.180	1473.796	1197.141
276.526	25.141	1473.986	1196.931
277.541	25.176	1472.467	1195.828
278.555	25.209	1471.304	1194.991
279.570	25.114	1471.184	1194.157
280.585	25.104	1470.354	1193.315
281.599	25.197	1469.043	1192.764
282.614	25.300	1468.226	1192.679
283.628	25.277	1466.945	1191.379
284.643	25.132	1466.576	1190.013
285.657	25.235	1465.524	1189.733
286.672	25.193	1464.569	1188.574
287.687	25.175	1464.112	1187.978
288.701	25.193	1463.109	1187.178
289.716	25.213	1462.403	1186.636
290.730	25.306	1461.445	1186.368
291.745	25.360	1460.082	1185.510
292.760	25.339	1459.628	1184.903
293.774	25.330	1458.441	1183.771
294.789	25.381	1457.696	1183.402
295.803	25.345	1457.181	1182.641
296.818	25.389	1456.147	1181.986
297.833	25.383	1455.192	1181.069
298.847	25.433	1454.501	1180.727
299.862	25.275	1454.049	1179.219
300.876	25.431	1453.198	1179.449
301.891	25.391	1452.305	1178.358
302.906	25.441	1451.179	1177.669
303.920	25.468	1450.771	1177.406
304.935	25.494	1450.080	1176.912
305.949	25.473	1448.934	1175.744
306.964	25.494	1448.495	1175.420
307.979	25.439	1447.405	1174.072
308.993	25.558	1446.298	1173.850
310.008	25.612	1445.766	1173.666
311.022	25.551	1444.569	1172.189
312.037	25.599	1443.556	1171.575
313.052	25.534	1442.993	1170.592
314.066	25.566	1441.851	1169.775
315.081	25.528	1441.033	1168.759
316.095	25.475	1440.345	1167.752
317.110	25.531	1439.609	1167.412
318.125	25.708	1438.095	1167.234
319.139	25.517	1437.744	1165.608
320.154	25.545	1436.873	1164.977
321.168	25.509	1436.121	1164.034
322.183	25.667	1434.906	1163.968
323.197	25.541	1434.198	1162.472
324.212	25.547	1433.677	1161.988
325.227	25.628	1432.553	1161.498
326.241	25.592	1431.790	1160.544
327.256	25.690	1430.827	1160.290
328.270	25.704	1430.331	1159.878
329.285	25.687	1429.379	1158.893
330.300	25.692	1428.459	1158.080
331.314	25.765	1427.591	1157.741
332.329	25.686	1427.047	1156.688
333.343	25.715	1426.035	1155.955
334.358	25.750	1425.353	1155.521
335.373	25.700	1425.019	1154.829
336.387	25.797	1424.130	1154.626
337.402	25.859	1422.766	1153.818
338.416	25.899	1422.025	1153.368
339.431	25.892	1422.084	1153.270
340.446	25.859	1421.530	1152.508
341.460	25.870	1420.597	1151.721
342.475	25.807	1419.592	1150.403
343.489	25.893	1418.874	1150.264
344.504	25.860	1417.940	1149.199
345.519	25.851	1416.936	1148.224
346.533	25.920	1415.830	1147.663
347.548	25.963	1414.932	1147.111
348.562	26.003	1414.104	1146.591
349.577	25.887	1413.769	1145.481
350.592	25.896	1413.212	1144.983
351.606	25.896	1411.885	1143.810
352.621	25.879	1411.039	1142.917
353.635	25.874	1409.903	1141.863
354.650	25.901	1409.315	1141.457
355.665	26.050	1408.015	1141.242
356.679	25.953	1407.479	1140.097
357.694	25.997	1406.375	1139.376
358.708	25.998	1405.044	1138.204
359.723	26.008	1404.356	1137.608
360.738	25.974	1403.333	1136.468
361.752	25.997	1401.862	1135.319
362.767	25.976	1400.945	1134.343
363.781	26.085	1399.960	1134.132
364.796	26.029	1399.624	1133.409
365.810	26.113	1398.466	1132.894
366.825	26.086	1398.200	1132.413
367.840	26.106	1397.154	1131.591
368.854	26.100	1396.785	1131.150
369.869	26.148	1396.354	1131.007
370.883	26.104	1395.883	1130.250
371.898	26.085	1395.066	1129.368
372.913	26.176	1394.283	1129.203
373.927	26.173	1392.933	1127.988
374.942	26.085	1392.460	1126.957
375.956	26.223	1391.838	1127.217
376.971	26.242	1390.993	1126.549
377.986	26.172	1390.224	1125.390
379.000	26.193	1389.326	1124.698
380.015	26.289	1388.472	1124.502
381.029	26.293	1388.080	1124.108
382.044	26.301	1387.217	1123.360
383.059	26.346	1386.338	1122.828
384.073	26.365	1385.727	1122.352
385.088	26.248	1385.693	1121.500
386.102	26.323	1385.174	1121.449
387.117	26.245	1384.580	1120.382
388.132	26.297	1383.617	1119.827
389.146	26.304	1382.858	1119.154
390.161	26.269	1382.055	1118.190
391.175	26.481	1381.282	1118.779
392.190	26.435	1380.770	1117.982
393.205	26.429	1379.693	1116.973
394.219	26.408	1378.522	1115.797
395.234	26.332	1377.935	1114.755
396.248	26.452	1376.615	1114.325
397.263	26.567	1375.399	1113.948
398.278	26.446	1374.645	1112.494
399.292	26.480	1373.997	1112.085
400.307	26.639	1372.488	1111.741
401.321	26.577	1371.519	1110.476
402.336	26.542	1370.919	1109.678
403.350	26.558	1369.738	1108.724
404.365	26.391	1369.116	1107.096
405.380	26.462	1367.950	1106.493
406.394	26.531	1367.500	1106.453
407.409	26.505	1367.133	1105.899
408.423	26.610	1366.193	1105.679
409.438	26.608	1365.758	1105.216
410.453	26.617	1364.862	1104.450
411.467	26.689	1363.681	1103.833
412.482	26.716	1363.178	1103.497
413.496	26.724	1362.841	1103.174
414.511	26.672	1361.779	1101.901
415.526	26.694	1360.964	1101.279
416.540	26.633	1360.370	1100.325
417.555	26.688	1359.748	1100.060
418.569	26.573	1359.447	1099.023
419.584	26.677	1358.891	1099.105
420.599	26.705	1358.220	1098.635
421.613	78.690	1329.878	1373.553
422.628	79.516	1325.726	1373.675
