DTS Sentinel unit serial number:	SN413079Multiplexer serial number:	ORYXHardware model number:	OX4-SRSoftware version number:	ORYX F/W v4.00 Oryx Data Collector v3.7.2.0data status	okinstallation	princeton_trtdifferential loss correction	single-endedforward channel	channel 4reverse channel	N/Adate	2019/09/11time	14:31:11forward acquisition time	60.00reverse acquisition time	0.00gamma	496.2192k internal	0.2280k external	0.2280temperature offset calibration	1.0005default loss term (dB/km)	0.3790temperature slope calibration	1.0000multiplexer offset coefficient	1.0000multiplexer slope coefficient	1.0000fibre end	0.00T internal ref (°C)	42.19T ext. ref 1 (°C)	0.91T ext. ref 2 (°C)	37.60length (m)	temperature (°C)	Stokes	anti-Stokes-747.200	-200.000	-0.005	0.057
-746.185	34.513	0.022	-0.020
-745.171	-55.173	-0.145	0.067
-744.156	-200.000	0.031	0.233
-743.142	83.268	0.161	-0.180
-742.127	-200.000	-0.061	0.551
-741.112	74.093	-0.089	-0.097
-740.098	112.854	-0.138	0.172
-739.083	-68.078	0.127	-0.051
-738.069	35.567	0.061	0.055
-737.054	-82.760	-0.150	0.050
-736.039	-78.148	-0.121	-0.043
-735.025	-123.580	-0.105	0.017
-734.010	-200.000	-0.032	-0.211
-732.996	222.819	0.020	0.034
-731.981	-200.000	0.034	-0.152
-730.966	7.284	0.085	0.065
-729.952	117.025	-0.216	0.272
-728.937	-93.384	-0.544	-0.155
-727.923	-41.175	0.367	-0.195
-726.908	-40.320	-0.030	0.016
-725.894	738.534	0.190	-0.525
-724.879	67.176	-0.286	-0.300
-723.864	-147.934	0.368	0.031
-722.850	-111.569	0.115	0.024
-721.835	155.260	0.144	0.203
-720.821	-48.422	0.196	-0.097
-719.806	-121.974	0.158	-0.027
-718.791	-114.511	-0.149	-0.029
-717.777	-200.000	0.016	0.193
-716.762	-173.728	-0.454	0.014
-715.748	-31.340	-0.065	-0.037
-714.733	-107.747	-0.083	-0.019
-713.718	129.102	0.212	-0.278
-712.704	281.604	0.185	-0.340
-711.689	-200.000	0.029	0.335
-710.675	267.842	-0.240	-0.433
-709.660	-200.000	-0.015	-0.159
-708.645	-137.843	0.318	0.037
-707.631	482.665	-0.219	-0.511
-706.616	-158.318	-0.136	-0.008
-705.602	-130.357	-0.145	-0.020
-704.587	-104.819	-0.112	0.027
-703.572	31.632	-0.204	0.180
-702.558	355.094	0.160	-0.328
-701.543	-90.120	-0.231	-0.069
-700.529	-200.000	-0.006	-0.070
-699.514	278.585	-0.093	-0.171
-698.499	800.000	0.038	-0.143
-697.485	-146.112	0.222	-0.020
-696.470	-114.117	0.107	-0.021
-695.456	52.010	0.130	0.127
-694.441	35.327	-0.128	-0.115
-693.426	200.849	-0.070	0.110
-692.412	-197.547	-0.092	0.001
-691.397	800.000	0.054	0.240
-690.383	139.374	0.137	-0.185
-689.368	32.616	0.132	0.117
-688.354	4.688	-0.034	-0.025
-687.339	19.442	0.186	0.154
-686.324	138.430	0.151	-0.203
-685.310	-161.904	-0.264	0.014
-684.295	63.644	0.254	0.262
-683.281	-45.772	-0.261	-0.133
-682.266	800.000	-0.033	-0.136
-681.251	-200.000	0.012	0.114
-680.237	74.053	0.401	-0.432
-679.222	770.560	-0.083	-0.232
-678.208	416.661	0.038	-0.083
-677.193	800.000	-0.105	0.324
-676.178	173.731	-0.025	-0.037
-675.164	363.815	0.292	-0.602
-674.149	70.456	-0.307	-0.326
-673.135	228.598	0.129	-0.215
-672.120	-200.000	-0.008	-0.325
-671.105	-59.727	0.277	-0.122
-670.091	31.278	-0.401	0.353
-669.076	-0.929	-0.341	0.248
-668.062	-25.752	0.196	0.119
-667.047	381.389	0.023	-0.048
-666.032	35.001	0.155	0.139
-665.018	561.670	0.056	0.139
-664.003	29.653	-0.226	-0.197
-662.989	-42.913	0.048	0.025
-661.974	-147.382	0.326	-0.028
-660.959	415.763	-0.046	-0.100
-659.945	-99.075	0.091	-0.024
-658.930	205.209	-0.036	-0.057
-657.916	759.268	0.050	-0.138
-656.901	36.432	-0.101	-0.091
-655.886	-143.552	0.293	-0.029
-654.872	-63.394	0.272	-0.115
-653.857	800.000	-0.081	0.343
-652.843	-200.000	-0.086	-0.444
-651.828	46.272	-0.175	0.166
-650.814	-200.000	0.017	0.224
-649.799	800.000	0.051	-0.162
-648.784	-200.000	0.023	-0.231
-647.770	-50.718	-0.262	-0.126
-646.755	800.000	0.019	-0.073
-645.741	800.000	0.122	-0.434
-644.726	47.768	-0.154	0.147
-643.711	4.984	0.068	-0.051
-642.697	217.819	0.095	0.156
-641.682	-94.771	-0.303	-0.084
-640.668	141.331	0.182	-0.246
-639.653	-100.940	0.157	-0.039
-638.638	-200.000	-0.024	-0.153
-637.624	-106.930	-0.214	-0.048
-636.609	429.042	0.055	-0.123
-635.595	800.000	-0.060	-0.177
-634.580	92.178	-0.159	-0.183
-633.565	24.519	-0.260	-0.221
-632.551	800.000	-0.052	0.149
-631.536	685.845	-0.126	-0.336
-630.522	-132.643	0.318	0.042
-629.507	176.613	0.059	0.087
-628.492	-103.569	0.155	-0.037
-627.478	-200.000	-0.002	-0.075
-626.463	28.532	-0.193	-0.167
-625.449	726.499	0.077	0.210
-624.434	471.435	0.156	0.360
-623.419	800.000	0.037	-0.119
-622.405	175.729	-0.089	-0.131
-621.390	-138.614	-0.202	-0.023
-620.376	-57.660	-0.122	-0.055
-619.361	10.831	0.010	0.008
-618.346	100.525	0.145	0.172
-617.332	-33.535	0.113	0.064
-616.317	133.950	0.196	0.260
-615.303	-200.000	0.065	-0.305
-614.288	-200.000	0.027	-0.281
-613.273	-200.000	-0.005	-0.142
-612.259	-164.899	-0.273	-0.013
-611.244	-14.261	0.273	0.180
-610.230	-200.000	-0.009	0.047
-609.215	-97.449	0.347	0.092
-608.201	-80.909	-0.041	-0.014
-607.186	302.980	0.217	-0.410
-606.171	-200.000	0.006	-0.136
-605.157	-200.000	-0.004	0.121
-604.142	-177.737	-0.279	-0.007
-603.128	-17.573	-0.148	0.095
-602.113	-102.831	-0.378	-0.092
-601.098	-64.290	0.311	-0.130
-600.084	800.000	0.097	-0.283
-599.069	-139.062	0.214	-0.024
-598.055	-80.652	0.264	-0.090
-597.040	-33.484	-0.248	0.140
-596.025	112.474	0.143	-0.177
-595.011	17.755	0.073	0.060
-593.996	-57.829	-0.489	-0.219
-592.982	-166.655	0.160	0.007
-591.967	-149.469	0.196	-0.016
-590.952	-40.540	-0.253	-0.134
-589.938	38.286	-0.377	-0.343
-588.923	-43.951	-0.198	0.102
-587.909	575.839	0.058	0.144
-586.894	-200.000	-0.085	0.445
-585.879	-46.720	-0.159	0.079
-584.865	73.376	0.148	-0.158
-583.850	-153.010	0.324	-0.023
-582.836	437.740	-0.131	0.293
-581.821	-200.000	-0.031	0.156
-580.806	-5.183	-0.311	-0.219
-579.792	59.430	-0.276	0.278
-578.777	34.573	0.103	-0.092
-577.763	-200.000	0.096	0.475
-576.748	-60.717	0.055	0.024
-575.733	177.802	0.243	-0.362
-574.719	277.129	0.056	0.101
-573.704	112.888	-0.068	0.085
-572.690	-105.929	0.471	-0.108
-571.675	-16.433	-0.182	-0.118
-570.661	567.975	0.024	-0.059
-569.646	-91.972	-0.093	0.027
-568.631	130.673	-0.267	-0.350
-567.617	-116.472	-0.172	0.032
-566.602	549.280	-0.098	0.239
-565.588	-200.000	0.010	-0.077
-564.573	-200.000	-0.048	0.390
-563.558	-115.635	0.379	0.073
-562.544	267.576	0.179	0.321
-561.529	800.000	0.023	0.073
-560.515	54.367	0.083	-0.082
-559.500	160.115	-0.060	0.085
-558.485	117.835	0.260	-0.327
-557.471	231.039	0.111	0.186
-556.456	-45.506	0.070	0.036
-555.442	100.351	0.212	-0.251
-554.427	191.983	-0.016	-0.025
-553.412	-52.065	0.074	-0.035
-552.398	29.835	-0.123	-0.107
-551.383	800.000	0.097	0.290
-550.369	800.000	-0.038	-0.112
-549.354	-12.226	-0.167	0.111
-548.339	-59.907	-0.218	-0.095
-547.325	135.805	-0.084	0.111
-546.310	800.000	-0.080	-0.347
-545.296	-72.738	0.070	0.026
-544.281	-85.328	0.261	-0.083
-543.266	800.000	-0.078	-0.249
-542.252	49.468	0.012	0.012
-541.237	-200.000	-0.028	0.221
-540.223	-15.391	0.226	0.148
-539.208	-167.680	-0.196	0.008
-538.193	144.746	-0.120	-0.164
-537.179	-119.992	-0.219	0.038
-536.164	800.000	-0.026	0.092
-535.150	-200.000	0.028	-0.337
-534.135	-114.219	-0.091	0.018
-533.121	360.325	-0.064	-0.131
-532.106	-84.000	-0.299	0.097
-531.091	302.931	-0.061	-0.115
-530.077	-175.959	0.481	0.013
-529.062	-5.585	0.181	0.127
-528.048	-12.903	0.121	-0.081
-527.033	-67.732	-0.174	0.069
-526.018	248.246	-0.217	0.374
-525.004	238.197	-0.066	-0.112
-523.989	173.509	-0.249	-0.367
-522.975	-21.858	0.068	0.042
-521.960	97.477	-0.072	-0.084
-520.945	131.126	0.068	-0.090
-519.931	-27.060	0.235	0.140
-518.916	-50.616	-0.090	-0.043
-517.902	29.642	-0.090	0.078
-516.887	800.000	-0.023	-0.077
-515.872	256.136	0.078	0.136
-514.858	-10.934	0.098	0.066
-513.843	-200.000	-0.028	0.255
-512.829	-200.000	0.008	-0.157
-511.814	-53.772	-0.363	0.169
-510.799	93.399	-0.081	-0.093
-509.785	272.293	0.061	0.110
-508.770	45.328	-0.152	-0.143
-507.756	188.416	-0.104	0.158
-506.741	12.902	-0.116	0.091
-505.726	800.000	0.035	-0.135
-504.712	-3.338	0.168	-0.119
-503.697	-9.732	0.470	-0.319
-502.683	-200.000	0.028	0.281
-501.668	143.755	-0.108	-0.147
-500.653	-152.421	0.246	-0.018
-499.639	133.975	-0.028	0.037
-498.624	-143.781	0.101	-0.010
-497.610	450.300	-0.059	0.133
-496.595	-200.000	0.043	-0.234
-495.581	361.545	0.095	0.194
-494.566	442.154	-0.161	0.358
-493.551	-57.751	-0.079	-0.035
-492.537	-170.024	0.145	0.005
-491.522	-6.955	-0.185	0.128
-490.508	-29.251	0.167	0.097
-489.493	-50.291	-0.012	0.006
-488.478	13.184	-0.111	0.087
-487.464	800.000	0.031	0.095
-486.449	800.000	-0.043	0.133
-485.435	74.267	-0.236	-0.252
-484.420	-116.435	-0.227	-0.043
-483.405	-123.176	0.251	0.041
-482.391	-144.224	0.155	0.015
-481.376	15.264	-0.126	0.100
-480.362	4.927	-0.190	0.142
-479.347	310.364	-0.117	0.222
-478.332	291.918	-0.121	-0.225
-477.318	-66.814	0.271	0.109
-476.303	545.442	0.035	-0.086
-475.289	256.777	0.128	0.224
-474.274	-37.966	-0.146	0.079
-473.259	187.649	0.032	0.048
-472.245	800.000	0.101	0.352
-471.230	800.000	0.082	0.279
-470.216	-129.268	-0.291	-0.041
-469.201	617.663	-0.129	0.331
-468.186	-93.649	0.243	0.068
-467.172	-57.420	0.119	-0.053
-466.157	83.565	-0.077	0.086
-465.143	-137.246	0.058	0.007
-464.128	-200.000	-0.045	-0.494
-463.113	-47.590	-0.047	-0.023
-462.099	800.000	-0.094	0.357
-461.084	156.936	-0.102	-0.143
-460.070	-200.000	0.012	-0.284
-459.055	167.537	0.101	-0.145
-458.040	110.379	0.309	-0.378
-457.026	-48.577	-0.213	0.104
-456.011	-200.000	0.060	-0.275
-454.997	705.571	-0.026	-0.069
-453.982	164.483	0.116	0.166
-452.968	-107.828	0.122	-0.027
-451.953	95.049	0.095	-0.111
-450.938	46.020	0.145	0.137
-449.924	22.902	0.191	-0.159
-448.909	27.507	0.256	0.219
-447.895	585.133	-0.113	0.281
-446.880	-68.979	-0.134	-0.052
-445.865	-168.067	-0.080	-0.003
-444.851	58.651	-0.222	0.222
-443.836	-200.000	0.029	0.258
-442.822	-127.087	-0.304	0.045
-441.807	197.572	0.024	0.038
-440.792	800.000	-0.033	0.096
-439.778	469.215	-0.139	0.317
-438.763	-68.153	0.272	0.108
-437.749	-97.392	0.072	-0.019
-436.734	5.398	-0.210	-0.157
-435.719	209.364	0.173	-0.275
-434.705	34.934	0.156	-0.139
-433.690	5.299	0.055	-0.041
-432.676	800.000	-0.086	-0.295
-431.661	331.219	-0.111	-0.218
-430.646	-99.580	0.285	-0.073
-429.632	-200.000	-0.032	0.434
-428.617	87.437	-0.167	-0.187
-427.603	-2.441	0.441	-0.314
-426.588	-19.115	0.210	-0.133
-425.573	398.692	-0.133	-0.283
-424.559	-4.672	0.198	-0.139
-423.544	197.689	-0.095	-0.147
-422.530	800.000	-0.061	-0.266
-421.515	-104.256	0.140	-0.033
-420.500	-13.590	-0.229	0.150
-419.486	120.960	0.078	0.099
-418.471	92.007	-0.091	0.104
-417.457	800.000	-0.047	-0.207
-416.442	-37.981	0.149	0.080
-415.428	112.335	0.178	-0.218
-414.413	-194.384	0.273	-0.002
-413.398	71.244	-0.089	-0.093
-412.384	-7.418	0.185	-0.127
-411.369	800.000	0.144	-0.405
-410.355	-2.261	0.382	-0.272
-409.340	-149.617	0.153	-0.012
-408.325	272.912	-0.109	-0.195
-407.311	-150.516	-0.247	-0.019
-406.296	7.189	0.174	-0.132
-405.282	800.000	-0.028	-0.106
-404.267	-145.809	-0.266	-0.024
-403.252	134.315	-0.178	0.234
-402.238	8.577	0.073	0.056
-401.223	-200.000	-0.190	0.001
-400.209	-101.149	-0.292	0.072
-399.194	-78.938	0.185	0.064
-398.179	-200.000	0.035	0.627
-397.165	-90.439	-0.226	-0.066
-396.150	-85.081	0.180	0.057
-395.136	800.000	0.071	0.222
-394.121	800.000	0.055	0.192
-393.106	-200.000	-0.047	0.247
-392.092	-3.432	-0.286	-0.202
-391.077	-200.000	0.018	0.576
-390.063	634.703	0.090	0.232
-389.048	-200.000	-0.019	-0.124
-388.033	36.528	0.357	-0.320
-387.019	-200.000	-0.008	-0.136
-386.004	-196.550	-0.197	-0.001
-384.990	-111.580	0.319	0.066
-383.975	800.000	-0.042	0.181
-382.960	800.000	0.035	-0.131
-381.946	-200.000	-0.052	-0.241
-380.931	430.189	-0.070	0.153
-379.917	-6.563	0.116	-0.080
-378.902	384.844	0.028	0.059
-377.888	-9.909	0.256	-0.172
-376.873	32.861	-0.083	-0.073
-375.858	-200.000	-0.010	-0.278
-374.844	579.469	-0.111	-0.275
-373.829	-200.000	0.008	-0.392
-372.815	65.927	-0.089	0.091
-371.800	-200.000	0.010	-0.319
-370.785	-106.487	-0.303	-0.069
-369.771	45.258	0.151	0.141
-368.756	63.569	0.191	0.195
-367.742	800.000	-0.105	0.403
-366.727	-157.946	-0.224	-0.013
-365.712	-22.675	-0.117	-0.071
-364.698	122.283	0.165	-0.208
-363.683	10.462	-0.142	-0.109
-362.669	445.214	0.073	-0.162
-361.654	-77.299	-0.208	0.073
-360.639	-12.812	-0.026	-0.017
-359.625	-6.893	-0.360	-0.248
-358.610	-200.000	-0.029	0.273
-357.596	-40.070	-0.336	-0.177
-356.581	-23.876	0.317	-0.192
-355.566	176.209	-0.109	-0.160
-354.552	-200.000	-0.010	-0.111
-353.537	-200.000	-0.015	0.377
-352.523	-200.000	-0.013	0.116
-351.508	111.884	-0.186	0.228
-350.493	143.986	0.095	-0.128
-349.479	-54.744	0.095	0.044
-348.464	21.957	0.153	-0.127
-347.450	-200.000	-0.020	-0.270
-346.435	-158.808	-0.360	-0.021
-345.420	23.378	0.136	-0.114
-344.406	800.000	0.068	0.201
-343.391	-10.683	0.127	-0.085
-342.377	-200.000	-0.045	-0.437
-341.362	800.000	0.155	0.565
-340.348	-200.000	-0.011	0.339
-339.333	385.341	0.043	-0.090
-338.318	341.333	0.046	0.092
-337.304	-200.000	0.010	-0.136
-336.289	-85.587	-0.085	-0.027
-335.275	800.000	0.056	0.173
-334.260	57.892	-0.246	0.244
-333.245	-94.362	-0.393	0.109
-332.231	-200.000	0.006	0.199
-331.216	-200.000	0.003	-0.243
-330.202	-90.132	0.220	0.065
-329.187	-81.996	-0.119	0.039
-328.172	-200.000	-0.033	0.303
-327.158	153.989	0.141	-0.196
-326.143	278.146	0.100	0.180
-325.129	29.149	-0.247	-0.212
-324.114	234.678	0.033	0.054
-323.099	185.194	-0.128	-0.192
-322.085	15.887	-0.117	-0.093
-321.070	125.536	0.028	-0.035
-320.056	-21.401	-0.311	-0.192
-319.041	513.688	0.028	-0.066
-318.026	46.089	-0.120	-0.112
-317.012	-200.000	0.013	-0.398
-315.997	258.965	0.093	-0.162
-314.983	800.000	-0.141	0.481
-313.968	212.308	0.036	-0.058
-312.953	60.407	-0.112	0.113
-311.939	68.054	-0.218	0.226
-310.924	-200.000	-0.023	0.220
-309.910	-200.000	0.003	0.061
-308.895	639.523	0.071	0.182
-307.880	800.000	-0.104	-0.294
-306.866	-94.543	-0.268	0.074
-305.851	-103.649	0.181	-0.043
-304.837	100.576	0.148	-0.174
-303.822	185.715	0.167	0.251
-302.807	114.122	0.132	-0.162
-301.793	-12.683	0.241	0.159
-300.778	709.973	-0.097	0.260
-299.764	-200.000	-0.023	0.163
-298.749	800.000	-0.073	0.304
-297.735	82.628	-0.026	0.028
-296.720	-92.483	-0.113	0.032
-295.705	482.210	0.149	0.342
-294.691	442.281	0.095	0.211
-293.676	241.294	-0.030	0.051
-292.662	-95.365	-0.123	-0.033
-291.647	-89.288	-0.354	0.105
-290.632	720.617	0.063	0.169
-289.618	-116.165	-0.070	-0.013
-288.603	-128.725	0.227	-0.032
-287.589	-22.608	0.029	-0.018
-286.574	188.973	0.271	-0.410
-285.559	133.662	-0.101	0.132
-284.545	-97.417	0.186	-0.049
-283.530	-14.765	0.324	0.210
-282.516	-200.000	0.017	0.203
-281.501	11.095	-0.128	0.099
-280.486	109.345	-0.235	-0.285
-279.472	72.183	0.165	0.173
-278.457	225.898	0.113	-0.184
-277.443	526.379	-0.054	0.130
-276.428	204.210	-0.098	0.153
-275.413	-136.765	-0.358	-0.042
-274.399	-71.963	-0.074	0.028
-273.384	800.000	0.074	0.313
-272.370	60.564	0.209	0.209
-271.355	-200.000	-0.031	-0.276
-270.340	-31.298	-0.078	0.044
-269.326	-27.134	-0.238	-0.140
-268.311	57.475	0.268	0.264
-267.297	5.243	0.097	-0.073
-266.282	-26.959	0.393	-0.232
-265.267	-180.525	-0.487	-0.010
-264.253	-200.000	-0.011	-0.386
-263.238	69.250	-0.219	0.227
-262.224	63.976	-0.292	-0.297
-261.209	-119.519	0.066	-0.012
-260.195	-93.704	0.199	0.056
-259.180	-200.000	0.018	-0.460
-258.165	246.011	-0.119	0.203
-257.151	-200.000	-0.004	0.203
-256.136	111.410	0.192	-0.234
-255.122	-200.000	-0.010	-0.199
-254.107	-25.067	-0.150	0.090
-253.092	156.986	-0.055	0.076
-252.078	800.000	0.041	0.176
-251.063	196.931	0.113	0.174
-250.049	480.700	0.119	-0.271
-249.034	211.566	0.083	-0.132
-248.019	-57.229	0.291	0.129
-247.005	134.212	0.145	0.189
-245.990	-200.000	0.004	-0.332
-244.976	54.713	0.078	0.076
-243.961	-200.000	0.014	0.225
-242.946	-8.890	-0.312	0.211
-241.932	-117.005	0.120	-0.022
-240.917	-70.749	0.423	0.161
-239.903	288.911	-0.047	0.086
-238.888	-85.962	0.130	0.041
-237.873	-197.860	-0.099	-0.001
-236.859	188.630	0.157	-0.237
-235.844	22.100	-0.045	0.037
-234.830	800.000	0.007	0.030
-233.815	-200.000	-0.056	0.259
-232.800	49.912	0.207	-0.197
-231.786	-200.000	-0.016	0.083
-230.771	-113.274	0.371	0.074
-229.757	320.840	0.063	0.120
-228.742	-43.525	0.298	-0.152
-227.727	-99.318	-0.235	0.060
-226.713	89.879	0.173	-0.194
-225.698	-30.431	-0.256	-0.146
-224.684	97.515	-0.188	-0.218
-223.669	-55.359	0.164	-0.074
-222.655	-62.713	-0.363	0.152
-221.640	-200.000	-0.020	0.154
-220.625	-135.020	-0.133	-0.016
-219.611	-44.572	0.076	-0.038
-218.596	-200.000	0.034	0.233
-217.582	328.384	0.044	-0.086
-216.567	46.454	0.159	-0.149
-215.552	122.646	-0.168	-0.212
-214.538	800.000	-0.066	-0.231
-213.523	90.373	0.056	-0.063
-212.509	435.073	0.026	-0.057
-211.494	179.344	0.184	0.271
-210.479	-163.374	0.282	0.014
-209.465	-200.000	-0.002	0.075
-208.450	87.450	-0.162	0.181
-207.436	-55.654	-0.202	0.091
-206.421	-200.000	-0.029	0.128
-205.406	-200.000	0.030	0.231
-204.392	142.585	-0.049	0.065
-203.377	-74.245	-0.379	0.138
-202.363	-200.000	-0.041	-0.258
-201.348	-59.083	0.109	0.047
-200.333	-59.650	0.328	-0.142
-199.319	-82.332	0.312	-0.102
-198.304	-145.416	0.197	-0.018
-197.290	271.400	-0.155	0.274
-196.275	240.013	0.223	-0.374
-195.260	-126.841	0.319	-0.047
-194.246	-200.000	0.011	-0.059
-193.231	-9.570	0.086	0.058
-192.217	229.297	0.122	0.200
-191.202	-179.814	0.218	0.005
-190.187	-200.000	-0.017	-0.208
-189.173	-20.912	-0.203	0.125
-188.158	-200.000	-0.035	0.183
-187.144	800.000	0.058	-0.167
-186.129	79.859	-0.234	-0.253
-185.114	-42.530	-0.286	0.147
-184.100	-6.584	-0.082	0.057
-183.085	391.799	0.064	0.134
-182.071	47.164	-0.253	0.237
-181.056	619.442	0.015	0.039
-180.042	295.283	-0.154	-0.284
-179.027	800.000	0.049	-0.164
-178.012	-200.000	-0.005	0.042
-176.998	267.566	-0.153	0.270
-175.983	800.000	-0.027	0.081
-174.969	253.840	0.122	0.210
-173.954	11.373	0.149	0.115
-172.939	-85.793	-0.122	-0.038
-171.925	270.221	0.077	0.136
-170.910	800.000	0.067	0.191
-169.896	185.261	-0.149	0.222
-168.881	-57.511	-0.251	-0.111
-167.866	135.682	0.149	0.195
-166.852	101.443	-0.041	0.048
-165.837	-200.000	0.031	-0.275
-164.823	9.990	0.034	-0.026
-163.808	-200.000	0.043	0.290
-162.793	-146.317	-0.200	0.018
-161.779	104.379	0.114	-0.134
-160.764	-200.000	0.064	0.303
-159.750	22.896	0.332	0.274
-158.735	-200.000	-0.026	-0.134
-157.720	800.000	-0.103	-0.286
-156.706	57.944	0.115	-0.113
-155.691	416.727	-0.031	0.067
-154.677	-200.000	0.004	-0.311
-153.662	-94.055	-0.104	-0.029
-152.647	66.578	-0.285	0.291
-151.633	-35.011	-0.255	0.140
-150.618	654.638	-0.058	-0.150
-149.604	-147.333	-0.065	0.006
-148.589	561.997	-0.125	-0.305
-147.574	72.904	-0.033	0.034
-146.560	800.000	-0.013	-0.044
-145.545	-185.816	-0.064	-0.001
-144.531	800.000	-0.115	0.327
-143.516	-150.548	-0.122	0.009
-142.502	126.817	-0.009	0.011
-141.487	104.786	0.185	0.219
-140.472	85.979	-0.087	-0.096
-139.458	391.955	-0.107	-0.223
-138.443	-110.008	0.073	-0.015
-137.429	58.656	-0.112	-0.110
-136.414	-60.818	0.099	0.042
-135.399	-200.000	-0.014	0.270
-134.385	-5.224	0.046	0.032
-133.370	-14.529	0.351	0.227
-132.356	188.333	0.244	0.366
-131.341	247.834	0.146	0.247
-130.326	191.318	-0.281	0.424
-129.312	-200.000	0.048	0.281
-128.297	34.335	0.084	0.074
-127.283	-139.317	0.272	-0.029
-126.268	99.347	-0.312	0.362
-125.253	-200.000	0.022	0.106
-124.239	63.325	-0.238	-0.240
-123.224	-36.193	0.105	-0.057
-122.210	-33.530	-0.387	0.215
-121.195	-47.362	0.245	-0.120
-120.180	724.540	0.008	0.023
-119.166	800.000	-0.046	-0.133
-118.151	102.729	0.063	0.074
-117.137	740.553	-0.041	-0.112
-116.122	-200.000	-0.073	-0.584
-115.107	-60.176	-0.144	-0.062
-114.093	800.000	0.038	0.125
-113.078	800.000	0.031	-0.125
-112.064	-20.473	0.138	-0.085
-111.049	-200.000	0.001	0.245
-110.034	34.471	0.071	0.062
-109.020	140.497	0.118	0.157
-108.005	328.827	0.102	-0.197
-106.991	-200.000	0.005	-0.172
-105.976	800.000	-0.039	-0.132
-104.962	800.000	-0.073	-0.280
-103.947	98.052	0.033	-0.039
-102.932	-98.534	0.152	0.039
-101.918	-13.014	-0.197	0.129
-100.903	163.418	0.161	-0.227
-99.889	-200.000	0.002	0.201
-98.874	61.988	-0.109	-0.109
-97.859	758.898	0.050	0.135
-96.845	352.520	-0.058	-0.116
-95.830	17.245	0.135	-0.108
-94.816	266.684	-0.108	-0.190
-93.801	105.735	0.092	-0.109
-92.786	229.722	-0.083	-0.137
-91.772	-67.955	0.236	-0.092
-90.757	-88.514	-0.223	0.067
-89.743	-45.224	0.208	-0.103
-88.728	-61.681	-0.260	0.110
-87.713	-6.359	0.241	-0.165
-86.699	-115.809	-0.081	-0.015
-85.684	-45.742	0.222	-0.110
-84.670	-54.755	-0.278	0.126
-83.655	150.771	-0.006	0.008
-82.640	800.000	0.040	-0.145
-81.626	107.451	0.107	0.128
-80.611	-200.000	-0.018	-0.192
-79.597	-200.000	-0.002	-0.143
-78.582	-200.000	0.087	0.407
-77.567	23.637	0.193	-0.160
-76.553	6.852	-0.046	0.034
-75.538	-150.274	0.270	-0.021
-74.524	-20.299	-0.073	-0.045
-73.509	133.971	0.182	0.236
-72.494	-80.603	-0.133	0.044
-71.480	-200.000	0.042	0.431
-70.465	103.116	0.076	0.090
-69.451	12.148	0.088	0.068
-68.436	800.000	-0.047	0.165
-67.422	-55.342	0.272	-0.122
-66.407	201.349	-0.165	0.255
-65.392	-139.226	0.528	-0.057
-64.378	217.733	0.196	0.313
-63.363	133.290	-0.062	-0.080
-62.349	-27.322	-0.394	0.230
-61.334	-16.878	-0.846	-0.536
-60.319	800.000	0.117	0.463
-59.305	172.926	0.324	-0.468
-58.290	68.148	0.713	0.732
-57.276	800.000	0.600	1.673
-56.261	-200.000	74.935	533.124
-55.246	552.372	1302.515	3133.685
-54.232	143.941	2543.141	3396.200
-53.217	110.075	2374.279	2854.152
-52.203	49.186	2113.243	1989.073
-51.188	44.284	2020.798	1857.303
-50.173	42.313	2003.081	1823.047
-49.159	54.336	2040.361	1967.295
-48.144	59.444	2060.650	2033.562
-47.130	44.962	2025.460	1867.497
-46.115	42.103	2014.344	1831.086
-45.100	42.140	2010.863	1828.192
-44.086	42.060	2008.634	1825.359
-43.071	42.104	2006.026	1823.322
-42.057	42.049	2004.351	1821.226
-41.042	42.048	2002.559	1819.513
-40.027	42.093	2000.601	1818.069
-39.013	42.081	1998.163	1815.681
-37.998	42.091	1996.446	1814.135
-36.984	42.058	1995.136	1812.574
-35.969	42.058	1993.019	1810.580
-34.954	42.074	1991.416	1809.200
-33.940	42.143	1989.852	1808.327
-32.925	42.145	1988.239	1806.807
-31.911	42.218	1986.658	1805.953
-30.896	42.188	1984.421	1803.582
-29.881	42.212	1983.078	1802.506
-28.867	42.263	1981.219	1801.199
-27.852	42.204	1979.699	1799.217
-26.838	42.188	1977.577	1797.073
-25.823	42.238	1975.430	1795.501
-24.809	42.257	1973.741	1794.065
-23.794	42.254	1972.446	1792.788
-22.779	42.355	1970.038	1791.432
-21.765	42.184	1969.171	1789.048
-20.750	42.270	1967.032	1787.795
-19.736	42.217	1965.918	1786.245
-18.721	42.266	1964.218	1785.065
-17.706	42.283	1962.751	1783.810
-16.692	42.193	1961.232	1781.556
-15.677	42.267	1959.000	1780.115
-14.663	42.230	1957.622	1778.470
-13.648	42.213	1956.789	1777.486
-12.633	42.211	1955.717	1776.424
-11.619	42.196	1954.367	1774.996
-10.604	42.252	1952.846	1774.037
-9.590	42.130	1951.775	1771.913
-8.575	42.176	1949.916	1770.566
-7.560	42.194	1948.469	1769.338
-6.546	42.133	1947.681	1768.017
-5.531	42.183	1946.204	1767.050
-4.517	42.214	1944.755	1765.930
-3.502	42.178	1943.576	1764.476
-2.487	42.187	1942.412	1763.426
-1.473	42.222	1941.814	1763.122
-0.458	42.319	1937.750	1760.215
0.556	41.422	1918.474	1736.572
1.571	37.559	1899.481	1685.835
2.586	33.316	1921.068	1667.561
3.600	32.003	1957.851	1687.546
4.615	31.028	1955.323	1676.455
5.629	23.262	1848.656	1518.550
6.644	9.186	1714.176	1295.216
7.659	1.640	1668.064	1200.879
8.673	1.053	1663.563	1192.918
9.688	0.949	1662.440	1191.188
10.702	0.894	1660.293	1189.107
11.717	0.744	1657.879	1186.098
12.731	1.190	1657.372	1189.131
13.746	9.280	1677.553	1267.497
14.761	20.522	1703.240	1376.320
15.775	24.545	1709.313	1413.001
16.790	24.531	1708.415	1412.020
17.804	24.581	1708.064	1412.007
18.819	24.571	1706.996	1410.920
19.834	24.609	1706.302	1410.521
20.848	24.869	1705.519	1411.797
21.863	24.927	1704.354	1411.167
22.877	24.893	1703.769	1410.290
23.892	24.973	1702.834	1410.019
24.907	24.862	1702.315	1408.591
25.921	25.051	1700.554	1408.495
26.936	24.947	1699.842	1406.964
27.950	24.964	1698.923	1406.210
28.965	24.894	1698.296	1405.019
29.980	24.946	1697.405	1404.565
30.994	24.897	1696.044	1402.933
32.009	24.967	1694.251	1401.874
33.023	24.864	1693.914	1400.666
34.038	24.857	1693.001	1399.726
35.053	24.956	1691.387	1399.043
36.067	24.873	1690.886	1397.861
37.082	24.892	1690.010	1397.155
38.096	24.974	1688.488	1396.418
39.111	24.939	1687.646	1395.324
40.126	24.960	1686.887	1394.733
41.140	24.934	1686.629	1394.199
42.155	24.882	1685.269	1392.542
43.169	24.925	1684.011	1391.715
44.184	24.900	1683.039	1390.596
45.199	24.905	1682.150	1389.777
46.213	24.882	1680.976	1388.505
47.228	24.864	1679.663	1387.160
48.242	24.927	1678.784	1386.802
49.257	24.911	1677.339	1385.357
50.271	24.882	1676.072	1383.962
51.286	24.921	1675.407	1383.597
52.301	24.893	1673.739	1381.880
53.315	24.813	1672.384	1380.020
54.330	24.917	1670.659	1379.277
55.344	24.895	1669.350	1377.902
56.359	24.917	1668.350	1377.128
57.374	24.924	1666.975	1375.920
58.388	24.853	1666.384	1374.771
59.403	24.911	1665.085	1374.022
60.417	24.877	1664.180	1372.892
61.432	24.930	1662.889	1372.110
62.447	24.892	1661.994	1370.959
63.461	24.867	1661.415	1370.165
64.476	24.943	1660.310	1369.715
65.490	25.023	1658.532	1368.740
66.505	24.973	1657.672	1367.531
67.520	24.968	1657.003	1366.819
68.534	24.951	1655.675	1365.474
69.549	24.880	1655.192	1364.411
70.563	24.955	1653.398	1363.381
71.578	25.057	1652.071	1362.943
72.593	24.945	1651.818	1361.766
73.607	25.056	1650.360	1361.286
74.622	25.015	1649.515	1360.158
75.636	24.965	1648.756	1359.026
76.651	25.023	1647.900	1358.644
77.666	25.007	1647.044	1357.695
78.680	24.982	1646.293	1356.765
79.695	24.995	1645.080	1355.746
80.709	24.942	1644.966	1355.132
81.724	25.021	1643.605	1354.488
82.739	24.901	1642.921	1352.895
83.753	25.000	1641.709	1352.524
84.768	24.996	1640.790	1351.618
85.782	24.996	1639.445	1350.391
86.797	24.902	1639.113	1349.288
87.812	24.893	1638.248	1348.393
88.826	24.961	1637.148	1347.881
89.841	24.929	1636.077	1346.634
90.855	25.054	1635.170	1346.707
91.870	24.932	1633.936	1344.656
92.884	25.016	1632.716	1344.165
93.899	25.045	1631.750	1343.469
94.914	24.982	1630.963	1342.228
95.928	25.104	1629.258	1341.620
96.943	25.019	1628.229	1340.022
97.957	25.045	1626.651	1338.799
98.972	24.982	1625.851	1337.547
99.987	24.993	1624.050	1336.035
101.001	24.993	1623.021	1335.064
102.016	24.927	1621.863	1333.507
103.030	24.946	1620.167	1332.133
104.045	24.911	1619.301	1331.045
105.060	24.915	1617.765	1329.695
106.074	24.960	1616.279	1328.690
107.089	24.983	1615.304	1327.937
108.103	24.980	1614.639	1327.256
109.118	25.000	1613.313	1326.194
110.133	25.017	1611.970	1325.101
111.147	25.012	1611.248	1324.353
112.162	24.998	1610.457	1323.482
113.176	25.135	1608.497	1322.763
114.191	25.082	1607.594	1321.510
115.206	25.034	1606.293	1319.971
116.220	25.072	1605.225	1319.259
117.235	25.077	1604.113	1318.265
118.249	25.087	1603.332	1317.577
119.264	25.092	1601.853	1316.282
120.279	25.066	1600.666	1314.996
121.293	25.050	1599.798	1314.055
122.308	25.113	1597.936	1312.869
123.322	25.198	1596.711	1312.372
124.337	25.145	1595.777	1311.099
125.352	25.042	1594.645	1309.299
126.366	25.171	1593.639	1309.296
127.381	25.133	1593.272	1308.607
128.395	25.141	1592.339	1307.778
129.410	25.203	1591.272	1307.243
130.424	25.155	1589.767	1305.536
131.439	25.166	1588.710	1304.632
132.454	25.154	1587.455	1303.401
133.468	25.263	1586.194	1303.043
134.483	25.142	1585.294	1301.309
135.497	25.177	1583.975	1300.366
136.512	25.241	1582.590	1299.580
137.527	25.229	1581.508	1298.485
138.541	25.248	1580.506	1297.685
139.556	25.177	1579.606	1296.322
140.570	25.185	1577.888	1294.854
141.585	25.157	1576.895	1293.719
142.600	25.198	1575.951	1293.126
143.614	25.129	1575.156	1291.861
144.629	25.217	1573.864	1291.327
145.643	25.231	1572.345	1290.067
146.658	25.175	1571.256	1288.651
147.673	25.105	1569.869	1286.903
148.687	25.129	1568.907	1286.170
149.702	25.233	1567.693	1285.803
150.716	25.018	1567.158	1283.714
151.731	25.111	1565.384	1282.814
152.746	25.042	1564.327	1281.341
153.760	25.176	1562.533	1280.714
154.775	25.189	1562.195	1280.417
155.789	25.152	1561.268	1279.279
156.804	25.224	1560.098	1278.721
157.819	25.144	1558.967	1277.107
158.833	25.148	1557.783	1276.057
159.848	25.210	1556.693	1275.489
160.862	25.131	1556.206	1274.415
161.877	25.148	1555.066	1273.491
162.892	25.355	1553.616	1273.662
163.906	25.268	1552.827	1272.282
164.921	25.228	1551.906	1271.134
165.935	25.219	1551.020	1270.231
166.950	25.222	1550.416	1269.642
167.964	25.306	1548.996	1268.963
168.979	25.259	1548.538	1268.147
169.994	25.282	1547.174	1267.074
171.008	25.308	1546.413	1266.523
172.023	25.273	1545.729	1265.604
173.037	25.298	1544.297	1264.500
174.052	25.206	1543.543	1263.118
175.067	25.233	1542.439	1262.296
176.081	25.289	1541.462	1261.781
177.096	25.419	1540.163	1261.520
178.110	25.246	1539.608	1259.736
179.125	25.160	1539.209	1258.695
180.140	25.239	1537.789	1257.973
181.154	25.263	1536.919	1257.318
182.169	25.459	1534.972	1256.985
183.183	25.339	1534.843	1255.931
184.198	25.269	1534.001	1254.640
185.213	25.323	1533.168	1254.228
186.227	25.363	1532.119	1253.539
187.242	25.339	1531.564	1252.808
188.256	25.294	1531.091	1251.991
189.271	25.288	1529.754	1250.748
190.286	25.332	1528.590	1249.992
191.300	25.414	1528.001	1249.972
192.315	25.359	1527.517	1249.082
193.329	25.304	1526.237	1247.537
194.344	25.373	1525.317	1247.154
195.359	25.333	1524.973	1246.486
196.373	25.529	1523.412	1246.458
197.388	25.407	1522.546	1244.800
198.402	25.342	1521.579	1243.445
199.417	25.304	1520.899	1242.515
200.432	25.285	1519.913	1241.469
201.446	25.358	1519.138	1241.231
202.461	25.406	1518.364	1240.823
203.475	25.368	1517.259	1239.547
204.490	25.356	1516.644	1238.849
205.504	25.348	1515.952	1238.122
206.519	25.328	1515.349	1237.384
207.534	25.345	1514.493	1236.693
208.548	25.393	1513.341	1235.972
209.563	25.424	1512.355	1235.272
210.577	25.361	1511.427	1233.967
211.592	25.449	1510.815	1233.962
212.607	25.439	1509.958	1233.085
213.621	25.530	1509.271	1233.039
214.636	25.455	1508.545	1231.825
215.650	25.534	1507.365	1231.296
216.665	25.509	1506.712	1230.477
217.680	25.486	1506.140	1229.744
218.694	25.498	1505.240	1228.981
219.709	25.513	1504.384	1228.278
220.723	25.521	1503.805	1227.749
221.738	25.458	1503.154	1226.682
222.753	25.469	1502.134	1225.816
223.767	25.394	1501.337	1224.545
224.782	25.356	1500.337	1223.361
225.796	25.521	1499.498	1223.693
226.811	25.651	1498.390	1223.568
227.826	25.498	1498.201	1222.262
228.840	25.513	1497.353	1221.561
229.855	25.483	1496.845	1220.839
230.869	25.562	1495.502	1220.173
231.884	25.610	1494.429	1219.515
232.899	25.572	1492.911	1217.908
233.913	25.555	1492.027	1216.962
234.928	25.519	1491.726	1216.367
235.942	25.554	1490.464	1215.471
236.957	25.644	1489.816	1215.438
237.972	25.627	1488.507	1214.149
238.986	25.540	1487.428	1212.577
240.001	25.586	1486.705	1212.186
241.015	25.647	1485.486	1211.500
242.030	25.738	1484.685	1211.350
243.045	25.864	1483.375	1211.019
244.059	25.674	1482.991	1209.325
245.074	25.640	1482.544	1208.627
246.088	25.771	1481.629	1208.648
247.103	25.745	1480.776	1207.671
248.117	25.830	1479.540	1207.127
249.132	25.825	1479.195	1206.707
250.147	25.675	1478.592	1205.104
251.161	25.717	1478.066	1204.852
252.176	25.753	1477.167	1204.251
253.190	25.822	1476.144	1203.769
254.205	25.836	1475.230	1203.013
255.220	25.935	1474.319	1202.821
256.234	25.805	1473.428	1201.125
257.249	25.877	1472.417	1200.669
258.263	25.812	1472.430	1200.144
259.278	25.875	1471.503	1199.704
260.293	25.789	1470.845	1198.487
261.307	25.908	1469.610	1198.163
262.322	25.930	1469.015	1197.718
263.336	25.949	1468.083	1196.981
264.351	25.946	1467.251	1196.174
265.366	25.917	1466.291	1195.095
266.380	25.930	1465.862	1194.727
267.395	25.982	1464.391	1193.764
268.409	25.857	1464.217	1192.692
269.424	25.924	1463.018	1192.054
270.439	25.919	1461.813	1190.931
271.453	25.936	1461.342	1190.554
272.468	25.957	1460.332	1189.765
273.482	25.978	1459.764	1189.337
274.497	25.971	1459.088	1188.636
275.512	26.046	1457.678	1187.873
276.526	25.967	1457.668	1187.240
277.541	26.059	1456.343	1186.662
278.555	26.008	1455.934	1185.886
279.570	25.980	1455.211	1185.009
280.585	26.120	1453.859	1184.722
281.599	26.025	1453.501	1183.705
282.614	26.016	1452.516	1182.738
283.628	26.000	1451.651	1181.825
284.643	26.057	1450.600	1181.239
285.657	26.098	1449.520	1180.521
286.672	26.049	1449.096	1179.753
287.687	25.983	1448.055	1178.365
288.701	26.029	1446.898	1177.620
289.716	26.085	1446.684	1177.707
290.730	26.068	1445.541	1176.564
291.745	26.098	1444.708	1175.980
292.760	26.056	1444.527	1175.452
293.774	26.115	1443.369	1174.790
294.789	26.192	1441.867	1173.965
295.803	26.163	1441.444	1173.328
296.818	26.231	1440.710	1173.065
297.833	26.117	1440.225	1171.830
298.847	26.095	1439.138	1170.701
299.862	26.205	1438.111	1170.470
300.876	26.170	1437.414	1169.574
301.891	26.196	1436.402	1168.816
302.906	26.196	1435.864	1168.274
303.920	26.283	1435.235	1168.220
304.935	26.363	1434.283	1167.861
305.949	26.303	1433.637	1166.841
306.964	26.259	1432.855	1165.818
307.979	26.322	1431.710	1165.191
308.993	26.349	1431.071	1164.744
310.008	26.355	1430.604	1164.297
311.022	26.269	1429.363	1162.634
312.037	26.324	1428.342	1162.051
313.052	26.297	1427.609	1161.178
314.066	26.345	1426.701	1160.647
315.081	26.303	1425.818	1159.556
316.095	26.293	1424.814	1158.570
317.110	26.410	1423.950	1158.519
318.125	26.375	1423.207	1157.584
319.139	26.305	1422.672	1156.597
320.154	26.446	1421.365	1156.338
321.168	26.366	1420.652	1155.143
322.183	26.464	1419.349	1154.604
323.197	26.386	1418.793	1153.557
324.212	26.517	1417.731	1153.421
325.227	26.455	1417.201	1152.498
326.241	26.464	1416.587	1151.954
327.256	26.532	1415.861	1151.693
328.270	26.437	1415.165	1150.422
329.285	26.512	1414.276	1150.070
330.300	26.530	1413.210	1149.219
331.314	26.491	1412.477	1148.271
332.329	26.488	1411.682	1147.509
333.343	26.491	1411.099	1146.950
334.358	26.506	1410.209	1146.219
335.373	26.476	1409.883	1145.665
336.387	26.552	1408.953	1145.287
337.402	26.682	1407.710	1144.994
338.416	26.671	1407.001	1144.247
339.431	26.712	1406.987	1144.397
340.446	26.661	1406.205	1143.336
341.460	26.674	1405.440	1142.697
342.475	26.641	1404.413	1141.551
343.489	26.705	1403.903	1141.441
344.504	26.722	1402.857	1140.591
345.519	26.676	1401.975	1139.486
346.533	26.668	1401.105	1138.629
347.548	26.682	1400.226	1137.899
348.562	26.746	1399.249	1137.408
349.577	26.682	1398.608	1136.387
350.592	26.827	1397.722	1136.476
351.606	26.779	1396.674	1135.221
352.621	26.629	1396.079	1133.696
353.635	26.656	1395.324	1133.154
354.650	26.728	1394.351	1132.710
355.665	26.749	1393.376	1131.955
356.679	26.760	1392.532	1131.231
357.694	26.833	1391.319	1130.605
358.708	26.907	1390.364	1130.188
359.723	26.766	1389.600	1128.590
360.738	26.789	1388.303	1127.581
361.752	26.783	1387.154	1126.509
362.767	26.738	1386.225	1125.376
363.781	26.840	1385.058	1124.963
364.796	26.820	1384.323	1124.140
365.810	26.854	1383.578	1123.645
366.825	26.941	1382.844	1123.492
367.840	26.980	1382.308	1123.197
368.854	27.032	1381.419	1122.694
369.869	26.953	1381.528	1122.199
370.883	27.066	1380.562	1122.010
371.898	27.046	1379.822	1121.190
372.913	27.072	1379.298	1120.820
373.927	27.051	1378.110	1119.627
374.942	27.049	1377.289	1118.849
375.956	26.999	1376.849	1118.086
376.971	27.059	1376.340	1117.942
377.986	27.124	1375.360	1117.446
379.000	27.149	1374.463	1116.774
380.015	27.027	1373.907	1115.476
381.029	27.121	1373.216	1115.388
382.044	27.113	1372.426	1114.599
383.059	27.108	1371.620	1113.816
384.073	27.028	1371.415	1113.066
385.088	27.129	1370.710	1113.010
386.102	27.163	1369.989	1112.534
387.117	27.166	1369.142	1111.769
388.132	27.131	1368.875	1111.240
389.146	27.068	1367.951	1110.006
390.161	27.141	1367.177	1109.723
391.175	27.167	1366.809	1109.485
392.190	27.164	1366.062	1108.760
393.205	27.214	1365.371	1108.409
394.219	27.204	1364.176	1107.279
395.234	27.255	1363.068	1106.593
396.248	27.234	1362.252	1105.707
397.263	27.299	1361.294	1105.226
398.278	27.239	1359.731	1103.492
399.292	27.312	1358.777	1103.066
400.307	27.243	1358.514	1102.332
401.321	27.361	1357.538	1102.162
402.336	27.354	1356.376	1101.079
403.350	27.290	1355.371	1099.775
404.365	27.269	1354.611	1098.934
405.380	27.405	1353.591	1098.832
406.394	27.361	1352.847	1097.868
407.409	27.340	1352.196	1097.115
408.423	27.374	1351.522	1096.674
409.438	27.489	1351.074	1096.903
410.453	27.470	1350.383	1096.135
411.467	27.499	1349.011	1095.095
412.482	27.526	1348.847	1095.031
413.496	27.473	1348.272	1094.146
414.511	27.494	1347.679	1093.694
415.526	27.463	1347.012	1092.870
416.540	27.475	1345.991	1092.017
417.555	27.515	1345.350	1091.638
418.569	27.399	1345.090	1090.636
419.584	27.513	1344.460	1090.711
420.599	27.535	1344.061	1090.425
421.613	75.947	1321.868	1348.089
422.628	76.594	1318.658	1348.235
