DTS Sentinel unit serial number:	SN413079Multiplexer serial number:	ORYXHardware model number:	OX4-SRSoftware version number:	ORYX F/W v4.00 Oryx Data Collector v3.7.2.0data status	okinstallation	princeton_trtdifferential loss correction	single-endedforward channel	channel 4reverse channel	N/Adate	2019/09/11time	11:59:11forward acquisition time	60.00reverse acquisition time	0.00gamma	496.2192k internal	0.2288k external	0.2288temperature offset calibration	0.9969default loss term (dB/km)	0.3790temperature slope calibration	1.0000multiplexer offset coefficient	1.0000multiplexer slope coefficient	1.0000fibre end	0.00T internal ref (°C)	39.22T ext. ref 1 (°C)	0.21T ext. ref 2 (°C)	36.83length (m)	temperature (°C)	Stokes	anti-Stokes-747.200	800.000	-0.065	0.231
-746.185	-82.492	0.220	0.073
-745.171	254.975	-0.078	-0.137
-744.156	-200.000	0.089	0.476
-743.142	-200.000	0.014	-0.279
-742.127	543.818	0.023	-0.055
-741.112	236.693	-0.144	0.244
-740.098	800.000	0.052	0.169
-739.083	-142.335	0.317	-0.032
-738.069	-124.701	-0.021	-0.003
-737.054	800.000	-0.053	0.155
-736.039	-107.824	0.053	-0.012
-735.025	509.073	0.166	-0.396
-734.010	156.157	0.104	0.147
-732.996	-200.000	-0.014	0.135
-731.981	-27.260	-0.093	0.056
-730.966	-82.273	0.121	0.040
-729.952	-47.032	-0.220	0.110
-728.937	-22.463	0.277	-0.172
-727.923	-200.000	-0.027	0.338
-726.908	110.426	-0.116	0.143
-725.894	-60.867	0.346	0.150
-724.879	-81.525	-0.331	0.111
-723.864	262.237	0.107	-0.190
-722.850	-67.048	-0.140	0.057
-721.835	-11.456	0.044	-0.030
-720.821	102.264	-0.304	-0.364
-719.806	-78.977	0.256	0.089
-718.791	-118.061	-0.162	-0.030
-717.777	-75.058	0.415	-0.152
-716.762	237.582	0.179	0.305
-715.748	27.595	0.139	-0.120
-714.733	-200.000	-0.004	0.159
-713.718	800.000	-0.099	-0.441
-712.704	104.126	0.195	-0.235
-711.689	-120.465	0.049	-0.008
-710.675	-20.714	-0.055	-0.035
-709.660	800.000	0.040	0.171
-708.645	-157.651	0.144	0.009
-707.631	-200.000	-0.339	0.001
-706.616	-18.521	-0.125	-0.080
-705.602	-128.037	-0.087	0.013
-704.587	800.000	-0.075	-0.277
-703.572	331.172	-0.058	0.115
-702.558	740.225	0.037	0.100
-701.543	-188.805	-0.224	0.003
-700.529	186.281	-0.185	-0.282
-699.514	67.831	-0.083	0.087
-698.499	-113.325	-0.113	-0.023
-697.485	-200.000	-0.030	0.143
-696.470	800.000	0.045	-0.193
-695.456	190.597	-0.054	0.083
-694.441	-200.000	0.077	0.509
-693.426	5.273	-0.070	0.053
-692.412	59.261	0.135	-0.136
-691.397	-200.000	0.050	0.266
-690.383	-200.000	0.025	0.232
-689.368	800.000	-0.122	0.358
-688.354	52.272	-0.099	-0.096
-687.339	-21.897	-0.145	0.090
-686.324	195.852	-0.139	0.217
-685.310	-0.778	-0.134	-0.097
-684.295	-28.531	-0.485	-0.286
-683.281	12.152	0.178	0.140
-682.266	335.221	-0.007	0.014
-681.251	-200.000	0.017	-0.419
-680.237	137.087	-0.055	-0.073
-679.222	-185.124	-0.252	-0.004
-678.208	-15.630	-0.137	0.089
-677.193	237.142	-0.208	0.352
-676.178	-61.320	-0.095	-0.041
-675.164	-112.861	0.300	0.061
-674.149	-126.655	-0.249	-0.038
-673.135	364.911	-0.110	0.226
-672.120	-123.736	-0.195	-0.032
-671.105	13.050	-0.213	0.169
-670.091	-181.396	0.292	-0.006
-669.076	-197.232	0.323	-0.002
-668.062	-12.791	-0.253	-0.168
-667.047	-200.000	0.047	-0.247
-666.032	-140.072	0.298	-0.032
-665.018	303.083	0.174	0.330
-664.003	-160.503	0.129	-0.007
-662.989	415.135	-0.076	-0.165
-661.974	12.747	0.202	-0.160
-660.959	-200.000	-0.071	-0.411
-659.945	151.937	-0.077	0.108
-658.930	-200.000	-0.077	0.563
-657.916	120.776	-0.040	0.051
-656.901	-200.000	0.010	0.093
-655.886	-117.482	0.151	-0.028
-654.872	789.617	0.098	-0.275
-653.857	421.497	-0.099	-0.217
-652.843	5.550	0.143	-0.108
-651.828	-75.140	0.317	-0.116
-650.814	-200.000	0.044	-0.371
-649.799	5.132	0.176	0.132
-648.784	-169.044	-0.117	-0.004
-647.770	311.222	0.180	-0.345
-646.755	24.995	0.249	0.211
-645.741	458.690	0.106	-0.241
-644.726	292.605	-0.080	0.149
-643.711	-51.648	0.208	-0.099
-642.697	-140.989	-0.258	-0.027
-641.682	50.891	-0.106	-0.103
-640.668	-188.102	0.157	0.002
-639.653	87.860	-0.244	-0.276
-638.638	475.854	-0.041	-0.094
-637.624	379.542	-0.092	-0.193
-636.609	185.829	0.022	0.034
-635.595	-117.534	0.331	0.061
-634.580	55.664	0.175	0.173
-633.565	-200.000	-0.011	-0.293
-632.551	583.083	-0.066	-0.165
-631.536	13.719	0.073	0.058
-630.522	-200.000	0.031	0.000
-629.507	3.378	-0.163	0.121
-628.492	14.919	-0.129	-0.103
-627.478	70.694	-0.076	-0.080
-626.463	-91.900	0.118	0.034
-625.449	-34.936	0.305	-0.170
-624.434	-79.644	0.348	-0.120
-623.419	800.000	0.030	-0.124
-622.405	14.263	-0.290	-0.231
-621.390	-155.360	-0.332	0.022
-620.376	333.263	-0.100	0.198
-619.361	-59.765	-0.310	0.135
-618.346	384.894	-0.035	0.074
-617.332	-200.000	0.015	-0.222
-616.317	-200.000	-0.003	-0.307
-615.303	694.630	0.033	0.087
-614.288	-30.241	0.164	-0.095
-613.273	0.332	-0.052	-0.038
-612.259	46.195	0.293	-0.277
-611.244	133.072	0.155	-0.204
-610.230	131.425	-0.182	-0.239
-609.215	800.000	0.067	-0.207
-608.201	-200.000	-0.081	0.392
-607.186	16.018	-0.131	0.105
-606.171	-200.000	0.065	-0.470
-605.157	154.354	0.087	-0.122
-604.142	-19.070	-0.193	0.122
-603.128	800.000	-0.046	0.167
-602.113	800.000	0.040	-0.116
-601.098	-140.928	0.402	0.042
-600.084	-153.572	-0.336	0.024
-599.069	296.783	0.154	-0.288
-598.055	-11.255	0.313	0.210
-597.040	-150.015	0.046	-0.004
-596.025	-200.000	-0.039	-0.249
-595.011	-96.390	-0.218	0.059
-593.996	-108.602	-0.322	0.070
-592.982	686.213	-0.088	-0.234
-591.967	-200.000	-0.033	0.232
-590.952	-72.177	-0.272	0.103
-589.938	-44.680	-0.305	0.155
-588.923	78.208	-0.168	0.183
-587.909	-98.348	0.266	0.070
-586.894	568.830	-0.114	-0.283
-585.879	-200.000	-0.048	-0.314
-584.865	-54.810	0.283	-0.130
-583.850	15.319	0.092	0.074
-582.836	-144.341	-0.099	-0.009
-581.821	89.982	0.209	0.238
-580.806	800.000	-0.027	-0.100
-579.792	-129.550	0.416	-0.059
-578.777	-200.000	0.023	-0.216
-577.763	190.740	0.172	-0.264
-576.748	800.000	-0.044	0.151
-575.733	192.788	0.119	0.183
-574.719	138.039	-0.208	0.277
-573.704	-15.029	-0.106	0.069
-572.690	-48.343	0.070	0.034
-571.675	11.848	0.136	-0.106
-570.661	-200.000	-0.019	0.163
-569.646	29.901	0.108	-0.094
-568.631	-157.484	-0.178	0.011
-567.617	-200.000	-0.137	0.000
-566.602	296.279	0.097	-0.181
-565.588	-80.172	0.333	-0.113
-564.573	1.428	-0.242	-0.177
-563.558	540.334	-0.085	-0.206
-562.544	-33.169	0.135	0.076
-561.529	276.519	-0.065	-0.118
-560.515	-121.343	-0.357	0.061
-559.500	-0.458	0.195	-0.141
-558.485	-86.372	-0.163	-0.051
-557.471	-8.559	0.160	0.110
-556.456	800.000	-0.046	-0.138
-555.442	280.989	-0.135	0.246
-554.427	-84.582	-0.148	-0.048
-553.412	-62.499	-0.290	-0.123
-552.398	-200.000	-0.071	-0.435
-551.383	174.479	0.168	0.248
-550.369	-139.477	0.080	0.009
-549.354	-74.068	0.199	0.074
-548.339	3.660	-0.171	0.127
-547.325	-200.000	-0.027	0.123
-546.310	59.738	-0.068	-0.068
-545.296	-200.000	-0.040	-0.415
-544.281	-200.000	0.007	0.348
-543.266	-200.000	-0.020	-0.197
-542.252	262.451	0.085	0.150
-541.237	-34.819	-0.239	0.133
-540.223	-29.140	0.091	0.053
-539.208	-200.000	-0.021	-0.166
-538.193	-125.517	-0.116	-0.018
-537.179	307.393	-0.120	0.228
-536.164	-79.161	-0.145	-0.050
-535.150	-66.047	0.203	-0.083
-534.135	100.711	0.293	-0.347
-533.121	-110.370	-0.264	0.056
-532.106	-46.269	-0.199	-0.100
-531.091	-200.000	-0.019	0.234
-530.077	-6.553	0.320	0.222
-529.062	-82.925	0.104	0.034
-528.048	-29.882	0.250	0.145
-527.033	-75.143	-0.124	0.045
-526.018	-200.000	-0.007	-0.048
-525.004	66.398	-0.025	-0.026
-523.989	30.208	-0.288	-0.250
-522.975	336.316	0.038	-0.074
-521.960	-200.000	0.003	-0.054
-520.945	-47.460	-0.140	0.069
-519.931	-32.359	0.218	-0.124
-518.916	412.509	0.006	0.014
-517.902	-33.815	-0.157	-0.088
-516.887	70.558	0.071	-0.075
-515.872	-0.677	-0.059	0.042
-514.858	800.000	0.077	-0.242
-513.843	-63.601	0.246	0.103
-512.829	-0.925	-0.403	-0.290
-511.814	-65.633	0.095	-0.039
-510.799	-200.000	-0.013	0.087
-509.785	282.702	-0.233	-0.425
-508.770	-5.951	-0.141	-0.098
-507.756	226.996	0.032	-0.053
-506.741	70.870	-0.166	-0.175
-505.726	13.286	-0.199	-0.156
-504.712	-72.154	0.424	-0.160
-503.697	174.192	0.086	-0.127
-502.683	800.000	0.112	-0.395
-501.668	441.301	0.127	-0.283
-500.653	-87.992	0.040	0.012
-499.639	-40.074	0.124	0.066
-498.624	238.933	0.079	0.133
-497.610	346.618	0.227	0.454
-496.595	52.107	-0.284	-0.274
-495.581	-89.079	0.400	0.120
-494.566	-115.197	-0.229	0.044
-493.551	-156.340	-0.174	-0.011
-492.537	758.700	0.143	0.392
-491.522	285.045	-0.048	0.087
-490.508	-48.781	-0.387	-0.188
-489.493	-96.503	-0.042	-0.011
-488.478	-14.260	0.110	-0.072
-487.464	-77.597	0.196	0.069
-486.449	-26.289	0.063	-0.038
-485.435	800.000	0.047	0.154
-484.420	-52.227	-0.199	0.094
-483.405	22.205	0.279	-0.231
-482.391	-71.639	-0.160	0.061
-481.376	-90.864	-0.236	0.069
-480.362	-42.084	0.062	0.032
-479.347	-130.785	-0.028	0.004
-478.332	-113.058	-0.254	0.051
-477.318	800.000	0.017	-0.058
-476.303	-81.479	-0.075	0.025
-475.289	186.722	0.128	-0.194
-474.274	-200.000	0.011	0.207
-473.259	84.518	-0.345	0.383
-472.245	654.980	-0.034	-0.087
-471.230	-151.669	-0.254	0.019
-470.216	-56.811	-0.218	-0.098
-469.201	245.219	-0.086	0.147
-468.186	-123.293	0.154	0.025
-467.172	-81.000	-0.113	-0.038
-466.157	110.732	-0.123	-0.150
-465.143	800.000	0.087	0.314
-464.128	800.000	0.077	0.333
-463.113	73.458	-0.112	0.119
-462.099	-200.000	-0.047	0.304
-461.084	-200.000	0.019	-0.162
-460.070	-131.947	0.398	-0.053
-459.055	-200.000	-0.037	0.339
-458.040	-30.417	-0.270	0.155
-457.026	171.779	-0.132	0.192
-456.011	-152.383	0.193	0.014
-454.997	98.722	-0.061	-0.071
-453.982	62.678	0.115	-0.117
-452.968	272.195	0.135	0.241
-451.953	327.145	-0.230	0.447
-450.938	-200.000	-0.018	0.100
-449.924	405.830	-0.111	-0.237
-448.909	-98.623	0.081	-0.021
-447.895	-69.314	0.130	0.051
-446.880	-200.000	0.021	-0.280
-445.865	-200.000	-0.004	-0.080
-444.851	-5.343	0.224	0.156
-443.836	800.000	-0.065	0.214
-442.822	-200.000	0.003	0.150
-441.807	92.916	-0.101	-0.116
-440.792	-55.376	0.122	0.056
-439.778	261.769	0.249	0.438
-438.763	-200.000	-0.126	-0.567
-437.749	355.504	-0.117	-0.237
-436.734	-167.075	-0.389	0.016
-435.719	160.915	-0.094	-0.133
-434.705	289.263	-0.049	-0.090
-433.690	699.342	0.136	-0.363
-432.676	-0.069	0.045	-0.033
-431.661	67.257	-0.119	-0.122
-430.646	-37.052	0.043	-0.023
-429.632	342.459	-0.042	-0.083
-428.617	-3.997	-0.247	-0.174
-427.603	227.784	0.069	-0.114
-426.588	800.000	0.081	0.266
-425.573	-101.755	-0.250	0.061
-424.559	347.535	0.128	-0.255
-423.544	-85.788	0.565	0.177
-422.530	-56.573	0.185	0.083
-421.515	800.000	-0.042	0.182
-420.500	-200.000	0.055	0.381
-419.486	-200.000	0.052	0.233
-418.471	161.042	-0.039	-0.055
-417.457	41.550	-0.126	0.115
-416.442	-200.000	-0.006	-0.135
-415.428	342.936	0.094	0.186
-414.413	57.272	0.172	-0.170
-413.398	-200.000	0.029	0.381
-412.384	800.000	-0.081	0.272
-411.369	282.297	0.125	-0.227
-410.355	248.006	0.070	-0.120
-409.340	-200.000	0.027	0.206
-408.325	-200.000	0.002	-0.230
-407.311	147.626	0.127	0.173
-406.296	166.775	0.243	0.348
-405.282	-114.716	-0.422	-0.082
-404.267	-50.902	-0.074	-0.035
-403.252	219.359	-0.171	0.277
-402.238	800.000	-0.115	-0.392
-401.223	-200.000	-0.010	-0.259
-400.209	568.331	-0.052	-0.127
-399.194	137.879	-0.153	-0.203
-398.179	-200.000	-0.020	-0.129
-397.165	800.000	0.070	0.200
-396.150	-200.000	-0.017	-0.086
-395.136	-115.796	-0.337	-0.064
-394.121	446.032	-0.209	-0.464
-393.106	-35.293	-0.111	0.061
-392.092	-88.008	0.425	-0.129
-391.077	26.899	0.382	-0.324
-390.063	-36.163	-0.173	-0.095
-389.048	-47.270	0.382	-0.188
-388.033	183.003	0.087	-0.130
-387.019	-184.854	0.082	0.001
-386.004	-88.736	0.351	0.106
-384.990	645.564	-0.110	-0.284
-383.975	23.226	-0.083	0.069
-382.960	-15.683	0.130	-0.084
-381.946	-64.195	0.061	-0.025
-380.931	-134.883	0.112	0.014
-379.917	13.357	-0.362	0.284
-378.902	-13.362	-0.256	0.168
-377.888	800.000	-0.067	0.250
-376.873	800.000	-0.012	0.044
-375.858	31.436	0.105	0.091
-374.844	-44.043	0.021	0.011
-373.829	249.725	-0.123	-0.212
-372.815	401.501	0.029	0.062
-371.800	-200.000	-0.001	0.137
-370.785	191.442	-0.088	0.134
-369.771	10.550	-0.051	0.039
-368.756	-16.815	-0.119	0.076
-367.742	-65.277	-0.406	-0.165
-366.727	-71.473	-0.396	-0.150
-365.712	-114.434	-0.293	-0.057
-364.698	260.107	-0.050	0.088
-363.683	86.969	-0.150	0.168
-362.669	-30.492	-0.105	-0.060
-361.654	-200.000	-0.067	0.306
-360.639	4.356	0.174	-0.129
-359.625	230.615	-0.148	0.244
-358.610	800.000	0.089	-0.259
-357.596	-200.000	0.026	0.195
-356.581	274.867	-0.084	-0.150
-355.566	-129.514	0.284	-0.040
-354.552	-200.000	-0.009	-0.065
-353.537	-200.000	-0.026	-0.115
-352.523	-7.169	0.058	0.040
-351.508	-152.339	-0.080	0.006
-350.493	-122.320	0.294	-0.049
-349.479	78.378	0.153	-0.165
-348.464	322.457	0.126	0.242
-347.450	217.525	-0.145	-0.234
-346.435	-104.450	0.317	-0.074
-345.420	140.117	-0.088	0.117
-344.406	41.897	-0.096	-0.088
-343.391	-200.000	-0.009	0.056
-342.377	-76.436	-0.080	0.028
-341.362	-200.000	0.038	-0.221
-340.348	-80.459	-0.358	-0.120
-339.333	800.000	0.039	0.157
-338.318	-96.431	-0.147	0.039
-337.304	-24.156	0.105	0.063
-336.289	-200.000	-0.015	-0.084
-335.275	402.706	0.122	0.259
-334.260	572.043	-0.125	0.307
-333.245	375.195	0.054	0.111
-332.231	-42.534	0.210	0.108
-331.216	-200.000	0.013	-0.124
-330.202	-35.811	0.201	-0.110
-329.187	800.000	0.145	0.510
-328.172	43.263	-0.107	0.099
-327.158	152.835	0.037	-0.051
-326.143	-174.173	0.193	-0.006
-325.129	110.970	0.042	-0.050
-324.114	800.000	-0.053	-0.157
-323.099	366.328	-0.057	-0.117
-322.085	-53.057	-0.153	0.071
-321.070	-118.067	0.119	0.021
-320.056	214.532	-0.172	0.275
-319.041	-47.064	0.129	0.064
-318.026	107.475	-0.227	0.272
-317.012	290.594	-0.211	0.386
-315.997	800.000	0.033	0.103
-314.983	9.589	0.239	0.183
-313.968	-106.145	-0.258	0.058
-312.953	99.409	0.093	0.108
-311.939	72.638	-0.093	-0.098
-310.924	-81.183	0.170	-0.057
-309.910	-158.822	-0.023	0.001
-308.895	85.753	0.109	0.121
-307.880	524.590	-0.139	-0.329
-306.866	-126.547	-0.293	-0.044
-305.851	-200.000	-0.039	0.185
-304.837	-200.000	-0.089	-0.466
-303.822	-200.000	0.021	-0.308
-302.807	-133.610	0.308	-0.039
-301.793	8.356	0.257	0.195
-300.778	18.234	-0.191	-0.154
-299.764	-100.885	-0.446	-0.111
-298.749	800.000	0.039	0.131
-297.735	-2.120	-0.110	0.078
-296.720	-200.000	-0.020	0.101
-295.705	-114.052	0.059	-0.012
-294.691	108.630	-0.258	0.310
-293.676	126.326	0.037	0.048
-292.662	-121.205	0.298	0.050
-291.647	48.842	0.156	0.148
-290.632	19.198	-0.167	-0.135
-289.618	22.282	0.027	-0.022
-288.603	29.376	-0.092	-0.079
-287.589	-81.409	0.293	-0.097
-286.574	113.918	0.074	0.091
-285.559	-106.229	-0.163	0.037
-284.545	-18.761	0.135	0.084
-283.530	-68.523	0.283	0.110
-282.516	253.907	0.043	0.074
-281.501	213.006	0.030	-0.047
-280.486	82.241	0.256	0.279
-279.472	-60.100	0.121	0.052
-278.457	-168.103	-0.278	0.011
-277.443	-103.186	-0.211	-0.050
-276.428	89.023	0.093	-0.105
-275.413	90.890	-0.236	0.267
-274.399	-153.994	0.237	-0.016
-273.384	-70.059	-0.064	-0.025
-272.370	613.863	0.045	0.113
-271.355	55.750	0.071	0.069
-270.340	-200.000	0.000	0.056
-269.326	-55.609	0.160	-0.072
-268.311	51.410	0.128	-0.122
-267.297	55.376	-0.220	0.214
-266.282	-57.958	0.096	-0.042
-265.267	-4.151	-0.023	0.016
-264.253	-57.463	0.169	-0.075
-263.238	257.023	0.054	-0.093
-262.224	-82.468	-0.251	0.082
-261.209	-200.000	0.020	0.159
-260.195	-126.139	-0.240	-0.036
-259.180	-34.819	0.070	-0.038
-258.165	-200.000	0.001	0.011
-257.151	-72.063	0.177	0.066
-256.136	-105.593	-0.165	-0.038
-255.122	-200.000	-0.022	-0.284
-254.107	-200.000	-0.028	0.166
-253.092	-108.749	0.323	0.070
-252.078	800.000	0.050	0.172
-251.063	-73.484	0.121	-0.045
-250.049	-200.000	-0.034	-0.345
-249.034	-60.199	-0.054	-0.023
-248.019	180.187	0.187	-0.276
-247.005	147.530	-0.070	-0.094
-245.990	6.053	0.151	0.112
-244.976	-200.000	0.025	-0.179
-243.961	-162.146	-0.292	0.015
-242.946	104.836	0.103	-0.122
-241.932	265.752	-0.146	-0.256
-240.917	23.059	0.064	-0.053
-239.903	108.038	-0.054	0.065
-238.888	-200.000	0.033	-0.338
-237.873	-67.805	0.054	0.021
-236.859	-39.508	0.488	0.257
-235.844	-48.917	-0.203	0.098
-234.830	800.000	-0.041	-0.128
-233.815	-200.000	-0.005	0.122
-232.800	-151.373	-0.130	0.010
-231.786	-66.326	0.216	-0.086
-230.771	5.364	0.256	-0.190
-229.757	460.011	-0.137	-0.307
-228.742	-161.169	0.391	-0.020
-227.727	800.000	-0.029	0.089
-226.713	-200.000	-0.028	-0.267
-225.698	-152.147	0.247	-0.018
-224.684	-84.604	-0.159	0.050
-223.669	344.126	0.057	-0.112
-222.655	-200.000	-0.024	0.129
-221.640	-200.000	-0.001	-0.193
-220.625	-61.891	-0.303	-0.127
-219.611	-174.523	-0.271	-0.008
-218.596	184.197	-0.163	-0.242
-217.582	800.000	-0.057	0.194
-216.567	168.232	0.139	0.198
-215.552	-95.956	0.332	0.089
-214.538	239.277	0.100	-0.166
-213.523	614.831	-0.151	0.380
-212.509	-113.122	-0.200	-0.040
-211.494	-200.000	-0.056	0.285
-210.479	24.013	0.120	-0.100
-209.465	-110.562	0.140	0.029
-208.450	-51.482	0.422	0.198
-207.436	-1.145	0.154	-0.109
-206.421	-200.000	0.009	0.082
-205.406	800.000	0.033	-0.101
-204.392	211.130	-0.115	-0.181
-203.377	401.394	0.161	0.340
-202.363	800.000	0.017	-0.068
-201.348	142.513	0.214	0.285
-200.333	198.988	0.226	0.347
-199.319	-200.000	0.029	0.198
-198.304	95.852	0.210	0.241
-197.290	69.156	0.075	-0.077
-196.275	-118.710	-0.351	-0.062
-195.260	-61.516	-0.202	0.085
-194.246	-200.000	0.021	0.094
-193.231	-114.556	0.322	-0.062
-192.217	-26.840	0.174	0.102
-191.202	207.802	-0.224	-0.351
-190.187	-200.000	0.045	0.255
-189.173	259.200	0.092	-0.159
-188.158	-19.035	-0.041	-0.026
-187.144	-200.000	-0.017	0.110
-186.129	-86.627	-0.139	0.043
-185.114	334.823	-0.031	0.060
-184.100	-79.958	-0.176	-0.059
-183.085	-35.039	0.166	0.091
-182.071	-200.000	-0.051	0.300
-181.056	239.529	0.182	-0.303
-180.042	114.774	0.083	0.101
-179.027	-200.000	-0.014	0.168
-178.012	-200.000	-0.050	0.364
-176.998	-96.429	-0.242	0.064
-175.983	104.301	-0.170	0.201
-174.969	143.898	0.073	0.098
-173.954	-87.143	-0.103	-0.031
-172.939	800.000	0.022	-0.073
-171.925	10.632	0.119	0.091
-170.910	140.902	-0.304	0.403
-169.896	225.029	0.154	-0.250
-168.881	-200.000	-0.016	-0.211
-167.866	291.650	0.114	0.209
-166.852	-200.000	-0.054	0.000
-165.837	63.217	0.206	-0.207
-164.823	-200.000	0.023	0.135
-163.808	4.652	0.110	0.081
-162.793	-107.816	-0.026	-0.006
-161.779	556.047	0.053	0.129
-160.764	108.456	-0.084	0.100
-159.750	-88.025	0.138	-0.041
-158.735	323.158	-0.128	0.244
-157.720	312.823	-0.122	-0.229
-156.706	-146.519	0.292	-0.025
-155.691	-68.568	-0.221	0.086
-154.677	-127.747	-0.062	0.009
-153.662	-89.859	-0.529	-0.155
-152.647	-200.000	0.047	0.287
-151.633	-170.963	0.438	0.015
-150.618	36.234	-0.284	-0.251
-149.604	-73.296	-0.166	-0.061
-148.589	193.703	-0.104	-0.158
-147.574	800.000	0.095	-0.331
-146.560	-135.923	-0.168	-0.020
-145.545	405.544	0.087	-0.184
-144.531	571.707	0.161	-0.392
-143.516	427.825	-0.151	-0.326
-142.502	-21.180	-0.383	0.235
-141.487	-136.121	-0.377	0.044
-140.472	-137.573	-0.211	0.024
-139.458	-150.232	0.077	-0.006
-138.443	-68.249	0.325	0.127
-137.429	-75.339	0.027	-0.010
-136.414	-119.285	0.200	-0.035
-135.399	43.286	-0.053	0.049
-134.385	-72.450	-0.297	0.110
-133.370	340.500	-0.085	-0.165
-132.356	-135.271	0.129	-0.016
-131.341	-200.000	-0.031	0.166
-130.326	310.802	0.227	0.425
-129.312	605.295	0.087	0.218
-128.297	116.441	-0.072	-0.088
-127.283	-200.000	-0.011	-0.229
-126.268	-77.406	-0.290	-0.101
-125.253	-200.000	0.023	0.119
-124.239	102.060	-0.184	0.215
-123.224	285.551	0.073	-0.132
-122.210	418.123	0.156	-0.334
-121.195	-115.420	-0.100	0.019
-120.180	-5.904	0.271	-0.186
-119.166	29.744	-0.224	-0.191
-118.151	-200.000	0.006	-0.287
-117.137	-16.365	-0.222	-0.141
-116.122	-25.400	0.118	0.070
-115.107	-2.532	0.221	0.155
-114.093	-200.000	-0.033	-0.406
-113.078	-98.466	0.107	-0.027
-112.064	-38.082	0.087	0.046
-111.049	-200.000	0.176	-0.000
-110.034	-200.000	-0.019	0.101
-109.020	239.529	0.056	0.093
-108.005	800.000	-0.165	0.615
-106.991	-46.032	-0.131	-0.065
-105.976	135.436	0.096	0.124
-104.962	-109.520	-0.249	-0.053
-103.947	-200.000	0.040	-0.185
-102.932	800.000	0.045	0.138
-101.918	94.270	0.137	0.155
-100.903	-126.818	0.214	0.032
-99.889	-7.557	0.222	-0.150
-98.874	782.996	0.095	-0.260
-97.859	-129.109	0.390	0.054
-96.845	-94.948	0.359	-0.097
-95.830	358.552	-0.143	-0.286
-94.816	283.637	0.036	0.064
-93.801	-9.404	-0.179	0.120
-92.786	-138.952	-0.433	-0.047
-91.772	733.574	0.158	0.423
-90.757	81.620	-0.126	0.136
-89.743	20.851	0.224	-0.181
-88.728	7.756	-0.361	-0.270
-87.713	93.275	0.329	0.372
-86.699	18.709	0.325	-0.260
-85.684	311.632	-0.067	0.126
-84.670	60.871	0.210	-0.208
-83.655	78.502	0.081	-0.087
-82.640	-24.393	0.321	-0.191
-81.626	-164.651	-0.182	-0.008
-80.611	191.213	-0.143	-0.215
-79.597	-200.000	-0.019	-0.150
-78.582	62.214	-0.118	-0.118
-77.567	133.101	-0.114	-0.147
-76.553	-11.258	-0.326	-0.215
-75.538	-118.681	0.297	0.052
-74.524	85.765	0.177	-0.195
-73.509	153.676	0.111	-0.151
-72.494	-118.555	-0.233	0.041
-71.480	163.764	-0.040	0.056
-70.465	-66.756	0.161	-0.064
-69.451	800.000	-0.055	0.184
-68.436	-46.730	-0.323	0.158
-67.422	-200.000	-0.002	0.234
-66.407	-72.509	0.209	-0.077
-65.392	-200.000	0.025	-0.165
-64.378	196.016	-0.080	0.121
-63.363	-200.000	0.021	-0.189
-62.349	-57.343	0.303	0.133
-61.334	-2.843	-1.026	-0.716
-60.319	621.943	0.234	0.587
-59.305	-200.000	0.001	-0.508
-58.290	136.147	0.730	0.950
-57.276	371.476	0.759	1.538
-56.261	-200.000	78.408	494.708
-55.246	564.519	1363.742	3298.830
-54.232	177.733	2613.786	3803.521
-53.217	114.872	2400.543	2922.639
-52.203	46.059	2136.617	1974.456
-51.188	41.009	2042.178	1840.542
-50.173	39.361	2022.392	1807.515
-49.159	51.757	2062.422	1958.335
-48.144	55.991	2081.729	2015.799
-47.130	41.913	2047.587	1853.498
-46.115	39.259	2035.965	1818.418
-45.100	39.215	2032.975	1815.264
-44.086	39.076	2030.978	1812.131
-43.071	39.110	2028.029	1809.734
-42.057	39.065	2026.252	1807.670
-41.042	39.144	2024.109	1806.410
-40.027	39.129	2022.374	1804.655
-39.013	39.071	2020.336	1802.232
-37.998	39.051	2018.710	1800.522
-36.984	39.137	2017.257	1799.942
-35.969	39.204	2015.029	1798.493
-34.954	39.170	2012.941	1796.251
-33.940	39.201	2011.496	1795.176
-32.925	39.307	2009.746	1794.508
-31.911	39.232	2008.107	1792.286
-30.896	39.181	2006.824	1790.612
-29.881	39.205	2005.203	1789.311
-28.867	39.266	2003.212	1788.013
-27.852	39.227	2000.849	1785.479
-26.838	39.260	1999.499	1784.510
-25.823	39.227	1998.101	1782.891
-24.809	39.244	1996.232	1781.305
-23.794	39.317	1994.142	1780.030
-22.779	39.188	1992.430	1777.268
-21.765	39.249	1990.790	1776.282
-20.750	39.262	1988.698	1774.463
-19.736	39.318	1987.364	1773.704
-18.721	39.349	1985.393	1772.154
-17.706	39.248	1983.905	1769.845
-16.692	39.144	1982.850	1767.901
-15.677	39.266	1980.541	1766.870
-14.663	39.368	1978.494	1765.883
-13.648	39.277	1977.604	1764.206
-12.633	39.216	1976.985	1763.038
-11.619	39.200	1975.351	1761.363
-10.604	39.199	1973.806	1759.914
-9.590	39.182	1972.647	1758.659
-8.575	39.224	1970.896	1757.403
-7.560	39.221	1969.862	1756.379
-6.546	39.258	1968.615	1755.532
-5.531	39.224	1967.066	1753.780
-4.517	39.265	1965.614	1752.778
-3.502	39.269	1964.366	1751.635
-2.487	39.224	1963.193	1750.112
-1.473	39.208	1962.680	1749.442
-0.458	39.376	1958.448	1747.093
0.556	37.772	1939.692	1724.214
1.571	34.274	1920.625	1676.391
2.586	30.232	1944.400	1660.889
3.600	29.101	1982.149	1682.658
4.615	27.993	1978.054	1668.913
5.629	20.669	1869.280	1513.538
6.644	7.597	1736.310	1299.440
7.659	0.849	1692.557	1212.639
8.673	0.368	1688.014	1205.432
9.688	0.230	1687.252	1203.675
10.702	0.219	1685.047	1201.910
11.717	0.013	1682.274	1198.180
12.731	0.356	1682.036	1200.636
13.746	8.005	1700.933	1275.448
14.761	19.205	1727.006	1385.465
15.775	23.629	1733.631	1426.290
16.790	23.680	1733.008	1426.058
17.804	23.758	1731.970	1425.706
18.819	23.637	1731.262	1424.024
19.834	23.786	1730.638	1424.583
20.848	23.983	1730.472	1425.895
21.863	24.090	1728.788	1425.240
22.877	23.971	1728.738	1424.115
23.892	24.004	1727.467	1423.209
24.907	24.061	1725.910	1422.253
25.921	24.091	1725.029	1421.645
26.936	24.091	1723.810	1420.513
27.950	24.054	1723.177	1419.569
28.965	24.087	1722.501	1419.153
29.980	24.051	1721.920	1418.265
30.994	24.073	1720.428	1417.081
32.009	24.014	1718.952	1415.270
33.023	23.984	1718.341	1414.409
34.038	23.952	1717.542	1413.371
35.053	23.991	1716.387	1412.600
36.067	24.031	1715.151	1411.780
37.082	24.058	1714.142	1411.038
38.096	24.002	1712.941	1409.481
39.111	24.056	1712.398	1409.334
40.126	24.059	1711.200	1408.244
41.140	24.042	1710.604	1407.496
42.155	24.005	1709.421	1406.106
43.169	23.951	1708.582	1404.867
44.184	24.036	1707.269	1404.334
45.199	24.013	1706.226	1403.167
46.213	23.990	1705.207	1402.030
47.228	24.042	1703.839	1401.188
48.242	23.965	1702.661	1399.485
49.257	24.031	1701.222	1398.703
50.271	24.048	1700.060	1397.755
51.286	24.034	1698.849	1396.526
52.301	24.026	1697.937	1395.594
53.315	23.960	1696.904	1394.099
54.330	23.963	1695.346	1392.718
55.344	24.035	1693.658	1391.770
56.359	24.053	1692.431	1390.781
57.374	24.070	1691.039	1389.651
58.388	24.046	1690.089	1388.558
59.403	24.085	1689.071	1387.902
60.417	24.119	1687.558	1386.797
61.432	24.023	1686.877	1385.368
62.447	24.046	1685.594	1384.373
63.461	24.000	1684.781	1383.229
64.476	23.987	1683.700	1382.114
65.490	24.023	1682.604	1381.371
66.505	24.077	1681.337	1380.631
67.520	24.018	1681.139	1379.888
68.534	24.064	1679.554	1378.820
69.549	23.969	1679.016	1377.521
70.563	24.066	1676.986	1376.485
71.578	24.018	1676.282	1375.416
72.593	24.091	1675.160	1374.933
73.607	24.075	1674.288	1373.971
74.622	24.165	1672.701	1373.241
75.636	24.101	1672.246	1372.254
76.651	24.066	1671.290	1371.080
77.666	24.022	1670.984	1370.368
78.680	24.083	1670.192	1370.067
79.695	23.998	1668.949	1368.274
80.709	23.984	1668.520	1367.689
81.724	24.070	1667.348	1367.274
82.739	24.147	1666.370	1366.939
83.753	24.138	1664.696	1365.375
84.768	24.052	1663.859	1363.909
85.782	23.993	1663.176	1362.774
86.797	24.068	1662.530	1362.701
87.812	24.063	1661.736	1361.891
88.826	24.055	1660.643	1360.815
89.841	24.106	1659.380	1360.048
90.855	24.096	1658.847	1359.413
91.870	24.079	1657.510	1358.070
92.884	24.120	1656.654	1357.562
93.899	24.079	1655.326	1356.042
94.914	24.097	1653.873	1354.864
95.928	24.095	1652.799	1353.851
96.943	24.077	1652.258	1353.150
97.957	24.096	1650.604	1351.822
98.972	24.079	1649.405	1350.592
99.987	24.065	1647.953	1349.177
101.001	24.125	1646.509	1348.326
102.016	24.132	1644.633	1346.726
103.030	24.104	1643.431	1345.414
104.045	24.019	1642.429	1343.834
105.060	24.049	1641.179	1342.915
106.074	24.059	1640.261	1342.125
107.089	24.076	1638.742	1340.886
108.103	24.100	1637.635	1340.041
109.118	24.091	1637.051	1339.378
110.133	24.100	1635.416	1337.991
111.147	24.120	1633.940	1336.816
112.162	24.146	1633.149	1336.244
113.176	24.129	1631.554	1334.693
114.191	24.198	1630.365	1334.117
115.206	24.207	1629.227	1333.141
116.220	24.257	1627.958	1332.356
117.235	24.194	1626.762	1330.786
118.249	24.168	1625.427	1329.387
119.264	24.153	1624.427	1328.335
120.279	24.130	1623.741	1327.490
121.293	24.168	1622.636	1326.749
122.308	24.180	1621.325	1325.652
123.322	24.225	1619.646	1324.497
124.337	24.200	1618.532	1323.280
125.352	24.214	1617.273	1322.238
126.366	24.238	1616.545	1321.701
127.381	24.223	1615.462	1320.591
128.395	24.199	1614.757	1319.719
129.410	24.262	1613.511	1319.053
130.424	24.202	1612.788	1317.898
131.439	24.272	1611.260	1317.050
132.454	24.219	1609.887	1315.419
133.468	24.226	1608.418	1314.152
134.483	24.212	1607.196	1312.939
135.497	24.248	1605.674	1311.846
136.512	24.252	1604.904	1311.128
137.527	24.290	1603.631	1310.252
138.541	24.328	1602.267	1309.298
139.556	24.294	1601.427	1308.249
140.570	24.273	1600.051	1306.854
141.585	24.273	1598.727	1305.657
142.600	24.302	1597.515	1304.760
143.614	24.235	1596.835	1303.606
144.629	24.184	1595.584	1302.096
145.643	24.231	1594.332	1301.303
146.658	24.216	1593.219	1300.168
147.673	24.174	1591.931	1298.696
148.687	24.166	1590.950	1297.717
149.702	24.232	1589.890	1297.223
150.716	24.217	1588.024	1295.478
151.731	24.201	1586.889	1294.318
152.746	24.192	1586.146	1293.532
153.760	24.191	1584.535	1292.095
154.775	24.222	1583.330	1291.228
155.789	24.186	1582.646	1290.290
156.804	24.309	1581.329	1289.992
157.819	24.304	1579.976	1288.743
158.833	24.209	1579.423	1287.491
159.848	24.175	1578.323	1286.234
160.862	24.246	1577.038	1285.585
161.877	24.241	1576.310	1284.838
162.892	24.329	1575.147	1284.411
163.906	24.347	1574.632	1284.011
164.921	24.336	1573.725	1283.080
165.935	24.279	1572.759	1281.767
166.950	24.326	1571.861	1281.258
167.964	24.350	1570.402	1280.127
168.979	24.432	1569.231	1279.651
169.994	24.353	1568.480	1278.359
171.008	24.441	1567.585	1278.141
172.023	24.373	1566.779	1276.888
173.037	24.397	1565.830	1276.169
174.052	24.335	1564.525	1274.550
175.067	24.430	1563.504	1274.288
176.081	24.281	1562.948	1272.659
177.096	24.381	1561.756	1272.284
178.110	24.365	1560.460	1271.008
179.125	24.278	1559.823	1269.754
180.140	24.372	1558.927	1269.584
181.154	24.310	1558.269	1268.493
182.169	24.362	1556.850	1267.591
183.183	24.394	1555.576	1266.674
184.198	24.342	1555.044	1265.756
185.213	24.414	1554.164	1265.439
186.227	24.346	1553.506	1264.308
187.242	24.486	1552.608	1264.457
188.256	24.440	1551.979	1263.506
189.271	24.435	1551.023	1262.585
190.286	24.456	1550.040	1261.819
191.300	24.420	1549.232	1260.795
192.315	24.501	1547.940	1260.207
193.329	24.413	1547.010	1258.715
194.344	24.413	1546.474	1258.169
195.359	24.489	1545.367	1257.690
196.373	24.515	1544.831	1257.324
197.388	24.470	1544.044	1256.261
198.402	24.439	1542.745	1254.876
199.417	24.352	1541.590	1253.214
200.432	24.360	1541.143	1252.789
201.446	24.548	1539.857	1252.955
202.461	24.489	1538.955	1251.697
203.475	24.515	1538.282	1251.224
204.490	24.400	1538.133	1250.180
205.504	24.414	1536.691	1248.998
206.519	24.422	1535.902	1248.306
207.534	24.471	1535.178	1247.949
208.548	24.536	1534.498	1247.739
209.563	24.518	1533.060	1246.332
210.577	24.495	1532.463	1245.579
211.592	24.593	1531.210	1245.128
212.607	24.555	1530.696	1244.337
213.621	24.510	1530.454	1243.720
214.636	24.592	1529.194	1243.153
215.650	24.546	1528.804	1242.405
216.665	24.593	1527.512	1241.576
217.680	24.586	1526.647	1240.714
218.694	24.502	1526.176	1239.636
219.709	24.606	1524.985	1239.283
220.723	24.681	1523.864	1238.783
221.738	24.605	1522.896	1237.358
222.753	24.608	1522.384	1236.853
223.767	24.473	1521.873	1235.392
224.782	24.578	1520.702	1235.057
225.796	24.529	1519.926	1233.983
226.811	24.568	1519.420	1233.732
227.826	24.599	1518.703	1233.252
228.840	24.619	1517.811	1232.560
229.855	24.681	1517.235	1232.411
230.869	24.691	1515.988	1231.357
231.884	24.640	1514.980	1230.079
232.899	24.655	1514.075	1229.333
233.913	24.645	1513.232	1228.472
234.928	24.533	1512.076	1226.661
235.942	24.704	1510.948	1226.806
236.957	24.723	1510.143	1226.174
237.972	24.800	1508.695	1225.419
238.986	24.652	1507.736	1223.520
240.001	24.647	1507.004	1222.783
241.015	24.789	1505.793	1222.660
242.030	24.721	1505.121	1221.543
243.045	24.797	1503.984	1221.035
244.059	24.769	1502.999	1219.932
245.074	24.837	1502.429	1219.827
246.088	24.740	1502.006	1218.712
247.103	24.901	1500.590	1218.552
248.117	24.823	1500.092	1217.508
249.132	24.817	1498.914	1216.404
250.147	24.849	1498.776	1216.400
251.161	24.911	1497.881	1215.993
252.176	24.972	1496.955	1215.547
253.190	24.939	1496.444	1214.801
254.205	24.971	1495.491	1214.131
255.220	24.958	1494.500	1213.135
256.234	24.849	1494.210	1212.050
257.249	24.934	1493.160	1211.670
258.263	24.951	1492.576	1211.206
259.278	24.898	1491.508	1209.870
260.293	24.938	1490.788	1209.450
261.307	24.953	1490.032	1208.832
262.322	24.895	1489.459	1207.870
263.336	24.953	1488.920	1207.718
264.351	25.022	1487.067	1206.567
265.366	25.046	1486.337	1206.033
266.380	25.027	1485.637	1205.228
267.395	25.003	1484.491	1204.034
268.409	24.999	1484.227	1203.685
269.424	24.997	1483.258	1202.778
270.439	24.905	1482.262	1201.249
271.453	25.051	1480.968	1201.073
272.468	25.018	1480.629	1200.471
273.482	25.007	1479.838	1199.650
274.497	25.024	1478.927	1198.913
275.512	25.015	1478.062	1198.052
276.526	25.080	1477.368	1197.817
277.541	25.088	1476.615	1197.150
278.555	25.060	1475.785	1196.188
279.570	25.107	1474.868	1195.652
280.585	25.132	1473.604	1194.684
281.599	25.099	1473.467	1194.248
282.614	25.017	1472.778	1193.040
283.628	25.051	1471.210	1191.892
284.643	25.086	1470.023	1191.059
285.657	25.119	1469.708	1190.916
286.672	25.065	1468.730	1189.660
287.687	25.146	1467.790	1189.327
288.701	25.086	1467.172	1188.326
289.716	25.160	1466.029	1187.786
290.730	25.185	1465.472	1187.391
291.745	25.137	1464.805	1186.427
292.760	25.172	1463.847	1185.779
293.774	25.206	1462.611	1184.896
294.789	25.284	1461.341	1184.282
295.803	25.281	1461.194	1184.038
296.818	25.347	1460.531	1183.827
297.833	25.293	1459.782	1182.764
298.847	25.233	1458.747	1181.424
299.862	25.261	1457.982	1180.885
300.876	25.277	1457.074	1180.151
301.891	25.279	1456.048	1179.230
302.906	25.319	1455.474	1178.917
303.920	25.386	1455.215	1179.047
304.935	25.360	1454.556	1178.234
305.949	25.311	1453.708	1177.125
306.964	25.273	1452.988	1176.185
307.979	25.289	1451.908	1175.312
308.993	25.325	1451.143	1174.824
310.008	25.355	1450.351	1174.276
311.022	25.345	1449.148	1173.137
312.037	25.368	1448.372	1172.554
313.052	25.357	1447.364	1171.565
314.066	25.413	1446.094	1170.792
315.081	25.414	1445.078	1169.878
316.095	25.501	1444.377	1169.773
317.110	25.475	1443.587	1168.858
318.125	25.499	1442.714	1168.201
319.139	25.406	1441.789	1166.749
320.154	25.463	1440.926	1166.313
321.168	25.463	1439.920	1165.397
322.183	25.462	1438.968	1164.518
323.197	25.527	1438.390	1164.366
324.212	25.524	1437.647	1163.646
325.227	25.485	1436.753	1162.566
326.241	25.424	1436.490	1161.857
327.256	25.608	1434.911	1161.662
328.270	25.620	1434.302	1161.143
329.285	25.557	1433.627	1160.087
330.300	25.548	1432.794	1159.256
331.314	25.626	1432.452	1159.379
332.329	25.602	1431.324	1158.206
333.343	25.589	1430.483	1157.345
334.358	25.665	1429.758	1157.144
335.373	25.599	1429.010	1156.011
336.387	25.772	1428.113	1156.294
337.402	25.574	1428.164	1154.957
338.416	25.760	1427.206	1155.274
339.431	25.692	1426.642	1154.282
340.446	25.681	1426.038	1153.618
341.460	25.661	1425.231	1152.737
342.475	25.744	1423.883	1152.078
343.489	25.756	1423.119	1151.434
344.504	25.753	1422.015	1150.420
345.519	25.749	1420.936	1149.420
346.533	25.835	1419.774	1148.922
347.548	25.848	1419.175	1148.421
348.562	25.847	1418.607	1147.851
349.577	25.857	1417.657	1147.046
350.592	25.777	1417.506	1146.315
351.606	25.775	1416.283	1145.211
352.621	25.765	1414.982	1143.997
353.635	25.669	1414.808	1143.142
354.650	25.789	1413.817	1143.005
355.665	25.814	1412.833	1142.265
356.679	25.824	1411.751	1141.350
357.694	25.962	1410.287	1140.941
358.708	25.877	1409.603	1139.752
359.723	25.917	1408.555	1139.055
360.738	25.905	1407.346	1137.899
361.752	25.876	1406.498	1136.927
362.767	25.906	1405.308	1136.057
363.781	25.987	1403.824	1135.266
364.796	25.952	1403.548	1134.720
365.810	26.078	1403.124	1135.071
366.825	25.910	1402.622	1133.511
367.840	25.929	1402.020	1133.040
368.854	25.990	1401.019	1132.515
369.869	26.038	1400.340	1132.168
370.883	26.097	1399.298	1131.594
371.898	26.024	1398.965	1130.768
372.913	26.155	1398.202	1130.872
373.927	26.016	1397.514	1129.343
374.942	26.175	1396.632	1129.525
375.956	26.126	1395.942	1128.563
376.971	26.091	1395.138	1127.591
377.986	26.082	1394.328	1126.782
379.000	26.043	1393.667	1125.903
380.015	26.115	1393.014	1125.728
381.029	26.086	1392.368	1124.923
382.044	26.163	1391.693	1124.763
383.059	26.198	1390.609	1124.002
384.073	26.147	1390.358	1123.383
385.088	26.240	1389.449	1123.126
386.102	26.134	1389.003	1122.006
387.117	26.255	1388.122	1121.948
388.132	26.273	1387.668	1121.596
389.146	26.218	1386.672	1120.350
390.161	26.159	1386.128	1119.446
391.175	26.260	1385.439	1119.418
392.190	26.266	1384.862	1118.885
393.205	26.364	1383.678	1118.439
394.219	26.270	1383.055	1117.254
395.234	26.311	1382.113	1116.650
396.248	26.291	1380.859	1115.412
397.263	26.319	1379.709	1114.556
398.278	26.387	1378.777	1114.122
399.292	26.358	1377.958	1113.187
400.307	26.455	1376.992	1112.904
401.321	26.449	1376.226	1112.149
402.336	26.378	1375.061	1110.671
403.350	26.283	1374.204	1109.301
404.365	26.336	1373.282	1108.783
405.380	26.402	1371.905	1107.976
406.394	26.424	1371.279	1107.510
407.409	26.536	1370.076	1107.123
408.423	26.475	1369.997	1106.585
409.438	26.610	1369.397	1106.828
410.453	26.505	1368.721	1105.547
411.467	26.501	1368.001	1104.840
412.482	26.504	1367.810	1104.611
413.496	26.477	1367.191	1103.846
414.511	26.450	1366.259	1102.828
415.526	26.614	1364.980	1102.699
416.540	26.535	1364.692	1101.888
417.555	26.505	1364.160	1101.179
418.569	26.600	1363.246	1100.921
419.584	26.489	1362.951	1099.913
420.599	26.643	1361.830	1099.842
421.613	128.751	1427.719	1755.675
422.628	126.631	1437.326	1755.802
