DTS Sentinel unit serial number:	SN413079Multiplexer serial number:	ORYXHardware model number:	OX4-SRSoftware version number:	ORYX F/W v4.00 Oryx Data Collector v3.7.2.0data status	okinstallation	princeton_trtdifferential loss correction	single-endedforward channel	channel 4reverse channel	N/Adate	2019/09/11time	18:03:10forward acquisition time	60.00reverse acquisition time	0.00gamma	496.2192k internal	0.2275k external	0.2275temperature offset calibration	1.0026default loss term (dB/km)	0.3790temperature slope calibration	1.0000multiplexer offset coefficient	1.0000multiplexer slope coefficient	1.0000fibre end	0.00T internal ref (°C)	44.03T ext. ref 1 (°C)	1.15T ext. ref 2 (°C)	39.00length (m)	temperature (°C)	Stokes	anti-Stokes-747.200	57.136	0.235	0.236
-746.185	454.057	-0.091	0.208
-745.171	62.130	0.074	0.076
-744.156	-200.000	-0.022	0.205
-743.142	-200.000	-0.042	-0.497
-742.127	132.570	0.045	0.060
-741.112	-124.156	0.167	-0.027
-740.098	-33.640	-0.225	0.128
-739.083	512.026	0.212	0.508
-738.069	-73.324	-0.049	0.018
-737.054	-196.178	0.261	0.002
-736.039	800.000	-0.047	0.167
-735.025	24.163	0.198	0.168
-734.010	-112.667	-0.192	-0.039
-732.996	-200.000	0.009	0.187
-731.981	55.631	-0.187	-0.187
-730.966	-140.473	-0.365	-0.039
-729.952	274.490	-0.052	0.095
-728.937	-61.972	-0.277	0.120
-727.923	-87.608	-0.139	-0.043
-726.908	-200.000	0.001	0.249
-725.894	116.226	-0.159	0.201
-724.879	216.271	0.055	0.090
-723.864	374.804	-0.105	0.221
-722.850	56.104	0.231	0.231
-721.835	-158.218	-0.491	0.030
-720.821	-112.712	0.085	0.017
-719.806	-200.000	0.018	0.110
-718.791	598.691	0.049	0.126
-717.777	-81.344	-0.126	0.043
-716.762	51.844	0.126	0.124
-715.748	-44.382	-0.209	-0.108
-714.733	210.380	0.073	0.118
-713.718	59.673	-0.257	0.261
-712.704	-200.000	-0.456	0.000
-711.689	129.989	-0.171	0.225
-710.675	106.270	0.294	0.359
-709.660	-131.042	-0.591	-0.081
-708.645	-200.000	0.004	-0.560
-707.631	-200.000	-0.034	0.413
-706.616	-161.063	0.290	0.016
-705.602	800.000	-0.059	-0.264
-704.587	1.592	-0.178	-0.132
-703.572	-99.541	0.196	-0.051
-702.558	47.374	0.200	-0.192
-701.543	-163.479	-0.138	-0.007
-700.529	22.816	0.193	-0.163
-699.514	12.870	-0.197	0.157
-698.499	-100.377	0.308	-0.079
-697.485	-99.572	-0.118	0.031
-696.470	283.215	0.234	-0.433
-695.456	800.000	-0.161	-0.494
-694.441	-75.272	0.222	-0.082
-693.426	-45.398	0.176	-0.090
-692.412	0.406	-0.090	0.066
-691.397	729.720	0.150	0.414
-690.383	188.119	-0.093	0.143
-689.368	44.959	-0.028	-0.027
-688.354	-200.000	0.067	0.483
-687.339	-12.453	0.285	0.192
-686.324	618.792	-0.091	-0.235
-685.310	48.118	0.097	-0.094
-684.295	34.978	-0.138	-0.124
-683.281	201.763	0.096	-0.152
-682.266	38.669	-0.134	-0.123
-681.251	93.977	-0.143	0.167
-680.237	800.000	0.043	0.141
-679.222	800.000	-0.092	0.397
-678.208	-62.383	-0.077	-0.033
-677.193	-51.392	-0.157	0.076
-676.178	132.892	-0.176	-0.234
-675.164	320.382	-0.134	0.262
-674.149	-200.000	-0.030	-0.439
-673.135	-200.000	-0.049	-0.223
-672.120	115.667	-0.096	0.121
-671.105	48.444	0.036	0.034
-670.091	-200.000	0.009	-0.110
-669.076	-170.267	-0.076	-0.003
-668.062	-200.000	0.064	-0.313
-667.047	168.495	0.149	-0.218
-666.032	-200.000	-0.036	0.359
-665.018	-134.522	0.107	0.013
-664.003	277.337	-0.133	0.243
-662.989	800.000	-0.062	-0.194
-661.974	800.000	-0.024	0.089
-660.959	164.137	-0.098	-0.141
-659.945	293.440	-0.197	-0.369
-658.930	117.519	-0.258	-0.326
-657.916	-200.000	-0.017	-0.177
-656.901	800.000	0.049	-0.199
-655.886	139.161	-0.130	-0.175
-654.872	-51.593	0.178	-0.086
-653.857	-18.869	-0.159	-0.102
-652.843	-200.000	-0.019	0.169
-651.828	-200.000	0.042	-0.255
-650.814	-200.000	-0.005	0.085
-649.799	27.969	-0.174	0.151
-648.784	272.199	-0.045	-0.082
-647.770	11.355	0.192	-0.151
-646.755	456.822	-0.066	-0.151
-645.741	800.000	0.187	0.585
-644.726	63.358	-0.093	0.096
-643.711	410.487	0.171	0.372
-642.697	350.741	0.205	-0.416
-641.682	132.735	-0.136	-0.180
-640.668	-59.829	0.114	-0.050
-639.653	462.035	0.043	-0.098
-638.638	305.902	0.122	-0.234
-637.624	-137.965	0.325	-0.037
-636.609	162.728	0.067	0.097
-635.595	625.292	-0.059	0.152
-634.580	-200.000	0.025	0.343
-633.565	15.934	0.127	0.102
-632.551	146.021	-0.053	-0.074
-631.536	-120.445	0.121	0.021
-630.522	128.493	0.129	0.169
-629.507	-50.808	0.168	0.081
-628.492	-49.937	0.276	0.134
-627.478	-8.752	-0.285	-0.196
-626.463	-3.404	-0.199	-0.142
-625.449	-74.329	0.138	-0.051
-624.434	-200.000	-0.001	0.245
-623.419	-200.000	0.027	0.181
-622.405	79.935	0.183	0.202
-621.390	76.114	0.059	0.064
-620.376	394.587	-0.098	-0.209
-619.361	800.000	-0.012	-0.038
-618.346	-83.818	-0.251	-0.082
-617.332	27.242	0.257	0.221
-616.317	-113.116	-0.137	0.028
-615.303	266.140	-0.064	0.114
-614.288	-180.725	-0.364	-0.008
-613.273	11.233	-0.061	0.048
-612.259	88.619	-0.091	0.104
-611.244	-198.795	-0.375	-0.002
-610.230	-200.000	0.037	0.245
-609.215	-66.868	0.396	-0.161
-608.201	-126.676	-0.111	0.017
-607.186	800.000	-0.038	-0.151
-606.171	800.000	0.153	-0.565
-605.157	-149.921	-0.297	0.024
-604.142	278.641	0.111	0.202
-603.128	-64.823	0.186	0.077
-602.113	524.918	0.121	-0.292
-601.098	-200.000	0.025	0.119
-600.084	-60.960	-0.253	-0.110
-599.069	669.953	-0.053	-0.142
-598.055	239.817	0.087	-0.149
-597.040	-193.934	-0.249	-0.002
-596.025	800.000	0.066	-0.266
-595.011	40.642	-0.057	0.052
-593.996	-118.891	0.527	-0.095
-592.982	-10.042	-0.168	-0.115
-591.967	-200.000	0.015	0.080
-590.952	632.325	-0.180	0.467
-589.938	-43.421	0.288	0.149
-588.923	800.000	0.086	-0.295
-587.909	-83.929	-0.412	-0.134
-586.894	-138.381	-0.185	-0.021
-585.879	-106.926	0.366	0.083
-584.865	23.061	-0.196	0.164
-583.850	-200.000	0.044	-0.211
-582.836	-200.000	0.002	-0.176
-581.821	791.791	-0.158	0.446
-580.806	-159.412	-0.118	0.007
-579.792	-17.768	0.177	0.114
-578.777	54.368	0.166	-0.164
-577.763	21.926	-0.226	-0.189
-576.748	-88.678	0.228	-0.070
-575.733	-163.450	0.227	-0.011
-574.719	-32.677	-0.261	-0.149
-573.704	800.000	0.023	0.067
-572.690	-125.226	-0.175	-0.027
-571.675	181.741	-0.042	-0.064
-570.661	31.649	0.045	-0.039
-569.646	673.908	-0.127	-0.337
-568.631	53.907	-0.168	0.166
-567.617	189.680	0.243	0.374
-566.602	-78.642	0.248	0.087
-565.588	6.993	-0.267	-0.204
-564.573	51.120	-0.160	0.155
-563.558	-122.982	-0.212	0.035
-562.544	-34.741	-0.121	0.068
-561.529	-200.000	-0.006	-0.112
-560.515	50.915	0.109	-0.106
-559.500	86.402	-0.110	-0.124
-558.485	51.240	0.099	-0.096
-557.471	-200.000	0.004	-0.253
-556.456	-200.000	0.186	0.000
-555.442	65.792	0.139	-0.144
-554.427	800.000	0.081	-0.232
-553.412	-12.123	0.169	0.113
-552.398	501.515	0.044	0.103
-551.383	-100.069	0.071	0.018
-550.369	33.451	0.063	-0.056
-549.354	-59.327	-0.360	0.158
-548.339	-128.794	-0.195	0.028
-547.325	8.009	0.111	0.085
-546.310	-92.786	-0.043	0.012
-545.296	800.000	-0.071	-0.214
-544.281	132.017	0.180	0.237
-543.266	592.335	0.041	-0.104
-542.252	800.000	-0.061	0.234
-541.237	-200.000	-0.056	0.371
-540.223	-180.628	-0.130	-0.003
-539.208	246.774	-0.073	-0.126
-538.193	-25.558	-0.367	-0.222
-537.179	174.148	-0.066	-0.098
-536.164	-200.000	-0.042	-0.344
-535.150	-200.000	-0.013	0.096
-534.135	-97.872	0.087	-0.023
-533.121	-179.771	-0.084	-0.002
-532.106	785.717	-0.102	0.285
-531.091	695.949	-0.062	0.166
-530.077	132.242	-0.070	-0.092
-529.062	-27.388	-0.307	0.183
-528.048	183.648	0.029	-0.044
-527.033	-200.000	-0.027	-0.332
-526.018	-200.000	-0.011	-0.217
-525.004	239.012	0.082	-0.139
-523.989	550.419	0.059	-0.144
-522.975	159.762	-0.194	-0.276
-521.960	75.846	-0.259	-0.279
-520.945	523.451	0.189	0.454
-519.931	-72.690	-0.446	0.168
-518.916	-104.277	0.108	0.026
-517.902	191.834	0.067	-0.103
-516.887	-38.090	0.027	-0.015
-515.872	112.944	-0.080	0.099
-514.858	116.726	-0.231	0.290
-513.843	800.000	-0.037	0.111
-512.829	-198.766	0.170	0.001
-511.814	-73.267	-0.165	-0.062
-510.799	-44.833	0.020	-0.010
-509.785	-19.676	-0.219	-0.138
-508.770	-117.265	-0.195	-0.036
-507.756	-110.319	-0.129	0.027
-506.741	6.601	0.207	-0.157
-505.726	800.000	-0.034	-0.143
-504.712	800.000	-0.053	0.166
-503.697	-200.000	-0.007	-0.078
-502.683	-200.000	-0.058	-0.369
-501.668	-200.000	0.010	-0.339
-500.653	-8.552	-0.123	-0.085
-499.639	-55.145	-0.223	-0.102
-498.624	-60.236	0.239	-0.104
-497.610	-24.433	0.118	0.072
-496.595	654.902	-0.061	-0.160
-495.581	-25.924	-0.356	-0.214
-494.566	-200.000	-0.012	0.208
-493.551	-200.000	-0.020	-0.354
-492.537	35.371	0.094	0.084
-491.522	591.466	-0.109	-0.274
-490.508	227.657	0.057	0.095
-489.493	-170.233	-0.167	0.006
-488.478	17.910	0.224	0.182
-487.464	-64.682	0.313	-0.129
-486.449	-47.757	0.193	-0.095
-485.435	653.973	0.083	-0.219
-484.420	-200.000	0.043	-0.194
-483.405	-89.556	-0.281	-0.084
-482.391	-200.000	-0.017	-0.240
-481.376	-158.195	-0.160	-0.010
-480.362	1.856	-0.271	0.199
-479.347	-182.462	-0.131	0.002
-478.332	324.511	0.103	-0.201
-477.318	-160.039	0.140	0.008
-476.303	31.266	0.055	-0.048
-475.289	549.870	0.053	-0.129
-474.274	800.000	-0.086	-0.357
-473.259	800.000	-0.043	0.184
-472.245	-200.000	0.004	0.129
-471.230	149.123	0.105	-0.145
-470.216	800.000	0.054	0.167
-469.201	-75.309	-0.110	0.040
-468.186	-78.992	-0.170	0.059
-467.172	800.000	-0.037	-0.109
-466.157	43.844	-0.212	-0.198
-465.143	-112.560	-0.049	0.010
-464.128	-200.000	0.000	0.118
-463.113	51.927	0.296	0.287
-462.099	-109.753	0.134	0.029
-461.084	216.618	-0.128	-0.208
-460.070	-200.000	0.006	0.113
-459.055	190.712	0.145	-0.223
-458.040	-38.953	-0.181	-0.097
-457.026	800.000	0.037	0.135
-456.011	-12.456	-0.362	-0.241
-454.997	-200.000	-0.017	0.138
-453.982	142.081	0.065	0.088
-452.968	714.622	0.111	-0.299
-451.953	1.741	-0.410	-0.301
-450.938	123.410	0.082	-0.104
-449.924	437.008	-0.075	-0.166
-448.909	-89.761	-0.212	0.063
-447.895	-172.725	-0.337	-0.011
-446.880	-126.400	0.307	-0.047
-445.865	-88.661	-0.204	0.062
-444.851	-111.504	0.278	0.058
-443.836	75.346	-0.274	-0.295
-442.822	-200.000	0.034	0.344
-441.807	-66.594	0.084	0.034
-440.792	-186.709	0.203	0.003
-439.778	-64.380	0.304	0.126
-438.763	709.040	0.038	0.104
-437.749	-181.308	-0.092	-0.002
-436.734	283.288	0.140	0.257
-435.719	12.860	0.121	0.096
-434.705	-94.315	0.174	-0.048
-433.690	-153.904	-0.329	-0.023
-432.676	194.461	0.137	0.211
-431.661	111.406	-0.093	0.114
-430.646	-46.618	-0.235	0.117
-429.632	202.356	0.032	0.050
-428.617	-200.000	-0.054	0.337
-427.603	800.000	0.064	0.253
-426.588	7.070	0.088	0.067
-425.573	189.495	0.107	0.164
-424.559	-200.000	0.021	-0.228
-423.544	322.923	-0.039	-0.076
-422.530	-200.000	0.020	0.107
-421.515	56.635	0.080	-0.079
-420.500	310.729	-0.052	0.099
-419.486	134.910	-0.227	0.300
-418.471	-156.689	0.202	0.013
-417.457	-200.000	-0.021	-0.140
-416.442	249.059	0.029	-0.050
-415.428	23.745	0.051	0.043
-414.413	-200.000	-0.048	-0.244
-413.398	-18.078	0.114	0.073
-412.384	-200.000	0.007	0.172
-411.369	21.422	-0.078	0.065
-410.355	800.000	0.031	0.097
-409.340	154.246	-0.071	-0.100
-408.325	126.139	0.301	-0.388
-407.311	-200.000	0.061	0.470
-406.296	-200.000	-0.029	0.196
-405.282	16.546	-0.053	0.043
-404.267	-200.000	-0.064	-0.323
-403.252	260.398	0.111	0.195
-402.238	-128.260	-0.174	0.025
-401.223	-124.324	0.173	-0.027
-400.209	84.413	-0.106	-0.118
-399.194	-200.000	0.019	0.212
-398.179	88.188	0.046	-0.052
-397.165	277.067	0.096	-0.173
-396.150	49.700	0.203	-0.194
-395.136	-129.939	-0.317	0.044
-394.121	-70.557	0.378	0.146
-393.106	-81.334	0.222	0.074
-392.092	-200.000	-0.036	0.261
-391.077	152.211	-0.103	0.143
-390.063	-88.703	-0.253	-0.077
-389.048	-200.000	-0.039	0.237
-388.033	800.000	0.053	0.212
-387.019	800.000	-0.052	0.191
-386.004	297.087	0.173	0.323
-384.990	88.843	0.198	-0.224
-383.975	-3.257	0.185	-0.131
-382.960	74.273	0.188	0.201
-381.946	427.832	-0.063	-0.139
-380.931	-36.642	-0.168	-0.092
-379.917	-200.000	0.006	0.044
-378.902	-200.000	0.005	-0.344
-377.888	183.760	-0.147	-0.221
-376.873	-200.000	-0.072	0.000
-375.858	-30.129	0.254	0.147
-374.844	1.429	0.026	-0.019
-373.829	-200.000	-0.029	0.133
-372.815	54.916	-0.119	0.116
-371.800	-76.514	0.200	-0.071
-370.785	-200.000	-0.005	-0.510
-369.771	-200.000	-0.002	-0.208
-368.756	800.000	0.052	-0.179
-367.742	-200.000	-0.002	-0.369
-366.727	-28.058	-0.181	0.106
-365.712	213.539	-0.074	0.119
-364.698	-59.084	0.326	0.143
-363.683	800.000	0.064	0.183
-362.669	-200.000	-0.034	0.157
-361.654	-58.288	0.081	0.036
-360.639	288.716	0.163	-0.300
-359.625	800.000	-0.072	-0.287
-358.610	-76.147	-0.041	0.015
-357.596	453.192	-0.093	0.209
-356.581	-156.235	0.080	0.005
-355.566	-200.000	-0.021	0.136
-354.552	-89.614	0.293	-0.087
-353.537	-28.047	-0.052	0.031
-352.523	-145.515	-0.154	0.014
-351.508	232.810	0.060	-0.099
-350.493	-123.731	0.349	-0.056
-349.479	357.254	0.058	-0.117
-348.464	-114.041	-0.198	-0.039
-347.450	387.531	-0.140	0.293
-346.435	-90.539	-0.179	0.053
-345.420	700.746	-0.102	-0.273
-344.406	-185.064	0.219	0.003
-343.391	-200.000	0.068	-0.509
-342.377	-200.000	0.018	0.120
-341.362	-200.000	0.003	-0.252
-340.348	-97.226	-0.128	0.034
-339.333	-161.612	-0.290	0.015
-338.318	-22.274	0.101	-0.062
-337.304	-200.000	-0.029	-0.348
-336.289	-200.000	-0.006	-0.409
-335.275	77.268	0.054	-0.059
-334.260	458.606	0.109	0.246
-333.245	297.379	-0.112	0.209
-332.231	262.846	-0.039	0.069
-331.216	-54.250	0.098	0.045
-330.202	379.203	0.037	0.078
-329.187	-200.000	0.040	0.294
-328.172	-56.546	0.086	0.039
-327.158	-72.579	0.073	-0.027
-326.143	385.034	-0.078	0.164
-325.129	144.410	0.144	0.196
-324.114	800.000	0.046	-0.178
-323.099	-25.591	0.154	-0.092
-322.085	7.263	0.171	-0.129
-321.070	-200.000	-0.008	0.098
-320.056	-153.400	-0.333	0.023
-319.041	565.693	-0.078	0.193
-318.026	-93.824	0.269	-0.075
-317.012	-124.389	0.255	-0.040
-315.997	-34.432	-0.245	0.136
-314.983	120.429	0.119	0.150
-313.968	178.970	-0.024	0.035
-312.953	-18.660	-0.152	-0.096
-311.939	21.901	0.173	-0.143
-310.924	-140.029	-0.290	-0.031
-309.910	-200.000	-0.013	-0.116
-308.895	800.000	0.127	-0.449
-307.880	-200.000	0.053	0.356
-306.866	-200.000	-0.011	-0.145
-305.851	73.383	-0.163	0.173
-304.837	-133.693	0.057	0.007
-303.822	-106.330	0.456	0.103
-302.807	-64.877	-0.163	0.067
-301.793	-94.607	-0.177	0.049
-300.778	-164.263	-0.163	-0.008
-299.764	189.452	-0.146	-0.221
-298.749	-134.672	-0.097	0.012
-297.735	134.169	-0.148	0.194
-296.720	371.061	-0.172	-0.354
-295.705	-32.705	0.242	0.137
-294.691	-150.142	0.119	-0.009
-293.676	800.000	-0.043	0.131
-292.662	-28.405	0.175	0.102
-291.647	-200.000	0.007	0.055
-290.632	-43.937	-0.080	-0.041
-289.618	-128.601	0.265	-0.038
-288.603	-15.476	-0.535	0.346
-287.589	411.950	0.101	0.217
-286.574	800.000	0.038	-0.134
-285.559	-170.323	-0.281	0.010
-284.545	-100.289	-0.175	0.044
-283.530	800.000	-0.044	0.146
-282.516	-200.000	-0.056	0.321
-281.501	-200.000	0.029	-0.183
-280.486	-119.025	0.349	-0.062
-279.472	-79.798	-0.178	0.061
-278.457	170.727	0.210	0.304
-277.443	-133.510	0.211	-0.027
-276.428	697.755	-0.071	-0.189
-275.413	-27.155	-0.180	0.106
-274.399	42.904	-0.163	0.151
-273.384	64.432	0.216	0.220
-272.370	800.000	-0.128	0.464
-271.355	-197.294	0.267	0.002
-270.340	-35.482	-0.198	-0.109
-269.326	-200.000	0.028	-0.184
-268.311	363.851	-0.226	0.459
-267.297	349.250	0.107	0.213
-266.282	-12.197	0.318	-0.210
-265.267	790.567	0.108	0.301
-264.253	-23.307	0.221	0.134
-263.238	-200.000	-0.002	0.402
-262.224	-200.000	-0.001	-0.092
-261.209	-200.000	-0.029	0.196
-260.195	-78.981	0.347	0.119
-259.180	800.000	0.093	-0.299
-258.165	800.000	-0.038	0.158
-257.151	-200.000	0.243	0.000
-256.136	135.847	0.123	-0.162
-255.122	217.591	-0.109	-0.176
-254.107	800.000	0.079	-0.233
-253.092	516.119	0.032	0.075
-252.078	800.000	-0.070	-0.230
-251.063	-88.647	0.235	0.071
-250.049	800.000	-0.043	0.150
-249.034	3.188	0.192	0.141
-248.019	387.794	-0.039	0.082
-247.005	-200.000	0.005	0.184
-245.990	-64.624	0.146	0.060
-244.976	-85.701	0.097	-0.030
-243.961	189.611	-0.122	-0.185
-242.946	800.000	0.026	-0.102
-241.932	371.409	-0.104	0.214
-240.917	-97.069	0.230	-0.061
-239.903	-152.618	-0.105	-0.008
-238.888	276.436	0.158	-0.285
-237.873	-18.383	0.115	-0.073
-236.859	72.208	-0.135	0.142
-235.844	-137.581	-0.180	0.021
-234.830	-200.000	0.013	0.101
-233.815	-124.431	-0.353	-0.056
-232.800	53.194	0.074	0.072
-231.786	-104.619	-0.178	0.041
-230.771	127.740	0.205	-0.263
-229.757	-115.892	-0.249	-0.047
-228.742	109.815	0.263	-0.319
-227.727	-200.000	-0.006	0.110
-226.713	24.338	0.079	-0.066
-225.698	-34.945	-0.437	-0.241
-224.684	1.129	0.051	-0.037
-223.669	-134.967	0.279	0.034
-222.655	-154.675	0.321	-0.022
-221.640	-65.474	0.270	0.110
-220.625	800.000	0.037	-0.130
-219.611	-84.837	-0.105	0.033
-218.596	25.880	-0.116	-0.098
-217.582	-45.682	0.108	-0.054
-216.567	800.000	0.090	-0.260
-215.552	-200.000	0.016	-0.210
-214.538	40.504	-0.115	-0.105
-213.523	800.000	-0.030	0.085
-212.509	-200.000	-0.053	0.237
-211.494	68.824	0.137	-0.142
-210.479	1.945	-0.357	-0.260
-209.465	279.970	0.101	0.183
-208.450	-135.004	-0.334	0.041
-207.436	-200.000	0.011	0.153
-206.421	86.898	-0.106	0.118
-205.406	-27.797	0.143	-0.083
-204.392	-191.755	-0.275	-0.003
-203.377	60.180	0.234	0.234
-202.363	336.990	-0.056	0.110
-201.348	229.864	0.193	-0.318
-200.333	-89.412	0.298	-0.089
-199.319	-58.598	0.309	-0.135
-198.304	-17.094	0.380	0.242
-197.290	-89.333	-0.077	0.023
-196.275	444.067	0.109	-0.242
-195.260	-142.072	0.098	-0.010
-194.246	-200.000	0.042	0.204
-193.231	800.000	-0.109	0.316
-192.217	-51.718	-0.051	0.024
-191.202	-200.000	0.009	-0.077
-190.187	-200.000	0.035	0.262
-189.173	-10.888	0.276	0.184
-188.158	-134.617	0.050	0.006
-187.144	-49.631	0.179	0.086
-186.129	101.522	-0.186	0.219
-185.114	5.295	-0.075	0.056
-184.100	-169.851	0.247	0.009
-183.085	601.615	-0.085	-0.213
-182.071	-200.000	0.003	0.173
-181.056	-25.375	0.281	0.168
-180.042	-49.263	-0.282	0.136
-179.027	312.101	0.153	-0.289
-178.012	449.006	-0.129	-0.286
-176.998	800.000	0.163	0.514
-175.983	-158.718	-0.235	-0.014
-174.969	800.000	-0.020	-0.078
-173.954	-188.167	-0.202	0.003
-172.939	-17.060	-0.117	0.074
-171.925	-2.870	0.219	-0.154
-170.910	363.360	-0.030	0.061
-169.896	-200.000	0.007	0.127
-168.881	295.120	0.082	-0.152
-167.866	-156.630	-0.464	-0.029
-166.852	-37.371	0.144	0.078
-165.837	259.961	0.048	0.083
-164.823	-200.000	0.002	0.088
-163.808	-61.708	-0.166	-0.070
-162.793	284.827	0.099	0.180
-161.779	-18.827	-0.087	0.054
-160.764	663.990	0.112	0.292
-159.750	-200.000	-0.047	-0.222
-158.735	-72.071	-0.282	-0.106
-157.720	-34.879	-0.161	0.089
-156.706	-64.028	-0.322	0.133
-155.691	-43.434	-0.174	0.089
-154.677	-113.292	-0.059	-0.012
-153.662	-200.000	0.042	-0.200
-152.647	-200.000	0.021	-0.216
-151.633	800.000	-0.051	-0.224
-150.618	-87.868	-0.200	0.061
-149.604	-151.492	0.300	-0.022
-148.589	800.000	-0.025	0.081
-147.574	10.192	0.163	-0.125
-146.560	76.742	-0.094	-0.101
-145.545	36.441	0.215	-0.191
-144.531	-124.145	0.374	-0.059
-143.516	-63.404	-0.227	-0.094
-142.502	242.613	0.107	0.180
-141.487	-200.000	0.359	0.001
-140.472	-200.000	-0.033	0.375
-139.458	198.710	-0.034	0.053
-138.443	-53.948	0.237	0.109
-137.429	403.139	-0.134	-0.285
-136.414	408.411	-0.164	0.350
-135.399	-200.000	-0.008	0.112
-134.385	800.000	0.097	-0.394
-133.370	800.000	-0.129	-0.391
-132.356	800.000	-0.152	-0.437
-131.341	183.811	-0.244	0.363
-130.326	-131.026	0.174	0.023
-129.312	374.910	-0.094	-0.193
-128.297	-110.354	-0.385	0.081
-127.283	-200.000	-0.010	-0.368
-126.268	98.206	-0.029	0.033
-125.253	241.276	-0.037	-0.063
-124.239	-200.000	0.021	-0.131
-123.224	-200.000	-0.027	-0.143
-122.210	-49.833	0.108	0.052
-121.195	-71.249	-0.269	-0.102
-120.180	70.261	0.169	-0.176
-119.166	144.776	0.093	0.125
-118.151	3.852	0.026	0.019
-117.137	6.684	0.426	0.319
-116.122	159.389	-0.218	-0.305
-115.107	800.000	0.050	0.147
-114.093	-200.000	0.004	0.075
-113.078	14.205	-0.208	0.163
-112.064	-200.000	0.039	0.293
-111.049	47.907	-0.214	-0.201
-110.034	-31.188	0.117	-0.066
-109.020	-42.278	0.365	0.187
-108.005	113.609	-0.099	0.121
-106.991	712.199	-0.073	0.194
-105.976	-10.301	0.117	0.078
-104.962	299.970	-0.166	0.308
-103.947	-200.000	0.003	0.110
-102.932	800.000	0.022	-0.069
-101.918	-174.166	-0.042	-0.001
-100.903	-38.747	0.395	0.210
-99.889	348.257	0.113	-0.224
-98.874	6.939	-0.162	0.122
-97.859	314.348	-0.090	0.170
-96.845	71.933	0.120	-0.125
-95.830	-30.441	-0.348	0.198
-94.816	800.000	0.067	0.216
-93.801	-98.622	-0.101	-0.026
-92.786	30.929	0.160	0.138
-91.772	-83.510	0.218	-0.070
-90.757	184.833	0.072	-0.108
-89.743	104.548	0.245	0.289
-88.728	42.623	-0.103	0.094
-87.713	227.169	0.077	0.125
-86.699	-200.000	-0.009	0.163
-85.684	72.039	0.230	0.241
-84.670	-101.271	0.304	-0.075
-83.655	-92.496	0.103	0.029
-82.640	-106.016	-0.057	-0.013
-81.626	800.000	0.042	-0.125
-80.611	80.187	-0.121	0.131
-79.597	-47.546	0.118	0.058
-78.582	425.800	-0.023	0.050
-77.567	-138.989	0.236	0.026
-76.553	63.742	-0.130	0.131
-75.538	-94.331	-0.285	-0.078
-74.524	49.208	0.146	-0.138
-73.509	-58.627	-0.451	0.196
-72.494	100.403	0.304	0.354
-71.480	583.422	0.076	-0.186
-70.465	769.674	0.012	0.032
-69.451	-200.000	0.068	-0.607
-68.436	373.008	0.056	-0.114
-67.422	43.812	0.147	0.135
-66.407	-91.272	-0.200	-0.058
-65.392	-67.200	0.158	0.062
-64.378	73.667	-0.202	0.213
-63.363	-158.150	-0.200	-0.012
-62.349	800.000	0.145	0.430
-61.334	-34.154	-0.797	-0.439
-60.319	571.657	0.161	0.395
-59.305	-200.000	0.143	-0.825
-58.290	444.123	0.251	0.553
-57.276	800.000	0.539	1.517
-56.261	-200.000	70.778	523.926
-55.246	599.937	1266.895	3156.197
-54.232	144.401	2495.054	3343.490
-53.217	112.585	2367.590	2876.337
-52.203	51.559	2105.896	2008.877
-51.188	46.259	2011.775	1870.959
-50.173	44.350	1992.066	1835.337
-49.159	55.878	2026.512	1972.081
-48.144	61.816	2047.356	2046.266
-47.130	46.995	2012.594	1878.125
-46.115	44.080	2002.190	1841.922
-45.100	44.017	1999.363	1838.673
-44.086	43.964	1997.380	1836.297
-43.071	43.879	1994.728	1833.020
-42.057	43.833	1993.001	1830.937
-41.042	43.897	1991.485	1830.055
-40.027	43.992	1988.469	1828.068
-39.013	43.962	1986.979	1826.352
-37.998	43.955	1984.691	1824.120
-36.984	44.006	1983.112	1823.051
-35.969	44.002	1981.453	1821.416
-34.954	43.966	1980.244	1819.907
-33.940	44.013	1978.167	1818.355
-32.925	44.057	1976.789	1817.405
-31.911	44.035	1975.207	1815.685
-30.896	44.055	1973.388	1814.116
-29.881	44.054	1971.730	1812.516
-28.867	44.065	1970.361	1811.279
-27.852	44.137	1968.293	1809.949
-26.838	44.162	1966.199	1808.176
-25.823	44.126	1964.646	1806.353
-24.809	44.073	1962.794	1804.111
-23.794	44.083	1961.604	1803.035
-22.779	44.083	1959.451	1800.983
-21.765	44.051	1958.148	1799.428
-20.750	43.998	1956.277	1797.171
-19.736	43.974	1955.160	1795.857
-18.721	44.105	1952.860	1794.830
-17.706	44.057	1951.355	1792.958
-16.692	44.043	1949.694	1791.234
-15.677	44.028	1948.023	1789.494
-14.663	44.037	1946.338	1787.953
-13.648	44.137	1944.532	1787.103
-12.633	43.994	1944.386	1785.641
-11.619	43.949	1943.019	1783.918
-10.604	44.029	1940.818	1782.529
-9.590	44.044	1939.737	1781.598
-8.575	43.967	1938.585	1779.791
-7.560	44.029	1937.152	1778.957
-6.546	44.029	1935.507	1777.367
-5.531	44.017	1934.683	1776.438
-4.517	43.994	1933.458	1775.040
-3.502	44.026	1932.518	1774.388
-2.487	44.148	1930.185	1773.239
-1.473	44.108	1929.511	1772.203
-0.458	44.232	1925.727	1769.735
0.556	43.530	1906.502	1744.015
1.571	39.087	1885.870	1686.957
2.586	34.206	1904.878	1661.349
3.600	32.400	1940.792	1676.446
4.615	31.308	1937.745	1663.940
5.629	23.554	1832.265	1507.625
6.644	9.471	1699.217	1286.243
7.659	1.996	1652.948	1192.828
8.673	1.285	1648.515	1183.978
9.688	1.186	1646.904	1181.949
10.702	1.160	1645.352	1180.527
11.717	0.969	1642.804	1177.110
12.731	1.384	1642.160	1179.770
13.746	9.003	1661.185	1253.020
14.761	20.143	1686.132	1359.579
15.775	24.570	1693.480	1400.164
16.790	25.081	1692.660	1403.365
17.804	25.116	1692.748	1403.587
18.819	25.046	1691.656	1402.010
19.834	25.288	1690.784	1403.058
20.848	25.410	1690.761	1403.862
21.863	25.470	1689.143	1402.869
22.877	25.442	1688.609	1402.077
23.892	25.516	1687.505	1401.618
24.907	25.414	1686.794	1400.105
25.921	25.455	1685.373	1399.123
26.936	25.377	1684.653	1397.796
27.950	25.426	1683.547	1397.131
28.965	25.491	1682.556	1396.692
29.980	25.464	1682.068	1395.952
30.994	25.482	1680.709	1394.840
32.009	25.490	1679.694	1393.940
33.023	25.473	1678.525	1392.715
34.038	25.503	1677.749	1392.182
35.053	25.530	1676.679	1391.373
36.067	25.577	1675.117	1390.321
37.082	25.464	1674.603	1388.895
38.096	25.401	1673.554	1387.422
39.111	25.440	1673.116	1387.236
40.126	25.465	1672.150	1386.502
41.140	25.399	1671.516	1385.347
42.155	25.412	1670.527	1384.507
43.169	25.471	1669.271	1383.796
44.184	25.407	1668.348	1382.412
45.199	25.422	1667.055	1381.339
46.213	25.408	1666.141	1380.352
47.228	25.434	1664.943	1379.437
48.242	25.444	1663.709	1378.367
49.257	25.413	1662.637	1377.121
50.271	25.423	1661.686	1376.282
51.286	25.406	1660.567	1375.103
52.301	25.403	1658.833	1373.530
53.315	25.439	1657.387	1372.485
54.330	25.458	1656.074	1371.421
55.344	25.450	1654.714	1370.106
56.359	25.420	1653.542	1368.789
57.374	25.422	1652.495	1367.816
58.388	25.539	1651.580	1367.830
59.403	25.501	1650.119	1366.210
60.417	25.472	1649.391	1365.263
61.432	25.434	1648.581	1364.189
62.447	25.449	1646.973	1362.844
63.461	25.550	1645.707	1362.442
64.476	25.557	1645.080	1361.858
65.490	25.468	1643.857	1360.055
66.505	25.549	1642.869	1359.730
67.520	25.542	1642.250	1359.040
68.534	25.502	1641.404	1357.918
69.549	25.589	1640.155	1357.418
70.563	25.550	1638.911	1355.977
71.578	25.494	1637.921	1354.619
72.593	25.539	1636.752	1353.868
73.607	25.534	1636.198	1353.250
74.622	25.567	1634.910	1352.315
75.636	25.574	1633.946	1351.449
76.651	25.506	1632.982	1350.022
77.666	25.580	1632.378	1349.963
78.680	25.567	1631.379	1348.915
79.695	25.531	1630.898	1348.133
80.709	25.534	1629.581	1346.945
81.724	25.529	1629.007	1346.311
82.739	25.542	1627.861	1345.345
83.753	25.542	1626.907	1344.438
84.768	25.481	1625.961	1343.081
85.782	25.552	1625.224	1342.886
86.797	25.488	1624.383	1341.592
87.812	25.556	1623.115	1340.930
88.826	25.534	1622.408	1340.067
89.841	25.480	1621.625	1338.902
90.855	25.530	1620.336	1338.090
91.870	25.579	1619.017	1337.243
92.884	25.542	1618.217	1336.192
93.899	25.554	1617.253	1335.365
94.914	25.588	1616.328	1334.736
95.928	25.622	1614.520	1333.378
96.943	25.620	1613.494	1332.395
97.957	25.572	1612.516	1331.121
98.972	25.604	1611.421	1330.332
99.987	25.632	1609.887	1329.156
101.001	25.629	1608.523	1327.891
102.016	25.510	1607.219	1325.820
103.030	25.501	1605.862	1324.515
104.045	25.460	1605.045	1323.420
105.060	25.550	1603.761	1322.907
106.074	25.541	1601.929	1321.210
107.089	25.478	1600.611	1319.544
108.103	25.595	1599.417	1319.303
109.118	25.592	1598.646	1318.527
110.133	25.666	1597.179	1317.743
111.147	25.560	1596.416	1316.222
112.162	25.629	1595.495	1315.855
113.176	25.637	1594.468	1314.951
114.191	25.610	1593.299	1313.670
115.206	25.565	1591.865	1312.041
116.220	25.624	1590.585	1311.304
117.235	25.615	1589.753	1310.436
118.249	25.528	1589.087	1309.135
119.264	25.558	1587.561	1307.982
120.279	25.635	1586.230	1307.325
121.293	25.620	1585.380	1306.405
122.308	25.672	1583.752	1305.322
123.322	25.682	1582.389	1304.159
124.337	25.774	1580.885	1303.465
125.352	25.734	1580.051	1302.375
126.366	25.620	1579.822	1301.249
127.381	25.691	1578.367	1300.447
128.395	25.723	1577.609	1299.935
129.410	25.771	1576.217	1299.019
130.424	25.720	1574.889	1297.448
131.439	25.734	1574.371	1297.007
132.454	25.685	1573.269	1295.627
133.468	25.628	1572.135	1294.173
134.483	25.702	1570.369	1293.131
135.497	25.718	1569.879	1292.731
136.512	25.746	1568.385	1291.584
137.527	25.777	1566.978	1290.537
138.541	25.710	1565.920	1289.069
139.556	25.764	1564.696	1288.338
140.570	25.706	1563.910	1287.156
141.585	25.650	1562.922	1285.832
142.600	25.777	1561.319	1285.306
143.614	25.812	1560.003	1284.362
144.629	25.805	1559.014	1283.378
145.643	25.714	1558.102	1281.866
146.658	25.688	1556.710	1280.423
147.673	25.590	1555.365	1278.509
148.687	25.695	1554.228	1278.207
149.702	25.697	1553.405	1277.431
150.716	25.639	1551.940	1275.703
151.731	25.669	1550.771	1274.844
152.746	25.768	1549.332	1274.243
153.760	25.640	1548.632	1272.655
154.775	25.698	1547.536	1272.046
155.789	25.680	1546.757	1271.172
156.804	25.853	1545.042	1270.865
157.819	25.709	1543.766	1268.688
158.833	25.684	1543.302	1268.023
159.848	25.759	1542.457	1267.740
160.862	25.712	1541.774	1266.735
161.877	25.733	1540.476	1265.709
162.892	25.700	1539.788	1264.801
163.906	25.819	1538.559	1264.511
164.921	25.743	1538.013	1263.416
165.935	25.739	1537.236	1262.640
166.950	25.847	1535.825	1262.129
167.964	25.801	1534.794	1260.848
168.979	25.809	1534.059	1260.182
169.994	25.804	1532.829	1259.027
171.008	25.793	1532.228	1258.349
172.023	25.830	1531.030	1257.510
173.037	25.861	1529.861	1256.658
174.052	25.790	1528.921	1255.275
175.067	25.763	1528.446	1254.584
176.081	25.806	1527.549	1254.040
177.096	25.723	1527.049	1252.937
178.110	25.745	1525.453	1251.671
179.125	25.708	1524.373	1250.418
180.140	25.734	1523.202	1249.531
181.154	25.799	1522.925	1249.645
182.169	25.838	1521.914	1248.970
183.183	25.915	1520.500	1248.235
184.198	25.835	1519.730	1246.937
185.213	25.959	1518.587	1246.750
186.227	25.900	1517.625	1245.439
187.242	25.884	1517.096	1244.782
188.256	25.866	1516.324	1243.913
189.271	25.918	1515.184	1243.230
190.286	25.848	1514.778	1242.307
191.300	25.940	1513.923	1242.130
192.315	25.945	1512.690	1241.043
193.329	25.953	1511.577	1240.074
194.344	25.992	1510.788	1239.586
195.359	25.936	1510.064	1238.496
196.373	25.962	1509.084	1237.761
197.388	25.891	1508.600	1236.769
198.402	25.904	1507.086	1235.503
199.417	25.962	1506.021	1234.921
200.432	25.823	1505.665	1233.565
201.446	25.820	1505.199	1233.056
202.461	25.811	1504.122	1232.003
203.475	25.885	1503.220	1231.657
204.490	25.898	1502.376	1230.951
205.504	25.924	1501.572	1230.355
206.519	25.962	1500.420	1229.568
207.534	25.884	1500.025	1228.600
208.548	25.968	1499.157	1228.354
209.563	25.960	1497.673	1226.976
210.577	25.959	1497.070	1226.363
211.592	25.883	1496.764	1225.488
212.607	25.896	1495.753	1224.640
213.621	25.958	1495.178	1224.481
214.636	26.080	1494.135	1224.349
215.650	26.095	1493.397	1223.736
216.665	26.021	1492.559	1222.436
217.680	26.074	1491.807	1222.077
218.694	26.000	1491.223	1220.987
219.709	26.094	1490.118	1220.609
220.723	26.074	1489.135	1219.561
221.738	25.947	1489.149	1218.604
222.753	25.980	1487.888	1217.688
223.767	26.038	1486.784	1217.068
224.782	25.955	1485.981	1215.744
225.796	26.015	1485.392	1215.562
226.811	26.108	1484.613	1215.443
227.826	26.110	1483.976	1214.823
228.840	26.119	1483.088	1214.051
229.855	26.161	1482.559	1213.792
230.869	26.029	1481.886	1212.248
231.884	26.081	1480.349	1211.234
232.899	26.189	1479.279	1210.972
233.913	26.133	1478.195	1209.607
234.928	26.069	1477.274	1208.315
235.942	26.071	1476.782	1207.820
236.957	26.234	1475.499	1207.754
237.972	26.191	1474.247	1206.334
238.986	26.077	1473.627	1204.960
240.001	26.164	1472.585	1204.579
241.015	26.143	1471.906	1203.778
242.030	26.231	1470.487	1203.095
243.045	26.400	1469.456	1203.275
244.059	26.323	1468.989	1202.274
245.074	26.204	1468.246	1200.763
246.088	26.322	1467.215	1200.599
247.103	26.322	1466.550	1199.953
248.117	26.290	1465.823	1199.040
249.132	26.305	1465.249	1198.558
250.147	26.283	1464.642	1197.811
251.161	26.347	1463.864	1197.493
252.176	26.416	1463.129	1197.244
253.190	26.397	1462.330	1196.357
254.205	26.441	1461.621	1195.963
255.220	26.458	1460.447	1195.010
256.234	26.391	1459.819	1193.949
257.249	26.336	1459.240	1193.004
258.263	26.372	1458.808	1192.784
259.278	26.359	1457.817	1191.781
260.293	26.356	1456.611	1190.668
261.307	26.308	1455.990	1189.744
262.322	26.448	1455.293	1189.986
263.336	26.432	1454.363	1189.014
264.351	26.389	1453.533	1187.950
265.366	26.398	1452.960	1187.433
266.380	26.429	1451.958	1186.719
267.395	26.360	1451.159	1185.505
268.409	26.472	1450.063	1185.237
269.424	26.499	1449.517	1184.863
270.439	26.384	1448.296	1183.008
271.453	26.515	1447.520	1183.126
272.468	26.456	1446.644	1181.922
273.482	26.475	1446.171	1181.555
274.497	26.534	1445.470	1181.261
275.512	26.583	1444.290	1180.512
276.526	26.584	1443.620	1179.865
277.541	26.586	1442.603	1178.944
278.555	26.668	1441.667	1178.608
279.570	26.603	1441.000	1177.540
280.585	26.546	1440.224	1176.427
281.599	26.515	1439.592	1175.605
282.614	26.506	1439.104	1175.046
283.628	26.511	1437.844	1173.947
284.643	26.623	1437.045	1173.917
285.657	26.519	1436.452	1172.650
286.672	26.461	1435.672	1171.536
287.687	26.451	1434.672	1170.554
288.701	26.629	1433.466	1170.617
289.716	26.694	1432.853	1170.428
290.730	26.689	1432.401	1169.925
291.745	26.619	1431.279	1168.454
292.760	26.709	1430.373	1168.190
293.774	26.616	1429.971	1167.162
294.789	26.621	1428.930	1166.242
295.803	26.631	1428.449	1165.806
296.818	26.785	1427.115	1165.609
297.833	26.717	1426.254	1164.366
298.847	26.826	1425.267	1164.153
299.862	26.682	1424.692	1162.660
300.876	26.808	1423.582	1162.455
301.891	26.683	1423.160	1161.205
302.906	26.708	1422.451	1160.688
303.920	26.794	1421.856	1160.646
304.935	26.801	1421.167	1160.026
305.949	26.868	1420.098	1159.482
306.964	26.838	1419.390	1158.608
307.979	26.852	1418.694	1158.031
308.993	26.951	1417.610	1157.671
310.008	26.834	1416.670	1156.056
311.022	26.850	1415.732	1155.289
312.037	26.889	1414.908	1154.762
313.052	26.852	1414.342	1153.963
314.066	26.945	1413.334	1153.634
315.081	26.874	1412.513	1152.407
316.095	26.924	1411.373	1151.692
317.110	26.876	1410.651	1150.700
318.125	26.936	1409.861	1150.330
319.139	26.919	1409.004	1149.423
320.154	26.872	1408.371	1148.506
321.168	26.886	1407.288	1147.614
322.183	26.930	1406.324	1147.005
323.197	26.895	1405.950	1146.378
324.212	26.952	1404.807	1145.698
325.227	26.921	1404.035	1144.773
326.241	26.967	1403.122	1144.217
327.256	27.018	1402.773	1144.152
328.270	27.023	1402.002	1143.458
329.285	27.106	1400.507	1142.660
330.300	27.022	1400.313	1141.872
331.314	27.047	1399.475	1141.240
332.329	27.077	1398.589	1140.605
333.343	27.107	1397.570	1139.861
334.358	27.150	1397.099	1139.649
335.373	27.156	1396.422	1139.034
336.387	27.139	1395.684	1138.222
337.402	27.206	1394.743	1137.772
338.416	27.130	1394.698	1137.162
339.431	27.162	1393.984	1136.678
340.446	27.355	1393.104	1137.068
341.460	27.267	1392.159	1135.647
342.475	27.182	1391.812	1134.728
343.489	27.212	1390.812	1134.001
344.504	27.276	1389.618	1133.327
345.519	27.280	1388.829	1132.607
346.533	27.224	1387.813	1131.332
347.548	27.161	1387.113	1130.267
348.562	27.264	1386.420	1130.246
349.577	27.226	1385.742	1129.355
350.592	27.284	1384.868	1128.902
351.606	27.251	1384.281	1128.118
352.621	27.149	1383.166	1126.481
353.635	27.363	1381.523	1126.365
354.650	27.320	1381.335	1125.845
355.665	27.323	1380.585	1125.157
356.679	27.382	1379.284	1124.361
357.694	27.342	1378.400	1123.295
358.708	27.284	1377.534	1122.130
359.723	27.384	1376.140	1121.508
360.738	27.503	1374.858	1121.097
361.752	27.334	1374.245	1119.464
362.767	27.377	1372.915	1118.544
363.781	27.329	1372.595	1117.886
364.796	27.416	1371.773	1117.653
365.810	27.451	1371.180	1117.287
366.825	27.434	1370.016	1116.132
367.840	27.528	1369.858	1116.482
368.854	27.447	1368.827	1115.051
369.869	27.418	1368.675	1114.650
370.883	27.584	1367.491	1114.598
371.898	27.505	1367.012	1113.626
372.913	27.532	1366.523	1113.295
373.927	27.502	1365.696	1112.344
374.942	27.543	1364.593	1111.592
375.956	27.574	1363.808	1111.047
376.971	27.577	1362.958	1110.275
377.986	27.559	1362.412	1109.619
379.000	27.643	1361.531	1109.317
380.015	27.652	1360.792	1108.672
381.029	27.677	1360.060	1108.129
382.044	27.655	1359.591	1107.517
383.059	27.675	1359.023	1107.074
384.073	27.701	1358.372	1106.605
385.088	27.632	1358.160	1105.917
386.102	27.687	1357.337	1105.480
387.117	27.762	1356.803	1105.402
388.132	27.646	1356.338	1104.222
389.146	27.647	1355.178	1103.187
390.161	27.682	1354.378	1102.651
391.175	27.699	1353.972	1102.325
392.190	27.697	1353.264	1101.636
393.205	27.755	1352.344	1101.141
394.219	27.763	1351.488	1100.396
395.234	27.785	1350.528	1099.648
396.248	27.781	1349.274	1098.506
397.263	27.794	1348.311	1097.705
398.278	27.843	1347.380	1097.142
399.292	27.791	1346.702	1096.182
400.307	27.889	1345.750	1095.896
401.321	27.871	1344.915	1095.012
402.336	27.916	1343.811	1094.288
403.350	27.889	1342.569	1093.017
404.365	27.734	1342.257	1091.738
405.380	27.803	1341.536	1091.471
406.394	27.894	1340.428	1091.013
407.409	27.995	1339.457	1090.728
408.423	28.001	1338.929	1090.236
409.438	28.071	1338.356	1090.093
410.453	27.933	1337.623	1088.576
411.467	28.025	1336.673	1088.254
412.482	28.051	1336.760	1088.387
413.496	28.022	1335.962	1087.466
414.511	28.066	1335.159	1086.981
415.526	27.977	1334.322	1085.670
416.540	28.022	1333.780	1085.405
417.555	27.993	1333.417	1084.840
418.569	28.080	1332.005	1084.109
419.584	28.051	1331.751	1083.637
420.599	27.970	1331.518	1082.869
421.613	69.219	1306.112	1295.382
422.628	69.939	1302.399	1295.520
