DTS Sentinel unit serial number:	SN413079Multiplexer serial number:	ORYXHardware model number:	OX4-SRSoftware version number:	ORYX F/W v4.00 Oryx Data Collector v3.7.2.0data status	okinstallation	princeton_trtdifferential loss correction	single-endedforward channel	channel 4reverse channel	N/Adate	2019/09/11time	21:07:11forward acquisition time	60.00reverse acquisition time	0.00gamma	496.2192k internal	0.2304k external	0.2304temperature offset calibration	1.0064default loss term (dB/km)	0.3790temperature slope calibration	1.0000multiplexer offset coefficient	1.0000multiplexer slope coefficient	1.0000fibre end	0.00T internal ref (°C)	36.52T ext. ref 1 (°C)	1.57T ext. ref 2 (°C)	30.70length (m)	temperature (°C)	Stokes	anti-Stokes-747.200	410.117	-0.076	0.165
-746.185	343.823	-0.175	0.350
-745.171	-82.875	-0.191	0.063
-744.156	595.061	-0.087	0.218
-743.142	22.171	0.309	-0.257
-742.127	16.188	-0.219	0.176
-741.112	281.878	0.039	-0.072
-740.098	800.000	-0.202	0.594
-739.083	-114.071	0.225	-0.044
-738.069	56.546	0.259	0.256
-737.054	91.464	0.270	-0.308
-736.039	-69.743	-0.159	-0.062
-735.025	-164.391	-0.132	-0.006
-734.010	79.822	0.034	-0.037
-732.996	-3.932	-0.068	0.048
-731.981	298.343	-0.143	-0.267
-730.966	-42.604	0.255	-0.132
-729.952	-110.140	-0.391	0.083
-728.937	132.298	-0.199	0.261
-727.923	800.000	-0.088	0.278
-726.908	376.986	0.106	0.220
-725.894	800.000	-0.072	-0.315
-724.879	800.000	-0.025	-0.089
-723.864	800.000	0.038	0.124
-722.850	-43.877	-0.104	0.053
-721.835	281.564	-0.306	-0.558
-720.821	-186.546	-0.221	0.003
-719.806	-169.919	0.235	-0.009
-718.791	-22.561	0.322	0.198
-717.777	-160.638	-0.282	0.015
-716.762	800.000	-0.058	-0.169
-715.748	-63.666	0.080	0.033
-714.733	-86.463	-0.029	-0.009
-713.718	800.000	-0.143	0.436
-712.704	-117.533	-0.263	0.048
-711.689	173.968	0.135	0.198
-710.675	-56.391	-0.232	-0.105
-709.660	-65.268	0.066	0.027
-708.645	266.970	0.153	-0.272
-707.631	-170.914	-0.287	0.010
-706.616	-1.159	0.167	0.120
-705.602	-163.541	-0.241	0.012
-704.587	163.366	-0.207	-0.295
-703.572	81.744	-0.162	0.178
-702.558	-74.440	0.211	0.077
-701.543	-200.000	0.008	-0.276
-700.529	-3.053	0.127	0.090
-699.514	97.107	0.213	-0.248
-698.499	-200.000	-0.031	-0.178
-697.485	127.961	0.129	-0.167
-696.470	-71.289	-0.457	-0.174
-695.456	-200.000	0.015	-0.163
-694.441	446.444	0.075	-0.168
-693.426	-200.000	0.012	-0.180
-692.412	118.960	-0.159	-0.200
-691.397	-87.768	0.288	-0.088
-690.383	-130.521	0.092	-0.013
-689.368	115.243	-0.138	-0.171
-688.354	-200.000	-0.020	0.209
-687.339	357.539	0.211	-0.428
-686.324	8.785	-0.421	-0.322
-685.310	124.805	-0.138	-0.176
-684.295	-130.301	-0.539	-0.074
-683.281	-200.000	0.025	0.210
-682.266	165.759	-0.185	-0.265
-681.251	-200.000	-0.007	0.070
-680.237	-200.000	-0.003	0.170
-679.222	-200.000	-0.029	-0.239
-678.208	92.902	0.222	-0.254
-677.193	139.467	0.205	-0.274
-676.178	-2.476	-0.056	0.040
-675.164	-61.878	0.183	0.078
-674.149	-200.000	-0.000	0.259
-673.135	182.371	-0.198	0.297
-672.120	-200.000	0.005	-0.299
-671.105	332.189	-0.025	0.049
-670.091	249.558	0.173	-0.297
-669.076	127.685	-0.114	-0.147
-668.062	800.000	-0.051	-0.204
-667.047	-150.342	-0.038	-0.003
-666.032	-102.857	-0.206	0.050
-665.018	-16.943	0.135	-0.086
-664.003	-200.000	-0.004	-0.249
-662.989	-200.000	0.010	-0.174
-661.974	-1.288	0.112	0.081
-660.959	139.037	-0.116	0.155
-659.945	150.261	-0.204	-0.281
-658.930	86.056	0.094	-0.105
-657.916	-92.633	0.161	0.046
-656.901	-193.449	0.172	0.002
-655.886	-44.018	-0.179	0.091
-654.872	-22.071	-0.259	-0.159
-653.857	168.180	-0.041	-0.059
-652.843	5.702	-0.080	-0.060
-651.828	-200.000	0.021	0.168
-650.814	141.552	-0.142	0.191
-649.799	-54.214	0.110	0.051
-648.784	15.534	-0.275	-0.219
-647.770	120.191	-0.248	0.312
-646.755	-51.626	0.052	-0.025
-645.741	-28.856	-0.029	0.017
-644.726	316.634	0.245	-0.469
-643.711	14.467	-0.319	-0.253
-642.697	34.093	0.062	0.054
-641.682	-4.542	-0.165	0.115
-640.668	-170.530	-0.340	-0.012
-639.653	226.612	-0.077	-0.127
-638.638	-6.746	0.108	0.075
-637.624	472.412	0.115	0.262
-636.609	-80.828	0.246	0.083
-635.595	-113.340	-0.273	-0.054
-634.580	-34.438	-0.337	-0.187
-633.565	-12.451	0.178	-0.118
-632.551	-133.052	0.119	-0.015
-631.536	484.375	-0.137	-0.316
-630.522	339.638	0.237	-0.468
-629.507	97.348	-0.146	-0.170
-628.492	737.438	0.032	0.088
-627.478	-167.500	-0.177	-0.007
-626.463	-88.373	-0.283	-0.086
-625.449	-115.952	-0.144	-0.027
-624.434	-153.610	0.183	0.013
-623.419	-200.000	0.072	0.345
-622.405	-63.719	0.443	-0.184
-621.390	-200.000	0.007	0.226
-620.376	-72.142	0.200	0.075
-619.361	800.000	0.065	-0.216
-618.346	-27.801	-0.189	0.111
-617.332	-192.189	0.083	-0.001
-616.317	163.005	-0.075	0.107
-615.303	157.674	0.111	0.155
-614.288	-200.000	0.012	0.057
-613.273	-52.994	0.208	-0.097
-612.259	51.808	0.071	0.069
-611.244	474.688	0.132	-0.302
-610.230	19.744	0.123	-0.101
-609.215	-200.000	-0.002	0.056
-608.201	11.626	-0.052	-0.041
-607.186	477.254	-0.075	-0.172
-606.171	-14.435	-0.373	-0.243
-605.157	-30.572	-0.083	0.048
-604.142	423.320	-0.114	0.248
-603.128	-77.718	-0.078	-0.027
-602.113	-5.221	0.157	-0.109
-601.098	202.237	-0.165	0.257
-600.084	-13.150	-0.148	-0.097
-599.069	-75.542	-0.015	0.005
-598.055	800.000	-0.105	-0.389
-597.040	-200.000	0.038	-0.172
-596.025	-200.000	0.032	-0.191
-595.011	-143.794	-0.103	0.010
-593.996	-200.000	0.037	-0.199
-592.982	156.137	0.114	-0.159
-591.967	15.501	-0.078	-0.062
-590.952	800.000	-0.123	-0.447
-589.938	-173.573	-0.367	0.011
-588.923	800.000	0.122	0.345
-587.909	5.203	0.272	0.203
-586.894	-200.000	-0.010	-0.109
-585.879	-200.000	0.001	-0.166
-584.865	19.374	0.058	0.047
-583.850	-84.351	-0.179	-0.057
-582.836	-200.000	0.001	0.419
-581.821	176.569	0.156	0.230
-580.806	-29.582	-0.153	-0.089
-579.792	-22.391	-0.229	-0.140
-578.777	-70.178	0.343	-0.132
-577.763	94.103	0.112	0.129
-576.748	696.993	0.042	0.111
-575.733	-129.180	-0.115	0.016
-574.719	627.287	0.026	-0.065
-573.704	90.072	-0.123	0.138
-572.690	800.000	0.065	0.222
-571.675	-81.721	-0.119	-0.039
-570.661	227.831	-0.199	-0.328
-569.646	-200.000	-0.008	-0.134
-568.631	-86.876	0.381	-0.118
-567.617	102.954	-0.251	-0.297
-566.602	-103.534	-0.312	0.074
-565.588	73.399	-0.238	-0.252
-564.573	-200.000	-0.082	-0.394
-563.558	-41.614	0.311	0.162
-562.544	-27.392	0.260	0.153
-561.529	-58.371	-0.207	-0.091
-560.515	131.142	0.088	0.114
-559.500	342.954	0.028	0.055
-558.485	800.000	0.050	-0.196
-557.471	-183.450	-0.577	0.010
-556.456	35.369	-0.179	-0.159
-555.442	120.073	0.011	0.014
-554.427	-91.232	-0.181	0.052
-553.412	-23.718	-0.299	0.181
-552.398	35.325	0.139	0.123
-551.383	-71.681	0.148	0.056
-550.369	800.000	-0.111	0.323
-549.354	-12.694	-0.362	0.239
-548.339	-200.000	-0.029	0.295
-547.325	800.000	-0.075	0.285
-546.310	102.837	0.063	0.075
-545.296	74.399	0.080	-0.085
-544.281	-90.256	-0.162	-0.047
-543.266	-52.742	-0.071	-0.033
-542.252	511.627	0.128	0.301
-541.237	-23.746	-0.113	-0.068
-540.223	-119.329	0.283	-0.050
-539.208	625.494	0.007	0.019
-538.193	800.000	-0.058	0.183
-537.179	-200.000	0.009	0.259
-536.164	-200.000	0.002	0.050
-535.150	-200.000	-0.013	-0.247
-534.135	-114.005	0.123	0.024
-533.121	-28.758	0.247	0.143
-532.106	-166.551	-0.322	-0.014
-531.091	101.109	0.231	-0.271
-530.077	800.000	0.038	0.112
-529.062	72.385	0.161	0.169
-528.048	580.421	-0.082	0.203
-527.033	321.456	-0.133	0.255
-526.018	800.000	0.054	0.204
-525.004	-3.592	-0.300	0.211
-523.989	9.804	0.293	0.224
-522.975	-88.942	-0.388	0.116
-521.960	-80.466	0.220	-0.074
-520.945	-142.273	0.241	0.024
-519.931	-152.057	-0.193	-0.014
-518.916	-8.442	0.175	-0.119
-517.902	800.000	0.030	0.099
-516.887	-136.320	0.204	0.024
-515.872	-200.000	-0.027	-0.147
-514.858	-59.109	0.252	0.110
-513.843	-200.000	-0.027	-0.192
-512.829	-103.878	-0.240	0.057
-511.814	-177.937	-0.095	-0.002
-510.799	77.377	0.080	-0.086
-509.785	44.935	-0.133	0.124
-508.770	-124.614	-0.247	-0.039
-507.756	-200.000	0.042	0.335
-506.741	-200.000	0.008	-0.298
-505.726	-140.208	-0.177	-0.019
-504.712	136.611	-0.168	-0.222
-503.697	-101.440	0.324	0.080
-502.683	-47.421	0.219	0.107
-501.668	386.132	0.125	0.259
-500.653	-95.780	0.054	0.015
-499.639	-57.543	0.192	-0.085
-498.624	443.119	-0.137	0.303
-497.610	-94.716	0.315	-0.086
-496.595	-26.318	-0.195	0.116
-495.581	38.837	0.119	-0.107
-494.566	-148.297	-0.096	-0.008
-493.551	273.084	0.046	-0.082
-492.537	800.000	-0.049	-0.140
-491.522	316.281	0.044	-0.083
-490.508	-200.000	-0.079	0.436
-489.493	-113.226	0.142	0.028
-488.478	-71.246	-0.064	0.024
-487.464	-80.689	0.155	-0.052
-486.449	800.000	-0.075	0.211
-485.435	-200.000	-0.012	-0.449
-484.420	-113.161	-0.205	0.041
-483.405	603.503	0.070	-0.175
-482.391	114.397	-0.129	0.158
-481.376	-160.251	-0.246	-0.013
-480.362	-65.859	0.295	0.119
-479.347	371.952	0.116	0.236
-478.332	122.488	0.057	-0.072
-477.318	-200.000	0.003	-0.245
-476.303	154.268	0.292	-0.404
-475.289	-182.613	0.270	-0.005
-474.274	-48.954	-0.387	-0.187
-473.259	-69.976	0.156	0.060
-472.245	-63.302	-0.175	-0.072
-471.230	-86.611	-0.328	0.101
-470.216	800.000	-0.082	0.228
-469.201	-84.452	-0.379	-0.121
-468.186	-133.963	0.508	-0.063
-467.172	-200.000	0.038	-0.192
-466.157	-200.000	-0.014	0.312
-465.143	800.000	0.073	0.225
-464.128	-67.153	0.446	0.177
-463.113	-135.779	-0.185	0.022
-462.099	-200.000	0.002	-0.032
-461.084	-36.469	0.096	-0.052
-460.070	-73.074	-0.017	0.006
-459.055	-200.000	-0.005	-0.074
-458.040	-42.668	0.198	0.101
-457.026	11.507	0.117	0.091
-456.011	-150.814	0.212	0.016
-454.997	800.000	0.024	0.091
-453.982	-200.000	-0.038	-0.242
-452.968	6.237	0.216	-0.162
-451.953	386.530	0.107	-0.223
-450.938	800.000	-0.090	-0.313
-449.924	82.488	0.186	-0.203
-448.909	703.766	-0.032	0.085
-447.895	100.428	0.104	0.121
-446.880	-103.494	-0.169	-0.040
-445.865	-200.000	0.021	-0.403
-444.851	-119.468	-0.168	-0.029
-443.836	364.994	-0.053	0.107
-442.822	-95.898	-0.405	-0.109
-441.807	83.243	-0.307	0.336
-440.792	-109.644	0.378	0.080
-439.778	-8.198	0.158	0.107
-438.763	-0.043	0.242	-0.173
-437.749	-6.071	0.169	0.116
-436.734	114.008	0.187	-0.229
-435.719	800.000	0.027	-0.107
-434.705	-200.000	0.042	0.268
-433.690	459.836	-0.047	0.106
-432.676	800.000	-0.049	-0.156
-431.661	-19.522	-0.087	0.054
-430.646	-108.670	-0.412	0.089
-429.632	-200.000	-0.007	0.102
-428.617	5.666	-0.202	-0.150
-427.603	800.000	-0.092	0.354
-426.588	763.768	0.090	-0.246
-425.573	-96.661	0.529	0.140
-424.559	800.000	-0.069	0.238
-423.544	10.116	-0.158	0.121
-422.530	183.996	0.148	-0.221
-421.515	-23.335	-0.259	-0.156
-420.500	-32.624	-0.265	0.148
-419.486	-102.689	0.186	0.045
-418.471	79.253	-0.061	-0.066
-417.457	16.932	0.038	-0.030
-416.442	141.209	0.427	-0.568
-415.428	-200.000	-0.047	0.280
-414.413	231.720	0.221	0.365
-413.398	33.123	0.066	0.058
-412.384	337.471	-0.283	0.553
-411.369	64.507	0.065	0.066
-410.355	694.253	-0.057	-0.149
-409.340	800.000	-0.056	-0.199
-408.325	59.007	-0.025	0.025
-407.311	-58.973	0.215	-0.094
-406.296	-200.000	0.000	-0.221
-405.282	800.000	0.078	-0.304
-404.267	51.728	0.284	-0.271
-403.252	-200.000	-0.038	0.175
-402.238	-194.886	0.123	-0.001
-401.223	367.326	0.048	0.097
-400.209	-33.921	0.145	-0.080
-399.194	-200.000	0.007	-0.232
-398.179	408.910	0.030	0.064
-397.165	-17.185	0.150	-0.095
-396.150	-79.317	-0.215	-0.073
-395.136	-200.000	0.017	0.139
-394.121	204.227	-0.113	0.176
-393.106	-21.500	-0.230	-0.141
-392.092	30.653	-0.070	0.061
-391.077	-200.000	-0.009	0.090
-390.063	49.050	-0.226	0.214
-389.048	-45.356	-0.345	-0.172
-388.033	-200.000	-0.010	-0.338
-387.019	-200.000	0.008	-0.086
-386.004	-176.912	0.295	-0.007
-384.990	-105.243	0.456	-0.104
-383.975	-90.051	-0.537	-0.157
-382.960	124.301	0.142	0.180
-381.946	-200.000	-0.019	-0.094
-380.931	359.785	0.114	0.229
-379.917	-91.993	0.360	-0.102
-378.902	-55.332	0.044	0.020
-377.888	-21.996	0.125	-0.076
-376.873	81.748	-0.167	-0.182
-375.858	-101.143	0.154	0.038
-374.844	-200.000	-0.001	0.136
-373.829	445.774	-0.120	-0.266
-372.815	-200.000	-0.010	0.204
-371.800	-183.912	-0.093	0.002
-370.785	100.662	0.158	0.184
-369.771	-200.000	0.000	0.327
-368.756	-197.299	-0.230	-0.001
-367.742	-9.611	-0.592	-0.396
-366.727	15.628	0.146	0.115
-365.712	-200.000	-0.015	0.142
-364.698	-200.000	0.010	-0.059
-363.683	180.864	-0.082	0.120
-362.669	-55.773	-0.136	-0.061
-361.654	327.541	-0.081	0.155
-360.639	329.873	-0.108	-0.208
-359.625	-200.000	-0.018	-0.124
-358.610	97.141	-0.238	0.274
-357.596	-8.677	0.136	-0.092
-356.581	-81.562	-0.265	-0.087
-355.566	198.013	-0.164	-0.252
-354.552	561.897	-0.061	-0.148
-353.537	-118.614	0.083	-0.015
-352.523	-135.512	0.198	-0.024
-351.508	-200.000	0.017	-0.283
-350.493	-200.000	0.021	0.129
-349.479	57.547	0.188	0.184
-348.464	-200.000	0.043	-0.288
-347.450	116.728	-0.124	-0.153
-346.435	-200.000	0.004	-0.049
-345.420	800.000	-0.050	0.143
-344.406	800.000	-0.077	0.298
-343.391	-200.000	-0.011	-0.342
-342.377	-200.000	0.000	0.015
-341.362	49.232	0.184	-0.174
-340.348	-36.101	0.427	-0.231
-339.333	207.448	-0.132	0.207
-338.318	228.362	0.255	0.416
-337.304	800.000	0.042	0.149
-336.289	-104.695	-0.506	0.117
-335.275	744.608	0.070	-0.189
-334.260	-107.351	-0.300	0.066
-333.245	28.228	0.155	-0.131
-332.231	-198.260	-0.310	0.002
-331.216	-39.055	0.078	-0.041
-330.202	43.619	0.321	0.294
-329.187	-21.262	0.276	0.169
-328.172	-200.000	0.024	-0.213
-327.158	-20.426	0.208	0.128
-326.143	261.181	-0.187	-0.324
-325.129	-48.068	-0.299	-0.145
-324.114	-65.558	0.197	0.079
-323.099	-61.180	-0.093	0.039
-322.085	-200.000	0.012	-0.105
-321.070	-5.871	0.266	0.182
-320.056	614.719	-0.033	0.083
-319.041	429.031	-0.170	0.368
-318.026	-23.743	0.290	0.174
-317.012	-200.000	0.028	0.290
-315.997	-200.000	0.035	0.158
-314.983	-108.159	0.325	0.070
-313.968	99.666	0.366	-0.424
-312.953	-200.000	-0.003	0.045
-311.939	-200.000	0.093	-0.432
-310.924	-200.000	-0.018	-0.250
-309.910	-132.808	-0.273	0.035
-308.895	800.000	0.063	0.201
-307.880	800.000	0.151	-0.481
-306.866	-87.471	-0.090	-0.027
-305.851	38.125	0.198	0.176
-304.837	-148.573	-0.206	0.017
-303.822	351.458	0.187	0.371
-302.807	-13.019	-0.263	0.171
-301.793	36.161	-0.100	-0.088
-300.778	-108.843	0.492	0.105
-299.764	247.374	-0.116	0.195
-298.749	-200.000	-0.046	0.286
-297.735	36.193	-0.128	0.113
-296.720	-43.314	0.082	0.042
-295.705	22.051	-0.271	-0.221
-294.691	111.987	-0.208	-0.251
-293.676	-200.000	0.010	-0.299
-292.662	687.292	0.063	-0.164
-291.647	-11.425	0.131	-0.086
-290.632	202.694	-0.255	-0.393
-289.618	218.534	0.045	-0.072
-288.603	-200.000	0.016	-0.282
-287.589	610.326	0.077	0.192
-286.574	121.950	-0.205	0.256
-285.559	112.174	0.068	-0.082
-284.545	-200.000	0.005	0.332
-283.530	19.651	0.239	-0.193
-282.516	-200.000	0.000	0.054
-281.501	-177.933	0.092	-0.002
-280.486	146.810	0.111	0.149
-279.472	-89.560	-0.250	0.073
-278.457	-42.685	-0.014	0.007
-277.443	-200.000	0.027	-0.123
-276.428	-157.132	-0.326	0.020
-275.413	146.156	-0.035	0.048
-274.399	-115.850	-0.318	-0.059
-273.384	-121.252	-0.038	-0.006
-272.370	-200.000	0.025	0.183
-271.355	-200.000	-0.033	0.188
-270.340	-131.566	0.242	-0.032
-269.326	-200.000	-0.014	-0.094
-268.311	-127.348	-0.164	-0.024
-267.297	-54.504	0.153	-0.069
-266.282	-143.212	-0.187	-0.018
-265.267	-34.779	-0.276	-0.151
-264.253	-193.437	0.164	0.001
-263.238	-200.000	0.022	-0.274
-262.224	-31.010	0.208	-0.117
-261.209	-101.629	0.125	-0.030
-260.195	64.295	-0.123	-0.124
-259.180	774.700	-0.058	-0.159
-258.165	-15.735	-0.014	0.009
-257.151	-200.000	-0.008	-0.051
-256.136	800.000	-0.057	-0.200
-255.122	800.000	-0.096	-0.304
-254.107	-47.846	-0.297	0.144
-253.092	-0.641	0.080	0.057
-252.078	596.920	0.088	0.218
-251.063	326.790	0.166	0.318
-250.049	-77.658	-0.107	-0.037
-249.034	-39.897	-0.257	0.134
-248.019	-6.080	-0.290	0.198
-247.005	-10.408	0.343	-0.227
-245.990	21.252	0.139	0.113
-244.976	-200.000	0.022	0.341
-243.961	-121.647	0.097	0.016
-242.946	800.000	0.068	-0.279
-241.932	-157.964	-0.497	0.029
-240.917	-73.055	0.267	0.098
-239.903	155.178	0.144	0.198
-238.888	-189.045	-0.212	0.003
-237.873	24.115	0.385	0.317
-236.859	414.543	0.109	-0.231
-235.844	38.853	0.168	-0.150
-234.830	-141.496	0.145	-0.015
-233.815	-14.775	-0.146	-0.094
-232.800	-185.437	0.037	-0.001
-231.786	800.000	0.127	0.382
-230.771	8.922	-0.197	-0.148
-229.757	80.147	-0.111	0.120
-228.742	536.294	0.108	0.255
-227.727	27.456	0.132	0.111
-226.713	-200.000	-0.015	-0.171
-225.698	690.736	0.137	0.358
-224.684	-118.511	-0.250	-0.044
-223.669	800.000	-0.088	0.252
-222.655	-59.952	-0.226	0.097
-221.640	102.998	0.187	-0.219
-220.625	-0.674	0.078	-0.055
-219.611	17.470	-0.107	0.085
-218.596	96.932	0.121	-0.139
-217.582	-68.657	0.041	0.016
-216.567	653.409	0.032	-0.082
-215.552	-131.828	-0.095	-0.012
-214.538	-200.000	-0.032	0.188
-213.523	42.499	-0.187	-0.169
-212.509	3.156	-0.347	0.252
-211.494	800.000	0.045	-0.180
-210.479	469.070	-0.093	0.209
-209.465	-50.638	-0.260	0.122
-208.450	249.004	-0.081	-0.136
-207.436	36.839	0.057	-0.051
-206.421	-133.744	-0.258	0.032
-205.406	800.000	0.040	0.159
-204.392	180.789	-0.073	-0.107
-203.377	-96.278	0.098	-0.026
-202.363	46.398	0.210	0.194
-201.348	-13.464	0.323	0.209
-200.333	777.655	0.066	-0.179
-199.319	-39.726	0.184	-0.096
-198.304	-159.464	-0.401	0.022
-197.290	415.055	0.102	-0.216
-196.275	459.039	0.121	-0.268
-195.260	-63.401	-0.024	-0.010
-194.246	53.624	0.276	0.264
-193.231	63.049	0.338	-0.337
-192.217	330.412	-0.100	0.191
-191.202	-200.000	0.055	0.288
-190.187	-163.239	-0.080	-0.004
-189.173	-155.306	0.274	0.018
-188.158	-29.405	0.230	-0.131
-187.144	-92.973	-0.252	0.070
-186.129	800.000	0.135	0.583
-185.114	-133.509	-0.237	-0.030
-184.100	-155.758	-0.452	0.029
-183.085	-121.665	0.266	-0.044
-182.071	126.326	-0.116	0.146
-181.056	94.334	0.049	-0.055
-180.042	434.949	0.140	0.303
-179.027	-200.000	-0.053	-0.370
-178.012	-200.000	-0.016	0.150
-176.998	8.176	0.083	0.062
-175.983	101.114	-0.056	-0.065
-174.969	54.479	-0.368	-0.353
-173.954	371.627	0.041	-0.084
-172.939	48.125	0.165	0.154
-171.925	-62.529	0.061	0.025
-170.910	188.038	-0.039	-0.058
-169.896	-153.972	0.385	0.026
-168.881	-200.000	0.007	0.079
-167.866	298.685	0.106	-0.193
-166.852	-200.000	0.029	0.349
-165.837	-105.238	-0.111	0.025
-164.823	204.839	-0.033	0.050
-163.808	256.692	0.053	-0.091
-162.793	573.564	0.164	-0.398
-161.779	-116.667	0.248	0.045
-160.764	152.944	-0.128	0.174
-159.750	-131.073	0.233	0.031
-158.735	-5.569	-0.079	-0.054
-157.720	-94.049	0.253	0.069
-156.706	-200.000	-0.109	-0.517
-155.691	-200.000	-0.033	-0.162
-154.677	-79.782	-0.214	-0.072
-153.662	-73.051	-0.302	-0.110
-152.647	-8.446	0.362	0.242
-151.633	630.948	0.130	0.327
-150.618	-4.955	0.122	0.084
-149.604	214.127	-0.016	0.025
-148.589	156.399	0.234	-0.321
-147.574	-45.508	-0.130	-0.064
-146.560	256.424	0.214	-0.365
-145.545	-165.708	-0.087	0.004
-144.531	-59.304	0.240	-0.103
-143.516	-200.000	0.041	-0.226
-142.502	414.858	-0.072	0.153
-141.487	-200.000	0.018	0.251
-140.472	800.000	-0.053	-0.229
-139.458	-128.866	0.120	0.017
-138.443	-29.483	-0.307	0.175
-137.429	-109.879	0.158	-0.033
-136.414	-200.000	-0.011	-0.228
-135.399	-59.468	0.041	-0.017
-134.385	-57.296	0.065	0.029
-133.370	-200.000	-0.011	-0.162
-132.356	59.910	0.072	0.071
-131.341	142.781	0.185	0.244
-130.326	-28.957	0.088	-0.050
-129.312	-200.000	-0.035	0.262
-128.297	-130.070	0.174	-0.024
-127.283	146.448	0.183	0.244
-126.268	635.970	0.084	0.213
-125.253	-84.561	0.196	0.062
-124.239	181.647	-0.274	-0.401
-123.224	-200.000	0.078	-0.485
-122.210	-106.604	-0.355	0.078
-121.195	554.948	0.068	0.161
-120.180	14.110	0.209	0.162
-119.166	289.286	-0.120	-0.215
-118.151	-105.719	-0.203	-0.046
-117.137	-200.000	-0.042	0.357
-116.122	119.485	0.144	0.177
-115.107	800.000	-0.063	0.215
-114.093	-200.000	-0.029	0.225
-113.078	-200.000	-0.062	0.364
-112.064	-164.196	-0.322	0.015
-111.049	-150.631	0.039	-0.003
-110.034	-96.463	0.137	0.036
-109.020	-44.883	-0.157	-0.078
-108.005	45.328	0.109	0.100
-106.991	166.658	-0.039	0.056
-105.976	80.957	0.087	-0.093
-104.962	711.779	0.071	0.187
-103.947	92.308	0.049	-0.054
-102.932	499.393	0.088	0.202
-101.918	-200.000	0.081	-0.433
-100.903	47.043	-0.114	-0.105
-99.889	-200.000	0.395	0.000
-98.874	800.000	0.077	0.233
-97.859	800.000	0.019	-0.051
-96.845	-153.196	0.179	-0.012
-95.830	-200.000	-0.062	-0.419
-94.816	-148.907	0.145	0.012
-93.801	-155.475	0.209	-0.013
-92.786	-109.436	-0.125	-0.026
-91.772	-62.898	-0.318	0.130
-90.757	311.702	-0.089	-0.165
-89.743	-34.202	0.086	-0.047
-88.728	-8.179	-0.295	0.197
-87.713	133.829	0.159	0.204
-86.699	-200.000	0.044	0.202
-85.684	170.211	-0.151	-0.214
-84.670	-39.816	-0.206	0.107
-83.655	-50.772	0.242	0.113
-82.640	-18.641	-0.235	0.145
-81.626	73.504	-0.076	-0.079
-80.611	-91.078	-0.107	0.030
-79.597	13.169	0.369	0.284
-78.582	305.069	0.028	-0.051
-77.567	-22.338	0.044	0.026
-76.553	-83.206	0.227	0.073
-75.538	11.009	-0.173	-0.131
-74.524	-200.000	0.012	-0.180
-73.509	71.647	0.337	-0.347
-72.494	-112.869	0.194	0.038
-71.480	-70.558	0.427	0.160
-70.465	-121.073	0.365	0.061
-69.451	-200.000	-0.040	-0.195
-68.436	-76.351	-0.431	-0.150
-67.422	6.109	-0.055	0.040
-66.407	-67.722	0.222	-0.086
-65.392	-200.000	-0.328	-0.000
-64.378	-98.652	0.166	-0.042
-63.363	-200.000	-0.039	0.321
-62.349	-200.000	0.012	-0.362
-61.334	30.752	-0.656	-0.557
-60.319	51.731	0.460	0.434
-59.305	697.678	-0.316	-0.823
-58.290	168.541	0.796	1.124
-57.276	800.000	0.439	1.722
-56.261	-200.000	91.097	540.821
-55.246	523.898	1366.744	3184.272
-54.232	150.427	2586.288	3480.066
-53.217	107.545	2327.823	2744.948
-52.203	43.447	2075.932	1880.052
-51.188	38.284	1988.518	1754.630
-50.173	36.759	1969.225	1723.965
-49.159	50.866	2018.557	1894.668
-48.144	54.040	2038.181	1941.641
-47.130	39.127	1996.169	1768.690
-46.115	36.578	1984.649	1735.566
-45.100	36.554	1981.701	1732.708
-44.086	36.435	1979.404	1729.567
-43.071	36.465	1977.208	1727.845
-42.057	36.397	1974.943	1725.189
-41.042	36.476	1972.825	1723.979
-40.027	36.426	1971.339	1722.164
-39.013	36.448	1969.124	1720.355
-37.998	36.450	1966.871	1718.335
-36.984	36.420	1965.471	1716.781
-35.969	36.529	1963.255	1715.747
-34.954	36.408	1962.149	1713.635
-33.940	36.472	1960.455	1712.655
-32.925	36.532	1958.963	1711.818
-31.911	36.566	1957.468	1710.742
-30.896	36.526	1955.751	1708.822
-29.881	36.571	1953.577	1707.248
-28.867	36.572	1952.487	1706.242
-27.852	36.557	1950.548	1704.345
-26.838	36.572	1949.006	1703.060
-25.823	36.586	1946.954	1701.322
-24.809	36.546	1945.167	1699.344
-23.794	36.532	1943.401	1697.606
-22.779	36.572	1941.607	1696.328
-21.765	36.489	1940.278	1694.366
-20.750	36.551	1938.165	1692.998
-19.736	36.617	1936.307	1691.891
-18.721	36.533	1935.605	1690.473
-17.706	36.474	1934.477	1688.900
-16.692	36.551	1931.627	1687.017
-15.677	36.553	1930.279	1685.797
-14.663	36.554	1928.626	1684.288
-13.648	36.513	1927.938	1683.264
-12.633	36.489	1926.298	1681.556
-11.619	36.545	1925.000	1680.845
-10.604	36.480	1923.800	1679.166
-9.590	36.510	1922.262	1678.017
-8.575	36.545	1920.928	1677.088
-7.560	36.504	1920.096	1675.946
-6.546	36.509	1918.402	1674.439
-5.531	36.508	1916.657	1672.841
-4.517	36.481	1915.763	1671.765
-3.502	36.518	1914.671	1671.060
-2.487	36.550	1913.385	1670.150
-1.473	36.534	1912.627	1669.282
-0.458	36.531	1908.479	1665.574
0.556	36.227	1887.994	1637.022
1.571	31.789	1868.591	1582.670
2.586	27.648	1889.548	1564.831
3.600	26.505	1926.081	1584.936
4.615	25.804	1922.556	1575.763
5.629	19.669	1819.638	1440.315
6.644	8.296	1695.032	1252.768
7.659	2.173	1654.019	1175.348
8.673	1.729	1650.160	1169.094
9.688	1.562	1648.946	1166.847
10.702	1.580	1647.425	1165.808
11.717	1.419	1644.184	1162.182
12.731	1.868	1643.151	1164.779
13.746	8.902	1660.476	1231.127
14.761	19.651	1684.798	1332.379
15.775	24.935	1694.042	1380.425
16.790	25.789	1694.849	1387.541
17.804	26.019	1694.008	1388.502
18.819	25.903	1693.298	1386.905
19.834	25.998	1693.131	1387.373
20.848	26.297	1691.829	1388.484
21.863	26.341	1691.077	1388.086
22.877	26.267	1690.524	1386.939
23.892	26.319	1689.655	1386.499
24.907	26.319	1688.748	1385.637
25.921	26.338	1687.547	1384.669
26.936	26.342	1686.325	1383.578
27.950	26.315	1685.507	1382.579
28.965	26.362	1684.884	1382.302
29.980	26.355	1683.885	1381.306
30.994	26.452	1682.369	1380.680
32.009	26.333	1681.401	1378.857
33.023	26.330	1680.356	1377.855
34.038	26.333	1679.563	1377.105
35.053	26.240	1678.896	1375.728
36.067	26.328	1677.268	1374.945
37.082	26.311	1676.202	1373.821
38.096	26.355	1675.066	1373.097
39.111	26.282	1674.730	1372.147
40.126	26.276	1674.301	1371.628
41.140	26.362	1672.805	1370.935
42.155	26.332	1671.704	1369.687
43.169	26.242	1671.100	1368.384
44.184	26.254	1670.083	1367.523
45.199	26.336	1668.780	1366.960
46.213	26.262	1667.701	1365.389
47.228	26.202	1667.004	1364.245
48.242	26.246	1665.228	1363.006
49.257	26.250	1664.109	1362.002
50.271	26.374	1663.143	1362.024
51.286	26.400	1662.051	1361.199
52.301	26.321	1660.443	1359.174
53.315	26.331	1659.567	1358.409
54.330	26.191	1658.637	1356.478
55.344	26.280	1657.115	1355.777
56.359	26.312	1655.093	1354.242
57.374	26.286	1654.868	1353.744
58.388	26.383	1653.226	1353.013
59.403	26.445	1651.537	1351.974
60.417	26.359	1650.920	1350.707
61.432	26.371	1649.991	1349.914
62.447	26.351	1648.890	1348.741
63.461	26.252	1648.283	1347.389
64.476	26.393	1646.728	1347.052
65.490	26.343	1646.344	1346.244
66.505	26.388	1645.039	1345.393
67.520	26.448	1643.850	1344.747
68.534	26.424	1643.039	1343.789
69.549	26.300	1642.199	1342.060
70.563	26.389	1640.450	1341.171
71.578	26.398	1639.413	1340.274
72.593	26.345	1638.861	1339.309
73.607	26.363	1638.032	1338.648
74.622	26.388	1637.075	1337.934
75.636	26.315	1636.242	1336.590
76.651	26.369	1635.421	1336.200
77.666	26.372	1634.345	1335.228
78.680	26.360	1633.763	1334.548
79.695	26.325	1632.575	1333.202
80.709	26.338	1632.109	1332.799
81.724	26.296	1631.120	1331.564
82.739	26.370	1629.858	1330.956
83.753	26.414	1628.901	1330.383
84.768	26.367	1628.294	1329.420
85.782	26.441	1627.227	1328.977
86.797	26.339	1626.782	1327.744
87.812	26.260	1626.199	1326.572
88.826	26.344	1624.847	1325.973
89.841	26.332	1624.007	1325.077
90.855	26.364	1622.750	1324.170
91.870	26.277	1621.830	1322.667
92.884	26.325	1621.072	1322.281
93.899	26.349	1620.167	1321.604
94.914	26.340	1619.027	1320.490
95.928	26.357	1617.820	1319.511
96.943	26.333	1616.167	1317.876
97.957	26.309	1615.333	1316.902
98.972	26.443	1613.394	1316.182
99.987	26.336	1612.574	1314.617
101.001	26.342	1611.047	1313.296
102.016	26.344	1609.330	1311.793
103.030	26.368	1608.084	1310.835
104.045	26.282	1607.280	1309.448
105.060	26.332	1605.994	1308.643
106.074	26.429	1604.119	1307.698
107.089	26.341	1603.446	1306.401
108.103	26.390	1602.486	1305.856
109.118	26.427	1601.018	1304.809
110.133	26.426	1599.858	1303.745
111.147	26.398	1599.110	1302.818
112.162	26.393	1597.941	1301.713
113.176	26.394	1596.315	1300.280
114.191	26.374	1595.402	1299.277
115.206	26.499	1594.451	1299.289
116.220	26.423	1593.683	1297.999
117.235	26.413	1592.065	1296.493
118.249	26.394	1590.979	1295.360
119.264	26.409	1589.806	1294.395
120.279	26.499	1588.728	1294.048
121.293	26.408	1587.855	1292.576
122.308	26.485	1586.589	1291.978
123.322	26.426	1585.517	1290.569
124.337	26.394	1584.634	1289.510
125.352	26.509	1582.863	1288.775
126.366	26.503	1582.162	1288.048
127.381	26.510	1581.290	1287.274
128.395	26.530	1580.095	1286.324
129.410	26.529	1579.600	1285.801
130.424	26.457	1578.347	1284.158
131.439	26.432	1577.454	1283.141
132.454	26.551	1575.652	1282.404
133.468	26.590	1574.204	1281.388
134.483	26.449	1573.329	1279.563
135.497	26.507	1571.967	1278.756
136.512	26.482	1570.769	1277.494
137.527	26.562	1569.639	1277.024
138.541	26.514	1569.030	1276.076
139.556	26.540	1567.796	1275.139
140.570	26.487	1566.675	1273.748
141.585	26.492	1565.257	1272.514
142.600	26.497	1564.291	1271.651
143.614	26.546	1562.905	1270.755
144.629	26.501	1562.069	1269.648
145.643	26.500	1561.188	1268.815
146.658	26.513	1559.704	1267.589
147.673	26.442	1558.191	1265.750
148.687	26.372	1557.778	1264.813
149.702	26.621	1556.092	1265.071
150.716	26.485	1554.913	1263.049
151.731	26.432	1553.837	1261.692
152.746	26.468	1552.943	1261.106
153.760	26.540	1551.640	1260.437
154.775	26.490	1550.557	1259.102
155.789	26.571	1549.620	1258.789
156.804	26.519	1548.656	1257.538
157.819	26.609	1547.316	1256.957
158.833	26.501	1546.214	1255.207
159.848	26.545	1545.117	1254.511
160.862	26.591	1544.304	1254.057
161.877	26.673	1543.227	1253.639
162.892	26.586	1542.573	1252.395
163.906	26.660	1541.656	1252.052
164.921	26.624	1540.550	1250.791
165.935	26.672	1539.739	1250.357
166.950	26.632	1538.621	1249.059
167.964	26.685	1537.442	1248.359
168.979	26.704	1536.794	1247.851
169.994	26.683	1536.092	1247.027
171.008	26.620	1535.014	1245.611
172.023	26.604	1534.523	1244.988
173.037	26.647	1533.055	1243.986
174.052	26.619	1532.011	1242.835
175.067	26.626	1531.411	1242.285
176.081	26.673	1530.002	1241.356
177.096	26.688	1528.762	1240.342
178.110	26.698	1527.609	1239.365
179.125	26.644	1527.059	1238.442
180.140	26.676	1526.223	1237.873
181.154	26.648	1525.691	1237.140
182.169	26.670	1524.536	1236.244
183.183	26.766	1523.213	1235.711
184.198	26.724	1522.772	1234.958
185.213	26.716	1521.886	1234.079
186.227	26.799	1521.087	1233.888
187.242	26.685	1520.690	1232.679
188.256	26.681	1519.531	1231.606
189.271	26.782	1518.555	1231.394
190.286	26.809	1517.734	1230.797
191.300	26.819	1516.986	1230.154
192.315	26.748	1515.854	1228.645
193.329	26.770	1514.706	1227.755
194.344	26.707	1513.534	1226.270
195.359	26.796	1513.064	1226.380
196.373	26.836	1512.012	1225.692
197.388	26.724	1511.372	1224.307
198.402	26.771	1510.491	1223.801
199.417	26.666	1509.773	1222.404
200.432	26.741	1508.865	1222.064
201.446	26.731	1508.155	1221.315
202.461	26.830	1506.767	1220.746
203.475	26.801	1506.220	1220.000
204.490	26.774	1505.533	1219.154
205.504	26.714	1504.979	1218.199
206.519	26.704	1504.008	1217.235
207.534	26.759	1503.252	1216.884
208.548	26.767	1502.396	1216.138
209.563	26.819	1501.463	1215.624
210.577	26.815	1500.191	1214.460
211.592	26.910	1499.449	1214.387
212.607	26.754	1499.248	1213.071
213.621	26.836	1498.481	1212.891
214.636	26.899	1497.510	1212.419
215.650	26.829	1496.473	1211.007
216.665	26.934	1495.632	1210.919
217.680	26.934	1494.729	1210.080
218.694	26.912	1493.974	1209.220
219.709	26.898	1493.758	1208.841
220.723	26.957	1492.662	1208.241
221.738	26.982	1491.487	1207.351
222.753	26.920	1490.576	1206.092
223.767	26.864	1489.988	1205.142
224.782	26.819	1489.291	1204.171
225.796	26.866	1488.425	1203.676
226.811	26.884	1488.202	1203.508
227.826	27.003	1486.945	1203.173
228.840	26.907	1486.214	1201.842
229.855	27.040	1485.434	1201.981
230.869	26.904	1485.172	1200.760
231.884	26.886	1483.946	1199.548
232.899	26.896	1482.266	1198.152
233.913	26.836	1481.978	1197.414
234.928	26.837	1480.766	1196.332
235.942	26.926	1479.426	1195.731
236.957	27.007	1478.654	1195.537
237.972	27.020	1477.504	1194.590
238.986	26.969	1476.624	1193.436
240.001	27.021	1475.741	1192.957
241.015	27.158	1474.658	1192.873
242.030	27.042	1473.726	1191.254
243.045	27.118	1472.709	1190.825
244.059	27.085	1472.574	1190.397
245.074	27.090	1471.192	1189.202
246.088	27.171	1470.247	1188.868
247.103	27.140	1470.235	1188.549
248.117	27.199	1468.862	1187.719
249.132	27.191	1468.221	1187.041
250.147	27.191	1467.435	1186.305
251.161	27.176	1467.032	1185.773
252.176	27.224	1466.753	1185.753
253.190	27.213	1465.519	1184.582
254.205	27.169	1464.598	1183.445
255.220	27.161	1464.037	1182.838
256.234	27.204	1462.872	1182.070
257.249	27.180	1462.172	1181.242
258.263	27.296	1461.668	1181.487
259.278	27.194	1461.105	1180.264
260.293	27.222	1459.695	1179.202
261.307	27.209	1459.171	1178.588
262.322	27.193	1458.991	1178.236
263.336	27.317	1457.656	1177.854
264.351	27.311	1456.237	1176.568
265.366	27.296	1456.048	1176.212
266.380	27.294	1454.938	1175.197
267.395	27.343	1453.968	1174.626
268.409	27.319	1453.171	1173.725
269.424	27.308	1452.428	1172.953
270.439	27.332	1451.992	1172.653
271.453	27.281	1450.768	1171.231
272.468	27.312	1450.188	1170.859
273.482	27.256	1449.493	1169.830
274.497	27.292	1448.545	1169.193
275.512	27.425	1447.199	1168.856
276.526	27.460	1446.640	1168.527
277.541	27.381	1446.162	1167.533
278.555	27.366	1445.351	1166.681
279.570	27.334	1444.734	1165.873
280.585	27.398	1443.697	1165.342
281.599	27.429	1442.980	1164.857
282.614	27.395	1442.038	1163.777
283.628	27.480	1440.912	1163.310
284.643	27.343	1440.206	1161.759
285.657	27.440	1439.378	1161.611
286.672	27.489	1438.325	1160.967
287.687	27.342	1437.959	1159.635
288.701	27.481	1436.675	1159.378
289.716	27.497	1436.215	1159.008
290.730	27.562	1435.495	1158.737
291.745	27.430	1434.781	1157.219
292.760	27.459	1433.649	1156.392
293.774	27.502	1433.062	1156.088
294.789	27.530	1432.256	1155.514
295.803	27.623	1430.781	1154.806
296.818	27.542	1430.517	1153.977
297.833	27.519	1429.662	1153.043
298.847	27.621	1428.697	1152.809
299.862	27.623	1427.598	1151.832
300.876	27.586	1427.201	1151.172
301.891	27.548	1426.401	1150.187
302.906	27.585	1425.442	1149.544
303.920	27.758	1424.712	1149.948
304.935	27.673	1423.911	1148.665
305.949	27.643	1423.420	1147.979
306.964	27.621	1422.845	1147.271
307.979	27.676	1421.661	1146.561
308.993	27.720	1420.911	1146.131
310.008	27.673	1420.420	1145.340
311.022	27.655	1419.466	1144.357
312.037	27.668	1418.485	1143.544
313.052	27.766	1417.357	1143.151
314.066	27.657	1417.001	1142.077
315.081	27.638	1416.137	1141.163
316.095	27.745	1414.775	1140.635
317.110	27.757	1413.999	1139.980
318.125	27.781	1413.041	1139.258
319.139	27.860	1412.085	1138.875
320.154	27.817	1411.527	1138.061
321.168	27.754	1410.420	1136.673
322.183	27.789	1410.015	1136.463
323.197	27.751	1408.906	1135.232
324.212	27.809	1407.919	1134.697
325.227	27.782	1407.371	1133.990
326.241	27.840	1406.217	1133.317
327.256	27.966	1405.566	1133.475
328.270	27.870	1405.171	1132.463
329.285	27.904	1403.806	1131.470
330.300	27.925	1403.038	1130.885
331.314	27.854	1402.973	1130.292
332.329	27.853	1401.950	1129.361
333.343	28.015	1400.728	1129.280
334.358	27.990	1400.071	1128.493
335.373	27.975	1399.503	1127.844
336.387	28.047	1398.743	1127.574
337.402	27.928	1398.470	1126.521
338.416	27.912	1398.109	1126.030
339.431	27.964	1397.468	1125.733
340.446	28.003	1396.583	1125.164
341.460	28.083	1395.529	1124.708
342.475	28.163	1394.455	1124.231
343.489	28.178	1394.131	1123.963
344.504	28.047	1392.774	1121.966
345.519	28.045	1392.051	1121.273
346.533	28.028	1391.501	1120.627
347.548	28.054	1390.342	1119.753
348.562	28.107	1389.337	1119.170
349.577	28.105	1388.419	1118.317
350.592	28.144	1387.711	1117.889
351.606	28.092	1387.377	1117.205
352.621	28.063	1386.356	1116.105
353.635	28.065	1385.249	1115.124
354.650	28.097	1384.703	1114.784
355.665	28.146	1383.563	1114.068
356.679	28.160	1382.871	1113.493
357.694	28.187	1381.620	1112.554
358.708	28.252	1380.605	1112.032
359.723	28.193	1379.832	1110.950
360.738	28.136	1378.777	1109.662
361.752	28.259	1377.315	1109.127
362.767	28.211	1376.310	1107.933
363.781	28.252	1375.549	1107.471
364.796	28.227	1375.043	1106.814
365.810	28.236	1374.250	1106.129
366.825	28.259	1373.620	1105.662
367.840	28.341	1372.343	1105.033
368.854	28.417	1371.816	1104.970
369.869	28.379	1371.271	1104.202
370.883	28.311	1371.052	1103.519
371.898	28.296	1370.932	1103.236
372.913	28.385	1369.919	1102.858
373.927	28.388	1368.437	1101.583
374.942	28.388	1367.819	1100.989
375.956	28.383	1367.402	1100.530
376.971	28.474	1366.674	1100.392
377.986	28.296	1366.333	1098.952
379.000	28.442	1364.648	1098.373
380.015	28.487	1364.447	1098.382
381.029	28.521	1363.485	1097.714
382.044	28.456	1363.007	1096.846
383.059	28.507	1362.386	1096.550
384.073	28.455	1361.763	1095.642
385.088	28.426	1361.401	1095.085
386.102	28.527	1360.443	1094.818
387.117	28.532	1359.857	1094.282
388.132	28.434	1359.551	1093.354
389.146	28.453	1358.396	1092.438
390.161	28.490	1357.611	1091.934
391.175	28.589	1356.856	1091.815
392.190	28.626	1356.400	1091.572
393.205	28.611	1355.395	1090.576
394.219	28.559	1354.597	1089.529
395.234	28.616	1353.888	1089.200
396.248	28.699	1352.753	1088.688
397.263	28.647	1351.865	1087.567
398.278	28.773	1350.583	1087.186
399.292	28.738	1349.598	1086.087
400.307	28.771	1348.654	1085.428
401.321	28.808	1347.948	1084.981
402.336	28.802	1346.650	1083.806
403.350	28.709	1345.639	1082.348
404.365	28.782	1345.132	1082.276
405.380	28.763	1344.289	1081.389
406.394	28.778	1343.528	1080.771
407.409	28.802	1342.716	1080.161
408.423	28.787	1342.409	1079.728
409.438	28.856	1341.633	1079.415
410.453	28.858	1340.884	1078.729
411.467	28.864	1340.282	1078.185
412.482	28.859	1339.819	1077.686
413.496	28.885	1338.611	1076.772
414.511	28.866	1338.274	1076.293
415.526	28.885	1337.464	1075.662
416.540	28.774	1336.969	1074.519
417.555	28.877	1335.979	1074.230
418.569	28.817	1335.784	1073.629
419.584	28.769	1335.282	1072.850
420.599	28.917	1334.630	1073.094
421.613	91.343	1344.382	1432.023
422.628	91.111	1345.778	1432.135
