DTS Sentinel unit serial number:	SN413079Multiplexer serial number:	ORYXHardware model number:	OX4-SRSoftware version number:	ORYX F/W v4.00 Oryx Data Collector v3.7.2.0data status	okinstallation	princeton_trtdifferential loss correction	single-endedforward channel	channel 4reverse channel	N/Adate	2019/09/11time	15:59:11forward acquisition time	60.00reverse acquisition time	0.00gamma	496.2192k internal	0.2277k external	0.2277temperature offset calibration	1.0014default loss term (dB/km)	0.3790temperature slope calibration	1.0000multiplexer offset coefficient	1.0000multiplexer slope coefficient	1.0000fibre end	0.00T internal ref (°C)	43.05T ext. ref 1 (°C)	1.02T ext. ref 2 (°C)	38.31length (m)	temperature (°C)	Stokes	anti-Stokes-747.200	14.280	0.229	-0.184
-746.185	-200.000	0.010	0.077
-745.171	121.501	0.076	-0.097
-744.156	80.793	-0.077	-0.085
-743.142	800.000	0.042	-0.188
-742.127	800.000	0.062	0.244
-741.112	-200.000	-0.044	0.331
-740.098	800.000	0.143	0.477
-739.083	-200.000	-0.037	-0.469
-738.069	-40.935	-0.111	0.059
-737.054	-83.448	0.207	0.068
-736.039	-86.323	-0.266	-0.084
-735.025	800.000	-0.073	0.276
-734.010	705.443	-0.063	-0.171
-732.996	44.871	0.232	-0.220
-731.981	157.495	-0.168	-0.239
-730.966	-68.940	-0.224	0.089
-729.952	5.788	-0.294	-0.224
-728.937	-56.200	-0.202	0.093
-727.923	437.655	0.131	0.293
-726.908	-200.000	0.031	0.218
-725.894	174.842	0.082	0.122
-724.879	-200.000	-0.035	-0.261
-723.864	-120.593	-0.077	0.013
-722.850	800.000	-0.012	-0.037
-721.835	-70.465	-0.313	-0.122
-720.821	726.710	0.047	-0.130
-719.806	38.014	0.160	0.146
-718.791	-200.000	-0.023	-0.334
-717.777	30.521	0.220	-0.193
-716.762	-200.000	-0.026	0.409
-715.748	800.000	-0.092	0.324
-714.733	800.000	0.161	-0.535
-713.718	800.000	-0.087	0.261
-712.704	65.026	0.147	0.153
-711.689	-100.603	0.568	-0.144
-710.675	-155.426	0.233	0.016
-709.660	800.000	-0.058	0.182
-708.645	800.000	-0.113	-0.414
-707.631	143.892	0.142	0.194
-706.616	800.000	-0.071	0.318
-705.602	511.458	0.065	-0.156
-704.587	-200.000	0.090	-0.000
-703.572	-200.000	0.052	-0.344
-702.558	302.567	0.318	-0.606
-701.543	8.620	0.216	0.167
-700.529	800.000	0.063	-0.284
-699.514	-79.707	-0.309	0.107
-698.499	-5.239	-0.096	-0.068
-697.485	-130.406	-0.366	0.051
-696.470	457.757	0.092	-0.209
-695.456	88.222	0.061	-0.069
-694.441	-84.327	0.275	0.090
-693.426	-14.885	-0.084	0.056
-692.412	-200.000	-0.040	-0.211
-691.397	74.058	-0.252	0.271
-690.383	-200.000	-0.077	0.391
-689.368	138.318	0.105	-0.142
-688.354	-110.516	0.181	-0.039
-687.339	-117.362	-0.420	0.078
-686.324	-20.046	-0.051	0.032
-685.310	187.932	0.061	0.094
-684.295	-102.069	-0.138	-0.034
-683.281	105.364	-0.118	0.143
-682.266	-200.000	0.004	-0.129
-681.251	-200.000	-0.000	0.126
-680.237	137.355	-0.094	0.126
-679.222	-104.770	0.322	-0.076
-678.208	-1.877	-0.164	-0.118
-677.193	-92.773	-0.122	-0.035
-676.178	-61.430	0.112	-0.048
-675.164	-200.000	0.014	0.063
-674.149	64.507	0.131	-0.135
-673.135	-200.000	-0.054	0.311
-672.120	-68.159	-0.006	0.002
-671.105	88.934	-0.083	-0.095
-670.091	-200.000	-0.006	-0.156
-669.076	800.000	-0.057	0.201
-668.062	-125.371	-0.255	-0.040
-667.047	-23.455	-0.119	0.073
-666.032	-124.678	0.308	-0.049
-665.018	-200.000	-0.021	0.193
-664.003	800.000	-0.038	-0.154
-662.989	126.926	0.057	0.074
-661.974	800.000	0.087	-0.276
-660.959	-159.122	0.149	-0.009
-659.945	531.751	-0.065	-0.158
-658.930	-200.000	-0.018	-0.202
-657.916	-162.746	0.342	0.017
-656.901	209.282	-0.088	0.141
-655.886	231.401	0.241	-0.405
-654.872	-45.800	0.032	-0.016
-653.857	335.274	-0.125	0.249
-652.843	261.057	-0.095	0.169
-651.828	-101.506	-0.234	0.058
-650.814	35.344	-0.136	-0.123
-649.799	127.840	0.265	-0.345
-648.784	-108.532	0.348	0.077
-647.770	460.142	0.094	-0.215
-646.755	-87.157	-0.226	0.070
-645.741	-79.122	0.155	-0.054
-644.726	-95.049	-0.324	0.090
-643.711	800.000	-0.020	-0.082
-642.697	-76.439	0.284	-0.103
-641.682	-30.807	-0.109	-0.063
-640.668	800.000	0.056	-0.163
-639.653	24.042	0.316	-0.268
-638.638	66.048	0.303	-0.316
-637.624	48.520	-0.214	-0.206
-636.609	800.000	-0.108	-0.452
-635.595	-30.506	0.215	-0.125
-634.580	-27.025	0.196	0.117
-633.565	15.248	-0.190	-0.153
-632.551	-200.000	-0.018	0.236
-631.536	86.475	-0.080	0.090
-630.522	109.187	0.184	-0.226
-629.507	-145.751	-0.347	-0.032
-628.492	-200.000	-0.006	0.333
-627.478	-121.635	-0.255	-0.043
-626.463	-174.580	0.131	0.004
-625.449	-36.890	0.318	0.175
-624.434	-76.025	0.260	-0.094
-623.419	-14.067	-0.139	0.092
-622.405	-42.174	-0.275	0.144
-621.390	-121.798	0.296	0.050
-620.376	146.652	0.047	0.064
-619.361	-26.803	-0.265	0.159
-618.346	-152.011	0.084	-0.006
-617.332	196.996	-0.193	-0.301
-616.317	800.000	0.025	0.073
-615.303	57.753	-0.169	-0.169
-614.288	-55.697	0.184	-0.084
-613.273	247.733	0.072	-0.124
-612.259	-23.175	0.099	0.061
-611.244	1.400	-0.096	0.071
-610.230	-95.540	0.294	-0.081
-609.215	269.852	-0.057	-0.103
-608.201	-120.231	-0.244	-0.043
-607.186	-115.704	-0.288	0.055
-606.171	38.025	-0.076	-0.069
-605.157	-50.812	-0.380	-0.183
-604.142	-93.715	-0.051	-0.014
-603.128	1.251	-0.221	0.162
-602.113	-118.547	-0.319	-0.058
-601.098	491.821	0.033	0.077
-600.084	100.707	-0.205	0.245
-599.069	-79.144	-0.161	-0.056
-598.055	800.000	0.066	-0.212
-597.040	-77.932	0.100	-0.035
-596.025	-28.345	0.349	0.206
-595.011	-200.000	0.060	-0.300
-593.996	-49.292	-0.345	0.169
-592.982	800.000	0.054	0.217
-591.967	451.408	-0.072	0.164
-590.952	-200.000	-0.000	-0.159
-589.938	-26.398	0.030	0.018
-588.923	-158.892	0.122	0.007
-587.909	800.000	0.023	0.102
-586.894	350.680	-0.180	0.365
-585.879	42.832	-0.181	0.169
-584.865	28.047	0.251	-0.217
-583.850	-1.844	0.116	-0.084
-582.836	-8.120	-0.340	-0.235
-581.821	-200.000	0.055	-0.255
-580.806	-111.976	-0.146	-0.030
-579.792	138.850	0.164	0.221
-578.777	-71.412	0.176	-0.067
-577.763	-10.352	-0.041	0.028
-576.748	-70.645	-0.212	0.082
-575.733	-44.079	-0.278	-0.143
-574.719	-80.951	-0.096	0.033
-573.704	-33.372	-0.315	-0.179
-572.690	-60.508	0.191	-0.083
-571.675	-83.043	0.157	-0.052
-570.661	36.693	0.143	0.129
-569.646	-142.510	0.103	0.010
-568.631	-200.000	-0.001	0.015
-567.617	74.801	0.154	-0.166
-566.602	-200.000	-0.016	0.273
-565.588	-50.459	0.164	-0.079
-564.573	-68.764	-0.175	-0.069
-563.558	-52.357	-0.048	0.023
-562.544	-21.946	-0.079	0.049
-561.529	-82.699	-0.160	-0.053
-560.515	800.000	0.034	0.132
-559.500	-104.910	-0.100	0.024
-558.485	-200.000	-0.017	-0.087
-557.471	-200.000	0.045	0.336
-556.456	-25.149	0.359	0.218
-555.442	-200.000	0.012	-0.377
-554.427	118.809	-0.076	-0.097
-553.412	-77.568	-0.574	-0.203
-552.398	-116.419	-0.339	-0.064
-551.383	800.000	0.068	-0.263
-550.369	75.861	0.095	0.103
-549.354	-42.294	0.156	0.081
-548.339	121.830	0.335	-0.427
-547.325	-19.052	-0.122	-0.078
-546.310	470.489	-0.060	-0.139
-545.296	203.693	0.159	-0.252
-544.281	4.804	0.272	-0.204
-543.266	-196.599	-0.068	-0.000
-542.252	-112.400	-0.077	-0.016
-541.237	-36.257	-0.263	-0.145
-540.223	42.786	-0.297	0.277
-539.208	137.942	-0.144	0.193
-538.193	-2.581	-0.183	0.131
-537.179	-135.520	0.209	0.025
-536.164	161.681	-0.112	0.161
-535.150	45.778	-0.102	0.096
-534.135	-157.149	0.334	-0.021
-533.121	-7.946	0.206	0.142
-532.106	-18.155	-0.259	0.166
-531.091	-41.291	-0.079	-0.042
-530.077	-65.315	-0.185	0.076
-529.062	540.121	-0.036	-0.086
-528.048	450.436	-0.112	-0.252
-527.033	-122.152	0.241	0.040
-526.018	48.102	0.161	0.154
-525.004	-200.000	-0.113	0.000
-523.989	12.645	0.153	-0.121
-522.975	11.125	-0.175	-0.137
-521.960	-38.126	-0.109	0.059
-520.945	104.238	0.088	-0.106
-519.931	-50.241	0.249	0.120
-518.916	-200.000	0.017	0.230
-517.902	-114.893	-0.330	0.064
-516.887	101.981	-0.283	0.338
-515.872	-47.863	0.034	-0.017
-514.858	-200.000	-0.007	-0.253
-513.843	800.000	0.041	0.120
-512.829	800.000	-0.097	0.308
-511.814	-200.000	-0.049	0.242
-510.799	61.057	-0.103	-0.105
-509.785	145.302	0.078	0.107
-508.770	-67.796	0.252	0.101
-507.756	-68.877	0.171	0.068
-506.741	-92.849	0.225	0.064
-505.726	184.555	0.192	0.290
-504.712	-42.254	-0.135	0.070
-503.697	41.981	0.178	0.165
-502.683	-96.385	0.104	0.028
-501.668	225.607	-0.098	-0.163
-500.653	139.343	-0.080	0.108
-499.639	45.187	-0.253	0.238
-498.624	82.125	0.068	0.075
-497.610	-118.563	0.205	0.037
-496.595	2.533	0.176	0.130
-495.581	-34.945	-0.097	0.054
-494.566	800.000	-0.032	-0.135
-493.551	-200.000	-0.046	0.558
-492.537	-182.128	0.169	0.003
-491.522	800.000	-0.045	-0.137
-490.508	-157.636	-0.333	0.020
-489.493	-120.165	-0.223	0.039
-488.478	217.931	-0.159	0.258
-487.464	553.944	-0.040	-0.099
-486.449	-200.000	-0.032	0.246
-485.435	-27.486	0.286	0.170
-484.420	-97.933	-0.011	-0.003
-483.405	9.167	-0.285	-0.219
-482.391	-74.223	0.074	0.027
-481.376	169.034	0.083	0.120
-480.362	800.000	-0.060	-0.249
-479.347	27.179	0.354	0.303
-478.332	800.000	-0.049	-0.189
-477.318	35.200	0.107	-0.095
-476.303	-176.531	0.317	-0.008
-475.289	-97.969	0.251	-0.066
-474.274	0.917	-0.062	-0.046
-473.259	46.288	0.225	-0.212
-472.245	-97.995	0.123	-0.032
-471.230	-200.000	-0.005	-0.061
-470.216	47.710	-0.164	0.156
-469.201	-20.198	-0.188	-0.118
-468.186	-200.000	-0.010	0.166
-467.172	115.995	0.056	-0.070
-466.157	138.461	-0.087	-0.116
-465.143	-200.000	-0.001	-0.039
-464.128	44.267	0.085	-0.079
-463.113	-86.866	-0.100	-0.031
-462.099	-109.040	0.048	-0.010
-461.084	788.037	-0.027	-0.076
-460.070	95.464	-0.199	-0.231
-459.055	-166.240	-0.393	-0.017
-458.040	174.000	-0.041	0.060
-457.026	244.042	-0.131	-0.225
-456.011	258.168	0.126	-0.221
-454.997	-151.854	-0.069	0.005
-453.982	-13.772	-0.304	-0.200
-452.968	292.336	0.105	0.194
-451.953	49.558	-0.065	0.062
-450.938	-14.137	-0.172	0.113
-449.924	-200.000	-0.059	-0.343
-448.909	4.230	0.353	-0.263
-447.895	110.158	0.253	-0.309
-446.880	279.947	0.242	0.439
-445.865	-152.553	0.048	0.004
-444.851	-200.000	-0.022	-0.100
-443.836	137.411	0.099	0.132
-442.822	-34.985	0.196	-0.109
-441.807	-200.000	-0.029	-0.225
-440.792	287.914	-0.133	0.245
-439.778	-93.137	-0.278	0.079
-438.763	800.000	-0.082	-0.281
-437.749	-200.000	-0.040	0.196
-436.734	-17.988	0.033	0.021
-435.719	267.802	0.206	-0.368
-434.705	34.117	-0.119	-0.106
-433.690	47.694	0.190	0.180
-432.676	184.245	0.145	-0.219
-431.661	-150.371	-0.361	-0.028
-430.646	73.159	0.211	-0.225
-429.632	-91.767	-0.138	0.040
-428.617	800.000	0.046	0.134
-427.603	-200.000	-0.061	0.614
-426.588	489.653	0.078	0.182
-425.573	-21.676	-0.167	-0.104
-424.559	-88.510	0.409	0.124
-423.544	386.677	0.065	-0.137
-422.530	45.595	-0.209	-0.196
-421.515	-200.000	0.015	0.124
-420.500	-200.000	-0.008	-0.184
-419.486	5.193	0.170	-0.128
-418.471	-4.003	0.120	-0.085
-417.457	163.999	0.029	-0.041
-416.442	-76.171	-0.230	-0.083
-415.428	24.049	-0.349	0.293
-414.413	-63.557	-0.126	0.053
-413.398	222.288	0.192	-0.315
-412.384	-40.971	-0.199	-0.105
-411.369	800.000	-0.052	0.198
-410.355	-109.517	-0.133	0.029
-409.340	148.346	-0.101	0.138
-408.325	800.000	0.033	0.097
-407.311	-99.443	0.299	-0.077
-406.296	-200.000	-0.056	0.259
-405.282	800.000	-0.098	0.307
-404.267	-100.833	-0.088	0.022
-403.252	-112.684	0.089	-0.018
-402.238	266.044	0.203	-0.361
-401.223	137.471	0.290	-0.385
-400.209	45.360	-0.205	-0.192
-399.194	203.352	0.111	-0.174
-398.179	156.545	-0.072	0.101
-397.165	-200.000	0.010	-0.142
-396.150	-200.000	0.016	0.150
-395.136	358.630	-0.036	0.072
-394.121	-200.000	0.012	0.132
-393.106	-52.233	0.219	0.103
-392.092	-200.000	0.003	-0.283
-391.077	152.962	0.115	0.160
-390.063	800.000	-0.112	0.420
-389.048	-148.826	-0.170	-0.014
-388.033	-26.684	-0.193	-0.115
-387.019	89.714	0.095	0.107
-386.004	-200.000	-0.001	0.103
-384.990	-131.126	-0.005	0.001
-383.975	59.358	-0.133	0.134
-382.960	1.162	-0.293	0.214
-381.946	150.300	0.122	0.168
-380.931	800.000	0.031	-0.113
-379.917	-113.489	0.120	0.024
-378.902	350.270	0.183	0.367
-377.888	-71.907	0.152	-0.057
-376.873	-22.296	-0.354	0.218
-375.858	-108.440	0.372	0.081
-374.844	32.661	-0.260	0.229
-373.829	2.275	0.075	-0.055
-372.815	104.221	-0.065	-0.078
-371.800	-58.812	-0.200	0.088
-370.785	-110.719	-0.117	-0.024
-369.771	-200.000	0.012	0.169
-368.756	132.160	0.091	-0.119
-367.742	-53.400	-0.142	-0.066
-366.727	800.000	0.092	0.275
-365.712	202.057	0.132	0.206
-364.698	81.057	-0.169	0.185
-363.683	800.000	-0.120	0.389
-362.669	56.418	0.134	-0.132
-361.654	800.000	-0.041	-0.116
-360.639	-200.000	-0.021	-0.127
-359.625	-73.238	0.202	-0.075
-358.610	56.834	0.133	0.131
-357.596	-110.100	-0.187	-0.040
-356.581	266.087	0.067	0.119
-355.566	149.697	-0.041	-0.056
-354.552	498.262	0.032	0.074
-353.537	-17.023	0.361	-0.231
-352.523	83.857	0.098	0.108
-351.508	190.383	-0.136	0.208
-350.493	240.533	-0.064	0.108
-349.479	266.773	-0.058	-0.103
-348.464	-200.000	0.026	0.205
-347.450	-104.634	0.155	-0.036
-346.435	-28.132	-0.052	-0.030
-345.420	-166.202	0.245	0.010
-344.406	35.731	0.227	0.202
-343.391	72.142	-0.148	-0.156
-342.377	307.580	0.076	-0.144
-341.362	-151.668	-0.400	-0.030
-340.348	800.000	0.101	0.390
-339.333	-71.987	0.113	0.042
-338.318	-200.000	0.029	-0.215
-337.304	215.498	0.121	-0.195
-336.289	714.123	-0.012	-0.032
-335.275	18.368	0.006	0.005
-334.260	84.811	-0.121	0.134
-333.245	2.240	-0.251	0.184
-332.231	-200.000	-0.004	0.337
-331.216	-200.000	-0.033	0.234
-330.202	121.717	0.154	-0.195
-329.187	800.000	0.065	0.212
-328.172	-184.861	0.407	-0.007
-327.158	194.093	-0.067	0.103
-326.143	-200.000	0.030	0.200
-325.129	800.000	-0.045	-0.174
-324.114	450.672	0.076	0.171
-323.099	-200.000	-0.008	0.156
-322.085	-81.802	-0.272	0.090
-321.070	-3.911	0.096	-0.068
-320.056	688.596	0.070	-0.185
-319.041	800.000	0.132	-0.377
-318.026	161.091	0.076	0.107
-317.012	-200.000	0.020	-0.365
-315.997	800.000	0.008	0.031
-314.983	-200.000	0.017	-0.213
-313.968	-200.000	0.000	-0.089
-312.953	-74.247	-0.107	-0.039
-311.939	800.000	0.025	-0.084
-310.924	-200.000	0.051	0.278
-309.910	-85.512	-0.400	0.126
-308.895	531.094	0.093	-0.223
-307.880	-42.675	0.243	0.125
-306.866	-120.928	0.086	-0.015
-305.851	-200.000	0.047	-0.320
-304.837	-167.816	0.190	-0.008
-303.822	255.809	0.109	-0.190
-302.807	800.000	-0.070	-0.287
-301.793	-136.530	0.129	-0.015
-300.778	-200.000	-0.000	-0.057
-299.764	-72.344	-0.221	-0.083
-298.749	133.269	-0.036	0.047
-297.735	-189.094	0.133	0.002
-296.720	800.000	-0.035	-0.099
-295.705	-31.933	-0.417	-0.236
-294.691	-58.322	0.109	-0.048
-293.676	-200.000	0.012	-0.184
-292.662	7.916	-0.063	-0.048
-291.647	-108.619	0.123	0.027
-290.632	-40.990	0.158	-0.083
-289.618	115.879	-0.050	0.062
-288.603	-30.740	-0.213	0.122
-287.589	-200.000	-0.058	-0.640
-286.574	-67.596	-0.235	-0.093
-285.559	104.669	-0.114	0.136
-284.545	70.664	0.177	0.185
-283.530	30.374	-0.036	-0.031
-282.516	-45.907	-0.320	-0.160
-281.501	216.441	0.087	-0.140
-280.486	-145.087	0.250	-0.023
-279.472	39.514	0.178	0.162
-278.457	-160.637	0.176	0.009
-277.443	-39.395	-0.081	-0.043
-276.428	792.352	-0.076	-0.211
-275.413	8.450	-0.045	-0.034
-274.399	-54.596	0.240	0.110
-273.384	-18.334	-0.043	0.027
-272.370	84.092	0.154	0.170
-271.355	-97.983	0.349	-0.091
-270.340	800.000	-0.054	0.182
-269.326	47.454	-0.185	-0.174
-268.311	189.086	-0.111	-0.168
-267.297	31.890	-0.282	0.246
-266.282	-200.000	0.007	0.340
-265.267	800.000	-0.072	-0.292
-264.253	271.841	0.068	-0.122
-263.238	800.000	-0.008	-0.025
-262.224	-67.285	-0.155	0.061
-261.209	29.692	0.055	0.047
-260.195	199.179	-0.093	-0.144
-259.180	-200.000	0.008	-0.107
-258.165	84.820	0.174	0.193
-257.151	-51.469	0.295	0.139
-256.136	253.712	-0.263	-0.454
-255.122	-200.000	-0.006	0.043
-254.107	800.000	0.137	0.451
-253.092	800.000	0.044	-0.132
-252.078	-94.209	0.180	0.050
-251.063	-46.786	0.120	-0.059
-250.049	56.122	-0.133	-0.131
-249.034	800.000	0.103	-0.320
-248.019	-44.594	0.313	0.158
-247.005	159.971	0.214	0.301
-245.990	-160.687	0.256	0.014
-244.976	-200.000	0.021	0.238
-243.961	-151.968	0.233	-0.017
-242.946	-46.156	0.183	0.091
-241.932	-200.000	-0.029	0.287
-240.917	97.862	-0.112	-0.130
-239.903	-66.852	0.188	-0.075
-238.888	-113.461	-0.156	-0.031
-237.873	800.000	0.106	-0.307
-236.859	-200.000	0.003	-0.069
-235.844	-200.000	-0.071	0.314
-234.830	163.685	0.245	0.349
-233.815	373.289	-0.073	0.150
-232.800	-186.401	-0.294	0.004
-231.786	-200.000	0.004	0.097
-230.771	438.292	0.068	0.150
-229.757	-200.000	-0.028	-0.294
-228.742	800.000	-0.099	0.318
-227.727	-200.000	0.022	0.233
-226.713	-37.924	0.134	-0.072
-225.698	-97.027	-0.321	-0.085
-224.684	-200.000	-0.023	-0.186
-223.669	-26.385	0.170	0.100
-222.655	-95.003	0.319	-0.087
-221.640	800.000	-0.096	-0.367
-220.625	119.612	-0.230	0.287
-219.611	-200.000	0.011	-0.182
-218.596	-75.538	-0.138	-0.050
-217.582	262.726	-0.175	0.307
-216.567	-109.029	-0.202	0.043
-215.552	-200.000	0.052	0.446
-214.538	-132.127	0.138	-0.018
-213.523	620.346	-0.076	-0.194
-212.509	800.000	-0.005	-0.018
-211.494	-200.000	-0.036	-0.189
-210.479	267.103	-0.058	0.103
-209.465	78.295	-0.211	0.227
-208.450	-106.841	0.259	0.058
-207.436	-200.000	-0.020	-0.195
-206.421	21.017	-0.373	-0.305
-205.406	108.801	-0.099	-0.119
-204.392	49.475	0.214	-0.203
-203.377	145.641	-0.283	-0.382
-202.363	800.000	0.076	0.242
-201.348	-152.137	-0.018	0.001
-200.333	488.765	0.044	0.100
-199.319	496.717	0.047	0.109
-198.304	-145.759	-0.221	-0.020
-197.290	-108.190	-0.198	-0.043
-196.275	-152.587	-0.230	0.017
-195.260	-200.000	0.025	-0.192
-194.246	-200.000	0.019	0.413
-193.231	-200.000	-0.039	0.274
-192.217	800.000	0.015	0.056
-191.202	67.623	-0.083	0.085
-190.187	132.163	0.062	-0.080
-189.173	-43.112	0.289	-0.148
-188.158	-106.460	0.268	-0.060
-187.144	-132.892	-0.091	0.012
-186.129	42.991	-0.026	0.024
-185.114	-2.868	-0.272	0.192
-184.100	22.647	-0.377	-0.311
-183.085	-200.000	-0.003	-0.106
-182.071	-200.000	-0.037	-0.299
-181.056	800.000	0.076	0.260
-180.042	800.000	0.114	-0.401
-179.027	-65.402	0.126	-0.051
-178.012	-156.584	0.284	0.018
-176.998	7.620	0.129	-0.097
-175.983	-61.360	-0.202	0.086
-174.969	800.000	-0.088	0.289
-173.954	-200.000	-0.035	-0.199
-172.939	18.901	0.316	-0.255
-171.925	331.006	0.090	0.175
-170.910	230.358	0.061	-0.101
-169.896	60.040	-0.227	0.226
-168.881	6.622	-0.039	-0.029
-167.866	71.161	-0.098	-0.102
-166.852	800.000	-0.074	0.237
-165.837	-200.000	-0.042	-0.236
-164.823	-41.331	0.203	0.105
-163.808	2.659	0.071	0.052
-162.793	-49.454	-0.163	-0.078
-161.779	-92.259	-0.291	-0.083
-160.764	450.960	0.091	0.202
-159.750	-139.056	0.416	-0.045
-158.735	-145.033	0.240	0.022
-157.720	-200.000	-0.001	-0.007
-156.706	27.765	0.247	0.209
-155.691	800.000	-0.056	-0.205
-154.677	800.000	-0.079	0.266
-153.662	800.000	-0.019	0.065
-152.647	320.041	0.147	-0.281
-151.633	-162.737	-0.093	0.005
-150.618	-200.000	0.170	0.001
-149.604	-10.663	0.066	-0.044
-148.589	111.946	0.144	-0.176
-147.574	-95.290	0.065	-0.018
-146.560	-0.428	0.362	-0.259
-145.545	800.000	0.045	-0.189
-144.531	432.528	-0.051	0.111
-143.516	554.646	-0.060	0.144
-142.502	21.097	-0.263	0.215
-141.487	50.463	-0.286	-0.272
-140.472	19.169	-0.240	-0.194
-139.458	-184.014	0.397	-0.007
-138.443	-200.000	0.014	0.277
-137.429	800.000	-0.083	-0.279
-136.414	40.850	0.168	-0.152
-135.399	-200.000	-0.022	0.238
-134.385	91.048	0.041	-0.046
-133.370	-200.000	0.002	0.405
-132.356	-0.657	0.097	-0.069
-131.341	800.000	0.124	0.395
-130.326	547.617	-0.075	0.182
-129.312	-10.238	-0.297	0.198
-128.297	-200.000	0.225	0.001
-127.283	-62.508	-0.137	-0.057
-126.268	-100.838	0.247	0.061
-125.253	-200.000	0.019	0.162
-124.239	800.000	-0.010	0.027
-123.224	-200.000	0.005	0.306
-122.210	-67.050	0.213	0.084
-121.195	-128.968	0.094	-0.013
-120.180	127.558	0.148	-0.189
-119.166	-200.000	0.017	0.278
-118.151	189.639	0.081	0.122
-117.137	339.684	0.176	0.346
-116.122	335.051	-0.100	-0.195
-115.107	471.954	0.091	0.206
-114.093	-100.953	-0.089	-0.022
-113.078	245.077	-0.047	0.079
-112.064	-94.616	0.253	0.069
-111.049	35.550	-0.210	0.186
-110.034	112.572	-0.094	0.115
-109.020	152.790	0.110	-0.151
-108.005	144.759	-0.054	-0.073
-106.991	181.378	0.184	-0.273
-105.976	-78.247	0.350	0.121
-104.962	1.981	0.453	0.329
-103.947	153.868	-0.123	-0.170
-102.932	-93.609	0.071	0.020
-101.918	31.331	-0.222	-0.192
-100.903	-200.000	-0.070	-0.394
-99.889	800.000	-0.125	0.412
-98.874	-200.000	0.038	0.302
-97.859	-45.056	-0.151	0.075
-96.845	800.000	-0.082	0.328
-95.830	-200.000	0.012	-0.126
-94.816	-168.890	0.291	-0.011
-93.801	-70.019	0.130	-0.050
-92.786	-39.115	-0.318	-0.168
-91.772	80.871	0.153	0.166
-90.757	-178.721	-0.057	0.001
-89.743	-31.474	-0.244	0.138
-88.728	229.613	-0.185	-0.303
-87.713	-34.916	0.391	0.214
-86.699	580.545	-0.137	-0.337
-85.684	800.000	-0.109	0.413
-84.670	-19.034	0.096	0.060
-83.655	167.377	-0.101	-0.145
-82.640	104.054	-0.116	-0.137
-81.626	38.535	-0.123	-0.110
-80.611	25.464	0.195	0.163
-79.597	447.621	0.127	-0.280
-78.582	39.491	-0.016	-0.014
-77.567	-168.250	0.126	-0.005
-76.553	-134.940	-0.462	-0.056
-75.538	800.000	-0.057	-0.200
-74.524	-100.008	-0.203	-0.051
-73.509	-200.000	0.057	-0.444
-72.494	-60.129	-0.428	0.183
-71.480	800.000	0.008	-0.031
-70.465	72.288	-0.203	0.212
-69.451	259.154	0.136	0.235
-68.436	-200.000	-0.008	-0.209
-67.422	-169.289	0.041	-0.002
-66.407	-80.117	-0.063	0.021
-65.392	390.307	0.067	-0.139
-64.378	208.533	0.096	-0.151
-63.363	-200.000	0.007	-0.207
-62.349	800.000	0.066	0.244
-61.334	44.178	-0.638	-0.587
-60.319	34.725	0.269	0.236
-59.305	-200.000	-0.125	-0.682
-58.290	505.863	0.265	0.616
-57.276	346.751	0.846	1.669
-56.261	-200.000	73.767	538.645
-55.246	582.593	1292.722	3180.813
-54.232	144.683	2519.489	3375.925
-53.217	112.799	2368.721	2877.194
-52.203	50.605	2106.746	1998.869
-51.188	45.210	2014.122	1861.921
-50.173	43.303	1995.012	1826.934
-49.159	55.643	2030.670	1972.234
-48.144	61.166	2051.729	2042.920
-47.130	45.913	2017.104	1870.796
-46.115	43.074	2005.929	1834.561
-45.100	43.008	2003.433	1831.600
-44.086	43.021	2001.024	1829.447
-43.071	42.862	1999.252	1826.312
-42.057	42.898	1996.882	1824.396
-41.042	42.935	1994.449	1822.436
-40.027	42.969	1992.633	1821.019
-39.013	42.981	1990.628	1819.221
-37.998	42.987	1988.959	1817.678
-36.984	42.912	1987.401	1815.501
-35.969	43.099	1984.485	1814.450
-34.954	43.015	1983.371	1812.603
-33.940	43.036	1982.130	1811.590
-32.925	43.096	1979.873	1809.988
-31.911	43.054	1978.363	1808.158
-30.896	43.085	1976.368	1806.547
-29.881	43.063	1975.277	1805.282
-28.867	43.118	1973.448	1804.031
-27.852	43.130	1972.006	1802.749
-26.838	43.081	1969.757	1800.184
-25.823	43.085	1967.973	1798.511
-24.809	43.063	1966.536	1796.932
-23.794	43.036	1964.906	1795.129
-22.779	43.108	1963.077	1794.034
-21.765	43.018	1961.172	1791.414
-20.750	43.074	1959.738	1790.536
-19.736	43.034	1958.483	1788.959
-18.721	43.035	1956.625	1787.206
-17.706	43.085	1955.055	1786.142
-16.692	42.981	1953.505	1783.736
-15.677	43.030	1951.764	1782.506
-14.663	43.040	1950.316	1781.200
-13.648	43.115	1948.717	1780.332
-12.633	43.085	1947.814	1779.168
-11.619	42.938	1946.655	1776.746
-10.604	43.102	1944.846	1776.466
-9.590	43.036	1943.714	1774.786
-8.575	43.083	1942.059	1773.618
-7.560	43.076	1940.362	1771.936
-6.546	43.087	1939.210	1770.907
-5.531	43.079	1937.788	1769.474
-4.517	43.174	1936.720	1769.259
-3.502	43.062	1935.693	1767.270
-2.487	43.012	1934.472	1765.648
-1.473	43.079	1933.598	1765.361
-0.458	43.250	1929.333	1762.896
0.556	42.506	1911.153	1739.933
1.571	38.549	1891.685	1688.029
2.586	34.259	1912.281	1668.771
3.600	32.867	1949.600	1688.738
4.615	31.793	1947.211	1676.915
5.629	23.941	1840.015	1517.760
6.644	9.561	1704.887	1291.647
7.659	1.811	1657.456	1194.990
8.673	1.132	1653.472	1186.703
9.688	1.061	1652.082	1185.041
10.702	0.969	1650.295	1182.936
11.717	0.918	1647.846	1180.680
12.731	1.345	1647.228	1183.464
13.746	9.559	1668.539	1263.305
14.761	21.033	1693.388	1372.843
15.775	25.011	1698.849	1408.498
16.790	24.841	1698.413	1406.673
17.804	24.868	1697.661	1406.137
18.819	24.908	1696.584	1405.432
19.834	25.025	1695.734	1405.523
20.848	25.241	1695.125	1406.586
21.863	25.163	1694.472	1405.308
22.877	25.070	1693.906	1403.992
23.892	25.209	1692.502	1403.788
24.907	25.208	1691.588	1402.901
25.921	25.194	1690.355	1401.642
26.936	25.169	1689.759	1400.828
27.950	25.270	1688.149	1400.160
28.965	25.200	1688.048	1399.402
29.980	25.130	1687.322	1398.134
30.994	25.244	1685.456	1397.352
32.009	25.202	1684.147	1395.817
33.023	25.258	1683.381	1395.491
34.038	25.202	1682.535	1394.230
35.053	25.138	1681.743	1392.954
36.067	25.175	1680.751	1392.298
37.082	25.307	1679.188	1391.900
38.096	25.274	1678.050	1390.581
39.111	25.219	1677.930	1389.932
40.126	25.245	1676.890	1389.147
41.140	25.274	1676.327	1388.785
42.155	25.232	1675.037	1387.269
43.169	25.125	1674.304	1385.710
44.184	25.213	1673.151	1385.314
45.199	25.157	1672.278	1384.038
46.213	25.048	1671.452	1382.391
47.228	25.260	1669.666	1382.424
48.242	25.247	1668.460	1381.201
49.257	25.162	1667.394	1379.545
50.271	25.232	1665.983	1378.794
51.286	25.202	1665.113	1377.717
52.301	25.228	1663.516	1376.473
53.315	25.153	1662.446	1374.895
54.330	25.144	1661.037	1373.539
55.344	25.091	1659.904	1372.073
56.359	25.197	1658.285	1371.429
57.374	25.273	1657.055	1370.867
58.388	25.253	1656.007	1369.724
59.403	25.200	1655.103	1368.456
60.417	25.298	1653.803	1368.005
61.432	25.256	1653.077	1366.966
62.447	25.271	1652.038	1366.096
63.461	25.169	1651.476	1364.738
64.476	25.220	1650.355	1364.074
65.490	25.232	1649.270	1363.148
66.505	25.286	1648.177	1362.532
67.520	25.340	1647.327	1362.120
68.534	25.302	1645.879	1360.514
69.549	25.218	1644.876	1358.928
70.563	25.283	1643.879	1358.476
71.578	25.250	1642.375	1356.866
72.593	25.251	1642.019	1356.459
73.607	25.305	1640.665	1355.626
74.622	25.229	1640.253	1354.597
75.636	25.310	1638.964	1354.018
76.651	25.220	1638.770	1353.062
77.666	25.281	1637.817	1352.617
78.680	25.213	1636.686	1351.048
79.695	25.260	1636.090	1350.794
80.709	25.193	1634.504	1348.860
81.724	25.268	1633.801	1348.723
82.739	25.316	1632.836	1348.165
83.753	25.383	1631.598	1347.529
84.768	25.345	1630.925	1346.568
85.782	25.303	1630.437	1345.731
86.797	25.234	1629.541	1344.358
87.812	25.255	1628.563	1343.590
88.826	25.336	1627.062	1342.834
89.841	25.280	1626.615	1341.929
90.855	25.237	1625.779	1340.799
91.870	25.279	1624.649	1340.061
92.884	25.306	1623.504	1339.200
93.899	25.309	1622.308	1338.117
94.914	25.340	1621.393	1337.476
95.928	25.331	1619.842	1336.013
96.943	25.290	1619.328	1335.162
97.957	25.293	1618.223	1334.159
98.972	25.298	1616.783	1332.887
99.987	25.306	1615.439	1331.724
101.001	25.282	1614.292	1330.479
102.016	25.252	1612.792	1328.906
103.030	25.230	1610.996	1327.145
104.045	25.269	1610.271	1326.722
105.060	25.224	1609.307	1325.471
106.074	25.210	1607.495	1323.759
107.089	25.385	1606.516	1324.132
108.103	25.271	1605.735	1322.529
109.118	25.353	1604.415	1321.924
110.133	25.366	1603.024	1320.762
111.147	25.335	1601.911	1319.497
112.162	25.336	1601.131	1318.749
113.176	25.373	1599.894	1317.880
114.191	25.371	1598.650	1316.729
115.206	25.351	1597.266	1315.322
116.220	25.370	1596.561	1314.767
117.235	25.315	1595.527	1313.395
118.249	25.303	1594.136	1312.049
119.264	25.343	1592.916	1311.221
120.279	25.400	1591.411	1310.280
121.293	25.303	1591.045	1309.157
122.308	25.374	1589.653	1308.411
123.322	25.327	1587.923	1306.532
124.337	25.395	1586.849	1306.025
125.352	25.355	1586.331	1305.194
126.366	25.438	1584.996	1304.584
127.381	25.448	1584.475	1304.111
128.395	25.415	1583.187	1302.695
129.410	25.448	1582.257	1302.051
130.424	25.413	1581.326	1300.920
131.439	25.409	1580.161	1299.815
132.454	25.509	1578.629	1299.160
133.468	25.397	1577.951	1297.683
134.483	25.305	1576.826	1295.975
135.497	25.465	1575.046	1295.550
136.512	25.382	1574.252	1294.190
137.527	25.416	1572.768	1293.098
138.541	25.544	1571.574	1292.922
139.556	25.537	1570.060	1291.513
140.570	25.447	1569.355	1290.171
141.585	25.367	1568.272	1288.593
142.600	25.374	1567.129	1287.590
143.614	25.453	1565.761	1286.918
144.629	25.475	1564.636	1286.035
145.643	25.513	1563.564	1285.313
146.658	25.484	1562.204	1283.877
147.673	25.302	1561.215	1281.646
148.687	25.407	1559.972	1281.264
149.702	25.503	1558.704	1280.793
150.716	25.437	1557.100	1278.894
151.731	25.426	1556.192	1277.952
152.746	25.337	1555.935	1276.999
153.760	25.455	1553.925	1276.073
154.775	25.465	1553.006	1275.275
155.789	25.393	1552.143	1273.946
156.804	25.383	1551.718	1273.415
157.819	25.396	1550.802	1272.639
158.833	25.456	1549.148	1271.598
159.848	25.431	1548.000	1270.361
160.862	25.498	1547.372	1270.212
161.877	25.528	1546.191	1269.339
162.892	25.423	1545.304	1267.757
163.906	25.526	1544.040	1267.331
164.921	25.507	1543.401	1266.561
165.935	25.454	1542.462	1265.306
166.950	25.451	1541.477	1264.369
167.964	25.524	1540.500	1263.963
168.979	25.505	1539.521	1262.916
169.994	25.450	1539.106	1262.083
171.008	25.510	1538.003	1261.485
172.023	25.654	1536.596	1261.227
173.037	25.639	1535.589	1260.187
174.052	25.558	1534.391	1258.521
175.067	25.477	1534.351	1257.813
176.081	25.591	1532.440	1256.931
177.096	25.641	1531.818	1256.661
178.110	25.584	1530.650	1255.191
179.125	25.642	1529.435	1254.488
180.140	25.593	1528.510	1253.279
181.154	25.660	1527.851	1253.090
182.169	25.665	1527.230	1252.509
183.183	25.627	1526.314	1251.383
184.198	25.599	1525.349	1250.286
185.213	25.488	1524.993	1249.112
186.227	25.611	1523.471	1248.605
187.242	25.560	1523.248	1247.962
188.256	25.700	1521.808	1247.640
189.271	25.635	1520.960	1246.388
190.286	25.645	1520.053	1245.602
191.300	25.747	1518.990	1245.323
192.315	25.729	1518.263	1244.495
193.329	25.600	1517.849	1243.155
194.344	25.662	1516.463	1242.333
195.359	25.646	1515.782	1241.555
196.373	25.786	1515.086	1241.845
197.388	25.607	1514.555	1240.067
198.402	25.552	1513.374	1238.608
199.417	25.572	1511.902	1237.435
200.432	25.519	1511.381	1236.534
201.446	25.634	1510.714	1236.670
202.461	25.675	1509.852	1236.131
203.475	25.619	1509.064	1234.998
204.490	25.652	1508.066	1234.297
205.504	25.653	1507.324	1233.589
206.519	25.643	1506.669	1232.873
207.534	25.713	1505.681	1232.434
208.548	25.768	1505.037	1232.176
209.563	25.769	1504.065	1231.276
210.577	25.644	1502.914	1229.368
211.592	25.725	1502.288	1229.303
212.607	25.730	1501.436	1228.532
213.621	25.704	1501.114	1227.984
214.636	25.811	1500.028	1227.716
215.650	25.799	1499.491	1227.086
216.665	25.703	1498.727	1225.699
217.680	25.741	1497.747	1225.047
218.694	25.792	1496.931	1224.619
219.709	25.788	1496.403	1224.047
220.723	25.810	1495.068	1222.999
221.738	25.830	1494.133	1222.261
222.753	25.806	1493.406	1221.394
223.767	25.730	1492.490	1220.026
224.782	25.671	1492.155	1219.243
225.796	25.729	1491.054	1218.625
226.811	25.860	1490.198	1218.704
227.826	25.884	1489.342	1218.059
228.840	25.867	1488.472	1217.127
229.855	25.842	1488.145	1216.581
230.869	25.872	1487.055	1215.783
231.884	25.787	1486.211	1214.412
232.899	25.795	1485.133	1213.482
233.913	25.805	1484.390	1212.830
234.928	25.819	1483.418	1212.028
235.942	25.920	1482.354	1211.729
236.957	25.933	1481.372	1210.905
237.972	25.926	1480.096	1209.706
238.986	25.895	1479.090	1208.572
240.001	25.883	1478.336	1207.770
241.015	25.932	1477.342	1207.174
242.030	26.002	1476.350	1206.725
243.045	26.095	1475.173	1206.280
244.059	26.001	1474.955	1205.366
245.074	26.014	1474.079	1204.632
246.088	26.013	1472.855	1203.519
247.103	26.063	1472.309	1203.297
248.117	26.091	1471.413	1202.646
249.132	25.989	1471.149	1201.641
250.147	26.038	1470.399	1201.249
251.161	26.037	1469.356	1200.286
252.176	26.177	1468.882	1200.723
253.190	26.137	1467.801	1199.469
254.205	26.076	1467.535	1198.737
255.220	26.162	1466.269	1198.173
256.234	26.158	1465.402	1197.332
257.249	26.047	1464.858	1196.041
258.263	26.148	1463.994	1195.902
259.278	26.210	1462.932	1195.340
260.293	26.114	1462.162	1193.971
261.307	26.134	1461.579	1193.521
262.322	26.138	1460.621	1192.657
263.336	26.109	1460.548	1192.298
264.351	26.112	1459.262	1191.165
265.366	26.139	1458.197	1190.371
266.380	26.128	1457.689	1189.777
267.395	26.219	1456.442	1189.253
268.409	26.276	1455.541	1188.785
269.424	26.148	1454.889	1187.303
270.439	26.221	1453.912	1186.886
271.453	26.183	1453.112	1185.873
272.468	26.280	1452.235	1185.693
273.482	26.300	1451.592	1185.195
274.497	26.242	1450.980	1184.211
275.512	26.171	1450.287	1183.076
276.526	26.332	1449.205	1183.138
277.541	26.302	1448.730	1182.451
278.555	26.277	1448.052	1181.627
279.570	26.289	1447.380	1181.052
280.585	26.281	1446.352	1180.063
281.599	26.282	1445.361	1179.155
282.614	26.351	1444.453	1178.759
283.628	26.341	1443.587	1177.879
284.643	26.300	1442.516	1176.637
285.657	26.411	1441.060	1176.067
286.672	26.276	1440.640	1174.743
287.687	26.299	1439.668	1173.993
288.701	26.397	1439.130	1174.092
289.716	26.379	1438.504	1173.360
290.730	26.428	1437.905	1173.085
291.745	26.410	1436.751	1171.920
292.760	26.422	1436.228	1171.470
293.774	26.448	1435.126	1170.634
294.789	26.481	1434.158	1169.958
295.803	26.432	1433.617	1169.094
296.818	26.464	1432.891	1168.607
297.833	26.398	1431.962	1167.316
298.847	26.373	1431.233	1166.460
299.862	26.398	1430.636	1166.030
300.876	26.445	1429.780	1165.529
301.891	26.517	1428.518	1164.862
302.906	26.543	1427.690	1164.249
303.920	26.538	1427.448	1163.919
304.935	26.487	1426.764	1162.929
305.949	26.506	1426.028	1162.351
306.964	26.566	1424.955	1161.759
307.979	26.528	1424.323	1160.897
308.993	26.541	1423.046	1159.833
310.008	26.612	1422.017	1159.352
311.022	26.631	1421.269	1158.759
312.037	26.588	1420.150	1157.469
313.052	26.613	1420.026	1157.427
314.066	26.595	1418.762	1156.180
315.081	26.611	1417.971	1155.530
316.095	26.676	1416.801	1154.890
317.110	26.587	1416.329	1153.834
318.125	26.691	1415.087	1153.385
319.139	26.767	1414.064	1152.932
320.154	26.747	1413.152	1151.963
321.168	26.659	1412.513	1150.778
322.183	26.674	1411.788	1150.179
323.197	26.743	1410.842	1149.746
324.212	26.701	1410.057	1148.741
325.227	26.715	1409.206	1148.035
326.241	26.624	1408.926	1147.129
327.256	26.636	1408.186	1146.496
328.270	26.823	1406.978	1146.598
329.285	26.763	1406.188	1145.468
330.300	26.780	1405.562	1144.964
331.314	26.887	1404.484	1144.660
332.329	26.827	1403.762	1143.597
333.343	26.789	1403.055	1142.679
334.358	26.935	1402.187	1142.789
335.373	26.821	1401.774	1141.635
336.387	26.895	1401.311	1141.625
337.402	26.857	1400.006	1140.218
338.416	26.967	1399.605	1140.481
339.431	26.869	1399.377	1139.578
340.446	26.978	1398.450	1139.409
341.460	26.927	1397.484	1138.198
342.475	26.974	1396.708	1137.760
343.489	26.991	1396.006	1137.195
344.504	27.024	1394.808	1136.326
345.519	26.973	1394.055	1135.293
346.533	26.939	1393.346	1134.404
347.548	27.072	1392.097	1134.119
348.562	27.050	1391.297	1133.228
349.577	27.048	1390.665	1132.599
350.592	26.956	1390.068	1131.439
351.606	27.013	1388.920	1130.761
352.621	26.974	1387.867	1129.558
353.635	27.003	1387.569	1129.396
354.650	27.111	1386.361	1128.985
355.665	27.075	1385.614	1128.052
356.679	27.021	1384.665	1126.849
357.694	27.082	1383.926	1126.523
358.708	27.181	1382.590	1125.952
359.723	27.151	1381.398	1124.695
360.738	27.052	1380.647	1123.372
361.752	27.067	1379.385	1122.338
362.767	27.066	1378.545	1121.551
363.781	27.095	1377.499	1120.777
364.796	27.209	1376.788	1120.803
365.810	27.240	1376.026	1120.277
366.825	27.183	1375.494	1119.390
367.840	27.270	1374.553	1119.060
368.854	27.264	1374.178	1118.619
369.869	27.237	1373.976	1118.189
370.883	27.273	1373.020	1117.535
371.898	27.129	1372.792	1116.365
372.913	27.300	1371.560	1116.311
373.927	27.143	1370.929	1114.738
374.942	27.341	1369.937	1115.044
375.956	27.363	1369.242	1114.516
376.971	27.334	1368.502	1113.639
377.986	27.296	1367.636	1112.604
379.000	27.324	1366.646	1111.873
380.015	27.248	1366.360	1111.076
381.029	27.371	1365.756	1111.234
382.044	27.318	1364.882	1110.103
383.059	27.337	1364.388	1109.717
384.073	27.474	1363.489	1109.725
385.088	27.463	1362.932	1109.107
386.102	27.371	1362.577	1108.157
387.117	27.481	1361.499	1107.855
388.132	27.471	1360.691	1107.039
389.146	27.459	1360.217	1106.479
390.161	27.461	1359.415	1105.746
391.175	27.454	1358.724	1105.043
392.190	27.453	1358.287	1104.584
393.205	27.577	1357.297	1104.427
394.219	27.513	1356.507	1103.304
395.234	27.546	1355.318	1102.437
396.248	27.527	1354.629	1101.662
397.263	27.554	1353.825	1101.078
398.278	27.650	1352.157	1100.204
399.292	27.574	1351.569	1099.166
400.307	27.641	1350.535	1098.631
401.321	27.695	1349.488	1098.008
402.336	27.644	1348.830	1097.070
403.350	27.442	1348.173	1095.223
404.365	27.536	1347.193	1094.894
405.380	27.592	1346.057	1094.209
406.394	27.635	1345.437	1093.868
407.409	27.754	1344.270	1093.534
408.423	27.708	1343.728	1092.720
409.438	27.762	1342.971	1092.333
410.453	27.789	1342.271	1091.831
411.467	27.773	1341.834	1091.279
412.482	27.746	1341.412	1090.679
413.496	27.806	1340.579	1090.261
414.511	27.836	1339.747	1089.671
415.526	27.848	1338.743	1088.828
416.540	27.713	1338.652	1087.853
417.555	27.728	1337.733	1087.101
418.569	27.705	1337.438	1086.629
419.584	27.764	1336.950	1086.485
420.599	27.758	1336.506	1085.995
421.613	73.242	1316.075	1327.819
422.628	73.841	1313.083	1327.961
