DTS Sentinel unit serial number:	SN413079Multiplexer serial number:	ORYXHardware model number:	OX4-SRSoftware version number:	ORYX F/W v4.00 Oryx Data Collector v3.7.2.0data status	okinstallation	princeton_trtdifferential loss correction	single-endedforward channel	channel 4reverse channel	N/Adate	2019/09/11time	15:35:10forward acquisition time	60.00reverse acquisition time	0.00gamma	496.2192k internal	0.2278k external	0.2278temperature offset calibration	1.0016default loss term (dB/km)	0.3790temperature slope calibration	1.0000multiplexer offset coefficient	1.0000multiplexer slope coefficient	1.0000fibre end	0.00T internal ref (°C)	42.81T ext. ref 1 (°C)	1.03T ext. ref 2 (°C)	37.29length (m)	temperature (°C)	Stokes	anti-Stokes-747.200	-97.971	0.290	0.077
-746.185	-1.182	0.057	-0.041
-745.171	332.115	-0.082	0.162
-744.156	-17.389	-0.197	0.128
-743.142	-200.000	-0.004	-0.204
-742.127	657.191	0.082	0.216
-741.112	-200.000	0.003	-0.044
-740.098	632.577	-0.225	0.587
-739.083	472.331	-0.061	-0.141
-738.069	94.818	0.080	-0.094
-737.054	-41.351	0.313	0.166
-736.039	558.044	-0.077	-0.191
-735.025	5.700	0.177	0.135
-734.010	22.479	-0.423	-0.357
-732.996	-50.201	-0.397	-0.194
-731.981	-200.000	0.015	-0.286
-730.966	72.226	-0.060	-0.065
-729.952	34.676	-0.137	0.123
-728.937	-28.584	-0.218	-0.129
-727.923	227.059	-0.100	-0.166
-726.908	136.543	-0.093	0.125
-725.894	9.854	0.169	-0.132
-724.879	-96.360	-0.366	0.100
-723.864	-67.170	-0.118	0.048
-722.850	434.720	0.074	-0.166
-721.835	483.565	-0.089	-0.209
-720.821	189.684	0.033	0.051
-719.806	-109.628	0.341	-0.074
-718.791	-20.257	-0.075	0.047
-717.777	346.750	0.072	-0.145
-716.762	800.000	0.051	0.163
-715.748	717.969	-0.111	0.303
-714.733	193.440	0.070	-0.109
-713.718	-200.000	-0.012	-0.082
-712.704	104.892	0.013	-0.016
-711.689	2.095	0.185	-0.137
-710.675	-98.602	0.205	-0.054
-709.660	146.178	-0.088	-0.121
-708.645	-200.000	0.014	-0.370
-707.631	682.122	-0.077	-0.205
-706.616	-109.206	-0.224	-0.049
-705.602	-16.045	0.097	0.064
-704.587	91.055	0.131	-0.151
-703.572	-200.000	0.016	0.148
-702.558	-94.580	0.119	-0.033
-701.543	172.858	0.155	0.230
-700.529	31.134	-0.216	0.190
-699.514	-12.671	0.247	-0.165
-698.499	-165.420	0.322	0.014
-697.485	800.000	0.087	0.335
-696.470	-200.000	0.010	0.120
-695.456	800.000	-0.074	0.272
-694.441	-200.000	0.020	0.289
-693.426	312.933	0.086	-0.167
-692.412	371.225	0.104	-0.218
-691.397	800.000	-0.075	-0.215
-690.383	228.266	-0.144	-0.240
-689.368	-128.652	-0.231	0.034
-688.354	108.238	-0.278	0.341
-687.339	-46.642	-0.179	-0.090
-686.324	363.131	-0.131	-0.270
-685.310	-200.000	0.017	-0.258
-684.295	-200.000	-0.002	0.106
-683.281	-67.957	0.179	-0.072
-682.266	143.152	0.334	0.457
-681.251	139.591	-0.090	-0.121
-680.237	296.954	-0.227	0.429
-679.222	-133.500	0.366	0.047
-678.208	-200.000	0.046	0.286
-677.193	-200.000	-0.011	-0.087
-676.178	183.931	-0.150	-0.228
-675.164	177.504	0.068	-0.102
-674.149	563.420	-0.041	0.101
-673.135	9.951	0.173	0.135
-672.120	71.105	-0.025	0.027
-671.105	-139.546	0.176	-0.019
-670.091	207.046	-0.049	-0.079
-669.076	-26.527	0.140	0.084
-668.062	-200.000	0.004	-0.309
-667.047	-200.000	-0.034	0.196
-666.032	-200.000	0.023	0.142
-665.018	254.334	0.236	0.415
-664.003	800.000	-0.022	-0.068
-662.989	800.000	0.071	-0.212
-661.974	447.819	0.059	0.133
-660.959	26.777	-0.136	0.117
-659.945	236.777	0.155	0.264
-658.930	236.915	0.157	0.267
-657.916	210.619	0.080	-0.129
-656.901	800.000	0.031	-0.092
-655.886	-71.335	-0.073	-0.028
-654.872	83.131	0.054	0.060
-653.857	-200.000	0.006	-0.282
-652.843	255.399	0.178	-0.314
-651.828	109.644	0.049	0.060
-650.814	-132.525	0.069	-0.009
-649.799	73.189	-0.018	0.020
-648.784	38.920	0.182	0.167
-647.770	688.140	-0.056	-0.149
-646.755	32.171	0.208	0.184
-645.741	27.582	-0.259	0.223
-644.726	-3.762	0.267	0.190
-643.711	-55.215	-0.410	-0.189
-642.697	-200.000	0.003	-0.063
-641.682	26.316	0.318	0.273
-640.668	800.000	0.030	0.133
-639.653	50.967	0.112	-0.108
-638.638	-200.000	0.002	-0.158
-637.624	-126.715	-0.072	0.011
-636.609	448.478	-0.040	-0.090
-635.595	-200.000	0.045	0.240
-634.580	-145.018	-0.057	0.005
-633.565	-200.000	-0.016	-0.326
-632.551	-144.468	0.325	-0.031
-631.536	242.161	-0.121	0.207
-630.522	-200.000	-0.026	0.263
-629.507	8.479	0.271	-0.209
-628.492	16.202	-0.050	0.040
-627.478	-200.000	0.004	0.490
-626.463	-58.577	-0.165	0.073
-625.449	-49.227	-0.210	0.103
-624.434	-86.351	0.279	0.088
-623.419	-12.817	0.215	0.144
-622.405	-200.000	-0.136	0.000
-621.390	-60.852	0.397	0.172
-620.376	193.509	0.105	0.163
-619.361	-11.165	0.145	-0.098
-618.346	132.376	0.091	0.120
-617.332	111.066	-0.180	0.223
-616.317	-100.660	0.340	-0.086
-615.303	87.585	0.285	-0.324
-614.288	566.300	-0.123	-0.305
-613.273	135.551	-0.162	0.216
-612.259	8.388	0.204	-0.157
-611.244	-200.000	-0.019	-0.183
-610.230	-30.438	0.139	-0.081
-609.215	-183.060	-0.262	-0.005
-608.201	15.223	0.190	-0.153
-607.186	-200.000	-0.011	0.093
-606.171	30.662	-0.225	0.197
-605.157	800.000	-0.112	-0.390
-604.142	-69.843	0.290	0.113
-603.128	73.244	0.348	-0.372
-602.113	31.687	-0.219	0.193
-601.098	800.000	0.044	0.137
-600.084	13.429	-0.053	-0.042
-599.069	-200.000	-0.032	0.153
-598.055	360.663	-0.066	-0.136
-597.040	-91.364	0.053	0.016
-596.025	437.809	-0.028	0.061
-595.011	800.000	0.111	0.318
-593.996	800.000	-0.056	-0.184
-592.982	-92.429	-0.199	0.057
-591.967	-200.000	-0.006	-0.275
-590.952	-20.999	-0.079	0.050
-589.938	59.220	0.167	-0.168
-588.923	-13.130	0.162	-0.108
-587.909	-134.185	0.161	0.020
-586.894	800.000	-0.015	-0.063
-585.879	34.224	-0.188	-0.167
-584.865	-200.000	0.007	-0.091
-583.850	53.181	-0.214	0.210
-582.836	-5.058	0.109	0.077
-581.821	-118.358	0.137	0.025
-580.806	-32.691	-0.116	0.066
-579.792	149.890	0.098	-0.136
-578.777	-102.744	-0.233	0.057
-577.763	-94.245	-0.182	0.051
-576.748	21.682	-0.234	-0.195
-575.733	63.857	-0.164	0.169
-574.719	368.271	0.196	-0.405
-573.704	164.843	0.207	0.298
-572.690	-153.346	-0.235	-0.017
-571.675	-6.054	0.120	-0.084
-570.661	800.000	0.103	0.296
-569.646	231.897	-0.204	0.343
-568.631	-67.399	-0.241	0.097
-567.617	1.163	0.105	0.077
-566.602	291.581	0.161	-0.300
-565.588	-200.000	0.036	0.334
-564.573	-1.126	0.179	-0.129
-563.558	-127.742	-0.168	-0.025
-562.544	-100.720	-0.262	0.066
-561.529	-200.000	0.016	-0.298
-560.515	800.000	-0.067	0.192
-559.500	-68.376	-0.368	0.146
-558.485	-200.000	-0.019	0.261
-557.471	25.229	0.251	-0.213
-556.456	77.017	-0.266	0.289
-555.442	-84.899	-0.142	-0.046
-554.427	800.000	0.010	0.041
-553.412	28.966	0.103	0.089
-552.398	-100.737	0.148	-0.037
-551.383	-18.745	-0.208	-0.132
-550.369	-200.000	0.018	-0.088
-549.354	-82.414	0.084	0.028
-548.339	-30.664	0.109	-0.063
-547.325	25.158	-0.107	-0.091
-546.310	-24.118	-0.198	0.121
-545.296	-7.323	-0.414	-0.287
-544.281	98.530	-0.118	-0.138
-543.266	-130.458	0.327	0.045
-542.252	-200.000	-0.035	-0.244
-541.237	-135.425	0.036	0.004
-540.223	-200.000	-0.032	0.335
-539.208	-62.736	-0.121	-0.051
-538.193	800.000	0.100	-0.311
-537.179	190.282	0.117	0.179
-536.164	130.840	0.151	-0.198
-535.150	-111.204	-0.459	0.096
-534.135	257.736	-0.050	-0.087
-533.121	800.000	0.094	-0.270
-532.106	329.962	0.131	0.257
-531.091	799.753	-0.058	0.164
-530.077	800.000	-0.089	0.321
-529.062	-77.752	0.148	-0.052
-528.048	-200.000	0.012	-0.283
-527.033	-157.055	-0.099	-0.006
-526.018	-200.000	-0.022	-0.189
-525.004	-34.746	0.282	0.158
-523.989	208.571	-0.102	-0.162
-522.975	374.640	-0.135	0.280
-521.960	431.261	-0.068	0.151
-520.945	506.468	0.168	0.398
-519.931	-66.054	-0.134	-0.055
-518.916	5.456	-0.182	-0.137
-517.902	-200.000	0.011	-0.183
-516.887	-170.610	-0.476	-0.017
-515.872	800.000	0.032	0.137
-514.858	-77.302	0.313	0.111
-513.843	93.898	-0.132	0.153
-512.829	235.975	0.060	0.101
-511.814	-200.000	0.000	-0.071
-510.799	-82.657	-0.398	0.132
-509.785	-25.326	0.099	-0.060
-508.770	12.541	0.186	0.146
-507.756	140.723	0.111	0.150
-506.741	-200.000	0.006	-0.049
-505.726	59.627	0.281	-0.283
-504.712	-155.557	0.021	0.001
-503.697	-196.290	0.278	-0.002
-502.683	-19.706	0.219	-0.138
-501.668	-186.255	0.122	-0.002
-500.653	49.012	-0.282	-0.270
-499.639	-18.607	0.332	0.211
-498.624	-124.838	-0.301	0.047
-497.610	386.521	0.027	0.057
-496.595	-136.618	-0.040	-0.005
-495.581	-139.726	0.252	-0.027
-494.566	-1.264	-0.099	-0.071
-493.551	800.000	0.047	-0.201
-492.537	154.845	0.132	0.185
-491.522	4.927	0.053	-0.040
-490.508	327.872	0.091	0.178
-489.493	-94.923	-0.092	-0.025
-488.478	-200.000	0.004	0.034
-487.464	222.401	0.109	-0.179
-486.449	137.586	-0.172	-0.230
-485.435	289.142	0.167	0.309
-484.420	-20.295	0.230	0.144
-483.405	-20.709	-0.322	0.201
-482.391	-101.344	0.220	-0.055
-481.376	71.598	0.248	0.263
-480.362	800.000	-0.062	0.247
-479.347	233.238	0.243	-0.407
-478.332	105.128	0.169	0.203
-477.318	-101.118	0.123	-0.031
-476.303	-86.478	0.256	0.080
-475.289	115.765	0.059	0.074
-474.274	156.712	0.172	-0.243
-473.259	-45.808	-0.145	-0.073
-472.245	478.495	-0.040	0.093
-471.230	-200.000	0.004	0.138
-470.216	-39.283	0.358	-0.191
-469.201	286.355	-0.086	-0.158
-468.186	421.268	0.139	-0.305
-467.172	320.142	-0.100	0.194
-466.157	-84.894	-0.220	0.070
-465.143	-149.565	-0.192	-0.015
-464.128	410.423	-0.128	-0.276
-463.113	800.000	-0.060	0.204
-462.099	800.000	-0.092	-0.258
-461.084	800.000	-0.044	-0.179
-460.070	245.513	-0.084	0.144
-459.055	53.794	-0.207	-0.203
-458.040	0.984	-0.047	-0.034
-457.026	187.505	0.163	-0.248
-456.011	122.884	0.144	-0.183
-454.997	-200.000	0.017	-0.296
-453.982	-18.827	0.095	-0.060
-452.968	209.630	-0.183	0.292
-451.953	-102.110	0.191	-0.047
-450.938	-15.957	0.267	-0.173
-449.924	163.418	-0.189	-0.271
-448.909	-33.913	0.323	0.181
-447.895	-200.000	-0.006	-0.060
-446.880	258.103	0.116	0.203
-445.865	800.000	-0.081	0.259
-444.851	157.236	-0.132	-0.186
-443.836	315.942	0.069	-0.133
-442.822	230.869	0.114	0.190
-441.807	800.000	-0.136	0.557
-440.792	53.615	0.091	0.089
-439.778	78.481	0.206	0.224
-438.763	-93.476	-0.212	-0.060
-437.749	-200.000	0.037	0.283
-436.734	-32.857	0.243	0.137
-435.719	-93.937	-0.361	0.101
-434.705	-200.000	-0.011	0.135
-433.690	-38.620	0.122	0.066
-432.676	223.014	0.134	-0.220
-431.661	-115.963	-0.131	0.025
-430.646	108.322	0.092	-0.112
-429.632	104.586	-0.062	0.075
-428.617	-56.912	-0.227	0.102
-427.603	800.000	0.009	0.027
-426.588	-32.231	-0.143	-0.081
-425.573	-178.195	-0.382	-0.009
-424.559	-2.555	-0.105	-0.075
-423.544	-161.510	-0.411	0.022
-422.530	-200.000	0.064	0.332
-421.515	-77.707	0.187	0.066
-420.500	-118.299	0.125	-0.023
-419.486	273.178	0.028	0.051
-418.471	-62.326	-0.255	0.108
-417.457	-2.616	-0.142	-0.101
-416.442	-168.614	-0.100	-0.004
-415.428	800.000	0.031	-0.121
-414.413	-200.000	0.014	-0.073
-413.398	800.000	0.099	-0.398
-412.384	403.825	0.117	0.250
-411.369	-200.000	0.001	-0.062
-410.355	75.812	0.119	0.128
-409.340	-0.432	0.228	0.164
-408.325	147.385	0.049	0.067
-407.311	-200.000	-0.019	-0.242
-406.296	-200.000	-0.061	-0.348
-405.282	-112.299	-0.182	0.037
-404.267	-85.296	0.309	-0.098
-403.252	800.000	-0.052	-0.228
-402.238	800.000	-0.059	0.232
-401.223	-101.099	-0.069	-0.017
-400.209	111.047	0.170	0.208
-399.194	445.261	0.185	-0.413
-398.179	28.027	-0.116	0.099
-397.165	19.844	0.224	-0.183
-396.150	-200.000	-0.018	-0.124
-395.136	-88.825	0.076	0.023
-394.121	-200.000	0.036	0.303
-393.106	21.523	-0.154	-0.128
-392.092	-200.000	0.002	0.037
-391.077	708.602	-0.037	0.101
-390.063	427.061	0.157	-0.345
-389.048	800.000	0.096	-0.424
-388.033	132.715	-0.198	-0.260
-387.019	800.000	0.068	0.280
-386.004	-85.761	-0.157	-0.049
-384.990	183.752	-0.057	-0.086
-383.975	35.850	0.137	0.123
-382.960	704.882	0.058	0.156
-381.946	-68.242	0.211	0.083
-380.931	-200.000	-0.016	-0.110
-379.917	371.091	-0.011	-0.023
-378.902	-0.945	0.258	-0.185
-377.888	11.673	0.194	-0.151
-376.873	50.252	0.213	-0.205
-375.858	507.711	0.106	0.249
-374.844	-130.482	-0.334	0.046
-373.829	-70.089	-0.188	-0.073
-372.815	83.718	0.117	0.129
-371.800	113.670	-0.341	-0.420
-370.785	-200.000	0.072	-0.417
-369.771	-5.967	0.060	-0.041
-368.756	-28.728	-0.117	0.068
-367.742	-96.689	-0.155	-0.041
-366.727	-72.653	0.117	-0.044
-365.712	-26.930	-0.096	0.057
-364.698	-200.000	0.002	0.017
-363.683	17.198	-0.154	0.124
-362.669	-200.000	0.005	0.174
-361.654	-4.008	0.275	0.193
-360.639	105.287	0.076	0.091
-359.625	800.000	-0.088	0.276
-358.610	-109.988	-0.189	-0.040
-357.596	117.995	0.280	-0.350
-356.581	-1.391	-0.140	-0.100
-355.566	-154.795	0.366	0.025
-354.552	-85.745	-0.320	0.101
-353.537	-173.408	0.298	0.009
-352.523	800.000	0.091	0.379
-351.508	-200.000	-0.136	0.000
-350.493	-200.000	0.031	-0.239
-349.479	800.000	-0.119	0.404
-348.464	371.004	0.175	-0.361
-347.450	-101.344	-0.187	0.046
-346.435	-37.816	0.351	0.189
-345.420	114.823	-0.156	-0.192
-344.406	-200.000	0.011	-0.064
-343.391	1.193	0.174	-0.126
-342.377	-13.906	0.203	-0.133
-341.362	800.000	-0.019	-0.073
-340.348	74.987	-0.109	-0.116
-339.333	-200.000	-0.040	-0.589
-338.318	-93.620	0.030	0.008
-337.304	562.287	-0.120	-0.294
-336.289	800.000	-0.107	-0.299
-335.275	-200.000	0.009	-0.118
-334.260	-142.520	0.231	0.023
-333.245	-200.000	0.039	-0.191
-332.231	49.894	-0.088	-0.084
-331.216	-200.000	-0.030	-0.164
-330.202	-2.085	-0.033	-0.024
-329.187	-200.000	-0.035	-0.203
-328.172	-105.139	0.098	-0.023
-327.158	-149.506	0.192	0.015
-326.143	354.088	-0.092	-0.186
-325.129	294.358	0.117	-0.216
-324.114	-153.304	-0.144	-0.010
-323.099	17.371	-0.143	0.115
-322.085	52.511	-0.062	0.060
-321.070	-200.000	0.004	0.019
-320.056	-200.000	-0.020	-0.096
-319.041	-146.945	0.207	0.018
-318.026	132.933	0.061	-0.079
-317.012	-5.547	0.067	0.047
-315.997	-101.950	0.357	0.087
-314.983	234.865	0.107	-0.179
-313.968	71.097	-0.117	0.123
-312.953	-142.437	0.060	-0.006
-311.939	-64.584	0.273	-0.112
-310.924	-26.525	0.221	-0.131
-309.910	89.042	-0.041	0.046
-308.895	800.000	0.072	0.204
-307.880	-20.591	0.245	0.152
-306.866	-200.000	0.028	0.356
-305.851	-200.000	0.028	0.184
-304.837	-70.654	0.143	0.055
-303.822	715.450	-0.035	-0.095
-302.807	-115.108	-0.224	0.043
-301.793	37.556	0.227	0.204
-300.778	800.000	-0.043	-0.132
-299.764	800.000	-0.016	0.059
-298.749	-33.068	-0.286	-0.160
-297.735	48.243	0.144	0.136
-296.720	-69.290	-0.462	-0.180
-295.705	800.000	0.049	0.141
-294.691	199.770	0.045	-0.069
-293.676	-200.000	-0.044	0.236
-292.662	-69.622	-0.200	-0.077
-291.647	-125.361	0.239	0.037
-290.632	-63.995	-0.216	-0.089
-289.618	-55.978	0.019	-0.009
-288.603	7.240	-0.114	0.086
-287.589	-87.563	-0.242	-0.074
-286.574	-33.294	-0.232	-0.130
-285.559	388.602	0.140	-0.294
-284.545	19.594	-0.124	0.101
-283.530	-124.450	-0.142	-0.022
-282.516	592.763	-0.170	-0.426
-281.501	262.938	-0.104	0.183
-280.486	-24.033	-0.161	0.098
-279.472	-139.170	0.187	-0.020
-278.457	-54.999	0.227	-0.103
-277.443	-65.977	-0.524	0.212
-276.428	116.136	0.191	-0.237
-275.413	30.190	-0.117	-0.101
-274.399	800.000	-0.070	0.287
-273.384	403.088	0.127	-0.270
-272.370	-200.000	-0.093	-0.434
-271.355	-68.373	-0.375	0.147
-270.340	753.817	0.076	0.206
-269.326	-101.912	0.211	0.052
-268.311	165.993	0.062	-0.089
-267.297	-48.326	-0.015	-0.007
-266.282	-200.000	0.027	0.169
-265.267	-200.000	0.028	0.312
-264.253	-44.850	0.378	0.191
-263.238	199.524	0.153	0.236
-262.224	-120.342	-0.244	0.042
-261.209	-200.000	-0.011	0.278
-260.195	19.876	-0.211	0.172
-259.180	-54.652	-0.078	0.036
-258.165	276.542	-0.037	0.066
-257.151	13.929	0.113	0.089
-256.136	-38.806	-0.108	-0.057
-255.122	469.835	0.054	-0.123
-254.107	-127.802	-0.258	-0.038
-253.092	70.150	-0.216	-0.225
-252.078	51.054	0.169	-0.162
-251.063	800.000	0.029	-0.081
-250.049	-10.065	0.034	-0.023
-249.034	-200.000	-0.040	-0.257
-248.019	19.685	-0.345	0.280
-247.005	800.000	-0.036	-0.106
-245.990	800.000	-0.087	-0.262
-244.976	11.819	0.101	-0.078
-243.961	132.757	0.282	0.368
-242.946	-59.577	-0.152	-0.066
-241.932	-200.000	-0.029	-0.299
-240.917	-98.558	-0.276	0.071
-239.903	800.000	-0.054	0.154
-238.888	-161.601	0.175	0.009
-237.873	-200.000	-0.022	-0.258
-236.859	-41.545	0.211	-0.110
-235.844	526.870	0.140	0.333
-234.830	-33.486	0.170	-0.095
-233.815	361.556	0.059	0.119
-232.800	239.635	0.087	-0.147
-231.786	-48.994	-0.047	-0.023
-230.771	-200.000	-0.009	-0.130
-229.757	800.000	0.082	0.318
-228.742	-200.000	-0.009	0.062
-227.727	-29.654	-0.075	-0.043
-226.713	-63.615	-0.241	-0.100
-225.698	-200.000	-0.005	-0.068
-224.684	-69.950	-0.218	-0.084
-223.669	-161.035	-0.092	0.005
-222.655	65.978	-0.327	-0.335
-221.640	-84.322	-0.255	-0.081
-220.625	-200.000	-0.010	-0.078
-219.611	-196.324	0.110	-0.001
-218.596	-62.292	0.111	0.047
-217.582	671.255	0.080	0.209
-216.567	79.063	-0.144	0.156
-215.552	-143.829	-0.186	0.018
-214.538	337.025	0.129	-0.254
-213.523	-97.980	-0.395	0.103
-212.509	-107.773	-0.154	0.034
-211.494	512.240	-0.006	0.013
-210.479	-9.607	-0.224	0.151
-209.465	-3.044	-0.352	-0.248
-208.450	6.088	0.166	-0.124
-207.436	-65.201	0.087	0.036
-206.421	237.846	-0.086	-0.143
-205.406	-200.000	0.006	-0.110
-204.392	128.128	-0.126	0.162
-203.377	294.557	-0.140	0.257
-202.363	44.347	0.141	0.130
-201.348	-200.000	-0.280	-0.000
-200.333	-200.000	-0.052	0.286
-199.319	267.328	0.079	0.140
-198.304	-200.000	0.007	0.109
-197.290	5.720	0.228	0.170
-196.275	229.094	-0.102	0.168
-195.260	-200.000	-0.019	0.499
-194.246	-167.541	-0.441	-0.018
-193.231	237.297	0.112	-0.188
-192.217	350.905	0.087	0.174
-191.202	-200.000	-0.046	-0.264
-190.187	-83.032	0.232	-0.075
-189.173	-99.217	0.352	0.090
-188.158	20.290	-0.084	0.068
-187.144	96.791	-0.094	-0.109
-186.129	15.740	-0.315	-0.250
-185.114	-150.451	0.261	-0.020
-184.100	87.793	-0.289	0.323
-183.085	-200.000	-0.025	-0.328
-182.071	-146.997	0.305	-0.026
-181.056	-101.481	0.372	-0.091
-180.042	-159.892	0.112	-0.006
-179.027	421.209	-0.056	0.121
-178.012	800.000	0.096	0.365
-176.998	112.448	-0.029	0.036
-175.983	-172.722	-0.039	0.001
-174.969	-142.452	0.349	-0.035
-173.954	-143.555	-0.297	0.028
-172.939	-31.610	0.171	-0.097
-171.925	-40.904	-0.108	-0.056
-170.910	-200.000	-0.034	0.232
-169.896	-200.000	0.053	0.375
-168.881	-200.000	0.003	0.226
-167.866	-200.000	0.039	0.327
-166.852	285.151	0.107	0.194
-165.837	-200.000	-0.013	0.351
-164.823	-128.233	0.016	0.002
-163.808	296.408	0.210	-0.388
-162.793	-185.694	-0.487	0.007
-161.779	-14.943	0.158	-0.102
-160.764	35.513	-0.119	-0.105
-159.750	-60.128	0.054	0.023
-158.735	382.483	0.106	0.220
-157.720	184.857	-0.201	-0.300
-156.706	800.000	0.080	0.229
-155.691	-200.000	-0.079	-0.376
-154.677	39.340	-0.213	-0.192
-153.662	131.742	-0.072	-0.094
-152.647	-10.023	-0.043	0.029
-151.633	-3.011	0.119	0.083
-150.618	-200.000	0.051	-0.240
-149.604	-200.000	-0.016	-0.499
-148.589	55.249	0.193	0.187
-147.574	-6.733	-0.021	0.015
-146.560	-200.000	0.015	-0.220
-145.545	800.000	0.078	-0.224
-144.531	-200.000	0.116	0.000
-143.516	56.885	0.201	-0.197
-142.502	11.036	0.275	-0.212
-141.487	-99.554	0.147	-0.037
-140.472	669.351	-0.053	-0.137
-139.458	-5.875	0.207	0.142
-138.443	-200.000	0.002	0.021
-137.429	800.000	0.110	0.370
-136.414	40.466	0.134	0.121
-135.399	-45.040	0.301	-0.151
-134.385	44.845	-0.156	-0.144
-133.370	-200.000	-0.015	0.092
-132.356	-26.268	0.097	-0.057
-131.341	238.801	-0.128	0.214
-130.326	62.063	-0.143	-0.143
-129.312	-200.000	-0.029	0.240
-128.297	-160.075	-0.221	0.012
-127.283	-155.315	0.234	0.015
-126.268	-200.000	-0.030	0.273
-125.253	-0.447	0.274	-0.196
-124.239	-158.435	0.165	0.010
-123.224	-86.936	-0.017	0.005
-122.210	30.526	-0.042	-0.036
-121.195	148.172	0.267	-0.362
-120.180	-132.962	-0.116	-0.015
-119.166	-107.703	-0.246	-0.054
-118.151	259.935	0.181	-0.313
-117.137	13.193	0.389	-0.303
-116.122	363.015	-0.111	-0.223
-115.107	-83.633	-0.230	0.074
-114.093	-60.178	-0.228	0.098
-113.078	800.000	-0.079	-0.231
-112.064	-200.000	-0.003	-0.190
-111.049	-200.000	-0.009	0.184
-110.034	-141.739	0.142	0.014
-109.020	-57.435	-0.113	0.050
-108.005	-92.716	0.349	0.098
-106.991	-200.000	0.024	-0.191
-105.976	355.256	-0.108	-0.215
-104.962	-50.359	0.199	0.094
-103.947	-0.951	-0.186	0.132
-102.932	332.277	0.107	-0.207
-101.918	-9.584	0.272	-0.182
-100.903	-200.000	0.032	0.219
-99.889	-172.044	-0.136	0.004
-98.874	-200.000	0.048	-0.276
-97.859	-156.720	0.179	-0.011
-96.845	-200.000	-0.068	0.328
-95.830	-1.302	0.207	0.147
-94.816	-200.000	-0.004	-0.150
-93.801	-200.000	0.006	0.194
-92.786	-176.077	0.105	-0.003
-91.772	800.000	-0.027	0.111
-90.757	-84.345	0.101	0.032
-89.743	-77.758	-0.136	-0.047
-88.728	-94.770	0.141	0.038
-87.713	-69.321	0.238	0.092
-86.699	37.967	0.108	0.097
-85.684	145.940	0.118	-0.159
-84.670	363.861	0.057	-0.114
-83.655	-19.588	-0.364	0.226
-82.640	239.694	0.083	0.139
-81.626	338.012	0.211	-0.412
-80.611	475.582	0.153	0.346
-79.597	-200.000	-0.001	-0.039
-78.582	-200.000	0.102	0.481
-77.567	-83.308	-0.311	0.100
-76.553	-71.617	0.185	0.069
-75.538	-200.000	-0.036	0.170
-74.524	800.000	-0.066	-0.191
-73.509	-45.383	0.145	-0.072
-72.494	-200.000	0.085	0.386
-71.480	800.000	0.053	0.177
-70.465	-200.000	-0.045	-0.291
-69.451	25.279	0.307	-0.256
-68.436	-51.895	0.282	0.132
-67.422	-44.293	-0.157	-0.079
-66.407	-89.514	-0.070	0.021
-65.392	-123.444	0.252	-0.040
-64.378	-63.685	0.130	-0.053
-63.363	-1.069	0.170	0.120
-62.349	800.000	0.134	0.393
-61.334	15.195	-0.727	-0.572
-60.319	330.187	0.175	0.338
-59.305	493.327	0.327	-0.751
-58.290	237.547	0.407	0.677
-57.276	800.000	0.482	1.632
-56.261	-200.000	75.693	543.748
-55.246	568.801	1301.256	3170.111
-54.232	144.353	2530.077	3385.408
-53.217	111.728	2370.139	2867.337
-52.203	50.240	2108.332	1996.012
-51.188	44.983	2015.933	1860.683
-50.173	43.126	1997.060	1826.384
-49.159	55.085	2033.952	1969.472
-48.144	60.290	2054.093	2036.391
-47.130	45.724	2019.205	1870.170
-46.115	42.857	2008.294	1833.913
-45.100	42.783	2005.544	1830.656
-44.086	42.835	2002.444	1828.233
-43.071	42.795	2000.266	1825.809
-42.057	42.695	1998.639	1823.345
-41.042	42.751	1996.265	1821.607
-40.027	42.718	1994.760	1819.870
-39.013	42.765	1992.561	1818.210
-37.998	42.787	1991.244	1817.141
-36.984	42.797	1989.045	1815.146
-35.969	42.690	1987.606	1812.800
-34.954	42.770	1985.296	1811.337
-33.940	42.793	1984.126	1810.407
-32.925	42.778	1982.338	1808.570
-31.911	42.838	1981.273	1808.062
-30.896	42.806	1978.974	1805.607
-29.881	42.802	1977.078	1803.775
-28.867	42.950	1975.040	1803.166
-27.852	42.848	1973.797	1801.044
-26.838	42.912	1971.642	1799.584
-25.823	42.821	1970.079	1797.271
-24.809	42.836	1968.273	1795.688
-23.794	42.833	1966.937	1794.365
-22.779	42.814	1965.113	1792.459
-21.765	42.858	1963.151	1790.995
-20.750	42.833	1961.507	1789.202
-19.736	42.841	1960.073	1787.897
-18.721	42.843	1959.035	1786.890
-17.706	42.900	1956.782	1785.269
-16.692	42.850	1955.269	1783.375
-15.677	42.783	1953.802	1781.374
-14.663	42.808	1952.119	1779.994
-13.648	42.834	1951.183	1779.300
-12.633	42.823	1949.716	1777.791
-11.619	42.860	1948.434	1776.883
-10.604	42.823	1946.809	1775.003
-9.590	42.783	1945.273	1773.174
-8.575	42.765	1944.486	1772.233
-7.560	42.821	1943.103	1771.393
-6.546	42.862	1941.101	1769.856
-5.531	42.748	1940.495	1768.236
-4.517	42.815	1939.026	1767.412
-3.502	42.820	1938.200	1766.636
-2.487	42.820	1936.519	1765.035
-1.473	42.887	1935.007	1764.169
-0.458	42.929	1931.286	1761.075
0.556	42.109	1912.260	1736.423
1.571	38.209	1892.682	1684.944
2.586	34.026	1913.886	1667.096
3.600	32.679	1951.462	1687.625
4.615	31.687	1948.799	1676.294
5.629	23.920	1842.188	1518.434
6.644	9.540	1707.970	1293.015
7.659	1.858	1660.843	1197.066
8.673	1.181	1656.534	1188.544
9.688	1.057	1655.228	1186.538
10.702	1.018	1654.080	1185.304
11.717	0.884	1651.120	1182.029
12.731	1.440	1650.314	1185.690
13.746	9.515	1671.500	1264.420
14.761	21.008	1696.557	1374.369
15.775	25.002	1703.014	1411.003
16.790	24.826	1700.986	1407.815
17.804	24.791	1700.943	1407.380
18.819	24.788	1699.886	1406.356
19.834	24.979	1699.297	1407.244
20.848	25.175	1698.693	1408.160
21.863	25.197	1697.214	1406.983
22.877	25.153	1696.941	1406.283
23.892	25.145	1695.865	1405.205
24.907	25.256	1694.696	1404.987
25.921	25.144	1694.011	1403.418
26.936	25.219	1692.334	1402.485
27.950	25.186	1691.912	1401.758
28.965	25.137	1691.380	1400.810
29.980	25.251	1690.153	1400.555
30.994	25.191	1689.126	1399.116
32.009	25.206	1687.504	1397.762
33.023	25.195	1686.896	1397.049
34.038	25.153	1686.408	1396.196
35.053	25.101	1684.945	1394.458
36.067	25.266	1683.628	1394.523
37.082	25.242	1682.976	1393.675
38.096	25.150	1681.750	1391.821
39.111	25.149	1681.018	1391.087
40.126	25.230	1680.252	1390.957
41.140	25.146	1679.714	1389.738
42.155	25.139	1678.269	1388.365
43.169	25.210	1676.390	1387.239
44.184	25.144	1676.434	1386.642
45.199	25.232	1675.349	1386.302
46.213	25.163	1673.515	1384.132
47.228	25.233	1672.697	1383.870
48.242	25.146	1671.523	1382.103
49.257	25.151	1670.160	1380.896
50.271	25.181	1669.180	1380.196
51.286	25.235	1668.223	1379.695
52.301	25.194	1666.594	1377.913
53.315	25.183	1665.416	1376.727
54.330	25.139	1664.355	1375.395
55.344	25.134	1662.869	1374.004
56.359	25.189	1661.548	1373.216
57.374	25.118	1660.605	1371.769
58.388	25.197	1659.641	1371.459
59.403	25.202	1658.679	1370.576
60.417	25.209	1657.216	1369.299
61.432	25.286	1656.110	1368.856
62.447	25.157	1654.909	1366.760
63.461	25.089	1654.350	1365.659
64.476	25.177	1653.415	1365.435
65.490	25.226	1651.847	1364.388
66.505	25.298	1650.728	1363.895
67.520	25.300	1649.755	1362.985
68.534	25.228	1649.147	1361.811
69.549	25.225	1648.337	1360.998
70.563	25.265	1646.595	1359.743
71.578	25.254	1646.211	1359.224
72.593	25.330	1644.770	1358.489
73.607	25.250	1644.389	1357.453
74.622	25.084	1643.494	1355.334
75.636	25.303	1641.732	1355.413
76.651	25.237	1641.555	1354.650
77.666	25.310	1640.518	1354.229
78.680	25.363	1639.672	1353.812
79.695	25.267	1639.138	1352.521
80.709	25.178	1638.318	1351.058
81.724	25.213	1637.106	1350.199
82.739	25.293	1635.945	1349.728
83.753	25.230	1635.200	1348.520
84.768	25.221	1634.530	1347.779
85.782	25.243	1633.385	1346.884
86.797	25.209	1632.538	1345.807
87.812	25.251	1631.722	1345.334
88.826	25.307	1630.591	1344.697
89.841	25.296	1629.269	1343.407
90.855	25.302	1628.542	1342.739
91.870	25.268	1627.690	1341.661
92.884	25.230	1626.849	1340.564
93.899	25.175	1625.812	1339.179
94.914	25.280	1624.323	1338.618
95.928	25.308	1622.996	1337.612
96.943	25.268	1621.994	1336.377
97.957	25.230	1620.590	1334.813
98.972	25.256	1619.493	1333.988
99.987	25.266	1618.142	1332.827
101.001	25.273	1616.563	1331.465
102.016	25.261	1615.273	1330.196
103.030	25.207	1614.084	1328.696
104.045	25.176	1613.189	1327.611
105.060	25.240	1612.011	1327.001
106.074	25.200	1610.693	1325.505
107.089	25.191	1609.193	1324.086
108.103	25.318	1608.212	1324.098
109.118	25.360	1606.675	1323.024
110.133	25.261	1605.975	1321.600
111.147	25.150	1605.160	1319.999
112.162	25.280	1603.847	1319.759
113.176	25.326	1602.349	1318.748
114.191	25.287	1601.192	1317.391
115.206	25.252	1600.383	1316.350
116.220	25.335	1599.138	1315.816
117.235	25.394	1597.356	1314.668
118.249	25.303	1596.719	1313.360
119.264	25.251	1595.722	1312.042
120.279	25.282	1594.448	1311.111
121.293	25.333	1593.292	1310.416
122.308	25.349	1592.228	1309.537
123.322	25.379	1590.816	1308.481
124.337	25.333	1589.875	1307.253
125.352	25.379	1588.883	1306.657
126.366	25.418	1587.830	1305.961
127.381	25.412	1587.121	1305.217
128.395	25.407	1586.307	1304.400
129.410	25.358	1584.751	1302.645
130.424	25.411	1583.788	1302.124
131.439	25.464	1582.409	1301.259
132.454	25.414	1581.288	1299.861
133.468	25.347	1579.916	1298.134
134.483	25.348	1578.966	1297.248
135.497	25.474	1577.562	1296.886
136.512	25.399	1576.495	1295.353
137.527	25.461	1574.874	1294.355
138.541	25.458	1574.313	1293.755
139.556	25.421	1573.189	1292.449
140.570	25.415	1572.165	1291.452
141.585	25.327	1570.754	1289.545
142.600	25.480	1569.397	1289.418
143.614	25.409	1568.593	1288.132
144.629	25.370	1567.368	1286.733
145.643	25.428	1565.837	1285.777
146.658	25.371	1564.806	1284.414
147.673	25.397	1563.168	1283.139
148.687	25.422	1562.013	1282.253
149.702	25.437	1561.097	1281.500
150.716	25.451	1559.703	1280.338
151.731	25.434	1558.225	1278.890
152.746	25.373	1557.875	1278.055
153.760	25.305	1556.955	1276.708
154.775	25.357	1556.009	1276.184
155.789	25.481	1554.795	1275.956
156.804	25.435	1553.436	1274.407
157.819	25.428	1552.627	1273.577
158.833	25.402	1551.738	1272.550
159.848	25.448	1550.416	1271.682
160.862	25.450	1549.518	1270.846
161.877	25.364	1548.666	1269.427
162.892	25.501	1547.345	1269.198
163.906	25.418	1547.016	1268.228
164.921	25.423	1545.794	1267.151
165.935	25.465	1545.090	1266.760
166.950	25.549	1543.989	1266.337
167.964	25.488	1542.996	1264.977
168.979	25.433	1541.632	1263.361
169.994	25.468	1541.075	1263.041
171.008	25.649	1539.844	1263.189
172.023	25.539	1539.119	1261.715
173.037	25.551	1538.086	1260.841
174.052	25.558	1537.339	1260.166
175.067	25.494	1536.013	1258.515
176.081	25.470	1535.305	1257.656
177.096	25.517	1534.298	1257.049
178.110	25.481	1533.249	1255.828
179.125	25.530	1532.292	1255.275
180.140	25.571	1531.143	1254.508
181.154	25.573	1530.429	1253.824
182.169	25.564	1529.676	1253.036
183.183	25.461	1528.925	1251.590
184.198	25.545	1528.204	1251.477
185.213	25.510	1526.948	1250.097
186.227	25.714	1525.057	1249.851
187.242	25.513	1525.556	1248.756
188.256	25.624	1524.513	1248.561
189.271	25.636	1523.581	1247.772
190.286	25.607	1522.502	1246.577
191.300	25.629	1521.734	1245.990
192.315	25.615	1521.160	1245.313
193.329	25.594	1520.119	1244.200
194.344	25.575	1519.054	1243.087
195.359	25.700	1518.158	1243.108
196.373	25.665	1517.626	1242.325
197.388	25.663	1516.219	1241.046
198.402	25.543	1515.683	1239.673
199.417	25.535	1514.555	1238.583
200.432	25.602	1514.027	1238.501
201.446	25.620	1513.260	1237.889
202.461	25.466	1512.682	1236.246
203.475	25.685	1511.131	1236.379
204.490	25.593	1510.895	1235.443
205.504	25.555	1509.781	1234.157
206.519	25.600	1509.003	1233.727
207.534	25.634	1507.818	1232.876
208.548	25.692	1506.963	1232.467
209.563	25.628	1506.199	1231.297
210.577	25.648	1505.451	1230.713
211.592	25.687	1504.453	1230.052
212.607	25.771	1503.676	1229.884
213.621	25.778	1503.072	1229.328
214.636	25.782	1502.317	1228.628
215.650	25.717	1501.201	1227.168
216.665	25.795	1500.871	1227.319
217.680	25.684	1500.175	1225.884
218.694	25.740	1499.104	1225.282
219.709	25.708	1498.580	1224.531
220.723	25.769	1497.420	1223.886
221.738	25.906	1496.355	1223.835
222.753	25.702	1496.176	1222.196
223.767	25.582	1495.297	1220.560
224.782	25.720	1494.063	1220.376
225.796	25.788	1493.193	1220.023
226.811	25.797	1492.334	1219.274
227.826	25.796	1492.014	1218.895
228.840	25.848	1491.202	1218.474
229.855	25.768	1490.592	1217.327
230.869	25.816	1489.534	1216.684
231.884	25.786	1488.350	1215.403
232.899	25.892	1487.092	1214.983
233.913	25.796	1486.411	1213.671
234.928	25.785	1485.292	1212.579
235.942	25.802	1484.242	1211.728
236.957	25.855	1483.698	1211.535
237.972	25.877	1482.186	1210.339
238.986	25.902	1481.087	1209.503
240.001	25.901	1480.660	1209.043
241.015	25.905	1479.555	1208.055
242.030	25.919	1478.896	1207.503
243.045	25.965	1477.831	1206.840
244.059	25.939	1477.043	1205.912
245.074	25.983	1475.962	1205.219
246.088	26.021	1475.312	1204.836
247.103	26.003	1474.590	1204.016
248.117	25.987	1474.061	1203.371
249.132	26.013	1473.054	1202.620
250.147	26.004	1472.156	1201.721
251.161	26.062	1471.571	1201.520
252.176	26.108	1471.108	1201.345
253.190	26.067	1470.074	1200.117
254.205	26.065	1469.640	1199.644
255.220	26.108	1468.441	1198.848
256.234	26.161	1467.314	1198.169
257.249	26.148	1466.603	1197.401
258.263	26.045	1466.411	1196.451
259.278	26.100	1465.199	1195.721
260.293	26.147	1464.246	1195.147
261.307	26.118	1463.879	1194.551
262.322	26.171	1462.828	1193.940
263.336	26.174	1462.377	1193.485
264.351	26.208	1461.184	1192.634
265.366	26.204	1460.415	1191.870
266.380	26.156	1459.420	1190.635
267.395	26.127	1458.826	1189.859
268.409	26.137	1457.947	1189.100
269.424	26.075	1456.963	1187.787
270.439	26.184	1455.921	1187.547
271.453	26.148	1455.309	1186.704
272.468	26.213	1454.757	1186.580
273.482	26.197	1453.849	1185.624
274.497	26.232	1453.152	1185.181
275.512	26.162	1452.602	1184.174
276.526	26.179	1451.661	1183.410
277.541	26.283	1450.496	1183.034
278.555	26.263	1450.210	1182.567
279.570	26.236	1449.372	1181.603
280.585	26.297	1447.962	1180.750
281.599	26.206	1447.455	1179.635
282.614	26.275	1446.409	1179.130
283.628	26.262	1445.537	1178.229
284.643	26.375	1444.505	1178.022
285.657	26.331	1443.422	1176.747
286.672	26.247	1442.853	1175.630
287.687	26.290	1442.081	1175.175
288.701	26.242	1441.080	1173.946
289.716	26.268	1440.624	1173.640
290.730	26.375	1439.377	1173.213
291.745	26.465	1438.498	1172.977
292.760	26.377	1437.681	1171.637
293.774	26.359	1437.157	1170.989
294.789	26.349	1436.338	1170.153
295.803	26.460	1435.363	1169.973
296.818	26.341	1435.029	1168.828
297.833	26.449	1433.790	1168.413
298.847	26.409	1433.284	1167.643
299.862	26.365	1432.772	1166.839
300.876	26.432	1431.632	1166.234
301.891	26.552	1430.619	1166.079
302.906	26.473	1429.961	1164.932
303.920	26.458	1429.758	1164.568
304.935	26.539	1428.299	1163.801
305.949	26.547	1427.956	1163.465
306.964	26.538	1427.399	1162.854
307.979	26.587	1426.048	1161.960
308.993	26.566	1425.007	1160.880
310.008	26.640	1424.148	1160.547
311.022	26.615	1423.687	1159.910
312.037	26.681	1422.117	1158.949
313.052	26.606	1421.736	1158.061
314.066	26.603	1420.927	1157.275
315.081	26.527	1420.028	1155.956
316.095	26.554	1418.946	1155.148
317.110	26.577	1418.311	1154.674
318.125	26.637	1417.175	1154.030
319.139	26.579	1416.631	1153.115
320.154	26.687	1415.781	1153.008
321.168	26.647	1414.811	1151.865
322.183	26.693	1413.693	1151.143
323.197	26.594	1413.153	1149.969
324.212	26.657	1412.462	1149.705
325.227	26.792	1411.629	1149.785
326.241	26.721	1410.437	1148.262
327.256	26.746	1410.173	1148.105
328.270	26.795	1409.195	1147.514
329.285	26.751	1408.452	1146.533
330.300	26.741	1407.644	1145.707
331.314	26.761	1407.023	1145.231
332.329	26.757	1406.243	1144.465
333.343	26.718	1405.523	1143.531
334.358	26.772	1404.784	1143.173
335.373	26.943	1403.873	1143.406
336.387	26.944	1403.085	1142.669
337.402	26.899	1402.460	1141.776
338.416	26.830	1402.166	1141.002
339.431	26.826	1401.696	1140.496
340.446	26.833	1400.979	1139.850
341.460	26.916	1399.761	1139.283
342.475	26.967	1398.751	1138.678
343.489	26.935	1398.103	1137.850
344.504	26.968	1396.962	1137.029
345.519	27.037	1395.911	1136.502
346.533	27.048	1394.676	1135.467
347.548	26.893	1394.504	1134.255
348.562	27.000	1393.475	1133.988
349.577	26.981	1392.885	1133.289
350.592	26.982	1392.080	1132.540
351.606	27.065	1390.939	1132.031
352.621	26.918	1390.022	1130.265
353.635	26.956	1388.779	1129.390
354.650	27.076	1388.024	1129.426
355.665	27.106	1387.498	1129.083
356.679	27.019	1386.617	1127.724
357.694	27.088	1385.766	1127.365
358.708	27.058	1384.837	1126.321
359.723	27.046	1383.626	1125.162
360.738	27.007	1382.831	1124.177
361.752	27.031	1380.828	1122.594
362.767	27.061	1380.177	1122.151
363.781	27.080	1379.797	1121.861
364.796	27.071	1378.856	1120.943
365.810	27.126	1378.280	1120.711
366.825	27.138	1377.677	1120.197
367.840	27.096	1376.708	1119.054
368.854	27.186	1375.884	1118.836
369.869	27.193	1375.867	1118.768
370.883	27.113	1375.111	1117.559
371.898	27.238	1374.314	1117.585
372.913	27.233	1373.445	1116.748
373.927	27.248	1372.591	1116.043
374.942	27.223	1371.935	1115.258
375.956	27.356	1371.065	1115.269
376.971	27.255	1370.461	1114.061
377.986	27.232	1369.721	1113.218
379.000	27.242	1368.796	1112.431
380.015	27.377	1367.918	1112.445
381.029	27.277	1367.372	1111.287
382.044	27.221	1367.301	1110.790
383.059	27.303	1366.690	1110.699
384.073	27.426	1365.585	1110.452
385.088	27.479	1365.022	1110.220
386.102	27.329	1364.694	1108.943
387.117	27.432	1363.397	1108.414
388.132	27.403	1363.035	1107.848
389.146	27.332	1362.562	1106.929
390.161	27.391	1361.629	1106.435
391.175	27.434	1361.029	1106.110
392.190	27.478	1360.272	1105.666
393.205	27.480	1359.478	1104.933
394.219	27.530	1358.469	1104.319
395.234	27.575	1357.290	1103.537
396.248	27.533	1356.322	1102.393
397.263	27.485	1355.361	1101.228
398.278	27.675	1354.179	1101.315
399.292	27.520	1353.855	1100.021
400.307	27.582	1352.906	1099.523
401.321	27.654	1351.594	1098.793
402.336	27.593	1350.541	1097.478
403.350	27.610	1349.701	1096.799
404.365	27.578	1348.669	1095.669
405.380	27.553	1347.957	1094.847
406.394	27.613	1347.367	1094.628
407.409	27.512	1346.977	1093.611
408.423	27.591	1346.314	1093.446
409.438	27.670	1345.578	1093.226
410.453	27.739	1344.549	1092.705
411.467	27.741	1343.941	1092.126
412.482	27.776	1343.341	1091.750
413.496	27.753	1342.868	1091.134
414.511	27.770	1341.920	1090.371
415.526	27.834	1341.276	1090.130
416.540	27.780	1340.647	1089.201
417.555	27.769	1339.961	1088.481
418.569	27.835	1339.088	1088.069
419.584	27.770	1338.883	1087.419
420.599	27.798	1338.344	1087.050
421.613	74.719	1318.237	1337.289
422.628	75.312	1315.308	1337.443
