DTS Sentinel unit serial number:	SN413079Multiplexer serial number:	ORYXHardware model number:	OX4-SRSoftware version number:	ORYX F/W v4.00 Oryx Data Collector v3.7.2.0data status	okinstallation	princeton_trtdifferential loss correction	single-endedforward channel	channel 4reverse channel	N/Adate	2019/09/11time	20:35:10forward acquisition time	60.00reverse acquisition time	0.00gamma	496.2192k internal	0.2303k external	0.2303temperature offset calibration	1.0059default loss term (dB/km)	0.3790temperature slope calibration	1.0000multiplexer offset coefficient	1.0000multiplexer slope coefficient	1.0000fibre end	0.00T internal ref (°C)	37.44T ext. ref 1 (°C)	1.53T ext. ref 2 (°C)	30.83length (m)	temperature (°C)	Stokes	anti-Stokes-747.200	-200.000	-0.006	0.346
-746.185	-128.408	0.031	0.004
-745.171	800.000	0.037	-0.114
-744.156	-69.095	-0.234	0.092
-743.142	-126.634	-0.208	-0.031
-742.127	48.311	0.159	0.152
-741.112	-42.344	0.262	0.136
-740.098	210.077	0.168	0.268
-739.083	-200.000	-0.023	-0.424
-738.069	-19.372	-0.272	0.172
-737.054	800.000	-0.068	-0.200
-736.039	-66.054	0.220	-0.089
-735.025	-200.000	0.349	0.001
-734.010	-128.114	-0.367	-0.053
-732.996	304.468	0.075	-0.141
-731.981	-200.000	-0.007	0.099
-730.966	800.000	0.020	-0.068
-729.952	-200.000	-0.019	-0.171
-728.937	-162.975	0.155	-0.008
-727.923	-106.994	-0.201	0.045
-726.908	-81.995	0.225	0.075
-725.894	-105.615	-0.133	0.031
-724.879	233.499	-0.142	0.238
-723.864	19.806	-0.170	-0.139
-722.850	-200.000	-0.009	-0.118
-721.835	-80.389	-0.042	-0.014
-720.821	-140.177	-0.232	-0.025
-719.806	-67.384	-0.572	-0.229
-718.791	16.681	0.032	-0.026
-717.777	361.543	0.061	-0.125
-716.762	-200.000	-0.056	-0.336
-715.748	-200.000	0.007	-0.181
-714.733	-47.506	0.274	0.135
-713.718	135.856	-0.059	-0.079
-712.704	388.145	0.082	-0.173
-711.689	11.363	-0.423	-0.329
-710.675	800.000	0.026	0.077
-709.660	-200.000	0.012	-0.177
-708.645	-200.000	-0.015	0.139
-707.631	-4.052	-0.178	0.125
-706.616	-47.935	0.319	0.157
-705.602	336.568	-0.108	-0.214
-704.587	350.518	0.057	-0.115
-703.572	336.149	0.066	0.130
-702.558	-45.677	0.084	0.042
-701.543	87.934	-0.233	-0.262
-700.529	581.667	0.103	0.257
-699.514	-63.188	0.437	-0.183
-698.499	34.870	0.074	0.066
-697.485	-7.643	-0.403	-0.277
-696.470	46.477	0.183	0.173
-695.456	-118.992	0.100	-0.018
-694.441	-126.912	0.196	-0.029
-693.426	-44.559	0.128	0.065
-692.412	-110.890	-0.325	-0.068
-691.397	81.946	-0.153	-0.168
-690.383	-71.155	0.305	0.116
-689.368	-28.359	-0.352	0.206
-688.354	-75.180	-0.209	-0.076
-687.339	800.000	0.104	-0.359
-686.324	637.158	-0.009	-0.023
-685.310	-200.000	-0.051	0.231
-684.295	164.627	-0.178	-0.255
-683.281	-200.000	0.029	-0.298
-682.266	-33.522	-0.222	-0.124
-681.251	800.000	-0.066	0.273
-680.237	-21.135	-0.200	-0.125
-679.222	800.000	-0.072	-0.211
-678.208	-200.000	0.019	-0.250
-677.193	432.198	0.078	-0.172
-676.178	53.751	0.031	0.030
-675.164	184.469	0.157	-0.236
-674.149	278.349	0.094	-0.171
-673.135	-200.000	-0.001	0.115
-672.120	-200.000	0.026	0.319
-671.105	205.485	-0.104	0.163
-670.091	-69.551	0.099	-0.038
-669.076	444.513	-0.112	-0.249
-668.062	-150.403	-0.128	-0.010
-667.047	232.909	0.048	0.080
-666.032	97.555	0.147	0.172
-665.018	-10.253	-0.316	0.213
-664.003	57.366	-0.206	-0.204
-662.989	34.543	-0.033	-0.029
-661.974	-125.291	0.019	0.003
-660.959	-125.189	-0.293	-0.046
-659.945	-200.000	-0.018	-0.180
-658.930	-60.721	0.161	0.069
-657.916	-73.899	-0.309	-0.114
-656.901	-29.470	0.247	-0.143
-655.886	254.459	-0.137	-0.239
-654.872	-42.117	0.321	0.167
-653.857	-67.357	0.132	-0.053
-652.843	-200.000	0.013	-0.119
-651.828	-18.159	0.235	-0.149
-650.814	-200.000	0.019	-0.462
-649.799	-28.469	0.231	0.135
-648.784	-200.000	-0.033	-0.269
-647.770	-200.000	0.006	0.076
-646.755	-200.000	-0.054	0.389
-645.741	-181.287	-0.322	0.006
-644.726	-200.000	0.001	-0.006
-643.711	749.886	0.059	-0.163
-642.697	800.000	-0.101	-0.288
-641.682	800.000	0.030	0.106
-640.668	187.769	0.056	0.085
-639.653	-78.345	-0.145	-0.050
-638.638	800.000	0.073	0.253
-637.624	-61.594	-0.066	0.028
-636.609	-72.989	0.311	-0.116
-635.595	118.435	-0.091	0.114
-634.580	800.000	0.035	-0.108
-633.565	504.369	0.050	0.116
-632.551	-200.000	0.000	-0.112
-631.536	779.873	0.142	-0.393
-630.522	-99.768	-0.204	0.052
-629.507	292.140	-0.075	0.138
-628.492	11.602	0.217	0.169
-627.478	-76.037	-0.188	-0.067
-626.463	-87.758	0.344	-0.105
-625.449	40.606	0.306	-0.279
-624.434	160.531	-0.168	-0.238
-623.419	318.685	0.157	0.301
-622.405	68.896	-0.206	-0.214
-621.390	-3.207	0.289	0.204
-620.376	-176.531	-0.257	0.007
-619.361	-39.093	-0.138	-0.074
-618.346	129.525	0.127	-0.165
-617.332	-200.000	0.014	-0.300
-616.317	-200.000	-0.012	-0.219
-615.303	277.800	-0.137	-0.248
-614.288	-200.000	0.030	0.147
-613.273	-200.000	0.030	0.235
-612.259	62.794	-0.171	0.174
-611.244	-73.166	-0.341	-0.127
-610.230	145.454	-0.117	0.159
-609.215	-108.367	0.107	0.023
-608.201	-200.000	-0.031	0.164
-607.186	-91.536	0.263	-0.076
-606.171	197.018	0.171	-0.264
-605.157	800.000	-0.045	0.184
-604.142	260.724	-0.101	-0.176
-603.128	-80.521	0.250	-0.084
-602.113	-82.621	-0.294	-0.097
-601.098	128.809	-0.129	-0.166
-600.084	78.126	-0.153	-0.165
-599.069	251.903	0.049	-0.084
-598.055	800.000	-0.060	-0.189
-597.040	-88.085	0.124	-0.038
-596.025	-38.031	-0.262	0.141
-595.011	122.172	0.139	-0.176
-593.996	308.294	0.058	-0.111
-592.982	118.165	-0.116	-0.145
-591.967	-77.648	0.176	0.062
-590.952	-200.000	0.011	0.178
-589.938	678.009	-0.170	-0.449
-588.923	513.241	0.096	0.226
-587.909	103.409	-0.125	0.149
-586.894	391.239	-0.097	0.204
-585.879	-109.352	-0.129	-0.028
-584.865	19.018	0.264	-0.214
-583.850	-200.000	-0.006	0.198
-582.836	800.000	-0.087	-0.338
-581.821	45.756	-0.065	0.061
-580.806	180.484	0.231	0.343
-579.792	-69.426	0.204	0.079
-578.777	377.227	0.250	0.517
-577.763	800.000	-0.058	0.176
-576.748	237.633	0.027	0.045
-575.733	103.087	-0.201	-0.239
-574.719	18.577	-0.345	-0.279
-573.704	-200.000	-0.033	0.248
-572.690	434.441	-0.070	0.154
-571.675	-200.000	-0.008	0.334
-570.661	-200.000	-0.032	0.459
-569.646	-65.769	0.151	0.061
-568.631	50.187	0.173	0.165
-567.617	-43.100	-0.331	-0.170
-566.602	37.771	0.053	-0.047
-565.588	800.000	-0.027	0.114
-564.573	-73.975	0.131	-0.048
-563.558	-200.000	0.015	0.251
-562.544	-86.271	-0.201	-0.062
-561.529	294.133	0.115	0.212
-560.515	-102.632	-0.083	-0.020
-559.500	-129.772	0.131	-0.018
-558.485	-77.773	-0.226	-0.079
-557.471	259.494	-0.046	-0.080
-556.456	800.000	-0.051	-0.143
-555.442	161.854	0.199	-0.281
-554.427	-60.255	-0.054	-0.023
-553.412	-87.005	-0.075	-0.023
-552.398	68.047	0.248	-0.257
-551.383	-200.000	0.026	-0.241
-550.369	81.758	-0.157	-0.172
-549.354	-200.000	0.004	-0.224
-548.339	-90.221	-0.249	-0.073
-547.325	19.830	-0.087	0.071
-546.310	-200.000	-0.045	-0.248
-545.296	-57.813	0.174	0.077
-544.281	522.681	-0.096	0.227
-543.266	125.710	-0.174	-0.222
-542.252	-49.484	0.305	-0.147
-541.237	61.392	0.058	0.058
-540.223	243.393	0.105	0.177
-539.208	-58.346	0.227	0.100
-538.193	-79.478	0.144	0.049
-537.179	-79.760	0.211	-0.072
-536.164	-132.261	0.152	-0.020
-535.150	-21.740	-0.078	-0.048
-534.135	-200.000	0.064	-0.309
-533.121	-65.773	-0.215	-0.087
-532.106	398.729	0.120	-0.254
-531.091	-200.000	0.049	-0.355
-530.077	-70.226	-0.237	0.091
-529.062	-200.000	-0.005	-0.125
-528.048	-42.012	-0.270	0.140
-527.033	-64.458	-0.153	-0.063
-526.018	161.512	-0.027	0.038
-525.004	579.752	-0.093	0.230
-523.989	3.513	-0.099	-0.073
-522.975	-200.000	-0.020	-0.393
-521.960	-156.485	0.166	0.010
-520.945	224.036	0.019	0.031
-519.931	-123.336	0.098	0.016
-518.916	305.390	-0.028	-0.052
-517.902	-60.973	-0.213	0.091
-516.887	800.000	-0.126	0.364
-515.872	176.417	-0.023	0.034
-514.858	-200.000	0.026	0.149
-513.843	381.676	-0.125	-0.259
-512.829	292.746	-0.077	0.141
-511.814	362.751	-0.026	0.053
-510.799	-117.264	0.220	0.040
-509.785	-6.334	-0.247	-0.170
-508.770	800.000	-0.061	-0.247
-507.756	-122.102	0.103	0.017
-506.741	42.237	-0.048	0.044
-505.726	800.000	0.156	0.478
-504.712	20.892	-0.044	-0.036
-503.697	-135.654	-0.111	0.013
-502.683	-2.425	0.126	0.089
-501.668	-200.000	0.007	-0.329
-500.653	13.479	-0.211	-0.166
-499.639	-200.000	-0.417	-0.001
-498.624	-67.187	0.053	-0.021
-497.610	-200.000	0.048	0.352
-496.595	-103.442	0.349	0.083
-495.581	-153.576	0.252	-0.018
-494.566	69.658	-0.306	-0.318
-493.551	-200.000	0.018	-0.361
-492.537	-200.000	-0.019	0.243
-491.522	-93.957	0.108	0.030
-490.508	67.117	-0.202	-0.208
-489.493	-96.601	0.337	0.090
-488.478	-79.030	-0.355	0.122
-487.464	462.812	-0.134	0.301
-486.449	-59.876	0.299	-0.129
-485.435	319.606	0.020	0.038
-484.420	800.000	0.025	0.095
-483.405	-31.474	0.144	-0.082
-482.391	279.055	-0.152	-0.273
-481.376	-76.621	-0.291	-0.103
-480.362	38.231	-0.226	-0.202
-479.347	36.437	-0.336	-0.299
-478.332	101.002	-0.127	-0.149
-477.318	-84.809	-0.372	0.118
-476.303	28.527	-0.207	0.177
-475.289	-200.000	0.008	0.103
-474.274	800.000	0.017	-0.067
-473.259	-123.738	-0.303	-0.048
-472.245	-200.000	0.072	0.338
-471.230	800.000	0.105	0.354
-470.216	-198.005	0.231	0.001
-469.201	800.000	0.113	-0.332
-468.186	-200.000	-0.062	-0.423
-467.172	46.158	0.223	0.208
-466.157	800.000	0.088	0.315
-465.143	219.328	0.197	0.317
-464.128	-77.422	-0.049	-0.017
-463.113	-200.000	0.028	0.259
-462.099	-94.621	-0.125	-0.034
-461.084	-200.000	0.002	0.021
-460.070	-124.267	0.107	-0.017
-459.055	-200.000	0.075	-0.367
-458.040	22.557	0.034	0.028
-457.026	-95.293	-0.129	0.035
-456.011	-62.144	0.015	-0.006
-454.997	258.557	0.049	-0.085
-453.982	-48.911	0.095	-0.046
-452.968	800.000	-0.092	-0.319
-451.953	-200.000	-0.005	-0.176
-450.938	-200.000	0.005	0.154
-449.924	-200.000	-0.116	0.708
-448.909	334.967	0.023	0.046
-447.895	-132.672	-0.148	-0.019
-446.880	-200.000	0.012	-0.151
-445.865	-200.000	0.016	0.184
-444.851	800.000	0.029	-0.110
-443.836	-80.862	-0.172	-0.058
-442.822	-84.152	-0.254	-0.081
-441.807	-83.915	-0.292	-0.094
-440.792	800.000	0.051	0.196
-439.778	-137.239	0.453	-0.052
-438.763	-200.000	0.007	0.221
-437.749	795.857	0.049	0.136
-436.734	-138.122	0.337	-0.038
-435.719	159.470	0.065	0.092
-434.705	-14.002	0.207	-0.135
-433.690	-73.028	0.046	0.017
-432.676	346.088	-0.147	-0.291
-431.661	220.911	0.086	-0.138
-430.646	-174.840	0.186	-0.005
-429.632	800.000	0.112	0.322
-428.617	-70.110	-0.026	-0.010
-427.603	133.904	-0.123	-0.160
-426.588	-21.284	-0.197	0.121
-425.573	-78.187	-0.188	0.065
-424.559	625.747	0.057	0.144
-423.544	146.174	0.204	0.275
-422.530	-200.000	0.002	-0.025
-421.515	186.031	-0.071	-0.106
-420.500	-83.371	-0.261	0.084
-419.486	671.819	-0.034	0.088
-418.471	-120.485	0.188	-0.032
-417.457	-200.000	-0.003	-0.141
-416.442	258.825	0.148	-0.257
-415.428	800.000	-0.040	0.134
-414.413	-200.000	0.015	0.087
-413.398	-200.000	-0.020	0.178
-412.384	-29.042	-0.083	-0.048
-411.369	-200.000	0.017	-0.253
-410.355	-200.000	-0.017	0.291
-409.340	102.326	0.333	0.391
-408.325	800.000	0.094	0.362
-407.311	91.849	-0.094	-0.106
-406.296	164.534	-0.270	0.383
-405.282	-102.198	-0.205	-0.049
-404.267	-200.000	0.046	0.346
-403.252	-159.089	0.429	0.024
-402.238	800.000	-0.020	0.079
-401.223	-156.151	-0.469	0.030
-400.209	102.718	-0.184	-0.216
-399.194	-200.000	-0.035	-0.380
-398.179	-87.621	-0.277	-0.084
-397.165	-13.865	0.107	-0.069
-396.150	-88.220	0.285	0.086
-395.136	21.430	-0.170	0.139
-394.121	-200.000	-0.036	0.199
-393.106	-99.384	-0.221	-0.056
-392.092	292.610	-0.090	0.165
-391.077	8.210	-0.115	-0.087
-390.063	47.156	-0.216	-0.202
-389.048	-200.000	0.062	-0.304
-388.033	-141.771	-0.348	-0.035
-387.019	242.494	-0.069	-0.117
-386.004	-200.000	0.305	-0.001
-384.990	-200.000	-0.038	-0.390
-383.975	-135.747	0.201	-0.024
-382.960	-76.173	0.194	0.069
-381.946	-179.676	0.255	-0.006
-380.931	-60.445	-0.010	-0.004
-379.917	208.259	-0.132	0.207
-378.902	468.504	0.079	0.178
-377.888	-77.263	0.209	-0.073
-376.873	-75.193	-0.139	-0.050
-375.858	166.313	-0.018	-0.026
-374.844	-127.844	0.239	-0.035
-373.829	117.352	0.122	-0.151
-372.815	314.564	0.043	0.081
-371.800	76.640	0.307	-0.327
-370.785	42.413	0.121	0.110
-369.771	-200.000	-0.029	0.218
-368.756	-200.000	-0.037	0.401
-367.742	-81.470	-0.179	-0.059
-366.727	-24.936	-0.067	0.040
-365.712	125.564	0.046	0.058
-364.698	451.880	0.061	0.135
-363.683	-2.510	0.040	-0.028
-362.669	500.701	-0.054	0.125
-361.654	-200.000	0.010	0.189
-360.639	800.000	-0.123	-0.359
-359.625	244.619	0.143	0.241
-358.610	-200.000	0.020	0.237
-357.596	-75.677	0.038	0.014
-356.581	248.929	-0.173	-0.294
-355.566	800.000	0.024	-0.080
-354.552	122.324	0.116	0.145
-353.537	288.354	-0.132	-0.239
-352.523	609.568	0.099	0.247
-351.508	800.000	0.054	-0.158
-350.493	-101.005	-0.188	-0.046
-349.479	32.898	0.113	0.098
-348.464	800.000	0.077	0.263
-347.450	126.407	0.121	0.154
-346.435	18.076	0.069	-0.055
-345.420	80.114	0.072	-0.077
-344.406	73.979	0.163	-0.171
-343.391	143.434	0.167	-0.223
-342.377	175.347	0.170	-0.247
-341.362	249.561	-0.120	-0.204
-340.348	-200.000	-0.040	0.190
-339.333	93.597	-0.019	-0.021
-338.318	293.336	-0.130	0.238
-337.304	-49.565	-0.257	-0.123
-336.289	-200.000	0.031	-0.301
-335.275	-114.323	0.294	-0.057
-334.260	-200.000	-0.013	-0.117
-333.245	474.936	-0.034	0.076
-332.231	-41.658	0.089	-0.046
-331.216	800.000	-0.064	0.252
-330.202	106.732	0.164	-0.196
-329.187	37.007	-0.042	-0.037
-328.172	341.302	-0.194	0.379
-327.158	-3.541	0.220	0.153
-326.143	203.018	-0.100	-0.155
-325.129	22.816	-0.121	-0.099
-324.114	-200.000	0.016	0.432
-323.099	-78.894	0.286	-0.097
-322.085	-35.684	-0.159	-0.087
-321.070	-200.000	0.059	-0.429
-320.056	-62.130	0.176	-0.074
-319.041	-143.208	-0.230	-0.022
-318.026	52.748	-0.074	0.071
-317.012	-155.896	-0.080	-0.005
-315.997	274.163	0.105	-0.185
-314.983	800.000	0.014	-0.051
-313.968	37.656	-0.210	-0.186
-312.953	130.007	-0.153	0.196
-311.939	251.844	-0.051	0.086
-310.924	-200.000	-0.028	-0.239
-309.910	167.958	-0.104	-0.149
-308.895	19.387	0.091	-0.073
-307.880	169.965	-0.101	0.144
-306.866	-170.323	-0.179	0.006
-305.851	261.725	0.138	-0.240
-304.837	430.792	0.043	-0.092
-303.822	65.375	-0.209	-0.211
-302.807	-55.580	-0.385	-0.173
-301.793	-24.411	0.115	0.069
-300.778	-29.251	0.063	-0.036
-299.764	-200.000	0.010	0.196
-298.749	-200.000	0.020	-0.268
-297.735	-144.078	-0.031	-0.003
-296.720	-58.348	0.239	-0.104
-295.705	87.547	-0.247	0.273
-294.691	-200.000	0.026	-0.150
-293.676	-200.000	-0.022	-0.256
-292.662	800.000	-0.029	-0.103
-291.647	111.379	0.044	0.053
-290.632	-200.000	-0.048	0.358
-289.618	-43.045	0.211	0.107
-288.603	-144.640	0.091	-0.008
-287.589	-19.264	-0.083	-0.052
-286.574	603.002	0.191	-0.475
-285.559	-200.000	0.006	0.166
-284.545	-54.875	-0.171	-0.077
-283.530	37.279	0.176	0.156
-282.516	40.477	-0.239	0.215
-281.501	-200.000	0.022	-0.147
-280.486	800.000	0.057	0.218
-279.472	204.738	-0.194	0.301
-278.457	-112.602	0.087	0.017
-277.443	-200.000	0.028	0.137
-276.428	0.840	-0.185	-0.133
-275.413	38.901	0.107	-0.096
-274.399	132.717	0.055	0.071
-273.384	112.248	0.229	0.277
-272.370	-14.974	0.187	-0.120
-271.355	484.977	0.107	0.243
-270.340	369.730	-0.160	0.323
-269.326	-100.229	-0.224	0.056
-268.311	446.408	0.103	0.227
-267.297	-123.610	0.445	0.071
-266.282	374.593	-0.117	-0.239
-265.267	-130.806	-0.036	-0.005
-264.253	261.571	0.094	0.162
-263.238	30.044	0.199	-0.170
-262.224	-200.000	0.009	0.399
-261.209	-121.129	-0.372	0.062
-260.195	298.448	0.102	-0.188
-259.180	42.300	0.160	-0.145
-258.165	1.055	-0.077	-0.056
-257.151	-148.698	0.132	0.011
-256.136	95.341	-0.141	-0.160
-255.122	-28.323	-0.114	0.066
-254.107	-112.832	0.052	0.010
-253.092	-110.378	0.216	-0.045
-252.078	69.843	-0.152	-0.157
-251.063	-93.541	0.376	0.104
-250.049	-71.506	-0.174	0.065
-249.034	-96.894	-0.100	0.026
-248.019	1.022	-0.180	-0.129
-247.005	-200.000	-0.003	-0.071
-245.990	800.000	0.066	-0.218
-244.976	-101.845	0.110	-0.027
-243.961	181.154	-0.164	0.240
-242.946	76.515	0.144	-0.152
-241.932	516.964	0.029	0.067
-240.917	-200.000	0.049	0.484
-239.903	159.200	0.103	0.142
-238.888	-78.847	0.278	0.094
-237.873	800.000	0.166	0.513
-236.859	-70.746	0.261	-0.098
-235.844	127.990	0.115	-0.146
-234.830	368.606	-0.129	-0.260
-233.815	-36.583	-0.065	-0.035
-232.800	-200.000	0.003	0.278
-231.786	-37.798	-0.308	0.163
-230.771	-200.000	-0.001	0.208
-229.757	-200.000	0.012	-0.157
-228.742	9.260	0.389	0.293
-227.727	26.974	-0.026	-0.022
-226.713	-170.053	0.199	-0.007
-225.698	6.350	-0.185	-0.137
-224.684	365.127	0.168	0.337
-223.669	3.706	-0.220	-0.161
-222.655	-77.804	0.105	-0.036
-221.640	800.000	0.032	-0.110
-220.625	-200.000	0.011	-0.056
-219.611	-28.178	0.225	-0.130
-218.596	59.455	-0.127	0.125
-217.582	83.703	-0.045	0.049
-216.567	-19.787	-0.147	0.091
-215.552	-200.000	-0.012	0.099
-214.538	-52.393	-0.256	0.118
-213.523	800.000	-0.051	-0.169
-212.509	800.000	0.073	-0.311
-211.494	22.061	0.098	-0.080
-210.479	800.000	-0.033	-0.098
-209.465	6.218	-0.103	-0.076
-208.450	-179.815	0.182	0.004
-207.436	-200.000	0.034	0.475
-206.421	800.000	0.087	-0.296
-205.406	67.969	0.123	0.126
-204.392	-200.000	0.033	-0.205
-203.377	800.000	0.028	-0.108
-202.363	795.197	-0.037	0.103
-201.348	-77.785	-0.198	-0.068
-200.333	277.077	-0.127	0.224
-199.319	800.000	-0.031	-0.099
-198.304	-200.000	0.062	0.310
-197.290	30.487	0.182	0.155
-196.275	-3.347	-0.068	-0.047
-195.260	-200.000	0.037	-0.381
-194.246	-113.781	-0.115	0.022
-193.231	-200.000	-0.038	0.268
-192.217	-58.467	-0.373	-0.161
-191.202	-200.000	-0.037	-0.184
-190.187	181.377	0.137	0.200
-189.173	45.000	-0.251	0.231
-188.158	138.955	0.057	0.075
-187.144	-54.389	-0.070	0.032
-186.129	-200.000	0.007	-0.316
-185.114	-109.872	-0.141	0.029
-184.100	-200.000	0.015	-0.167
-183.085	-111.326	0.285	0.058
-182.071	48.855	0.146	-0.136
-181.056	-39.662	0.168	0.088
-180.042	662.801	0.008	-0.021
-179.027	-30.606	0.149	0.084
-178.012	290.361	0.159	0.289
-176.998	-60.352	-0.163	0.069
-175.983	-200.000	0.010	0.128
-174.969	667.389	-0.135	-0.347
-173.954	209.232	0.210	-0.327
-172.939	800.000	-0.055	0.158
-171.925	-200.000	-0.105	0.000
-170.910	800.000	0.051	0.146
-169.896	800.000	0.061	0.205
-168.881	59.436	-0.079	-0.078
-167.866	226.747	-0.168	-0.272
-166.852	259.380	0.016	0.027
-165.837	-109.413	0.156	0.033
-164.823	65.817	-0.335	0.338
-163.808	202.144	-0.163	0.251
-162.793	10.323	0.110	0.084
-161.779	-39.317	-0.160	-0.084
-160.764	-115.381	0.285	-0.054
-159.750	-200.000	-0.023	-0.140
-158.735	-19.512	0.120	0.074
-157.720	-200.000	-0.024	-0.131
-156.706	30.560	0.095	-0.081
-155.691	34.183	0.137	0.119
-154.677	-129.841	0.231	-0.032
-153.662	-200.000	0.008	-0.329
-152.647	-141.701	0.119	0.012
-151.633	337.150	0.104	-0.202
-150.618	7.513	0.128	-0.095
-149.604	-114.683	0.135	0.026
-148.589	-165.299	-0.029	-0.001
-147.574	-154.744	0.122	0.008
-146.560	800.000	-0.055	-0.188
-145.545	132.614	0.251	-0.322
-144.531	-200.000	0.016	0.191
-143.516	-112.528	0.548	0.109
-142.502	-74.300	0.262	0.094
-141.487	-187.238	0.223	0.003
-140.472	564.179	0.048	0.115
-139.458	355.837	-0.123	-0.244
-138.443	-200.000	0.017	0.192
-137.429	-200.000	-0.019	-0.227
-136.414	-45.228	-0.231	0.114
-135.399	-26.456	-0.164	0.096
-134.385	-81.924	0.131	0.042
-133.370	-44.166	-0.139	0.069
-132.356	231.190	-0.089	0.145
-131.341	518.496	0.092	0.215
-130.326	-200.000	0.326	0.001
-129.312	-143.376	0.314	-0.030
-128.297	-172.092	-0.150	-0.005
-127.283	216.529	0.184	-0.292
-126.268	-65.030	0.284	0.114
-125.253	-200.000	0.020	-0.406
-124.239	-164.852	-0.121	0.005
-123.224	-146.178	0.204	-0.018
-122.210	-187.796	0.074	-0.001
-121.195	-4.500	-0.117	-0.081
-120.180	-200.000	0.020	0.296
-119.166	201.168	0.126	0.193
-118.151	129.728	-0.131	0.167
-117.137	-77.072	-0.350	-0.121
-116.122	100.626	0.296	-0.342
-115.107	563.096	-0.105	-0.254
-114.093	124.393	-0.228	0.285
-113.078	-200.000	0.048	0.304
-112.064	65.071	0.181	-0.182
-111.049	-170.285	0.442	0.015
-110.034	674.183	0.010	0.027
-109.020	-9.109	-0.026	-0.017
-108.005	387.130	-0.060	-0.124
-106.991	-47.409	-0.036	-0.017
-105.976	-86.169	-0.086	-0.026
-104.962	800.000	-0.113	0.367
-103.947	-106.138	0.166	-0.037
-102.932	187.598	-0.116	-0.171
-101.918	-108.148	0.184	-0.040
-100.903	-125.099	0.369	-0.056
-99.889	-200.000	-0.010	0.178
-98.874	-56.569	0.137	-0.060
-97.859	800.000	-0.052	0.149
-96.845	800.000	0.084	0.285
-95.830	353.527	-0.151	0.298
-94.816	7.916	-0.109	0.081
-93.801	-89.987	0.211	0.061
-92.786	12.631	-0.261	0.200
-91.772	39.330	0.106	-0.094
-90.757	723.783	0.061	-0.162
-89.743	321.021	-0.052	-0.097
-88.728	41.602	-0.137	0.123
-87.713	800.000	0.043	0.143
-86.699	-43.304	0.275	0.138
-85.684	800.000	-0.027	0.080
-84.670	28.222	0.411	0.344
-83.655	-164.727	-0.369	0.017
-82.640	-200.000	0.003	-0.189
-81.626	-133.634	0.315	-0.039
-80.611	139.507	-0.149	-0.195
-79.597	800.000	-0.079	0.245
-78.582	800.000	-0.095	-0.402
-77.567	-172.716	-0.222	0.007
-76.553	-29.496	0.464	0.263
-75.538	800.000	-0.088	0.249
-74.524	-200.000	0.029	0.177
-73.509	328.714	0.055	0.105
-72.494	231.680	0.114	-0.185
-71.480	483.792	-0.077	0.174
-70.465	-60.271	0.201	0.085
-69.451	-80.847	0.170	-0.056
-68.436	-26.390	0.447	-0.260
-67.422	800.000	-0.022	-0.068
-66.407	-38.596	-0.167	0.088
-65.392	9.943	-0.128	0.096
-64.378	-5.684	0.256	0.174
-63.363	49.524	0.369	0.345
-62.349	75.818	0.040	-0.042
-61.334	159.199	-0.563	-0.777
-60.319	110.864	0.374	0.447
-59.305	481.039	-0.287	-0.647
-58.290	-200.000	0.080	0.792
-57.276	771.847	0.516	1.395
-56.261	-200.000	88.120	496.457
-55.246	481.157	1364.014	3069.475
-54.232	149.585	2583.818	3470.574
-53.217	105.426	2332.301	2731.765
-52.203	44.000	2077.231	1887.437
-51.188	39.323	1988.335	1764.773
-50.173	37.638	1969.293	1732.818
-49.159	50.685	2017.190	1892.826
-48.144	53.680	2037.714	1939.039
-47.130	40.018	1996.319	1777.836
-46.115	37.467	1984.517	1744.401
-45.100	37.435	1981.582	1741.474
-44.086	37.444	1978.262	1738.563
-43.071	37.485	1976.010	1736.884
-42.057	37.343	1974.182	1733.937
-41.042	37.411	1972.752	1733.215
-40.027	37.457	1970.128	1731.252
-39.013	37.415	1968.554	1729.430
-37.998	37.414	1966.898	1727.900
-36.984	37.457	1964.510	1726.115
-35.969	37.312	1963.454	1723.832
-34.954	37.434	1961.166	1722.832
-33.940	37.394	1960.345	1721.688
-32.925	37.481	1958.279	1720.576
-31.911	37.532	1956.843	1719.700
-30.896	37.477	1955.386	1717.862
-29.881	37.438	1953.909	1716.157
-28.867	37.598	1951.748	1715.599
-27.852	37.608	1950.058	1714.132
-26.838	37.604	1947.376	1711.669
-25.823	37.475	1946.538	1709.733
-24.809	37.467	1944.908	1708.161
-23.794	37.505	1943.040	1706.790
-22.779	37.427	1941.668	1704.828
-21.765	37.396	1940.168	1703.177
-20.750	37.425	1938.201	1701.637
-19.736	37.432	1936.764	1700.368
-18.721	37.433	1935.189	1698.927
-17.706	37.429	1933.515	1697.351
-16.692	37.441	1932.033	1696.092
-15.677	37.420	1930.673	1694.644
-14.663	37.477	1928.985	1693.595
-13.648	37.481	1927.860	1692.574
-12.633	37.354	1927.024	1690.670
-11.619	37.364	1925.295	1689.173
-10.604	37.465	1922.901	1687.876
-9.590	37.393	1922.255	1686.624
-8.575	37.377	1920.816	1685.154
-7.560	37.378	1919.385	1683.838
-6.546	37.460	1918.213	1683.452
-5.531	37.345	1917.023	1681.343
-4.517	37.407	1915.467	1680.447
-3.502	37.417	1914.393	1679.529
-2.487	37.353	1913.568	1678.185
-1.473	37.362	1912.484	1677.250
-0.458	37.421	1907.846	1673.617
0.556	36.888	1887.614	1644.156
1.571	32.248	1868.028	1587.860
2.586	27.885	1889.199	1568.349
3.600	26.751	1925.471	1588.383
4.615	26.075	1922.017	1579.482
5.629	19.845	1819.065	1442.954
6.644	8.146	1694.351	1252.506
7.659	2.147	1652.693	1175.538
8.673	1.689	1648.437	1168.888
9.688	1.541	1647.458	1166.955
10.702	1.492	1645.882	1165.357
11.717	1.388	1643.016	1162.431
12.731	1.784	1642.347	1164.884
13.746	8.888	1658.850	1231.200
14.761	19.779	1682.969	1333.428
15.775	24.903	1693.075	1380.948
16.790	25.652	1693.942	1387.310
17.804	25.733	1693.014	1387.055
18.819	25.776	1692.300	1386.681
19.834	26.004	1691.084	1387.310
20.848	26.052	1691.098	1387.567
21.863	26.234	1689.496	1387.533
22.877	26.199	1688.864	1386.624
23.892	26.256	1687.792	1386.059
24.907	26.092	1687.663	1384.569
25.921	26.224	1685.844	1383.969
26.936	26.166	1685.076	1382.771
27.950	26.254	1683.881	1382.338
28.965	26.091	1683.760	1380.874
29.980	26.254	1682.155	1380.680
30.994	26.125	1681.776	1379.263
32.009	26.229	1680.019	1378.491
33.023	26.154	1679.355	1377.254
34.038	26.127	1678.192	1375.966
35.053	26.112	1677.539	1375.197
36.067	26.211	1676.045	1374.603
37.082	26.121	1675.132	1373.049
38.096	26.158	1674.377	1372.591
39.111	26.182	1673.611	1372.025
40.126	26.173	1672.926	1371.274
41.140	26.088	1672.190	1369.901
42.155	26.188	1670.966	1369.539
43.169	26.153	1669.900	1368.275
44.184	26.193	1668.907	1367.644
45.199	26.069	1668.338	1366.118
46.213	26.043	1666.799	1364.538
47.228	26.076	1665.647	1363.727
48.242	26.176	1664.282	1363.243
49.257	26.242	1663.216	1362.751
50.271	26.247	1661.701	1361.426
51.286	26.201	1660.975	1360.362
52.301	26.120	1659.724	1358.607
53.315	26.220	1658.052	1357.871
54.330	26.073	1656.898	1355.701
55.344	26.090	1655.492	1354.560
56.359	26.184	1653.938	1353.875
57.374	26.216	1653.120	1353.323
58.388	26.195	1651.901	1352.047
59.403	26.197	1650.876	1351.106
60.417	26.191	1650.089	1350.291
61.432	26.210	1648.893	1349.341
62.447	26.105	1647.780	1347.521
63.461	26.207	1646.269	1346.929
64.476	26.149	1646.115	1346.253
65.490	26.180	1645.084	1345.518
66.505	26.147	1643.567	1343.919
67.520	26.113	1642.556	1342.718
68.534	26.172	1641.855	1342.464
69.549	26.309	1640.383	1342.160
70.563	26.253	1639.231	1340.681
71.578	26.254	1638.007	1339.569
72.593	26.146	1637.460	1338.201
73.607	26.191	1636.825	1337.897
74.622	26.218	1635.710	1337.066
75.636	26.123	1635.013	1335.681
76.651	26.144	1634.085	1334.960
77.666	26.117	1633.190	1333.907
78.680	26.224	1631.916	1333.542
79.695	26.199	1631.290	1332.726
80.709	26.250	1630.351	1332.220
81.724	26.210	1629.580	1331.175
82.739	26.157	1628.902	1330.110
83.753	26.240	1627.758	1329.670
84.768	26.239	1626.729	1328.706
85.782	26.228	1625.904	1327.835
86.797	26.193	1625.437	1327.080
87.812	26.273	1624.402	1326.703
88.826	26.314	1623.035	1325.771
89.841	26.250	1621.739	1324.126
90.855	26.225	1621.269	1323.440
91.870	26.190	1620.079	1322.099
92.884	26.235	1619.367	1321.724
93.899	26.192	1618.538	1320.622
94.914	26.179	1617.501	1319.562
95.928	26.209	1615.764	1318.243
96.943	26.203	1614.510	1317.064
97.957	26.121	1613.531	1315.554
98.972	26.259	1612.160	1315.321
99.987	26.298	1610.467	1314.106
101.001	26.262	1608.822	1312.387
102.016	26.160	1607.799	1310.699
103.030	26.134	1606.498	1309.329
104.045	26.250	1605.566	1309.295
105.060	26.098	1604.351	1307.087
106.074	26.180	1603.215	1306.642
107.089	26.211	1601.560	1305.400
108.103	26.107	1600.941	1304.028
109.118	26.160	1600.252	1303.735
110.133	26.158	1599.137	1302.699
111.147	26.311	1597.330	1302.213
112.162	26.288	1596.704	1301.419
113.176	26.249	1595.468	1300.019
114.191	26.248	1594.617	1299.201
115.206	26.267	1593.399	1298.228
116.220	26.191	1592.473	1296.814
117.235	26.182	1591.110	1295.529
118.249	26.258	1589.985	1295.042
119.264	26.223	1589.059	1293.922
120.279	26.191	1588.147	1292.834
121.293	26.261	1586.774	1292.103
122.308	26.254	1585.870	1291.206
123.322	26.291	1584.460	1290.204
124.337	26.315	1583.256	1289.284
125.352	26.301	1581.989	1288.033
126.366	26.392	1581.319	1288.029
127.381	26.315	1580.795	1286.936
128.395	26.346	1579.505	1285.989
129.410	26.253	1578.561	1284.447
130.424	26.322	1577.121	1283.654
131.439	26.304	1576.281	1282.729
132.454	26.374	1574.672	1281.804
133.468	26.264	1574.078	1280.429
134.483	26.338	1572.037	1279.172
135.497	26.347	1570.902	1278.201
136.512	26.326	1569.843	1277.080
137.527	26.333	1568.740	1276.116
138.541	26.456	1567.624	1275.967
139.556	26.328	1566.828	1274.304
140.570	26.303	1565.622	1273.034
141.585	26.282	1564.360	1271.745
142.600	26.413	1562.914	1271.379
143.614	26.298	1562.144	1269.831
144.629	26.436	1560.627	1269.454
145.643	26.344	1559.699	1267.946
146.658	26.316	1558.489	1266.653
147.673	26.334	1557.057	1265.505
148.687	26.344	1555.904	1264.519
149.702	26.308	1555.238	1263.618
150.716	26.302	1553.641	1262.167
151.731	26.248	1552.696	1260.909
152.746	26.257	1551.612	1259.981
153.760	26.303	1550.190	1259.034
154.775	26.361	1549.446	1258.726
155.789	26.433	1548.503	1258.345
156.804	26.354	1547.364	1256.763
157.819	26.401	1546.150	1255.988
158.833	26.285	1545.442	1254.497
159.848	26.399	1544.702	1254.579
160.862	26.422	1543.712	1253.822
161.877	26.382	1542.361	1252.334
162.892	26.447	1540.949	1251.531
163.906	26.441	1540.842	1251.288
164.921	26.402	1539.728	1250.007
165.935	26.396	1538.998	1249.258
166.950	26.416	1538.226	1248.659
167.964	26.393	1537.082	1247.462
168.979	26.488	1535.739	1246.920
169.994	26.427	1534.860	1245.676
171.008	26.457	1534.131	1245.175
172.023	26.485	1533.238	1244.537
173.037	26.564	1531.611	1243.644
174.052	26.509	1530.438	1242.205
175.067	26.456	1530.184	1241.529
176.081	26.537	1529.025	1241.036
177.096	26.413	1528.093	1239.316
178.110	26.467	1527.151	1238.814
179.125	26.405	1526.559	1237.801
180.140	26.410	1525.549	1236.902
181.154	26.590	1524.456	1237.136
182.169	26.434	1523.489	1235.181
183.183	26.531	1522.387	1234.842
184.198	26.567	1521.295	1234.087
185.213	26.549	1520.654	1233.334
186.227	26.576	1519.700	1232.638
187.242	26.562	1519.165	1232.002
188.256	26.532	1518.559	1231.195
189.271	26.536	1517.636	1230.365
190.286	26.635	1516.724	1230.190
191.300	26.598	1516.039	1229.276
192.315	26.649	1514.662	1228.396
193.329	26.536	1513.990	1226.975
194.344	26.561	1513.146	1226.352
195.359	26.585	1512.488	1225.875
196.373	26.581	1511.790	1225.173
197.388	26.551	1510.641	1223.932
198.402	26.528	1509.767	1222.959
199.417	26.405	1508.850	1221.276
200.432	26.369	1508.457	1220.607
201.446	26.470	1507.637	1220.513
202.461	26.557	1506.287	1219.904
203.475	26.623	1505.534	1219.630
204.490	26.591	1504.395	1218.382
205.504	26.557	1503.839	1217.595
206.519	26.506	1503.022	1216.483
207.534	26.592	1502.062	1216.177
208.548	26.723	1501.164	1216.221
209.563	26.622	1500.528	1214.918
210.577	26.528	1499.636	1213.457
211.592	26.590	1498.622	1212.949
212.607	26.625	1498.121	1212.667
213.621	26.646	1497.601	1212.280
214.636	26.634	1496.704	1211.371
215.650	26.650	1495.978	1210.782
216.665	26.632	1494.900	1209.677
217.680	26.655	1494.322	1209.262
218.694	26.700	1493.426	1208.726
219.709	26.713	1492.861	1208.250
220.723	26.716	1491.341	1206.934
221.738	26.761	1491.121	1206.944
222.753	26.729	1490.029	1205.747
223.767	26.616	1489.045	1204.090
224.782	26.630	1488.171	1203.366
225.796	26.733	1487.222	1203.181
226.811	26.761	1486.534	1202.701
227.826	26.700	1486.097	1201.836
228.840	26.732	1485.521	1201.476
229.855	26.786	1484.709	1201.068
230.869	26.779	1483.651	1200.063
231.884	26.686	1483.076	1198.876
232.899	26.695	1481.649	1197.680
233.913	26.769	1480.830	1197.394
234.928	26.707	1479.862	1196.096
235.942	26.783	1478.886	1195.706
236.957	26.789	1477.918	1194.859
237.972	26.776	1476.722	1193.696
238.986	26.768	1475.689	1192.706
240.001	26.782	1474.722	1191.914
241.015	26.840	1473.963	1191.573
242.030	26.911	1472.701	1190.911
243.045	26.935	1471.865	1190.288
244.059	27.046	1470.684	1189.953
245.074	26.963	1470.256	1188.964
246.088	27.010	1469.663	1188.684
247.103	26.944	1468.991	1187.601
248.117	27.040	1468.066	1187.376
249.132	26.917	1467.236	1185.799
250.147	26.920	1466.998	1185.521
251.161	27.029	1465.869	1185.214
252.176	27.046	1464.780	1184.341
253.190	27.007	1464.451	1183.716
254.205	27.084	1463.653	1183.470
255.220	26.983	1462.984	1182.162
256.234	27.066	1461.814	1181.656
257.249	27.061	1461.235	1181.048
258.263	27.025	1460.576	1180.175
259.278	26.974	1459.856	1179.161
260.293	26.994	1459.221	1178.672
261.307	27.090	1458.117	1178.298
262.322	27.161	1457.297	1177.990
263.336	27.081	1456.782	1176.951
264.351	27.160	1455.285	1176.149
265.366	27.011	1454.723	1174.632
266.380	27.133	1453.906	1174.653
267.395	27.095	1452.842	1173.446
268.409	27.093	1452.418	1172.983
269.424	27.078	1451.498	1172.044
270.439	27.072	1450.430	1171.038
271.453	27.148	1449.383	1170.581
272.468	27.155	1448.501	1169.807
273.482	27.199	1448.290	1169.818
274.497	27.036	1447.653	1168.151
275.512	27.096	1446.193	1167.253
276.526	27.220	1445.798	1167.625
277.541	27.160	1445.175	1166.639
278.555	27.131	1444.421	1165.737
279.570	27.305	1443.448	1165.963
280.585	27.139	1442.613	1164.125
281.599	27.238	1441.589	1163.828
282.614	27.204	1440.887	1162.942
283.628	27.252	1439.491	1162.022
284.643	27.198	1438.896	1161.093
285.657	27.272	1438.222	1160.918
286.672	27.274	1437.373	1160.145
287.687	27.311	1436.275	1159.390
288.701	27.213	1435.639	1158.148
289.716	27.368	1434.635	1158.222
290.730	27.389	1434.058	1157.788
291.745	27.347	1433.141	1156.680
292.760	27.254	1432.762	1155.678
293.774	27.305	1431.528	1154.903
294.789	27.301	1430.577	1154.009
295.803	27.286	1430.386	1153.656
296.818	27.379	1429.328	1153.291
297.833	27.371	1428.511	1152.478
298.847	27.112	1428.204	1150.493
299.862	27.291	1427.088	1150.620
300.876	27.343	1426.202	1150.133
301.891	27.353	1425.250	1149.330
302.906	27.347	1424.683	1148.732
303.920	27.511	1423.695	1148.865
304.935	27.490	1423.204	1148.237
305.949	27.480	1422.690	1147.656
306.964	27.423	1421.865	1146.531
307.979	27.485	1420.911	1146.054
308.993	27.562	1419.936	1145.650
310.008	27.530	1419.466	1144.969
311.022	27.468	1418.396	1143.615
312.037	27.547	1417.201	1143.042
313.052	27.469	1416.459	1141.857
314.066	27.557	1415.653	1141.655
315.081	27.543	1414.545	1140.573
316.095	27.553	1413.744	1139.890
317.110	27.441	1413.282	1138.714
318.125	27.585	1411.928	1138.423
319.139	27.578	1411.169	1137.665
320.154	27.593	1410.184	1136.868
321.168	27.556	1409.496	1135.982
322.183	27.605	1408.584	1135.452
323.197	27.546	1407.642	1134.225
324.212	27.630	1406.797	1133.965
325.227	27.560	1406.287	1133.020
326.241	27.655	1405.384	1132.781
327.256	27.743	1404.732	1132.699
328.270	27.579	1404.188	1131.142
329.285	27.694	1403.453	1131.163
330.300	27.689	1402.362	1130.154
331.314	27.799	1401.003	1129.640
332.329	27.722	1400.863	1128.954
333.343	27.713	1399.837	1127.968
334.358	27.840	1399.286	1128.208
335.373	27.798	1399.236	1127.808
336.387	27.772	1398.193	1126.708
337.402	27.842	1397.174	1126.218
338.416	27.859	1396.697	1125.843
339.431	27.828	1396.463	1125.362
340.446	27.868	1395.489	1124.724
341.460	27.908	1394.451	1124.031
342.475	27.898	1393.750	1123.305
343.489	27.921	1392.562	1122.392
344.504	27.928	1392.064	1121.935
345.519	27.881	1390.775	1120.505
346.533	27.893	1389.840	1119.727
347.548	27.949	1389.125	1119.394
348.562	28.043	1388.271	1119.183
349.577	27.859	1387.758	1117.545
350.592	27.876	1386.851	1116.822
351.606	27.802	1386.386	1115.895
352.621	27.913	1385.118	1115.456
353.635	27.782	1384.392	1113.969
354.650	27.916	1383.344	1113.843
355.665	27.994	1382.757	1113.749
356.679	28.091	1381.614	1113.320
357.694	27.960	1380.580	1111.594
358.708	28.012	1379.691	1111.095
359.723	28.044	1378.286	1110.057
360.738	28.107	1377.128	1109.411
361.752	28.066	1376.262	1108.365
362.767	27.980	1375.124	1106.833
363.781	28.042	1374.240	1106.397
364.796	28.056	1373.603	1105.869
365.810	28.091	1372.658	1105.222
366.825	28.155	1372.156	1105.108
367.840	28.085	1371.554	1104.101
368.854	28.100	1371.102	1103.733
369.869	28.182	1370.532	1103.666
370.883	28.286	1369.823	1103.629
371.898	28.206	1369.068	1102.437
372.913	28.250	1368.405	1102.075
373.927	28.191	1367.784	1101.123
374.942	28.192	1366.880	1100.299
375.956	28.240	1366.188	1099.937
376.971	28.232	1365.419	1099.171
377.986	28.265	1364.548	1098.573
379.000	28.171	1363.900	1097.390
380.015	28.190	1363.292	1096.916
381.029	28.308	1362.484	1096.877
382.044	28.207	1362.119	1095.880
383.059	28.240	1361.161	1095.211
384.073	28.311	1360.645	1095.122
385.088	28.327	1360.065	1094.652
386.102	28.388	1359.432	1094.410
387.117	28.389	1358.816	1093.822
388.132	28.389	1358.214	1093.245
389.146	28.321	1357.355	1092.048
390.161	28.312	1356.716	1091.387
391.175	28.500	1355.675	1091.569
392.190	28.427	1355.472	1090.878
393.205	28.431	1354.518	1090.036
394.219	28.336	1353.560	1088.602
395.234	28.392	1352.966	1088.363
396.248	28.395	1351.944	1087.459
397.263	28.532	1350.251	1086.813
398.278	28.557	1349.148	1085.977
399.292	28.586	1348.352	1085.414
400.307	28.534	1348.016	1084.738
401.321	28.603	1346.621	1083.927
402.336	28.593	1345.984	1083.261
403.350	28.529	1344.973	1081.973
404.365	28.544	1343.917	1081.120
405.380	28.618	1343.262	1080.928
406.394	28.585	1342.821	1080.288
407.409	28.620	1341.669	1079.470
408.423	28.689	1340.955	1079.206
409.438	28.625	1340.269	1078.182
410.453	28.596	1339.788	1077.531
411.467	28.624	1339.075	1077.026
412.482	28.711	1338.550	1077.016
413.496	28.760	1338.055	1076.810
414.511	28.649	1337.298	1075.458
415.526	28.615	1336.498	1074.516
416.540	28.768	1335.742	1074.712
417.555	28.668	1335.233	1073.622
418.569	28.722	1334.443	1073.204
419.584	28.681	1334.439	1072.870
420.599	28.781	1333.683	1072.750
421.613	89.611	1342.754	1422.628
422.628	89.397	1344.050	1422.727
