DTS Sentinel unit serial number:	SN413079Multiplexer serial number:	ORYXHardware model number:	OX4-SRSoftware version number:	ORYX F/W v4.00 Oryx Data Collector v3.7.2.0data status	okinstallation	princeton_trtdifferential loss correction	single-endedforward channel	channel 4reverse channel	N/Adate	2019/09/10time	18:31:10forward acquisition time	60.00reverse acquisition time	0.00gamma	496.2192k internal	0.2301k external	0.2301temperature offset calibration	0.9945default loss term (dB/km)	0.3790temperature slope calibration	1.0000multiplexer offset coefficient	1.0000multiplexer slope coefficient	1.0000fibre end	0.00T internal ref (°C)	35.83T ext. ref 1 (°C)	-0.32T ext. ref 2 (°C)	27.92length (m)	temperature (°C)	Stokes	anti-Stokes-747.200	-11.062	-0.429	-0.289
-746.185	-27.893	-0.180	0.106
-745.171	800.000	-0.028	-0.123
-744.156	199.246	-0.111	0.173
-743.142	800.000	-0.032	0.134
-742.127	-114.078	0.283	-0.056
-741.112	-200.000	-0.029	-0.170
-740.098	-120.481	-0.361	-0.062
-739.083	-28.810	-0.057	0.033
-738.069	44.398	-0.233	0.218
-737.054	68.478	0.155	-0.162
-736.039	800.000	-0.125	-0.386
-735.025	-115.489	0.563	0.108
-734.010	800.000	-0.077	-0.280
-732.996	-20.518	-0.290	-0.182
-731.981	201.989	0.052	-0.082
-730.966	800.000	0.153	-0.466
-729.952	-200.000	0.015	-0.109
-728.937	394.065	0.024	-0.051
-727.923	-76.501	-0.457	0.164
-726.908	-70.626	0.256	-0.099
-725.894	-86.486	0.115	-0.036
-724.879	-200.000	-0.015	0.440
-723.864	189.342	-0.250	0.382
-722.850	92.350	0.198	-0.227
-721.835	329.115	0.110	0.216
-720.821	-17.095	0.165	-0.106
-719.806	-111.256	0.216	-0.045
-718.791	-173.836	0.268	-0.008
-717.777	800.000	-0.023	-0.068
-716.762	-132.616	-0.280	-0.037
-715.748	-73.183	0.237	-0.088
-714.733	237.086	0.143	-0.241
-713.718	-103.108	-0.325	-0.078
-712.704	-65.119	-0.022	-0.009
-711.689	-65.510	0.295	0.121
-710.675	-61.930	-0.346	-0.147
-709.660	29.273	-0.219	-0.189
-708.645	-99.955	0.175	0.045
-707.631	131.329	0.147	-0.193
-706.616	452.335	-0.072	-0.162
-705.602	88.187	-0.043	0.049
-704.587	-200.000	-0.021	0.274
-703.572	-137.963	0.072	-0.008
-702.558	134.834	-0.120	-0.158
-701.543	6.693	0.151	-0.115
-700.529	-102.655	0.263	-0.064
-699.514	-117.830	-0.136	0.025
-698.499	800.000	-0.038	-0.134
-697.485	157.100	0.192	-0.270
-696.470	-99.575	-0.188	-0.048
-695.456	-200.000	0.007	-0.120
-694.441	-200.000	-0.002	-0.254
-693.426	-108.300	0.184	-0.041
-692.412	-86.396	-0.084	0.026
-691.397	-40.013	-0.124	0.066
-690.383	50.244	-0.356	-0.342
-689.368	244.996	-0.086	-0.148
-688.354	-71.720	0.193	0.073
-687.339	-9.317	-0.137	0.093
-686.324	217.595	-0.061	-0.099
-685.310	-135.695	0.208	-0.025
-684.295	-200.000	-0.011	0.089
-683.281	800.000	0.173	-0.577
-682.266	-182.024	-0.164	0.003
-681.251	-114.130	-0.266	-0.052
-680.237	-1.710	0.032	-0.023
-679.222	-17.874	-0.303	0.193
-678.208	46.148	-0.197	-0.186
-677.193	-199.202	-0.069	0.000
-676.178	631.248	0.060	0.154
-675.164	489.011	0.026	0.061
-674.149	6.691	0.228	0.173
-673.135	227.274	0.104	-0.172
-672.120	164.734	0.108	0.155
-671.105	145.454	-0.131	-0.179
-670.091	-121.240	-0.254	-0.043
-669.076	29.999	-0.151	0.131
-668.062	103.775	-0.153	-0.182
-667.047	-77.664	0.217	0.076
-666.032	-134.863	-0.252	-0.031
-665.018	-38.177	0.104	0.056
-664.003	-70.718	-0.086	-0.033
-662.989	-29.228	0.194	0.113
-661.974	-126.219	-0.243	0.037
-660.959	734.630	0.136	-0.369
-659.945	513.860	-0.134	-0.318
-658.930	-200.000	-0.007	-0.221
-657.916	-100.166	-0.287	-0.073
-656.901	268.615	-0.077	0.137
-655.886	176.803	-0.062	0.092
-654.872	81.834	-0.099	-0.108
-653.857	-139.231	0.074	-0.008
-652.843	103.707	-0.273	-0.326
-651.828	800.000	-0.150	-0.505
-650.814	800.000	-0.040	0.125
-649.799	63.053	-0.141	0.144
-648.784	783.916	-0.038	0.106
-647.770	-33.870	-0.159	-0.089
-646.755	-87.344	-0.221	0.068
-645.741	106.876	-0.070	-0.084
-644.726	-84.641	0.073	0.023
-643.711	-141.353	-0.218	0.022
-642.697	-200.000	-0.041	-0.189
-641.682	114.713	-0.146	-0.180
-640.668	800.000	0.066	0.225
-639.653	625.465	0.029	-0.073
-638.638	507.768	-0.077	-0.182
-637.624	381.375	0.068	0.141
-636.609	-48.785	-0.167	0.081
-635.595	163.527	-0.101	-0.144
-634.580	469.836	-0.046	0.106
-633.565	-60.690	0.224	-0.096
-632.551	18.934	-0.096	-0.078
-631.536	800.000	-0.084	-0.302
-630.522	-85.006	-0.368	-0.117
-629.507	141.288	0.201	0.270
-628.492	166.576	0.141	0.202
-627.478	-200.000	0.015	-0.196
-626.463	-200.000	-0.001	0.222
-625.449	-69.206	0.165	0.065
-624.434	-81.817	-0.309	-0.103
-623.419	88.315	0.134	-0.151
-622.405	-11.765	0.110	-0.073
-621.390	484.675	-0.079	0.182
-620.376	-46.184	0.163	0.081
-619.361	13.649	-0.238	-0.187
-618.346	376.526	0.178	-0.369
-617.332	22.230	-0.119	-0.098
-616.317	-111.746	-0.203	-0.042
-615.303	152.561	-0.057	0.079
-614.288	800.000	-0.033	0.110
-613.273	122.022	-0.251	0.318
-612.259	-118.435	-0.225	0.041
-611.244	-17.380	-0.322	-0.206
-610.230	800.000	-0.027	-0.077
-609.215	-2.950	-0.135	-0.095
-608.201	-82.304	0.286	-0.094
-607.186	-35.471	-0.168	-0.093
-606.171	314.363	-0.149	0.285
-605.157	800.000	0.110	-0.381
-604.142	-58.983	-0.236	0.104
-603.128	-64.011	0.220	0.091
-602.113	90.950	-0.116	0.132
-601.098	-90.493	-0.152	0.045
-600.084	-171.673	-0.264	0.009
-599.069	-106.506	-0.390	0.088
-598.055	-200.000	0.024	-0.112
-597.040	233.162	-0.150	-0.250
-596.025	-118.460	0.141	0.025
-595.011	283.845	-0.194	0.353
-593.996	92.041	-0.239	-0.272
-592.982	-91.274	-0.296	-0.086
-591.967	9.417	0.105	0.080
-590.952	-200.000	0.040	-0.521
-589.938	440.575	0.102	-0.225
-588.923	-18.377	0.180	-0.114
-587.909	800.000	-0.058	-0.198
-586.894	-159.557	0.492	-0.028
-585.879	639.360	0.093	0.240
-584.865	-83.363	-0.206	-0.067
-583.850	-116.309	-0.412	-0.077
-582.836	-95.119	0.160	0.044
-581.821	451.211	-0.135	0.301
-580.806	25.925	0.063	0.053
-579.792	-58.407	-0.129	0.057
-578.777	388.789	0.088	0.184
-577.763	-38.230	0.194	0.104
-576.748	6.948	0.056	0.042
-575.733	594.012	0.110	0.276
-574.719	800.000	-0.042	0.119
-573.704	800.000	0.096	0.358
-572.690	89.644	-0.060	-0.068
-571.675	-89.971	0.170	0.050
-570.661	-177.097	-0.297	-0.008
-569.646	384.988	0.061	0.127
-568.631	607.458	0.100	0.253
-567.617	107.866	0.116	0.140
-566.602	499.099	0.103	-0.239
-565.588	800.000	-0.147	-0.424
-564.573	107.523	-0.178	0.215
-563.558	-120.648	0.376	-0.064
-562.544	91.769	-0.241	0.274
-561.529	27.417	0.225	-0.191
-560.515	-200.000	0.003	-0.271
-559.500	10.726	-0.175	-0.135
-558.485	416.061	0.093	0.200
-557.471	-200.000	0.005	-0.185
-556.456	-200.000	0.073	-0.466
-555.442	172.178	-0.088	0.129
-554.427	36.272	-0.049	0.043
-553.412	39.594	-0.077	0.070
-552.398	120.662	-0.218	-0.274
-551.383	67.421	0.195	-0.201
-550.369	-200.000	0.037	-0.306
-549.354	-93.985	0.045	-0.012
-548.339	-119.734	-0.054	0.009
-547.325	104.529	-0.241	-0.287
-546.310	771.247	0.130	-0.359
-545.296	-16.586	-0.178	0.114
-544.281	-89.453	-0.302	0.090
-543.266	-114.942	-0.213	-0.041
-542.252	-69.387	-0.215	0.084
-541.237	-73.109	-0.434	-0.161
-540.223	292.385	-0.026	-0.048
-539.208	-7.199	-0.103	0.070
-538.193	800.000	0.080	0.268
-537.179	255.118	0.071	-0.124
-536.164	-56.405	-0.186	0.084
-535.150	107.300	-0.093	0.112
-534.135	185.407	0.073	0.109
-533.121	283.228	-0.090	0.164
-532.106	121.131	-0.044	-0.055
-531.091	99.810	0.247	0.289
-530.077	800.000	0.086	0.243
-529.062	-200.000	0.008	0.065
-528.048	62.644	-0.091	0.092
-527.033	224.710	0.097	0.158
-526.018	101.051	-0.270	0.318
-525.004	-200.000	0.029	0.210
-523.989	-81.367	-0.225	-0.075
-522.975	800.000	-0.028	0.098
-521.960	265.882	-0.172	-0.304
-520.945	23.988	0.216	0.180
-519.931	186.948	-0.027	-0.041
-518.916	-47.256	-0.134	-0.066
-517.902	800.000	0.039	0.130
-516.887	-6.130	-0.166	0.115
-515.872	131.570	0.329	0.427
-514.858	132.413	0.138	-0.180
-513.843	800.000	0.101	-0.286
-512.829	800.000	0.081	-0.293
-511.814	-48.919	-0.091	-0.044
-510.799	-142.735	-0.393	-0.039
-509.785	-124.569	-0.136	0.021
-508.770	64.056	-0.088	-0.089
-507.756	114.076	0.245	0.301
-506.741	-200.000	0.045	-0.302
-505.726	390.666	0.021	0.044
-504.712	-200.000	0.026	0.222
-503.697	-116.655	-0.138	0.026
-502.683	-200.000	-0.007	0.088
-501.668	-7.708	0.259	-0.177
-500.653	-26.950	-0.201	0.119
-499.639	-200.000	0.004	0.292
-498.624	40.213	-0.165	-0.150
-497.610	79.307	0.171	-0.185
-496.595	-200.000	0.006	0.219
-495.581	-118.078	-0.410	0.074
-494.566	-117.546	0.363	-0.066
-493.551	-114.684	-0.040	-0.008
-492.537	336.416	-0.052	-0.103
-491.522	46.564	0.207	0.194
-490.508	-122.141	0.185	0.031
-489.493	-143.216	-0.158	-0.015
-488.478	-79.357	-0.290	-0.099
-487.464	743.132	0.100	-0.273
-486.449	-155.839	-0.321	0.021
-485.435	162.720	-0.167	-0.237
-484.420	800.000	-0.053	0.227
-483.405	47.558	0.093	-0.087
-482.391	30.504	-0.303	-0.262
-481.376	83.659	-0.201	0.221
-480.362	-64.412	0.096	-0.039
-479.347	71.503	0.106	-0.111
-478.332	-200.000	-0.016	0.124
-477.318	20.407	0.225	0.184
-476.303	-119.251	-0.069	-0.012
-475.289	222.867	0.090	-0.147
-474.274	-49.852	0.150	-0.072
-473.259	-0.348	-0.186	-0.133
-472.245	-119.212	-0.280	-0.049
-471.230	-113.331	0.211	-0.042
-470.216	-6.876	0.187	-0.128
-469.201	27.430	0.252	0.214
-468.186	-200.000	-0.030	-0.184
-467.172	52.493	-0.025	0.025
-466.157	146.003	0.090	-0.121
-465.143	122.981	0.198	0.250
-464.128	800.000	0.091	0.303
-463.113	82.370	0.079	-0.087
-462.099	-200.000	0.056	-0.350
-461.084	-153.174	-0.125	-0.009
-460.070	104.237	-0.134	-0.159
-459.055	619.823	0.093	-0.236
-458.040	-121.839	0.379	0.063
-457.026	-110.800	0.163	0.034
-456.011	66.140	-0.226	0.232
-454.997	-145.284	0.122	0.011
-453.982	101.415	0.263	-0.309
-452.968	155.688	0.113	0.157
-451.953	535.898	0.055	-0.132
-450.938	583.534	0.030	0.073
-449.924	7.576	0.260	-0.196
-448.909	733.180	0.041	-0.110
-447.895	-200.000	-0.033	-0.165
-446.880	-200.000	-0.035	-0.252
-445.865	-145.781	0.354	-0.032
-444.851	-80.860	0.165	0.055
-443.836	13.881	-0.111	-0.087
-442.822	-76.399	-0.397	-0.141
-441.807	-102.706	-0.135	0.032
-440.792	264.687	-0.118	-0.207
-439.778	-16.703	0.065	-0.041
-438.763	34.368	0.185	-0.163
-437.749	557.268	0.154	-0.375
-436.734	-69.375	-0.422	0.163
-435.719	-50.499	-0.281	0.134
-434.705	115.144	-0.141	-0.174
-433.690	-70.858	0.291	-0.110
-432.676	272.547	0.101	-0.180
-431.661	-94.713	0.196	-0.054
-430.646	133.378	0.037	-0.048
-429.632	70.761	-0.197	0.206
-428.617	279.418	-0.066	-0.118
-427.603	432.672	-0.213	-0.466
-426.588	-183.102	0.363	-0.006
-425.573	-14.041	0.251	-0.163
-424.559	-200.000	-0.064	-0.283
-423.544	-200.000	-0.089	0.000
-422.530	8.445	0.335	0.254
-421.515	-146.336	0.011	0.001
-420.500	165.677	0.056	0.080
-419.486	-64.481	0.242	0.099
-418.471	-17.127	-0.109	0.069
-417.457	143.366	0.328	0.440
-416.442	-89.405	0.156	-0.046
-415.428	130.330	0.090	-0.116
-414.413	-200.000	0.046	-0.245
-413.398	-23.661	-0.120	0.073
-412.384	57.741	-0.175	0.172
-411.369	-57.001	0.038	-0.017
-410.355	-145.385	-0.310	-0.028
-409.340	-31.864	0.268	0.151
-408.325	-136.976	0.317	0.037
-407.311	-184.185	-0.325	0.005
-406.296	71.398	-0.165	0.173
-405.282	-102.021	0.463	-0.112
-404.267	-26.909	0.014	-0.008
-403.252	86.412	-0.080	0.089
-402.238	165.988	-0.084	0.120
-401.223	800.000	0.113	0.398
-400.209	-200.000	-0.030	0.164
-399.194	67.091	-0.350	0.359
-398.179	67.405	0.063	-0.065
-397.165	206.343	-0.121	-0.189
-396.150	800.000	-0.035	0.130
-395.136	-56.754	0.267	-0.119
-394.121	499.004	-0.127	-0.293
-393.106	-200.000	0.059	-0.412
-392.092	-200.000	0.002	-0.015
-391.077	800.000	0.062	-0.258
-390.063	-200.000	-0.005	-0.206
-389.048	-54.894	0.264	-0.120
-388.033	-136.947	0.168	0.019
-387.019	216.765	-0.187	-0.299
-386.004	-50.531	0.275	0.130
-384.990	-7.750	-0.343	0.233
-383.975	-164.839	0.268	-0.012
-382.960	-19.596	0.266	0.166
-381.946	11.329	0.132	-0.101
-380.931	800.000	0.076	-0.223
-379.917	800.000	-0.113	-0.392
-378.902	9.520	-0.244	0.185
-377.888	313.222	0.078	0.148
-376.873	129.435	0.126	-0.162
-375.858	-65.934	-0.219	0.088
-374.844	-200.000	0.010	-0.114
-373.829	67.239	-0.134	0.138
-372.815	-63.538	-0.188	-0.077
-371.800	-9.652	0.117	-0.078
-370.785	242.376	0.051	0.085
-369.771	-125.768	-0.041	0.006
-368.756	-200.000	0.020	0.182
-367.742	-61.947	-0.096	-0.040
-366.727	-92.929	-0.230	0.065
-365.712	800.000	-0.105	0.303
-364.698	0.013	-0.264	0.189
-363.683	98.638	0.262	-0.303
-362.669	-13.741	0.187	-0.121
-361.654	-200.000	-0.009	0.103
-360.639	543.189	-0.094	0.225
-359.625	800.000	-0.092	0.304
-358.610	800.000	0.054	0.161
-357.596	-145.780	0.110	-0.010
-356.581	160.850	0.125	-0.175
-355.566	800.000	0.041	0.172
-354.552	127.721	0.260	0.332
-353.537	800.000	0.084	0.243
-352.523	-72.878	-0.289	-0.107
-351.508	-142.189	0.336	0.033
-350.493	-61.800	0.165	0.069
-349.479	-152.735	0.318	0.023
-348.464	429.337	0.134	-0.292
-347.450	-57.138	-0.260	-0.115
-346.435	-200.000	0.032	0.191
-345.420	-170.291	0.259	-0.009
-344.406	-53.294	0.272	-0.125
-343.391	-200.000	-0.007	-0.098
-342.377	26.207	0.299	0.250
-341.362	319.982	0.157	0.299
-340.348	-92.485	0.174	0.049
-339.333	-143.975	-0.177	-0.017
-338.318	-185.899	0.175	0.003
-337.304	788.878	-0.030	0.082
-336.289	-134.045	-0.075	0.009
-335.275	800.000	0.066	0.257
-334.260	-27.684	0.290	-0.169
-333.245	-32.068	0.291	-0.163
-332.231	3.888	0.211	0.155
-331.216	219.334	-0.105	0.168
-330.202	800.000	0.090	0.334
-329.187	-70.991	0.194	-0.073
-328.172	-200.000	-0.032	-0.199
-327.158	800.000	0.058	0.245
-326.143	529.436	-0.166	-0.394
-325.129	800.000	0.077	-0.271
-324.114	800.000	0.088	-0.298
-323.099	28.236	-0.016	-0.013
-322.085	-44.089	0.220	0.111
-321.070	-200.000	-0.022	-0.395
-320.056	-200.000	0.068	-0.313
-319.041	-78.305	-0.432	-0.149
-318.026	36.526	-0.181	-0.160
-317.012	-184.829	0.338	0.005
-315.997	800.000	-0.014	0.061
-314.983	-118.044	-0.386	-0.069
-313.968	-150.441	0.084	-0.006
-312.953	-200.000	0.047	0.271
-311.939	-200.000	0.020	-0.212
-310.924	239.599	0.196	-0.327
-309.910	-200.000	-0.033	0.176
-308.895	790.458	0.104	0.286
-307.880	-200.000	-0.011	-0.072
-306.866	-121.088	0.136	-0.023
-305.851	-151.468	-0.135	0.010
-304.837	-200.000	0.004	-0.047
-303.822	-3.343	0.201	-0.140
-302.807	237.809	-0.135	-0.224
-301.793	80.774	0.129	0.140
-300.778	-200.000	0.039	0.310
-299.764	-90.943	-0.291	0.084
-298.749	-121.047	0.243	0.041
-297.735	194.710	0.126	0.191
-296.720	1.807	-0.156	-0.113
-295.705	-72.919	-0.196	-0.072
-294.691	300.369	-0.100	0.184
-293.676	-200.000	-0.014	0.120
-292.662	32.868	-0.069	-0.060
-291.647	800.000	-0.061	-0.244
-290.632	42.314	0.203	-0.185
-289.618	411.064	-0.038	-0.080
-288.603	-200.000	0.073	-0.000
-287.589	-86.840	0.460	-0.141
-286.574	321.627	-0.091	-0.172
-285.559	-200.000	-0.046	0.300
-284.545	333.881	-0.122	0.235
-283.530	9.301	-0.179	-0.135
-282.516	800.000	-0.008	-0.024
-281.501	97.796	0.110	-0.126
-280.486	65.693	-0.225	-0.229
-279.472	-128.478	-0.280	0.040
-278.457	602.584	0.030	-0.075
-277.443	673.935	0.036	0.094
-276.428	-195.686	0.402	-0.003
-275.413	-56.494	-0.099	0.044
-274.399	-38.798	0.147	0.078
-273.384	800.000	-0.074	0.206
-272.370	-7.002	-0.405	0.275
-271.355	-200.000	0.030	0.410
-270.340	-182.003	0.428	-0.008
-269.326	205.046	0.058	-0.090
-268.311	-65.575	-0.253	-0.102
-267.297	75.243	0.038	-0.040
-266.282	111.724	0.094	-0.114
-265.267	382.335	0.055	0.113
-264.253	-200.000	-0.008	-0.059
-263.238	-200.000	0.028	-0.123
-262.224	-3.289	0.090	0.062
-261.209	101.615	-0.204	-0.238
-260.195	260.610	0.096	-0.166
-259.180	-82.536	-0.102	0.033
-258.165	302.970	-0.134	-0.247
-257.151	-146.141	0.122	-0.011
-256.136	-67.207	0.328	-0.129
-255.122	-166.992	-0.096	-0.004
-254.107	13.265	-0.272	0.211
-253.092	-154.665	0.269	0.018
-252.078	83.259	-0.083	0.090
-251.063	43.465	0.340	-0.311
-250.049	-5.113	-0.337	-0.232
-249.034	-45.246	0.139	0.069
-248.019	-21.359	-0.138	0.084
-247.005	-21.369	0.283	0.173
-245.990	-200.000	0.032	0.159
-244.976	394.581	-0.046	-0.095
-243.961	-116.403	0.281	-0.052
-242.946	720.570	-0.121	0.321
-241.932	800.000	-0.085	0.263
-240.917	230.019	0.043	0.071
-239.903	-17.766	0.057	0.035
-238.888	412.738	-0.099	0.209
-237.873	48.671	0.206	0.193
-236.859	395.058	-0.118	0.245
-235.844	-200.000	-0.018	0.266
-234.830	800.000	-0.082	-0.253
-233.815	284.065	-0.167	0.300
-232.800	-200.000	-0.006	-0.130
-231.786	-92.757	0.248	-0.069
-230.771	13.891	-0.124	-0.096
-229.757	800.000	0.050	-0.207
-228.742	-99.581	-0.251	-0.063
-227.727	-112.308	0.143	-0.029
-226.713	-93.173	0.091	0.025
-225.698	-107.494	-0.367	-0.080
-224.684	65.154	-0.236	0.239
-223.669	141.196	-0.037	-0.049
-222.655	-71.158	-0.135	0.051
-221.640	273.232	-0.145	-0.256
-220.625	800.000	0.032	-0.112
-219.611	-12.893	-0.153	-0.099
-218.596	-41.039	-0.218	0.112
-217.582	-38.416	0.502	0.265
-216.567	-200.000	-0.055	0.428
-215.552	548.473	-0.211	0.504
-214.538	454.283	0.067	0.148
-213.523	-158.343	-0.318	-0.018
-212.509	2.532	-0.236	-0.171
-211.494	-8.335	0.327	0.220
-210.479	626.472	0.053	-0.133
-209.465	66.177	-0.075	-0.076
-208.450	-102.050	0.152	0.037
-207.436	337.047	0.059	-0.115
-206.421	-83.992	-0.238	-0.076
-205.406	800.000	-0.066	-0.253
-204.392	33.732	0.137	-0.119
-203.377	-43.257	0.286	0.145
-202.363	380.023	0.077	0.158
-201.348	-86.478	0.144	0.044
-200.333	713.009	-0.135	0.357
-199.319	-80.499	-0.367	-0.122
-198.304	-38.125	-0.334	-0.177
-197.290	15.646	0.107	0.084
-196.275	284.732	0.151	-0.271
-195.260	-200.000	-0.013	0.110
-194.246	134.079	-0.114	0.148
-193.231	-200.000	0.005	0.219
-192.217	198.396	-0.091	0.140
-191.202	-200.000	-0.014	-0.076
-190.187	9.034	-0.116	-0.088
-189.173	-123.791	0.224	0.035
-188.158	800.000	0.043	-0.168
-187.144	202.003	0.136	0.209
-186.129	68.967	0.037	0.038
-185.114	800.000	-0.161	0.449
-184.100	-200.000	0.012	-0.055
-183.085	655.508	0.085	-0.218
-182.071	-83.623	0.148	0.047
-181.056	-86.932	0.261	0.079
-180.042	-200.000	0.022	0.377
-179.027	-93.398	0.078	-0.021
-178.012	-87.440	-0.184	-0.056
-176.998	130.926	0.373	0.478
-175.983	-95.538	-0.137	-0.037
-174.969	-91.399	-0.179	-0.051
-173.954	800.000	-0.054	-0.184
-172.939	-76.549	0.258	0.090
-171.925	-88.037	0.196	0.059
-170.910	113.672	-0.302	-0.365
-169.896	-49.208	0.278	-0.133
-168.881	100.442	-0.029	0.033
-167.866	10.212	0.014	-0.011
-166.852	-131.174	-0.287	0.038
-165.837	91.632	0.161	0.181
-164.823	221.760	-0.081	0.130
-163.808	255.916	-0.053	0.090
-162.793	-140.122	0.125	-0.013
-161.779	-96.630	0.482	-0.127
-160.764	-179.421	0.117	0.003
-159.750	-97.347	0.291	-0.076
-158.735	-62.468	-0.079	-0.033
-157.720	180.317	-0.084	0.123
-156.706	-6.143	-0.086	0.059
-155.691	-22.743	-0.293	0.176
-154.677	98.655	0.039	-0.045
-153.662	21.467	-0.144	0.117
-152.647	35.926	-0.235	-0.206
-151.633	-94.693	0.176	0.048
-150.618	-200.000	0.002	0.014
-149.604	-85.215	-0.114	-0.035
-148.589	-200.000	-0.018	-0.085
-147.574	29.402	0.152	-0.128
-146.560	-200.000	-0.024	0.186
-145.545	-75.695	-0.151	0.053
-144.531	21.936	0.108	-0.088
-143.516	-46.022	0.209	-0.102
-142.502	-24.434	0.185	-0.110
-141.487	348.070	-0.165	0.324
-140.472	-3.360	0.188	0.130
-139.458	188.137	-0.084	-0.125
-138.443	68.780	0.215	-0.220
-137.429	315.359	0.081	0.152
-136.414	-200.000	-0.030	0.204
-135.399	659.041	-0.079	0.203
-134.385	800.000	0.090	-0.254
-133.370	76.345	-0.192	-0.202
-132.356	-200.000	-0.007	0.127
-131.341	476.895	0.107	0.241
-130.326	-12.079	0.194	0.126
-129.312	-200.000	0.019	0.123
-128.297	-53.212	-0.172	-0.079
-127.283	-200.000	-0.002	-0.022
-126.268	401.706	-0.014	-0.028
-125.253	-23.716	0.145	0.087
-124.239	196.077	-0.150	0.227
-123.224	-106.120	0.130	0.029
-122.210	-18.793	0.076	0.047
-121.195	161.932	0.096	0.134
-120.180	530.254	-0.153	-0.361
-119.166	-200.000	0.025	-0.223
-118.151	374.816	-0.169	0.342
-117.137	455.617	-0.052	-0.115
-116.122	596.078	0.038	0.094
-115.107	289.406	0.027	-0.049
-114.093	-200.000	0.066	0.391
-113.078	-36.075	0.223	-0.120
-112.064	800.000	-0.041	-0.122
-111.049	-5.790	-0.162	-0.110
-110.034	-200.000	-0.001	-0.205
-109.020	154.081	-0.199	0.271
-108.005	284.547	0.163	0.293
-106.991	-49.110	0.096	-0.046
-105.976	-200.000	0.293	-0.001
-104.962	-200.000	-0.011	-0.178
-103.947	-200.000	-0.010	0.130
-102.932	-93.325	-0.150	-0.041
-101.918	25.158	-0.104	-0.086
-100.903	-38.833	-0.160	-0.084
-99.889	-19.053	0.089	-0.055
-98.874	237.366	0.055	0.091
-97.859	-118.601	-0.171	0.030
-96.845	161.894	0.029	-0.040
-95.830	-200.000	-0.033	-0.422
-94.816	800.000	0.048	-0.138
-93.801	42.584	0.036	0.032
-92.786	-74.987	-0.278	0.099
-91.772	-200.000	-0.068	0.296
-90.757	-200.000	0.053	0.282
-89.743	-55.733	0.205	0.091
-88.728	491.715	-0.079	0.181
-87.713	15.705	0.201	0.157
-86.699	-109.301	-0.141	0.030
-85.684	140.914	0.166	-0.218
-84.670	800.000	0.053	0.194
-83.655	-172.205	0.091	-0.003
-82.640	-200.000	-0.045	0.256
-81.626	-36.842	0.128	0.068
-80.611	-17.710	-0.101	0.063
-79.597	-200.000	0.008	0.195
-78.582	322.086	-0.061	0.116
-77.567	-200.000	-0.007	0.230
-76.553	-200.000	0.111	0.484
-75.538	-128.448	0.155	0.022
-74.524	-200.000	0.049	0.349
-73.509	-3.117	-0.124	0.086
-72.494	20.369	-0.369	-0.296
-71.480	-3.079	0.387	0.268
-70.465	-106.039	0.160	0.036
-69.451	-200.000	-0.028	0.189
-68.436	800.000	-0.115	0.369
-67.422	800.000	-0.009	0.026
-66.407	800.000	-0.032	0.091
-65.392	-21.025	0.153	0.093
-64.378	-97.213	-0.141	-0.037
-63.363	-172.931	0.242	0.007
-62.349	168.782	0.107	-0.151
-61.334	38.344	-1.278	-1.130
-60.319	800.000	0.207	0.664
-59.305	-200.000	-0.095	-0.615
-58.290	301.198	0.503	0.921
-57.276	612.586	0.600	1.490
-56.261	-200.000	95.188	535.499
-55.246	574.235	1380.321	3342.536
-54.232	180.834	2631.833	3836.699
-53.217	109.905	2359.763	2809.648
-52.203	42.450	2105.516	1900.547
-51.188	37.702	2016.630	1777.042
-50.173	36.084	1997.780	1745.722
-49.159	49.632	2049.287	1915.424
-48.144	52.532	2068.840	1960.270
-47.130	38.220	2024.936	1788.823
-46.115	35.803	2013.890	1756.957
-45.100	35.725	2010.690	1753.382
-44.086	35.806	2008.297	1751.961
-43.071	35.776	2005.717	1749.367
-42.057	35.774	2003.523	1747.366
-41.042	35.667	2002.196	1745.171
-40.027	35.719	1999.831	1743.510
-39.013	35.720	1997.990	1741.845
-37.998	35.799	1995.841	1740.616
-36.984	35.732	1994.820	1739.054
-35.969	35.770	1992.795	1737.562
-34.954	35.795	1991.278	1736.392
-33.940	35.784	1989.482	1734.666
-32.925	35.840	1987.832	1733.664
-31.911	35.828	1986.046	1731.922
-30.896	35.832	1984.493	1730.538
-29.881	35.908	1982.628	1729.527
-28.867	35.929	1980.990	1728.213
-27.852	35.863	1979.569	1726.315
-26.838	35.827	1978.178	1724.714
-25.823	35.915	1975.599	1723.187
-24.809	35.891	1973.771	1721.310
-23.794	35.836	1972.538	1719.668
-22.779	35.930	1970.256	1718.450
-21.765	35.924	1968.156	1716.503
-20.750	35.884	1966.741	1714.839
-19.736	35.831	1965.834	1713.513
-18.721	35.908	1964.063	1712.584
-17.706	35.848	1962.425	1710.549
-16.692	35.863	1960.570	1709.001
-15.677	35.876	1958.971	1707.659
-14.663	35.811	1957.598	1705.817
-13.648	35.837	1956.584	1705.089
-12.633	35.824	1955.091	1703.607
-11.619	35.820	1953.884	1702.451
-10.604	35.780	1952.663	1700.972
-9.590	35.825	1951.141	1699.975
-8.575	35.735	1950.252	1698.338
-7.560	35.801	1948.257	1697.117
-6.546	35.862	1946.301	1695.881
-5.531	35.769	1945.479	1694.280
-4.517	35.789	1944.664	1693.673
-3.502	35.804	1943.225	1692.493
-2.487	35.851	1941.770	1691.564
-1.473	35.717	1941.515	1690.098
-0.458	35.749	1936.503	1685.955
0.556	32.763	1915.739	1653.545
1.571	27.866	1893.016	1591.238
2.586	23.227	1913.350	1567.224
3.600	21.999	1949.605	1585.696
4.615	21.594	1946.153	1579.088
5.629	16.633	1845.362	1454.643
6.644	6.341	1721.598	1274.041
7.659	0.376	1679.802	1195.790
8.673	-0.208	1676.262	1188.546
9.688	-0.307	1674.820	1186.633
10.702	-0.357	1673.291	1185.048
11.717	-0.428	1670.369	1182.314
12.731	-0.150	1669.338	1183.670
13.746	6.411	1685.743	1247.282
14.761	15.459	1705.681	1334.139
15.775	18.533	1709.494	1361.454
16.790	18.351	1708.501	1359.094
17.804	18.380	1707.597	1358.482
18.819	18.295	1707.274	1357.432
19.834	18.511	1706.235	1358.196
20.848	18.631	1705.663	1358.577
21.863	18.662	1704.448	1357.735
22.877	18.647	1703.228	1356.519
23.892	18.606	1702.636	1355.602
24.907	18.673	1701.898	1355.424
25.921	18.698	1700.634	1354.500
26.936	18.640	1700.166	1353.549
27.950	18.683	1698.935	1352.784
28.965	18.662	1698.348	1352.034
29.980	18.663	1697.455	1351.211
30.994	18.691	1695.641	1349.871
32.009	18.657	1694.480	1348.558
33.023	18.595	1693.677	1347.312
34.038	18.674	1692.510	1346.882
35.053	18.589	1691.817	1345.548
36.067	18.693	1690.124	1344.893
37.082	18.627	1689.375	1343.666
38.096	18.640	1688.218	1342.728
39.111	18.599	1687.821	1341.969
40.126	18.597	1686.405	1340.712
41.140	18.640	1685.975	1340.591
42.155	18.670	1684.336	1339.403
43.169	18.618	1683.491	1338.201
44.184	18.594	1682.173	1336.849
45.199	18.645	1681.275	1336.414
46.213	18.573	1680.237	1334.913
47.228	18.691	1678.481	1334.319
48.242	18.678	1677.427	1333.259
49.257	18.598	1676.827	1332.042
50.271	18.635	1674.978	1330.744
51.286	18.602	1673.955	1329.558
52.301	18.571	1672.378	1327.943
53.315	18.612	1671.073	1327.107
54.330	18.604	1669.922	1326.018
55.344	18.624	1667.983	1324.515
56.359	18.615	1667.411	1323.872
57.374	18.658	1666.208	1323.135
58.388	18.542	1665.133	1321.271
59.403	18.619	1663.829	1320.708
60.417	18.623	1662.473	1319.544
61.432	18.711	1660.726	1318.721
62.447	18.728	1659.836	1318.028
63.461	18.624	1658.915	1316.381
64.476	18.680	1657.944	1315.920
65.490	18.691	1656.692	1314.898
66.505	18.657	1655.492	1313.565
67.520	18.720	1654.556	1313.192
68.534	18.636	1653.669	1311.728
69.549	18.574	1652.381	1310.121
70.563	18.698	1650.957	1309.816
71.578	18.715	1649.644	1308.791
72.593	18.657	1648.562	1307.374
73.607	18.616	1648.018	1306.518
74.622	18.669	1646.494	1305.599
75.636	18.531	1645.944	1303.991
76.651	18.669	1645.061	1304.231
77.666	18.575	1644.060	1302.603
78.680	18.656	1643.059	1302.313
79.695	18.618	1642.593	1301.538
80.709	18.734	1640.512	1300.650
81.724	18.654	1640.182	1299.671
82.739	18.663	1639.657	1299.204
83.753	18.607	1638.601	1297.833
84.768	18.708	1636.923	1297.149
85.782	18.682	1635.993	1296.101
86.797	18.650	1635.246	1295.154
87.812	18.604	1634.504	1294.109
88.826	18.662	1633.170	1293.373
89.841	18.668	1631.977	1292.356
90.855	18.693	1631.060	1291.708
91.870	18.686	1629.674	1290.442
92.884	18.663	1628.542	1289.262
93.899	18.659	1628.276	1288.905
94.914	18.760	1626.664	1288.271
95.928	18.737	1625.170	1286.803
96.943	18.646	1624.043	1285.114
97.957	18.658	1622.581	1283.935
98.972	18.588	1621.742	1282.631
99.987	18.695	1619.915	1281.869
101.001	18.719	1618.268	1280.633
102.016	18.771	1616.374	1279.408
103.030	18.677	1615.415	1277.836
104.045	18.670	1613.958	1276.522
105.060	18.627	1612.624	1275.031
106.074	18.675	1611.317	1274.246
107.089	18.762	1609.498	1273.339
108.103	18.650	1608.702	1271.763
109.118	18.802	1607.082	1271.498
110.133	18.726	1605.976	1269.949
111.147	18.759	1604.725	1269.089
112.162	18.704	1603.324	1267.466
113.176	18.762	1601.847	1266.611
114.191	18.834	1600.056	1265.615
115.206	18.829	1599.043	1264.666
116.220	18.759	1598.132	1263.315
117.235	18.804	1596.471	1262.224
118.249	18.745	1595.632	1261.012
119.264	18.715	1594.084	1259.461
120.279	18.762	1592.515	1258.454
121.293	18.822	1590.975	1257.563
122.308	18.828	1589.882	1256.632
123.322	18.818	1588.407	1255.281
124.337	18.890	1586.770	1254.401
125.352	18.791	1586.069	1253.018
126.366	18.835	1584.809	1252.230
127.381	18.853	1583.487	1251.208
128.395	18.818	1582.969	1250.432
129.410	18.874	1581.110	1249.259
130.424	18.842	1579.821	1247.900
131.439	18.847	1578.381	1246.688
132.454	18.852	1577.327	1245.781
133.468	18.792	1575.405	1243.715
134.483	18.863	1574.202	1243.172
135.497	18.822	1573.263	1242.023
136.512	18.830	1571.458	1240.545
137.527	18.768	1570.494	1239.226
138.541	18.868	1569.465	1239.025
139.556	18.878	1567.933	1237.780
140.570	18.816	1566.780	1236.312
141.585	18.763	1565.506	1234.819
142.600	18.820	1564.245	1234.126
143.614	18.829	1562.623	1232.802
144.629	18.758	1561.631	1231.399
145.643	18.835	1560.266	1230.763
146.658	18.905	1558.982	1230.144
147.673	18.737	1557.442	1227.618
148.687	18.812	1556.233	1227.090
149.702	18.869	1555.089	1226.490
150.716	18.806	1553.245	1224.479
151.731	18.765	1552.629	1223.595
152.746	18.896	1551.578	1223.585
153.760	18.828	1550.024	1221.769
154.775	18.826	1548.547	1220.482
155.789	18.820	1547.867	1219.794
156.804	18.902	1546.125	1218.901
157.819	18.937	1545.031	1218.177
158.833	18.896	1544.009	1216.968
159.848	18.882	1542.833	1215.842
160.862	18.874	1542.325	1215.272
161.877	18.885	1540.571	1213.861
162.892	18.921	1539.539	1213.193
163.906	18.922	1538.382	1212.186
164.921	18.826	1537.498	1210.705
165.935	18.881	1536.871	1210.486
166.950	18.939	1535.197	1209.475
167.964	18.924	1534.257	1208.520
168.979	18.900	1533.449	1207.610
169.994	18.916	1532.499	1206.867
171.008	18.966	1531.669	1206.454
172.023	19.018	1530.256	1205.599
173.037	18.886	1529.784	1204.195
174.052	18.994	1528.105	1203.524
175.067	19.025	1527.544	1203.193
176.081	19.067	1526.257	1202.365
177.096	19.035	1525.527	1201.459
178.110	18.926	1524.231	1199.573
179.125	18.960	1523.494	1199.125
180.140	19.016	1522.274	1198.451
181.154	18.977	1521.320	1197.318
182.169	18.949	1520.799	1196.612
183.183	18.881	1519.268	1194.827
184.198	18.923	1518.304	1194.254
185.213	18.925	1517.835	1193.795
186.227	18.979	1516.511	1193.020
187.242	19.019	1515.853	1192.676
188.256	19.065	1514.458	1191.788
189.271	19.045	1513.648	1190.908
190.286	19.038	1512.888	1190.158
191.300	19.156	1511.616	1189.863
192.315	19.043	1511.167	1188.627
193.329	19.105	1509.695	1187.792
194.344	19.015	1508.990	1186.510
195.359	19.091	1508.186	1186.295
196.373	19.077	1507.614	1185.649
197.388	19.108	1506.357	1184.766
198.402	19.021	1505.091	1183.070
199.417	18.913	1504.498	1181.757
200.432	19.050	1503.455	1181.771
201.446	19.094	1502.302	1181.065
202.461	19.074	1501.549	1180.226
203.475	19.033	1500.254	1178.825
204.490	18.994	1499.748	1178.056
205.504	19.096	1498.495	1177.666
206.519	19.043	1497.816	1176.666
207.534	19.120	1496.542	1176.089
208.548	19.088	1496.644	1175.844
209.563	19.109	1495.490	1174.976
210.577	19.085	1494.309	1173.784
211.592	19.147	1493.035	1173.099
212.607	19.177	1491.986	1172.379
213.621	19.122	1492.280	1172.127
214.636	19.076	1491.767	1171.311
215.650	19.169	1490.290	1170.680
216.665	19.092	1489.561	1169.475
217.680	19.193	1488.598	1169.304
218.694	19.065	1488.283	1168.084
219.709	19.176	1487.332	1167.986
220.723	19.158	1485.903	1166.640
221.738	19.168	1485.545	1166.322
222.753	19.125	1484.796	1165.341
223.767	19.100	1483.353	1163.938
224.782	19.040	1483.187	1163.295
225.796	19.116	1481.969	1162.756
226.811	19.224	1481.341	1162.889
227.826	19.197	1480.306	1161.786
228.840	19.189	1479.623	1161.097
229.855	19.236	1478.632	1160.530
230.869	19.297	1477.803	1160.190
231.884	19.260	1476.499	1158.813
232.899	19.271	1475.469	1157.981
233.913	19.245	1474.410	1156.871
234.928	19.251	1473.757	1156.297
235.942	19.201	1472.627	1154.971
236.957	19.297	1471.560	1154.674
237.972	19.118	1470.550	1152.583
238.986	19.257	1469.305	1152.435
240.001	19.289	1468.462	1151.886
241.015	19.277	1467.760	1151.149
242.030	19.355	1466.639	1150.689
243.045	19.399	1465.170	1149.727
244.059	19.352	1464.677	1148.931
245.074	19.408	1463.494	1148.273
246.088	19.474	1462.655	1147.948
247.103	19.382	1462.442	1147.068
248.117	19.412	1461.687	1146.576
249.132	19.433	1460.502	1145.682
250.147	19.418	1460.124	1145.185
251.161	19.397	1459.440	1144.407
252.176	19.452	1458.956	1144.292
253.190	19.345	1458.173	1142.871
254.205	19.498	1456.828	1142.729
255.220	19.472	1456.376	1142.099
256.234	19.460	1455.623	1141.326
257.249	19.463	1454.509	1140.375
258.263	19.465	1453.801	1139.733
259.278	19.391	1452.858	1138.403
260.293	19.373	1452.246	1137.705
261.307	19.515	1451.054	1137.603
262.322	19.553	1450.713	1137.489
263.336	19.619	1449.983	1137.251
264.351	19.549	1448.837	1135.789
265.366	19.522	1448.096	1134.929
266.380	19.536	1447.254	1134.262
267.395	19.627	1446.064	1133.824
268.409	19.517	1445.668	1132.693
269.424	19.572	1444.440	1131.993
270.439	19.553	1443.814	1131.277
271.453	19.561	1442.406	1130.122
272.468	19.560	1441.935	1129.648
273.482	19.622	1441.416	1129.548
274.497	19.519	1440.979	1128.431
275.512	19.591	1439.903	1127.963
276.526	19.648	1438.953	1127.488
277.541	19.655	1437.553	1126.338
278.555	19.640	1437.016	1125.717
279.570	19.723	1436.217	1125.534
280.585	19.742	1435.408	1124.927
281.599	19.637	1434.744	1123.621
282.614	19.654	1433.702	1122.816
283.628	19.577	1432.603	1121.359
284.643	19.700	1431.683	1121.334
285.657	19.717	1430.672	1120.556
286.672	19.710	1429.599	1119.569
287.687	19.593	1429.424	1118.573
288.701	19.754	1428.205	1118.561
289.716	19.703	1427.776	1117.802
290.730	19.707	1426.801	1116.964
291.745	19.741	1425.672	1116.197
292.760	19.719	1425.041	1115.463
293.774	19.755	1423.941	1114.735
294.789	19.750	1423.111	1113.954
295.803	19.734	1422.112	1112.974
296.818	19.884	1420.782	1112.797
297.833	19.799	1420.288	1111.769
298.847	19.906	1419.529	1111.764
299.862	19.746	1418.762	1110.035
300.876	19.872	1417.826	1110.014
301.891	19.825	1417.120	1109.059
302.906	19.776	1416.553	1108.207
303.920	19.955	1415.517	1108.440
304.935	19.952	1414.843	1107.795
305.949	19.912	1413.601	1106.469
306.964	19.898	1413.354	1106.093
307.979	19.861	1412.543	1105.122
308.993	19.911	1411.585	1104.595
310.008	19.870	1410.649	1103.500
311.022	19.856	1410.110	1102.895
312.037	19.966	1408.243	1102.035
313.052	19.872	1407.840	1101.024
314.066	19.901	1407.153	1100.573
315.081	19.888	1406.129	1099.590
316.095	19.925	1404.654	1098.575
317.110	19.955	1403.942	1098.115
318.125	19.970	1403.155	1097.499
319.139	20.025	1402.715	1097.403
320.154	19.999	1401.663	1096.320
321.168	20.120	1400.233	1095.867
322.183	20.048	1399.449	1094.706
323.197	20.077	1398.418	1093.980
324.212	19.970	1397.837	1092.755
325.227	19.960	1397.329	1092.200
326.241	19.985	1396.449	1091.574
327.256	20.080	1395.318	1091.190
328.270	20.077	1394.681	1090.578
329.285	20.027	1394.195	1089.782
330.300	20.062	1393.084	1089.041
331.314	20.097	1392.271	1088.530
332.329	20.141	1391.202	1087.870
333.343	20.187	1390.478	1087.498
334.358	20.146	1390.009	1086.776
335.373	20.055	1389.359	1085.604
336.387	20.149	1388.425	1085.367
337.402	20.282	1387.560	1085.425
338.416	20.261	1386.951	1084.725
339.431	20.188	1386.515	1083.831
340.446	20.269	1385.974	1083.815
341.460	20.214	1384.686	1082.372
342.475	20.281	1383.635	1081.869
343.489	20.275	1382.998	1081.236
344.504	20.265	1381.930	1080.246
345.519	20.161	1381.446	1079.125
346.533	20.190	1380.210	1078.246
347.548	20.343	1379.161	1078.281
348.562	20.335	1378.484	1077.607
349.577	20.300	1377.576	1076.583
350.592	20.270	1377.106	1075.932
351.606	20.271	1376.389	1075.287
352.621	20.275	1375.152	1074.250
353.635	20.281	1374.080	1073.354
354.650	20.398	1372.967	1073.113
355.665	20.412	1371.962	1072.320
356.679	20.351	1371.587	1071.556
357.694	20.301	1370.562	1070.347
358.708	20.370	1369.323	1069.715
359.723	20.346	1368.112	1068.523
360.738	20.350	1367.302	1067.819
361.752	20.377	1365.961	1066.845
362.767	20.382	1364.858	1065.921
363.781	20.406	1364.202	1065.463
364.796	20.385	1363.613	1064.777
365.810	20.514	1362.692	1064.753
366.825	20.438	1362.197	1063.811
367.840	20.432	1361.502	1063.133
368.854	20.550	1360.601	1063.061
369.869	20.510	1360.011	1062.258
370.883	20.418	1359.742	1061.394
371.898	20.468	1358.931	1060.971
372.913	20.497	1358.006	1060.331
373.927	20.478	1357.303	1059.574
374.942	20.581	1356.518	1059.493
375.956	20.511	1356.057	1058.615
376.971	20.572	1355.082	1058.131
377.986	20.570	1354.226	1057.357
379.000	20.520	1353.340	1056.266
380.015	20.596	1352.684	1056.123
381.029	20.546	1352.308	1055.433
382.044	20.711	1351.014	1055.334
383.059	20.664	1350.575	1054.611
384.073	20.612	1350.283	1053.975
385.088	20.604	1349.605	1053.303
386.102	20.610	1349.374	1053.068
387.117	20.611	1348.386	1052.209
388.132	20.690	1347.191	1051.658
389.146	20.741	1346.392	1051.253
390.161	20.696	1345.574	1050.249
391.175	20.769	1345.170	1050.276
392.190	20.727	1344.386	1049.318
393.205	20.735	1343.485	1048.570
394.219	20.752	1342.269	1047.634
395.234	20.648	1341.246	1046.119
396.248	20.775	1339.841	1045.692
397.263	20.661	1338.806	1044.107
398.278	20.750	1337.783	1043.747
399.292	20.849	1336.434	1043.197
400.307	20.765	1336.115	1042.357
401.321	20.939	1334.820	1042.295
402.336	20.844	1334.191	1041.140
403.350	20.871	1332.990	1040.274
404.365	20.799	1332.115	1039.068
405.380	20.865	1331.025	1038.519
406.394	20.801	1330.754	1037.833
407.409	20.958	1329.871	1037.990
408.423	20.888	1328.955	1036.767
409.438	21.068	1328.069	1037.056
410.453	21.025	1327.067	1035.926
411.467	20.999	1326.592	1035.309
412.482	20.943	1326.254	1034.618
413.496	20.957	1325.751	1034.216
414.511	20.940	1324.678	1033.188
415.526	20.962	1324.232	1032.879
416.540	20.910	1323.301	1031.754
417.555	20.963	1322.653	1031.472
418.569	21.088	1322.007	1031.616
419.584	20.981	1321.339	1030.370
420.599	20.955	1320.986	1029.853
421.613	136.389	1426.633	1789.307
422.628	132.851	1442.001	1789.429
