DTS Sentinel unit serial number:	SN413079Multiplexer serial number:	ORYXHardware model number:	OX4-SRSoftware version number:	ORYX F/W v4.00 Oryx Data Collector v3.7.2.0data status	okinstallation	princeton_trtdifferential loss correction	single-endedforward channel	channel 4reverse channel	N/Adate	2019/09/12time	01:07:11forward acquisition time	60.00reverse acquisition time	0.00gamma	496.2192k internal	0.2309k external	0.2309temperature offset calibration	1.0095default loss term (dB/km)	0.3790temperature slope calibration	1.0000multiplexer offset coefficient	1.0000multiplexer slope coefficient	1.0000fibre end	0.00T internal ref (°C)	33.11T ext. ref 1 (°C)	2.09T ext. ref 2 (°C)	27.37length (m)	temperature (°C)	Stokes	anti-Stokes-747.200	-200.000	-0.037	-0.194
-746.185	-74.033	0.374	0.138
-745.171	-160.458	0.249	0.014
-744.156	-107.845	-0.183	-0.040
-743.142	484.164	-0.163	0.378
-742.127	20.057	0.189	0.155
-741.112	-135.004	0.338	0.041
-740.098	76.398	0.124	-0.133
-739.083	87.920	-0.212	0.238
-738.069	-200.000	-0.026	0.297
-737.054	43.715	0.198	0.184
-736.039	-32.780	-0.167	-0.094
-735.025	405.976	-0.046	-0.099
-734.010	100.727	-0.200	-0.236
-732.996	238.798	-0.017	-0.028
-731.981	-200.000	-0.019	-0.411
-730.966	800.000	0.016	-0.056
-729.952	-161.307	-0.410	0.022
-728.937	-200.000	-0.007	0.035
-727.923	315.724	0.118	-0.225
-726.908	-70.459	-0.140	-0.054
-725.894	28.890	0.214	-0.184
-724.879	78.741	0.091	-0.099
-723.864	31.465	-0.146	-0.128
-722.850	551.476	0.092	0.224
-721.835	285.581	-0.101	-0.186
-720.821	12.112	-0.211	0.165
-719.806	800.000	0.089	0.285
-718.791	715.875	0.150	-0.404
-717.777	280.812	0.054	0.098
-716.762	341.070	0.134	0.265
-715.748	-80.423	-0.176	0.060
-714.733	697.122	0.070	-0.188
-713.718	106.188	0.237	0.285
-712.704	86.801	-0.133	-0.149
-711.689	-68.377	0.549	-0.216
-710.675	-200.000	-0.005	0.099
-709.660	265.735	-0.144	-0.255
-708.645	-200.000	0.030	-0.236
-707.631	-200.000	0.006	-0.112
-706.616	-131.881	-0.161	-0.021
-705.602	-162.064	0.242	-0.012
-704.587	-26.990	-0.226	0.134
-703.572	-115.933	0.368	0.070
-702.558	-6.209	-0.045	-0.031
-701.543	800.000	-0.061	-0.233
-700.529	601.351	0.053	0.133
-699.514	-48.991	-0.412	0.200
-698.499	800.000	-0.042	0.170
-697.485	-92.251	-0.082	-0.023
-696.470	229.126	-0.048	0.079
-695.456	-200.000	-0.022	-0.171
-694.441	-200.000	0.045	-0.263
-693.426	-133.041	0.089	-0.011
-692.412	-70.052	-0.240	0.093
-691.397	-114.183	-0.189	-0.037
-690.383	-4.682	0.057	-0.040
-689.368	-128.054	-0.109	-0.016
-688.354	-123.167	0.321	0.052
-687.339	-112.542	0.271	0.055
-686.324	-36.339	0.229	-0.125
-685.310	-54.471	-0.226	0.104
-684.295	7.022	0.235	-0.178
-683.281	-122.166	0.362	0.060
-682.266	363.060	0.179	0.363
-681.251	-200.000	-0.031	0.251
-680.237	227.349	0.137	-0.226
-679.222	800.000	0.032	-0.138
-678.208	333.408	-0.049	-0.096
-677.193	-156.396	0.250	0.016
-676.178	-96.399	-0.057	-0.015
-675.164	-200.000	0.003	0.200
-674.149	395.137	0.023	-0.048
-673.135	354.510	0.250	0.503
-672.120	-135.169	0.323	0.039
-671.105	-200.000	0.026	0.139
-670.091	55.608	0.056	0.055
-669.076	83.898	0.126	-0.139
-668.062	157.450	-0.171	-0.239
-667.047	30.940	0.102	0.089
-666.032	388.020	0.106	0.222
-665.018	60.976	0.112	0.112
-664.003	214.693	-0.037	0.059
-662.989	-200.000	0.013	-0.353
-661.974	800.000	-0.152	-0.454
-660.959	54.086	-0.160	-0.155
-659.945	-31.845	0.132	0.075
-658.930	10.993	-0.201	-0.156
-657.916	82.857	-0.146	-0.160
-656.901	-91.550	-0.154	-0.044
-655.886	-92.612	0.237	-0.067
-654.872	-56.255	0.165	-0.074
-653.857	138.536	-0.155	0.206
-652.843	-200.000	0.024	0.254
-651.828	-177.390	0.170	-0.004
-650.814	-91.666	0.149	0.043
-649.799	-11.654	-0.162	0.107
-648.784	-200.000	-0.019	-0.251
-647.770	-79.270	0.299	-0.103
-646.755	74.981	0.109	-0.116
-645.741	46.228	-0.200	-0.188
-644.726	26.176	-0.164	-0.138
-643.711	54.043	0.211	0.205
-642.697	-128.456	-0.141	0.020
-641.682	177.278	-0.155	0.229
-640.668	-200.000	0.017	-0.220
-639.653	15.787	0.193	-0.154
-638.638	341.084	-0.153	0.302
-637.624	800.000	-0.104	0.328
-636.609	94.681	-0.155	-0.178
-635.595	-54.936	0.030	-0.014
-634.580	-63.487	-0.422	0.175
-633.565	-200.000	0.000	0.145
-632.551	55.740	0.115	-0.113
-631.536	200.710	0.111	0.173
-630.522	-84.894	-0.093	0.030
-629.507	534.008	0.058	0.139
-628.492	-200.000	0.007	-0.098
-627.478	-200.000	-0.022	-0.134
-626.463	411.794	-0.068	-0.146
-625.449	354.132	-0.108	0.218
-624.434	-200.000	0.068	-0.401
-623.419	162.414	0.201	-0.285
-622.405	183.271	-0.124	-0.186
-621.390	143.585	0.106	-0.143
-620.376	-200.000	-0.003	-0.097
-619.361	54.973	0.322	0.314
-618.346	-50.484	-0.211	0.101
-617.332	800.000	0.069	0.269
-616.317	-74.897	0.086	-0.031
-615.303	39.401	0.105	-0.095
-614.288	-200.000	0.002	0.231
-613.273	147.011	0.160	-0.217
-612.259	113.492	0.164	-0.202
-611.244	-25.888	0.179	-0.106
-610.230	-111.919	0.210	-0.043
-609.215	-45.886	-0.097	-0.049
-608.201	-14.953	0.072	-0.046
-607.186	682.830	-0.058	-0.153
-606.171	7.712	-0.040	0.030
-605.157	-200.000	-0.003	0.055
-604.142	800.000	0.133	-0.382
-603.128	-92.351	-0.195	-0.055
-602.113	-0.484	0.119	-0.085
-601.098	-200.000	0.034	0.192
-600.084	800.000	0.058	0.192
-599.069	800.000	0.065	-0.280
-598.055	-124.812	-0.139	-0.022
-597.040	-200.000	-0.013	0.112
-596.025	-200.000	0.006	0.284
-595.011	-41.665	-0.116	0.060
-593.996	152.191	0.068	0.094
-592.982	-21.482	-0.178	0.110
-591.967	-144.541	0.155	0.014
-590.952	-0.716	-0.309	0.221
-589.938	-200.000	-0.029	0.375
-588.923	-124.220	-0.125	-0.020
-587.909	-23.947	0.235	0.142
-586.894	-200.000	0.049	0.327
-585.879	-88.598	-0.137	0.041
-584.865	-5.904	0.108	0.075
-583.850	358.282	-0.116	-0.235
-582.836	800.000	-0.053	0.220
-581.821	-200.000	0.011	0.179
-580.806	92.751	-0.213	-0.243
-579.792	-71.037	0.282	0.107
-578.777	49.933	0.072	0.068
-577.763	-113.734	-0.369	0.073
-576.748	-60.586	0.029	0.012
-575.733	21.283	0.273	0.224
-574.719	602.386	-0.063	0.158
-573.704	192.755	-0.142	-0.216
-572.690	507.872	0.055	-0.129
-571.675	21.990	0.476	-0.391
-570.661	800.000	0.047	-0.178
-569.646	-120.854	-0.286	0.049
-568.631	-200.000	-0.010	-0.196
-567.617	44.157	-0.054	-0.050
-566.602	-144.356	-0.186	0.017
-565.588	-104.560	-0.234	-0.054
-564.573	151.804	0.118	0.162
-563.558	-36.305	0.132	-0.072
-562.544	-33.164	-0.062	0.035
-561.529	681.039	0.149	-0.392
-560.515	-200.000	0.011	-0.168
-559.500	-200.000	0.002	0.224
-558.485	-90.055	-0.277	0.081
-557.471	800.000	-0.022	0.090
-556.456	92.506	0.045	-0.051
-555.442	-91.352	-0.075	-0.022
-554.427	800.000	-0.081	0.335
-553.412	-152.199	-0.228	-0.017
-552.398	-200.000	0.024	-0.224
-551.383	-200.000	-0.053	0.417
-550.369	-200.000	0.026	0.132
-549.354	-82.406	0.134	-0.044
-548.339	-60.998	0.185	-0.079
-547.325	-67.926	0.118	-0.046
-546.310	712.675	-0.115	0.308
-545.296	192.874	-0.205	0.312
-544.281	-33.510	0.341	0.190
-543.266	-115.919	-0.395	0.074
-542.252	175.902	0.242	-0.353
-541.237	40.450	0.177	-0.161
-540.223	-200.000	0.082	-0.415
-539.208	-157.371	0.187	-0.011
-538.193	-43.031	0.169	0.086
-537.179	-200.000	0.002	-0.321
-536.164	197.322	0.166	-0.256
-535.150	-56.372	-0.286	0.128
-534.135	27.313	-0.204	-0.173
-533.121	-138.470	-0.101	-0.011
-532.106	-200.000	-0.030	0.216
-531.091	27.072	0.321	-0.271
-530.077	68.451	0.099	0.102
-529.062	-200.000	0.002	-0.141
-528.048	-200.000	0.074	-0.431
-527.033	-144.847	0.170	0.016
-526.018	-200.000	-0.019	-0.170
-525.004	-0.136	0.173	-0.124
-523.989	-47.963	-0.131	-0.064
-522.975	207.476	0.124	-0.194
-521.960	211.218	-0.122	-0.193
-520.945	148.949	-0.110	-0.150
-519.931	-113.640	-0.115	-0.023
-518.916	237.656	0.044	0.073
-517.902	800.000	-0.072	0.212
-516.887	385.498	0.064	0.132
-515.872	-200.000	-0.002	0.147
-514.858	156.256	-0.071	0.099
-513.843	-200.000	-0.070	0.347
-512.829	-113.441	-0.073	0.014
-511.814	-34.681	-0.056	0.031
-510.799	800.000	0.054	-0.196
-509.785	-200.000	0.031	-0.364
-508.770	12.023	0.095	0.074
-507.756	-11.904	-0.033	-0.022
-506.741	408.330	-0.083	0.178
-505.726	756.880	-0.120	0.328
-504.712	-107.064	-0.083	0.018
-503.697	6.226	-0.179	-0.134
-502.683	-145.465	0.148	0.013
-501.668	800.000	0.093	-0.355
-500.653	-3.985	0.255	-0.178
-499.639	140.413	-0.112	0.148
-498.624	-87.842	0.180	-0.054
-497.610	237.495	-0.136	-0.227
-496.595	-46.963	0.139	-0.068
-495.581	-200.000	-0.034	-0.161
-494.566	-108.608	-0.374	-0.081
-493.551	142.867	-0.176	-0.235
-492.537	-36.510	0.389	0.210
-491.522	-76.741	-0.591	0.208
-490.508	-9.453	0.180	0.121
-489.493	800.000	-0.043	0.119
-488.478	228.308	0.075	0.123
-487.464	-190.190	0.260	-0.003
-486.449	93.003	0.025	-0.028
-485.435	-19.036	0.120	-0.075
-484.420	800.000	-0.105	-0.392
-483.405	-73.316	0.429	0.158
-482.391	800.000	0.044	-0.172
-481.376	-56.862	-0.198	0.088
-480.362	-64.935	-0.156	0.063
-479.347	-68.341	-0.091	-0.035
-478.332	-200.000	-0.010	0.105
-477.318	253.082	0.084	-0.144
-476.303	800.000	0.017	0.064
-475.289	800.000	0.075	0.256
-474.274	-145.070	0.335	0.031
-473.259	-200.000	-0.011	0.233
-472.245	-133.843	-0.195	0.024
-471.230	1.400	-0.116	0.084
-470.216	800.000	-0.054	0.189
-469.201	366.019	-0.071	0.144
-468.186	240.100	-0.010	-0.016
-467.172	322.885	-0.111	-0.213
-466.157	-200.000	-0.016	0.378
-465.143	-104.693	-0.099	0.023
-464.128	-147.308	-0.385	0.033
-463.113	-200.000	0.015	-0.083
-462.099	-100.035	0.138	-0.035
-461.084	-200.000	-0.012	0.135
-460.070	-134.248	-0.304	-0.038
-459.055	-200.000	-0.001	-0.391
-458.040	82.022	0.217	-0.236
-457.026	-200.000	0.022	0.121
-456.011	-62.283	-0.103	0.043
-454.997	-45.414	-0.258	-0.129
-453.982	107.756	0.047	-0.057
-452.968	-45.219	0.199	-0.099
-451.953	253.271	-0.073	0.125
-450.938	-200.000	0.033	0.178
-449.924	800.000	-0.092	0.374
-448.909	199.196	0.016	-0.024
-447.895	254.311	-0.091	0.156
-446.880	136.378	-0.185	0.243
-445.865	800.000	-0.048	0.135
-444.851	1.045	0.058	-0.042
-443.836	-40.072	0.134	-0.070
-442.822	203.329	0.098	-0.153
-441.807	3.821	0.146	-0.107
-440.792	74.643	0.060	0.064
-439.778	179.613	0.277	0.407
-438.763	-200.000	-0.015	0.103
-437.749	800.000	0.063	0.215
-436.734	-200.000	0.000	0.056
-435.719	37.830	0.080	0.071
-434.705	188.291	-0.081	0.121
-433.690	-103.931	0.192	0.045
-432.676	199.193	0.160	-0.245
-431.661	95.061	0.169	-0.193
-430.646	716.895	0.141	0.377
-429.632	-8.976	-0.286	-0.192
-428.617	-62.357	-0.132	0.055
-427.603	728.606	0.055	0.148
-426.588	70.905	-0.124	0.129
-425.573	36.757	0.151	0.134
-424.559	326.791	0.061	0.117
-423.544	111.312	0.204	0.247
-422.530	285.318	0.141	0.255
-421.515	-158.822	0.081	-0.005
-420.500	180.800	0.049	-0.073
-419.486	800.000	0.036	-0.110
-418.471	-137.728	-0.434	0.049
-417.457	-153.197	0.103	0.007
-416.442	-187.902	-0.188	0.002
-415.428	175.358	-0.070	0.102
-414.413	-131.479	-0.281	0.037
-413.398	162.427	-0.056	0.078
-412.384	11.967	0.163	0.125
-411.369	246.224	0.072	0.121
-410.355	47.861	0.164	-0.154
-409.340	53.432	0.186	0.179
-408.325	800.000	0.082	-0.337
-407.311	-13.042	0.199	0.130
-406.296	-52.823	-0.106	0.049
-405.282	75.334	-0.080	0.085
-404.267	22.219	-0.209	-0.172
-403.252	131.850	-0.131	0.170
-402.238	269.948	-0.126	0.222
-401.223	89.126	-0.133	0.148
-400.209	-200.000	-0.006	-0.273
-399.194	-46.098	0.174	0.086
-398.179	331.811	0.028	-0.055
-397.165	85.373	0.106	0.117
-396.150	-200.000	0.006	0.051
-395.136	-134.883	-0.248	0.030
-394.121	125.614	0.059	0.074
-393.106	-130.959	-0.215	0.029
-392.092	-200.000	-0.027	-0.125
-391.077	-78.858	-0.230	-0.079
-390.063	800.000	-0.105	-0.294
-389.048	-59.499	-0.233	0.100
-388.033	2.007	0.152	-0.110
-387.019	800.000	-0.075	-0.296
-386.004	-200.000	0.113	0.000
-384.990	19.713	0.083	0.067
-383.975	-20.173	0.056	-0.034
-382.960	-37.664	0.150	-0.080
-381.946	-11.060	0.100	0.066
-380.931	122.430	-0.148	-0.185
-379.917	154.518	0.025	-0.034
-378.902	268.745	0.105	0.184
-377.888	24.216	-0.171	0.141
-376.873	-67.601	-0.302	0.118
-375.858	-200.000	-0.021	0.129
-374.844	-98.129	0.127	-0.033
-373.829	88.039	0.194	0.216
-372.815	275.041	-0.095	-0.169
-371.800	65.892	-0.262	0.266
-370.785	46.151	0.254	0.235
-369.771	14.117	-0.432	-0.337
-368.756	800.000	-0.061	0.196
-367.742	-173.441	0.091	0.003
-366.727	24.175	-0.093	-0.077
-365.712	-200.000	0.022	0.173
-364.698	248.585	-0.176	-0.299
-363.683	-126.957	0.165	0.024
-362.669	-44.589	0.056	-0.028
-361.654	-83.462	-0.190	0.061
-360.639	-22.137	-0.112	-0.068
-359.625	103.252	-0.137	-0.161
-358.610	-200.000	0.005	-0.129
-357.596	50.729	0.241	-0.228
-356.581	-200.000	0.023	-0.116
-355.566	-124.696	0.143	-0.022
-354.552	46.798	-0.416	-0.387
-353.537	581.283	0.172	-0.422
-352.523	-41.534	-0.257	-0.132
-351.508	-44.444	-0.056	-0.028
-350.493	-200.000	0.009	0.049
-349.479	30.157	-0.214	0.183
-348.464	-200.000	0.016	-0.161
-347.450	239.876	-0.095	-0.158
-346.435	-200.000	0.008	-0.135
-345.420	-200.000	0.074	0.340
-344.406	-111.236	-0.330	0.067
-343.391	723.822	-0.193	0.515
-342.377	800.000	0.105	0.342
-341.362	-132.730	0.161	0.021
-340.348	-200.000	0.051	-0.252
-339.333	248.304	-0.044	-0.074
-338.318	-50.684	-0.200	0.094
-337.304	-200.000	0.047	-0.224
-336.289	-127.157	-0.148	-0.022
-335.275	-200.000	0.019	-0.262
-334.260	336.314	0.135	0.262
-333.245	747.730	0.064	-0.172
-332.231	-136.684	-0.603	0.070
-331.216	165.603	-0.036	-0.050
-330.202	-143.181	-0.206	-0.020
-329.187	-200.000	0.066	-0.368
-328.172	800.000	-0.084	0.289
-327.158	107.148	-0.077	0.091
-326.143	-140.813	0.083	0.009
-325.129	114.907	-0.080	-0.097
-324.114	800.000	0.036	0.130
-323.099	475.002	0.036	-0.080
-322.085	-200.000	0.150	0.000
-321.070	174.089	-0.249	0.359
-320.056	-79.760	0.094	0.032
-319.041	-148.725	0.304	0.025
-318.026	77.084	0.026	0.028
-317.012	-200.000	-0.018	0.172
-315.997	184.924	0.164	0.243
-314.983	-61.308	0.230	-0.097
-313.968	3.102	-0.250	-0.181
-312.953	-93.233	0.284	0.079
-311.939	401.360	-0.165	-0.347
-310.924	800.000	-0.049	0.176
-309.910	-39.775	0.319	-0.167
-308.895	152.169	-0.018	0.025
-307.880	4.208	-0.181	0.132
-306.866	19.332	0.251	0.202
-305.851	-183.129	0.130	-0.002
-304.837	-144.309	-0.297	-0.028
-303.822	-27.416	0.200	-0.116
-302.807	228.412	-0.213	0.346
-301.793	-190.863	0.374	0.004
-300.778	800.000	0.095	0.306
-299.764	17.910	0.258	0.205
-298.749	194.642	0.179	-0.271
-297.735	-5.609	-0.126	0.087
-296.720	241.735	0.152	0.254
-295.705	117.707	0.182	-0.223
-294.691	-62.093	-0.162	-0.068
-293.676	741.354	-0.107	-0.287
-292.662	-57.229	0.200	0.088
-291.647	-154.755	-0.176	0.012
-290.632	186.067	0.042	-0.062
-289.618	-77.063	0.192	-0.067
-288.603	768.161	0.185	-0.502
-287.589	800.000	0.068	0.238
-286.574	-200.000	-0.017	0.206
-285.559	7.274	0.353	0.263
-284.545	-23.125	-0.326	-0.196
-283.530	273.117	-0.086	0.151
-282.516	-200.000	0.085	0.565
-281.501	-194.484	-0.306	-0.002
-280.486	202.241	0.070	-0.108
-279.472	-99.809	-0.387	0.097
-278.457	-12.019	0.021	0.014
-277.443	-188.505	0.053	-0.001
-276.428	800.000	-0.126	0.394
-275.413	-128.981	-0.138	0.019
-274.399	137.614	-0.073	-0.095
-273.384	278.152	0.032	-0.057
-272.370	43.103	0.137	0.125
-271.355	-200.000	-0.014	-0.080
-270.340	159.455	0.268	-0.372
-269.326	800.000	0.048	0.207
-268.311	-200.000	-0.004	0.172
-267.297	-119.166	-0.390	0.068
-266.282	78.033	0.233	0.248
-265.267	43.505	-0.117	0.107
-264.253	124.028	-0.055	0.068
-263.238	800.000	-0.062	-0.194
-262.224	-200.000	0.055	-0.342
-261.209	130.093	0.123	0.157
-260.195	11.363	-0.075	-0.057
-259.180	124.437	0.283	-0.355
-258.165	-158.309	0.147	-0.009
-257.151	-55.877	0.223	0.099
-256.136	-47.590	-0.150	0.073
-255.122	357.212	0.131	0.261
-254.107	800.000	0.033	-0.107
-253.092	-139.435	0.063	0.007
-252.078	24.548	0.174	-0.144
-251.063	65.483	0.115	-0.116
-250.049	-200.000	-0.001	-0.057
-249.034	20.186	-0.113	-0.091
-248.019	-142.040	-0.280	-0.028
-247.005	385.457	-0.091	0.186
-245.990	-200.000	0.001	-0.226
-244.976	-19.717	-0.148	-0.091
-243.961	-15.821	-0.013	-0.008
-242.946	800.000	0.076	0.256
-241.932	-200.000	0.018	0.127
-240.917	232.558	0.047	-0.077
-239.903	-161.513	-0.213	-0.011
-238.888	305.624	-0.120	0.223
-237.873	-130.884	-0.228	-0.030
-236.859	-89.781	-0.231	-0.067
-235.844	34.181	-0.120	0.105
-234.830	-76.027	0.068	-0.024
-233.815	372.625	-0.110	-0.222
-232.800	23.562	-0.328	-0.269
-231.786	-125.948	0.159	-0.024
-230.771	362.677	-0.028	0.056
-229.757	155.093	0.090	-0.124
-228.742	-9.389	-0.376	-0.250
-227.727	-200.000	0.002	-0.021
-226.713	-200.000	-0.002	-0.208
-225.698	100.726	-0.190	0.220
-224.684	-200.000	0.077	0.491
-223.669	-200.000	0.008	-0.238
-222.655	285.105	-0.040	-0.071
-221.640	70.103	0.310	0.319
-220.625	126.529	0.138	-0.174
-219.611	0.574	-0.369	-0.263
-218.596	-89.522	0.046	-0.014
-217.582	-200.000	-0.006	-0.326
-216.567	-200.000	0.002	0.335
-215.552	-200.000	-0.041	-0.390
-214.538	-200.000	-0.084	-0.483
-213.523	-78.056	-0.159	0.054
-212.509	-154.112	0.133	-0.009
-211.494	-29.397	0.050	-0.028
-210.479	-133.413	0.316	-0.040
-209.465	-200.000	-0.015	-0.117
-208.450	7.531	-0.081	0.060
-207.436	-179.855	0.267	-0.006
-206.421	209.904	-0.141	-0.219
-205.406	454.350	-0.098	-0.216
-204.392	-200.000	0.045	-0.273
-203.377	-200.000	0.053	0.352
-202.363	-116.441	-0.159	0.029
-201.348	-200.000	-0.014	0.202
-200.333	-67.181	0.281	-0.110
-199.319	252.528	-0.094	0.160
-198.304	52.846	-0.151	-0.144
-197.290	-71.264	0.143	-0.053
-196.275	-200.000	-0.005	0.234
-195.260	-132.132	0.307	0.040
-194.246	-89.916	0.248	-0.072
-193.231	-200.000	-0.047	-0.317
-192.217	800.000	-0.009	-0.029
-191.202	-169.863	0.314	-0.011
-190.187	11.122	0.351	-0.267
-189.173	-2.170	-0.148	0.103
-188.158	-72.480	0.171	-0.063
-187.144	-200.000	-0.028	-0.182
-186.129	198.213	0.066	-0.100
-185.114	-165.231	0.249	0.011
-184.100	69.737	-0.038	0.038
-183.085	582.924	-0.043	-0.105
-182.071	-200.000	-0.037	-0.203
-181.056	75.270	-0.237	-0.248
-180.042	-66.251	-0.301	-0.119
-179.027	-3.821	-0.180	-0.124
-178.012	-152.100	0.247	-0.018
-176.998	-200.000	0.051	0.371
-175.983	56.408	-0.183	-0.177
-174.969	800.000	0.049	0.136
-173.954	471.511	0.113	0.253
-172.939	478.748	0.101	-0.227
-171.925	-93.068	0.224	0.062
-170.910	-32.712	-0.133	-0.073
-169.896	-200.000	0.042	-0.182
-168.881	295.091	-0.171	-0.311
-167.866	235.756	0.088	0.145
-166.852	-200.000	-0.016	-0.225
-165.837	-57.885	0.195	-0.084
-164.823	-200.000	0.051	-0.227
-163.808	701.759	0.013	0.035
-162.793	120.247	0.208	0.257
-161.779	-200.000	-0.083	-0.511
-160.764	-99.214	-0.170	-0.043
-159.750	-92.010	-0.128	-0.036
-158.735	232.413	0.177	0.289
-157.720	472.974	0.053	0.118
-156.706	252.412	0.315	0.533
-155.691	192.054	0.052	0.077
-154.677	-71.032	0.172	-0.064
-153.662	-200.000	-0.049	0.519
-152.647	-70.307	0.190	-0.072
-151.633	166.735	0.176	0.248
-150.618	267.892	0.260	0.452
-149.604	761.882	0.061	0.163
-148.589	172.996	0.227	0.325
-147.574	-29.713	-0.415	0.235
-146.560	-53.806	0.150	-0.068
-145.545	253.989	0.099	-0.168
-144.531	-46.099	0.418	0.204
-143.516	-131.729	0.240	-0.031
-142.502	297.186	-0.155	-0.282
-141.487	648.975	0.032	-0.080
-140.472	-200.000	-0.029	0.169
-139.458	-200.000	0.032	-0.347
-138.443	499.967	0.107	-0.245
-137.429	98.112	-0.105	-0.120
-136.414	-88.690	-0.158	-0.046
-135.399	26.624	-0.148	-0.123
-134.385	314.313	-0.119	-0.223
-133.370	-48.941	0.248	0.118
-132.356	7.338	-0.018	0.013
-131.341	493.678	-0.124	-0.281
-130.326	74.513	-0.049	-0.051
-129.312	-200.000	-0.020	-0.281
-128.297	77.114	0.088	0.092
-127.283	-59.218	0.183	0.078
-126.268	-25.482	-0.206	0.121
-125.253	64.582	0.130	0.130
-124.239	-82.307	0.117	0.038
-123.224	-200.000	-0.042	0.243
-122.210	-68.955	0.060	0.023
-121.195	24.376	0.132	-0.108
-120.180	-143.874	-0.072	-0.007
-119.166	-145.271	0.082	0.007
-118.151	800.000	0.027	0.100
-117.137	-200.000	0.069	-0.330
-116.122	34.446	0.051	0.044
-115.107	372.886	0.032	0.064
-114.093	-132.875	0.075	-0.009
-113.078	-90.919	-0.171	-0.049
-112.064	-200.000	0.021	0.263
-111.049	-43.439	0.139	0.070
-110.034	377.309	0.073	-0.147
-109.020	-88.833	-0.215	-0.063
-108.005	-200.000	0.057	0.262
-106.991	35.633	0.266	-0.232
-105.976	-134.872	0.311	-0.037
-104.962	230.775	-0.178	0.289
-103.947	-200.000	0.001	-0.319
-102.932	-125.995	0.235	0.035
-101.918	800.000	-0.059	-0.182
-100.903	147.046	-0.154	0.206
-99.889	21.050	0.153	0.123
-98.874	60.707	0.109	-0.107
-97.859	81.065	-0.058	-0.062
-96.845	-14.840	0.246	0.156
-95.830	-48.791	0.251	0.119
-94.816	-187.514	0.152	0.002
-93.801	-187.540	0.231	0.003
-92.786	-61.531	-0.037	0.016
-91.772	124.791	0.130	-0.162
-90.757	-117.157	-0.013	0.002
-89.743	304.924	-0.101	-0.186
-88.728	538.857	0.053	-0.126
-87.713	-54.673	-0.104	-0.047
-86.699	-0.187	0.157	-0.110
-85.684	-42.708	0.307	-0.155
-84.670	134.347	0.180	0.231
-83.655	-200.000	0.002	-0.270
-82.640	-115.989	0.153	0.028
-81.626	-85.052	-0.160	-0.050
-80.611	-103.907	0.150	0.035
-79.597	-131.980	0.163	-0.021
-78.582	-195.944	-0.094	-0.001
-77.567	376.605	-0.082	0.166
-76.553	800.000	-0.042	-0.179
-75.538	-71.180	0.189	-0.070
-74.524	-0.149	0.259	0.182
-73.509	800.000	-0.091	0.254
-72.494	-150.922	0.294	0.022
-71.480	70.115	-0.117	-0.119
-70.465	175.734	0.213	-0.306
-69.451	-200.000	0.025	0.254
-68.436	-104.701	0.110	0.025
-67.422	-80.625	0.114	-0.037
-66.407	73.358	-0.122	0.127
-65.392	-68.364	0.355	-0.136
-64.378	173.783	-0.207	0.295
-63.363	-111.206	0.526	0.107
-62.349	226.678	0.116	0.186
-61.334	-20.472	-1.016	-0.618
-60.319	-200.000	0.049	0.708
-59.305	604.902	-0.266	-0.655
-58.290	145.301	0.899	1.191
-57.276	765.262	0.508	1.367
-56.261	-200.000	95.851	569.854
-55.246	540.590	1377.825	3245.034
-54.232	156.775	2564.213	3503.742
-53.217	102.059	2301.548	2657.556
-52.203	39.505	2058.324	1824.082
-51.188	34.910	1972.711	1707.243
-50.173	33.394	1954.247	1677.780
-49.159	47.714	2003.442	1848.799
-48.144	49.195	2022.222	1879.365
-47.130	35.499	1983.347	1721.465
-46.115	33.118	1972.998	1691.144
-45.100	33.054	1970.493	1688.359
-44.086	33.004	1967.823	1685.557
-43.071	32.951	1964.846	1682.469
-42.057	32.931	1962.575	1680.280
-41.042	32.948	1960.965	1678.987
-40.027	33.039	1959.001	1678.047
-39.013	33.002	1957.155	1676.068
-37.998	33.067	1954.953	1674.695
-36.984	33.032	1953.876	1673.390
-35.969	33.027	1952.369	1671.992
-34.954	33.048	1950.512	1670.520
-33.940	33.128	1949.049	1669.907
-32.925	33.132	1947.127	1668.226
-31.911	33.128	1945.430	1666.676
-30.896	33.112	1943.881	1665.143
-29.881	33.158	1942.476	1664.272
-28.867	33.184	1941.037	1663.205
-27.852	33.168	1938.882	1661.154
-26.838	33.226	1936.652	1659.684
-25.823	33.147	1934.987	1657.500
-24.809	33.132	1934.057	1656.505
-23.794	33.085	1932.246	1654.478
-22.779	33.126	1930.355	1653.150
-21.765	33.102	1928.514	1651.298
-20.750	33.098	1927.240	1650.103
-19.736	33.112	1925.230	1648.439
-18.721	33.191	1923.711	1647.764
-17.706	33.128	1922.465	1646.088
-16.692	33.164	1920.432	1644.593
-15.677	33.177	1919.117	1643.514
-14.663	33.168	1917.656	1642.122
-13.648	33.162	1916.324	1640.864
-12.633	33.124	1915.428	1639.694
-11.619	33.121	1914.326	1638.667
-10.604	33.081	1912.744	1636.901
-9.590	33.124	1911.033	1635.743
-8.575	33.029	1910.108	1634.062
-7.560	33.055	1909.047	1633.314
-6.546	33.111	1907.876	1632.729
-5.531	33.114	1906.562	1631.570
-4.517	33.129	1904.949	1630.254
-3.502	33.201	1903.751	1629.780
-2.487	33.113	1902.579	1627.958
-1.473	33.116	1901.837	1627.283
-0.458	33.154	1897.401	1623.750
0.556	33.373	1877.570	1595.955
1.571	29.461	1858.187	1546.631
2.586	25.833	1881.234	1534.829
3.600	24.974	1917.417	1556.749
4.615	24.510	1912.624	1548.695
5.629	18.737	1811.805	1419.346
6.644	8.160	1690.103	1241.913
7.659	2.727	1650.850	1171.555
8.673	2.222	1647.761	1165.408
9.688	2.191	1646.400	1164.108
10.702	2.052	1645.172	1162.076
11.717	1.895	1641.617	1158.266
12.731	2.365	1640.520	1160.960
13.746	9.393	1657.258	1226.431
14.761	20.135	1681.371	1326.829
15.775	25.613	1690.817	1376.201
16.790	26.556	1691.969	1384.234
17.804	26.655	1692.014	1384.902
18.819	26.729	1690.849	1384.393
19.834	26.857	1690.390	1384.872
20.848	27.097	1689.415	1385.785
21.863	27.080	1689.006	1385.197
22.877	27.136	1688.319	1384.934
23.892	27.051	1687.120	1383.178
24.907	27.143	1686.084	1382.912
25.921	27.131	1685.375	1382.111
26.936	27.131	1684.353	1381.153
27.950	27.115	1683.295	1380.044
28.965	27.155	1682.555	1379.616
29.980	27.075	1682.136	1378.542
30.994	27.015	1680.694	1376.787
32.009	27.201	1679.296	1376.932
33.023	27.127	1678.744	1375.797
34.038	27.094	1677.932	1374.754
35.053	27.029	1676.746	1373.168
36.067	27.150	1675.513	1372.955
37.082	27.121	1674.734	1371.974
38.096	27.142	1673.614	1371.095
39.111	27.120	1672.841	1370.177
40.126	27.216	1671.661	1369.814
41.140	27.071	1671.722	1368.649
42.155	27.236	1669.794	1368.190
43.169	27.105	1669.212	1366.602
44.184	27.157	1668.188	1366.034
45.199	27.143	1666.832	1364.698
46.213	27.066	1666.277	1363.545
47.228	27.015	1665.047	1362.041
48.242	27.183	1663.332	1361.772
49.257	27.190	1662.481	1361.010
50.271	27.172	1661.001	1359.538
51.286	27.141	1659.746	1358.163
52.301	27.233	1658.479	1357.695
53.315	27.104	1657.547	1355.849
54.330	27.067	1656.527	1354.614
55.344	27.129	1655.023	1353.729
56.359	27.196	1653.219	1352.628
57.374	27.169	1652.553	1351.766
58.388	27.077	1651.788	1350.337
59.403	27.181	1650.459	1349.902
60.417	27.197	1648.831	1348.575
61.432	27.136	1648.294	1347.558
62.447	27.198	1646.672	1346.573
63.461	27.105	1646.412	1345.553
64.476	27.094	1645.231	1344.387
65.490	27.075	1644.445	1343.485
66.505	27.127	1643.053	1342.619
67.520	27.101	1642.252	1341.651
68.534	27.152	1641.364	1341.180
69.549	27.136	1640.239	1340.029
70.563	27.169	1638.777	1338.956
71.578	27.183	1637.878	1338.209
72.593	27.275	1636.733	1337.827
73.607	27.103	1636.249	1336.048
74.622	27.175	1635.173	1335.581
75.636	27.171	1634.381	1334.789
76.651	27.193	1633.724	1334.293
77.666	27.110	1632.755	1332.779
78.680	27.171	1631.781	1332.313
79.695	27.152	1630.648	1331.127
80.709	27.221	1629.900	1330.902
81.724	27.254	1628.938	1330.241
82.739	27.212	1628.166	1329.189
83.753	27.188	1627.708	1328.524
84.768	27.154	1626.560	1327.218
85.782	27.239	1625.446	1326.809
86.797	27.116	1625.125	1325.538
87.812	27.151	1623.954	1324.722
88.826	27.192	1622.756	1323.919
89.841	27.188	1622.015	1323.168
90.855	27.160	1620.734	1321.804
91.870	27.208	1619.580	1321.095
92.884	27.250	1618.852	1320.688
93.899	27.150	1617.809	1318.998
94.914	27.274	1616.304	1318.553
95.928	27.211	1615.686	1317.475
96.943	27.229	1614.383	1316.426
97.957	27.232	1612.970	1315.178
98.972	27.238	1611.810	1314.159
99.987	27.237	1610.011	1312.573
101.001	27.324	1608.689	1312.006
102.016	27.150	1607.680	1309.808
103.030	27.181	1606.766	1309.177
104.045	27.177	1605.190	1307.742
105.060	27.174	1603.966	1306.612
106.074	27.173	1602.525	1305.313
107.089	27.228	1601.587	1304.826
108.103	27.284	1600.303	1304.065
109.118	27.251	1599.274	1302.878
110.133	27.263	1598.071	1301.873
111.147	27.316	1596.825	1301.115
112.162	27.352	1595.119	1299.873
113.176	27.272	1594.484	1298.667
114.191	27.322	1593.549	1298.146
115.206	27.194	1592.672	1296.408
116.220	27.332	1591.558	1296.370
117.235	27.271	1589.894	1294.463
118.249	27.317	1588.976	1293.927
119.264	27.206	1588.209	1292.402
120.279	27.203	1586.966	1291.255
121.293	27.254	1585.578	1290.370
122.308	27.345	1584.034	1289.647
123.322	27.328	1582.949	1288.526
124.337	27.269	1582.046	1287.260
125.352	27.326	1580.787	1286.524
126.366	27.397	1579.535	1285.895
127.381	27.320	1578.881	1284.701
128.395	27.199	1578.536	1283.454
129.410	27.309	1577.214	1283.045
130.424	27.303	1575.924	1281.838
131.439	27.286	1574.481	1280.433
132.454	27.309	1573.295	1279.517
133.468	27.301	1572.236	1278.481
134.483	27.339	1570.559	1277.276
135.497	27.298	1569.492	1276.006
136.512	27.234	1568.716	1274.813
137.527	27.286	1567.914	1274.413
138.541	27.419	1566.020	1273.691
139.556	27.312	1565.349	1272.285
140.570	27.216	1564.098	1270.484
141.585	27.288	1562.474	1269.557
142.600	27.351	1561.762	1269.306
143.614	27.347	1560.708	1268.308
144.629	27.338	1559.644	1267.265
145.643	27.266	1558.440	1265.673
146.658	27.305	1557.208	1264.833
147.673	27.350	1555.736	1263.843
148.687	27.320	1554.816	1262.772
149.702	27.293	1554.087	1261.883
150.716	27.218	1552.890	1260.275
151.731	27.273	1551.571	1259.474
152.746	27.253	1550.599	1258.441
153.760	27.244	1548.914	1256.901
154.775	27.416	1548.160	1257.365
155.789	27.293	1547.809	1256.113
156.804	27.373	1546.392	1255.408
157.819	27.319	1545.157	1253.921
158.833	27.367	1543.991	1253.195
159.848	27.304	1543.370	1252.149
160.862	27.318	1542.278	1251.245
161.877	27.262	1541.566	1250.173
162.892	27.408	1539.992	1249.786
163.906	27.345	1539.777	1249.068
164.921	27.421	1538.339	1248.313
165.935	27.359	1537.968	1247.480
166.950	27.445	1536.883	1247.077
167.964	27.433	1535.247	1245.560
168.979	27.458	1534.628	1245.116
169.994	27.384	1534.049	1244.032
171.008	27.462	1532.899	1243.521
172.023	27.393	1532.097	1242.288
173.037	27.496	1530.871	1241.890
174.052	27.459	1529.905	1240.742
175.067	27.457	1529.061	1239.932
176.081	27.487	1527.816	1239.019
177.096	27.496	1526.968	1238.280
178.110	27.527	1525.486	1237.179
179.125	27.431	1525.154	1236.151
180.140	27.495	1524.438	1235.895
181.154	27.570	1523.494	1235.530
182.169	27.490	1522.593	1234.149
183.183	27.588	1521.427	1233.754
184.198	27.524	1520.408	1232.387
185.213	27.514	1519.683	1231.623
186.227	27.477	1519.384	1231.024
187.242	27.544	1518.065	1230.297
188.256	27.585	1517.004	1229.605
189.271	27.576	1516.386	1228.931
190.286	27.561	1515.419	1227.943
191.300	27.572	1514.925	1227.506
192.315	27.617	1513.520	1226.560
193.329	27.620	1512.468	1225.619
194.344	27.483	1511.998	1224.210
195.359	27.558	1511.321	1224.059
196.373	27.600	1510.186	1223.310
197.388	27.589	1509.136	1222.279
198.402	27.606	1507.805	1221.208
199.417	27.600	1506.796	1220.242
200.432	27.453	1507.104	1219.401
201.446	27.600	1506.040	1219.415
202.461	27.515	1505.128	1217.995
203.475	27.548	1504.022	1217.220
204.490	27.581	1503.205	1216.671
205.504	27.525	1502.585	1215.683
206.519	27.540	1501.841	1215.075
207.534	27.534	1500.957	1214.211
208.548	27.601	1500.115	1213.872
209.563	27.704	1499.352	1213.828
210.577	27.632	1497.925	1212.089
211.592	27.560	1497.595	1211.236
212.607	27.640	1496.836	1211.044
213.621	27.701	1496.192	1210.824
214.636	27.748	1495.122	1210.163
215.650	27.728	1494.160	1209.144
216.665	27.720	1493.880	1208.757
217.680	27.750	1492.990	1208.127
218.694	27.615	1492.244	1206.522
219.709	27.672	1491.354	1206.077
220.723	27.746	1490.441	1205.716
221.738	27.781	1489.634	1205.191
222.753	27.677	1488.874	1203.783
223.767	27.673	1487.979	1202.927
224.782	27.619	1487.227	1201.857
225.796	27.580	1486.545	1200.944
226.811	27.635	1485.883	1200.666
227.826	27.720	1484.808	1200.245
228.840	27.665	1484.226	1199.309
229.855	27.757	1483.803	1199.467
230.869	27.783	1482.379	1198.381
231.884	27.723	1481.392	1197.082
232.899	27.784	1480.979	1197.043
233.913	27.808	1479.343	1195.768
234.928	27.803	1478.156	1194.670
235.942	27.837	1477.331	1194.122
236.957	27.908	1476.662	1193.938
237.972	27.830	1475.651	1192.506
238.986	27.826	1474.191	1191.199
240.001	27.766	1473.871	1190.440
241.015	27.831	1472.649	1189.774
242.030	27.822	1471.734	1188.867
243.045	27.914	1471.226	1188.951
244.059	27.948	1469.827	1187.939
245.074	28.002	1469.145	1187.630
246.088	27.971	1468.352	1186.682
247.103	28.057	1467.497	1186.444
248.117	27.948	1467.170	1185.373
249.132	27.968	1466.178	1184.595
250.147	27.910	1465.563	1183.614
251.161	27.933	1464.924	1183.144
252.176	28.105	1464.065	1183.459
253.190	28.002	1463.119	1181.922
254.205	28.073	1462.430	1181.724
255.220	28.080	1461.878	1181.215
256.234	27.966	1460.980	1179.651
257.249	27.981	1460.214	1179.024
258.263	28.127	1459.394	1179.202
259.278	28.084	1458.365	1177.986
260.293	28.102	1457.624	1177.396
261.307	28.136	1457.009	1177.018
262.322	28.082	1456.936	1176.509
263.336	28.155	1455.640	1175.824
264.351	28.210	1454.466	1175.125
265.366	28.040	1453.955	1173.515
266.380	28.184	1452.712	1173.334
267.395	28.086	1452.112	1172.115
268.409	28.166	1451.244	1171.827
269.424	28.032	1450.572	1170.323
270.439	28.137	1449.131	1169.725
271.453	28.172	1448.390	1169.246
272.468	28.133	1447.890	1168.494
273.482	28.221	1447.440	1168.585
274.497	28.201	1446.172	1167.332
275.512	28.034	1445.654	1165.747
276.526	28.136	1445.014	1165.780
277.541	28.299	1443.475	1165.473
278.555	28.246	1443.196	1164.804
279.570	28.231	1442.668	1164.178
280.585	28.160	1441.690	1162.837
281.599	28.199	1440.900	1162.346
282.614	28.207	1439.967	1161.541
283.628	28.209	1438.971	1160.648
284.643	28.243	1438.153	1160.100
285.657	28.257	1437.308	1159.402
286.672	28.218	1436.237	1158.192
287.687	28.205	1435.697	1157.569
288.701	28.244	1434.507	1156.754
289.716	28.296	1434.226	1156.750
290.730	28.356	1433.619	1156.539
291.745	28.272	1432.376	1154.903
292.760	28.175	1431.938	1153.841
293.774	28.391	1430.631	1154.044
294.789	28.382	1429.767	1153.187
295.803	28.253	1429.666	1152.193
296.818	28.359	1428.559	1151.863
297.833	28.328	1428.121	1151.213
298.847	28.340	1427.058	1150.330
299.862	28.510	1425.713	1150.211
300.876	28.439	1425.409	1149.420
301.891	28.433	1424.408	1148.471
302.906	28.376	1423.761	1147.492
303.920	28.414	1422.981	1147.001
304.935	28.565	1422.290	1147.285
305.949	28.490	1421.628	1146.185
306.964	28.310	1421.327	1144.716
307.979	28.514	1419.586	1144.486
308.993	28.515	1418.751	1143.718
310.008	28.573	1418.011	1143.380
311.022	28.455	1417.566	1142.187
312.037	28.516	1416.283	1141.427
313.052	28.546	1415.363	1140.775
314.066	28.461	1414.454	1139.409
315.081	28.465	1413.772	1138.783
316.095	28.571	1412.508	1138.327
317.110	28.424	1411.908	1136.827
318.125	28.457	1411.414	1136.535
319.139	28.619	1410.290	1136.534
320.154	28.671	1409.157	1135.841
321.168	28.625	1408.256	1134.727
322.183	28.629	1407.684	1134.190
323.197	28.639	1406.592	1133.272
324.212	28.668	1405.753	1132.674
325.227	28.601	1405.468	1131.936
326.241	28.681	1404.378	1131.446
327.256	28.709	1403.536	1130.844
328.270	28.733	1402.912	1130.385
329.285	28.683	1402.101	1129.324
330.300	28.687	1401.062	1128.416
331.314	28.665	1400.783	1127.957
332.329	28.641	1400.094	1127.153
333.343	28.700	1399.197	1126.690
334.358	28.758	1398.502	1126.387
335.373	28.749	1397.832	1125.692
336.387	28.839	1396.767	1125.291
337.402	28.899	1396.155	1125.066
338.416	28.764	1395.777	1123.831
339.431	28.794	1395.195	1123.445
340.446	28.898	1394.656	1123.548
341.460	28.917	1393.389	1122.549
342.475	28.865	1392.748	1121.616
343.489	28.926	1391.897	1121.199
344.504	28.865	1391.066	1120.061
345.519	28.966	1390.376	1120.022
346.533	28.999	1388.952	1118.974
347.548	28.974	1387.946	1117.914
348.562	28.972	1387.091	1117.113
349.577	28.952	1386.672	1116.554
350.592	28.981	1385.924	1116.033
351.606	28.844	1385.669	1114.896
352.621	28.862	1384.130	1113.667
353.635	28.976	1383.215	1113.525
354.650	28.939	1382.647	1112.743
355.665	29.015	1381.987	1112.573
356.679	29.088	1380.556	1111.764
357.694	28.957	1379.874	1110.324
358.708	29.054	1378.493	1109.703
359.723	29.224	1377.015	1109.439
360.738	28.901	1376.744	1107.175
361.752	29.101	1374.949	1106.839
362.767	29.011	1374.107	1105.522
363.781	29.027	1373.743	1105.228
364.796	29.084	1372.988	1104.860
365.810	29.144	1372.499	1104.734
366.825	29.153	1371.375	1103.786
367.840	29.108	1370.907	1103.037
368.854	29.105	1370.292	1102.431
369.869	29.204	1369.765	1102.498
370.883	29.213	1368.977	1101.823
371.898	29.141	1368.097	1100.585
372.913	29.175	1367.439	1100.162
373.927	29.198	1366.616	1099.542
374.942	29.226	1365.886	1099.024
375.956	29.287	1364.952	1098.535
376.971	29.249	1364.484	1097.837
377.986	29.290	1363.643	1097.304
379.000	29.255	1362.888	1096.393
380.015	29.349	1362.116	1096.233
381.029	29.276	1361.617	1095.301
382.044	29.304	1360.704	1094.637
383.059	29.317	1360.011	1094.063
384.073	29.342	1359.640	1093.810
385.088	29.292	1359.626	1093.411
386.102	29.231	1358.830	1092.309
387.117	29.348	1358.028	1092.260
388.132	29.329	1357.263	1091.438
389.146	29.287	1356.628	1090.582
390.161	29.318	1355.588	1089.833
391.175	29.361	1354.933	1089.461
392.190	29.392	1354.216	1088.975
393.205	29.407	1353.458	1088.356
394.219	29.447	1352.563	1087.778
395.234	29.442	1351.331	1086.660
396.248	29.431	1350.565	1085.883
397.263	29.455	1349.423	1085.010
398.278	29.472	1348.578	1084.331
399.292	29.415	1347.999	1083.439
400.307	29.593	1346.631	1083.286
401.321	29.498	1346.001	1082.125
402.336	29.554	1345.281	1081.781
403.350	29.476	1344.124	1080.297
404.365	29.528	1342.865	1079.496
405.380	29.490	1342.001	1078.481
406.394	29.576	1341.254	1078.288
407.409	29.613	1340.847	1078.079
408.423	29.678	1339.909	1077.612
409.438	29.660	1339.510	1077.090
410.453	29.604	1339.047	1076.296
411.467	29.788	1338.216	1076.602
412.482	29.773	1337.474	1075.823
413.496	29.775	1336.778	1075.182
414.511	29.601	1336.459	1073.820
415.526	29.704	1335.268	1073.364
416.540	29.740	1334.519	1072.874
417.555	29.716	1334.165	1072.359
418.569	29.704	1333.655	1071.783
419.584	29.740	1333.162	1071.502
420.599	29.765	1332.696	1071.175
421.613	95.614	1352.019	1455.841
422.628	95.094	1354.805	1455.939
