DTS Sentinel unit serial number:	SN413079Multiplexer serial number:	ORYXHardware model number:	OX4-SRSoftware version number:	ORYX F/W v4.00 Oryx Data Collector v3.7.2.0data status	okinstallation	princeton_trtdifferential loss correction	single-endedforward channel	channel 4reverse channel	N/Adate	2019/09/10time	20:43:11forward acquisition time	60.00reverse acquisition time	0.00gamma	496.2192k internal	0.2312k external	0.2312temperature offset calibration	0.9948default loss term (dB/km)	0.3790temperature slope calibration	1.0000multiplexer offset coefficient	1.0000multiplexer slope coefficient	1.0000fibre end	0.00T internal ref (°C)	31.81T ext. ref 1 (°C)	-0.30T ext. ref 2 (°C)	25.22length (m)	temperature (°C)	Stokes	anti-Stokes-747.200	184.319	0.023	-0.034
-746.185	-200.000	-0.053	0.357
-745.171	75.611	0.133	0.143
-744.156	154.891	0.134	0.187
-743.142	26.298	0.339	-0.287
-742.127	-111.506	0.122	-0.025
-741.112	26.404	0.238	-0.202
-740.098	75.521	0.192	-0.205
-739.083	-200.000	-0.008	0.064
-738.069	-132.735	-0.315	0.041
-737.054	-200.000	0.000	-0.125
-736.039	10.397	-0.346	0.268
-735.025	-200.000	0.017	0.130
-734.010	-116.917	0.196	0.036
-732.996	-200.000	-0.005	-0.136
-731.981	144.810	0.081	0.110
-730.966	-118.071	0.228	0.041
-729.952	-48.128	-0.250	-0.122
-728.937	35.326	0.007	0.007
-727.923	-57.360	-0.233	0.104
-726.908	33.072	-0.231	0.203
-725.894	-17.522	-0.325	-0.207
-724.879	238.083	0.073	-0.123
-723.864	800.000	-0.038	-0.107
-722.850	-200.000	-0.037	-0.281
-721.835	-107.734	0.288	0.064
-720.821	-94.056	-0.254	0.071
-719.806	133.145	0.072	-0.095
-718.791	-77.772	0.184	-0.064
-717.777	-200.000	-0.010	-0.052
-716.762	-191.403	-0.238	-0.002
-715.748	32.589	-0.272	0.238
-714.733	129.570	-0.107	-0.139
-713.718	-121.951	-0.190	0.032
-712.704	-34.060	-0.061	0.034
-711.689	-51.496	-0.109	-0.052
-710.675	-70.695	0.168	0.064
-709.660	800.000	-0.044	0.154
-708.645	258.267	-0.062	-0.108
-707.631	-47.523	-0.070	-0.034
-706.616	52.886	-0.199	0.193
-705.602	-20.305	0.071	0.045
-704.587	-148.804	-0.019	-0.002
-703.572	-102.677	-0.216	0.052
-702.558	-200.000	-0.000	-0.005
-701.543	-200.000	0.058	0.296
-700.529	31.245	-0.278	0.242
-699.514	-20.297	-0.130	-0.081
-698.499	800.000	0.092	0.327
-697.485	800.000	-0.056	0.226
-696.470	11.300	-0.378	0.293
-695.456	-103.122	-0.527	-0.126
-694.441	749.217	0.145	-0.397
-693.426	800.000	0.017	0.048
-692.412	259.032	0.056	0.098
-691.397	-200.000	-0.034	-0.263
-690.383	-43.744	-0.402	0.205
-689.368	800.000	-0.070	-0.222
-688.354	185.919	0.083	0.125
-687.339	-101.227	-0.100	0.025
-686.324	73.418	-0.029	-0.030
-685.310	-200.000	-0.006	0.047
-684.295	-200.000	-0.053	0.280
-683.281	-99.658	-0.121	-0.031
-682.266	-60.829	0.191	-0.082
-681.251	36.833	-0.031	-0.028
-680.237	-118.725	0.364	-0.065
-679.222	9.126	-0.176	0.134
-678.208	-70.612	-0.217	-0.083
-677.193	800.000	-0.092	-0.274
-676.178	10.636	-0.077	-0.059
-675.164	-200.000	0.005	-0.220
-674.149	-200.000	-0.032	-0.154
-673.135	-103.749	0.426	0.101
-672.120	-142.687	-0.371	0.037
-671.105	-6.578	-0.263	-0.181
-670.091	-200.000	-0.025	0.298
-669.076	-200.000	0.028	0.165
-668.062	-200.000	-0.045	0.351
-667.047	-200.000	0.040	-0.250
-666.032	-103.111	0.102	0.025
-665.018	-25.978	-0.270	-0.161
-664.003	-151.304	0.052	-0.004
-662.989	30.083	-0.240	-0.207
-661.974	800.000	0.024	-0.096
-660.959	377.765	-0.187	0.387
-659.945	-22.010	-0.170	-0.104
-658.930	-136.918	-0.420	-0.049
-657.916	64.948	0.164	-0.167
-656.901	174.600	0.163	-0.238
-655.886	-23.289	-0.038	0.023
-654.872	-200.000	-0.026	-0.280
-653.857	28.415	0.176	0.151
-652.843	220.746	-0.049	0.079
-651.828	89.828	-0.133	-0.150
-650.814	-12.976	-0.065	0.043
-649.799	-39.979	-0.032	0.017
-648.784	-17.393	0.185	0.118
-647.770	-157.534	-0.155	0.009
-646.755	-70.400	-0.137	0.053
-645.741	-57.675	-0.212	-0.094
-644.726	17.457	-0.303	0.244
-643.711	62.531	0.230	0.232
-642.697	794.171	-0.058	0.161
-641.682	-72.076	-0.231	0.087
-640.668	-1.401	0.173	-0.123
-639.653	777.383	0.115	-0.318
-638.638	-177.127	0.267	0.007
-637.624	-99.772	-0.182	0.046
-636.609	326.688	0.041	0.080
-635.595	-200.000	0.011	-0.225
-634.580	-200.000	-0.021	0.205
-633.565	800.000	-0.075	0.229
-632.551	-95.957	0.223	0.060
-631.536	800.000	-0.087	0.321
-630.522	-200.000	0.041	0.227
-629.507	3.715	0.167	-0.123
-628.492	555.721	0.092	0.224
-627.478	82.021	-0.225	-0.246
-626.463	-76.917	0.039	0.014
-625.449	-21.603	-0.176	-0.109
-624.434	-41.927	-0.100	-0.052
-623.419	-200.000	-0.001	-0.115
-622.405	128.203	-0.028	-0.036
-621.390	-5.464	0.260	0.180
-620.376	-200.000	-0.013	0.109
-619.361	-200.000	0.044	0.236
-618.346	-127.938	-0.368	-0.053
-617.332	123.459	-0.021	0.026
-616.317	730.325	0.031	0.083
-615.303	-139.358	0.113	-0.012
-614.288	-149.052	0.306	-0.025
-613.273	-124.979	0.146	-0.023
-612.259	18.893	0.160	-0.130
-611.244	-117.357	0.355	0.065
-610.230	-109.904	-0.279	0.059
-609.215	557.987	0.169	0.411
-608.201	104.080	0.087	0.103
-607.186	-65.286	-0.170	-0.069
-606.171	-83.392	-0.270	0.087
-605.157	-186.836	-0.331	-0.005
-604.142	763.691	-0.011	0.031
-603.128	-200.000	0.005	0.157
-602.113	-200.000	-0.043	-0.203
-601.098	-35.958	0.141	0.077
-600.084	18.952	-0.185	0.150
-599.069	-92.631	0.274	0.078
-598.055	60.002	-0.049	0.049
-597.040	-126.350	-0.137	0.021
-596.025	104.084	0.101	-0.120
-595.011	-120.402	-0.318	-0.055
-593.996	-60.560	-0.159	-0.068
-592.982	-86.361	-0.110	-0.034
-591.967	603.994	0.200	0.502
-590.952	-51.796	0.423	0.199
-589.938	259.479	0.023	-0.040
-588.923	8.195	-0.405	-0.307
-587.909	-7.243	-0.117	0.080
-586.894	439.809	0.093	-0.205
-585.879	-95.544	-0.425	0.115
-584.865	-163.013	-0.439	-0.021
-583.850	-18.163	0.117	-0.074
-582.836	-32.498	-0.274	0.154
-581.821	-200.000	0.028	0.145
-580.806	45.609	0.146	0.136
-579.792	-76.374	0.131	-0.047
-578.777	264.039	-0.113	0.198
-577.763	-122.269	-0.247	0.041
-576.748	617.061	0.037	-0.094
-575.733	-200.000	-0.003	0.305
-574.719	800.000	-0.061	0.183
-573.704	-174.226	0.098	0.003
-572.690	434.966	-0.163	-0.357
-571.675	70.813	-0.171	-0.178
-570.661	-200.000	-0.118	-0.615
-569.646	24.088	-0.105	-0.087
-568.631	-145.069	0.124	0.011
-567.617	-200.000	-0.017	-0.382
-566.602	88.708	0.206	-0.231
-565.588	800.000	0.065	-0.251
-564.573	20.748	-0.144	-0.117
-563.558	-32.759	-0.135	-0.076
-562.544	800.000	-0.051	-0.148
-561.529	332.975	-0.277	-0.540
-560.515	-85.324	0.129	-0.041
-559.500	151.785	0.117	-0.161
-558.485	800.000	0.048	0.184
-557.471	-200.000	0.022	0.097
-556.456	800.000	-0.086	-0.314
-555.442	-55.430	0.096	-0.043
-554.427	485.173	0.036	-0.083
-553.412	118.336	-0.101	0.125
-552.398	3.320	0.277	0.203
-551.383	-200.000	-0.013	0.059
-550.369	280.290	-0.104	-0.188
-549.354	-29.861	0.115	-0.066
-548.339	-148.431	-0.319	0.026
-547.325	131.750	-0.102	0.133
-546.310	-113.300	0.263	0.052
-545.296	4.629	0.097	0.072
-544.281	-42.438	-0.138	0.071
-543.266	-72.010	-0.288	-0.108
-542.252	-2.397	-0.060	-0.042
-541.237	439.547	0.131	-0.288
-540.223	-200.000	-0.005	-0.092
-539.208	143.914	-0.152	-0.204
-538.193	-186.448	0.283	0.004
-537.179	-21.788	-0.278	0.170
-536.164	269.704	0.028	-0.050
-535.150	316.050	-0.120	-0.228
-534.135	173.215	0.288	0.419
-533.121	169.480	-0.097	-0.139
-532.106	229.930	0.093	0.153
-531.091	-200.000	-0.005	-0.214
-530.077	3.044	-0.079	-0.058
-529.062	383.672	0.140	0.289
-528.048	-61.819	-0.249	0.105
-527.033	6.260	-0.020	-0.015
-526.018	-0.340	-0.069	0.049
-525.004	-3.048	-0.237	-0.166
-523.989	800.000	0.077	0.223
-522.975	-30.115	0.129	0.074
-521.960	-200.000	0.009	-0.052
-520.945	-9.896	0.249	0.167
-519.931	-200.000	-0.015	-0.111
-518.916	143.191	0.084	-0.112
-517.902	253.386	0.123	0.211
-516.887	426.017	0.155	0.337
-515.872	-100.185	-0.266	0.067
-514.858	-90.316	0.338	0.099
-513.843	-15.262	-0.380	-0.245
-512.829	-6.085	-0.310	0.213
-511.814	-37.655	-0.085	0.046
-510.799	17.786	-0.097	0.078
-509.785	-108.759	-0.429	0.092
-508.770	-148.348	0.295	-0.024
-507.756	-18.456	0.324	-0.203
-506.741	68.856	0.060	-0.061
-505.726	228.312	-0.198	0.324
-504.712	115.297	0.152	-0.186
-503.697	441.441	-0.167	0.368
-502.683	-148.309	0.241	0.020
-501.668	24.579	0.256	0.213
-500.653	-177.225	-0.317	0.008
-499.639	800.000	-0.014	-0.040
-498.624	170.260	0.056	-0.080
-497.610	357.094	0.093	0.186
-496.595	-152.676	-0.169	-0.012
-495.581	-98.964	-0.140	0.036
-494.566	-84.411	0.050	-0.016
-493.551	-66.637	-0.304	0.121
-492.537	-200.000	0.023	0.125
-491.522	3.944	0.174	-0.128
-490.508	85.092	0.202	0.223
-489.493	800.000	0.084	-0.365
-488.478	-200.000	-0.037	-0.279
-487.464	542.623	0.101	0.241
-486.449	-68.500	0.069	-0.027
-485.435	434.518	-0.194	-0.423
-484.420	-200.000	0.006	-0.088
-483.405	93.030	0.076	0.086
-482.391	-131.768	-0.154	0.020
-481.376	109.024	0.031	0.037
-480.362	158.069	0.071	-0.098
-479.347	-45.105	-0.132	-0.066
-478.332	-133.109	-0.387	0.049
-477.318	22.981	0.176	-0.145
-476.303	-82.290	-0.169	0.055
-475.289	-200.000	-0.042	0.204
-474.274	800.000	-0.208	-0.658
-473.259	-30.109	0.284	-0.162
-472.245	800.000	-0.051	0.155
-471.230	116.652	-0.142	0.175
-470.216	63.440	0.183	0.184
-469.201	-159.890	-0.063	0.003
-468.186	-16.841	0.291	0.185
-467.172	800.000	0.064	-0.204
-466.157	-126.123	0.197	0.030
-465.143	-4.212	0.170	-0.118
-464.128	107.195	-0.134	-0.160
-463.113	-85.335	-0.219	-0.069
-462.099	443.397	-0.064	0.141
-461.084	-200.000	0.031	0.195
-460.070	800.000	0.135	0.392
-459.055	-112.470	0.244	-0.049
-458.040	-157.917	-0.176	0.010
-457.026	96.767	-0.259	0.298
-456.011	110.916	0.169	-0.204
-454.997	425.281	0.060	-0.131
-453.982	311.192	0.145	-0.272
-452.968	-158.792	-0.252	-0.014
-451.953	14.491	0.155	-0.121
-450.938	-152.625	0.177	-0.013
-449.924	371.942	0.272	-0.554
-448.909	188.953	-0.082	0.123
-447.895	690.856	-0.084	-0.220
-446.880	203.793	-0.114	0.177
-445.865	-105.159	-0.235	-0.054
-444.851	-55.772	-0.196	0.088
-443.836	194.189	-0.165	-0.251
-442.822	-13.469	-0.237	0.154
-441.807	800.000	0.122	0.429
-440.792	800.000	-0.028	-0.115
-439.778	-84.537	0.214	0.068
-438.763	-34.629	-0.149	0.082
-437.749	615.571	-0.071	-0.178
-436.734	-200.000	-0.004	0.057
-435.719	230.491	-0.043	-0.071
-434.705	-52.406	0.072	0.033
-433.690	-146.130	0.120	-0.011
-432.676	-59.418	0.147	-0.063
-431.661	231.202	-0.119	-0.196
-430.646	50.112	0.338	0.320
-429.632	271.828	-0.064	-0.114
-428.617	31.866	0.082	-0.071
-427.603	-97.785	-0.133	0.034
-426.588	-200.000	-0.011	0.074
-425.573	260.155	0.111	-0.193
-424.559	-102.752	-0.249	0.060
-423.544	345.149	-0.090	0.177
-422.530	169.609	0.115	0.164
-421.515	83.985	0.149	0.163
-420.500	-200.000	0.070	0.316
-419.486	171.562	-0.096	-0.139
-418.471	146.237	-0.112	-0.150
-417.457	-92.661	-0.286	0.080
-416.442	-20.541	-0.217	-0.134
-415.428	800.000	0.120	-0.395
-414.413	167.100	0.163	0.232
-413.398	-200.000	-0.049	0.262
-412.384	800.000	0.084	0.296
-411.369	800.000	-0.073	-0.209
-410.355	409.138	-0.067	-0.142
-409.340	490.299	-0.018	-0.041
-408.325	216.821	-0.114	-0.181
-407.311	-200.000	-0.004	0.026
-406.296	207.983	-0.297	-0.464
-405.282	-175.127	-0.201	-0.006
-404.267	-200.000	-0.029	-0.153
-403.252	67.439	0.261	0.267
-402.238	-170.219	0.073	-0.003
-401.223	-101.015	0.162	-0.040
-400.209	123.343	-0.135	-0.170
-399.194	-60.990	-0.303	-0.128
-398.179	-134.241	0.084	-0.010
-397.165	-66.410	0.030	0.012
-396.150	-27.311	0.150	-0.088
-395.136	-200.000	0.015	0.211
-394.121	490.344	-0.134	-0.308
-393.106	-1.254	0.107	-0.076
-392.092	-200.000	-0.024	0.123
-391.077	-55.148	0.422	-0.190
-390.063	-148.937	0.247	0.020
-389.048	73.432	-0.153	-0.161
-388.033	35.541	-0.122	0.107
-387.019	-66.605	-0.239	-0.095
-386.004	14.776	0.104	-0.081
-384.990	-138.200	0.162	0.018
-383.975	-42.083	-0.335	-0.171
-382.960	-156.706	0.248	0.015
-381.946	-50.847	0.375	0.176
-380.931	-156.026	-0.193	0.012
-379.917	-42.036	0.184	-0.094
-378.902	-6.404	-0.218	0.149
-377.888	-200.000	-0.038	-0.244
-376.873	119.815	0.133	-0.165
-375.858	174.492	-0.133	0.192
-374.844	-26.774	0.125	-0.073
-373.829	-101.605	0.141	-0.034
-372.815	143.748	-0.141	0.188
-371.800	-102.869	-0.260	-0.062
-370.785	-65.403	0.154	0.062
-369.771	114.158	-0.144	-0.175
-368.756	-89.340	0.158	-0.046
-367.742	19.935	-0.172	-0.139
-366.727	20.113	-0.384	0.309
-365.712	-127.932	-0.110	-0.016
-364.698	-200.000	-0.038	0.196
-363.683	800.000	0.062	-0.189
-362.669	-87.294	-0.253	0.077
-361.654	-19.180	0.089	-0.055
-360.639	-7.806	-0.457	0.309
-359.625	519.116	0.132	0.309
-358.610	146.535	-0.117	-0.158
-357.596	-60.816	-0.287	0.122
-356.581	-72.855	-0.219	-0.081
-355.566	3.773	-0.289	-0.211
-354.552	22.343	0.210	-0.172
-353.537	-87.329	-0.266	0.081
-352.523	800.000	-0.009	0.029
-351.508	-200.000	-0.016	0.083
-350.493	606.431	-0.062	-0.156
-349.479	800.000	-0.104	0.405
-348.464	-200.000	0.047	0.324
-347.450	87.629	0.151	-0.167
-346.435	-98.254	0.079	-0.020
-345.420	49.969	0.352	-0.332
-344.406	-178.862	-0.048	0.001
-343.391	-106.933	0.222	0.049
-342.377	101.758	-0.008	0.009
-341.362	301.774	0.043	0.079
-340.348	-58.934	-0.142	0.061
-339.333	-158.258	-0.258	0.015
-338.318	-72.717	-0.055	-0.020
-337.304	395.848	-0.186	-0.387
-336.289	800.000	0.036	0.103
-335.275	-21.504	-0.181	-0.111
-334.260	71.924	-0.164	0.171
-333.245	-56.986	0.067	0.030
-332.231	-200.000	-0.013	0.289
-331.216	-107.038	-0.221	0.049
-330.202	-170.755	-0.257	-0.009
-329.187	-99.974	0.274	-0.068
-328.172	-120.462	0.191	-0.032
-327.158	-153.793	-0.125	0.009
-326.143	136.993	-0.096	-0.125
-325.129	-146.660	0.309	0.027
-324.114	800.000	-0.039	-0.126
-323.099	21.092	0.181	-0.146
-322.085	-38.108	-0.150	-0.079
-321.070	166.144	0.083	-0.117
-320.056	130.407	0.164	-0.210
-319.041	-99.539	0.417	0.105
-318.026	114.373	-0.161	-0.195
-317.012	107.779	-0.094	-0.112
-315.997	800.000	0.074	0.243
-314.983	-169.936	0.135	0.005
-313.968	478.463	0.096	-0.218
-312.953	288.585	0.127	-0.229
-311.939	79.780	0.153	0.164
-310.924	-135.505	-0.389	0.046
-309.910	-80.120	0.275	0.092
-308.895	765.688	0.117	0.317
-307.880	800.000	-0.082	0.300
-306.866	462.162	-0.113	0.252
-305.851	-133.905	-0.212	0.026
-304.837	-200.000	0.068	0.346
-303.822	90.332	-0.196	-0.219
-302.807	-70.928	0.405	-0.152
-301.793	-24.679	0.107	-0.064
-300.778	800.000	-0.055	-0.214
-299.764	-48.752	-0.279	-0.134
-298.749	-27.851	0.092	-0.053
-297.735	162.842	-0.095	-0.133
-296.720	-129.423	-0.186	0.026
-295.705	127.025	-0.122	-0.155
-294.691	-199.487	0.043	-0.000
-293.676	-2.579	0.241	-0.168
-292.662	387.048	0.233	-0.479
-291.647	-60.304	0.287	0.122
-290.632	3.228	0.188	0.136
-289.618	-90.886	-0.146	0.042
-288.603	2.551	0.326	0.235
-287.589	365.672	-0.113	0.226
-286.574	370.660	0.190	0.383
-285.559	-6.232	0.177	-0.121
-284.545	17.341	-0.263	-0.208
-283.530	-200.000	-0.034	-0.161
-282.516	800.000	0.072	-0.276
-281.501	40.625	-0.226	0.203
-280.486	248.509	0.090	0.152
-279.472	116.762	-0.245	-0.299
-278.457	166.891	-0.177	0.250
-277.443	346.597	0.186	0.365
-276.428	16.491	-0.056	0.044
-275.413	-18.981	0.204	0.126
-274.399	31.437	-0.121	-0.104
-273.384	134.908	0.148	-0.192
-272.370	25.599	0.295	-0.245
-271.355	-100.468	0.217	0.054
-270.340	19.466	-0.274	-0.219
-269.326	-171.265	0.188	0.006
-268.311	315.177	0.116	-0.217
-267.297	-11.441	0.154	-0.101
-266.282	800.000	0.079	0.288
-265.267	-28.139	-0.224	-0.129
-264.253	333.581	-0.051	-0.098
-263.238	-23.015	0.375	-0.225
-262.224	-73.475	0.333	0.121
-261.209	228.398	-0.143	0.233
-260.195	-34.708	-0.155	-0.084
-259.180	-47.005	0.203	0.099
-258.165	228.450	-0.038	0.062
-257.151	155.443	0.152	0.209
-256.136	25.929	-0.130	-0.108
-255.122	143.718	-0.124	-0.164
-254.107	38.583	0.096	0.085
-253.092	35.402	-0.196	0.171
-252.078	571.775	0.109	0.264
-251.063	51.116	0.109	-0.103
-250.049	535.894	-0.093	-0.220
-249.034	-200.000	0.015	0.152
-248.019	-99.185	0.315	-0.079
-247.005	-200.000	-0.013	-0.135
-245.990	-200.000	0.017	-0.147
-244.976	-62.403	-0.455	0.188
-243.961	-136.935	0.269	0.031
-242.946	35.205	-0.322	-0.281
-241.932	24.612	-0.200	-0.165
-240.917	73.250	-0.306	0.318
-239.903	-200.000	-0.040	0.191
-238.888	16.348	0.155	0.122
-237.873	-104.679	0.390	0.089
-236.859	507.933	0.055	0.128
-235.844	135.957	0.201	0.260
-234.830	-29.438	0.199	-0.113
-233.815	-164.135	-0.340	-0.016
-232.800	546.720	0.111	0.263
-231.786	-90.961	0.095	-0.027
-230.771	-48.234	0.093	-0.045
-229.757	292.823	0.023	0.041
-228.742	495.412	0.095	-0.217
-227.727	800.000	-0.074	0.204
-226.713	160.787	-0.227	0.315
-225.698	135.860	0.152	-0.197
-224.684	-47.279	-0.393	0.191
-223.669	-129.292	-0.335	0.046
-222.655	-44.496	0.233	-0.116
-221.640	-107.922	0.239	-0.052
-220.625	257.486	-0.058	-0.099
-219.611	-42.510	0.300	0.152
-218.596	-120.533	0.085	0.014
-217.582	55.519	0.227	0.218
-216.567	214.578	0.136	-0.215
-215.552	-36.282	0.070	0.037
-214.538	-200.000	0.027	-0.331
-213.523	482.419	-0.010	-0.023
-212.509	-140.533	-0.220	-0.023
-211.494	-78.222	-0.263	0.090
-210.479	-104.011	0.158	-0.037
-209.465	102.118	-0.096	-0.111
-208.450	-200.000	0.037	-0.516
-207.436	-20.822	-0.251	0.153
-206.421	251.555	-0.027	0.045
-205.406	150.790	-0.117	-0.157
-204.392	-39.351	-0.311	0.162
-203.377	-200.000	-0.028	-0.153
-202.363	630.804	0.132	-0.332
-201.348	47.634	0.220	-0.204
-200.333	-200.000	0.025	0.389
-199.319	-56.909	-0.056	0.024
-198.304	800.000	-0.033	0.132
-197.290	-59.855	-0.167	0.071
-196.275	-138.630	-0.156	0.017
-195.260	-80.563	-0.211	-0.070
-194.246	-200.000	0.068	-0.316
-193.231	-200.000	0.008	0.208
-192.217	-145.647	0.161	0.014
-191.202	-164.676	-0.193	-0.009
-190.187	60.695	0.037	-0.037
-189.173	-200.000	-0.002	-0.152
-188.158	644.184	0.058	0.147
-187.144	-75.017	0.092	0.033
-186.129	-200.000	-0.021	0.384
-185.114	89.863	-0.137	0.152
-184.100	201.736	0.104	0.159
-183.085	-175.279	0.090	-0.002
-182.071	-13.096	0.444	0.286
-181.056	7.571	-0.210	0.156
-180.042	-200.000	0.054	-0.250
-179.027	-41.150	-0.200	-0.102
-178.012	-118.599	-0.108	0.019
-176.998	-200.000	0.034	0.224
-175.983	-200.000	-0.004	-0.201
-174.969	329.395	-0.041	0.079
-173.954	618.456	-0.038	-0.094
-172.939	-122.075	-0.091	-0.015
-171.925	-17.536	0.445	0.278
-170.910	-200.000	0.071	-0.445
-169.896	-85.331	0.282	0.087
-168.881	800.000	0.076	-0.250
-167.866	-127.204	0.292	-0.042
-166.852	-128.887	0.362	0.050
-165.837	-11.584	0.147	-0.096
-164.823	148.590	0.140	-0.187
-163.808	150.977	0.154	0.207
-162.793	34.551	0.139	-0.121
-161.779	-40.557	0.228	0.117
-160.764	-107.044	0.328	0.072
-159.750	-146.937	-0.135	-0.012
-158.735	-33.319	0.217	0.119
-157.720	-164.583	-0.094	0.004
-156.706	-24.170	0.082	-0.049
-155.691	71.279	0.407	-0.419
-154.677	-70.163	-0.095	-0.036
-153.662	800.000	-0.056	0.188
-152.647	12.311	0.299	0.228
-151.633	394.692	0.092	0.190
-150.618	800.000	-0.065	-0.192
-149.604	-200.000	-0.015	0.140
-148.589	266.180	-0.107	0.186
-147.574	-200.000	-0.033	0.170
-146.560	-178.316	0.380	0.009
-145.545	-186.350	-0.172	-0.002
-144.531	74.424	0.182	0.190
-143.516	-6.661	0.010	-0.007
-142.502	16.457	0.263	0.206
-141.487	-7.398	0.073	-0.049
-140.472	800.000	0.057	-0.216
-139.458	317.581	0.049	-0.092
-138.443	133.593	-0.166	-0.213
-137.429	-200.000	-0.219	-0.001
-136.414	-200.000	0.041	0.207
-135.399	428.631	0.102	0.219
-134.385	-127.116	-0.196	0.028
-133.370	-160.921	-0.047	0.002
-132.356	-45.424	0.203	-0.100
-131.341	47.459	0.186	0.172
-130.326	-200.000	0.047	0.296
-129.312	-146.072	-0.113	0.010
-128.297	-145.238	-0.336	-0.030
-127.283	-63.763	-0.154	-0.063
-126.268	676.665	0.147	-0.379
-125.253	-87.503	0.311	-0.093
-124.239	-123.336	-0.087	0.014
-123.224	-89.218	0.218	0.064
-122.210	-105.405	0.132	-0.030
-121.195	800.000	0.085	0.302
-120.180	-133.951	-0.202	-0.025
-119.166	-200.000	-0.013	0.091
-118.151	47.097	0.225	-0.208
-117.137	-200.000	-0.007	-0.401
-116.122	423.115	0.054	0.115
-115.107	-200.000	0.008	-0.142
-114.093	297.377	0.092	-0.167
-113.078	-61.206	-0.330	0.138
-112.064	388.956	0.055	0.112
-111.049	724.980	-0.149	-0.394
-110.034	800.000	-0.111	-0.324
-109.020	-66.686	-0.327	0.128
-108.005	36.656	0.372	0.325
-106.991	335.966	-0.032	-0.062
-105.976	31.952	-0.392	-0.334
-104.962	-0.112	0.232	-0.164
-103.947	-157.023	0.379	0.023
-102.932	-38.438	0.147	-0.077
-101.918	-45.547	0.358	0.175
-100.903	800.000	0.041	0.173
-99.889	-97.392	0.244	0.063
-98.874	-200.000	-0.019	0.467
-97.859	562.563	-0.067	0.161
-96.845	-200.000	0.004	0.131
-95.830	-200.000	-0.026	0.126
-94.816	-160.616	-0.206	0.011
-93.801	-168.919	0.118	0.004
-92.786	800.000	0.069	0.256
-91.772	213.137	-0.137	0.214
-90.757	736.565	-0.042	0.113
-89.743	800.000	0.093	0.273
-88.728	64.484	-0.320	0.319
-87.713	52.663	0.155	-0.146
-86.699	6.836	0.123	0.091
-85.684	800.000	0.044	-0.147
-84.670	-134.604	0.472	0.057
-83.655	-200.000	0.035	-0.262
-82.640	163.622	-0.150	-0.208
-81.626	-116.610	-0.119	-0.022
-80.611	-85.457	0.071	0.022
-79.597	541.453	0.110	-0.259
-78.582	800.000	0.041	0.160
-77.567	-200.000	-0.058	0.352
-76.553	-15.112	-0.189	0.120
-75.538	93.027	0.126	0.141
-74.524	-97.341	0.181	-0.047
-73.509	-34.419	0.205	-0.111
-72.494	-106.187	0.227	0.050
-71.480	580.058	0.201	0.486
-70.465	-144.082	-0.326	-0.030
-69.451	121.784	-0.075	0.092
-68.436	-67.104	-0.085	0.033
-67.422	800.000	0.121	0.383
-66.407	-130.771	0.239	-0.032
-65.392	220.367	0.129	-0.204
-64.378	800.000	-0.071	-0.303
-63.363	235.143	0.224	-0.365
-62.349	67.742	0.088	0.089
-61.334	67.393	-0.942	-0.950
-60.319	306.151	0.309	0.569
-59.305	-200.000	0.074	-0.731
-58.290	104.735	0.876	1.020
-57.276	778.665	0.571	1.543
-56.261	-200.000	97.584	607.768
-55.246	608.243	1398.992	3448.328
-54.232	189.042	2597.623	3842.290
-53.217	107.809	2307.912	2715.136
-52.203	38.528	2064.057	1817.742
-51.188	33.551	1978.558	1697.942
-50.173	32.074	1959.728	1668.597
-49.159	47.166	2011.079	1848.562
-48.144	48.623	2028.231	1877.383
-47.130	34.156	1989.550	1712.548
-46.115	31.864	1979.044	1682.894
-45.100	31.769	1976.099	1679.467
-44.086	31.648	1974.234	1676.736
-43.071	31.593	1971.292	1673.676
-42.057	31.556	1969.233	1671.538
-41.042	31.596	1967.893	1670.690
-40.027	31.695	1965.382	1669.376
-39.013	31.694	1962.693	1667.011
-37.998	31.724	1961.432	1666.142
-36.984	31.718	1959.862	1664.692
-35.969	31.709	1958.252	1663.175
-34.954	31.770	1956.116	1661.835
-33.940	31.781	1954.786	1660.743
-32.925	31.825	1953.043	1659.585
-31.911	31.817	1951.501	1658.137
-30.896	31.867	1949.696	1656.975
-29.881	31.824	1948.458	1655.480
-28.867	31.885	1946.988	1654.698
-27.852	31.824	1944.818	1652.254
-26.838	31.849	1942.657	1650.571
-25.823	31.861	1940.761	1649.001
-24.809	31.822	1939.728	1647.719
-23.794	31.879	1937.453	1646.215
-22.779	31.806	1936.225	1644.474
-21.765	31.801	1934.706	1643.073
-20.750	31.778	1933.030	1641.381
-19.736	31.816	1931.431	1640.294
-18.721	31.841	1929.755	1639.018
-17.706	31.821	1928.212	1637.468
-16.692	31.926	1926.503	1636.869
-15.677	31.737	1925.589	1634.377
-14.663	31.820	1923.656	1633.398
-13.648	31.896	1922.451	1632.972
-12.633	31.881	1920.933	1631.486
-11.619	31.873	1919.895	1630.473
-10.604	31.870	1918.152	1628.899
-9.590	31.811	1916.728	1627.117
-8.575	31.797	1915.369	1625.771
-7.560	31.892	1913.972	1625.350
-6.546	31.837	1912.706	1623.730
-5.531	31.808	1911.565	1622.446
-4.517	31.729	1910.983	1621.203
-3.502	31.844	1909.006	1620.456
-2.487	31.821	1908.453	1619.729
-1.473	31.853	1907.231	1618.903
-0.458	31.817	1902.657	1614.648
0.556	29.252	1882.917	1586.535
1.571	25.100	1863.434	1534.524
2.586	21.063	1885.557	1517.560
3.600	20.007	1920.807	1536.430
4.615	19.708	1915.996	1529.798
5.629	15.030	1816.683	1411.029
6.644	5.436	1697.202	1242.216
7.659	0.270	1658.704	1173.758
8.673	-0.242	1656.215	1167.913
9.688	-0.287	1654.763	1166.432
10.702	-0.344	1652.611	1164.374
11.717	-0.317	1649.342	1162.175
12.731	-0.141	1648.430	1162.793
13.746	5.883	1663.093	1219.978
14.761	15.217	1683.862	1308.287
15.775	19.486	1691.063	1347.158
16.790	19.981	1690.656	1350.577
17.804	20.043	1690.660	1350.948
18.819	20.074	1689.669	1350.273
19.834	20.097	1688.882	1349.709
20.848	20.390	1688.565	1351.613
21.863	20.431	1687.235	1350.746
22.877	20.376	1686.571	1349.671
23.892	20.446	1685.902	1349.558
24.907	20.443	1685.163	1348.823
25.921	20.440	1683.366	1347.240
26.936	20.373	1683.073	1346.374
27.950	20.437	1681.808	1345.735
28.965	20.483	1680.917	1345.258
29.980	20.427	1679.892	1343.890
30.994	20.422	1678.822	1342.876
32.009	20.371	1677.808	1341.549
33.023	20.445	1676.755	1341.163
34.038	20.407	1675.713	1339.916
35.053	20.435	1674.586	1339.108
36.067	20.334	1673.950	1337.708
37.082	20.363	1673.141	1337.166
38.096	20.480	1671.617	1336.726
39.111	20.393	1670.945	1335.402
40.126	20.387	1670.309	1334.727
41.140	20.366	1669.717	1333.979
42.155	20.446	1668.245	1333.296
43.169	20.382	1667.221	1331.869
44.184	20.354	1666.248	1330.761
45.199	20.433	1664.796	1330.089
46.213	20.405	1663.853	1329.003
47.228	20.415	1662.487	1327.871
48.242	20.371	1661.429	1326.570
49.257	20.390	1660.180	1325.601
50.271	20.373	1658.907	1324.343
51.286	20.423	1657.756	1323.683
52.301	20.402	1656.242	1322.197
53.315	20.350	1655.294	1320.928
54.330	20.377	1653.631	1319.692
55.344	20.397	1651.776	1318.247
56.359	20.363	1651.000	1317.251
57.374	20.407	1649.900	1316.587
58.388	20.377	1649.082	1315.592
59.403	20.387	1648.032	1314.715
60.417	20.357	1646.362	1313.042
61.432	20.299	1645.757	1312.005
62.447	20.455	1644.053	1311.705
63.461	20.400	1643.514	1310.744
64.476	20.446	1642.476	1310.147
65.490	20.453	1641.295	1309.144
66.505	20.399	1640.270	1307.806
67.520	20.402	1638.901	1306.620
68.534	20.374	1638.436	1305.924
69.549	20.492	1636.756	1305.353
70.563	20.461	1635.702	1304.161
71.578	20.516	1634.373	1303.400
72.593	20.479	1633.652	1302.433
73.607	20.540	1632.492	1301.853
74.622	20.432	1632.011	1300.542
75.636	20.456	1630.777	1299.621
76.651	20.431	1630.118	1298.796
77.666	20.425	1629.041	1297.778
78.680	20.379	1628.622	1296.984
79.695	20.372	1627.378	1295.831
80.709	20.393	1626.323	1295.034
81.724	20.430	1625.767	1294.747
82.739	20.454	1624.523	1293.823
83.753	20.433	1623.477	1292.718
84.768	20.436	1622.355	1291.732
85.782	20.491	1621.367	1291.240
86.797	20.435	1620.704	1290.181
87.812	20.465	1619.076	1288.999
88.826	20.477	1618.122	1288.214
89.841	20.397	1617.648	1287.129
90.855	20.353	1616.724	1285.954
91.870	20.399	1615.338	1285.074
92.884	20.392	1614.672	1284.383
93.899	20.431	1613.726	1283.806
94.914	20.441	1612.753	1282.991
95.928	20.468	1610.849	1281.559
96.943	20.501	1609.737	1280.807
97.957	20.464	1608.369	1279.335
98.972	20.483	1606.934	1278.215
99.987	20.510	1605.692	1277.311
101.001	20.437	1604.234	1275.507
102.016	20.364	1602.802	1273.715
103.030	20.526	1601.481	1273.747
104.045	20.505	1599.939	1272.250
105.060	20.452	1598.952	1270.961
106.074	20.407	1597.300	1269.209
107.089	20.487	1596.130	1268.751
108.103	20.455	1594.811	1267.360
109.118	20.514	1593.261	1266.444
110.133	20.449	1592.587	1265.324
111.147	20.587	1590.868	1264.846
112.162	20.511	1589.456	1263.063
113.176	20.578	1587.924	1262.218
114.191	20.530	1587.253	1261.226
115.206	20.460	1586.368	1259.904
116.220	20.541	1584.624	1258.996
117.235	20.524	1583.347	1257.742
118.249	20.521	1582.241	1256.734
119.264	20.480	1580.781	1255.169
120.279	20.461	1579.580	1253.967
121.293	20.513	1578.396	1253.290
122.308	20.543	1577.401	1252.605
123.322	20.531	1575.408	1250.823
124.337	20.637	1574.240	1250.547
125.352	20.510	1573.080	1248.603
126.366	20.548	1572.529	1248.328
127.381	20.603	1571.026	1247.420
128.395	20.631	1569.956	1246.664
129.410	20.641	1568.778	1245.690
130.424	20.641	1567.319	1244.416
131.439	20.541	1566.906	1243.263
132.454	20.636	1565.068	1242.379
133.468	20.572	1563.665	1240.694
134.483	20.565	1562.035	1239.242
135.497	20.610	1561.075	1238.691
136.512	20.660	1559.387	1237.597
137.527	20.515	1559.157	1236.278
138.541	20.594	1557.394	1235.329
139.556	20.574	1556.291	1234.205
140.570	20.662	1554.821	1233.550
141.585	20.668	1553.278	1232.261
142.600	20.662	1551.962	1231.064
143.614	20.581	1551.359	1229.903
144.629	20.637	1549.913	1229.043
145.643	20.591	1548.728	1227.674
146.658	20.581	1547.195	1226.281
147.673	20.438	1546.673	1224.745
148.687	20.557	1544.949	1224.115
149.702	20.554	1544.162	1223.356
150.716	20.474	1542.525	1221.390
151.731	20.594	1541.394	1221.234
152.746	20.613	1540.175	1220.288
153.760	20.638	1538.949	1219.387
154.775	20.630	1537.963	1218.443
155.789	20.665	1536.667	1217.548
156.804	20.658	1535.740	1216.662
157.819	20.552	1534.661	1214.957
158.833	20.624	1533.316	1214.291
159.848	20.620	1532.367	1213.404
160.862	20.650	1531.494	1212.810
161.877	20.703	1530.103	1211.970
162.892	20.592	1529.601	1210.691
163.906	20.664	1528.466	1210.187
164.921	20.616	1527.493	1208.978
165.935	20.678	1526.788	1208.747
166.950	20.628	1525.739	1207.458
167.964	20.693	1524.611	1206.914
168.979	20.588	1523.848	1205.469
169.994	20.721	1522.576	1205.283
171.008	20.720	1521.779	1204.533
172.023	20.701	1520.414	1203.218
173.037	20.732	1519.688	1202.752
174.052	20.777	1518.364	1201.904
175.067	20.715	1517.693	1200.843
176.081	20.687	1516.906	1199.917
177.096	20.778	1515.374	1199.228
178.110	20.774	1514.165	1198.137
179.125	20.768	1513.486	1197.451
180.140	20.699	1512.740	1196.285
181.154	20.715	1512.084	1195.768
182.169	20.720	1511.114	1194.927
183.183	20.764	1509.778	1194.072
184.198	20.781	1509.168	1193.598
185.213	20.751	1507.853	1192.245
186.227	20.767	1507.004	1191.581
187.242	20.829	1506.455	1191.465
188.256	20.806	1505.703	1190.606
189.271	20.804	1504.559	1189.582
190.286	20.783	1503.812	1188.744
191.300	20.827	1502.593	1187.975
192.315	20.745	1502.147	1186.956
193.329	20.796	1501.129	1186.393
194.344	20.719	1500.317	1185.126
195.359	20.879	1499.190	1185.218
196.373	20.816	1498.263	1183.951
197.388	20.871	1497.468	1183.592
198.402	20.848	1496.680	1182.708
199.417	20.805	1495.300	1181.221
200.432	20.723	1494.746	1180.123
201.446	20.808	1493.831	1179.875
202.461	20.737	1493.132	1178.737
203.475	20.839	1491.696	1178.191
204.490	20.844	1490.885	1177.477
205.504	20.701	1490.679	1176.244
206.519	20.716	1489.916	1175.640
207.534	20.843	1488.652	1175.397
208.548	20.893	1487.596	1174.791
209.563	20.872	1486.502	1173.688
210.577	20.926	1485.959	1173.516
211.592	20.858	1484.901	1172.119
212.607	20.915	1484.387	1171.995
213.621	20.873	1483.846	1171.181
214.636	20.925	1483.116	1170.849
215.650	20.916	1482.263	1170.012
216.665	20.991	1481.167	1169.547
217.680	20.915	1480.503	1168.408
218.694	20.905	1479.696	1167.603
219.709	20.982	1478.569	1167.125
220.723	20.953	1478.094	1166.452
221.738	20.968	1476.916	1165.523
222.753	20.957	1475.868	1164.515
223.767	20.880	1475.319	1163.465
224.782	20.848	1474.353	1162.389
225.796	20.979	1473.384	1162.396
226.811	20.996	1472.835	1161.972
227.826	21.033	1471.945	1161.411
228.840	21.042	1470.998	1160.625
229.855	21.009	1470.683	1160.050
230.869	21.081	1469.539	1159.528
231.884	20.953	1469.082	1158.213
232.899	20.945	1467.593	1156.884
233.913	20.989	1466.792	1156.438
234.928	21.049	1465.465	1155.687
235.942	21.017	1464.382	1154.523
236.957	21.104	1464.168	1154.823
237.972	21.151	1462.573	1153.777
238.986	21.061	1461.612	1152.324
240.001	21.119	1460.777	1151.942
241.015	21.003	1460.194	1150.618
242.030	21.225	1458.519	1150.659
243.045	21.083	1458.223	1149.388
244.059	21.154	1457.385	1149.094
245.074	21.094	1456.751	1148.094
246.088	21.174	1455.562	1147.586
247.103	21.068	1455.107	1146.426
248.117	21.203	1454.080	1146.404
249.132	21.215	1453.501	1145.926
250.147	21.149	1452.759	1144.805
251.161	21.216	1451.864	1144.439
252.176	21.190	1451.642	1143.989
253.190	21.295	1450.142	1143.397
254.205	21.171	1449.755	1142.174
255.220	21.159	1449.039	1141.433
256.234	21.204	1448.114	1140.899
257.249	21.307	1447.176	1140.731
258.263	21.297	1446.404	1139.957
259.278	21.224	1445.653	1138.786
260.293	21.283	1444.683	1138.309
261.307	21.321	1443.914	1137.844
262.322	21.269	1443.498	1137.078
263.336	21.386	1442.627	1137.053
264.351	21.324	1441.616	1135.756
265.366	21.364	1440.278	1134.862
266.380	21.321	1439.591	1133.938
267.395	21.326	1438.799	1133.248
268.409	21.243	1438.302	1132.217
269.424	21.339	1437.261	1131.919
270.439	21.299	1436.566	1131.013
271.453	21.314	1435.339	1130.046
272.468	21.367	1434.505	1129.629
273.482	21.372	1434.327	1129.424
274.497	21.277	1433.351	1127.943
275.512	21.339	1432.363	1127.462
276.526	21.373	1431.432	1126.847
277.541	21.469	1430.925	1126.966
278.555	21.410	1429.960	1125.726
279.570	21.422	1429.598	1125.424
280.585	21.432	1428.469	1124.499
281.599	21.380	1427.645	1123.414
282.614	21.432	1426.369	1122.649
283.628	21.416	1425.575	1121.816
284.643	21.449	1424.773	1121.297
285.657	21.466	1423.970	1120.679
286.672	21.456	1423.521	1120.158
287.687	21.437	1422.385	1119.048
288.701	21.455	1420.964	1117.942
289.716	21.514	1420.254	1117.661
290.730	21.499	1419.725	1117.053
291.745	21.622	1418.821	1117.030
292.760	21.585	1418.055	1116.090
293.774	21.526	1417.112	1114.872
294.789	21.600	1415.852	1114.255
295.803	21.530	1415.595	1113.509
296.818	21.548	1414.314	1112.515
297.833	21.544	1413.867	1112.043
298.847	21.615	1413.144	1111.821
299.862	21.673	1412.174	1111.331
300.876	21.588	1411.555	1110.204
301.891	21.631	1410.284	1109.381
302.906	21.662	1409.647	1108.978
303.920	21.642	1409.261	1108.446
304.935	21.643	1408.642	1107.869
305.949	21.721	1407.734	1107.553
306.964	21.616	1406.891	1106.125
307.979	21.639	1405.952	1105.438
308.993	21.737	1404.945	1105.162
310.008	21.737	1404.201	1104.484
311.022	21.693	1403.389	1103.467
312.037	21.734	1402.425	1102.868
313.052	21.768	1401.188	1102.012
314.066	21.753	1400.912	1101.607
315.081	21.801	1399.383	1100.607
316.095	21.759	1398.711	1099.717
317.110	21.654	1398.298	1098.638
318.125	21.791	1397.109	1098.462
319.139	21.799	1396.068	1097.598
320.154	21.803	1395.266	1096.898
321.168	21.805	1394.534	1096.234
322.183	21.728	1393.907	1095.165
323.197	21.849	1392.584	1094.781
324.212	21.855	1391.584	1093.939
325.227	21.783	1390.985	1092.920
326.241	21.811	1390.253	1092.422
327.256	21.845	1389.681	1092.088
328.270	21.871	1388.997	1091.617
329.285	21.939	1387.715	1090.937
330.300	21.902	1387.005	1090.051
331.314	21.824	1386.169	1088.815
332.329	21.896	1385.566	1088.692
333.343	21.961	1384.482	1088.146
334.358	21.931	1384.189	1087.632
335.373	22.042	1383.029	1087.309
336.387	22.001	1382.756	1086.749
337.402	22.078	1381.910	1086.464
338.416	21.938	1381.506	1085.184
339.431	21.987	1380.916	1084.928
340.446	22.137	1379.880	1084.943
341.460	21.997	1379.208	1083.457
342.475	22.080	1378.178	1083.059
343.489	22.104	1377.276	1082.407
344.504	22.114	1376.209	1081.533
345.519	22.135	1375.245	1080.809
346.533	22.012	1374.813	1079.613
347.548	22.092	1374.051	1079.416
348.562	22.097	1373.062	1078.571
349.577	22.116	1372.269	1077.972
350.592	22.117	1371.592	1077.348
351.606	22.105	1370.485	1076.311
352.621	22.086	1369.484	1075.313
353.635	22.209	1368.564	1075.247
354.650	22.129	1367.925	1074.160
355.665	22.193	1366.944	1073.687
356.679	22.250	1366.003	1073.198
357.694	22.197	1365.042	1072.028
358.708	22.326	1363.510	1071.515
359.723	22.311	1362.912	1070.857
360.738	22.121	1361.846	1068.772
361.752	22.085	1361.351	1068.072
362.767	22.172	1360.069	1067.500
363.781	22.272	1359.113	1067.260
364.796	22.242	1358.411	1066.435
365.810	22.237	1357.822	1065.848
366.825	22.304	1356.937	1065.461
367.840	22.261	1356.409	1064.691
368.854	22.270	1355.768	1064.153
369.869	22.326	1355.242	1063.981
370.883	22.293	1354.963	1063.468
371.898	22.297	1353.431	1062.194
372.913	22.401	1352.518	1062.013
373.927	22.455	1351.820	1061.697
374.942	22.295	1351.517	1060.401
375.956	22.317	1350.579	1059.703
376.971	22.369	1349.682	1059.217
377.986	22.459	1348.488	1058.727
379.000	22.390	1348.317	1058.085
380.015	22.380	1347.777	1057.508
381.029	22.433	1346.738	1056.920
382.044	22.464	1346.182	1056.572
383.059	22.448	1345.095	1055.529
384.073	22.396	1344.642	1054.770
385.088	22.452	1344.203	1054.668
386.102	22.508	1343.301	1054.202
387.117	22.490	1343.240	1053.952
388.132	22.517	1342.255	1053.252
389.146	22.451	1341.700	1052.326
390.161	22.572	1340.742	1052.204
391.175	22.573	1340.209	1051.701
392.190	22.638	1339.161	1051.169
393.205	22.571	1338.736	1050.348
394.219	22.581	1337.290	1049.179
395.234	22.580	1336.212	1048.234
396.248	22.521	1335.572	1047.286
397.263	22.548	1334.639	1046.623
398.278	22.696	1333.170	1046.258
399.292	22.707	1332.345	1045.581
400.307	22.782	1330.951	1044.840
401.321	22.760	1330.176	1044.009
402.336	22.716	1329.486	1043.115
403.350	22.687	1328.303	1041.924
404.365	22.629	1327.505	1040.865
405.380	22.846	1326.597	1041.337
406.394	22.753	1325.840	1040.103
407.409	22.807	1325.049	1039.709
408.423	22.764	1324.803	1039.169
409.438	22.847	1324.101	1039.015
410.453	22.830	1323.259	1038.165
411.467	22.926	1322.402	1037.966
412.482	22.932	1321.344	1037.074
413.496	22.860	1320.898	1036.211
414.511	22.909	1320.380	1036.000
415.526	22.841	1319.462	1034.793
416.540	22.896	1318.622	1034.363
417.555	22.888	1317.954	1033.701
418.569	22.865	1317.458	1033.083
419.584	22.753	1317.343	1032.246
420.599	22.879	1316.279	1032.059
421.613	138.454	1430.145	1795.193
422.628	134.616	1446.662	1795.281
