DTS Sentinel unit serial number:	SN413079Multiplexer serial number:	ORYXHardware model number:	OX4-SRSoftware version number:	ORYX F/W v4.00 Oryx Data Collector v3.7.2.0data status	okinstallation	princeton_trtdifferential loss correction	single-endedforward channel	channel 4reverse channel	N/Adate	2019/09/11time	12:23:10forward acquisition time	60.00reverse acquisition time	0.00gamma	496.2192k internal	0.2287k external	0.2287temperature offset calibration	0.9966default loss term (dB/km)	0.3790temperature slope calibration	1.0000multiplexer offset coefficient	1.0000multiplexer slope coefficient	1.0000fibre end	0.00T internal ref (°C)	40.20T ext. ref 1 (°C)	0.22T ext. ref 2 (°C)	38.34length (m)	temperature (°C)	Stokes	anti-Stokes-747.200	-14.544	-0.098	-0.065
-746.185	-100.855	-0.323	-0.082
-745.171	550.127	-0.086	0.213
-744.156	-155.551	-0.132	-0.009
-743.142	-1.541	-0.152	-0.110
-742.127	-87.357	-0.063	0.019
-741.112	-168.356	0.318	-0.013
-740.098	-200.000	-0.057	0.432
-739.083	174.455	-0.195	0.290
-738.069	-200.000	-0.078	0.366
-737.054	224.365	-0.089	-0.148
-736.039	-85.390	0.069	-0.022
-735.025	-42.165	0.222	-0.117
-734.010	63.799	-0.078	-0.081
-732.996	-200.000	-0.051	0.261
-731.981	653.687	-0.086	-0.225
-730.966	105.290	0.118	0.143
-729.952	458.836	-0.115	0.262
-728.937	-200.000	0.016	0.199
-727.923	148.742	-0.261	-0.361
-726.908	-102.524	-0.261	0.064
-725.894	-200.000	-0.051	-0.270
-724.879	644.089	-0.123	-0.322
-723.864	-200.000	0.013	0.138
-722.850	800.000	-0.050	0.193
-721.835	-107.021	-0.073	0.016
-720.821	-77.097	0.065	-0.023
-719.806	-171.280	0.255	0.009
-718.791	336.386	0.035	-0.070
-717.777	59.669	0.101	-0.102
-716.762	-151.159	-0.192	-0.015
-715.748	-15.317	-0.239	0.157
-714.733	-55.967	-0.138	-0.063
-713.718	150.559	0.106	-0.147
-712.704	98.328	0.133	-0.158
-711.689	6.193	0.244	0.185
-710.675	-150.997	0.202	-0.016
-709.660	-103.007	-0.380	0.092
-708.645	-168.782	-0.140	0.005
-707.631	138.666	-0.101	0.135
-706.616	800.000	0.088	0.314
-705.602	211.232	0.133	-0.214
-704.587	-88.919	0.432	0.131
-703.572	12.770	-0.283	-0.224
-702.558	117.575	0.200	-0.252
-701.543	-98.705	0.166	0.043
-700.529	800.000	-0.012	-0.035
-699.514	-30.452	0.111	0.065
-698.499	-69.249	-0.257	-0.101
-697.485	-88.791	-0.230	-0.070
-696.470	8.997	0.303	0.234
-695.456	-99.371	0.139	0.036
-694.441	800.000	0.042	-0.122
-693.426	-121.349	-0.252	-0.043
-692.412	-121.703	-0.138	-0.023
-691.397	-200.000	-0.020	0.104
-690.383	2.465	0.122	-0.090
-689.368	333.982	-0.057	0.113
-688.354	85.764	0.073	-0.082
-687.339	-200.000	0.016	-0.171
-686.324	-103.538	-0.318	0.077
-685.310	-98.767	-0.213	0.056
-684.295	-154.840	-0.264	-0.018
-683.281	-200.000	-0.012	-0.105
-682.266	-140.004	0.182	-0.020
-681.251	36.366	0.070	0.063
-680.237	-59.150	-0.296	-0.131
-679.222	-59.848	-0.299	0.131
-678.208	-110.161	-0.379	-0.081
-677.193	43.222	0.120	-0.112
-676.178	-152.355	-0.085	0.006
-675.164	-86.300	-0.213	0.067
-674.149	-90.397	-0.324	-0.096
-673.135	55.427	-0.284	-0.281
-672.120	-184.490	-0.289	0.005
-671.105	-200.000	0.046	-0.331
-670.091	-200.000	-0.020	-0.142
-669.076	-168.638	-0.115	0.004
-668.062	-81.559	0.197	-0.066
-667.047	5.415	-0.100	-0.076
-666.032	516.549	0.057	0.136
-665.018	58.682	-0.261	-0.262
-664.003	707.886	-0.080	-0.216
-662.989	-167.485	-0.200	0.008
-661.974	-200.000	0.043	0.276
-660.959	-200.000	-0.010	-0.133
-659.945	-200.000	-0.028	0.172
-658.930	464.928	0.139	-0.318
-657.916	-200.000	-0.002	0.212
-656.901	-88.695	-0.186	-0.057
-655.886	800.000	0.043	0.147
-654.872	14.098	0.055	0.043
-653.857	-87.261	-0.401	-0.125
-652.843	-180.338	0.478	-0.010
-651.828	-132.010	0.159	0.021
-650.814	58.383	-0.226	-0.227
-649.799	-200.000	0.001	-0.149
-648.784	84.711	-0.131	0.147
-647.770	11.162	-0.076	-0.059
-646.755	-151.435	0.113	-0.009
-645.741	314.850	-0.161	0.309
-644.726	-56.280	0.259	-0.118
-643.711	-52.480	-0.114	0.054
-642.697	181.438	0.119	-0.179
-641.682	136.656	0.103	0.137
-640.668	-200.000	-0.025	-0.457
-639.653	25.801	-0.302	-0.257
-638.638	14.586	0.134	0.107
-637.624	800.000	-0.020	0.067
-636.609	84.909	0.171	0.191
-635.595	743.997	0.127	0.350
-634.580	215.727	0.107	-0.174
-633.565	27.617	-0.080	-0.069
-632.551	55.217	-0.138	0.137
-631.536	61.696	0.074	0.076
-630.522	800.000	0.079	0.261
-629.507	800.000	0.107	0.361
-628.492	435.980	0.138	0.307
-627.478	800.000	0.036	-0.122
-626.463	-100.897	-0.316	-0.079
-625.449	-164.543	0.142	-0.007
-624.434	42.005	0.104	-0.096
-623.419	668.227	-0.071	0.187
-622.405	71.611	-0.111	0.118
-621.390	62.607	0.011	-0.011
-620.376	408.560	-0.134	0.289
-619.361	-8.830	-0.210	0.144
-618.346	773.350	-0.078	-0.217
-617.332	800.000	-0.054	0.194
-616.317	-70.235	-0.120	-0.046
-615.303	800.000	0.072	0.263
-614.288	118.624	-0.165	0.208
-613.273	77.839	0.264	-0.288
-612.259	-200.000	0.007	0.311
-611.244	-71.337	-0.066	0.025
-610.230	-200.000	0.017	-0.119
-609.215	237.653	-0.206	0.348
-608.201	165.349	0.062	-0.089
-607.186	546.035	0.068	0.166
-606.171	-31.201	0.282	0.162
-605.157	-39.858	-0.185	0.098
-604.142	800.000	0.144	-0.485
-603.128	5.902	-0.149	-0.113
-602.113	286.785	0.249	0.459
-601.098	73.644	-0.137	-0.146
-600.084	-27.313	-0.476	-0.283
-599.069	102.694	0.079	0.094
-598.055	209.463	-0.089	0.143
-597.040	-96.990	-0.236	0.063
-596.025	-42.343	-0.189	0.098
-595.011	800.000	0.057	-0.164
-593.996	-35.815	-0.189	0.105
-592.982	-4.001	-0.181	-0.128
-591.967	-49.680	-0.091	0.044
-590.952	-39.011	-0.248	-0.133
-589.938	473.192	0.113	-0.260
-588.923	-56.461	0.279	0.126
-587.909	-200.000	-0.054	0.340
-586.894	-80.310	0.175	-0.060
-585.879	-200.000	-0.000	0.375
-584.865	225.124	-0.158	-0.261
-583.850	-200.000	-0.023	-0.165
-582.836	-81.197	0.268	-0.090
-581.821	-7.106	0.273	-0.189
-580.806	-45.324	-0.227	-0.115
-579.792	-32.988	-0.069	-0.039
-578.777	-136.997	-0.077	0.009
-577.763	800.000	0.013	-0.048
-576.748	225.843	-0.169	0.278
-575.733	85.813	0.124	0.139
-574.719	-200.000	0.034	-0.240
-573.704	361.510	-0.179	-0.367
-572.690	-74.562	-0.092	-0.034
-571.675	-200.000	-0.073	0.350
-570.661	800.000	-0.030	0.133
-569.646	800.000	0.050	0.142
-568.631	-137.900	-0.334	-0.038
-567.617	37.740	0.046	-0.041
-566.602	-200.000	0.016	0.220
-565.588	43.508	-0.021	0.019
-564.573	800.000	-0.151	-0.507
-563.558	421.355	0.038	0.084
-562.544	106.298	-0.093	0.113
-561.529	-170.222	0.181	-0.006
-560.515	659.268	0.027	0.070
-559.500	-37.184	-0.168	0.091
-558.485	-27.280	-0.050	0.030
-557.471	-107.312	0.137	0.031
-556.456	140.625	0.086	0.115
-555.442	-200.000	-0.033	0.309
-554.427	-146.441	-0.113	-0.010
-553.412	52.932	0.318	-0.310
-552.398	635.584	0.122	-0.316
-551.383	108.893	0.172	-0.210
-550.369	-200.000	0.056	-0.264
-549.354	-8.665	-0.240	0.164
-548.339	800.000	0.056	0.174
-547.325	800.000	-0.077	-0.331
-546.310	-35.340	-0.279	-0.155
-545.296	324.363	-0.161	-0.313
-544.281	233.298	0.163	0.273
-543.266	-200.000	0.033	0.169
-542.252	206.947	-0.212	-0.337
-541.237	110.633	-0.256	-0.313
-540.223	681.259	0.037	-0.099
-539.208	-90.746	0.184	0.054
-538.193	142.369	-0.252	-0.340
-537.179	-194.749	0.053	-0.000
-536.164	-81.245	-0.164	-0.055
-535.150	141.283	-0.103	-0.138
-534.135	-200.000	-0.023	-0.227
-533.121	552.465	-0.130	0.317
-532.106	22.265	-0.309	-0.257
-531.091	-35.436	-0.312	0.173
-530.077	-86.244	0.319	0.100
-529.062	-91.305	-0.177	0.051
-528.048	-200.000	0.008	-0.104
-527.033	-200.000	0.057	0.364
-526.018	-78.368	-0.225	-0.078
-525.004	-54.734	0.221	-0.102
-523.989	-200.000	0.002	-0.125
-522.975	22.615	-0.198	-0.165
-521.960	-132.403	-0.205	-0.027
-520.945	17.032	0.204	-0.165
-519.931	25.123	0.286	0.241
-518.916	682.203	-0.067	0.177
-517.902	-68.883	-0.316	-0.124
-516.887	-200.000	-0.002	0.164
-515.872	-117.443	0.050	0.009
-514.858	-200.000	-0.009	0.218
-513.843	-200.000	-0.062	0.292
-512.829	243.082	0.170	0.290
-511.814	800.000	0.062	-0.243
-510.799	-92.032	-0.307	0.088
-509.785	800.000	-0.059	0.206
-508.770	287.616	0.108	0.198
-507.756	-200.000	0.051	0.298
-506.741	-8.845	0.279	-0.190
-505.726	-200.000	0.037	-0.176
-504.712	85.472	0.233	-0.260
-503.697	490.920	-0.112	-0.261
-502.683	118.136	-0.266	-0.333
-501.668	-115.113	-0.101	0.019
-500.653	-200.000	0.178	-0.001
-499.639	-2.685	-0.187	0.133
-498.624	-200.000	-0.028	-0.184
-497.610	-200.000	0.007	-0.103
-496.595	-33.879	0.196	-0.110
-495.581	322.731	0.066	-0.127
-494.566	-24.163	0.209	-0.127
-493.551	-103.725	-0.329	-0.078
-492.537	133.771	0.143	-0.189
-491.522	-114.518	0.331	-0.065
-490.508	-134.049	0.119	0.015
-489.493	-200.000	-0.001	0.429
-488.478	-44.496	0.065	0.033
-487.464	429.645	-0.127	-0.279
-486.449	-200.000	-0.029	-0.438
-485.435	152.579	0.094	-0.130
-484.420	-67.630	0.273	-0.108
-483.405	64.285	0.194	-0.199
-482.391	-66.447	-0.283	0.114
-481.376	60.425	0.329	-0.331
-480.362	138.774	0.237	0.316
-479.347	-95.638	-0.287	0.078
-478.332	20.310	-0.077	-0.063
-477.318	105.289	-0.071	0.085
-476.303	266.874	-0.102	0.181
-475.289	754.057	0.068	-0.187
-474.274	-200.000	-0.093	0.572
-473.259	800.000	0.096	0.294
-472.245	167.987	0.030	0.043
-471.230	-157.312	-0.252	0.015
-470.216	-69.569	-0.192	0.075
-469.201	-27.570	0.397	-0.234
-468.186	416.333	-0.107	-0.232
-467.172	-15.897	0.216	0.140
-466.157	-41.047	-0.213	-0.112
-465.143	-138.435	0.430	0.048
-464.128	-88.369	0.250	0.076
-463.113	-200.000	0.018	-0.284
-462.099	800.000	0.042	0.135
-461.084	-111.281	0.287	-0.060
-460.070	69.477	-0.190	-0.198
-459.055	-52.846	-0.143	0.067
-458.040	-107.911	0.313	0.069
-457.026	-74.957	0.253	-0.092
-456.011	464.297	0.077	-0.174
-454.997	-200.000	0.014	0.206
-453.982	-185.263	0.313	0.005
-452.968	350.997	0.075	-0.151
-451.953	202.595	0.142	-0.223
-450.938	19.199	-0.249	-0.203
-449.924	73.062	0.096	0.102
-448.909	-158.722	-0.129	0.007
-447.895	800.000	-0.052	0.215
-446.880	-200.000	-0.019	0.242
-445.865	-128.796	0.333	-0.048
-444.851	94.682	0.086	-0.099
-443.836	92.566	-0.185	0.211
-442.822	-118.987	0.201	0.036
-441.807	27.115	0.102	-0.087
-440.792	80.020	0.029	-0.032
-439.778	54.964	0.142	0.139
-438.763	800.000	-0.057	0.178
-437.749	-39.181	-0.280	0.149
-436.734	800.000	0.082	-0.238
-435.719	-93.949	-0.161	0.045
-434.705	395.776	-0.074	0.156
-433.690	-144.874	0.128	-0.012
-432.676	-200.000	-0.026	-0.389
-431.661	-7.136	-0.290	-0.200
-430.646	74.423	-0.085	0.091
-429.632	-35.684	0.118	-0.065
-428.617	800.000	0.102	-0.338
-427.603	22.850	-0.155	-0.128
-426.588	-200.000	-0.008	-0.204
-425.573	800.000	-0.040	0.150
-424.559	-131.269	-0.137	0.018
-423.544	-70.458	0.109	0.042
-422.530	521.574	0.078	0.184
-421.515	800.000	0.012	0.037
-420.500	240.160	-0.008	-0.014
-419.486	-76.607	0.179	-0.064
-418.471	73.956	-0.131	0.140
-417.457	28.866	0.111	-0.096
-416.442	-117.570	0.403	-0.074
-415.428	131.166	-0.043	0.056
-414.413	-137.168	-0.319	-0.037
-413.398	-102.086	-0.142	0.035
-412.384	-200.000	-0.054	-0.260
-411.369	171.982	0.200	0.291
-410.355	121.672	0.121	-0.153
-409.340	-165.688	0.075	0.003
-408.325	169.034	-0.080	-0.115
-407.311	-155.824	-0.103	-0.007
-406.296	-97.165	-0.079	0.021
-405.282	-111.573	0.305	0.063
-404.267	41.577	0.368	0.337
-403.252	54.132	-0.164	-0.160
-402.238	-41.883	-0.219	0.114
-401.223	-200.000	0.047	-0.265
-400.209	-82.348	0.374	-0.123
-399.194	800.000	-0.041	-0.133
-398.179	-111.755	0.260	0.053
-397.165	148.718	-0.137	0.187
-396.150	-90.507	0.144	-0.042
-395.136	-14.244	0.217	-0.142
-394.121	-64.083	-0.448	0.185
-393.106	260.698	0.069	-0.120
-392.092	119.295	-0.125	-0.156
-391.077	-114.241	-0.168	0.033
-390.063	308.334	0.060	-0.114
-389.048	-200.000	-0.003	0.069
-388.033	-43.999	0.262	0.133
-387.019	286.067	-0.053	0.097
-386.004	-48.769	0.184	-0.089
-384.990	-200.000	0.025	-0.404
-383.975	-75.494	-0.090	0.032
-382.960	-200.000	0.060	0.349
-381.946	134.679	0.218	0.286
-380.931	-58.428	-0.367	0.161
-379.917	-200.000	-0.010	0.100
-378.902	-200.000	0.004	-0.036
-377.888	-61.578	-0.221	0.094
-376.873	-114.420	0.402	-0.078
-375.858	800.000	0.086	0.280
-374.844	-72.724	0.134	0.050
-373.829	19.150	0.092	0.075
-372.815	-200.000	-0.389	-0.000
-371.800	800.000	0.134	-0.478
-370.785	72.072	-0.170	-0.179
-369.771	-25.892	-0.151	-0.090
-368.756	235.733	-0.070	0.118
-367.742	-68.583	0.066	0.026
-366.727	-59.486	-0.368	-0.160
-365.712	-72.470	-0.251	0.094
-364.698	-200.000	-0.020	0.237
-363.683	-200.000	0.012	0.135
-362.669	-68.013	-0.371	-0.146
-361.654	200.588	0.043	0.066
-360.639	78.371	0.199	-0.215
-359.625	123.340	0.271	0.344
-358.610	571.701	0.089	0.220
-357.596	-200.000	-0.013	0.069
-356.581	800.000	0.166	-0.466
-355.566	-160.715	0.402	0.022
-354.552	800.000	-0.063	0.235
-353.537	-46.906	0.180	-0.089
-352.523	-200.000	-0.036	0.210
-351.508	800.000	0.021	-0.090
-350.493	4.844	0.090	-0.067
-349.479	593.994	0.162	0.404
-348.464	265.246	-0.097	-0.171
-347.450	-123.407	0.167	0.027
-346.435	-106.728	-0.163	-0.037
-345.420	-9.606	-0.142	0.096
-344.406	-73.117	-0.323	0.120
-343.391	-162.495	0.093	0.005
-342.377	-87.048	0.122	-0.038
-341.362	-196.819	0.055	0.000
-340.348	38.594	-0.346	0.312
-339.333	622.951	0.062	0.156
-338.318	-148.479	0.245	-0.020
-337.304	-102.161	0.174	0.042
-336.289	39.288	0.259	0.234
-335.275	69.229	-0.017	0.018
-334.260	171.916	0.134	-0.194
-333.245	-36.544	0.084	-0.046
-332.231	302.225	-0.137	-0.256
-331.216	319.611	-0.113	-0.215
-330.202	-0.206	0.154	-0.110
-329.187	22.882	-0.079	-0.065
-328.172	-95.609	-0.158	-0.043
-327.158	413.737	0.099	-0.213
-326.143	19.656	0.340	0.276
-325.129	-27.230	0.147	0.086
-324.114	-35.220	-0.104	0.057
-323.099	-47.938	-0.126	-0.062
-322.085	224.294	0.155	0.252
-321.070	-92.088	-0.231	-0.066
-320.056	7.381	0.262	0.197
-319.041	-61.123	-0.196	-0.083
-318.026	-78.503	0.307	-0.106
-317.012	-150.773	0.378	0.029
-315.997	2.729	0.204	0.150
-314.983	-71.690	0.182	0.069
-313.968	-86.409	0.212	-0.066
-312.953	-5.591	-0.138	0.096
-311.939	-200.000	0.054	-0.356
-310.924	33.251	0.059	-0.051
-309.910	-200.000	-0.015	-0.107
-308.895	274.981	0.088	0.158
-307.880	-80.097	0.117	0.040
-306.866	-120.674	-0.395	0.067
-305.851	-24.271	0.057	-0.034
-304.837	-10.724	-0.107	-0.072
-303.822	-111.463	0.104	0.021
-302.807	-200.000	-0.005	0.068
-301.793	-200.000	0.025	0.206
-300.778	-48.395	-0.068	0.033
-299.764	-167.214	0.175	0.007
-298.749	260.534	0.049	-0.086
-297.735	45.709	-0.108	0.100
-296.720	-16.250	0.124	-0.079
-295.705	-52.909	0.080	-0.037
-294.691	800.000	-0.095	-0.338
-293.676	-200.000	-0.502	-0.001
-292.662	9.128	0.349	0.266
-291.647	357.792	-0.009	0.017
-290.632	468.635	0.131	-0.296
-289.618	-200.000	0.012	-0.222
-288.603	-46.054	0.180	0.089
-287.589	-22.486	-0.218	-0.133
-286.574	-46.671	0.130	0.064
-285.559	-2.608	0.049	-0.034
-284.545	800.000	0.102	-0.350
-283.530	-18.001	-0.213	0.134
-282.516	800.000	-0.014	0.051
-281.501	800.000	0.053	0.222
-280.486	104.865	0.161	0.192
-279.472	12.512	0.118	0.091
-278.457	800.000	-0.045	0.167
-277.443	-28.148	-0.167	-0.097
-276.428	51.148	-0.199	-0.190
-275.413	800.000	0.082	-0.256
-274.399	61.223	0.360	-0.360
-273.384	-48.681	-0.294	-0.142
-272.370	800.000	0.122	0.361
-271.355	-200.000	-0.024	-0.319
-270.340	-93.629	-0.129	-0.036
-269.326	-155.247	-0.189	-0.012
-268.311	-200.000	-0.070	0.324
-267.297	-167.007	0.079	-0.003
-266.282	-134.148	-0.154	0.019
-265.267	742.041	-0.111	-0.300
-264.253	215.264	0.122	-0.195
-263.238	-93.706	-0.406	-0.113
-262.224	-17.537	0.108	-0.068
-261.209	-200.000	-0.001	-0.045
-260.195	112.004	0.057	0.070
-259.180	96.796	0.136	-0.157
-258.165	-179.136	0.102	0.002
-257.151	-200.000	-0.010	-0.218
-256.136	150.309	0.185	-0.253
-255.122	-6.621	0.087	-0.060
-254.107	-15.890	0.154	-0.099
-253.092	-147.110	0.298	0.026
-252.078	-200.000	-0.032	-0.183
-251.063	651.866	0.052	0.134
-250.049	-73.008	0.129	0.048
-249.034	366.046	-0.231	0.469
-248.019	-118.231	-0.082	-0.015
-247.005	800.000	0.010	0.033
-245.990	-174.912	-0.181	0.005
-244.976	405.501	0.076	-0.161
-243.961	48.461	-0.163	0.154
-242.946	355.322	-0.068	0.136
-241.932	389.701	0.091	0.191
-240.917	800.000	0.029	0.109
-239.903	-129.220	-0.132	-0.018
-238.888	-128.793	-0.523	-0.074
-237.873	360.315	-0.082	0.164
-236.859	-200.000	-0.051	-0.266
-235.844	-200.000	-0.021	-0.186
-234.830	-33.845	-0.049	-0.027
-233.815	-162.089	-0.289	0.015
-232.800	128.665	-0.095	0.122
-231.786	15.383	-0.125	0.098
-230.771	113.532	0.095	0.116
-229.757	56.335	-0.081	-0.079
-228.742	-97.332	-0.195	0.051
-227.727	800.000	0.052	-0.158
-226.713	-10.944	0.052	0.034
-225.698	137.479	0.169	0.223
-224.684	-129.458	0.173	-0.024
-223.669	-112.421	-0.114	-0.023
-222.655	182.773	-0.173	0.256
-221.640	-85.535	-0.501	-0.157
-220.625	800.000	-0.139	-0.497
-219.611	610.119	0.120	0.300
-218.596	-200.000	0.034	-0.240
-217.582	-94.014	0.223	-0.062
-216.567	-47.579	0.401	0.196
-215.552	-33.307	-0.265	-0.147
-214.538	-127.831	0.327	0.047
-213.523	-89.993	-0.299	0.088
-212.509	-200.000	-0.009	0.111
-211.494	-200.000	-0.018	0.129
-210.479	310.045	0.146	0.275
-209.465	-68.761	-0.159	-0.062
-208.450	765.862	-0.017	-0.047
-207.436	190.873	0.191	0.289
-206.421	800.000	-0.075	-0.279
-205.406	-134.993	-0.296	-0.036
-204.392	-146.534	-0.261	-0.023
-203.377	-14.430	-0.213	0.138
-202.363	-103.192	0.218	-0.052
-201.348	-30.410	-0.187	-0.107
-200.333	30.300	0.273	-0.234
-199.319	-200.000	0.015	0.175
-198.304	125.121	-0.070	0.089
-197.290	-122.107	0.223	-0.037
-196.275	-61.927	0.170	0.071
-195.260	120.775	0.114	-0.143
-194.246	8.916	0.086	-0.065
-193.231	-200.000	0.014	0.169
-192.217	-135.384	-0.189	0.023
-191.202	-121.647	0.224	0.037
-190.187	-63.907	0.111	-0.045
-189.173	309.308	-0.143	-0.269
-188.158	260.830	0.031	0.053
-187.144	158.901	0.064	-0.089
-186.129	-55.430	-0.338	-0.152
-185.114	-75.830	0.219	0.078
-184.100	-182.994	-0.324	0.006
-183.085	214.379	-0.062	-0.098
-182.071	-123.557	0.428	0.068
-181.056	-17.591	-0.061	-0.039
-180.042	-100.184	0.138	0.034
-179.027	65.148	0.161	0.163
-178.012	136.606	-0.144	-0.189
-176.998	47.980	-0.144	0.135
-175.983	-139.430	0.114	-0.012
-174.969	-200.000	-0.009	-0.081
-173.954	-104.324	-0.321	0.075
-172.939	-124.760	-0.105	-0.016
-171.925	26.954	-0.231	0.195
-170.910	-71.362	-0.387	-0.146
-169.896	-126.247	0.018	0.003
-168.881	-200.000	-0.004	0.140
-167.866	153.133	0.201	0.276
-166.852	-71.821	0.211	-0.079
-165.837	-158.135	-0.528	0.031
-164.823	-200.000	-0.025	-0.131
-163.808	514.266	-0.045	-0.106
-162.793	800.000	-0.096	0.420
-161.779	-36.039	0.010	-0.005
-160.764	-200.000	-0.027	0.235
-159.750	-87.400	0.259	0.079
-158.735	202.923	0.251	0.389
-157.720	-112.123	0.109	-0.022
-156.706	7.439	0.055	-0.041
-155.691	-74.579	-0.234	-0.084
-154.677	-146.035	0.302	0.027
-153.662	-83.439	-0.066	-0.021
-152.647	58.794	-0.135	0.133
-151.633	-93.638	-0.138	-0.038
-150.618	261.970	-0.164	-0.285
-149.604	210.810	0.064	0.100
-148.589	-8.556	0.123	0.083
-147.574	-70.867	-0.147	-0.056
-146.560	-198.162	-0.315	0.002
-145.545	131.765	0.021	-0.027
-144.531	22.513	0.171	-0.140
-143.516	800.000	0.046	0.134
-142.502	-200.000	-0.024	0.118
-141.487	594.852	-0.068	0.169
-140.472	-200.000	-0.034	0.317
-139.458	-195.271	0.194	-0.001
-138.443	-67.278	0.324	0.128
-137.429	-200.000	-0.008	0.107
-136.414	-123.341	-0.036	-0.006
-135.399	-200.000	0.049	-0.326
-134.385	-81.443	-0.594	-0.196
-133.370	-158.162	-0.129	0.008
-132.356	406.197	-0.038	0.081
-131.341	-200.000	0.003	0.088
-130.326	132.899	-0.084	-0.108
-129.312	-200.000	0.039	0.243
-128.297	-200.000	0.000	-0.209
-127.283	246.239	0.091	0.154
-126.268	10.342	-0.319	-0.243
-125.253	-86.042	-0.126	-0.039
-124.239	-132.626	0.226	0.029
-123.224	180.505	0.233	-0.343
-122.210	-200.000	-0.003	0.165
-121.195	51.010	0.094	0.089
-120.180	450.240	0.092	-0.203
-119.166	800.000	-0.081	-0.283
-118.151	-200.000	0.173	-0.000
-117.137	344.664	0.068	0.134
-116.122	20.647	-0.118	0.095
-115.107	-26.697	-0.114	-0.067
-114.093	-200.000	-0.017	0.093
-113.078	-89.755	-0.071	0.021
-112.064	110.022	-0.044	-0.053
-111.049	368.271	0.081	0.165
-110.034	-51.480	0.324	0.152
-109.020	185.824	0.132	0.196
-108.005	-180.706	0.236	-0.005
-106.991	-45.988	-0.152	0.075
-105.976	-134.159	0.208	-0.026
-104.962	3.035	0.081	0.059
-103.947	-27.689	0.072	0.042
-102.932	-117.095	-0.139	0.025
-101.918	254.363	0.097	0.166
-100.903	-200.000	0.021	0.369
-99.889	441.189	-0.145	0.318
-98.874	71.520	0.156	0.162
-97.859	175.888	0.129	0.187
-96.845	-49.416	0.015	-0.007
-95.830	800.000	-0.055	0.170
-94.816	50.682	-0.132	0.125
-93.801	-200.000	-0.055	0.357
-92.786	-200.000	-0.010	0.084
-91.772	800.000	0.038	-0.131
-90.757	-200.000	-0.002	0.191
-89.743	624.050	-0.150	0.377
-88.728	615.245	-0.181	0.453
-87.713	-13.150	0.139	0.090
-86.699	-104.321	-0.332	0.077
-85.684	-62.186	0.125	0.052
-84.670	423.742	-0.092	-0.197
-83.655	109.789	-0.113	-0.135
-82.640	-200.000	-0.021	0.150
-81.626	97.829	0.266	0.306
-80.611	-200.000	0.007	-0.080
-79.597	-147.536	0.261	0.022
-78.582	-136.504	-0.253	-0.029
-77.567	-172.592	-0.270	0.009
-76.553	-2.333	0.150	0.105
-75.538	-200.000	-0.035	-0.544
-74.524	-148.169	0.156	0.013
-73.509	-95.017	-0.222	0.060
-72.494	-200.000	0.038	-0.319
-71.480	-200.000	-0.005	-0.085
-70.465	-200.000	-0.067	0.347
-69.451	125.840	-0.180	0.227
-68.436	800.000	0.023	-0.087
-67.422	0.195	0.227	0.162
-66.407	18.289	-0.099	-0.079
-65.392	-173.562	0.318	0.010
-64.378	-30.268	0.331	-0.188
-63.363	0.573	-0.259	0.185
-62.349	-5.115	0.338	0.232
-61.334	-52.118	-0.843	-0.391
-60.319	-200.000	0.094	0.509
-59.305	-200.000	0.117	-0.580
-58.290	170.353	0.531	0.760
-57.276	461.520	0.682	1.519
-56.261	-200.000	75.191	497.336
-55.246	514.897	1336.732	3116.254
-54.232	141.048	2599.293	3432.408
-53.217	105.815	2399.548	2834.547
-52.203	47.015	2136.978	1984.708
-51.188	42.013	2043.432	1851.643
-50.173	40.248	2024.318	1818.055
-49.159	52.302	2062.898	1964.528
-48.144	56.940	2083.056	2026.598
-47.130	42.897	2047.381	1863.110
-46.115	40.218	2036.143	1828.107
-45.100	40.082	2033.404	1824.326
-44.086	40.102	2030.679	1821.990
-43.071	40.076	2028.437	1819.666
-42.057	40.101	2026.296	1817.901
-41.042	40.116	2024.536	1816.395
-40.027	40.141	2022.171	1814.430
-39.013	40.090	2019.857	1811.814
-37.998	40.138	2017.955	1810.477
-36.984	40.074	2016.909	1808.873
-35.969	40.154	2014.797	1807.647
-34.954	40.127	2013.260	1805.947
-33.940	40.136	2011.626	1804.488
-32.925	40.134	2009.398	1802.397
-31.911	40.206	2007.497	1801.281
-30.896	40.172	2006.594	1800.090
-29.881	40.116	2004.865	1797.957
-28.867	40.220	2002.797	1796.977
-27.852	40.231	2001.079	1795.458
-26.838	40.218	1998.621	1793.070
-25.823	40.289	1997.146	1792.317
-24.809	40.264	1995.952	1790.945
-23.794	40.284	1993.899	1789.218
-22.779	40.284	1991.758	1787.221
-21.765	40.168	1990.273	1784.772
-20.750	40.202	1988.620	1783.526
-19.736	40.153	1987.228	1781.768
-18.721	40.248	1985.245	1780.771
-17.706	40.253	1984.047	1779.674
-16.692	40.257	1982.140	1777.924
-15.677	40.264	1980.286	1776.255
-14.663	40.285	1979.015	1775.230
-13.648	40.262	1978.142	1774.171
-12.633	40.304	1976.056	1772.604
-11.619	40.203	1975.367	1771.014
-10.604	40.225	1973.414	1769.388
-9.590	40.233	1972.284	1768.383
-8.575	40.235	1970.687	1766.898
-7.560	40.230	1969.643	1765.847
-6.546	40.233	1967.934	1764.267
-5.531	40.271	1966.672	1763.406
-4.517	40.234	1965.793	1762.223
-3.502	40.302	1964.706	1761.778
-2.487	40.224	1962.931	1759.425
-1.473	40.272	1961.522	1758.514
-0.458	40.358	1958.546	1756.546
0.556	38.731	1939.463	1733.692
1.571	35.168	1920.500	1685.320
2.586	31.219	1942.936	1669.624
3.600	29.905	1981.003	1690.195
4.615	28.721	1977.281	1676.075
5.629	21.104	1868.249	1517.538
6.644	7.757	1734.707	1300.455
7.659	0.949	1689.673	1212.210
8.673	0.328	1685.607	1204.230
9.688	0.271	1683.744	1202.335
10.702	0.195	1682.615	1200.813
11.717	0.066	1679.911	1197.754
12.731	0.482	1679.220	1200.462
13.746	7.924	1698.714	1274.016
14.761	19.134	1724.092	1383.513
15.775	23.512	1731.183	1424.327
16.790	23.668	1730.629	1424.994
17.804	23.731	1729.718	1424.625
18.819	23.697	1728.681	1423.374
19.834	23.777	1728.271	1423.551
20.848	24.056	1727.423	1424.961
21.863	24.003	1726.577	1423.707
22.877	23.929	1725.943	1422.471
23.892	24.035	1724.746	1422.203
24.907	24.021	1723.406	1420.862
25.921	24.082	1722.598	1420.554
26.936	24.005	1721.967	1419.292
27.950	24.001	1720.973	1418.320
28.965	24.049	1720.110	1417.864
29.980	24.040	1719.098	1416.835
30.994	24.020	1717.793	1415.475
32.009	23.988	1716.618	1414.123
33.023	24.062	1715.536	1413.695
34.038	23.995	1714.818	1412.445
35.053	24.049	1713.639	1411.777
36.067	24.072	1712.553	1410.941
37.082	24.117	1711.112	1409.984
38.096	24.097	1710.429	1409.140
39.111	24.099	1709.906	1408.600
40.126	24.066	1708.987	1407.459
41.140	23.984	1708.209	1406.048
42.155	23.990	1706.857	1404.858
43.169	23.982	1706.407	1404.298
44.184	24.044	1704.893	1403.418
45.199	24.020	1704.178	1402.514
46.213	24.028	1703.132	1401.589
47.228	23.993	1702.052	1400.303
48.242	23.972	1700.302	1398.572
49.257	24.030	1699.139	1397.953
50.271	24.107	1697.775	1397.313
51.286	24.059	1696.879	1396.072
52.301	24.059	1695.276	1394.629
53.315	24.093	1694.369	1394.025
54.330	24.050	1693.247	1392.642
55.344	24.005	1691.673	1390.877
56.359	24.130	1689.767	1390.160
57.374	24.049	1689.304	1389.025
58.388	24.130	1687.780	1388.283
59.403	24.057	1687.141	1387.064
60.417	24.032	1685.553	1385.439
61.432	24.165	1684.245	1385.278
62.447	24.132	1683.527	1384.303
63.461	24.004	1682.682	1382.491
64.476	24.076	1681.455	1381.922
65.490	24.076	1680.523	1381.035
66.505	24.143	1678.974	1380.157
67.520	24.161	1677.988	1379.365
68.534	24.081	1677.435	1378.166
69.549	24.128	1675.964	1377.203
70.563	24.048	1674.620	1375.362
71.578	24.000	1673.745	1374.149
72.593	24.031	1672.870	1373.546
73.607	24.113	1671.947	1373.296
74.622	24.140	1670.804	1372.445
75.636	24.159	1669.692	1371.562
76.651	24.165	1668.990	1370.909
77.666	24.114	1668.349	1369.866
78.680	24.113	1666.958	1368.598
79.695	24.113	1666.645	1368.221
80.709	24.014	1665.608	1366.487
81.724	24.151	1664.668	1366.646
82.739	24.088	1663.727	1365.266
83.753	24.092	1662.958	1364.549
84.768	24.092	1661.906	1363.565
85.782	24.110	1660.669	1362.566
86.797	24.071	1660.063	1361.650
87.812	24.141	1658.832	1361.050
88.826	24.202	1657.929	1360.654
89.841	24.077	1657.225	1359.001
90.855	24.085	1656.104	1358.029
91.870	24.123	1655.157	1357.421
92.884	24.050	1654.318	1356.055
93.899	24.038	1653.487	1355.166
94.914	24.089	1651.630	1353.912
95.928	24.074	1650.688	1352.906
96.943	24.202	1649.533	1352.809
97.957	24.151	1648.165	1351.177
98.972	24.116	1647.085	1349.910
99.987	24.170	1645.689	1349.054
101.001	24.131	1643.994	1347.250
102.016	24.060	1642.826	1345.639
103.030	24.090	1641.439	1344.608
104.045	24.114	1640.039	1343.525
105.060	24.112	1638.676	1342.272
106.074	24.109	1637.285	1340.994
107.089	24.117	1636.317	1340.146
108.103	24.245	1635.138	1340.022
109.118	24.216	1633.990	1338.745
110.133	24.129	1632.906	1337.083
111.147	24.132	1631.637	1335.950
112.162	24.076	1630.978	1334.871
113.176	24.269	1629.198	1334.744
114.191	24.228	1628.283	1333.568
115.206	24.187	1627.234	1332.286
116.220	24.146	1626.047	1330.886
117.235	24.223	1624.472	1330.058
118.249	24.154	1623.415	1328.555
119.264	24.161	1622.613	1327.839
120.279	24.109	1621.092	1326.086
121.293	24.230	1619.899	1325.890
122.308	24.207	1618.661	1324.592
123.322	24.253	1617.341	1323.733
124.337	24.308	1615.912	1322.860
125.352	24.214	1615.361	1321.595
126.366	24.217	1614.386	1320.697
127.381	24.314	1613.255	1320.374
128.395	24.303	1612.816	1319.816
129.410	24.299	1611.055	1318.234
130.424	24.203	1610.615	1317.042
131.439	24.286	1608.848	1316.094
132.454	24.234	1607.793	1314.731
133.468	24.269	1606.317	1313.665
134.483	24.276	1605.204	1312.693
135.497	24.324	1604.086	1312.014
136.512	24.254	1602.903	1310.415
137.527	24.327	1601.189	1309.438
138.541	24.303	1600.831	1308.850
139.556	24.291	1599.256	1307.363
140.570	24.240	1598.096	1305.921
141.585	24.314	1596.394	1304.955
142.600	24.273	1595.773	1304.035
143.614	24.263	1594.761	1303.017
144.629	24.253	1593.569	1301.857
145.643	24.268	1592.179	1300.717
146.658	24.226	1591.076	1299.393
147.673	24.253	1589.830	1298.454
148.687	24.295	1588.782	1297.795
149.702	24.291	1587.562	1296.651
150.716	24.262	1586.358	1295.344
151.731	24.153	1585.264	1293.544
152.746	24.246	1583.930	1293.014
153.760	24.218	1582.895	1291.851
154.775	24.270	1581.999	1291.387
155.789	24.423	1580.230	1290.933
156.804	24.367	1579.473	1289.793
157.819	24.306	1578.646	1288.561
158.833	24.225	1577.669	1287.068
159.848	24.210	1576.565	1285.945
160.862	24.391	1575.594	1286.344
161.877	24.408	1574.167	1285.190
162.892	24.341	1573.469	1284.026
163.906	24.337	1573.021	1283.515
164.921	24.413	1571.472	1282.687
165.935	24.348	1571.144	1281.838
166.950	24.432	1569.701	1281.144
167.964	24.367	1568.363	1279.474
168.979	24.402	1567.881	1279.222
169.994	24.369	1566.916	1278.086
171.008	24.407	1565.796	1277.327
172.023	24.330	1565.310	1276.265
173.037	24.424	1564.199	1275.921
174.052	24.342	1563.315	1274.504
175.067	24.386	1562.045	1273.671
176.081	24.476	1561.289	1273.582
177.096	24.374	1560.089	1271.762
178.110	24.432	1558.906	1271.100
179.125	24.325	1558.068	1269.543
180.140	24.414	1556.993	1269.183
181.154	24.382	1556.455	1268.406
182.169	24.399	1555.820	1267.899
183.183	24.338	1554.285	1266.103
184.198	24.428	1553.403	1265.912
185.213	24.425	1552.477	1265.020
186.227	24.504	1551.712	1264.849
187.242	24.504	1550.708	1263.918
188.256	24.603	1549.772	1263.741
189.271	24.637	1548.864	1263.128
190.286	24.543	1548.188	1261.800
191.300	24.452	1547.956	1260.856
192.315	24.549	1546.736	1260.442
193.329	24.515	1545.425	1259.017
194.344	24.468	1544.466	1257.792
195.359	24.531	1543.948	1257.707
196.373	24.490	1543.534	1256.971
197.388	24.458	1542.688	1255.941
198.402	24.365	1541.709	1254.381
199.417	24.339	1540.581	1253.173
200.432	24.384	1539.498	1252.494
201.446	24.455	1538.889	1252.386
202.461	24.488	1537.827	1251.643
203.475	24.496	1536.879	1250.817
204.490	24.470	1535.916	1249.739
205.504	24.496	1535.072	1249.124
206.519	24.444	1534.233	1247.967
207.534	24.566	1533.289	1247.941
208.548	24.633	1532.352	1247.535
209.563	24.507	1531.853	1246.138
210.577	24.560	1530.896	1245.618
211.592	24.537	1529.922	1244.555
212.607	24.529	1529.310	1243.896
213.621	24.598	1528.928	1243.952
214.636	24.630	1527.896	1243.225
215.650	24.663	1527.035	1242.643
216.665	24.692	1525.458	1241.455
217.680	24.597	1525.353	1240.595
218.694	24.579	1524.501	1239.670
219.709	24.682	1523.268	1239.274
220.723	24.497	1522.787	1237.490
221.738	24.601	1522.271	1237.683
222.753	24.598	1521.180	1236.666
223.767	24.576	1520.167	1235.576
224.782	24.580	1518.907	1234.472
225.796	24.598	1518.388	1234.068
226.811	24.625	1517.573	1233.478
227.826	24.620	1517.376	1233.177
228.840	24.686	1516.364	1232.703
229.855	24.687	1515.516	1231.907
230.869	24.635	1514.506	1230.621
231.884	24.733	1513.703	1230.537
232.899	24.626	1512.650	1228.831
233.913	24.654	1511.157	1227.707
234.928	24.655	1510.343	1226.944
235.942	24.646	1509.610	1226.179
236.957	24.760	1508.607	1226.034
237.972	24.716	1507.611	1224.814
238.986	24.696	1506.474	1223.648
240.001	24.765	1505.122	1222.910
241.015	24.780	1504.366	1222.288
242.030	24.837	1503.663	1221.998
243.045	24.898	1502.240	1221.151
244.059	24.895	1501.585	1220.491
245.074	24.838	1500.820	1219.377
246.088	24.850	1500.419	1219.022
247.103	24.923	1498.998	1218.259
248.117	24.912	1498.459	1217.635
249.132	24.902	1497.747	1216.882
250.147	24.880	1497.153	1216.138
251.161	24.920	1496.658	1215.906
252.176	24.988	1495.796	1215.553
253.190	24.974	1495.122	1214.809
254.205	24.932	1494.148	1213.620
255.220	24.875	1493.482	1212.590
256.234	24.944	1492.331	1212.011
257.249	24.922	1491.709	1211.252
258.263	25.078	1490.528	1211.237
259.278	24.933	1489.739	1209.511
260.293	25.008	1489.059	1209.359
261.307	25.063	1488.050	1208.804
262.322	25.015	1487.861	1208.221
263.336	25.023	1487.199	1207.629
264.351	24.990	1486.121	1206.425
265.366	25.062	1485.213	1206.063
266.380	25.000	1484.232	1204.744
267.395	25.049	1483.117	1204.061
268.409	25.061	1482.498	1203.533
269.424	25.005	1481.605	1202.328
270.439	25.090	1480.245	1201.685
271.453	25.092	1479.703	1201.154
272.468	25.121	1478.453	1200.229
273.482	25.018	1478.287	1199.297
274.497	24.993	1477.817	1198.639
275.512	24.977	1476.831	1197.630
276.526	25.133	1475.647	1197.606
277.541	25.186	1475.030	1197.351
278.555	25.159	1474.574	1196.693
279.570	25.192	1473.832	1196.208
280.585	25.192	1472.722	1195.202
281.599	25.131	1471.504	1193.698
282.614	25.159	1470.918	1193.305
283.628	25.119	1469.771	1192.004
284.643	25.157	1468.883	1191.430
285.657	25.156	1468.004	1190.604
286.672	25.123	1467.036	1189.499
287.687	25.135	1466.390	1188.947
288.701	25.189	1465.103	1188.156
289.716	25.177	1464.922	1187.822
290.730	25.259	1464.104	1187.600
291.745	25.221	1463.200	1186.507
292.760	25.182	1462.885	1185.888
293.774	25.229	1461.363	1184.860
294.789	25.287	1460.398	1184.360
295.803	25.241	1459.977	1183.610
296.818	25.313	1459.051	1183.226
297.833	25.284	1458.316	1182.336
298.847	25.305	1457.400	1181.630
299.862	25.372	1456.502	1181.233
300.876	25.373	1455.446	1180.278
301.891	25.331	1454.673	1179.272
302.906	25.306	1454.027	1178.482
303.920	25.288	1453.943	1178.192
304.935	25.419	1452.996	1178.176
305.949	25.469	1451.963	1177.565
306.964	25.348	1451.256	1176.092
307.979	25.351	1450.136	1175.105
308.993	25.371	1449.438	1174.564
310.008	25.422	1448.296	1173.867
311.022	25.529	1447.351	1173.693
312.037	25.415	1446.204	1171.916
313.052	25.422	1445.749	1171.490
314.066	25.500	1444.592	1170.956
315.081	25.433	1443.471	1169.513
316.095	25.462	1442.716	1168.983
317.110	25.501	1441.389	1168.061
318.125	25.451	1441.370	1167.614
319.139	25.426	1440.600	1166.724
320.154	25.495	1439.402	1166.099
321.168	25.482	1438.392	1165.091
322.183	25.612	1437.400	1165.030
323.197	25.507	1436.586	1163.589
324.212	25.463	1436.004	1162.730
325.227	25.630	1434.941	1162.843
326.241	25.449	1434.423	1161.152
327.256	25.543	1433.647	1161.025
328.270	25.638	1432.869	1160.909
329.285	25.644	1431.916	1160.070
330.300	25.633	1431.003	1159.159
331.314	25.569	1430.635	1158.346
332.329	25.708	1429.242	1158.011
333.343	25.620	1428.495	1156.733
334.358	25.594	1428.341	1156.341
335.373	25.729	1427.221	1156.202
336.387	25.713	1426.465	1155.385
337.402	25.783	1425.898	1155.269
338.416	25.674	1425.653	1154.268
339.431	25.809	1424.816	1154.356
340.446	25.655	1424.419	1152.945
341.460	25.791	1423.380	1152.872
342.475	25.739	1422.550	1151.765
343.489	25.856	1421.385	1151.471
344.504	25.863	1420.334	1150.559
345.519	25.767	1419.615	1149.263
346.533	25.814	1419.075	1149.022
347.548	25.751	1418.029	1147.677
348.562	25.889	1416.999	1147.620
349.577	25.823	1416.122	1146.384
350.592	25.830	1415.585	1145.895
351.606	25.889	1414.765	1145.505
352.621	25.797	1413.419	1143.726
353.635	25.869	1412.622	1143.437
354.650	25.874	1412.166	1143.001
355.665	25.805	1411.327	1141.784
356.679	25.856	1410.177	1141.073
357.694	25.888	1409.073	1140.282
358.708	25.987	1407.622	1139.630
359.723	26.098	1406.482	1139.313
360.738	26.012	1405.600	1137.955
361.752	26.024	1404.335	1136.906
362.767	25.909	1403.608	1135.493
363.781	26.006	1402.550	1135.143
364.796	25.993	1401.776	1134.337
365.810	25.998	1401.414	1133.975
366.825	26.022	1400.621	1133.380
367.840	25.990	1400.113	1132.667
368.854	26.092	1399.254	1132.517
369.869	26.101	1398.881	1132.171
370.883	26.099	1397.780	1131.166
371.898	26.144	1397.618	1131.219
372.913	26.103	1396.701	1130.114
373.927	26.092	1395.906	1129.307
374.942	26.052	1395.052	1128.267
375.956	26.088	1394.318	1127.796
376.971	26.134	1393.727	1127.505
377.986	26.070	1392.899	1126.338
379.000	26.195	1391.649	1126.004
380.015	26.219	1391.012	1125.539
381.029	26.116	1390.547	1124.419
382.044	26.099	1390.186	1123.927
383.059	26.136	1389.260	1123.307
384.073	26.097	1388.990	1122.749
385.088	26.208	1388.403	1122.862
386.102	26.265	1387.286	1122.211
387.117	26.336	1386.178	1121.658
388.132	26.282	1385.987	1121.073
389.146	26.213	1385.301	1119.990
390.161	26.195	1384.548	1119.170
391.175	26.386	1383.656	1119.531
392.190	26.328	1383.132	1118.652
393.205	26.215	1382.494	1117.333
394.219	26.305	1381.507	1116.999
395.234	26.325	1380.255	1116.011
396.248	26.439	1379.047	1115.637
397.263	26.364	1378.190	1114.381
398.278	26.386	1377.277	1113.677
399.292	26.464	1376.150	1113.150
400.307	26.405	1375.344	1112.039
401.321	26.454	1374.274	1111.373
402.336	26.452	1373.264	1110.448
403.350	26.344	1372.467	1109.043
404.365	26.448	1371.515	1108.813
405.380	26.394	1370.775	1107.783
406.394	26.493	1369.791	1107.496
407.409	26.659	1368.621	1107.467
408.423	26.603	1368.538	1106.962
409.438	26.598	1367.862	1106.285
410.453	26.606	1367.200	1105.703
411.467	26.622	1366.305	1104.979
412.482	26.688	1365.966	1105.007
413.496	26.610	1364.900	1103.574
414.511	26.677	1364.082	1103.219
415.526	26.654	1363.606	1102.601
416.540	26.581	1362.934	1101.512
417.555	26.561	1362.330	1100.808
418.569	26.704	1361.547	1100.943
419.584	26.587	1361.498	1100.094
420.599	26.564	1360.880	1099.358
421.613	80.183	1333.054	1384.347
422.628	81.000	1328.981	1384.472
