DTS Sentinel unit serial number:	SN413079Multiplexer serial number:	ORYXHardware model number:	OX4-SRSoftware version number:	ORYX F/W v4.00 Oryx Data Collector v3.7.2.0data status	okinstallation	princeton_trtdifferential loss correction	single-endedforward channel	channel 4reverse channel	N/Adate	2019/09/12time	04:19:11forward acquisition time	60.00reverse acquisition time	0.00gamma	496.2192k internal	0.2310k external	0.2310temperature offset calibration	1.0097default loss term (dB/km)	0.3790temperature slope calibration	1.0000multiplexer offset coefficient	1.0000multiplexer slope coefficient	1.0000fibre end	0.00T internal ref (°C)	31.77T ext. ref 1 (°C)	2.23T ext. ref 2 (°C)	25.64length (m)	temperature (°C)	Stokes	anti-Stokes-747.200	579.924	-0.074	0.183
-746.185	88.262	-0.196	0.221
-745.171	-25.138	-0.162	0.097
-744.156	84.197	0.110	0.122
-743.142	-22.543	0.108	-0.066
-742.127	-44.782	0.114	-0.058
-741.112	24.309	-0.192	-0.161
-740.098	173.751	0.114	-0.167
-739.083	-185.223	-0.362	0.006
-738.069	-200.000	-0.102	0.518
-737.054	-200.000	-0.012	0.119
-736.039	-59.824	-0.251	-0.109
-735.025	20.618	-0.133	-0.109
-734.010	-42.248	0.296	0.153
-732.996	-125.687	-0.272	-0.042
-731.981	800.000	0.011	-0.035
-730.966	190.224	-0.169	0.258
-729.952	-73.612	0.178	-0.066
-728.937	321.805	-0.101	0.195
-727.923	-97.901	-0.057	-0.015
-726.908	56.925	-0.201	0.199
-725.894	-15.061	-0.224	-0.145
-724.879	-137.012	-0.089	-0.010
-723.864	-138.472	-0.390	0.044
-722.850	-200.000	-0.026	-0.155
-721.835	800.000	0.066	-0.216
-720.821	-151.194	0.249	0.019
-719.806	-200.000	0.028	-0.275
-718.791	-200.000	0.014	-0.072
-717.777	-68.253	0.398	-0.157
-716.762	-93.512	-0.126	0.035
-715.748	33.765	-0.164	-0.145
-714.733	17.888	-0.150	0.121
-713.718	-200.000	0.030	0.177
-712.704	256.308	0.030	-0.053
-711.689	-97.366	-0.183	0.048
-710.675	-18.592	-0.249	0.158
-709.660	23.045	-0.160	-0.133
-708.645	-200.000	0.014	-0.339
-707.631	800.000	-0.143	-0.511
-706.616	-200.000	0.028	-0.275
-705.602	-200.000	0.044	-0.204
-704.587	97.535	0.199	-0.232
-703.572	-74.125	-0.118	0.043
-702.558	-200.000	0.004	-0.099
-701.543	800.000	0.074	-0.210
-700.529	-92.005	-0.525	-0.151
-699.514	-104.290	-0.220	-0.052
-698.499	-200.000	-0.011	-0.093
-697.485	677.297	0.143	-0.377
-696.470	800.000	0.053	-0.148
-695.456	125.787	-0.066	-0.085
-694.441	224.773	0.166	-0.273
-693.426	800.000	-0.028	0.104
-692.412	127.147	-0.180	-0.231
-691.397	-200.000	0.034	-0.196
-690.383	-7.296	-0.173	0.119
-689.368	73.565	0.170	0.181
-688.354	800.000	-0.100	-0.397
-687.339	-65.242	0.184	-0.075
-686.324	-200.000	0.007	-0.230
-685.310	46.226	-0.161	0.151
-684.295	20.430	-0.197	0.162
-683.281	201.746	0.088	-0.138
-682.266	596.957	0.038	-0.096
-681.251	-8.062	0.228	0.156
-680.237	-46.473	0.421	0.209
-679.222	363.440	0.135	-0.275
-678.208	-7.035	-0.134	0.092
-677.193	-145.472	-0.276	0.025
-676.178	370.534	0.087	-0.179
-675.164	307.629	-0.193	-0.365
-674.149	-134.419	0.230	0.029
-673.135	-200.000	-0.010	0.393
-672.120	288.044	0.213	-0.391
-671.105	113.584	0.287	-0.353
-670.091	128.860	-0.092	-0.118
-669.076	214.889	-0.129	0.208
-668.062	99.964	-0.032	0.038
-667.047	2.675	0.119	-0.087
-666.032	5.460	-0.293	-0.219
-665.018	-148.273	-0.087	0.007
-664.003	-82.733	0.133	0.044
-662.989	140.490	0.112	-0.150
-661.974	-38.351	0.200	-0.107
-660.959	446.059	0.017	0.038
-659.945	15.335	0.102	0.081
-658.930	-185.813	-0.174	0.003
-657.916	-200.000	-0.010	0.073
-656.901	-66.626	0.161	-0.065
-655.886	-8.663	-0.274	-0.186
-654.872	-200.000	0.020	0.155
-653.857	-20.210	0.186	0.116
-652.843	-200.000	-0.041	-0.199
-651.828	109.271	-0.126	0.152
-650.814	-127.271	-0.318	0.047
-649.799	800.000	-0.087	-0.264
-648.784	55.789	0.174	0.171
-647.770	-200.000	0.012	-0.273
-646.755	-200.000	0.003	-0.368
-645.741	259.220	-0.062	0.108
-644.726	-200.000	-0.007	-0.124
-643.711	-147.824	-0.338	-0.029
-642.697	-37.677	-0.096	-0.052
-641.682	-148.694	-0.225	-0.018
-640.668	-200.000	0.030	0.198
-639.653	12.294	-0.177	-0.137
-638.638	-194.002	-0.119	0.001
-637.624	188.093	-0.066	0.100
-636.609	328.018	0.019	-0.038
-635.595	-59.172	0.061	-0.027
-634.580	-200.000	0.006	-0.161
-633.565	428.138	-0.151	0.330
-632.551	-47.474	0.199	-0.098
-631.536	-200.000	0.006	-0.060
-630.522	-200.000	-0.005	-0.035
-629.507	-200.000	0.058	-0.340
-628.492	-200.000	-0.046	-0.213
-627.478	505.240	0.062	-0.145
-626.463	104.027	0.175	0.208
-625.449	20.782	0.059	0.049
-624.434	-99.860	0.348	0.088
-623.419	220.031	-0.071	0.115
-622.405	-200.000	-0.026	0.349
-621.390	93.271	0.100	-0.114
-620.376	10.987	-0.451	0.348
-619.361	-82.122	0.038	0.013
-618.346	-170.599	-0.092	0.003
-617.332	-24.168	0.200	0.121
-616.317	83.270	0.247	0.272
-615.303	-200.000	-0.067	0.380
-614.288	-101.146	-0.344	-0.085
-613.273	-142.226	0.324	-0.032
-612.259	11.686	-0.149	-0.116
-611.244	133.919	0.022	-0.029
-610.230	-84.720	-0.270	0.086
-609.215	-68.929	0.242	0.094
-608.201	-200.000	-0.026	0.258
-607.186	51.802	0.110	0.105
-606.171	800.000	-0.087	0.251
-605.157	-200.000	-0.003	-0.094
-604.142	243.390	0.215	-0.365
-603.128	-3.882	-0.320	-0.224
-602.113	800.000	0.029	0.091
-601.098	2.983	0.134	0.099
-600.084	211.133	-0.116	-0.185
-599.069	-8.084	0.184	-0.125
-598.055	-200.000	-0.017	0.081
-597.040	800.000	0.079	0.321
-596.025	165.872	0.114	-0.163
-595.011	-100.381	0.238	0.060
-593.996	-200.000	-0.011	-0.261
-592.982	194.390	-0.193	-0.296
-591.967	-150.040	-0.149	0.012
-590.952	92.091	-0.108	0.123
-589.938	-159.396	0.169	-0.010
-588.923	-200.000	-0.233	0.001
-587.909	-48.251	-0.208	0.101
-586.894	800.000	0.077	0.263
-585.879	-111.128	0.176	0.036
-584.865	-83.183	0.155	0.050
-583.850	800.000	0.062	-0.220
-582.836	668.859	-0.088	0.229
-581.821	455.797	-0.103	0.231
-580.806	-200.000	-0.015	-0.100
-579.792	121.516	-0.156	-0.196
-578.777	-60.825	-0.355	-0.152
-577.763	-92.499	0.328	0.093
-576.748	-136.137	-0.090	0.011
-575.733	-59.383	-0.103	-0.045
-574.719	-48.134	-0.201	0.098
-573.704	-108.958	0.149	0.032
-572.690	-141.887	0.133	0.013
-571.675	19.177	0.240	0.194
-570.661	327.375	0.126	0.243
-569.646	56.540	0.329	-0.322
-568.631	54.234	-0.092	0.089
-567.617	-160.056	0.285	0.016
-566.602	22.389	0.175	0.144
-565.588	-157.276	0.184	0.011
-564.573	123.124	0.125	0.157
-563.558	462.171	0.084	-0.190
-562.544	-119.277	0.261	-0.046
-561.529	800.000	-0.081	0.244
-560.515	-134.577	0.093	-0.011
-559.500	73.233	0.136	-0.143
-558.485	-200.000	0.007	0.230
-557.471	-11.222	0.129	-0.085
-556.456	-110.279	0.091	-0.019
-555.442	800.000	-0.092	0.333
-554.427	-89.823	-0.016	0.005
-553.412	-62.783	-0.343	0.143
-552.398	409.529	-0.089	-0.190
-551.383	800.000	-0.055	-0.165
-550.369	99.576	0.057	0.067
-549.354	800.000	0.097	0.340
-548.339	-200.000	0.057	0.260
-547.325	103.079	-0.016	-0.019
-546.310	213.232	0.094	0.150
-545.296	-200.000	-0.005	-0.267
-544.281	-124.582	0.095	0.015
-543.266	40.150	-0.114	0.104
-542.252	-150.770	0.332	0.025
-541.237	-1.420	0.084	-0.059
-540.223	-131.837	0.173	-0.023
-539.208	-24.565	-0.304	-0.183
-538.193	800.000	-0.025	-0.108
-537.179	-124.827	-0.080	0.012
-536.164	200.257	0.007	0.010
-535.150	60.452	-0.263	-0.262
-534.135	21.493	0.063	0.052
-533.121	-25.336	-0.074	0.044
-532.106	291.345	0.113	-0.207
-531.091	-82.924	0.221	-0.072
-530.077	-93.808	-0.471	-0.131
-529.062	-53.320	-0.118	0.054
-528.048	-200.000	-0.001	0.091
-527.033	800.000	0.178	-0.515
-526.018	360.753	-0.081	0.163
-525.004	-200.000	0.053	-0.243
-523.989	-200.000	0.011	-0.123
-522.975	320.678	0.027	-0.051
-521.960	-58.345	0.243	0.106
-520.945	102.466	0.017	-0.019
-519.931	800.000	0.080	-0.251
-518.916	47.236	0.144	-0.135
-517.902	-200.000	0.027	-0.133
-516.887	800.000	0.104	0.307
-515.872	-200.000	0.043	0.346
-514.858	-64.700	-0.413	0.169
-513.843	35.926	-0.049	0.044
-512.829	34.893	0.387	0.341
-511.814	-122.732	-0.044	0.007
-510.799	99.623	-0.034	0.040
-509.785	-33.985	0.179	0.099
-508.770	-23.374	0.230	-0.139
-507.756	435.481	-0.024	-0.053
-506.741	-135.544	-0.198	0.024
-505.726	-97.779	0.412	0.107
-504.712	-23.152	0.251	0.152
-503.697	32.423	-0.070	0.061
-502.683	-200.000	-0.002	-0.363
-501.668	800.000	-0.018	-0.066
-500.653	459.607	-0.101	-0.225
-499.639	223.795	-0.141	-0.229
-498.624	-22.041	0.203	-0.124
-497.610	75.180	-0.123	-0.130
-496.595	106.572	-0.088	-0.104
-495.581	800.000	-0.022	0.066
-494.566	-4.616	0.137	0.095
-493.551	446.253	-0.139	0.307
-492.537	34.610	0.180	0.158
-491.522	-200.000	-0.069	-0.477
-490.508	-200.000	-0.030	0.135
-489.493	79.675	-0.175	-0.189
-488.478	-131.732	-0.094	-0.012
-487.464	157.503	-0.072	-0.100
-486.449	60.913	0.200	0.200
-485.435	117.605	-0.054	0.066
-484.420	399.320	-0.057	-0.119
-483.405	-51.487	-0.126	0.059
-482.391	238.387	0.211	-0.351
-481.376	-200.000	-0.017	-0.107
-480.362	-27.604	-0.161	-0.094
-479.347	-200.000	0.055	-0.309
-478.332	26.275	-0.185	-0.155
-477.318	-101.815	0.393	0.096
-476.303	-114.960	0.085	-0.016
-475.289	-65.523	0.207	0.083
-474.274	800.000	-0.004	-0.017
-473.259	-39.557	0.405	-0.213
-472.245	-111.459	0.271	-0.055
-471.230	345.965	-0.171	0.338
-470.216	92.074	-0.142	-0.161
-469.201	-154.583	-0.039	0.003
-468.186	-104.107	0.318	-0.074
-467.172	-139.843	0.128	-0.014
-466.157	-200.000	-0.031	0.339
-465.143	-200.000	0.010	0.158
-464.128	130.506	-0.111	-0.143
-463.113	-80.238	0.149	0.050
-462.099	800.000	-0.056	0.243
-461.084	40.882	0.219	-0.199
-460.070	-58.415	-0.354	-0.154
-459.055	800.000	-0.028	-0.079
-458.040	-200.000	-0.096	-0.532
-457.026	192.536	0.181	-0.274
-456.011	787.379	0.149	-0.411
-454.997	43.998	0.324	-0.298
-453.982	303.515	0.297	-0.553
-452.968	158.549	-0.204	-0.284
-451.953	226.067	-0.070	0.114
-450.938	-118.413	-0.141	0.025
-449.924	-200.000	-0.040	0.193
-448.909	-200.000	0.021	-0.119
-447.895	-200.000	-0.020	0.162
-446.880	-33.194	0.198	0.110
-445.865	800.000	-0.031	-0.120
-444.851	98.429	-0.016	0.018
-443.836	-127.941	0.165	0.024
-442.822	72.073	0.221	-0.231
-441.807	-200.000	-0.019	0.128
-440.792	49.690	-0.093	-0.088
-439.778	800.000	-0.109	0.327
-438.763	701.488	-0.144	-0.381
-437.749	229.767	0.052	0.086
-436.734	176.552	-0.190	-0.277
-435.719	-136.979	-0.284	-0.033
-434.705	-161.379	-0.170	-0.009
-433.690	-123.813	0.424	0.067
-432.676	-183.381	0.318	-0.006
-431.661	5.457	-0.152	0.112
-430.646	109.616	0.104	-0.125
-429.632	-113.948	0.262	-0.051
-428.617	339.674	-0.133	-0.260
-427.603	800.000	0.057	-0.165
-426.588	-72.284	-0.171	-0.063
-425.573	-200.000	-0.001	-0.050
-424.559	-73.878	0.231	0.084
-423.544	-39.125	-0.109	-0.058
-422.530	-67.030	-0.217	0.086
-421.515	-28.631	0.156	-0.090
-420.500	422.516	-0.109	-0.234
-419.486	722.827	0.170	-0.454
-418.471	-21.598	0.155	0.095
-417.457	-119.924	-0.193	0.033
-416.442	-94.834	-0.424	-0.115
-415.428	-200.000	0.048	0.217
-414.413	-200.000	0.044	-0.196
-413.398	-4.120	-0.068	0.047
-412.384	102.056	0.128	-0.150
-411.369	4.177	-0.065	-0.047
-410.355	-200.000	0.004	-0.214
-409.340	-153.760	0.157	0.011
-408.325	765.664	-0.109	-0.296
-407.311	21.905	0.221	0.180
-406.296	800.000	0.106	0.378
-405.282	-42.898	0.235	0.120
-404.267	106.542	0.056	0.067
-403.252	-197.886	-0.228	-0.001
-402.238	496.669	-0.130	0.300
-401.223	248.780	0.077	-0.130
-400.209	-200.000	-0.025	0.195
-399.194	-200.000	0.032	0.313
-398.179	800.000	0.039	-0.125
-397.165	-54.968	0.112	0.050
-396.150	-200.000	0.084	-0.384
-395.136	800.000	-0.123	0.396
-394.121	32.336	0.138	-0.119
-393.106	123.453	0.079	0.099
-392.092	365.045	-0.072	0.144
-391.077	79.625	0.089	0.096
-390.063	-104.561	0.308	0.071
-389.048	-147.449	0.324	-0.027
-388.033	-200.000	0.033	0.228
-387.019	86.769	-0.195	0.215
-386.004	-200.000	0.003	-0.282
-384.990	800.000	0.056	-0.174
-383.975	800.000	-0.082	0.294
-382.960	38.103	0.210	0.187
-381.946	-86.810	-0.089	0.027
-380.931	-200.000	-0.011	-0.101
-379.917	-95.981	0.237	0.063
-378.902	-171.458	-0.141	0.005
-377.888	800.000	-0.030	-0.112
-376.873	-200.000	-0.025	0.134
-375.858	176.136	-0.095	-0.139
-374.844	470.029	-0.096	-0.216
-373.829	196.924	0.121	0.184
-372.815	80.913	-0.065	-0.070
-371.800	-128.549	0.332	0.047
-370.785	800.000	0.062	-0.260
-369.771	68.285	0.055	0.056
-368.756	-116.398	-0.111	-0.020
-367.742	597.404	-0.038	-0.094
-366.727	800.000	-0.065	-0.271
-365.712	-25.927	-0.118	-0.069
-364.698	-94.993	-0.165	0.045
-363.683	-104.819	0.274	0.063
-362.669	85.571	0.116	0.127
-361.654	800.000	0.122	0.530
-360.639	378.095	0.210	0.430
-359.625	-22.696	0.264	0.160
-358.610	800.000	0.054	-0.178
-357.596	6.168	-0.141	-0.105
-356.581	107.385	-0.196	-0.233
-355.566	15.801	0.230	0.181
-354.552	-200.000	0.005	-0.224
-353.537	147.988	-0.070	-0.094
-352.523	-77.363	0.310	0.108
-351.508	-11.974	0.188	0.123
-350.493	-68.415	-0.354	-0.137
-349.479	29.788	-0.070	-0.060
-348.464	-200.000	0.014	0.234
-347.450	-68.028	-0.360	0.140
-346.435	-200.000	-0.005	0.146
-345.420	132.437	-0.068	0.088
-344.406	-48.768	-0.190	-0.091
-343.391	586.618	0.175	-0.430
-342.377	342.044	-0.137	-0.268
-341.362	325.533	-0.071	0.135
-340.348	184.009	-0.170	-0.252
-339.333	147.066	-0.141	-0.189
-338.318	6.950	-0.199	0.148
-337.304	-3.809	0.251	0.174
-336.289	16.464	-0.013	-0.010
-335.275	0.651	0.159	-0.114
-334.260	102.441	0.125	-0.146
-333.245	7.672	-0.237	-0.177
-332.231	-119.998	-0.434	-0.074
-331.216	40.686	0.162	0.146
-330.202	-53.889	0.158	0.072
-329.187	-128.317	-0.276	-0.039
-328.172	-159.162	-0.164	-0.009
-327.158	-9.130	-0.249	0.166
-326.143	564.860	0.101	-0.246
-325.129	50.620	-0.336	0.318
-324.114	612.910	0.052	-0.130
-323.099	-200.000	-0.006	0.080
-322.085	-200.000	0.017	0.369
-321.070	22.823	-0.309	0.253
-320.056	432.627	-0.044	0.096
-319.041	-55.661	-0.337	0.151
-318.026	-200.000	0.027	-0.212
-317.012	-155.718	0.339	0.022
-315.997	-200.000	0.472	0.001
-314.983	800.000	-0.023	-0.077
-313.968	-74.180	0.145	-0.053
-312.953	-45.478	0.089	0.044
-311.939	800.000	0.066	-0.195
-310.924	171.911	-0.096	0.138
-309.910	296.232	0.057	-0.105
-308.895	515.849	-0.105	0.246
-307.880	800.000	-0.156	-0.484
-306.866	-116.709	-0.234	0.043
-305.851	-100.254	-0.172	0.043
-304.837	-200.000	0.051	-0.226
-303.822	635.944	-0.033	-0.085
-302.807	50.424	0.078	-0.074
-301.793	123.235	0.111	-0.138
-300.778	-50.379	0.249	0.117
-299.764	-26.132	0.168	-0.098
-298.749	2.220	-0.278	0.200
-297.735	90.541	0.101	0.113
-296.720	-147.175	-0.208	0.018
-295.705	-95.498	-0.350	-0.094
-294.691	94.759	-0.305	0.346
-293.676	-47.400	-0.136	0.066
-292.662	-44.675	0.369	-0.184
-291.647	-164.196	0.139	-0.006
-290.632	203.542	0.197	0.304
-289.618	-74.343	-0.146	-0.053
-288.603	-37.261	-0.253	-0.135
-287.589	88.151	0.253	0.280
-286.574	-82.398	-0.151	-0.049
-285.559	-102.850	-0.102	0.024
-284.545	-180.292	0.515	0.011
-283.530	70.743	-0.305	0.315
-282.516	428.311	-0.122	-0.262
-281.501	409.734	-0.051	0.108
-280.486	-200.000	-0.043	0.188
-279.472	-186.270	-0.156	-0.002
-278.457	122.156	0.078	0.097
-277.443	-91.701	-0.110	-0.031
-276.428	352.389	0.056	0.111
-275.413	800.000	-0.036	-0.104
-274.399	-200.000	-0.006	-0.095
-273.384	-200.000	-0.014	0.151
-272.370	-200.000	0.032	0.148
-271.355	86.032	-0.121	0.133
-270.340	-61.351	0.044	-0.019
-269.326	-187.840	0.105	-0.001
-268.311	91.581	0.094	-0.105
-267.297	140.633	0.196	0.259
-266.282	-200.000	-0.010	-0.220
-265.267	800.000	-0.055	0.167
-264.253	55.854	-0.124	-0.120
-263.238	-86.481	-0.511	0.156
-262.224	95.691	0.172	0.196
-261.209	-63.670	-0.201	-0.082
-260.195	-110.680	-0.201	-0.041
-259.180	35.387	0.054	0.047
-258.165	57.068	0.139	0.135
-257.151	-77.437	0.108	-0.037
-256.136	-194.062	-0.279	0.002
-255.122	-200.000	-0.005	-0.090
-254.107	-200.000	-0.045	-0.432
-253.092	-200.000	0.025	0.166
-252.078	-17.669	0.077	-0.048
-251.063	800.000	-0.053	-0.184
-250.049	-132.517	-0.178	-0.023
-249.034	4.941	-0.178	0.131
-248.019	-82.174	-0.296	-0.096
-247.005	186.156	0.079	0.117
-245.990	280.713	-0.026	0.046
-244.976	-31.667	-0.221	0.124
-243.961	19.682	-0.167	-0.133
-242.946	19.182	0.297	-0.237
-241.932	32.893	-0.114	0.098
-240.917	-103.496	0.167	0.039
-239.903	800.000	0.116	-0.344
-238.888	-74.652	0.310	-0.111
-237.873	-200.000	-0.000	0.042
-236.859	-99.907	0.303	0.075
-235.844	800.000	0.108	0.331
-234.830	254.940	0.276	0.470
-233.815	-200.000	-0.007	0.083
-232.800	62.660	0.082	0.082
-231.786	84.965	0.162	-0.177
-230.771	-109.479	-0.563	-0.118
-229.757	3.822	0.200	-0.145
-228.742	-200.000	0.013	-0.236
-227.727	-71.313	0.157	-0.059
-226.713	800.000	0.062	0.234
-225.698	-53.743	-0.404	0.184
-224.684	423.845	-0.091	0.195
-223.669	94.079	-0.223	-0.252
-222.655	-151.221	-0.314	0.023
-221.640	-99.096	-0.119	0.030
-220.625	198.484	0.201	-0.306
-219.611	-200.000	0.004	0.207
-218.596	-6.030	-0.045	0.031
-217.582	-77.391	-0.100	0.035
-216.567	-62.103	-0.019	0.008
-215.552	-93.974	0.253	0.069
-214.538	-200.000	0.050	0.000
-213.523	136.391	-0.164	0.213
-212.509	-111.801	-0.132	0.027
-211.494	-169.218	-0.183	-0.007
-210.479	60.791	-0.087	-0.086
-209.465	84.697	0.066	-0.071
-208.450	287.751	-0.023	-0.041
-207.436	800.000	0.034	0.100
-206.421	92.550	0.183	0.205
-205.406	-77.050	0.279	-0.097
-204.392	-57.287	-0.252	-0.110
-203.377	-119.699	-0.358	-0.061
-202.363	-80.846	-0.474	-0.156
-201.348	132.529	-0.157	-0.201
-200.333	-200.000	-0.052	0.236
-199.319	-200.000	-0.049	-0.313
-198.304	-43.020	0.089	-0.045
-197.290	76.550	0.037	-0.039
-196.275	55.507	0.079	-0.076
-195.260	411.669	-0.159	-0.336
-194.246	800.000	-0.095	-0.337
-193.231	150.368	-0.099	-0.133
-192.217	-200.000	-0.002	-0.133
-191.202	-200.000	-0.009	-0.068
-190.187	339.348	0.143	0.277
-189.173	-152.325	0.251	0.018
-188.158	-200.000	-0.015	0.349
-187.144	-200.000	0.004	0.165
-186.129	4.537	-0.106	0.078
-185.114	-113.066	0.153	0.030
-184.100	69.917	0.218	0.223
-183.085	-200.000	0.012	0.089
-182.071	178.379	0.125	0.182
-181.056	800.000	-0.030	0.116
-180.042	701.565	-0.062	0.161
-179.027	28.594	-0.321	0.269
-178.012	678.881	0.118	0.305
-176.998	-14.361	-0.116	-0.074
-175.983	72.566	0.154	0.160
-174.969	-83.364	0.182	-0.058
-173.954	56.660	-0.345	-0.333
-172.939	-64.499	-0.072	-0.029
-171.925	429.644	0.052	-0.111
-170.910	326.343	0.161	0.306
-169.896	800.000	0.018	0.075
-168.881	398.516	-0.097	-0.202
-167.866	-200.000	-0.010	0.279
-166.852	-84.789	0.377	-0.118
-165.837	-89.327	-0.128	-0.037
-164.823	91.819	-0.284	0.317
-163.808	155.046	-0.124	0.169
-162.793	800.000	-0.070	0.267
-161.779	64.480	-0.219	0.219
-160.764	-102.048	0.077	0.018
-159.750	-176.912	0.149	-0.004
-158.735	-101.914	-0.249	0.060
-157.720	-45.459	-0.327	0.161
-156.706	-69.915	-0.030	0.011
-155.691	72.631	0.268	-0.278
-154.677	-200.000	0.000	0.033
-153.662	-200.000	-0.033	0.151
-152.647	-56.483	-0.171	0.075
-151.633	106.486	-0.082	-0.097
-150.618	800.000	-0.023	0.094
-149.604	613.942	-0.061	-0.152
-148.589	114.632	-0.123	-0.149
-147.574	800.000	0.027	0.094
-146.560	-123.142	0.634	-0.101
-145.545	800.000	0.043	0.184
-144.531	9.783	-0.208	-0.156
-143.516	-200.000	0.004	-0.133
-142.502	352.526	0.070	0.138
-141.487	800.000	0.078	0.271
-140.472	-107.883	-0.221	0.048
-139.458	-200.000	0.006	-0.058
-138.443	-200.000	-0.020	-0.254
-137.429	-200.000	0.025	-0.274
-136.414	97.508	0.276	-0.315
-135.399	-200.000	-0.009	0.314
-134.385	-71.027	0.138	0.052
-133.370	162.799	0.127	-0.176
-132.356	-200.000	0.008	0.113
-131.341	800.000	-0.072	-0.209
-130.326	-168.123	-0.148	-0.006
-129.312	-39.562	0.206	0.107
-128.297	-28.886	0.184	-0.105
-127.283	-200.000	-0.005	-0.082
-126.268	800.000	0.077	-0.286
-125.253	-200.000	0.018	-0.123
-124.239	-131.560	-0.354	-0.046
-123.224	800.000	-0.035	0.106
-122.210	800.000	-0.101	0.290
-121.195	-2.147	0.158	0.110
-120.180	156.190	-0.164	0.225
-119.166	154.596	0.136	0.186
-118.151	119.169	0.115	-0.141
-117.137	105.932	0.130	-0.153
-116.122	-200.000	0.031	0.240
-115.107	-38.438	0.215	-0.113
-114.093	192.540	-0.137	0.205
-113.078	-200.000	0.016	-0.083
-112.064	-52.874	0.021	-0.009
-111.049	39.940	-0.116	0.104
-110.034	87.273	0.190	0.208
-109.020	-53.518	0.302	-0.137
-108.005	13.900	-0.178	0.137
-106.991	365.753	-0.097	-0.193
-105.976	800.000	0.046	-0.148
-104.962	-200.000	0.011	0.106
-103.947	510.598	0.036	0.082
-102.932	-22.223	0.151	-0.091
-101.918	184.682	-0.175	0.257
-100.903	800.000	0.039	0.166
-99.889	-98.106	0.369	0.094
-98.874	-192.461	-0.164	-0.002
-97.859	-130.216	0.177	-0.024
-96.845	-13.919	0.152	-0.097
-95.830	-156.927	-0.138	-0.008
-94.816	-101.631	0.105	0.025
-93.801	-14.282	-0.123	-0.079
-92.786	-200.000	0.001	0.155
-91.772	-200.000	0.005	-0.085
-90.757	-70.181	-0.040	0.015
-89.743	680.497	-0.077	-0.199
-88.728	-45.777	-0.101	-0.049
-87.713	-68.547	0.283	-0.108
-86.699	-200.000	0.009	-0.095
-85.684	-100.796	-0.092	0.022
-84.670	-130.257	-0.067	0.009
-83.655	99.179	-0.240	0.275
-82.640	800.000	0.133	0.445
-81.626	-101.695	0.104	-0.025
-80.611	61.326	0.481	-0.473
-79.597	160.637	-0.116	-0.160
-78.582	21.087	-0.071	-0.057
-77.567	114.530	-0.127	-0.153
-76.553	-111.336	0.200	-0.040
-75.538	800.000	-0.022	0.061
-74.524	-200.000	0.024	0.272
-73.509	800.000	-0.027	0.098
-72.494	-163.654	-0.091	0.004
-71.480	14.180	0.201	-0.155
-70.465	109.245	0.081	0.096
-69.451	-200.000	-0.070	0.478
-68.436	800.000	0.053	-0.216
-67.422	-200.000	0.041	-0.267
-66.407	181.233	0.064	0.093
-65.392	-200.000	0.047	-0.218
-64.378	299.822	0.196	-0.357
-63.363	522.064	-0.052	0.120
-62.349	-43.142	-0.087	-0.043
-61.334	-6.381	-1.179	-0.795
-60.319	52.667	0.470	0.444
-59.305	445.505	-0.543	-1.179
-58.290	167.297	0.939	1.318
-57.276	360.934	0.736	1.458
-56.261	-200.000	96.719	598.893
-55.246	541.694	1371.091	3229.606
-54.232	158.364	2557.518	3507.049
-53.217	102.526	2295.293	2652.864
-52.203	38.336	2057.748	1811.492
-51.188	33.501	1972.456	1693.265
-50.173	31.946	1953.817	1663.427
-49.159	47.265	2004.064	1844.101
-48.144	48.514	2022.259	1871.992
-47.130	34.110	1983.980	1708.359
-46.115	31.767	1973.903	1678.651
-45.100	31.673	1970.485	1674.842
-44.086	31.658	1968.249	1672.736
-43.071	31.644	1965.784	1670.456
-42.057	31.458	1964.160	1667.352
-41.042	31.660	1961.146	1666.522
-40.027	31.625	1959.379	1664.644
-39.013	31.625	1957.687	1663.143
-37.998	31.662	1955.699	1661.714
-36.984	31.656	1954.126	1660.253
-35.969	31.770	1951.560	1659.022
-34.954	31.758	1950.350	1657.819
-33.940	31.797	1949.173	1657.102
-32.925	31.851	1947.082	1655.727
-31.911	31.834	1945.642	1654.288
-30.896	31.782	1943.822	1652.223
-29.881	31.724	1942.659	1650.657
-28.867	31.863	1941.002	1650.401
-27.852	31.795	1939.112	1648.135
-26.838	31.820	1937.167	1646.639
-25.823	31.793	1935.280	1644.728
-24.809	31.766	1933.547	1642.953
-23.794	31.802	1932.198	1642.055
-22.779	31.777	1930.238	1640.105
-21.765	31.675	1929.074	1638.160
-20.750	31.724	1927.275	1637.002
-19.736	31.764	1925.889	1636.104
-18.721	31.809	1923.886	1634.727
-17.706	31.729	1922.509	1632.801
-16.692	31.799	1921.019	1632.079
-15.677	31.829	1919.534	1631.016
-14.663	31.793	1917.882	1629.229
-13.648	31.838	1916.521	1628.404
-12.633	31.807	1915.781	1627.440
-11.619	31.827	1913.771	1625.838
-10.604	31.826	1912.663	1624.828
-9.590	31.683	1912.076	1623.025
-8.575	31.831	1910.022	1622.492
-7.560	31.796	1908.651	1620.966
-6.546	31.741	1907.992	1619.863
-5.531	31.730	1906.397	1618.352
-4.517	31.754	1904.932	1617.253
-3.502	31.771	1903.839	1616.407
-2.487	31.709	1902.688	1614.834
-1.473	31.758	1902.228	1614.797
-0.458	31.769	1897.218	1610.573
0.556	31.959	1877.710	1582.642
1.571	28.273	1859.362	1536.180
2.586	25.058	1884.093	1529.099
3.600	24.625	1920.796	1554.980
4.615	24.183	1915.794	1546.959
5.629	18.568	1813.204	1417.705
6.644	8.172	1692.319	1242.463
7.659	2.655	1654.243	1172.299
8.673	2.316	1650.611	1167.035
9.688	2.365	1648.792	1166.020
10.702	2.187	1647.979	1163.987
11.717	2.062	1644.535	1160.503
12.731	2.543	1644.159	1163.790
13.746	9.480	1661.099	1228.773
14.761	20.058	1684.981	1327.829
15.775	25.598	1694.295	1377.615
16.790	26.764	1695.527	1387.425
17.804	26.878	1695.161	1387.872
18.819	26.947	1694.031	1387.358
19.834	27.013	1693.946	1387.669
20.848	27.264	1693.757	1389.303
21.863	27.367	1692.361	1388.829
22.877	27.268	1691.471	1387.218
23.892	27.275	1690.847	1386.632
24.907	27.399	1689.576	1386.416
25.921	27.379	1688.916	1385.602
26.936	27.385	1687.889	1384.682
27.950	27.330	1687.017	1383.424
28.965	27.319	1686.500	1382.789
29.980	27.368	1685.284	1382.045
30.994	27.345	1684.028	1380.720
32.009	27.304	1683.330	1379.710
33.023	27.315	1681.745	1378.378
34.038	27.354	1681.350	1378.228
35.053	27.345	1679.906	1376.855
36.067	27.371	1679.240	1376.382
37.082	27.318	1678.272	1375.068
38.096	27.311	1677.196	1374.008
39.111	27.319	1676.454	1373.338
40.126	27.348	1675.428	1372.600
41.140	27.326	1674.851	1371.836
42.155	27.355	1673.506	1370.834
43.169	27.293	1672.504	1369.426
44.184	27.301	1671.588	1368.613
45.199	27.286	1670.460	1367.456
46.213	27.330	1669.494	1366.876
47.228	27.322	1668.153	1365.595
48.242	27.358	1666.816	1364.650
49.257	27.334	1665.686	1363.426
50.271	27.354	1664.583	1362.552
51.286	27.332	1663.140	1361.085
52.301	27.313	1662.182	1360.038
53.315	27.334	1660.679	1358.840
54.330	27.350	1659.275	1357.695
55.344	27.332	1657.869	1356.286
56.359	27.342	1656.521	1355.139
57.374	27.318	1655.897	1354.331
58.388	27.363	1654.789	1353.642
59.403	27.363	1653.480	1352.447
60.417	27.348	1652.096	1351.083
61.432	27.342	1651.436	1350.386
62.447	27.307	1650.469	1349.216
63.461	27.328	1649.283	1348.283
64.476	27.322	1648.101	1347.148
65.490	27.380	1647.173	1346.700
66.505	27.445	1646.117	1346.198
67.520	27.339	1645.753	1344.998
68.534	27.338	1644.732	1344.039
69.549	27.401	1643.323	1343.235
70.563	27.414	1642.129	1342.233
71.578	27.359	1640.894	1340.697
72.593	27.295	1640.245	1339.583
73.607	27.400	1639.391	1339.534
74.622	27.344	1638.472	1338.254
75.636	27.264	1637.767	1336.975
76.651	27.404	1636.283	1336.670
77.666	27.357	1636.080	1336.044
78.680	27.365	1635.043	1335.140
79.695	27.333	1634.283	1334.163
80.709	27.388	1632.739	1333.185
81.724	27.362	1632.431	1332.630
82.739	27.409	1631.527	1332.116
83.753	27.367	1630.538	1330.884
84.768	27.330	1629.838	1329.920
85.782	27.325	1628.628	1328.780
86.797	27.375	1627.693	1328.268
87.812	27.377	1626.803	1327.439
88.826	27.316	1626.000	1326.219
89.841	27.349	1625.020	1325.545
90.855	27.419	1623.663	1324.830
91.870	27.355	1623.203	1323.874
92.884	27.373	1622.043	1322.934
93.899	27.435	1620.639	1322.129
94.914	27.414	1619.503	1320.930
95.928	27.328	1619.062	1319.830
96.943	27.397	1617.597	1319.021
97.957	27.396	1616.253	1317.796
98.972	27.435	1614.841	1316.815
99.987	27.376	1613.720	1315.353
101.001	27.561	1611.789	1315.004
102.016	27.454	1610.235	1312.843
103.030	27.371	1609.541	1311.567
104.045	27.455	1608.364	1311.095
105.060	27.396	1607.144	1309.562
106.074	27.393	1606.029	1308.516
107.089	27.386	1605.147	1307.626
108.103	27.460	1603.692	1306.859
109.118	27.471	1602.622	1305.947
110.133	27.349	1601.089	1303.713
111.147	27.503	1599.429	1303.346
112.162	27.459	1598.768	1302.381
113.176	27.440	1598.023	1301.517
114.191	27.359	1597.215	1300.169
115.206	27.421	1595.683	1299.251
116.220	27.430	1594.941	1298.596
117.235	27.380	1593.477	1296.928
118.249	27.501	1592.098	1296.556
119.264	27.498	1591.068	1295.579
120.279	27.450	1589.811	1294.099
121.293	27.471	1588.748	1293.270
122.308	27.523	1587.745	1292.708
123.322	27.454	1586.235	1290.875
124.337	27.539	1584.976	1290.340
125.352	27.489	1584.161	1289.208
126.366	27.490	1583.493	1288.556
127.381	27.520	1582.319	1287.700
128.395	27.579	1581.105	1287.010
129.410	27.618	1580.164	1286.409
130.424	27.518	1579.205	1284.810
131.439	27.490	1578.388	1283.834
132.454	27.531	1576.624	1282.575
133.468	27.513	1575.680	1281.569
134.483	27.576	1574.031	1280.554
135.497	27.599	1573.047	1279.803
136.512	27.545	1571.824	1278.312
137.527	27.478	1570.563	1276.705
138.541	27.445	1570.014	1275.918
139.556	27.538	1568.301	1275.065
140.570	27.575	1567.132	1274.255
141.585	27.525	1565.768	1272.687
142.600	27.465	1565.027	1271.553
143.614	27.578	1563.879	1271.293
144.629	27.492	1562.941	1269.820
145.643	27.461	1561.939	1268.680
146.658	27.466	1560.753	1267.635
147.673	27.506	1559.134	1266.486
148.687	27.403	1558.570	1265.205
149.702	27.499	1557.232	1264.673
150.716	27.508	1555.790	1263.451
151.731	27.557	1554.415	1262.558
152.746	27.526	1553.818	1261.750
153.760	27.616	1552.753	1261.393
154.775	27.528	1551.524	1259.679
155.789	27.568	1550.480	1258.998
156.804	27.599	1549.385	1258.211
157.819	27.556	1548.068	1256.732
158.833	27.574	1547.143	1255.990
159.848	27.569	1546.150	1255.044
160.862	27.559	1545.623	1254.435
161.877	27.602	1544.236	1253.492
162.892	27.610	1543.593	1252.917
163.906	27.619	1542.374	1251.876
164.921	27.590	1541.722	1251.039
165.935	27.695	1540.575	1250.715
166.950	27.565	1540.331	1249.518
167.964	27.678	1538.876	1248.997
168.979	27.682	1537.627	1247.902
169.994	27.702	1536.874	1247.318
171.008	27.684	1536.240	1246.572
172.023	27.630	1535.652	1245.613
173.037	27.705	1534.302	1244.922
174.052	27.711	1532.745	1243.586
175.067	27.676	1532.363	1242.929
176.081	27.729	1531.065	1242.127
177.096	27.751	1529.882	1241.209
178.110	27.696	1529.076	1240.071
179.125	27.716	1527.751	1239.018
180.140	27.726	1527.190	1238.522
181.154	27.717	1526.447	1237.754
182.169	27.709	1525.479	1236.799
183.183	27.655	1524.690	1235.690
184.198	27.763	1523.341	1235.218
185.213	27.856	1522.242	1234.847
186.227	27.813	1521.704	1234.008
187.242	27.803	1521.343	1233.539
188.256	27.754	1520.102	1232.090
189.271	27.748	1519.569	1231.514
190.286	27.713	1519.143	1230.818
191.300	27.825	1517.727	1230.320
192.315	27.732	1517.091	1229.069
193.329	27.784	1515.785	1228.249
194.344	27.720	1515.103	1227.159
195.359	27.764	1514.542	1226.891
196.373	27.815	1513.565	1226.336
197.388	27.864	1512.249	1225.486
198.402	27.765	1511.685	1224.262
199.417	27.730	1510.490	1222.951
200.432	27.722	1509.905	1222.310
201.446	27.785	1509.264	1222.105
202.461	27.832	1508.091	1221.362
203.475	27.732	1507.297	1219.945
204.490	27.838	1506.306	1219.741
205.504	27.761	1505.432	1218.413
206.519	27.777	1504.939	1218.015
207.534	27.775	1504.112	1217.219
208.548	27.771	1503.417	1216.528
209.563	27.792	1502.245	1215.610
210.577	27.865	1501.313	1215.231
211.592	27.708	1500.964	1213.801
212.607	27.818	1500.228	1213.830
213.621	27.927	1499.656	1213.985
214.636	27.940	1498.259	1212.830
215.650	27.870	1497.648	1211.767
216.665	27.903	1496.944	1211.303
217.680	27.880	1496.116	1210.374
218.694	27.921	1494.939	1209.590
219.709	27.860	1494.346	1208.600
220.723	27.947	1493.241	1208.174
221.738	27.854	1492.880	1207.160
222.753	27.877	1492.094	1206.565
223.767	27.774	1491.479	1205.287
224.782	27.814	1490.292	1204.482
225.796	27.878	1489.560	1204.207
226.811	28.024	1488.777	1204.430
227.826	27.881	1488.210	1202.920
228.840	28.010	1487.265	1202.898
229.855	27.970	1486.550	1201.953
230.869	28.021	1485.275	1201.151
231.884	27.936	1484.748	1200.057
232.899	27.970	1483.755	1199.371
233.913	27.956	1482.565	1198.212
234.928	27.967	1481.472	1197.298
235.942	28.006	1480.927	1197.006
236.957	28.076	1479.400	1196.122
237.972	28.015	1478.613	1194.985
238.986	28.054	1477.330	1194.092
240.001	28.076	1476.682	1193.611
241.015	28.032	1475.991	1192.656
242.030	28.077	1474.711	1191.812
243.045	28.174	1473.737	1191.552
244.059	28.108	1473.288	1190.648
245.074	28.119	1472.533	1190.011
246.088	28.199	1471.167	1189.319
247.103	28.138	1470.943	1188.636
248.117	28.109	1470.217	1187.755
249.132	28.098	1469.348	1186.880
250.147	28.158	1468.673	1186.616
251.161	28.282	1467.853	1186.650
252.176	28.218	1467.353	1185.728
253.190	28.340	1466.065	1185.370
254.205	28.235	1465.582	1184.196
255.220	28.272	1464.793	1183.693
256.234	28.237	1463.802	1182.562
257.249	28.296	1463.220	1182.370
258.263	28.240	1462.430	1181.263
259.278	28.227	1461.701	1180.486
260.293	28.298	1460.506	1179.873
261.307	28.321	1459.969	1179.486
262.322	28.257	1459.730	1178.778
263.336	28.315	1458.659	1178.177
264.351	28.311	1457.868	1177.410
265.366	28.336	1456.706	1176.532
266.380	28.199	1456.311	1175.227
267.395	28.301	1455.244	1174.914
268.409	28.353	1454.542	1174.578
269.424	28.336	1453.619	1173.619
270.439	28.239	1452.772	1172.208
271.453	28.346	1451.760	1171.977
272.468	28.303	1451.008	1170.990
273.482	28.327	1450.382	1170.531
274.497	28.370	1449.377	1169.893
275.512	28.361	1448.879	1169.332
276.526	28.388	1448.001	1168.692
277.541	28.339	1447.178	1167.611
278.555	28.387	1446.251	1167.067
279.570	28.415	1445.455	1166.500
280.585	28.415	1444.592	1165.701
281.599	28.433	1443.607	1164.917
282.614	28.447	1442.700	1164.169
283.628	28.371	1441.675	1162.754
284.643	28.424	1441.065	1162.500
285.657	28.490	1440.328	1162.215
286.672	28.513	1439.092	1161.261
287.687	28.410	1438.475	1160.010
288.701	28.481	1437.421	1159.505
289.716	28.529	1436.715	1159.142
290.730	28.506	1436.520	1158.733
291.745	28.457	1435.595	1157.578
292.760	28.457	1434.769	1156.806
293.774	28.567	1433.536	1156.405
294.789	28.591	1432.511	1155.627
295.803	28.555	1432.140	1154.997
296.818	28.547	1431.391	1154.240
297.833	28.553	1430.822	1153.720
298.847	28.496	1429.775	1152.411
299.862	28.586	1428.891	1152.167
300.876	28.559	1428.265	1151.391
301.891	28.607	1426.889	1150.478
302.906	28.646	1426.323	1150.166
303.920	28.726	1425.708	1150.068
304.935	28.630	1425.518	1149.214
305.949	28.720	1424.132	1148.556
306.964	28.643	1423.479	1147.446
307.979	28.732	1422.587	1147.182
308.993	28.541	1421.879	1145.314
310.008	28.746	1420.600	1145.463
311.022	28.770	1419.791	1144.861
312.037	28.736	1418.875	1143.807
313.052	28.782	1418.208	1143.456
314.066	28.650	1417.300	1141.801
315.081	28.711	1416.542	1141.470
316.095	28.665	1415.980	1140.631
317.110	28.826	1414.607	1140.419
318.125	28.720	1414.051	1139.216
319.139	28.741	1412.937	1138.348
320.154	28.782	1412.188	1137.893
321.168	28.858	1411.380	1137.617
322.183	28.850	1410.297	1136.593
323.197	28.834	1409.630	1135.853
324.212	28.843	1408.807	1135.148
325.227	28.793	1408.300	1134.329
326.241	28.764	1407.642	1133.519
327.256	28.813	1406.676	1132.946
328.270	28.877	1405.689	1132.440
329.285	28.916	1404.787	1131.853
330.300	28.950	1404.012	1131.343
331.314	28.877	1403.593	1130.454
332.329	28.920	1402.675	1129.875
333.343	28.827	1402.110	1128.749
334.358	29.017	1401.034	1128.950
335.373	28.943	1400.762	1128.177
336.387	28.968	1399.749	1127.418
337.402	28.960	1399.368	1126.961
338.416	29.137	1398.451	1127.207
339.431	29.115	1397.913	1126.537
340.446	29.069	1397.294	1125.656
341.460	29.061	1396.471	1124.848
342.475	29.106	1395.033	1123.864
343.489	29.129	1394.373	1123.373
344.504	29.037	1393.447	1121.967
345.519	29.053	1392.632	1121.309
346.533	29.095	1391.863	1120.843
347.548	29.104	1390.772	1119.923
348.562	29.159	1389.927	1119.480
349.577	29.217	1389.390	1119.298
350.592	29.157	1388.924	1118.458
351.606	29.166	1387.937	1117.622
352.621	29.130	1386.855	1116.433
353.635	29.060	1386.252	1115.422
354.650	29.151	1385.053	1114.911
355.665	29.125	1384.796	1114.448
356.679	29.194	1383.245	1113.517
357.694	29.190	1382.562	1112.846
358.708	29.186	1381.848	1112.146
359.723	29.158	1380.595	1110.871
360.738	29.223	1379.175	1110.021
361.752	29.224	1378.447	1109.342
362.767	29.241	1376.621	1107.880
363.781	29.247	1376.321	1107.577
364.796	29.376	1375.745	1107.789
365.810	29.320	1375.105	1106.841
366.825	29.278	1374.653	1106.126
367.840	29.377	1374.072	1106.156
368.854	29.281	1373.431	1104.968
369.869	29.324	1372.743	1104.574
370.883	29.313	1372.209	1103.980
371.898	29.360	1371.131	1103.293
372.913	29.297	1370.727	1102.495
373.927	29.431	1369.704	1102.373
374.942	29.408	1368.748	1101.371
375.956	29.409	1368.177	1100.819
376.971	29.515	1367.272	1100.629
377.986	29.502	1366.348	1099.706
379.000	29.545	1365.309	1099.032
380.015	29.378	1365.566	1098.146
381.029	29.493	1364.688	1098.030
382.044	29.411	1363.778	1096.712
383.059	29.492	1363.236	1096.659
384.073	29.466	1362.616	1095.907
385.088	29.495	1362.321	1095.747
386.102	29.469	1361.518	1094.849
387.117	29.617	1360.694	1094.968
388.132	29.610	1359.884	1094.179
389.146	29.555	1359.498	1093.444
390.161	29.523	1358.863	1092.645
391.175	29.606	1357.911	1092.277
392.190	29.670	1357.270	1092.041
393.205	29.601	1356.576	1090.978
394.219	29.676	1355.740	1090.654
395.234	29.568	1354.841	1089.193
396.248	29.692	1353.739	1088.946
397.263	29.691	1352.925	1088.185
398.278	29.659	1351.550	1086.796
399.292	29.697	1351.048	1086.521
400.307	29.713	1349.892	1085.590
401.321	29.681	1349.144	1084.701
402.336	29.873	1347.894	1084.729
403.350	29.730	1346.886	1082.982
404.365	29.658	1346.081	1081.816
405.380	29.744	1345.526	1081.778
406.394	29.661	1344.818	1080.629
407.409	29.831	1343.669	1080.605
408.423	29.800	1343.259	1079.995
409.438	29.830	1342.754	1079.669
410.453	29.918	1341.504	1079.085
411.467	29.923	1341.079	1078.673
412.482	29.874	1340.796	1078.069
413.496	29.869	1340.305	1077.548
414.511	29.870	1339.314	1076.663
415.526	30.027	1338.079	1076.486
416.540	29.924	1337.630	1075.429
417.555	29.948	1336.954	1074.931
418.569	29.895	1336.442	1074.115
419.584	29.973	1336.171	1074.255
420.599	29.940	1335.427	1073.372
421.613	95.815	1355.315	1459.081
422.628	95.270	1358.197	1459.149
