DTS Sentinel unit serial number:	SN413079Multiplexer serial number:	ORYXHardware model number:	OX4-SRSoftware version number:	ORYX F/W v4.00 Oryx Data Collector v3.7.2.0data status	okinstallation	princeton_trtdifferential loss correction	single-endedforward channel	channel 4reverse channel	N/Adate	2019/09/11time	17:43:10forward acquisition time	60.00reverse acquisition time	0.00gamma	496.2192k internal	0.2274k external	0.2274temperature offset calibration	1.0025default loss term (dB/km)	0.3790temperature slope calibration	1.0000multiplexer offset coefficient	1.0000multiplexer slope coefficient	1.0000fibre end	0.00T internal ref (°C)	43.87T ext. ref 1 (°C)	1.12T ext. ref 2 (°C)	39.07length (m)	temperature (°C)	Stokes	anti-Stokes-747.200	-47.562	-0.172	-0.086
-746.185	-200.000	0.071	0.388
-745.171	-200.000	-0.023	0.277
-744.156	-200.000	0.013	0.204
-743.142	123.559	-0.202	0.262
-742.127	18.634	-0.125	0.103
-741.112	15.716	0.462	0.375
-740.098	-200.000	-0.083	0.563
-739.083	-95.487	-0.282	-0.078
-738.069	-187.700	-0.137	-0.002
-737.054	800.000	0.009	-0.034
-736.039	-90.472	-0.250	-0.075
-735.025	36.828	-0.126	-0.114
-734.010	-125.052	-0.270	-0.043
-732.996	-61.771	-0.309	0.134
-731.981	70.866	0.215	0.230
-730.966	-34.555	-0.362	0.204
-729.952	-4.151	0.058	0.042
-728.937	-200.000	0.007	-0.046
-727.923	800.000	0.053	-0.203
-726.908	800.000	-0.051	-0.152
-725.894	21.398	0.149	-0.125
-724.879	-0.989	-0.244	-0.178
-723.864	-13.586	0.029	-0.019
-722.850	586.432	-0.181	-0.460
-721.835	60.383	0.173	0.176
-720.821	550.203	-0.108	-0.268
-719.806	800.000	0.033	0.122
-718.791	-44.170	-0.038	0.019
-717.777	217.405	-0.156	-0.257
-716.762	-104.743	-0.264	-0.063
-715.748	72.235	0.096	-0.103
-714.733	-68.551	-0.205	-0.082
-713.718	46.488	-0.222	-0.212
-712.704	-200.000	-0.023	-0.146
-711.689	16.436	-0.254	0.206
-710.675	-52.913	0.079	0.037
-709.660	800.000	-0.045	-0.156
-708.645	-200.000	-0.001	-0.133
-707.631	340.211	-0.164	0.329
-706.616	-50.195	0.184	0.090
-705.602	134.426	0.016	0.021
-704.587	73.426	-0.178	-0.192
-703.572	-14.144	-0.218	0.145
-702.558	332.494	0.162	0.321
-701.543	221.353	-0.064	0.105
-700.529	-134.976	-0.179	-0.022
-699.514	-85.708	-0.251	0.080
-698.499	800.000	0.023	-0.077
-697.485	-28.257	-0.188	0.112
-696.470	12.722	-0.182	-0.144
-695.456	-88.838	0.176	-0.054
-694.441	389.248	0.059	-0.125
-693.426	-200.000	0.008	-0.060
-692.412	-200.000	0.025	-0.137
-691.397	190.586	0.192	-0.297
-690.383	644.151	-0.082	0.216
-689.368	-93.917	-0.527	-0.149
-688.354	800.000	-0.039	-0.125
-687.339	-163.050	0.290	0.014
-686.324	-119.444	-0.268	0.048
-685.310	-109.116	-0.310	0.068
-684.295	776.009	-0.045	0.127
-683.281	-142.106	0.259	-0.026
-682.266	-96.752	0.260	0.070
-681.251	-89.251	0.350	-0.106
-680.237	-21.492	0.035	-0.022
-679.222	327.654	-0.035	-0.069
-678.208	378.603	0.044	-0.093
-677.193	800.000	-0.082	-0.289
-676.178	328.340	0.088	-0.173
-675.164	800.000	0.062	-0.223
-674.149	47.526	-0.156	0.149
-673.135	182.898	-0.092	-0.139
-672.120	-200.000	0.050	0.402
-671.105	-200.000	0.028	0.401
-670.091	380.950	-0.158	-0.333
-669.076	10.568	0.120	-0.094
-668.062	-51.485	-0.243	0.117
-667.047	15.607	-0.214	-0.173
-666.032	666.082	-0.087	-0.230
-665.018	-187.377	0.167	-0.002
-664.003	-200.000	-0.005	0.362
-662.989	-88.375	0.197	-0.061
-661.974	87.762	0.091	-0.104
-660.959	12.822	0.116	-0.092
-659.945	-136.842	-0.092	0.011
-658.930	300.318	0.098	0.186
-657.916	54.936	0.121	-0.121
-656.901	-152.318	0.051	-0.004
-655.886	-200.000	0.042	-0.499
-654.872	123.493	0.117	-0.150
-653.857	363.969	0.118	-0.245
-652.843	-70.503	-0.223	0.087
-651.828	-49.462	-0.266	0.130
-650.814	82.572	-0.296	-0.330
-649.799	800.000	-0.018	0.075
-648.784	270.366	0.139	0.251
-647.770	68.372	0.106	0.112
-646.755	-152.492	-0.065	0.005
-645.741	-33.634	0.161	0.091
-644.726	-45.543	-0.302	0.154
-643.711	7.744	0.097	0.075
-642.697	23.373	-0.091	0.077
-641.682	-200.000	-0.047	0.221
-640.668	-200.000	0.006	0.054
-639.653	173.041	0.089	-0.131
-638.638	175.682	0.038	-0.057
-637.624	-67.163	0.294	-0.119
-636.609	171.393	0.083	-0.122
-635.595	160.358	0.152	-0.218
-634.580	800.000	-0.031	-0.101
-633.565	800.000	0.015	-0.051
-632.551	16.072	0.255	-0.207
-631.536	98.579	0.101	-0.120
-630.522	315.247	0.039	-0.075
-629.507	-131.327	0.227	0.031
-628.492	-200.000	-0.008	-0.160
-627.478	-182.756	0.140	0.003
-626.463	70.755	-0.113	-0.120
-625.449	35.910	0.120	-0.108
-624.434	-51.331	-0.100	-0.048
-623.419	-7.642	-0.140	-0.097
-622.405	-25.103	-0.142	0.086
-621.390	176.533	0.040	0.059
-620.376	288.631	-0.201	0.373
-619.361	-117.280	0.132	0.025
-618.346	-47.481	0.259	-0.129
-617.332	153.614	0.149	-0.209
-616.317	290.489	0.075	0.140
-615.303	296.090	-0.111	0.209
-614.288	75.009	0.136	0.147
-613.273	-159.052	0.315	0.018
-612.259	301.202	-0.111	0.210
-611.244	-149.471	0.546	0.044
-610.230	155.848	0.175	-0.248
-609.215	-179.211	-0.171	-0.004
-608.201	-62.182	0.271	0.116
-607.186	114.380	0.093	-0.117
-606.171	-12.310	0.517	-0.347
-605.157	107.170	-0.271	0.331
-604.142	-22.780	-0.314	0.194
-603.128	-11.710	-0.230	-0.155
-602.113	-0.345	0.210	-0.153
-601.098	216.919	-0.028	-0.046
-600.084	314.475	-0.111	0.215
-599.069	-30.239	-0.050	-0.029
-598.055	603.140	0.088	-0.225
-597.040	-200.000	0.025	-0.373
-596.025	-4.194	-0.113	0.080
-595.011	173.748	-0.040	-0.059
-593.996	131.579	0.107	0.141
-592.982	178.475	0.095	0.142
-591.967	34.120	-0.201	0.180
-590.952	270.508	0.039	0.071
-589.938	-200.000	0.009	0.178
-588.923	-99.915	0.199	0.051
-587.909	21.469	-0.365	0.304
-586.894	-144.174	0.323	0.031
-585.879	-89.224	0.337	-0.102
-584.865	-65.543	-0.256	0.105
-583.850	59.040	0.079	-0.080
-582.836	-200.000	0.002	0.088
-581.821	-200.000	-0.068	-0.517
-580.806	-200.000	-0.001	-0.193
-579.792	-123.762	-0.228	0.037
-578.777	-59.926	-0.276	-0.121
-577.763	158.482	0.203	0.288
-576.748	14.109	-0.182	-0.145
-575.733	-61.070	-0.045	-0.019
-574.719	-107.475	-0.194	0.044
-573.704	82.155	-0.030	-0.034
-572.690	-88.003	0.253	-0.078
-571.675	-84.100	0.234	-0.076
-570.661	-138.466	-0.083	-0.009
-569.646	191.238	0.109	0.168
-568.631	231.991	0.142	0.239
-567.617	-175.029	-0.194	0.006
-566.602	786.423	0.103	-0.289
-565.588	-91.137	0.204	-0.060
-564.573	365.093	0.105	-0.217
-563.558	-200.000	0.021	-0.263
-562.544	18.944	-0.031	-0.026
-561.529	-97.792	0.074	0.019
-560.515	-200.000	0.070	0.418
-559.500	-200.000	-0.114	-0.001
-558.485	30.447	0.202	-0.177
-557.471	800.000	0.103	-0.394
-556.456	-200.000	-0.005	-0.091
-555.442	-71.335	0.332	0.127
-554.427	77.528	-0.216	0.236
-553.412	27.481	0.287	-0.247
-552.398	-85.018	0.064	-0.021
-551.383	800.000	0.057	0.253
-550.369	-200.000	-0.043	0.316
-549.354	75.045	0.059	0.064
-548.339	-7.120	-0.021	0.014
-547.325	248.232	-0.057	-0.100
-546.310	297.675	-0.299	0.561
-545.296	286.849	-0.170	-0.314
-544.281	742.936	0.027	-0.076
-543.266	-46.838	0.290	-0.145
-542.252	800.000	-0.057	0.235
-541.237	-124.654	0.174	0.028
-540.223	105.343	0.143	0.173
-539.208	-122.119	0.122	-0.020
-538.193	-200.000	0.031	0.250
-537.179	-111.489	0.274	-0.057
-536.164	-200.000	0.001	-0.219
-535.150	-113.105	0.335	-0.068
-534.135	79.681	0.146	0.161
-533.121	285.500	0.129	-0.237
-532.106	-113.765	-0.179	0.036
-531.091	-200.000	0.000	-0.104
-530.077	-200.000	0.039	-0.232
-529.062	68.851	0.060	-0.063
-528.048	67.899	0.061	-0.064
-527.033	-147.761	-0.183	-0.016
-526.018	270.373	-0.086	0.154
-525.004	-166.904	-0.224	-0.009
-523.989	-200.000	0.012	0.227
-522.975	152.145	-0.207	0.289
-521.960	125.163	0.067	-0.086
-520.945	-20.363	0.200	-0.126
-519.931	-200.000	0.010	0.279
-518.916	-200.000	-0.031	-0.261
-517.902	-200.000	0.037	0.244
-516.887	-134.577	-0.044	0.006
-515.872	244.998	-0.105	-0.181
-514.858	37.059	-0.198	0.179
-513.843	373.684	-0.129	-0.268
-512.829	662.768	-0.040	-0.106
-511.814	800.000	-0.042	0.165
-510.799	37.819	-0.094	0.086
-509.785	-34.708	0.373	0.209
-508.770	-4.156	-0.127	0.090
-507.756	-31.002	-0.321	0.185
-506.741	369.298	0.033	0.068
-505.726	-40.826	0.165	-0.087
-504.712	465.579	-0.045	-0.104
-503.697	372.011	-0.122	0.253
-502.683	-200.000	0.028	0.345
-501.668	-200.000	0.031	0.158
-500.653	352.972	-0.155	-0.315
-499.639	-152.381	-0.243	-0.018
-498.624	-151.430	-0.175	-0.013
-497.610	-200.000	-0.018	-0.243
-496.595	-53.413	0.132	0.062
-495.581	14.917	0.139	-0.111
-494.566	800.000	0.020	-0.070
-493.551	-200.000	-0.032	-0.291
-492.537	-200.000	0.003	-0.154
-491.522	100.004	0.117	0.138
-490.508	217.210	-0.104	-0.170
-489.493	-91.087	-0.094	-0.027
-488.478	108.069	-0.250	0.304
-487.464	-29.242	0.040	-0.024
-486.449	-200.000	-0.040	0.492
-485.435	85.545	0.304	0.341
-484.420	-76.102	0.154	0.056
-483.405	-82.714	-0.138	-0.046
-482.391	42.936	0.243	-0.226
-481.376	800.000	-0.083	-0.303
-480.362	-9.601	0.161	-0.110
-479.347	94.906	0.122	0.142
-478.332	-11.355	0.097	-0.065
-477.318	-6.677	0.291	-0.202
-476.303	-65.103	-0.438	0.180
-475.289	-15.750	-0.548	-0.356
-474.274	-171.779	-0.352	0.012
-473.259	-12.759	-0.085	-0.057
-472.245	-91.968	-0.053	-0.015
-471.230	742.777	0.029	0.081
-470.216	15.983	-0.277	-0.223
-469.201	-84.970	0.363	0.116
-468.186	-20.652	0.259	0.162
-467.172	-200.000	0.007	-0.085
-466.157	-119.185	0.180	-0.032
-465.143	214.683	-0.138	0.223
-464.128	255.299	0.236	0.412
-463.113	800.000	0.087	0.388
-462.099	-130.044	0.260	-0.036
-461.084	-200.000	0.032	-0.309
-460.070	36.476	-0.171	-0.154
-459.055	-200.000	0.009	0.244
-458.040	800.000	-0.051	-0.150
-457.026	800.000	-0.091	-0.330
-456.011	201.759	0.194	-0.304
-454.997	433.510	-0.051	0.113
-453.982	-200.000	-0.019	-0.160
-452.968	-200.000	0.005	-0.313
-451.953	-111.099	-0.161	-0.034
-450.938	331.049	-0.066	0.129
-449.924	533.701	-0.083	-0.201
-448.909	-25.216	0.161	0.097
-447.895	-200.000	-0.049	-0.248
-446.880	-44.525	-0.080	0.041
-445.865	786.569	-0.058	-0.163
-444.851	-58.215	-0.197	0.088
-443.836	-59.956	0.143	-0.062
-442.822	-53.994	0.210	-0.097
-441.807	546.396	0.131	0.319
-440.792	-38.264	0.094	0.051
-439.778	33.564	0.188	0.166
-438.763	499.402	0.077	-0.180
-437.749	424.030	-0.205	-0.449
-436.734	-200.000	0.003	0.142
-435.719	-146.778	0.179	-0.016
-434.705	800.000	0.100	-0.432
-433.690	-12.143	0.136	0.090
-432.676	-137.115	-0.273	-0.032
-431.661	46.917	-0.105	-0.099
-430.646	-87.697	-0.223	-0.069
-429.632	-18.034	0.124	-0.079
-428.617	-200.000	-0.030	0.327
-427.603	359.747	-0.120	0.244
-426.588	-71.179	0.039	-0.015
-425.573	-18.169	0.171	0.109
-424.559	-106.378	-0.354	-0.081
-423.544	32.044	-0.192	-0.169
-422.530	-200.000	0.008	-0.522
-421.515	-118.217	-0.267	0.049
-420.500	-63.623	0.249	-0.104
-419.486	800.000	-0.026	-0.080
-418.471	326.987	-0.107	-0.208
-417.457	800.000	0.037	-0.134
-416.442	440.215	-0.074	-0.164
-415.428	800.000	0.051	-0.195
-414.413	-82.851	-0.086	0.028
-413.398	-200.000	0.007	-0.305
-412.384	-200.000	-0.029	0.147
-411.369	-200.000	0.008	-0.157
-410.355	-200.000	0.001	0.131
-409.340	240.875	0.052	-0.089
-408.325	800.000	0.084	0.285
-407.311	-20.428	-0.188	0.118
-406.296	-25.993	0.190	0.114
-405.282	-174.091	0.326	0.010
-404.267	-26.487	-0.082	0.049
-403.252	-132.780	-0.145	0.019
-402.238	-34.045	0.120	-0.067
-401.223	124.690	-0.196	0.251
-400.209	99.841	-0.239	0.281
-399.194	800.000	-0.043	0.178
-398.179	41.015	-0.307	-0.282
-397.165	-58.317	-0.118	0.052
-396.150	34.662	0.052	0.046
-395.136	-35.812	-0.202	-0.112
-394.121	-120.553	-0.143	-0.025
-393.106	186.972	-0.239	0.362
-392.092	-200.000	-0.001	0.325
-391.077	800.000	-0.061	0.248
-390.063	-200.000	0.020	-0.109
-389.048	-106.402	0.161	-0.037
-388.033	800.000	0.072	0.268
-387.019	100.220	-0.048	-0.056
-386.004	133.279	0.057	-0.075
-384.990	-200.000	0.027	0.263
-383.975	800.000	-0.047	-0.159
-382.960	-85.494	0.350	-0.111
-381.946	206.644	-0.091	-0.144
-380.931	-22.717	-0.218	0.134
-379.917	-93.084	-0.117	0.033
-378.902	-45.200	-0.132	-0.067
-377.888	148.539	-0.122	-0.168
-376.873	28.603	0.274	-0.236
-375.858	-200.000	0.013	0.218
-374.844	-200.000	0.032	0.522
-373.829	-70.325	-0.237	0.091
-372.815	-74.512	0.181	-0.066
-371.800	-75.684	0.196	0.071
-370.785	-120.476	-0.455	0.079
-369.771	-5.240	0.115	0.080
-368.756	0.255	-0.202	-0.147
-367.742	-200.000	0.006	0.238
-366.727	297.219	-0.125	0.233
-365.712	-154.321	-0.292	0.020
-364.698	36.467	0.088	-0.079
-363.683	91.131	-0.186	-0.212
-362.669	800.000	0.104	-0.314
-361.654	-200.000	-0.029	0.201
-360.639	-158.271	0.101	0.006
-359.625	157.390	0.150	-0.210
-358.610	48.670	-0.113	-0.108
-357.596	280.085	0.124	-0.225
-356.581	58.091	-0.224	-0.223
-355.566	38.980	0.098	0.089
-354.552	-18.341	-0.257	-0.163
-353.537	-200.000	-0.049	-0.257
-352.523	-83.685	-0.105	-0.034
-351.508	-45.026	-0.125	-0.063
-350.493	12.788	0.141	-0.110
-349.479	-200.000	-0.045	-0.203
-348.464	83.592	-0.167	-0.185
-347.450	-61.498	0.052	-0.022
-346.435	-64.202	-0.307	0.127
-345.420	-84.968	0.156	0.050
-344.406	-19.555	-0.044	0.027
-343.391	292.147	-0.059	0.110
-342.377	-164.162	0.279	0.013
-341.362	178.833	0.216	-0.321
-340.348	-200.000	-0.020	0.247
-339.333	242.234	0.162	0.275
-338.318	-200.000	-0.044	0.247
-337.304	-47.651	0.253	0.125
-336.289	-112.516	-0.083	0.017
-335.275	800.000	0.141	-0.460
-334.260	-142.286	-0.300	0.030
-333.245	-48.560	0.252	0.123
-332.231	-120.032	-0.106	-0.018
-331.216	-84.720	0.111	-0.035
-330.202	232.147	0.062	0.102
-329.187	-36.253	-0.138	0.076
-328.172	-175.625	0.099	0.003
-327.158	800.000	-0.058	-0.202
-326.143	18.260	-0.145	0.117
-325.129	91.721	-0.100	-0.114
-324.114	287.449	0.124	0.228
-323.099	214.020	0.078	-0.126
-322.085	-0.382	-0.247	0.178
-321.070	-193.100	-0.206	0.002
-320.056	-88.059	-0.166	-0.051
-319.041	-38.232	-0.251	0.135
-318.026	-79.952	-0.170	0.058
-317.012	155.102	0.081	-0.113
-315.997	-43.817	-0.121	-0.062
-314.983	-200.000	-0.011	0.091
-313.968	32.937	0.245	0.215
-312.953	59.741	-0.181	0.181
-311.939	176.454	-0.092	-0.135
-310.924	-20.180	-0.203	0.127
-309.910	62.827	-0.117	0.119
-308.895	157.165	0.225	0.316
-307.880	381.688	-0.141	0.294
-306.866	2.263	0.121	0.089
-305.851	-200.000	-0.010	0.062
-304.837	-110.574	0.216	0.045
-303.822	-55.623	-0.435	0.197
-302.807	101.641	-0.136	-0.161
-301.793	800.000	0.015	-0.046
-300.778	12.313	-0.258	0.202
-299.764	-200.000	-0.073	0.344
-298.749	-200.000	-0.059	-0.320
-297.735	181.107	0.159	-0.237
-296.720	606.005	-0.056	-0.141
-295.705	255.054	0.133	-0.231
-294.691	-200.000	-0.013	-0.100
-293.676	485.225	-0.058	-0.133
-292.662	-92.146	-0.400	-0.115
-291.647	-7.846	-0.233	-0.159
-290.632	800.000	-0.118	0.346
-289.618	-133.276	-0.241	-0.031
-288.603	-123.689	0.080	0.013
-287.589	-96.089	-0.184	0.050
-286.574	-21.475	0.083	-0.051
-285.559	-117.999	0.138	-0.025
-284.545	28.866	0.083	0.071
-283.530	-62.725	-0.388	-0.163
-282.516	-44.345	0.356	0.181
-281.501	285.399	0.104	0.190
-280.486	-49.760	-0.181	0.087
-279.472	51.620	0.263	0.253
-278.457	-76.730	-0.163	-0.058
-277.443	-111.193	-0.176	0.037
-276.428	-102.957	-0.177	-0.042
-275.413	-37.945	0.445	0.239
-274.399	462.427	0.154	0.347
-273.384	-77.800	-0.174	0.061
-272.370	39.253	-0.313	-0.284
-271.355	-200.000	0.006	-0.131
-270.340	800.000	-0.154	0.451
-269.326	696.333	0.040	-0.107
-268.311	29.741	0.171	0.147
-267.297	24.114	0.127	0.106
-266.282	778.282	-0.090	-0.248
-265.267	-200.000	-0.000	-0.154
-264.253	-40.795	-0.248	0.130
-263.238	-100.816	-0.232	-0.058
-262.224	302.005	0.069	0.128
-261.209	-1.477	0.039	0.028
-260.195	192.436	0.088	0.134
-259.180	-91.878	0.305	0.088
-258.165	-27.938	0.069	0.041
-257.151	83.291	0.169	-0.186
-256.136	-200.000	-0.038	-0.198
-255.122	-81.841	0.273	0.090
-254.107	82.452	-0.410	-0.450
-253.092	36.421	0.093	-0.083
-252.078	213.439	0.193	-0.309
-251.063	-34.969	0.235	-0.130
-250.049	-28.400	-0.332	0.194
-249.034	157.926	-0.117	0.164
-248.019	800.000	0.100	-0.336
-247.005	-118.052	-0.278	-0.050
-245.990	-200.000	-0.001	0.137
-244.976	498.336	0.066	-0.153
-243.961	-200.000	-0.042	-0.218
-242.946	-70.401	-0.232	-0.089
-241.932	800.000	-0.152	0.435
-240.917	9.846	0.186	0.143
-239.903	-200.000	0.019	-0.129
-238.888	35.813	0.076	-0.067
-237.873	-200.000	0.051	0.277
-236.859	800.000	0.085	-0.262
-235.844	488.201	-0.132	-0.304
-234.830	-29.417	-0.280	0.162
-233.815	-10.504	-0.133	-0.089
-232.800	-200.000	0.031	0.204
-231.786	38.208	0.206	-0.185
-230.771	132.721	0.189	-0.246
-229.757	-200.000	-0.066	0.466
-228.742	-200.000	-0.007	0.246
-227.727	-200.000	-0.010	-0.065
-226.713	-51.052	-0.086	0.041
-225.698	-145.669	-0.391	0.035
-224.684	-159.175	0.061	0.003
-223.669	22.409	0.198	-0.164
-222.655	-200.000	-0.046	-0.263
-221.640	-200.000	-0.078	-0.348
-220.625	-200.000	-0.072	0.330
-219.611	137.911	0.097	0.128
-218.596	535.483	-0.138	0.332
-217.582	-32.984	-0.176	-0.099
-216.567	-200.000	0.009	0.046
-215.552	122.372	0.110	-0.139
-214.538	113.684	0.140	-0.172
-213.523	800.000	0.070	0.243
-212.509	-47.188	0.165	-0.081
-211.494	-200.000	-0.019	0.133
-210.479	78.482	0.219	-0.237
-209.465	109.642	0.234	-0.284
-208.450	291.161	0.097	0.178
-207.436	-113.945	0.258	0.051
-206.421	-41.999	-0.230	-0.119
-205.406	-30.537	0.159	-0.091
-204.392	-200.000	0.058	-0.298
-203.377	-187.572	0.128	0.002
-202.363	800.000	0.063	-0.195
-201.348	-62.685	-0.166	0.070
-200.333	-200.000	-0.075	-0.423
-199.319	179.030	0.122	-0.180
-198.304	765.887	-0.088	0.242
-197.290	-37.003	0.144	0.078
-196.275	-88.996	0.301	0.090
-195.260	-6.452	-0.077	0.053
-194.246	-31.956	0.136	0.077
-193.231	-37.755	-0.090	-0.048
-192.217	-42.953	0.253	-0.130
-191.202	21.336	0.172	0.141
-190.187	-40.007	0.247	-0.130
-189.173	66.749	0.257	0.264
-188.158	-200.000	0.036	0.165
-187.144	18.338	-0.115	-0.093
-186.129	18.007	-0.071	-0.057
-185.114	-24.732	0.158	0.095
-184.100	-5.256	0.183	0.127
-183.085	142.437	0.147	0.196
-182.071	800.000	-0.081	-0.296
-181.056	-39.021	0.217	0.115
-180.042	-104.517	0.089	-0.021
-179.027	-200.000	-0.003	-0.233
-178.012	-200.000	-0.022	0.164
-176.998	24.852	-0.166	-0.139
-175.983	-111.572	0.250	0.051
-174.969	-93.129	0.264	-0.074
-173.954	-52.237	-0.085	0.040
-172.939	121.321	0.142	0.179
-171.925	70.396	-0.093	-0.097
-170.910	-91.202	-0.166	-0.048
-169.896	358.904	-0.141	0.284
-168.881	-49.072	-0.203	-0.098
-167.866	-61.357	0.235	0.100
-166.852	-114.927	-0.267	-0.051
-165.837	229.392	0.118	0.194
-164.823	9.764	0.257	-0.197
-163.808	-200.000	0.016	0.188
-162.793	-128.400	-0.283	0.041
-161.779	-64.244	-0.229	0.094
-160.764	-200.000	0.048	-0.408
-159.750	26.440	-0.072	-0.061
-158.735	-99.141	-0.189	0.048
-157.720	-86.281	0.361	0.112
-156.706	800.000	-0.075	0.208
-155.691	-148.108	-0.338	-0.028
-154.677	-200.000	0.001	-0.145
-153.662	-5.574	-0.228	0.157
-152.647	199.148	-0.037	-0.058
-151.633	-50.110	0.141	0.067
-150.618	100.813	-0.113	0.133
-149.604	800.000	-0.017	0.058
-148.589	-80.537	0.263	0.088
-147.574	351.030	0.160	-0.318
-146.560	69.705	0.169	-0.176
-145.545	-59.148	0.312	-0.135
-144.531	-9.260	-0.249	0.168
-143.516	-67.623	0.165	0.065
-142.502	-27.825	0.140	-0.082
-141.487	-55.716	0.158	0.071
-140.472	-200.000	-0.041	-0.328
-139.458	800.000	0.065	-0.236
-138.443	15.468	0.169	-0.133
-137.429	800.000	0.142	0.414
-136.414	36.617	0.185	-0.164
-135.399	-44.542	-0.207	0.104
-134.385	-200.000	-0.000	0.149
-133.370	771.618	-0.150	0.412
-132.356	-200.000	-0.027	0.221
-131.341	482.379	-0.203	0.465
-130.326	-200.000	0.037	0.382
-129.312	-60.204	-0.197	-0.085
-128.297	-12.674	0.170	-0.111
-127.283	675.167	0.057	-0.148
-126.268	-151.054	-0.091	-0.007
-125.253	-56.267	0.211	-0.094
-124.239	-200.000	0.010	-0.114
-123.224	659.070	0.060	0.156
-122.210	-169.813	-0.423	-0.015
-121.195	-200.000	-0.015	0.218
-120.180	-200.000	-0.022	0.277
-119.166	-200.000	0.023	0.222
-118.151	800.000	-0.091	0.380
-117.137	516.760	-0.049	-0.116
-116.122	89.603	0.076	0.085
-115.107	-200.000	-0.031	0.277
-114.093	-132.754	-0.097	0.013
-113.078	119.295	-0.075	0.093
-112.064	800.000	0.152	-0.472
-111.049	-88.680	0.176	-0.053
-110.034	-42.989	0.236	-0.120
-109.020	-1.551	0.091	-0.065
-108.005	54.768	0.111	0.108
-106.991	639.738	-0.028	-0.072
-105.976	-95.034	0.154	0.042
-104.962	340.668	0.036	0.071
-103.947	-138.818	0.064	-0.007
-102.932	-200.000	-0.001	0.015
-101.918	443.527	0.031	0.068
-100.903	-94.884	0.130	0.035
-99.889	-200.000	-0.049	-0.279
-98.874	-77.592	-0.132	0.046
-97.859	175.603	-0.153	-0.222
-96.845	-100.866	-0.295	-0.073
-95.830	661.106	-0.147	0.381
-94.816	220.283	-0.111	0.179
-93.801	-27.281	-0.128	-0.075
-92.786	49.681	-0.072	0.068
-91.772	32.156	-0.233	0.202
-90.757	123.371	0.074	-0.094
-89.743	-62.388	0.135	-0.056
-88.728	538.718	0.127	0.304
-87.713	-175.260	0.334	-0.009
-86.699	-24.195	-0.074	0.044
-85.684	800.000	-0.132	0.372
-84.670	27.032	0.224	-0.189
-83.655	-164.649	-0.292	0.013
-82.640	-121.883	-0.226	-0.037
-81.626	290.352	-0.124	-0.226
-80.611	-200.000	-0.029	0.324
-79.597	-200.000	0.087	0.454
-78.582	-76.957	-0.138	0.048
-77.567	28.746	-0.137	0.117
-76.553	-60.331	0.226	0.097
-75.538	269.167	0.122	-0.216
-74.524	-82.822	0.270	-0.088
-73.509	-8.038	-0.459	-0.311
-72.494	-69.209	-0.238	0.092
-71.480	278.757	0.179	-0.321
-70.465	-98.807	0.214	-0.055
-69.451	-190.390	-0.157	0.002
-68.436	225.824	0.227	-0.370
-67.422	210.941	0.057	-0.089
-66.407	-31.458	0.348	-0.196
-65.392	-68.157	0.202	-0.079
-64.378	-66.822	0.056	0.022
-63.363	-125.841	0.142	-0.022
-62.349	-104.614	0.550	0.127
-61.334	74.229	-0.499	-0.526
-60.319	122.052	0.134	0.168
-59.305	-200.000	-0.052	-0.882
-58.290	-23.507	0.695	0.419
-57.276	569.668	0.667	1.628
-56.261	-200.000	70.962	519.443
-55.246	591.302	1271.385	3150.348
-54.232	144.227	2497.281	3345.771
-53.217	112.033	2367.949	2872.289
-52.203	51.288	2106.776	2007.718
-51.188	46.027	2012.685	1870.232
-50.173	44.178	1992.582	1834.774
-49.159	55.673	2027.701	1971.945
-48.144	61.589	2048.595	2046.029
-47.130	46.812	2014.014	1878.313
-46.115	43.878	2003.025	1841.378
-45.100	43.934	1999.889	1838.926
-44.086	43.845	1998.067	1836.369
-43.071	43.719	1995.360	1832.673
-42.057	43.621	1993.656	1830.148
-41.042	43.730	1992.101	1829.634
-40.027	43.844	1989.836	1828.511
-39.013	43.858	1987.140	1826.085
-37.998	43.791	1985.672	1824.055
-36.984	43.823	1984.014	1822.748
-35.969	43.825	1982.336	1821.152
-34.954	43.835	1980.589	1819.563
-33.940	43.923	1978.966	1818.790
-32.925	43.907	1977.492	1817.226
-31.911	43.965	1975.698	1816.021
-30.896	43.834	1974.317	1813.508
-29.881	43.972	1972.455	1812.959
-28.867	43.922	1971.353	1811.424
-27.852	43.945	1968.825	1809.236
-26.838	43.909	1967.067	1807.235
-25.823	43.997	1965.238	1806.267
-24.809	43.914	1963.247	1803.625
-23.794	43.901	1961.910	1802.208
-22.779	43.928	1959.931	1800.558
-21.765	43.911	1958.098	1798.650
-20.750	43.900	1956.814	1797.304
-19.736	43.849	1955.789	1795.840
-18.721	43.896	1954.201	1794.728
-17.706	43.805	1952.639	1792.416
-16.692	43.869	1950.290	1790.750
-15.677	43.876	1949.176	1789.716
-14.663	43.925	1947.142	1788.213
-13.648	43.815	1946.382	1786.476
-12.633	43.861	1944.905	1785.454
-11.619	43.817	1943.852	1784.029
-10.604	43.856	1942.085	1782.680
-9.590	43.849	1940.806	1781.375
-8.575	43.811	1939.444	1779.719
-7.560	43.889	1937.840	1778.860
-6.546	43.950	1936.768	1778.340
-5.531	43.887	1935.506	1776.559
-4.517	43.883	1934.425	1775.461
-3.502	43.899	1932.922	1774.155
-2.487	43.863	1931.831	1772.760
-1.473	43.868	1930.644	1771.649
-0.458	44.028	1926.982	1769.616
0.556	43.425	1908.308	1745.502
1.571	39.339	1888.214	1691.936
2.586	34.678	1907.542	1668.496
3.600	33.012	1943.936	1685.334
4.615	31.839	1941.296	1672.435
5.629	23.939	1834.615	1513.475
6.644	9.578	1700.392	1288.533
7.659	1.965	1653.417	1193.434
8.673	1.209	1649.531	1184.614
9.688	1.119	1648.117	1182.793
10.702	1.105	1646.465	1181.398
11.717	1.028	1643.611	1178.641
12.731	1.342	1643.475	1180.884
13.746	9.224	1662.578	1256.326
14.761	20.415	1687.717	1363.565
15.775	24.713	1694.280	1402.543
16.790	25.011	1693.947	1404.478
17.804	25.020	1693.504	1404.057
18.819	25.032	1692.868	1403.503
19.834	25.240	1691.303	1403.708
20.848	25.381	1691.296	1404.679
21.863	25.460	1690.054	1404.137
22.877	25.377	1689.281	1402.722
23.892	25.361	1688.481	1401.810
24.907	25.372	1687.427	1400.896
25.921	25.444	1685.969	1400.125
26.936	25.406	1685.201	1399.065
27.950	25.374	1684.547	1398.153
28.965	25.331	1684.146	1397.356
29.980	25.383	1683.071	1396.751
30.994	25.392	1681.391	1395.304
32.009	25.444	1680.192	1394.583
33.023	25.405	1679.523	1393.603
34.038	25.459	1678.790	1393.288
35.053	25.453	1677.615	1392.146
36.067	25.399	1676.956	1391.058
37.082	25.462	1675.840	1390.498
38.096	25.410	1674.837	1389.142
39.111	25.377	1673.632	1387.759
40.126	25.392	1673.465	1387.618
41.140	25.464	1672.618	1387.348
42.155	25.416	1671.352	1385.806
43.169	25.303	1670.631	1384.214
44.184	25.369	1669.639	1383.775
45.199	25.410	1668.097	1382.693
46.213	25.348	1667.481	1381.585
47.228	25.425	1665.850	1380.697
48.242	25.410	1664.320	1379.194
49.257	25.500	1663.274	1378.898
50.271	25.441	1662.253	1377.478
51.286	25.423	1661.192	1376.336
52.301	25.465	1659.545	1375.173
53.315	25.406	1658.138	1373.436
54.330	25.350	1657.330	1372.211
55.344	25.425	1655.745	1371.350
56.359	25.401	1654.442	1369.967
57.374	25.361	1653.573	1368.825
58.388	25.495	1652.104	1368.506
59.403	25.364	1651.455	1366.851
60.417	25.331	1650.518	1365.707
61.432	25.470	1648.897	1365.296
62.447	25.469	1648.062	1364.481
63.461	25.371	1647.577	1363.209
64.476	25.514	1646.113	1362.965
65.490	25.461	1645.611	1362.028
66.505	25.409	1644.382	1360.492
67.520	25.379	1643.177	1359.148
68.534	25.527	1641.987	1359.166
69.549	25.395	1641.170	1357.369
70.563	25.420	1640.420	1356.819
71.578	25.421	1639.196	1355.694
72.593	25.491	1638.108	1355.204
73.607	25.507	1637.269	1354.510
74.622	25.488	1636.189	1353.349
75.636	25.475	1635.358	1352.451
76.651	25.428	1634.919	1351.611
77.666	25.520	1633.878	1351.325
78.680	25.484	1632.723	1349.977
79.695	25.436	1632.301	1349.152
80.709	25.502	1631.207	1348.622
81.724	25.420	1630.626	1347.404
82.739	25.466	1629.556	1346.745
83.753	25.456	1628.813	1345.942
84.768	25.501	1627.631	1345.178
85.782	25.403	1627.011	1343.819
86.797	25.473	1625.623	1343.070
87.812	25.482	1625.059	1342.555
88.826	25.474	1624.111	1341.596
89.841	25.492	1622.691	1340.435
90.855	25.455	1622.051	1339.516
91.870	25.512	1620.878	1338.849
92.884	25.577	1619.554	1338.123
93.899	25.410	1619.246	1336.509
94.914	25.573	1617.577	1336.219
95.928	25.584	1616.210	1335.055
96.943	25.530	1614.890	1333.444
97.957	25.469	1613.772	1331.957
98.972	25.501	1612.622	1331.124
99.987	25.502	1611.513	1330.102
101.001	25.497	1610.166	1328.832
102.016	25.463	1608.820	1327.353
103.030	25.401	1607.635	1325.800
104.045	25.472	1606.156	1324.984
105.060	25.535	1604.645	1324.090
106.074	25.477	1603.789	1322.834
107.089	25.518	1602.413	1321.890
108.103	25.483	1601.147	1320.471
109.118	25.482	1600.509	1319.815
110.133	25.566	1598.927	1319.012
111.147	25.664	1597.225	1318.209
112.162	25.590	1596.607	1317.038
113.176	25.584	1595.492	1315.962
114.191	25.484	1594.745	1314.500
115.206	25.568	1593.592	1314.044
116.220	25.545	1592.127	1312.551
117.235	25.548	1591.142	1311.642
118.249	25.526	1590.153	1310.555
119.264	25.572	1588.890	1309.733
120.279	25.607	1587.823	1308.990
121.293	25.553	1586.904	1307.726
122.308	25.635	1585.431	1306.993
123.322	25.637	1583.828	1305.567
124.337	25.621	1582.557	1304.293
125.352	25.637	1581.913	1303.759
126.366	25.579	1581.077	1302.533
127.381	25.730	1579.990	1302.616
128.395	25.663	1579.128	1301.305
129.410	25.652	1578.050	1300.223
130.424	25.692	1576.746	1299.325
131.439	25.740	1575.504	1298.530
132.454	25.648	1574.621	1297.022
133.468	25.621	1573.246	1295.583
134.483	25.616	1572.269	1294.626
135.497	25.710	1570.714	1293.911
136.512	25.628	1570.105	1292.701
137.527	25.630	1568.747	1291.487
138.541	25.643	1568.034	1290.874
139.556	25.716	1566.430	1289.968
140.570	25.685	1565.307	1288.706
141.585	25.672	1564.235	1287.618
142.600	25.701	1562.637	1286.396
143.614	25.727	1561.773	1285.751
144.629	25.685	1560.688	1284.444
145.643	25.653	1559.862	1283.425
146.658	25.629	1558.341	1281.893
147.673	25.584	1557.204	1280.522
148.687	25.588	1556.183	1279.592
149.702	25.640	1554.341	1278.341
150.716	25.595	1553.436	1277.158
151.731	25.587	1552.439	1276.169
152.746	25.580	1551.412	1275.161
153.760	25.620	1549.726	1273.950
154.775	25.666	1548.980	1273.549
155.789	25.723	1547.913	1272.964
156.804	25.679	1547.091	1271.861
157.819	25.693	1545.688	1270.696
158.833	25.588	1544.961	1269.240
159.848	25.740	1543.770	1269.222
160.862	25.783	1542.712	1268.549
161.877	25.697	1541.581	1266.898
162.892	25.740	1541.101	1266.692
163.906	25.756	1540.393	1266.109
164.921	25.643	1539.520	1264.489
165.935	25.686	1538.486	1263.833
166.950	25.742	1537.223	1263.075
167.964	25.763	1535.881	1262.004
168.979	25.690	1535.617	1261.164
169.994	25.692	1534.445	1260.105
171.008	25.772	1533.508	1259.783
172.023	25.790	1533.013	1259.391
173.037	25.766	1531.845	1258.152
174.052	25.786	1530.174	1256.812
175.067	25.811	1529.439	1256.268
176.081	25.738	1529.264	1255.506
177.096	25.760	1527.526	1254.120
178.110	25.813	1526.413	1253.465
179.125	25.691	1525.361	1251.641
180.140	25.755	1524.964	1251.648
181.154	25.770	1524.318	1251.110
182.169	25.839	1523.321	1250.664
183.183	25.813	1522.290	1249.528
184.198	25.778	1521.395	1248.436
185.213	25.686	1520.869	1247.254
186.227	25.791	1519.212	1246.515
187.242	25.863	1518.958	1246.696
188.256	25.896	1517.843	1245.897
189.271	25.846	1516.791	1244.575
190.286	25.894	1515.869	1244.042
191.300	25.923	1515.197	1243.581
192.315	25.873	1514.192	1242.303
193.329	25.821	1513.143	1240.973
194.344	25.728	1512.536	1239.723
195.359	25.843	1511.718	1239.737
196.373	25.821	1511.081	1238.952
197.388	25.739	1510.134	1237.506
198.402	25.740	1508.985	1236.459
199.417	25.832	1507.876	1236.070
200.432	25.780	1507.265	1235.102
201.446	25.886	1506.474	1235.073
202.461	25.833	1505.584	1233.872
203.475	25.837	1505.220	1233.496
204.490	25.970	1503.326	1232.741
205.504	25.844	1503.124	1231.605
206.519	25.802	1502.414	1230.628
207.534	25.807	1501.577	1229.863
208.548	25.954	1500.595	1229.957
209.563	25.910	1499.812	1228.907
210.577	25.867	1498.790	1227.666
211.592	25.864	1497.606	1226.568
212.607	25.975	1497.400	1227.049
213.621	25.979	1496.301	1226.064
214.636	26.017	1495.818	1225.815
215.650	25.954	1495.006	1224.614
216.665	26.047	1494.104	1224.403
217.680	25.922	1493.372	1222.845
218.694	25.971	1492.477	1222.336
219.709	25.985	1491.978	1221.911
220.723	25.948	1491.158	1220.885
221.738	25.944	1490.339	1220.079
222.753	26.000	1489.262	1219.463
223.767	25.940	1488.164	1218.054
224.782	25.882	1487.575	1217.074
225.796	25.951	1487.200	1217.126
226.811	26.025	1486.033	1216.560
227.826	26.082	1485.283	1216.224
228.840	26.001	1484.639	1215.043
229.855	26.045	1483.989	1214.700
230.869	26.052	1482.769	1213.637
231.884	26.081	1481.915	1213.026
232.899	25.987	1481.111	1211.631
233.913	25.950	1480.318	1210.626
234.928	25.986	1478.999	1209.683
235.942	26.038	1477.970	1209.083
236.957	26.090	1477.043	1208.562
237.972	26.109	1475.567	1207.379
238.986	26.118	1474.832	1206.731
240.001	26.104	1473.873	1205.746
241.015	26.187	1472.880	1205.381
242.030	26.187	1471.778	1204.374
243.045	26.261	1471.013	1204.134
244.059	26.266	1470.068	1203.288
245.074	26.290	1469.128	1202.572
246.088	26.293	1468.621	1202.065
247.103	26.245	1467.990	1201.128
248.117	26.201	1467.617	1200.418
249.132	26.205	1466.499	1199.429
250.147	26.240	1465.757	1198.947
251.161	26.212	1465.286	1198.269
252.176	26.276	1464.982	1198.339
253.190	26.372	1463.893	1197.976
254.205	26.310	1463.098	1196.809
255.220	26.317	1462.011	1195.860
256.234	26.300	1461.455	1195.187
257.249	26.254	1460.558	1194.045
258.263	26.381	1459.815	1194.171
259.278	26.252	1458.658	1192.271
260.293	26.371	1458.018	1192.422
261.307	26.255	1457.665	1191.265
262.322	26.372	1456.519	1190.992
263.336	26.418	1455.847	1190.645
264.351	26.332	1455.000	1189.281
265.366	26.409	1453.714	1188.629
266.380	26.381	1453.260	1187.970
267.395	26.417	1451.856	1186.954
268.409	26.377	1451.441	1186.246
269.424	26.380	1450.591	1185.467
270.439	26.489	1449.182	1184.921
271.453	26.465	1448.750	1184.310
272.468	26.457	1448.135	1183.647
273.482	26.501	1447.469	1183.287
274.497	26.387	1446.615	1181.736
275.512	26.430	1445.920	1181.349
276.526	26.412	1445.364	1180.667
277.541	26.491	1444.740	1180.575
278.555	26.507	1443.199	1179.310
279.570	26.564	1442.460	1178.975
280.585	26.447	1442.203	1177.900
281.599	26.483	1441.051	1177.086
282.614	26.584	1439.764	1176.592
283.628	26.546	1438.821	1175.467
284.643	26.427	1438.274	1174.147
285.657	26.504	1437.199	1173.663
286.672	26.544	1436.408	1173.169
287.687	26.449	1435.961	1172.085
288.701	26.520	1434.425	1171.186
289.716	26.555	1434.060	1171.012
290.730	26.572	1433.437	1170.508
291.745	26.618	1432.560	1169.990
292.760	26.549	1431.869	1168.872
293.774	26.598	1430.778	1168.197
294.789	26.674	1429.781	1167.767
295.803	26.629	1429.057	1166.783
296.818	26.695	1428.472	1166.626
297.833	26.652	1427.553	1165.498
298.847	26.659	1426.902	1164.911
299.862	26.702	1425.629	1164.041
300.876	26.798	1424.798	1163.881
301.891	26.640	1424.510	1162.524
302.906	26.567	1424.069	1161.594
303.920	26.706	1422.925	1161.449
304.935	26.751	1422.381	1161.192
305.949	26.777	1421.729	1160.721
306.964	26.760	1420.726	1159.695
307.979	26.736	1420.031	1158.872
308.993	26.718	1418.990	1157.799
310.008	26.727	1418.071	1157.006
311.022	26.858	1416.926	1156.808
312.037	26.857	1416.202	1156.104
313.052	26.856	1415.509	1155.432
314.066	26.766	1415.048	1154.381
315.081	26.728	1413.820	1153.031
316.095	26.904	1412.560	1153.022
317.110	26.868	1411.756	1152.037
318.125	26.925	1410.851	1151.561
319.139	26.878	1410.190	1150.619
320.154	26.965	1409.381	1150.407
321.168	26.889	1408.460	1149.073
322.183	26.874	1407.661	1148.223
323.197	26.899	1407.043	1147.776
324.212	26.922	1405.532	1146.586
325.227	26.975	1404.949	1146.346
326.241	26.959	1404.067	1145.421
327.256	26.907	1403.451	1144.489
328.270	26.977	1403.208	1144.635
329.285	26.918	1402.762	1143.796
330.300	27.010	1401.531	1143.271
331.314	26.896	1400.962	1141.990
332.329	27.077	1399.359	1141.716
333.343	26.972	1399.107	1140.751
334.358	26.957	1398.618	1140.155
335.373	27.065	1397.540	1139.859
336.387	27.080	1396.886	1139.313
337.402	27.109	1396.215	1138.847
338.416	27.087	1395.702	1138.192
339.431	27.122	1395.112	1137.831
340.446	27.042	1394.749	1136.931
341.460	27.134	1393.857	1136.677
342.475	27.221	1392.625	1136.120
343.489	27.178	1391.588	1134.906
344.504	27.190	1390.946	1134.355
345.519	27.201	1389.710	1133.315
346.533	27.199	1388.902	1132.542
347.548	27.118	1388.391	1131.524
348.562	27.290	1387.258	1131.570
349.577	27.153	1386.867	1130.295
350.592	27.197	1385.936	1129.712
351.606	27.181	1385.334	1129.023
352.621	27.123	1384.313	1127.729
353.635	27.248	1383.059	1127.384
354.650	27.215	1382.533	1126.653
355.665	27.294	1381.836	1126.474
356.679	27.217	1380.795	1125.048
357.694	27.260	1379.826	1124.421
358.708	27.318	1378.835	1123.878
359.723	27.460	1377.028	1123.178
360.738	27.383	1376.060	1121.816
361.752	27.255	1375.284	1120.292
362.767	27.315	1374.437	1119.875
363.781	27.349	1373.090	1118.890
364.796	27.360	1372.912	1118.713
365.810	27.290	1372.316	1117.695
366.825	27.341	1371.519	1117.262
367.840	27.389	1370.732	1116.818
368.854	27.488	1369.905	1116.648
369.869	27.557	1369.321	1116.501
370.883	27.488	1368.662	1115.438
371.898	27.431	1368.482	1114.844
372.913	27.456	1367.721	1114.278
373.927	27.512	1366.644	1113.645
374.942	27.498	1365.902	1112.856
375.956	27.481	1365.247	1112.121
376.971	27.521	1364.538	1111.688
377.986	27.473	1363.850	1110.739
379.000	27.436	1363.125	1109.824
380.015	27.560	1362.368	1109.866
381.029	27.560	1361.822	1109.319
382.044	27.514	1361.369	1108.577
383.059	27.599	1360.387	1108.192
384.073	27.574	1359.560	1107.272
385.088	27.614	1358.937	1106.909
386.102	27.654	1358.282	1106.519
387.117	27.690	1357.603	1106.084
388.132	27.603	1357.512	1105.387
389.146	27.590	1356.430	1104.326
390.161	27.609	1355.630	1103.693
391.175	27.692	1354.993	1103.580
392.190	27.621	1354.408	1102.580
393.205	27.666	1353.189	1101.758
394.219	27.691	1352.463	1101.219
395.234	27.684	1351.820	1100.560
396.248	27.744	1350.814	1100.001
397.263	27.791	1349.301	1098.957
398.278	27.881	1348.144	1098.459
399.292	27.766	1347.485	1097.135
400.307	27.771	1346.619	1096.359
401.321	27.867	1345.982	1096.320
402.336	27.873	1344.510	1095.062
403.350	27.816	1343.644	1093.918
404.365	27.779	1343.228	1093.259
405.380	27.878	1342.351	1093.042
406.394	27.834	1341.558	1092.039
407.409	27.825	1340.850	1091.308
408.423	27.908	1340.228	1091.206
409.438	27.972	1339.243	1090.687
410.453	27.996	1338.515	1090.143
411.467	28.102	1337.969	1090.232
412.482	27.942	1337.426	1088.738
413.496	27.969	1336.525	1088.072
414.511	27.929	1335.963	1087.276
415.526	27.990	1335.381	1087.074
416.540	27.985	1334.714	1086.402
417.555	27.997	1333.689	1085.542
418.569	27.979	1333.131	1084.886
419.584	28.002	1332.642	1084.529
420.599	27.982	1332.375	1084.097
421.613	69.303	1307.396	1297.661
422.628	70.008	1303.757	1297.794
