DTS Sentinel unit serial number:	SN413079Multiplexer serial number:	ORYXHardware model number:	OX4-SRSoftware version number:	ORYX F/W v4.00 Oryx Data Collector v3.7.2.0data status	okinstallation	princeton_trtdifferential loss correction	single-endedforward channel	channel 4reverse channel	N/Adate	2019/09/11time	18:39:11forward acquisition time	60.00reverse acquisition time	0.00gamma	496.2192k internal	0.2278k external	0.2278temperature offset calibration	1.0029default loss term (dB/km)	0.3790temperature slope calibration	1.0000multiplexer offset coefficient	1.0000multiplexer slope coefficient	1.0000fibre end	0.00T internal ref (°C)	43.52T ext. ref 1 (°C)	1.22T ext. ref 2 (°C)	36.08length (m)	temperature (°C)	Stokes	anti-Stokes-747.200	74.140	-0.154	0.167
-746.185	-200.000	0.046	0.245
-745.171	800.000	0.078	-0.309
-744.156	585.303	-0.106	0.269
-743.142	800.000	-0.058	-0.189
-742.127	102.769	0.216	0.260
-741.112	-74.622	0.426	0.158
-740.098	180.974	-0.167	0.253
-739.083	-66.896	0.074	0.030
-738.069	800.000	-0.106	0.334
-737.054	800.000	0.037	-0.153
-736.039	330.110	-0.090	-0.178
-735.025	-200.000	-0.017	-0.080
-734.010	800.000	-0.087	-0.272
-732.996	-200.000	0.008	-0.142
-731.981	800.000	-0.093	-0.302
-730.966	124.186	-0.189	0.245
-729.952	800.000	0.011	-0.037
-728.937	148.747	-0.430	-0.598
-727.923	29.085	-0.151	-0.132
-726.908	131.002	-0.189	0.250
-725.894	-81.811	0.075	-0.025
-724.879	436.063	0.035	-0.078
-723.864	-43.981	-0.155	-0.080
-722.850	-131.363	0.402	0.055
-721.835	800.000	0.053	0.236
-720.821	-93.057	-0.070	0.020
-719.806	-8.856	0.063	0.044
-718.791	24.985	0.120	0.102
-717.777	637.778	-0.084	-0.220
-716.762	457.838	-0.213	-0.486
-715.748	34.667	-0.104	-0.093
-714.733	266.949	-0.052	0.093
-713.718	405.777	0.138	-0.299
-712.704	-95.446	-0.326	0.090
-711.689	-113.418	-0.079	-0.016
-710.675	30.637	0.120	0.106
-709.660	-138.053	-0.159	0.018
-708.645	73.531	-0.125	0.134
-707.631	-18.051	-0.135	0.087
-706.616	-200.000	0.001	-0.108
-705.602	-65.479	-0.095	0.039
-704.587	-121.417	-0.332	-0.057
-703.572	60.109	-0.246	-0.250
-702.558	209.761	0.074	-0.120
-701.543	29.207	0.323	0.282
-700.529	-89.120	-0.412	0.125
-699.514	31.636	-0.293	-0.259
-698.499	-69.083	0.393	-0.155
-697.485	-145.530	-0.268	0.025
-696.470	-200.000	0.000	-0.171
-695.456	308.463	0.060	0.116
-694.441	-88.302	-0.074	0.023
-693.426	333.214	-0.102	-0.202
-692.412	113.966	0.245	0.306
-691.397	800.000	0.069	0.215
-690.383	748.659	0.059	-0.163
-689.368	41.089	-0.100	-0.093
-688.354	716.490	-0.077	-0.211
-687.339	-23.521	0.085	0.052
-686.324	-120.773	0.217	-0.038
-685.310	262.490	-0.041	0.072
-684.295	-122.007	0.129	-0.022
-683.281	-200.000	-0.018	0.301
-682.266	-54.083	-0.181	-0.084
-681.251	383.025	-0.035	-0.075
-680.237	0.564	-0.181	-0.133
-679.222	-142.288	0.277	-0.028
-678.208	-113.305	0.236	0.048
-677.193	111.119	-0.120	0.149
-676.178	75.547	0.290	0.314
-675.164	-1.353	-0.091	0.066
-674.149	-137.759	-0.186	-0.021
-673.135	-47.534	0.281	-0.140
-672.120	10.518	-0.329	-0.258
-671.105	-200.000	0.002	-0.054
-670.091	-1.276	-0.235	0.170
-669.076	11.600	0.061	0.048
-668.062	126.257	0.095	-0.123
-667.047	-153.602	0.316	0.022
-666.032	-200.000	-0.058	-0.513
-665.018	69.255	-0.202	-0.213
-664.003	-17.928	0.126	-0.081
-662.989	-28.631	-0.253	-0.149
-661.974	-151.008	-0.230	0.018
-660.959	-146.142	-0.140	0.013
-659.945	18.484	-0.009	-0.007
-658.930	-54.595	0.090	0.042
-657.916	-32.752	-0.054	0.031
-656.901	9.507	-0.370	0.287
-655.886	-79.034	-0.070	-0.025
-654.872	-138.080	-0.080	-0.009
-653.857	116.277	-0.255	0.320
-652.843	-200.000	0.009	0.156
-651.828	-138.355	-0.141	-0.016
-650.814	-200.000	-0.028	-0.191
-649.799	-74.063	-0.336	-0.125
-648.784	312.838	0.045	0.087
-647.770	-39.434	0.210	0.113
-646.755	73.595	-0.225	-0.242
-645.741	-94.699	0.324	0.090
-644.726	-200.000	-0.014	0.123
-643.711	37.941	-0.088	-0.081
-642.697	-200.000	-0.007	-0.175
-641.682	-64.345	-0.261	-0.109
-640.668	33.927	0.138	0.123
-639.653	-94.606	0.118	0.033
-638.638	-118.585	-0.167	0.030
-637.624	147.905	-0.073	0.100
-636.609	232.301	-0.040	0.067
-635.595	800.000	-0.036	-0.139
-634.580	-5.015	0.216	-0.152
-633.565	-123.678	0.350	-0.057
-632.551	109.894	-0.200	-0.247
-631.536	298.353	-0.134	-0.253
-630.522	305.226	0.157	-0.298
-629.507	-200.000	0.013	-0.212
-628.492	-23.978	-0.251	0.154
-627.478	-85.991	0.495	0.157
-626.463	449.630	0.093	0.210
-625.449	800.000	-0.064	-0.216
-624.434	167.442	0.077	0.112
-623.419	-163.674	-0.276	0.013
-622.405	-65.344	-0.389	-0.161
-621.390	800.000	-0.097	0.276
-620.376	-4.514	0.198	-0.140
-619.361	241.340	-0.146	0.250
-618.346	565.985	-0.207	-0.515
-617.332	-79.903	0.088	0.030
-616.317	800.000	0.027	0.084
-615.303	-96.640	-0.297	0.080
-614.288	424.963	0.044	-0.096
-613.273	644.409	-0.066	-0.173
-612.259	-18.577	0.183	0.117
-611.244	403.055	-0.031	-0.066
-610.230	124.277	0.028	0.036
-609.215	-44.876	0.287	-0.146
-608.201	76.950	-0.191	-0.208
-607.186	396.450	0.071	0.152
-606.171	13.662	-0.058	0.046
-605.157	-200.000	0.018	-0.349
-604.142	85.345	-0.060	0.068
-603.128	243.502	-0.177	-0.304
-602.113	-48.169	0.432	0.213
-601.098	21.241	-0.182	0.152
-600.084	110.438	0.085	0.105
-599.069	-51.220	-0.228	-0.109
-598.055	-7.055	-0.137	0.095
-597.040	-200.000	-0.003	0.058
-596.025	-121.260	0.212	0.036
-595.011	-61.705	-0.184	0.079
-593.996	-154.966	0.189	-0.013
-592.982	-163.335	0.164	0.008
-591.967	-171.043	-0.150	0.005
-590.952	32.497	-0.165	0.146
-589.938	94.654	-0.136	0.159
-588.923	-200.000	-0.022	-0.133
-587.909	183.797	-0.148	0.224
-586.894	-200.000	0.023	-0.131
-585.879	-122.553	0.284	-0.047
-584.865	-90.100	0.178	-0.053
-583.850	-70.261	-0.320	0.124
-582.836	-21.062	-0.168	0.105
-581.821	316.103	0.125	-0.241
-580.806	-135.369	0.122	0.015
-579.792	224.583	0.055	-0.092
-578.777	-38.532	0.284	0.153
-577.763	-53.989	-0.386	-0.180
-576.748	382.525	-0.031	0.065
-575.733	-47.781	0.232	-0.115
-574.719	-29.886	-0.070	0.041
-573.704	-130.236	-0.143	-0.020
-572.690	-53.240	0.127	0.060
-571.675	-4.113	0.132	0.093
-570.661	338.420	-0.098	-0.195
-569.646	-99.582	-0.222	-0.057
-568.631	-110.558	-0.266	0.056
-567.617	-164.240	0.054	0.003
-566.602	85.779	-0.111	-0.125
-565.588	-67.916	0.191	0.076
-564.573	-164.340	-0.136	0.006
-563.558	-200.000	-0.014	0.226
-562.544	800.000	0.138	0.395
-561.529	159.369	-0.097	-0.138
-560.515	-19.807	-0.158	0.100
-559.500	276.405	-0.056	-0.101
-558.485	142.338	0.048	-0.065
-557.471	-135.305	0.117	-0.014
-556.456	381.209	-0.227	-0.477
-555.442	-40.325	-0.229	0.122
-554.427	-20.558	-0.274	-0.172
-553.412	-77.765	0.306	0.108
-552.398	-107.553	-0.090	0.020
-551.383	-114.470	-0.304	0.060
-550.369	-200.000	0.003	0.119
-549.354	-148.870	-0.172	0.014
-548.339	-200.000	-0.004	0.212
-547.325	-94.824	-0.209	-0.058
-546.310	-4.286	-0.071	-0.050
-545.296	-41.418	-0.120	-0.063
-544.281	-200.000	0.005	0.043
-543.266	10.286	-0.346	0.269
-542.252	800.000	0.039	0.165
-541.237	-74.023	0.152	0.056
-540.223	226.162	-0.043	0.072
-539.208	800.000	0.065	0.207
-538.193	577.109	-0.141	-0.352
-537.179	294.581	0.095	-0.177
-536.164	385.326	-0.148	0.311
-535.150	-200.000	-0.043	0.194
-534.135	-8.068	-0.115	0.079
-533.121	136.577	-0.063	-0.084
-532.106	-90.537	-0.242	0.072
-531.091	800.000	-0.088	0.360
-530.077	-98.248	-0.498	0.130
-529.062	479.163	0.189	0.437
-528.048	137.737	0.024	-0.032
-527.033	115.285	0.136	0.170
-526.018	-200.000	0.016	0.121
-525.004	81.640	-0.253	0.279
-523.989	-57.551	0.088	-0.039
-522.975	800.000	-0.032	-0.130
-521.960	159.735	0.117	-0.166
-520.945	-200.000	0.053	-0.271
-519.931	97.711	0.209	0.246
-518.916	-55.772	-0.052	-0.024
-517.902	-200.000	-0.077	0.344
-516.887	75.082	-0.323	-0.348
-515.872	-78.582	0.190	0.066
-514.858	-78.503	-0.174	-0.061
-513.843	-32.397	-0.374	-0.213
-512.829	-3.846	0.063	0.045
-511.814	-42.074	0.115	0.060
-510.799	-36.946	-0.086	0.047
-509.785	159.776	0.186	-0.265
-508.770	164.433	-0.066	0.095
-507.756	589.861	-0.079	-0.198
-506.741	-62.915	-0.151	-0.064
-505.726	284.727	0.185	-0.339
-504.712	-200.000	-0.062	-0.297
-503.697	800.000	0.020	0.081
-502.683	107.316	0.057	-0.069
-501.668	-90.584	-0.094	-0.028
-500.653	800.000	0.045	-0.158
-499.639	656.545	-0.097	-0.253
-498.624	-200.000	0.009	-0.350
-497.610	-103.336	0.102	0.025
-496.595	-200.000	-0.044	0.205
-495.581	-200.000	-0.055	-0.319
-494.566	-129.137	-0.169	0.024
-493.551	-66.971	0.422	-0.170
-492.537	109.558	-0.164	0.200
-491.522	-70.062	-0.211	-0.082
-490.508	579.587	0.107	-0.268
-489.493	40.334	0.238	0.219
-488.478	14.484	0.104	0.083
-487.464	-200.000	-0.024	0.212
-486.449	407.269	0.127	0.273
-485.435	230.222	0.058	-0.097
-484.420	237.189	0.123	0.207
-483.405	8.016	0.239	-0.183
-482.391	77.416	0.106	0.115
-481.376	800.000	0.079	0.271
-480.362	40.094	0.104	-0.095
-479.347	7.436	-0.089	-0.067
-478.332	309.481	0.169	0.323
-477.318	-200.000	-0.061	-0.308
-476.303	-49.584	-0.230	0.112
-475.289	-60.316	-0.172	0.075
-474.274	380.827	0.035	-0.074
-473.259	177.614	-0.170	-0.253
-472.245	800.000	-0.085	0.250
-471.230	-76.882	0.275	0.098
-470.216	800.000	0.052	0.159
-469.201	-200.000	-0.068	-0.402
-468.186	800.000	-0.031	0.095
-467.172	496.558	-0.026	0.060
-466.157	749.113	-0.076	0.209
-465.143	-200.000	-0.018	-0.347
-464.128	-65.780	0.345	0.141
-463.113	-160.231	0.242	0.013
-462.099	-39.576	0.270	0.144
-461.084	119.480	-0.129	0.163
-460.070	33.504	-0.303	-0.268
-459.055	-12.385	-0.229	0.152
-458.040	81.484	-0.101	0.111
-457.026	447.801	-0.082	-0.184
-456.011	163.579	0.051	0.073
-454.997	-96.700	0.271	-0.073
-453.982	-122.265	-0.121	0.020
-452.968	-45.627	-0.027	-0.013
-451.953	-126.748	-0.228	-0.034
-450.938	-200.000	-0.027	-0.181
-449.924	800.000	0.029	-0.113
-448.909	72.020	-0.042	0.044
-447.895	95.306	0.013	-0.015
-446.880	16.855	0.159	-0.128
-445.865	38.738	-0.148	0.134
-444.851	10.964	0.214	0.167
-443.836	97.966	0.322	-0.377
-442.822	-65.908	0.138	-0.056
-441.807	-13.890	-0.330	-0.217
-440.792	800.000	-0.154	0.444
-439.778	-76.348	-0.064	0.023
-438.763	-200.000	-0.056	-0.402
-437.749	25.902	0.291	-0.247
-436.734	162.892	-0.274	-0.391
-435.719	236.148	-0.147	-0.248
-434.705	800.000	0.096	-0.296
-433.690	-200.000	0.046	0.254
-432.676	-200.000	-0.031	-0.293
-431.661	-125.093	0.192	-0.030
-430.646	-53.456	-0.127	-0.059
-429.632	353.403	-0.073	0.148
-428.617	49.454	0.124	-0.119
-427.603	-137.897	-0.144	0.016
-426.588	-58.420	-0.069	0.031
-425.573	233.309	-0.234	-0.392
-424.559	49.651	-0.237	0.227
-423.544	800.000	0.041	-0.183
-422.530	383.855	0.215	-0.451
-421.515	306.180	-0.056	-0.107
-420.500	-200.000	0.049	0.226
-419.486	800.000	0.132	-0.564
-418.471	800.000	-0.025	0.100
-417.457	397.464	-0.162	-0.345
-416.442	-7.849	0.244	-0.167
-415.428	401.309	-0.069	0.146
-414.413	114.410	0.062	0.077
-413.398	-31.770	0.032	-0.018
-412.384	-108.113	0.337	-0.074
-411.369	800.000	0.079	-0.222
-410.355	48.851	-0.335	0.319
-409.340	-117.243	-0.018	-0.003
-408.325	-200.000	-0.034	0.190
-407.311	80.822	-0.303	0.332
-406.296	-135.080	0.141	-0.017
-405.282	61.044	-0.341	-0.344
-404.267	-200.000	-0.034	-0.169
-403.252	-82.116	0.248	0.082
-402.238	800.000	-0.068	-0.197
-401.223	94.968	-0.084	-0.097
-400.209	-200.000	0.057	-0.530
-399.194	-49.305	-0.342	-0.166
-398.179	399.583	-0.058	0.123
-397.165	-200.000	0.004	0.041
-396.150	188.542	0.242	0.367
-395.136	-121.704	-0.163	-0.027
-394.121	-200.000	0.009	0.080
-393.106	409.243	0.078	-0.168
-392.092	-100.953	-0.249	0.062
-391.077	311.398	-0.124	-0.236
-390.063	-131.097	0.108	-0.015
-389.048	108.810	0.164	0.200
-388.033	391.688	0.155	0.327
-387.019	-200.000	0.233	0.001
-386.004	-200.000	-0.005	-0.117
-384.990	-168.584	0.211	0.008
-383.975	-200.000	0.058	-0.275
-382.960	-141.661	-0.161	0.016
-381.946	-57.594	-0.215	-0.096
-380.931	-62.843	-0.311	0.131
-379.917	-44.095	0.269	0.137
-378.902	215.303	0.116	0.187
-377.888	185.680	0.081	0.123
-376.873	722.552	0.029	0.077
-375.858	800.000	0.060	0.216
-374.844	-121.412	-0.051	0.009
-373.829	-200.000	0.012	0.183
-372.815	283.611	0.082	0.149
-371.800	-145.494	0.237	-0.022
-370.785	8.460	-0.156	-0.119
-369.771	94.795	-0.150	-0.173
-368.756	178.753	0.182	0.269
-367.742	61.369	0.138	-0.139
-366.727	-99.002	0.219	-0.056
-365.712	65.179	-0.217	0.223
-364.698	241.882	-0.170	0.288
-363.683	-32.089	-0.241	-0.136
-362.669	6.750	-0.257	0.194
-361.654	-56.348	0.318	0.143
-360.639	344.318	0.082	-0.164
-359.625	128.843	0.077	0.100
-358.610	-64.830	-0.208	0.085
-357.596	545.300	-0.061	-0.149
-356.581	150.163	0.288	-0.397
-355.566	-9.797	0.195	-0.132
-354.552	298.709	-0.073	0.136
-353.537	800.000	0.043	0.122
-352.523	104.068	0.146	0.174
-351.508	33.770	-0.301	0.266
-350.493	800.000	-0.027	0.092
-349.479	29.504	0.216	-0.186
-348.464	-137.567	-0.170	0.019
-347.450	-82.167	0.276	0.091
-346.435	800.000	-0.089	-0.278
-345.420	800.000	0.071	-0.206
-344.406	-200.000	0.031	0.150
-343.391	-14.471	-0.021	-0.014
-342.377	58.596	-0.084	-0.084
-341.362	41.383	0.162	-0.149
-340.348	416.723	0.088	0.190
-339.333	706.833	-0.122	0.326
-338.318	-54.186	0.309	0.142
-337.304	-33.298	0.269	-0.151
-336.289	-76.608	-0.206	0.073
-335.275	62.767	-0.167	-0.169
-334.260	19.093	0.166	-0.135
-333.245	4.582	0.124	-0.092
-332.231	-57.648	0.229	0.102
-331.216	24.264	-0.192	0.161
-330.202	-6.704	0.336	-0.232
-329.187	-74.959	0.454	-0.165
-328.172	-200.000	-0.008	0.261
-327.158	-76.752	-0.218	0.077
-326.143	800.000	-0.108	-0.321
-325.129	800.000	0.067	-0.262
-324.114	-151.395	0.185	0.014
-323.099	-200.000	0.027	0.316
-322.085	125.927	0.144	-0.184
-321.070	-200.000	-0.002	-0.208
-320.056	-10.911	-0.268	0.179
-319.041	-125.942	-0.046	-0.007
-318.026	10.818	-0.068	0.053
-317.012	85.706	0.067	-0.074
-315.997	-97.892	0.191	-0.050
-314.983	594.936	-0.081	-0.203
-313.968	203.483	-0.049	0.077
-312.953	270.446	0.215	-0.382
-311.939	-200.000	0.021	-0.199
-310.924	-200.000	-0.081	-0.361
-309.910	330.115	-0.111	-0.215
-308.895	-200.000	-0.022	0.196
-307.880	166.030	0.051	0.074
-306.866	-43.507	0.322	0.165
-305.851	-156.448	0.296	0.019
-304.837	-149.290	0.281	0.023
-303.822	-200.000	0.038	-0.660
-302.807	170.543	0.105	0.153
-301.793	73.649	0.180	0.191
-300.778	11.565	-0.236	0.183
-299.764	80.531	-0.099	-0.108
-298.749	81.286	0.180	0.196
-297.735	641.038	-0.084	0.217
-296.720	-200.000	0.024	-0.124
-295.705	-69.423	0.140	0.055
-294.691	800.000	0.034	0.138
-293.676	-200.000	0.007	-0.242
-292.662	-90.838	0.184	-0.054
-291.647	-145.282	0.488	-0.045
-290.632	-131.608	0.268	0.036
-289.618	-186.443	0.339	0.005
-288.603	-163.898	0.131	-0.006
-287.589	-47.942	0.121	0.059
-286.574	-49.359	0.156	0.075
-285.559	30.667	-0.215	0.186
-284.545	-200.000	0.042	0.223
-283.530	-87.198	0.211	0.065
-282.516	-200.000	-0.036	-0.171
-281.501	-200.000	-0.047	0.272
-280.486	96.090	-0.397	-0.458
-279.472	800.000	-0.090	-0.389
-278.457	-200.000	0.001	-0.174
-277.443	170.171	0.122	0.176
-276.428	338.922	0.085	-0.168
-275.413	-52.516	0.266	-0.124
-274.399	-144.953	0.355	0.033
-273.384	-103.181	-0.106	-0.025
-272.370	121.136	-0.247	-0.311
-271.355	31.480	0.234	-0.203
-270.340	-39.193	0.172	0.092
-269.326	59.752	-0.144	0.144
-268.311	800.000	-0.119	0.490
-267.297	781.091	0.067	-0.184
-266.282	-200.000	0.009	-0.088
-265.267	25.035	-0.145	0.122
-264.253	334.790	-0.115	0.224
-263.238	800.000	-0.092	0.305
-262.224	-200.000	-0.045	-0.244
-261.209	-165.772	-0.218	0.010
-260.195	114.847	-0.159	0.196
-259.180	9.411	0.191	0.146
-258.165	-154.544	-0.334	0.023
-257.151	-184.942	0.119	-0.002
-256.136	-62.979	0.318	0.133
-255.122	-200.000	-0.059	-0.321
-254.107	568.168	0.059	0.144
-253.092	26.992	0.276	0.234
-252.078	255.188	-0.139	0.240
-251.063	-24.020	0.239	0.144
-250.049	-80.434	-0.365	0.123
-249.034	-124.760	0.204	0.032
-248.019	190.088	-0.042	0.063
-247.005	114.818	0.148	-0.182
-245.990	-108.038	0.474	0.104
-244.976	-109.713	-0.167	-0.036
-243.961	-200.000	0.012	0.106
-242.946	138.164	-0.076	0.101
-241.932	35.058	-0.189	0.167
-240.917	800.000	0.038	0.108
-239.903	-33.663	0.126	-0.070
-238.888	-200.000	0.005	-0.196
-237.873	-200.000	-0.020	-0.145
-236.859	485.617	-0.190	0.438
-235.844	800.000	-0.046	0.184
-234.830	268.534	0.132	-0.234
-233.815	-200.000	0.018	-0.132
-232.800	800.000	0.086	0.252
-231.786	-25.807	0.118	0.070
-230.771	-200.000	0.008	-0.217
-229.757	-113.567	-0.146	-0.029
-228.742	800.000	-0.052	0.206
-227.727	-200.000	-0.027	-0.253
-226.713	-15.869	-0.269	-0.173
-225.698	-200.000	-0.100	0.482
-224.684	-119.983	-0.314	-0.054
-223.669	-53.451	-0.217	0.100
-222.655	-200.000	0.095	-0.424
-221.640	-200.000	0.024	0.172
-220.625	28.096	-0.205	0.174
-219.611	-200.000	0.001	-0.092
-218.596	-44.429	0.219	0.111
-217.582	105.851	-0.287	0.342
-216.567	185.131	-0.119	0.178
-215.552	800.000	0.060	0.254
-214.538	-200.000	0.015	0.240
-213.523	-45.235	-0.065	0.033
-212.509	16.495	0.332	0.264
-211.494	92.939	-0.062	0.071
-210.479	-107.537	-0.204	0.045
-209.465	800.000	0.105	0.329
-208.450	127.279	-0.123	0.157
-207.436	42.981	-0.148	0.136
-206.421	124.702	-0.249	-0.316
-205.406	-200.000	-0.063	0.347
-204.392	-200.000	0.020	-0.152
-203.377	800.000	-0.087	-0.327
-202.363	-69.471	-0.094	0.036
-201.348	56.237	-0.224	0.220
-200.333	-61.166	0.240	-0.102
-199.319	-82.426	0.257	0.084
-198.304	251.702	0.093	-0.160
-197.290	85.670	0.055	0.061
-196.275	-95.074	-0.068	-0.018
-195.260	95.422	-0.110	0.126
-194.246	800.000	-0.027	-0.082
-193.231	-30.050	0.161	0.092
-192.217	-200.000	0.003	-0.158
-191.202	-149.997	0.166	-0.013
-190.187	0.980	0.067	0.049
-189.173	-96.491	0.126	0.033
-188.158	-200.000	0.013	0.078
-187.144	-1.664	-0.137	-0.097
-186.129	11.853	0.249	0.193
-185.114	-115.729	0.195	0.037
-184.100	-200.000	0.039	0.183
-183.085	-166.851	-0.093	0.004
-182.071	-111.190	0.346	0.071
-181.056	800.000	0.042	0.123
-180.042	-115.651	-0.255	-0.048
-179.027	-102.874	0.099	-0.024
-178.012	-117.532	0.467	0.085
-176.998	800.000	-0.078	-0.274
-175.983	33.215	-0.157	0.137
-174.969	-200.000	0.015	0.162
-173.954	-43.255	-0.282	0.144
-172.939	-200.000	0.001	-0.118
-171.925	-142.277	0.116	0.012
-170.910	-200.000	0.025	0.282
-169.896	71.272	-0.101	-0.105
-168.881	41.065	0.091	0.083
-167.866	93.522	-0.221	-0.252
-166.852	-96.707	-0.097	-0.026
-165.837	46.426	0.230	-0.215
-164.823	134.750	0.155	-0.203
-163.808	-200.000	-0.002	-0.029
-162.793	-47.044	-0.126	-0.062
-161.779	-5.641	0.062	0.043
-160.764	331.029	-0.039	-0.076
-159.750	800.000	0.036	-0.113
-158.735	244.182	0.124	0.210
-157.720	-47.647	-0.134	0.066
-156.706	-114.655	-0.430	0.083
-155.691	-149.539	0.203	0.016
-154.677	319.217	-0.101	0.193
-153.662	356.512	0.086	0.173
-152.647	-170.614	-0.221	0.008
-151.633	-46.845	-0.045	-0.022
-150.618	-22.882	0.085	-0.052
-149.604	134.768	0.140	0.183
-148.589	-90.078	0.118	-0.035
-147.574	-17.114	-0.168	-0.106
-146.560	289.759	0.186	-0.339
-145.545	459.261	0.077	-0.173
-144.531	-61.820	-0.190	0.080
-143.516	800.000	-0.031	0.129
-142.502	336.739	0.052	0.101
-141.487	76.521	0.137	-0.146
-140.472	119.500	-0.165	0.206
-139.458	317.664	-0.101	-0.191
-138.443	167.203	-0.148	-0.211
-137.429	-18.907	0.153	-0.096
-136.414	217.262	-0.100	0.159
-135.399	708.191	0.083	0.220
-134.385	-200.000	0.017	-0.076
-133.370	97.662	0.181	-0.209
-132.356	-46.084	0.224	-0.111
-131.341	800.000	0.134	-0.410
-130.326	-22.885	-0.128	0.078
-129.312	743.148	0.027	-0.074
-128.297	-200.000	-0.023	0.449
-127.283	-61.346	0.161	0.068
-126.268	-67.973	0.211	-0.083
-125.253	3.997	-0.314	0.231
-124.239	-104.623	-0.144	-0.033
-123.224	-76.138	0.106	0.037
-122.210	-51.780	0.266	0.124
-121.195	-200.000	-0.006	-0.040
-120.180	-113.973	0.084	-0.016
-119.166	-145.245	0.421	-0.038
-118.151	-122.845	0.143	0.023
-117.137	-132.573	0.222	-0.029
-116.122	304.042	0.125	0.233
-115.107	-200.000	0.019	0.451
-114.093	332.754	-0.052	0.100
-113.078	316.420	-0.116	0.221
-112.064	-200.000	0.014	-0.127
-111.049	-200.000	-0.009	0.267
-110.034	-200.000	0.029	0.137
-109.020	800.000	-0.093	0.282
-108.005	296.223	0.096	-0.176
-106.991	-82.401	-0.266	-0.087
-105.976	-200.000	-0.031	0.194
-104.962	170.490	0.102	0.147
-103.947	-200.000	-0.006	0.045
-102.932	-48.041	0.195	0.095
-101.918	800.000	-0.076	-0.270
-100.903	34.661	0.056	0.049
-99.889	-6.895	0.371	0.254
-98.874	132.000	-0.186	-0.240
-97.859	-104.621	0.213	-0.049
-96.845	63.012	-0.049	0.049
-95.830	689.550	0.072	0.189
-94.816	223.800	-0.119	0.193
-93.801	382.769	0.201	-0.414
-92.786	-43.674	0.095	0.048
-91.772	-21.588	-0.243	0.149
-90.757	-200.000	0.008	0.179
-89.743	121.210	-0.046	0.057
-88.728	685.524	0.049	0.129
-87.713	800.000	0.041	0.133
-86.699	343.276	-0.092	-0.182
-85.684	-35.513	0.296	-0.162
-84.670	14.286	-0.109	-0.086
-83.655	190.307	-0.153	0.230
-82.640	800.000	0.084	-0.300
-81.626	-193.805	0.282	0.002
-80.611	800.000	0.142	0.532
-79.597	-72.756	0.236	0.087
-78.582	-200.000	-0.025	-0.213
-77.567	-55.217	0.251	-0.113
-76.553	800.000	0.092	0.309
-75.538	-93.975	0.021	-0.006
-74.524	-200.000	-0.003	-0.060
-73.509	-61.282	0.288	0.122
-72.494	206.074	-0.150	0.234
-71.480	-200.000	-0.092	0.418
-70.465	21.384	0.236	-0.192
-69.451	216.184	0.278	0.443
-68.436	419.126	-0.080	0.173
-67.422	-200.000	-0.048	-0.311
-66.407	-200.000	0.016	0.263
-65.392	-200.000	-0.004	0.188
-64.378	736.114	-0.067	-0.179
-63.363	-93.888	0.144	-0.040
-62.349	636.008	0.112	0.286
-61.334	114.794	-0.585	-0.716
-60.319	-13.033	0.362	0.236
-59.305	-200.000	-0.101	-0.468
-58.290	313.085	0.391	0.736
-57.276	800.000	0.376	1.418
-56.261	-200.000	74.749	559.252
-55.246	583.345	1296.439	3190.596
-54.232	143.278	2525.391	3369.268
-53.217	112.442	2366.406	2870.072
-52.203	50.969	2103.687	1998.787
-51.188	45.686	2011.024	1862.813
-50.173	43.753	1992.277	1827.935
-49.159	55.876	2028.815	1971.934
-48.144	61.649	2048.648	2043.594
-47.130	46.498	2013.742	1872.418
-46.115	43.616	2002.763	1836.024
-45.100	43.541	2000.016	1832.752
-44.086	43.471	1997.785	1829.996
-43.071	43.391	1995.683	1827.275
-42.057	43.374	1993.838	1825.364
-41.042	43.460	1991.130	1823.589
-40.027	43.516	1989.090	1822.153
-39.013	43.520	1987.550	1820.701
-37.998	43.479	1985.696	1818.560
-36.984	43.454	1983.968	1816.682
-35.969	43.471	1982.168	1815.112
-34.954	43.549	1980.477	1814.198
-33.940	43.506	1979.122	1812.501
-32.925	43.551	1977.312	1811.172
-31.911	43.522	1975.254	1808.958
-30.896	43.511	1973.679	1807.337
-29.881	43.535	1972.790	1806.673
-28.867	43.552	1970.174	1804.358
-27.852	43.613	1968.353	1803.155
-26.838	43.565	1966.746	1801.190
-25.823	43.630	1964.520	1799.652
-24.809	43.602	1963.205	1798.131
-23.794	43.599	1961.522	1796.489
-22.779	43.569	1959.762	1794.538
-21.765	43.475	1958.149	1792.160
-20.750	43.576	1956.511	1791.486
-19.736	43.526	1955.178	1789.746
-18.721	43.459	1953.590	1787.636
-17.706	43.500	1951.895	1786.373
-16.692	43.441	1950.345	1784.365
-15.677	43.546	1948.204	1783.256
-14.663	43.545	1946.630	1781.743
-13.648	43.512	1945.662	1780.495
-12.633	43.506	1944.410	1779.219
-11.619	43.568	1943.168	1778.558
-10.604	43.529	1941.368	1776.496
-9.590	43.402	1940.798	1774.794
-8.575	43.466	1938.718	1773.378
-7.560	43.491	1937.713	1772.614
-6.546	43.461	1936.319	1771.006
-5.531	43.561	1934.924	1770.535
-4.517	43.488	1933.726	1768.725
-3.502	43.523	1932.653	1767.979
-2.487	43.423	1931.541	1766.016
-1.473	43.474	1930.160	1765.130
-0.458	43.610	1925.478	1761.964
0.556	42.376	1905.146	1730.360
1.571	37.273	1881.826	1665.408
2.586	32.118	1900.666	1637.138
3.600	30.391	1936.790	1652.745
4.615	29.363	1934.075	1641.140
5.629	22.301	1829.746	1492.789
6.644	9.039	1699.997	1281.555
7.659	1.978	1653.417	1191.330
8.673	1.298	1649.786	1183.308
9.688	1.309	1647.757	1181.834
10.702	1.224	1646.231	1179.973
11.717	1.031	1643.742	1176.587
12.731	1.429	1643.106	1179.122
13.746	8.810	1661.163	1249.717
14.761	19.733	1685.904	1354.252
15.775	24.720	1693.387	1399.276
16.790	25.115	1694.057	1402.794
17.804	25.233	1693.605	1403.219
18.819	25.224	1692.364	1401.992
19.834	25.329	1691.597	1402.058
20.848	25.451	1691.755	1403.012
21.863	25.549	1690.432	1402.557
22.877	25.520	1689.583	1401.501
23.892	25.680	1688.343	1401.595
24.907	25.638	1687.166	1400.168
25.921	25.537	1686.871	1399.017
26.936	25.550	1685.751	1398.061
27.950	25.626	1684.149	1397.206
28.965	25.498	1684.418	1396.310
29.980	25.506	1683.426	1395.421
30.994	25.578	1682.120	1394.777
32.009	25.583	1680.439	1393.299
33.023	25.570	1679.778	1392.524
34.038	25.547	1679.184	1391.732
35.053	25.532	1678.001	1390.510
36.067	25.590	1676.669	1389.735
37.082	25.579	1676.310	1389.232
38.096	25.569	1675.069	1388.001
39.111	25.575	1674.194	1387.195
40.126	25.574	1673.553	1386.538
41.140	25.540	1673.083	1385.765
42.155	25.632	1671.423	1384.969
43.169	25.593	1670.287	1383.608
44.184	25.545	1669.703	1382.632
45.199	25.483	1668.807	1381.295
46.213	25.561	1667.479	1380.667
47.228	25.594	1665.958	1379.541
48.242	25.533	1664.953	1378.123
49.257	25.477	1663.940	1376.731
50.271	25.491	1662.891	1375.845
51.286	25.517	1661.658	1374.904
52.301	25.518	1660.637	1373.945
53.315	25.621	1658.399	1372.762
54.330	25.507	1657.145	1370.728
55.344	25.528	1656.167	1369.961
56.359	25.583	1654.714	1369.055
57.374	25.613	1653.213	1367.922
58.388	25.554	1652.757	1366.975
59.403	25.531	1651.668	1365.780
60.417	25.668	1649.951	1365.274
61.432	25.555	1649.787	1364.165
62.447	25.649	1648.194	1363.439
63.461	25.584	1647.243	1362.037
64.476	25.527	1646.817	1361.136
65.490	25.622	1645.178	1360.378
66.505	25.696	1643.699	1359.595
67.520	25.571	1643.731	1358.552
68.534	25.646	1642.594	1358.059
69.549	25.604	1641.528	1356.744
70.563	25.662	1640.118	1355.891
71.578	25.525	1639.366	1354.121
72.593	25.579	1638.136	1353.393
73.607	25.699	1636.853	1353.110
74.622	25.600	1636.308	1351.800
75.636	25.648	1635.418	1351.307
76.651	25.643	1634.643	1350.506
77.666	25.658	1633.771	1349.779
78.680	25.565	1633.077	1348.391
79.695	25.568	1631.796	1347.234
80.709	25.588	1630.840	1346.478
81.724	25.617	1630.322	1346.149
82.739	25.620	1628.762	1344.765
83.753	25.553	1628.229	1343.705
84.768	25.629	1627.148	1343.259
85.782	25.575	1626.408	1342.124
86.797	25.581	1625.357	1341.182
87.812	25.605	1624.297	1340.372
88.826	25.513	1624.037	1339.355
89.841	25.617	1622.295	1338.569
90.855	25.592	1621.848	1337.893
91.870	25.659	1619.864	1336.640
92.884	25.665	1619.514	1336.280
93.899	25.613	1618.842	1335.217
94.914	25.659	1617.099	1334.006
95.928	25.741	1616.110	1333.680
96.943	25.567	1615.299	1331.599
97.957	25.653	1613.774	1330.862
98.972	25.666	1612.441	1329.745
99.987	25.665	1611.158	1328.560
101.001	25.627	1609.922	1327.139
102.016	25.618	1608.058	1325.419
103.030	25.523	1607.408	1324.070
104.045	25.578	1606.057	1323.241
105.060	25.611	1604.612	1322.176
106.074	25.717	1603.386	1321.828
107.089	25.652	1602.265	1320.311
108.103	25.664	1601.184	1319.390
109.118	25.663	1600.126	1318.398
110.133	25.703	1599.130	1317.753
111.147	25.762	1597.671	1316.863
112.162	25.808	1596.730	1316.312
113.176	25.637	1595.740	1314.127
114.191	25.749	1594.178	1313.545
115.206	25.727	1593.811	1312.965
116.220	25.637	1592.413	1311.042
117.235	25.703	1590.877	1310.138
118.249	25.712	1589.602	1309.035
119.264	25.726	1588.512	1308.124
120.279	25.613	1587.867	1306.662
121.293	25.714	1586.410	1306.077
122.308	25.739	1585.192	1305.139
123.322	25.745	1583.714	1303.850
124.337	25.839	1582.518	1303.431
125.352	25.827	1581.697	1302.551
126.366	25.822	1580.757	1301.630
127.381	25.872	1579.726	1301.021
128.395	25.754	1579.376	1299.769
129.410	25.789	1578.003	1298.774
130.424	25.735	1576.735	1297.230
131.439	25.791	1575.525	1296.524
132.454	25.769	1574.406	1295.331
133.468	25.790	1573.042	1294.240
134.483	25.830	1571.841	1293.427
135.497	25.840	1570.386	1292.189
136.512	25.718	1570.166	1291.018
137.527	25.791	1568.404	1289.975
138.541	25.728	1567.660	1288.801
139.556	25.751	1566.350	1287.776
140.570	25.743	1565.030	1286.515
141.585	25.820	1563.895	1286.023
142.600	25.798	1562.975	1284.993
143.614	25.860	1561.660	1284.242
144.629	25.822	1560.349	1282.780
145.643	25.846	1559.238	1281.918
146.658	25.764	1557.992	1280.201
147.673	25.756	1556.472	1278.784
148.687	25.738	1555.576	1277.803
149.702	25.827	1554.367	1277.327
150.716	25.691	1553.366	1275.431
151.731	25.699	1552.234	1274.443
152.746	25.830	1551.067	1274.303
153.760	25.718	1549.925	1272.460
154.775	25.762	1549.119	1271.991
155.789	25.827	1548.499	1271.833
156.804	25.788	1547.069	1270.270
157.819	25.789	1546.027	1269.311
158.833	25.693	1545.512	1268.099
159.848	25.773	1544.152	1267.431
160.862	25.822	1543.044	1266.752
161.877	25.804	1542.100	1265.740
162.892	25.924	1541.120	1265.670
163.906	25.870	1540.108	1264.344
164.921	25.830	1539.335	1263.320
165.935	25.966	1538.043	1263.096
166.950	25.874	1537.336	1261.765
167.964	25.924	1536.095	1260.983
168.979	25.919	1535.216	1260.114
169.994	25.894	1534.881	1259.551
171.008	25.866	1533.679	1258.257
172.023	25.957	1532.816	1258.074
173.037	25.880	1531.971	1256.731
174.052	25.918	1530.466	1255.655
175.067	25.885	1529.897	1254.847
176.081	25.851	1528.823	1253.614
177.096	25.861	1527.923	1252.835
178.110	25.973	1526.597	1252.417
179.125	25.965	1525.730	1251.541
180.140	25.884	1524.628	1249.964
181.154	25.928	1524.351	1249.932
182.169	26.016	1522.990	1249.313
183.183	25.926	1522.030	1247.795
184.198	25.865	1521.393	1246.735
185.213	25.890	1520.854	1246.357
186.227	25.958	1519.600	1245.688
187.242	26.014	1518.340	1244.935
188.256	25.961	1518.046	1244.218
189.271	25.997	1517.107	1243.587
190.286	25.940	1516.190	1242.327
191.300	26.029	1515.164	1241.994
192.315	26.009	1514.287	1241.024
193.329	25.883	1513.726	1239.590
194.344	25.914	1513.040	1239.131
195.359	25.991	1511.453	1238.251
196.373	25.982	1510.847	1237.582
197.388	25.938	1510.324	1236.741
198.402	25.921	1508.900	1235.353
199.417	25.903	1508.249	1234.589
200.432	25.981	1507.400	1234.313
201.446	26.006	1506.546	1233.681
202.461	25.942	1506.052	1232.730
203.475	25.939	1504.587	1231.399
204.490	25.947	1503.982	1230.849
205.504	25.980	1503.315	1230.420
206.519	25.962	1502.391	1229.428
207.534	25.927	1501.815	1228.613
208.548	26.054	1500.831	1228.561
209.563	26.103	1499.486	1227.690
210.577	25.996	1499.575	1226.920
211.592	26.211	1497.469	1226.555
212.607	26.107	1497.701	1225.925
213.621	26.088	1497.087	1225.185
214.636	26.267	1495.823	1225.260
215.650	26.116	1495.253	1223.662
216.665	26.116	1494.321	1222.788
217.680	26.096	1494.014	1222.295
218.694	26.208	1492.367	1221.593
219.709	26.194	1492.009	1221.098
220.723	26.131	1491.142	1219.858
221.738	26.114	1490.294	1218.939
222.753	26.108	1489.441	1218.096
223.767	26.051	1488.682	1216.978
224.782	26.083	1487.597	1216.203
225.796	26.141	1486.978	1215.979
226.811	26.257	1486.276	1216.076
227.826	26.138	1485.790	1214.771
228.840	26.206	1484.956	1214.440
229.855	26.227	1484.009	1213.700
230.869	26.217	1482.889	1212.610
231.884	26.179	1482.140	1211.632
232.899	26.149	1481.246	1210.598
233.913	26.192	1480.262	1209.974
234.928	26.079	1479.401	1208.403
235.942	26.289	1477.742	1208.344
236.957	26.329	1477.044	1207.939
237.972	26.287	1476.009	1206.703
238.986	26.316	1475.115	1206.058
240.001	26.155	1474.709	1204.547
241.015	26.280	1473.072	1203.936
242.030	26.357	1471.884	1203.370
243.045	26.402	1471.253	1203.048
244.059	26.373	1470.800	1202.374
245.074	26.341	1469.883	1201.306
246.088	26.415	1469.264	1201.187
247.103	26.372	1468.601	1200.253
248.117	26.455	1467.391	1199.712
249.132	26.393	1466.368	1198.359
250.147	26.360	1466.167	1197.867
251.161	26.348	1465.445	1197.090
252.176	26.417	1464.661	1196.800
253.190	26.445	1463.665	1196.070
254.205	26.465	1463.029	1195.572
255.220	26.394	1462.538	1194.599
256.234	26.426	1461.476	1193.837
257.249	26.396	1460.609	1192.825
258.263	26.542	1459.500	1192.778
259.278	26.478	1458.734	1191.623
260.293	26.429	1458.271	1190.815
261.307	26.572	1457.620	1191.121
262.322	26.525	1456.951	1190.159
263.336	26.630	1456.015	1189.981
264.351	26.567	1454.849	1188.508
265.366	26.578	1453.802	1187.619
266.380	26.515	1453.482	1186.838
267.395	26.561	1452.382	1186.137
268.409	26.549	1451.876	1185.540
269.424	26.528	1450.753	1184.383
270.439	26.432	1450.100	1183.116
271.453	26.578	1448.955	1183.031
272.468	26.643	1448.068	1182.627
273.482	26.606	1447.594	1181.892
274.497	26.582	1446.916	1181.079
275.512	26.607	1445.920	1180.322
276.526	26.631	1445.493	1180.027
277.541	26.677	1444.446	1179.367
278.555	26.615	1443.884	1178.403
279.570	26.668	1442.754	1177.719
280.585	26.578	1442.134	1176.525
281.599	26.678	1440.980	1176.125
282.614	26.610	1440.534	1175.218
283.628	26.641	1439.092	1174.140
284.643	26.568	1438.636	1173.187
285.657	26.696	1437.515	1172.998
286.672	26.640	1436.984	1172.099
287.687	26.711	1435.725	1171.429
288.701	26.631	1434.668	1169.943
289.716	26.742	1434.464	1170.394
290.730	26.744	1434.167	1170.059
291.745	26.735	1432.795	1168.779
292.760	26.724	1432.042	1167.987
293.774	26.720	1431.149	1167.132
294.789	26.696	1430.516	1166.361
295.803	26.745	1429.585	1165.815
296.818	26.868	1428.528	1165.634
297.833	26.842	1427.617	1164.623
298.847	26.798	1426.915	1163.664
299.862	26.760	1426.221	1162.751
300.876	26.855	1425.557	1162.718
301.891	26.829	1424.561	1161.635
302.906	26.781	1423.895	1160.685
303.920	26.905	1423.477	1161.033
304.935	26.914	1422.494	1160.187
305.949	26.955	1421.683	1159.684
306.964	26.951	1420.786	1158.826
307.979	26.901	1419.850	1157.637
308.993	26.902	1419.153	1156.975
310.008	26.963	1418.323	1156.586
311.022	26.884	1417.666	1155.443
312.037	26.892	1416.374	1154.337
313.052	26.967	1415.361	1153.885
314.066	26.975	1415.224	1153.722
315.081	26.916	1413.812	1152.096
316.095	26.990	1412.633	1151.502
317.110	26.959	1412.078	1150.751
318.125	27.075	1410.912	1150.435
319.139	27.066	1410.175	1149.675
320.154	27.052	1409.373	1148.829
321.168	27.020	1408.668	1147.955
322.183	27.024	1407.983	1147.320
323.197	27.073	1406.997	1146.720
324.212	27.087	1406.148	1146.019
325.227	27.067	1405.462	1145.232
326.241	27.068	1404.563	1144.406
327.256	27.058	1403.993	1143.777
328.270	27.154	1403.055	1143.514
329.285	27.080	1402.271	1142.309
330.300	27.073	1401.710	1141.709
331.314	27.114	1401.083	1141.350
332.329	27.149	1399.779	1140.409
333.343	27.102	1399.337	1139.655
334.358	27.210	1398.368	1139.443
335.373	27.238	1397.566	1138.862
336.387	27.189	1397.343	1138.269
337.402	27.222	1396.750	1137.895
338.416	27.196	1395.770	1136.830
339.431	27.198	1395.578	1136.590
340.446	27.377	1394.668	1136.866
341.460	27.247	1393.833	1135.273
342.475	27.342	1392.723	1134.861
343.489	27.409	1391.862	1134.477
344.504	27.386	1390.856	1133.414
345.519	27.319	1390.078	1132.260
346.533	27.300	1389.015	1131.175
347.548	27.314	1388.476	1130.726
348.562	27.345	1387.686	1130.173
349.577	27.315	1387.027	1129.354
350.592	27.332	1386.278	1128.744
351.606	27.350	1385.084	1127.784
352.621	27.218	1384.606	1126.479
353.635	27.255	1383.431	1125.649
354.650	27.352	1382.623	1125.494
355.665	27.298	1382.168	1124.689
356.679	27.364	1380.744	1123.841
357.694	27.393	1379.979	1123.298
358.708	27.490	1378.878	1122.901
359.723	27.448	1377.482	1121.407
360.738	27.485	1376.409	1120.661
361.752	27.413	1375.288	1119.207
362.767	27.503	1374.389	1118.926
363.781	27.362	1373.648	1117.360
364.796	27.483	1373.155	1117.600
365.810	27.510	1372.318	1116.989
366.825	27.491	1371.554	1116.152
367.840	27.535	1370.815	1115.722
368.854	27.569	1370.257	1115.377
369.869	27.594	1370.094	1115.299
370.883	27.568	1369.246	1114.348
371.898	27.634	1368.336	1113.914
372.913	27.616	1367.726	1113.206
373.927	27.575	1367.197	1112.428
374.942	27.562	1366.073	1111.336
375.956	27.672	1365.242	1111.233
376.971	27.618	1365.076	1110.671
377.986	27.626	1364.181	1109.889
379.000	27.704	1363.110	1109.396
380.015	27.570	1362.502	1107.989
381.029	27.678	1361.786	1107.964
382.044	27.751	1360.866	1107.563
383.059	27.741	1360.346	1106.980
384.073	27.678	1359.786	1106.044
385.088	27.769	1359.190	1106.010
386.102	27.765	1358.556	1105.374
387.117	27.800	1357.848	1104.913
388.132	27.802	1357.050	1104.180
389.146	27.751	1356.689	1103.480
390.161	27.752	1355.816	1102.674
391.175	27.851	1355.180	1102.662
392.190	27.853	1354.448	1101.978
393.205	27.850	1353.662	1101.221
394.219	27.789	1352.742	1100.008
395.234	27.915	1351.516	1099.675
396.248	27.892	1350.727	1098.794
397.263	27.966	1349.643	1098.263
398.278	28.012	1348.268	1097.325
399.292	28.025	1347.431	1096.619
400.307	27.891	1346.994	1095.367
401.321	27.993	1345.925	1095.013
402.336	27.961	1344.847	1093.848
403.350	27.901	1343.956	1092.666
404.365	28.021	1342.571	1092.159
405.380	28.040	1341.992	1091.704
406.394	27.981	1341.713	1091.030
407.409	28.001	1340.979	1090.456
408.423	27.962	1340.366	1089.628
409.438	28.162	1339.232	1089.799
410.453	28.149	1338.777	1089.253
411.467	28.062	1338.628	1088.518
412.482	28.039	1338.102	1087.857
413.496	28.195	1337.106	1087.881
414.511	28.149	1336.480	1087.005
415.526	28.125	1335.648	1086.087
416.540	28.048	1334.903	1084.931
417.555	28.138	1334.188	1084.784
418.569	28.164	1333.435	1084.228
419.584	28.137	1333.611	1084.120
420.599	28.126	1332.735	1083.245
421.613	72.857	1313.840	1321.173
422.628	73.407	1311.093	1321.297
