DTS Sentinel unit serial number:	SN413079Multiplexer serial number:	ORYXHardware model number:	OX4-SRSoftware version number:	ORYX F/W v4.00 Oryx Data Collector v3.7.2.0data status	okinstallation	princeton_trtdifferential loss correction	single-endedforward channel	channel 4reverse channel	N/Adate	2019/09/11time	15:51:10forward acquisition time	60.00reverse acquisition time	0.00gamma	496.2192k internal	0.2278k external	0.2278temperature offset calibration	1.0015default loss term (dB/km)	0.3790temperature slope calibration	1.0000multiplexer offset coefficient	1.0000multiplexer slope coefficient	1.0000fibre end	0.00T internal ref (°C)	42.91T ext. ref 1 (°C)	1.02T ext. ref 2 (°C)	38.02length (m)	temperature (°C)	Stokes	anti-Stokes-747.200	103.388	-0.056	0.068
-746.185	111.925	0.060	0.075
-745.171	-176.247	-0.184	-0.005
-744.156	-11.052	0.107	-0.073
-743.142	800.000	0.047	-0.193
-742.127	-200.000	0.019	0.169
-741.112	26.193	0.096	-0.083
-740.098	-80.363	0.033	-0.011
-739.083	-66.325	0.167	0.068
-738.069	17.764	0.258	0.211
-737.054	-176.892	0.077	0.002
-736.039	-67.595	-0.378	0.153
-735.025	196.193	0.181	0.284
-734.010	800.000	-0.099	-0.315
-732.996	800.000	0.012	-0.037
-731.981	800.000	0.051	0.225
-730.966	60.923	-0.118	-0.120
-729.952	-128.446	0.186	0.027
-728.937	401.110	-0.103	-0.222
-727.923	-180.125	-0.056	-0.001
-726.908	435.625	-0.053	-0.118
-725.894	800.000	-0.034	-0.140
-724.879	-171.457	-0.245	0.008
-723.864	31.283	0.023	-0.020
-722.850	-200.000	-0.018	0.159
-721.835	306.822	0.127	-0.243
-720.821	-21.145	-0.317	-0.199
-719.806	-200.000	0.016	0.096
-718.791	-102.007	0.077	-0.019
-717.777	289.364	-0.209	-0.391
-716.762	-111.912	0.303	0.063
-715.748	-33.524	-0.438	0.249
-714.733	-126.327	-0.112	0.017
-713.718	800.000	-0.045	-0.155
-712.704	289.644	0.032	0.060
-711.689	234.860	-0.045	0.077
-710.675	-200.000	0.005	0.039
-709.660	-110.148	0.238	0.051
-708.645	-93.098	-0.055	-0.016
-707.631	-44.524	-0.316	-0.162
-706.616	800.000	-0.020	-0.076
-705.602	-200.000	0.023	-0.159
-704.587	-200.000	-0.014	-0.118
-703.572	111.249	-0.105	-0.130
-702.558	-200.000	-0.053	-0.424
-701.543	-200.000	-0.030	0.378
-700.529	-200.000	-0.016	0.298
-699.514	125.952	-0.115	0.150
-698.499	-200.000	0.007	-0.086
-697.485	-1.300	0.179	-0.130
-696.470	-200.000	-0.001	-0.014
-695.456	-18.957	-0.341	-0.218
-694.441	-142.486	-0.262	0.026
-693.426	-69.405	-0.136	-0.054
-692.412	-200.000	0.005	0.097
-691.397	192.493	-0.088	0.136
-690.383	193.813	-0.054	0.083
-689.368	-200.000	-0.004	0.147
-688.354	489.431	0.087	-0.204
-687.339	317.231	0.054	0.106
-686.324	-125.078	0.396	-0.063
-685.310	192.419	-0.078	-0.122
-684.295	-136.150	-0.223	-0.027
-683.281	18.713	0.376	0.309
-682.266	800.000	-0.041	-0.129
-681.251	17.319	0.094	0.077
-680.237	114.993	-0.072	-0.091
-679.222	-200.000	0.019	0.136
-678.208	-2.206	0.282	-0.204
-677.193	28.876	0.103	-0.090
-676.178	35.793	-0.132	-0.119
-675.164	-121.125	0.306	-0.053
-674.149	46.361	0.148	0.141
-673.135	25.042	-0.088	-0.075
-672.120	-200.000	-0.023	-0.216
-671.105	-200.000	-0.004	-0.150
-670.091	19.428	-0.092	0.076
-669.076	-45.623	0.018	-0.009
-668.062	800.000	-0.050	-0.185
-667.047	42.577	-0.111	-0.104
-666.032	-48.880	-0.198	-0.097
-665.018	-200.000	0.019	0.117
-664.003	-89.067	0.248	-0.075
-662.989	800.000	0.070	-0.257
-661.974	706.445	-0.195	0.528
-660.959	17.618	-0.029	-0.023
-659.945	-119.080	0.019	0.003
-658.930	139.952	-0.194	-0.263
-657.916	-200.000	0.027	-0.181
-656.901	-65.474	-0.156	0.064
-655.886	55.564	-0.052	-0.052
-654.872	137.035	0.174	-0.234
-653.857	-36.266	0.134	0.074
-652.843	7.297	0.089	-0.069
-651.828	221.690	-0.079	-0.131
-650.814	-43.143	-0.191	0.099
-649.799	164.723	0.100	0.145
-648.784	83.597	0.083	0.093
-647.770	592.792	-0.064	-0.162
-646.755	388.073	-0.102	-0.216
-645.741	167.379	0.184	0.268
-644.726	120.721	0.194	-0.247
-643.711	-80.114	-0.072	0.025
-642.697	-50.863	-0.141	0.068
-641.682	517.208	-0.075	0.180
-640.668	-151.080	-0.274	0.021
-639.653	388.074	0.130	0.275
-638.638	-185.543	-0.103	0.002
-637.624	-74.479	-0.191	-0.071
-636.609	-118.140	0.183	-0.033
-635.595	509.116	-0.122	0.290
-634.580	-98.031	-0.277	-0.073
-633.565	378.731	-0.079	0.165
-632.551	-200.000	-0.002	-0.172
-631.536	-3.241	0.195	-0.139
-630.522	104.868	0.115	0.139
-629.507	-42.383	-0.220	0.115
-628.492	210.583	-0.047	0.075
-627.478	76.130	0.357	0.388
-626.463	67.973	-0.113	0.119
-625.449	372.109	-0.158	-0.329
-624.434	180.656	-0.102	-0.154
-623.419	800.000	0.031	-0.112
-622.405	56.742	0.113	0.112
-621.390	-35.364	-0.124	0.069
-620.376	425.681	0.161	-0.355
-619.361	-182.200	-0.088	-0.002
-618.346	-15.835	0.232	-0.151
-617.332	35.353	-0.003	-0.003
-616.317	88.747	-0.135	0.154
-615.303	42.336	-0.233	0.217
-614.288	-200.000	-0.016	0.199
-613.273	583.674	0.046	-0.115
-612.259	-79.960	0.263	-0.090
-611.244	41.728	-0.184	-0.171
-610.230	215.974	0.087	0.141
-609.215	16.500	0.423	0.342
-608.201	-158.456	-0.182	0.011
-607.186	14.693	0.074	-0.059
-606.171	-162.359	0.215	0.011
-605.157	-175.237	-0.060	-0.002
-604.142	-103.721	-0.247	0.059
-603.128	71.099	-0.096	-0.101
-602.113	800.000	0.131	-0.444
-601.098	-99.490	0.122	-0.031
-600.084	-20.046	0.034	-0.022
-599.069	179.633	0.010	0.014
-598.055	-200.000	-0.023	-0.382
-597.040	-200.000	0.005	-0.040
-596.025	83.839	0.233	0.260
-595.011	75.935	-0.121	-0.131
-593.996	202.388	0.047	0.074
-592.982	-116.711	-0.301	0.057
-591.967	800.000	0.088	-0.269
-590.952	-121.284	0.246	0.042
-589.938	-200.000	0.007	0.089
-588.923	-87.903	-0.203	-0.062
-587.909	-9.864	0.187	-0.127
-586.894	800.000	-0.035	-0.148
-585.879	-200.000	0.013	-0.060
-584.865	101.036	0.118	-0.141
-583.850	38.880	0.148	0.135
-582.836	-200.000	-0.022	-0.457
-581.821	-8.222	0.229	0.158
-580.806	-18.916	-0.375	0.239
-579.792	731.676	0.085	-0.234
-578.777	90.655	0.207	0.237
-577.763	10.720	-0.323	-0.252
-576.748	-14.250	-0.027	-0.018
-575.733	-129.506	0.227	0.032
-574.719	134.784	-0.049	-0.065
-573.704	170.959	0.095	-0.139
-572.690	800.000	0.027	-0.077
-571.675	-200.000	0.011	-0.143
-570.661	694.703	0.092	0.247
-569.646	-200.000	0.044	0.397
-568.631	-59.013	0.087	-0.038
-567.617	-200.000	0.029	-0.265
-566.602	-96.266	-0.331	-0.090
-565.588	92.595	-0.214	0.247
-564.573	-200.000	-0.002	-0.099
-563.558	800.000	-0.066	-0.230
-562.544	-200.000	0.009	-0.191
-561.529	-200.000	-0.007	0.162
-560.515	221.992	-0.102	-0.168
-559.500	716.277	-0.061	-0.165
-558.485	-164.784	0.150	0.007
-557.471	265.959	-0.069	-0.122
-556.456	669.629	-0.087	0.229
-555.442	330.836	-0.070	0.138
-554.427	-51.622	0.091	-0.044
-553.412	-104.035	0.107	0.025
-552.398	-12.511	-0.050	0.033
-551.383	-42.359	-0.295	0.154
-550.369	329.733	-0.064	0.126
-549.354	325.438	0.113	-0.221
-548.339	613.427	-0.115	-0.294
-547.325	741.640	-0.069	-0.190
-546.310	281.155	-0.142	0.259
-545.296	136.976	-0.136	-0.181
-544.281	59.330	0.204	-0.205
-543.266	-200.000	0.009	-0.331
-542.252	-164.904	-0.423	0.019
-541.237	-65.576	-0.309	-0.126
-540.223	800.000	-0.022	-0.072
-539.208	68.762	0.267	-0.280
-538.193	33.626	0.055	0.049
-537.179	201.763	-0.216	-0.340
-536.164	-5.576	-0.248	0.174
-535.150	-200.000	-0.038	0.212
-534.135	-85.885	0.087	-0.028
-533.121	-200.000	-0.023	-0.265
-532.106	605.129	0.027	0.070
-531.091	800.000	-0.050	-0.210
-530.077	-200.000	-0.036	0.172
-529.062	-200.000	0.048	-0.283
-528.048	-143.265	-0.150	0.015
-527.033	186.817	0.102	0.156
-526.018	800.000	0.095	-0.272
-525.004	164.344	-0.104	-0.149
-523.989	52.529	-0.113	-0.110
-522.975	128.556	0.034	0.044
-521.960	-200.000	0.003	-0.047
-520.945	-114.650	-0.229	0.045
-519.931	-77.335	-0.090	0.032
-518.916	-152.340	-0.099	-0.007
-517.902	14.941	-0.065	-0.052
-516.887	61.260	-0.379	0.384
-515.872	800.000	-0.146	-0.419
-514.858	-13.798	-0.184	0.122
-513.843	251.842	-0.102	-0.176
-512.829	-103.109	0.311	-0.075
-511.814	183.141	0.155	0.233
-510.799	-54.540	0.122	0.057
-509.785	-200.000	0.003	0.150
-508.770	-83.347	0.180	-0.059
-507.756	-45.966	-0.196	0.098
-506.741	-17.159	-0.220	-0.142
-505.726	-101.973	-0.229	0.057
-504.712	-200.000	-0.005	0.121
-503.697	-150.791	-0.217	0.017
-502.683	-26.507	-0.210	0.125
-501.668	-90.031	-0.243	0.072
-500.653	236.052	0.043	0.072
-499.639	185.472	0.220	0.333
-498.624	378.131	-0.135	0.282
-497.610	-145.753	0.372	-0.034
-496.595	-111.907	-0.088	0.018
-495.581	-111.218	-0.170	-0.035
-494.566	-200.000	0.028	-0.205
-493.551	37.560	-0.055	-0.050
-492.537	800.000	0.058	0.251
-491.522	-58.463	-0.061	-0.027
-490.508	800.000	-0.064	0.207
-489.493	24.263	-0.073	0.062
-488.478	-89.937	0.299	0.089
-487.464	64.049	0.133	-0.137
-486.449	106.486	0.142	-0.172
-485.435	213.197	-0.128	0.206
-484.420	-2.883	0.110	-0.079
-483.405	-200.000	0.009	-0.147
-482.391	-98.554	0.124	0.032
-481.376	361.539	0.046	-0.094
-480.362	-200.000	0.004	0.204
-479.347	-200.000	-0.012	-0.195
-478.332	-91.871	-0.324	-0.094
-477.318	-116.992	0.120	-0.022
-476.303	-6.014	0.163	0.114
-475.289	19.957	0.101	-0.083
-474.274	345.813	-0.055	-0.109
-473.259	97.173	-0.094	-0.109
-472.245	800.000	-0.074	-0.273
-471.230	-166.936	0.079	-0.003
-470.216	800.000	-0.103	-0.307
-469.201	65.489	-0.227	-0.234
-468.186	800.000	-0.042	0.166
-467.172	-154.590	-0.271	-0.018
-466.157	-71.038	-0.266	0.102
-465.143	257.123	-0.063	-0.111
-464.128	-67.105	0.138	0.055
-463.113	-200.000	-0.006	-0.052
-462.099	580.578	-0.042	-0.105
-461.084	36.556	-0.327	0.294
-460.070	-69.037	-0.094	0.037
-459.055	800.000	0.063	0.282
-458.040	166.840	-0.142	-0.205
-457.026	-200.000	0.003	-0.113
-456.011	129.688	-0.072	0.093
-454.997	2.052	-0.098	-0.072
-453.982	-69.821	-0.293	-0.114
-452.968	7.720	0.070	-0.053
-451.953	71.161	0.148	-0.157
-450.938	-54.153	-0.233	0.108
-449.924	-34.701	0.303	0.169
-448.909	314.004	0.206	0.395
-447.895	146.833	0.154	0.211
-446.880	115.654	-0.025	0.031
-445.865	-63.572	0.332	0.139
-444.851	800.000	-0.034	-0.125
-443.836	800.000	0.018	0.073
-442.822	-200.000	-0.023	-0.118
-441.807	202.108	-0.122	-0.191
-440.792	237.246	0.050	-0.084
-439.778	-119.043	-0.136	-0.024
-438.763	-133.318	0.455	-0.058
-437.749	204.823	0.151	-0.239
-436.734	-200.000	-0.026	-0.146
-435.719	800.000	-0.089	0.330
-434.705	-105.360	0.390	-0.090
-433.690	-152.565	0.046	0.003
-432.676	-131.939	0.097	0.013
-431.661	-7.957	-0.289	-0.198
-430.646	20.269	0.080	0.066
-429.632	217.334	-0.038	-0.061
-428.617	124.233	0.135	0.173
-427.603	23.078	0.122	0.102
-426.588	-84.659	0.115	-0.037
-425.573	-57.023	-0.217	0.098
-424.559	-186.383	0.287	-0.004
-423.544	800.000	0.109	-0.450
-422.530	672.700	0.035	-0.092
-421.515	-11.092	0.079	0.053
-420.500	-81.195	0.265	-0.089
-419.486	11.629	0.177	-0.138
-418.471	-200.000	0.013	0.281
-417.457	-125.772	0.218	0.033
-416.442	126.062	-0.075	-0.097
-415.428	-148.565	-0.154	-0.013
-414.413	389.946	-0.094	0.198
-413.398	-88.671	-0.265	-0.080
-412.384	159.364	-0.263	-0.372
-411.369	170.261	0.110	0.160
-410.355	-200.000	0.073	-0.372
-409.340	800.000	-0.009	0.039
-408.325	-79.889	0.177	-0.060
-407.311	-160.562	0.057	0.003
-406.296	-200.000	0.001	0.311
-405.282	96.865	-0.167	0.194
-404.267	800.000	0.029	0.093
-403.252	-8.007	0.071	-0.049
-402.238	107.577	0.128	0.155
-401.223	-200.000	-0.068	0.436
-400.209	-200.000	0.052	-0.257
-399.194	-200.000	-0.000	-0.059
-398.179	800.000	0.015	0.050
-397.165	-118.807	-0.146	0.026
-396.150	41.464	0.323	0.297
-395.136	125.016	-0.106	0.136
-394.121	345.348	0.046	-0.091
-393.106	78.126	-0.034	0.037
-392.092	-123.196	-0.295	0.048
-391.077	-200.000	-0.013	0.431
-390.063	-25.139	0.161	-0.097
-389.048	6.723	0.103	0.078
-388.033	663.415	0.042	0.109
-387.019	309.344	-0.102	0.194
-386.004	223.210	-0.216	0.353
-384.990	133.462	-0.155	-0.204
-383.975	177.737	-0.122	0.180
-382.960	-39.524	-0.067	-0.036
-381.946	-200.000	0.022	0.216
-380.931	-73.218	0.290	-0.108
-379.917	-200.000	0.005	-0.063
-378.902	-111.294	0.043	0.009
-377.888	39.349	-0.057	-0.052
-376.873	-63.676	-0.127	0.053
-375.858	-155.075	-0.184	0.012
-374.844	-130.792	-0.268	0.037
-373.829	135.893	0.232	0.306
-372.815	-98.112	0.046	0.012
-371.800	148.532	-0.144	0.197
-370.785	-11.058	-0.278	-0.186
-369.771	-168.004	-0.155	0.006
-368.756	682.671	-0.083	0.220
-367.742	-4.822	0.271	0.190
-366.727	-88.290	0.242	0.073
-365.712	800.000	0.065	-0.198
-364.698	-116.902	0.207	0.038
-363.683	329.636	-0.061	-0.118
-362.669	-73.468	0.422	0.156
-361.654	-200.000	0.053	0.291
-360.639	-175.809	-0.337	0.009
-359.625	138.471	-0.184	-0.245
-358.610	-89.055	0.126	-0.038
-357.596	592.268	-0.042	-0.106
-356.581	160.519	-0.196	0.278
-355.566	155.193	-0.077	-0.108
-354.552	385.788	-0.047	0.099
-353.537	57.333	0.236	0.234
-352.523	446.302	-0.099	0.221
-351.508	-72.824	-0.202	-0.076
-350.493	-94.873	-0.394	-0.108
-349.479	-100.376	-0.265	-0.067
-348.464	20.620	-0.056	0.046
-347.450	-200.000	-0.028	0.162
-346.435	-72.714	-0.249	-0.093
-345.420	-166.391	0.117	0.005
-344.406	-200.000	-0.010	-0.267
-343.391	146.204	-0.185	-0.252
-342.377	-200.000	0.010	-0.207
-341.362	-111.189	0.117	-0.024
-340.348	-200.000	-0.012	0.143
-339.333	-33.338	0.359	-0.201
-338.318	-189.621	0.421	-0.005
-337.304	-72.422	-0.263	0.099
-336.289	-176.396	0.427	0.011
-335.275	-73.165	-0.265	-0.099
-334.260	-137.516	-0.124	-0.014
-333.245	-100.825	-0.129	0.032
-332.231	113.385	0.176	-0.216
-331.216	-131.534	0.239	0.032
-330.202	-45.872	0.062	0.031
-329.187	-200.000	-0.007	0.191
-328.172	-200.000	-0.045	-0.198
-327.158	800.000	0.058	0.208
-326.143	800.000	0.099	0.436
-325.129	-140.298	-0.230	-0.024
-324.114	-56.880	0.266	0.119
-323.099	760.459	0.100	-0.274
-322.085	-37.195	-0.482	-0.261
-321.070	-200.000	0.008	0.092
-320.056	800.000	-0.062	-0.211
-319.041	-200.000	-0.009	-0.057
-318.026	-38.733	0.112	0.060
-317.012	-96.856	-0.135	0.036
-315.997	-123.338	-0.142	0.023
-314.983	-134.270	0.092	-0.011
-313.968	41.841	0.274	-0.251
-312.953	-1.930	-0.026	0.018
-311.939	-200.000	-0.029	0.283
-310.924	-120.885	0.220	0.038
-309.910	-126.396	0.336	-0.051
-308.895	-54.709	0.105	0.048
-307.880	46.070	0.179	0.167
-306.866	-122.757	0.166	-0.027
-305.851	151.407	0.149	0.205
-304.837	-76.187	0.128	-0.046
-303.822	-200.000	-0.046	0.270
-302.807	154.599	0.124	0.173
-301.793	-55.951	0.438	0.198
-300.778	365.834	0.010	0.021
-299.764	50.102	-0.129	0.123
-298.749	386.508	0.073	-0.153
-297.735	185.854	0.037	-0.056
-296.720	-154.373	-0.175	-0.012
-295.705	2.525	0.149	0.110
-294.691	111.954	-0.099	-0.121
-293.676	800.000	0.062	0.219
-292.662	60.810	0.053	0.053
-291.647	95.041	0.115	-0.132
-290.632	-200.000	-0.040	0.190
-289.618	-200.000	-0.016	0.137
-288.603	-168.415	0.272	-0.011
-287.589	-54.073	-0.476	0.219
-286.574	-91.620	0.375	0.108
-285.559	-77.128	-0.169	0.060
-284.545	-200.000	0.012	0.161
-283.530	-200.000	-0.014	0.312
-282.516	350.990	0.102	0.203
-281.501	800.000	-0.042	0.136
-280.486	-119.124	-0.196	0.035
-279.472	52.832	0.115	0.111
-278.457	-168.451	-0.407	0.016
-277.443	-48.362	0.413	-0.201
-276.428	61.958	0.308	0.311
-275.413	593.230	-0.078	-0.194
-274.399	129.959	-0.067	0.086
-273.384	-127.713	-0.240	-0.035
-272.370	-31.425	0.129	-0.073
-271.355	16.721	-0.114	0.091
-270.340	487.197	0.113	0.262
-269.326	-130.222	0.305	-0.042
-268.311	-200.000	-0.027	0.000
-267.297	461.267	-0.080	-0.180
-266.282	595.655	-0.082	-0.206
-265.267	-200.000	-0.000	0.010
-264.253	-200.000	-0.050	-0.404
-263.238	31.660	0.107	0.093
-262.224	-200.000	0.026	-0.174
-261.209	-53.260	-0.211	0.098
-260.195	-121.506	-0.117	-0.020
-259.180	32.165	-0.133	-0.116
-258.165	772.330	0.067	0.185
-257.151	307.821	-0.143	0.269
-256.136	-60.234	0.177	0.076
-255.122	-200.000	0.020	-0.161
-254.107	800.000	0.041	0.147
-253.092	-200.000	-0.010	-0.257
-252.078	0.412	-0.224	-0.162
-251.063	-200.000	0.044	0.236
-250.049	-200.000	-0.047	0.213
-249.034	-34.443	0.087	-0.048
-248.019	-36.801	-0.381	-0.207
-247.005	-122.250	0.185	0.031
-245.990	800.000	-0.039	-0.162
-244.976	117.209	0.158	-0.196
-243.961	-200.000	-0.036	-0.176
-242.946	328.181	0.062	-0.120
-241.932	55.239	0.113	-0.110
-240.917	-200.000	-0.005	0.106
-239.903	96.322	0.154	0.178
-238.888	-138.425	0.177	-0.020
-237.873	-66.381	-0.061	-0.025
-236.859	80.663	-0.224	0.244
-235.844	152.063	-0.134	-0.185
-234.830	-153.633	0.093	0.006
-233.815	-179.346	0.270	0.006
-232.800	-40.710	0.046	0.024
-231.786	630.885	0.063	-0.162
-230.771	51.816	0.072	-0.069
-229.757	143.912	0.117	0.157
-228.742	-200.000	0.016	0.150
-227.727	58.439	-0.060	0.059
-226.713	-200.000	0.029	0.232
-225.698	-200.000	0.004	0.158
-224.684	-31.465	-0.173	-0.098
-223.669	586.460	0.047	-0.117
-222.655	-30.812	-0.275	-0.157
-221.640	540.124	-0.131	-0.315
-220.625	-72.893	-0.181	-0.067
-219.611	800.000	-0.125	0.421
-218.596	-181.626	0.127	0.002
-217.582	800.000	-0.047	-0.158
-216.567	344.746	-0.076	0.151
-215.552	800.000	-0.063	-0.207
-214.538	-148.900	0.143	0.012
-213.523	-184.196	-0.165	0.003
-212.509	-108.065	0.202	0.044
-211.494	24.407	0.290	-0.242
-210.479	800.000	0.049	0.179
-209.465	-83.317	0.363	-0.117
-208.450	139.578	0.174	0.231
-207.436	219.246	-0.058	0.094
-206.421	-82.479	-0.239	-0.078
-205.406	-185.878	0.182	-0.003
-204.392	-4.929	-0.235	0.163
-203.377	-200.000	0.059	-0.413
-202.363	-200.000	0.049	-0.293
-201.348	297.242	0.081	0.149
-200.333	-22.586	0.334	-0.203
-199.319	-7.817	0.400	-0.272
-198.304	71.636	0.183	0.191
-197.290	-200.000	0.020	0.322
-196.275	595.600	-0.035	-0.087
-195.260	-181.514	0.223	0.004
-194.246	-23.404	-0.151	0.091
-193.231	800.000	0.084	0.236
-192.217	-130.325	-0.105	0.014
-191.202	-83.453	0.170	-0.055
-190.187	800.000	-0.156	0.470
-189.173	426.454	0.130	-0.283
-188.158	184.637	0.053	0.079
-187.144	-200.000	-0.013	-0.270
-186.129	-19.345	-0.085	0.053
-185.114	-200.000	-0.045	-0.217
-184.100	-3.301	-0.438	-0.307
-183.085	-38.621	-0.045	0.024
-182.071	-200.000	-0.002	0.150
-181.056	-121.328	-0.106	-0.018
-180.042	6.489	0.036	-0.027
-179.027	-6.735	0.157	-0.108
-178.012	-68.145	0.038	-0.015
-176.998	-200.000	-0.014	0.138
-175.983	-74.878	0.198	0.071
-174.969	-44.336	-0.248	-0.125
-173.954	69.025	0.177	-0.183
-172.939	-18.776	0.300	0.188
-171.925	293.837	0.115	-0.211
-170.910	45.110	-0.152	-0.141
-169.896	-7.261	-0.094	0.064
-168.881	-43.435	-0.209	0.106
-167.866	-200.000	-0.018	0.171
-166.852	70.339	-0.249	0.260
-165.837	800.000	0.084	-0.240
-164.823	-148.168	-0.088	-0.007
-163.808	-200.000	0.042	-0.220
-162.793	278.335	-0.076	0.137
-161.779	220.614	0.074	-0.120
-160.764	800.000	-0.009	-0.033
-159.750	77.073	0.200	-0.214
-158.735	800.000	0.079	-0.287
-157.720	124.602	0.094	0.119
-156.706	414.942	0.048	-0.103
-155.691	800.000	0.054	-0.166
-154.677	-200.000	-0.001	0.206
-153.662	92.299	0.007	-0.008
-152.647	59.117	0.244	-0.242
-151.633	-153.730	-0.357	0.025
-150.618	-115.913	-0.053	0.010
-149.604	119.816	0.087	0.109
-148.589	-92.711	-0.319	0.090
-147.574	-200.000	-0.024	-0.249
-146.560	-200.000	-0.014	-0.286
-145.545	324.199	-0.023	0.044
-144.531	-104.922	0.412	-0.095
-143.516	354.313	-0.037	0.074
-142.502	-60.672	0.128	-0.054
-141.487	-87.827	-0.083	-0.025
-140.472	-3.088	-0.354	0.249
-139.458	-200.000	-0.006	0.111
-138.443	-200.000	-0.019	0.264
-137.429	-94.969	-0.283	-0.077
-136.414	168.505	-0.168	-0.241
-135.399	-73.273	-0.218	-0.080
-134.385	495.753	-0.158	0.366
-133.370	-65.614	0.315	-0.127
-132.356	209.812	-0.177	-0.280
-131.341	-105.207	-0.208	0.048
-130.326	-37.911	-0.425	-0.227
-129.312	376.453	-0.057	-0.117
-128.297	23.402	-0.149	-0.124
-127.283	-35.371	0.274	0.150
-126.268	-200.000	0.005	-0.221
-125.253	590.656	0.094	-0.233
-124.239	2.399	-0.080	-0.059
-123.224	128.546	-0.199	0.254
-122.210	52.833	-0.338	0.325
-121.195	373.174	0.039	-0.079
-120.180	800.000	-0.012	0.053
-119.166	74.522	-0.156	-0.165
-118.151	-88.307	0.191	-0.058
-117.137	-80.500	-0.058	-0.019
-116.122	-200.000	0.032	0.285
-115.107	82.134	-0.198	0.215
-114.093	-60.395	0.206	0.088
-113.078	-82.329	0.158	-0.052
-112.064	-200.000	0.060	-0.285
-111.049	587.284	0.154	-0.381
-110.034	-54.675	0.338	0.153
-109.020	-165.357	-0.061	-0.003
-108.005	800.000	0.045	0.191
-106.991	91.067	0.213	-0.240
-105.976	-99.789	0.229	0.058
-104.962	-200.000	0.022	-0.301
-103.947	244.356	-0.144	0.242
-102.932	-200.000	-0.003	-0.083
-101.918	80.729	0.140	0.152
-100.903	-200.000	0.014	-0.076
-99.889	412.980	0.051	-0.109
-98.874	-48.396	-0.045	0.022
-97.859	345.256	0.113	0.222
-96.845	417.141	-0.096	-0.205
-95.830	-150.324	0.240	0.019
-94.816	-200.000	0.031	-0.408
-93.801	-200.000	-0.018	-0.385
-92.786	-200.000	0.007	0.159
-91.772	-200.000	0.004	-0.269
-90.757	9.907	0.193	-0.147
-89.743	69.192	0.134	0.138
-88.728	-89.664	0.226	-0.067
-87.713	-200.000	-0.023	0.112
-86.699	-105.148	-0.089	-0.020
-85.684	-132.052	-0.137	0.018
-84.670	-200.000	-0.033	0.314
-83.655	-81.953	0.239	-0.078
-82.640	-59.085	0.268	0.116
-81.626	-200.000	0.020	0.164
-80.611	-21.619	0.349	-0.213
-79.597	800.000	-0.043	0.175
-78.582	-95.230	0.257	0.069
-77.567	800.000	0.050	0.207
-76.553	-166.367	0.150	0.006
-75.538	658.734	-0.041	0.107
-74.524	-63.047	0.085	0.035
-73.509	39.535	0.123	-0.111
-72.494	78.230	0.105	0.113
-71.480	-76.996	-0.148	-0.052
-70.465	-200.000	0.037	-0.321
-69.451	183.370	-0.049	-0.073
-68.436	-4.550	-0.082	-0.057
-67.422	-89.794	-0.401	0.118
-66.407	-64.275	-0.178	-0.073
-65.392	292.681	0.175	-0.320
-64.378	-119.334	0.285	0.050
-63.363	-76.021	0.181	-0.064
-62.349	659.546	0.135	0.349
-61.334	57.283	-0.617	-0.604
-60.319	263.127	-0.121	0.211
-59.305	-200.000	-0.077	-0.621
-58.290	-200.000	-0.029	0.652
-57.276	-200.000	0.318	1.429
-56.261	-200.000	74.011	538.022
-55.246	577.351	1296.456	3177.348
-54.232	144.392	2525.677	3380.068
-53.217	112.350	2369.692	2872.912
-52.203	50.363	2107.197	1996.208
-51.188	45.089	2014.647	1860.555
-50.173	43.103	1995.585	1824.923
-49.159	55.047	2031.763	1967.111
-48.144	60.466	2052.586	2036.600
-47.130	45.798	2017.430	1869.302
-46.115	42.967	2006.274	1833.163
-45.100	42.850	2004.195	1830.130
-44.086	42.832	2001.782	1827.691
-43.071	42.707	1998.968	1823.915
-42.057	42.670	1997.291	1821.978
-41.042	42.700	1995.287	1820.349
-40.027	42.861	1992.817	1819.483
-39.013	42.775	1990.917	1816.895
-37.998	42.843	1988.795	1815.498
-36.984	42.799	1988.176	1814.464
-35.969	42.854	1985.725	1812.648
-34.954	42.830	1983.994	1810.780
-33.940	42.899	1982.357	1809.839
-32.925	42.984	1980.449	1808.789
-31.911	42.993	1978.565	1807.076
-30.896	42.911	1977.265	1805.083
-29.881	42.939	1975.562	1803.705
-28.867	42.963	1973.884	1802.321
-27.852	42.898	1972.035	1799.977
-26.838	42.949	1970.040	1798.540
-25.823	42.966	1968.308	1797.036
-24.809	42.977	1966.573	1795.480
-23.794	42.928	1964.780	1793.336
-22.779	42.919	1963.355	1791.886
-21.765	42.979	1961.372	1790.539
-20.750	42.918	1960.038	1788.708
-19.736	42.937	1958.534	1787.428
-18.721	42.993	1956.945	1786.408
-17.706	42.914	1955.460	1784.283
-16.692	42.908	1954.045	1782.863
-15.677	42.903	1952.361	1781.216
-14.663	42.918	1951.046	1780.080
-13.648	42.949	1949.429	1778.803
-12.633	42.921	1948.228	1777.388
-11.619	42.899	1946.879	1775.897
-10.604	42.839	1945.600	1774.128
-9.590	42.912	1943.867	1773.120
-8.575	42.954	1942.387	1772.075
-7.560	42.922	1941.354	1770.775
-6.546	42.840	1940.237	1768.964
-5.531	42.941	1938.314	1768.034
-4.517	42.907	1937.011	1766.471
-3.502	42.970	1935.998	1766.035
-2.487	42.923	1934.761	1764.418
-1.473	42.963	1934.004	1764.015
-0.458	43.008	1930.301	1760.955
0.556	42.273	1911.564	1737.440
1.571	38.467	1891.545	1686.377
2.586	34.102	1913.110	1667.305
3.600	32.658	1950.048	1686.435
4.615	31.655	1947.387	1675.019
5.629	23.779	1840.603	1516.126
6.644	9.584	1706.086	1292.108
7.659	1.843	1659.643	1196.235
8.673	1.170	1654.962	1187.487
9.688	1.031	1653.529	1185.266
10.702	1.038	1651.779	1183.961
11.717	0.842	1649.546	1180.730
12.731	1.255	1648.992	1183.449
13.746	9.361	1669.670	1261.995
14.761	20.835	1694.464	1371.491
15.775	24.933	1700.604	1408.650
16.790	24.790	1699.864	1406.789
17.804	24.853	1699.305	1406.694
18.819	24.860	1698.569	1406.015
19.834	25.020	1697.397	1406.175
20.848	25.130	1697.029	1406.610
21.863	25.221	1695.882	1406.249
22.877	25.169	1694.647	1404.698
23.892	25.205	1694.194	1404.474
24.907	25.246	1692.537	1403.295
25.921	25.213	1691.960	1402.435
26.936	25.227	1691.328	1401.899
27.950	25.276	1690.020	1401.072
28.965	25.224	1689.737	1400.310
29.980	25.164	1688.867	1398.998
30.994	25.174	1687.364	1397.707
32.009	25.188	1686.160	1396.690
33.023	25.276	1684.963	1396.263
34.038	25.203	1684.415	1395.122
35.053	25.266	1682.919	1394.249
36.067	25.197	1682.123	1392.930
37.082	25.204	1681.150	1392.055
38.096	25.160	1680.480	1391.033
39.111	25.239	1679.414	1390.640
40.126	25.240	1678.348	1389.643
41.140	25.224	1677.716	1388.870
42.155	25.272	1676.942	1388.478
43.169	25.205	1675.669	1386.782
44.184	25.240	1674.674	1386.111
45.199	25.238	1673.620	1385.098
46.213	25.135	1672.730	1383.446
47.228	25.166	1671.269	1382.349
48.242	25.096	1670.336	1380.920
49.257	25.192	1668.844	1380.299
50.271	25.170	1667.801	1379.144
51.286	25.226	1666.496	1378.381
52.301	25.186	1665.473	1377.104
53.315	25.200	1663.832	1375.734
54.330	25.159	1662.792	1374.436
55.344	25.223	1661.088	1373.394
56.359	25.204	1659.621	1371.913
57.374	25.168	1658.934	1370.948
58.388	25.203	1657.629	1370.016
59.403	25.194	1656.631	1369.002
60.417	25.233	1655.635	1368.359
61.432	25.153	1654.833	1366.960
62.447	25.236	1653.481	1366.359
63.461	25.265	1652.633	1365.759
64.476	25.173	1651.605	1364.083
65.490	25.249	1650.315	1363.479
66.505	25.207	1649.828	1362.636
67.520	25.208	1648.553	1361.473
68.534	25.238	1647.640	1360.823
69.549	25.295	1646.292	1360.021
70.563	25.231	1644.675	1358.081
71.578	25.290	1643.786	1357.670
72.593	25.289	1643.397	1357.223
73.607	25.259	1642.293	1355.963
74.622	25.250	1641.514	1355.130
75.636	25.253	1640.309	1354.045
76.651	25.289	1639.456	1353.487
77.666	25.195	1639.259	1352.498
78.680	25.313	1637.479	1351.797
79.695	25.280	1636.615	1350.714
80.709	25.226	1636.241	1349.879
81.724	25.265	1635.652	1349.567
82.739	25.258	1634.695	1348.606
83.753	25.232	1633.447	1347.267
84.768	25.247	1632.640	1346.590
85.782	25.239	1631.977	1345.868
86.797	25.280	1630.666	1344.972
87.812	25.240	1630.115	1344.099
88.826	25.251	1629.016	1343.160
89.841	25.290	1628.173	1342.636
90.855	25.275	1626.780	1341.252
91.870	25.275	1626.212	1340.668
92.884	25.249	1625.004	1339.359
93.899	25.330	1624.100	1339.101
94.914	25.304	1622.573	1337.531
95.928	25.289	1621.538	1336.449
96.943	25.295	1620.135	1335.217
97.957	25.244	1619.447	1334.152
98.972	25.267	1617.869	1332.908
99.987	25.358	1616.543	1332.370
101.001	25.384	1614.738	1330.956
102.016	25.233	1613.883	1329.015
103.030	25.192	1612.729	1327.645
104.045	25.235	1611.116	1326.514
105.060	25.245	1610.018	1325.570
106.074	25.311	1608.586	1324.760
107.089	25.352	1607.384	1323.953
108.103	25.294	1606.362	1322.571
109.118	25.235	1605.587	1321.380
110.133	25.309	1604.106	1320.591
111.147	25.302	1603.027	1319.530
112.162	25.293	1602.019	1318.521
113.176	25.335	1600.666	1317.594
114.191	25.284	1600.132	1316.664
115.206	25.373	1598.406	1315.782
116.220	25.314	1597.521	1314.508
117.235	25.317	1596.219	1313.342
118.249	25.367	1594.884	1312.493
119.264	25.341	1593.722	1311.225
120.279	25.280	1592.671	1309.805
121.293	25.328	1591.533	1309.097
122.308	25.309	1590.856	1308.289
123.322	25.467	1588.631	1307.495
124.337	25.398	1587.633	1306.057
125.352	25.459	1586.540	1305.484
126.366	25.467	1586.074	1305.040
127.381	25.500	1585.303	1304.530
128.395	25.424	1584.330	1303.067
129.410	25.412	1583.130	1301.878
130.424	25.457	1581.636	1300.856
131.439	25.374	1581.032	1299.646
132.454	25.474	1579.223	1298.766
133.468	25.400	1578.565	1297.576
134.483	25.402	1577.008	1296.194
135.497	25.411	1576.076	1295.381
136.512	25.463	1574.409	1294.273
137.527	25.459	1573.510	1293.390
138.541	25.470	1572.518	1292.538
139.556	25.485	1570.931	1291.227
140.570	25.446	1570.192	1290.223
141.585	25.414	1569.103	1288.986
142.600	25.374	1567.763	1287.482
143.614	25.447	1566.610	1286.944
144.629	25.432	1565.390	1285.724
145.643	25.388	1564.361	1284.451
146.658	25.411	1563.026	1283.402
147.673	25.383	1561.660	1281.970
148.687	25.356	1560.820	1280.974
149.702	25.363	1559.353	1279.707
150.716	25.360	1557.960	1278.426
151.731	25.464	1557.226	1278.454
152.746	25.401	1556.140	1276.999
153.760	25.484	1554.696	1276.291
154.775	25.342	1554.610	1275.100
155.789	25.457	1552.814	1274.331
156.804	25.502	1551.875	1273.760
157.819	25.466	1550.871	1272.572
158.833	25.436	1549.761	1271.337
159.848	25.423	1549.126	1270.611
160.862	25.488	1547.947	1269.988
161.877	25.489	1547.048	1269.144
162.892	25.468	1545.997	1268.022
163.906	25.340	1545.394	1266.514
164.921	25.522	1543.624	1266.233
165.935	25.445	1543.750	1265.683
166.950	25.525	1542.038	1264.730
167.964	25.562	1541.175	1264.172
168.979	25.487	1540.326	1262.838
169.994	25.411	1539.752	1261.719
171.008	25.448	1539.071	1261.309
172.023	25.563	1537.480	1260.700
173.037	25.491	1536.819	1259.545
174.052	25.458	1535.848	1258.408
175.067	25.600	1534.732	1258.376
176.081	25.496	1533.680	1256.672
177.096	25.555	1532.842	1256.283
178.110	25.543	1531.678	1255.137
179.125	25.512	1530.700	1254.006
180.140	25.555	1529.321	1253.067
181.154	25.479	1529.039	1252.197
182.169	25.584	1528.011	1251.977
183.183	25.595	1526.549	1250.742
184.198	25.561	1526.086	1250.016
185.213	25.614	1524.929	1249.324
186.227	25.565	1524.121	1248.209
187.242	25.607	1523.635	1247.994
188.256	25.649	1522.592	1247.319
189.271	25.656	1521.591	1246.441
190.286	25.695	1520.717	1245.883
191.300	25.604	1520.237	1244.751
192.315	25.638	1519.049	1243.901
193.329	25.582	1518.157	1242.678
194.344	25.558	1517.248	1241.657
195.359	25.629	1516.727	1241.613
196.373	25.622	1516.327	1241.122
197.388	25.602	1514.677	1239.526
198.402	25.637	1513.793	1238.936
199.417	25.558	1513.000	1237.634
200.432	25.595	1511.985	1236.946
201.446	25.602	1512.011	1236.906
202.461	25.561	1510.872	1235.584
203.475	25.671	1509.473	1235.086
204.490	25.630	1508.770	1234.118
205.504	25.628	1507.844	1233.241
206.519	25.663	1507.054	1232.721
207.534	25.663	1506.558	1232.207
208.548	25.713	1505.687	1231.730
209.563	25.694	1504.548	1230.559
210.577	25.703	1503.683	1229.802
211.592	25.650	1503.167	1228.914
212.607	25.728	1502.392	1228.698
213.621	25.676	1502.075	1227.976
214.636	25.742	1501.063	1227.491
215.650	25.839	1499.790	1227.000
216.665	25.814	1499.343	1226.358
217.680	25.682	1498.698	1224.826
218.694	25.762	1497.547	1224.319
219.709	25.879	1496.589	1224.221
220.723	25.872	1495.846	1223.456
221.738	25.788	1495.241	1222.284
222.753	25.705	1494.283	1220.833
223.767	25.679	1493.547	1219.946
224.782	25.690	1492.131	1218.760
225.796	25.731	1492.048	1218.861
226.811	25.846	1490.835	1218.538
227.826	25.792	1490.351	1217.670
228.840	25.905	1489.823	1217.890
229.855	25.843	1488.908	1216.618
230.869	25.836	1487.890	1215.634
231.884	25.856	1486.869	1214.825
232.899	25.750	1485.803	1213.131
233.913	25.890	1484.399	1212.822
234.928	25.831	1483.878	1211.891
235.942	25.858	1482.704	1211.004
236.957	25.871	1482.087	1210.482
237.972	25.881	1480.632	1209.256
238.986	25.882	1479.663	1208.362
240.001	25.923	1478.766	1207.795
241.015	25.977	1477.894	1207.341
242.030	25.979	1477.261	1206.729
243.045	25.973	1476.222	1205.736
244.059	26.002	1475.316	1205.083
245.074	26.010	1474.190	1204.111
246.088	26.042	1473.681	1203.802
247.103	26.063	1472.880	1203.177
248.117	26.067	1472.079	1202.447
249.132	26.050	1471.014	1201.353
250.147	25.935	1471.233	1200.662
251.161	26.057	1470.368	1200.658
252.176	26.083	1469.502	1200.019
253.190	26.136	1468.811	1199.706
254.205	26.050	1467.827	1198.220
255.220	26.119	1466.937	1197.845
256.234	26.189	1465.712	1197.205
257.249	26.099	1465.214	1196.094
258.263	26.124	1464.922	1195.914
259.278	26.175	1463.817	1195.244
260.293	26.135	1462.486	1193.792
261.307	26.150	1462.336	1193.658
262.322	26.053	1461.864	1192.527
263.336	26.184	1460.807	1192.429
264.351	26.133	1459.993	1191.317
265.366	26.246	1459.002	1191.150
266.380	26.080	1458.260	1189.345
267.395	26.126	1457.514	1188.934
268.409	26.176	1456.600	1188.411
269.424	26.223	1455.398	1187.634
270.439	26.197	1454.485	1186.614
271.453	26.169	1453.825	1185.786
272.468	26.193	1452.952	1185.128
273.482	26.239	1452.483	1184.946
274.497	26.179	1451.849	1183.929
275.512	26.203	1450.796	1183.119
276.526	26.244	1450.208	1182.803
277.541	26.266	1449.439	1182.220
278.555	26.284	1448.640	1181.577
279.570	26.379	1447.697	1181.326
280.585	26.314	1446.721	1180.002
281.599	26.332	1445.925	1179.365
282.614	26.270	1444.856	1177.985
283.628	26.347	1443.789	1177.512
284.643	26.250	1443.147	1176.254
285.657	26.310	1442.223	1175.782
286.672	26.246	1441.175	1174.411
287.687	26.284	1440.678	1174.152
288.701	26.306	1439.667	1173.364
289.716	26.306	1439.165	1172.853
290.730	26.313	1438.609	1172.339
291.745	26.419	1437.314	1171.866
292.760	26.400	1436.354	1170.855
293.774	26.385	1435.419	1169.897
294.789	26.423	1435.043	1169.729
295.803	26.384	1434.461	1168.902
296.818	26.417	1433.244	1168.019
297.833	26.264	1432.957	1166.692
298.847	26.499	1431.256	1166.722
299.862	26.522	1430.822	1166.411
300.876	26.433	1430.407	1165.399
301.891	26.387	1429.129	1163.959
302.906	26.457	1428.664	1163.926
303.920	26.488	1428.110	1163.573
304.935	26.477	1427.456	1162.865
305.949	26.579	1426.415	1162.569
306.964	26.468	1425.643	1161.121
307.979	26.552	1424.724	1160.810
308.993	26.505	1424.034	1159.842
310.008	26.656	1422.929	1159.810
311.022	26.659	1421.579	1158.626
312.037	26.578	1421.028	1157.556
313.052	26.593	1420.258	1156.925
314.066	26.682	1419.410	1156.697
315.081	26.659	1418.553	1155.747
316.095	26.658	1417.331	1154.644
317.110	26.600	1416.470	1153.473
318.125	26.714	1415.388	1153.216
319.139	26.670	1414.841	1152.387
320.154	26.720	1414.134	1152.030
321.168	26.639	1412.902	1150.405
322.183	26.713	1412.403	1150.365
323.197	26.723	1411.581	1149.660
324.212	26.588	1411.124	1148.329
325.227	26.600	1410.425	1147.736
326.241	26.696	1409.370	1147.384
327.256	26.738	1408.285	1146.664
328.270	26.837	1407.468	1146.524
329.285	26.697	1407.026	1145.178
330.300	26.732	1406.091	1144.536
331.314	26.843	1405.214	1144.422
332.329	26.760	1404.924	1143.560
333.343	26.729	1403.876	1142.411
334.358	26.762	1403.203	1141.971
335.373	26.880	1402.089	1141.704
336.387	26.898	1401.738	1141.430
337.402	26.860	1400.952	1140.453
338.416	26.916	1400.153	1140.054
339.431	26.905	1399.697	1139.512
340.446	26.891	1399.408	1139.089
341.460	27.033	1398.141	1138.843
342.475	26.867	1397.290	1137.011
343.489	26.957	1396.419	1136.766
344.504	27.009	1395.602	1136.324
345.519	26.968	1394.348	1134.948
346.533	27.067	1393.400	1134.695
347.548	26.998	1392.677	1133.571
348.562	26.961	1391.962	1132.660
349.577	26.909	1391.381	1131.763
350.592	26.956	1390.469	1131.215
351.606	27.017	1389.776	1130.929
352.621	26.974	1388.759	1129.732
353.635	26.942	1387.684	1128.563
354.650	27.110	1386.829	1128.808
355.665	27.039	1386.455	1127.968
356.679	27.032	1385.267	1126.856
357.694	27.114	1383.976	1126.212
358.708	27.171	1382.762	1125.479
359.723	27.050	1382.003	1124.015
360.738	27.067	1381.037	1123.230
361.752	26.993	1380.345	1122.111
362.767	27.006	1378.741	1120.793
363.781	27.146	1377.944	1120.905
364.796	27.120	1377.544	1120.321
365.810	27.243	1376.486	1120.124
366.825	27.250	1376.068	1119.726
367.840	27.156	1375.008	1118.185
368.854	27.220	1374.525	1118.089
369.869	27.199	1374.439	1117.788
370.883	27.311	1373.720	1117.795
371.898	27.302	1372.254	1116.448
372.913	27.362	1371.614	1116.191
373.927	27.289	1371.020	1115.164
374.942	27.203	1370.454	1114.082
375.956	27.248	1369.964	1113.856
376.971	27.254	1369.232	1113.203
377.986	27.360	1368.059	1112.798
379.000	27.329	1367.092	1111.721
380.015	27.361	1366.613	1111.428
381.029	27.339	1365.959	1110.665
382.044	27.466	1365.287	1110.795
383.059	27.275	1365.013	1109.307
384.073	27.321	1364.031	1108.691
385.088	27.498	1363.334	1109.106
386.102	27.393	1363.067	1108.152
387.117	27.373	1362.234	1107.258
388.132	27.418	1361.565	1106.884
389.146	27.359	1360.785	1105.793
390.161	27.447	1359.779	1105.412
391.175	27.518	1359.271	1105.333
392.190	27.458	1358.895	1104.565
393.205	27.445	1357.739	1103.450
394.219	27.533	1357.003	1103.289
395.234	27.468	1356.246	1102.184
396.248	27.477	1355.540	1101.566
397.263	27.594	1354.037	1100.952
398.278	27.515	1353.181	1099.685
399.292	27.653	1351.969	1099.432
400.307	27.597	1351.107	1098.297
401.321	27.644	1350.412	1097.919
402.336	27.623	1349.593	1097.030
403.350	27.613	1348.268	1095.795
404.365	27.637	1346.929	1094.751
405.380	27.652	1346.399	1094.315
406.394	27.698	1345.669	1093.903
407.409	27.668	1345.512	1093.494
408.423	27.638	1344.632	1092.503
409.438	27.649	1344.215	1092.138
410.453	27.720	1342.925	1091.413
411.467	27.697	1342.269	1090.649
412.482	27.857	1341.877	1091.187
413.496	27.793	1341.323	1090.260
414.511	27.786	1340.706	1089.620
415.526	27.831	1340.033	1089.243
416.540	27.659	1339.291	1087.517
417.555	27.698	1338.536	1087.041
418.569	27.814	1337.683	1086.943
419.584	27.799	1337.569	1086.669
420.599	27.801	1336.958	1086.089
421.613	73.874	1317.419	1331.996
422.628	74.442	1314.570	1332.108
