DTS Sentinel unit serial number:	SN413079Multiplexer serial number:	ORYXHardware model number:	OX4-SRSoftware version number:	ORYX F/W v4.00 Oryx Data Collector v3.7.2.0data status	okinstallation	princeton_trtdifferential loss correction	single-endedforward channel	channel 3reverse channel	N/Adate	2019/09/12time	05:22:11forward acquisition time	60.00reverse acquisition time	0.00gamma	496.2192k internal	0.2321k external	0.2321temperature offset calibration	1.0033default loss term (dB/km)	0.3790temperature slope calibration	1.0000multiplexer offset coefficient	1.0000multiplexer slope coefficient	1.0000fibre end	0.00T internal ref (°C)	31.87T ext. ref 1 (°C)	1.62T ext. ref 2 (°C)	27.31length (m)	temperature (°C)	Stokes	anti-Stokes-747.200	145.250	0.163	-0.221
-746.185	-111.613	-0.154	0.032
-745.171	-85.528	0.298	-0.094
-744.156	-95.752	-0.322	0.087
-743.142	-110.845	-0.293	0.061
-742.127	10.988	-0.148	0.114
-741.112	219.211	0.055	-0.088
-740.098	800.000	0.036	0.123
-739.083	-181.912	0.275	0.005
-738.069	-8.968	-0.119	0.081
-737.054	-90.496	0.217	-0.063
-736.039	61.208	-0.164	-0.165
-735.025	-200.000	0.011	0.178
-734.010	-91.988	0.336	-0.096
-732.996	-200.000	-0.001	0.033
-731.981	-23.849	-0.720	-0.435
-730.966	-116.227	-0.083	-0.015
-729.952	263.602	-0.113	0.199
-728.937	15.991	-0.045	-0.036
-727.923	-113.868	0.386	-0.076
-726.908	698.554	-0.092	0.245
-725.894	17.854	-0.151	0.121
-724.879	120.535	-0.126	0.157
-723.864	696.247	0.191	0.506
-722.850	-107.453	-0.123	-0.027
-721.835	642.423	-0.115	-0.296
-720.821	343.384	-0.198	-0.391
-719.806	-200.000	-0.023	-0.229
-718.791	-56.861	-0.117	0.052
-717.777	297.304	-0.175	0.324
-716.762	-0.199	-0.092	-0.066
-715.748	-114.092	0.203	0.040
-714.733	-13.021	-0.237	0.156
-713.718	-109.555	-0.168	-0.036
-712.704	-0.113	0.345	-0.248
-711.689	-129.859	-0.230	0.032
-710.675	-200.000	-0.078	-0.371
-709.660	-17.993	-0.098	0.062
-708.645	-200.000	0.025	-0.202
-707.631	800.000	-0.034	-0.115
-706.616	-76.903	0.066	0.023
-705.602	-26.912	-0.100	-0.059
-704.587	-200.000	-0.001	0.073
-703.572	-200.000	0.058	-0.279
-702.558	-46.038	-0.066	-0.033
-701.543	98.677	-0.192	0.223
-700.529	800.000	0.058	0.237
-699.514	-200.000	-0.074	-0.485
-698.499	141.062	-0.098	-0.131
-697.485	116.284	-0.014	-0.018
-696.470	-200.000	0.007	0.363
-695.456	-25.650	-0.116	-0.069
-694.441	-6.338	0.068	-0.047
-693.426	-131.688	0.217	0.029
-692.412	-124.185	-0.207	0.033
-691.397	800.000	0.065	0.194
-690.383	33.848	0.088	-0.077
-689.368	38.184	0.154	0.138
-688.354	-200.000	-0.021	-0.206
-687.339	-151.264	0.158	-0.012
-686.324	-181.473	0.259	-0.005
-685.310	-94.447	-0.164	-0.045
-684.295	-116.947	0.244	0.045
-683.281	66.074	-0.216	0.221
-682.266	3.677	-0.143	0.105
-681.251	-73.478	-0.080	-0.030
-680.237	556.588	0.086	-0.208
-679.222	-105.181	0.103	-0.024
-678.208	196.198	0.089	-0.137
-677.193	800.000	-0.024	-0.099
-676.178	84.276	0.209	-0.230
-675.164	-200.000	0.064	-0.334
-674.149	429.354	0.100	-0.218
-673.135	-47.552	-0.308	0.151
-672.120	-100.347	0.204	-0.051
-671.105	-56.742	-0.226	-0.101
-670.091	175.451	-0.162	-0.237
-669.076	-129.720	0.058	0.008
-668.062	-90.288	-0.084	0.025
-667.047	-200.000	-0.011	-0.116
-666.032	-108.003	0.095	-0.021
-665.018	84.206	-0.210	-0.231
-664.003	82.521	0.129	-0.141
-662.989	-174.192	0.406	-0.012
-661.974	800.000	0.072	0.207
-660.959	407.211	0.166	0.352
-659.945	-200.000	-0.034	-0.209
-658.930	-98.432	0.298	-0.077
-657.916	-200.000	-0.016	0.225
-656.901	-66.572	-0.316	0.126
-655.886	-161.391	-0.129	-0.007
-654.872	303.851	0.058	0.108
-653.857	-23.522	-0.255	-0.154
-652.843	-200.000	-0.048	-0.304
-651.828	-200.000	-0.029	-0.150
-650.814	20.728	-0.154	0.125
-649.799	-200.000	0.028	0.496
-648.784	-200.000	-0.041	0.219
-647.770	71.120	-0.096	-0.100
-646.755	411.728	0.061	-0.131
-645.741	37.828	0.190	0.170
-644.726	290.835	-0.053	-0.096
-643.711	634.142	-0.174	-0.445
-642.697	-200.000	0.017	-0.399
-641.682	0.178	-0.076	-0.055
-640.668	2.041	0.164	0.119
-639.653	-52.728	-0.361	0.168
-638.638	-110.420	-0.170	-0.036
-637.624	-143.500	-0.097	0.009
-636.609	-200.000	0.062	-0.392
-635.595	282.904	0.078	0.141
-634.580	800.000	0.125	-0.523
-633.565	-97.401	-0.163	-0.043
-632.551	-74.048	0.212	-0.077
-631.536	-200.000	0.004	0.284
-630.522	-37.325	-0.357	-0.192
-629.507	-111.944	0.351	-0.071
-628.492	-5.902	-0.141	-0.097
-627.478	89.825	0.139	0.156
-626.463	357.915	-0.197	0.396
-625.449	-118.576	-0.267	0.047
-624.434	-163.266	-0.249	0.012
-623.419	-110.774	-0.091	0.019
-622.405	32.007	0.188	0.163
-621.390	-166.018	-0.216	-0.009
-620.376	-39.530	-0.158	-0.083
-619.361	-129.384	-0.279	0.039
-618.346	800.000	0.019	0.081
-617.332	728.273	-0.028	0.076
-616.317	553.357	-0.143	0.345
-615.303	186.346	-0.117	-0.175
-614.288	800.000	-0.041	0.165
-613.273	-154.328	-0.488	0.033
-612.259	-2.311	0.185	-0.130
-611.244	-187.700	-0.094	-0.001
-610.230	644.889	0.030	0.078
-609.215	203.038	-0.064	-0.099
-608.201	-123.171	-0.094	0.015
-607.186	800.000	-0.059	-0.219
-606.171	-164.227	-0.173	0.008
-605.157	-138.333	-0.126	0.014
-604.142	-200.000	-0.005	0.155
-603.128	353.771	-0.034	-0.068
-602.113	-200.000	-0.021	-0.193
-601.098	-93.546	0.141	-0.039
-600.084	-176.609	0.047	-0.001
-599.069	7.898	0.296	-0.223
-598.055	57.551	0.041	0.040
-597.040	800.000	-0.040	-0.127
-596.025	-59.978	0.230	-0.099
-595.011	-57.649	-0.102	-0.045
-593.996	40.581	-0.387	0.351
-592.982	138.417	0.327	-0.430
-591.967	111.450	0.107	-0.130
-590.952	-79.598	-0.128	0.043
-589.938	-200.000	0.003	0.280
-588.923	-30.025	0.043	-0.025
-587.909	800.000	-0.050	0.179
-586.894	-200.000	0.007	0.209
-585.879	15.658	0.090	0.071
-584.865	-200.000	-0.017	-0.207
-583.850	185.780	-0.069	0.103
-582.836	659.140	-0.052	-0.134
-581.821	5.413	0.362	-0.268
-580.806	94.048	0.113	0.129
-579.792	103.330	-0.127	0.150
-578.777	140.905	0.008	-0.011
-577.763	366.868	0.064	0.129
-576.748	210.717	0.008	0.013
-575.733	99.331	-0.285	0.330
-574.719	-200.000	-0.058	0.312
-573.704	-200.000	-0.020	0.412
-572.690	-3.399	0.087	-0.061
-571.675	-23.539	0.373	0.225
-570.661	53.214	0.186	0.179
-569.646	-200.000	0.013	-0.146
-568.631	-128.065	0.239	-0.034
-567.617	-200.000	0.036	0.256
-566.602	-29.274	0.197	-0.113
-565.588	-74.892	0.171	-0.061
-564.573	-128.346	-0.075	0.011
-563.558	-193.151	-0.220	-0.002
-562.544	800.000	0.041	0.146
-561.529	800.000	0.087	-0.254
-560.515	800.000	0.068	-0.220
-559.500	439.461	0.052	-0.115
-558.485	-58.107	-0.151	-0.066
-557.471	-33.474	-0.210	-0.116
-556.456	-200.000	0.009	0.041
-555.442	-200.000	-0.024	0.132
-554.427	-77.627	0.321	0.111
-553.412	-200.000	0.026	-0.374
-552.398	27.078	-0.073	0.061
-551.383	74.443	0.140	0.147
-550.369	341.524	-0.040	0.079
-549.354	134.758	-0.114	-0.148
-548.339	-136.617	0.039	0.005
-547.325	-128.672	-0.292	0.041
-546.310	-200.000	0.037	0.189
-545.296	8.991	0.169	-0.128
-544.281	-72.369	-0.161	0.060
-543.266	-90.820	-0.116	-0.033
-542.252	178.353	0.167	-0.245
-541.237	-183.419	-0.180	-0.003
-540.223	122.295	0.036	0.045
-539.208	94.266	0.081	-0.092
-538.193	-200.000	0.058	-0.367
-537.179	-140.578	0.449	-0.047
-536.164	-69.485	-0.113	0.044
-535.150	-120.833	-0.040	0.007
-534.135	563.223	0.127	0.308
-533.121	-200.000	-0.034	-0.477
-532.106	-140.831	0.297	-0.031
-531.091	-77.996	-0.350	-0.121
-530.077	800.000	-0.055	0.198
-529.062	-24.024	-0.323	0.193
-528.048	-112.141	0.236	-0.048
-527.033	-123.334	0.251	-0.040
-526.018	-166.232	-0.327	-0.014
-525.004	800.000	-0.096	0.419
-523.989	126.600	-0.048	0.061
-522.975	-200.000	-0.003	0.031
-521.960	-60.244	-0.118	-0.050
-520.945	-200.000	-0.048	0.231
-519.931	41.903	0.151	0.137
-518.916	-200.000	0.022	-0.221
-517.902	-200.000	-0.008	0.220
-516.887	-61.982	-0.127	-0.053
-515.872	-77.038	-0.037	-0.013
-514.858	369.847	0.118	-0.239
-513.843	800.000	0.094	0.289
-512.829	-200.000	-0.018	-0.146
-511.814	-200.000	-0.067	0.330
-510.799	112.066	-0.049	-0.059
-509.785	293.007	-0.119	0.218
-508.770	800.000	-0.075	0.273
-507.756	100.301	0.098	-0.114
-506.741	-14.434	-0.515	-0.332
-505.726	74.076	-0.231	-0.243
-504.712	-200.000	-0.041	0.274
-503.697	59.900	0.226	0.223
-502.683	800.000	0.039	0.135
-501.668	-200.000	-0.028	0.219
-500.653	283.452	-0.246	0.443
-499.639	111.623	0.123	-0.149
-498.624	89.419	-0.058	0.065
-497.610	-200.000	0.103	0.703
-496.595	-200.000	-0.039	0.215
-495.581	-131.149	0.255	0.034
-494.566	-200.000	-0.029	0.218
-493.551	138.935	0.194	-0.255
-492.537	-90.276	0.129	-0.038
-491.522	252.564	-0.231	-0.394
-490.508	-200.000	0.014	-0.423
-489.493	161.662	0.098	0.138
-488.478	130.284	-0.063	-0.081
-487.464	-158.576	-0.101	-0.006
-486.449	129.312	-0.070	0.090
-485.435	-32.488	0.021	-0.011
-484.420	256.110	0.094	0.161
-483.405	-200.000	-0.014	0.159
-482.391	-200.000	-0.036	0.208
-481.376	44.761	-0.143	-0.131
-480.362	-97.843	-0.063	-0.016
-479.347	397.548	-0.122	0.256
-478.332	-55.501	-0.209	0.094
-477.318	-200.000	0.082	0.477
-476.303	800.000	-0.067	0.208
-475.289	-24.477	0.224	0.133
-474.274	800.000	-0.046	0.147
-473.259	-100.001	-0.258	0.064
-472.245	73.875	0.307	-0.322
-471.230	800.000	0.052	0.191
-470.216	518.286	-0.043	-0.100
-469.201	800.000	-0.051	-0.181
-468.186	130.577	0.173	-0.221
-467.172	-34.934	-0.169	0.092
-466.157	800.000	-0.048	-0.171
-465.143	183.106	0.163	0.240
-464.128	800.000	-0.091	-0.322
-463.113	343.290	0.029	-0.057
-462.099	81.732	0.142	-0.154
-461.084	173.978	0.106	-0.153
-460.070	470.594	-0.030	-0.067
-459.055	46.290	-0.162	0.150
-458.040	111.538	-0.108	0.130
-457.026	92.741	-0.092	-0.103
-456.011	-165.449	0.193	0.008
-454.997	-101.981	-0.066	0.016
-453.982	-200.000	0.003	0.058
-452.968	709.990	-0.031	0.081
-451.953	46.585	0.151	0.140
-450.938	-96.688	0.185	-0.049
-449.924	-200.000	-0.004	-0.038
-448.909	-200.000	0.014	-0.100
-447.895	79.599	0.163	0.174
-446.880	-200.000	0.007	-0.513
-445.865	18.286	-0.311	-0.248
-444.851	-35.420	-0.150	-0.082
-443.836	273.351	-0.231	-0.407
-442.822	800.000	0.072	0.290
-441.807	-69.602	-0.268	-0.103
-440.792	42.046	-0.313	0.284
-439.778	-200.000	-0.002	-0.139
-438.763	469.474	-0.119	0.267
-437.749	-80.351	-0.052	-0.017
-436.734	-85.039	0.466	0.146
-435.719	-200.000	0.008	-0.060
-434.705	69.651	-0.187	-0.192
-433.690	-200.000	-0.030	-0.312
-432.676	-200.000	0.001	0.189
-431.661	72.057	0.126	0.131
-430.646	439.179	0.154	-0.337
-429.632	-82.017	0.077	0.025
-428.617	259.295	-0.058	0.099
-427.603	-154.544	0.292	-0.019
-426.588	-200.000	0.015	-0.238
-425.573	-36.700	0.290	0.156
-424.559	800.000	0.040	-0.135
-423.544	227.396	0.117	-0.190
-422.530	-144.264	-0.489	0.045
-421.515	-200.000	-0.028	0.148
-420.500	102.517	0.151	-0.176
-419.486	-141.096	0.208	0.021
-418.471	-200.000	0.007	0.031
-417.457	-17.114	-0.130	-0.082
-416.442	-159.388	-0.163	-0.009
-415.428	-53.874	0.255	-0.116
-414.413	800.000	0.068	-0.288
-413.398	219.351	-0.196	0.312
-412.384	561.737	-0.104	0.251
-411.369	800.000	0.075	-0.238
-410.355	8.573	-0.114	0.085
-409.340	-65.022	0.272	0.109
-408.325	10.788	-0.063	-0.048
-407.311	174.184	0.096	-0.138
-406.296	-200.000	0.012	-0.229
-405.282	-141.057	0.103	0.011
-404.267	45.094	0.132	-0.122
-403.252	41.118	0.069	0.062
-402.238	33.307	0.213	0.184
-401.223	-129.583	0.185	0.025
-400.209	71.514	-0.047	-0.049
-399.194	161.577	-0.096	-0.135
-398.179	-90.339	0.341	-0.099
-397.165	800.000	-0.108	-0.341
-396.150	-142.812	-0.285	-0.028
-395.136	107.059	-0.161	0.191
-394.121	253.597	0.111	-0.190
-393.106	-200.000	-0.008	-0.153
-392.092	695.084	-0.050	-0.132
-391.077	-129.129	0.213	0.030
-390.063	103.597	0.132	-0.155
-389.048	-111.294	-0.307	0.062
-388.033	800.000	0.115	0.320
-387.019	135.970	0.022	-0.029
-386.004	767.458	-0.061	-0.164
-384.990	800.000	0.060	-0.191
-383.975	-9.491	0.175	-0.117
-382.960	800.000	-0.045	0.123
-381.946	-1.627	0.313	0.220
-380.931	4.578	-0.082	0.060
-379.917	97.599	0.215	-0.246
-378.902	75.561	0.117	0.123
-377.888	332.547	0.154	0.297
-376.873	198.110	-0.165	0.251
-375.858	-200.000	-0.014	0.248
-374.844	-60.428	0.252	-0.107
-373.829	27.290	-0.138	-0.115
-372.815	-200.000	-0.028	0.409
-371.800	-23.746	-0.208	0.124
-370.785	-200.000	-0.008	0.120
-369.771	-109.726	0.194	0.041
-368.756	290.536	0.085	-0.154
-367.742	-89.916	0.266	0.077
-366.727	-68.602	0.073	0.028
-365.712	-110.493	-0.132	-0.027
-364.698	-63.769	0.153	0.062
-363.683	-39.632	-0.069	-0.036
-362.669	800.000	0.078	-0.271
-361.654	-18.668	0.176	-0.109
-360.639	-200.000	-0.032	-0.147
-359.625	-83.860	-0.277	-0.088
-358.610	-200.000	0.007	0.235
-357.596	-163.449	-0.095	-0.005
-356.581	-200.000	-0.034	-0.539
-355.566	800.000	0.063	-0.198
-354.552	273.888	0.168	0.296
-353.537	287.939	0.124	0.223
-352.523	69.210	0.114	0.117
-351.508	-200.000	0.014	0.148
-350.493	35.544	0.089	0.078
-349.479	800.000	0.110	-0.313
-348.464	348.533	-0.108	-0.213
-347.450	34.153	0.096	0.084
-346.435	58.443	0.129	-0.126
-345.420	-19.859	-0.222	-0.136
-344.406	-200.000	-0.022	-0.267
-343.391	-135.451	-0.083	0.010
-342.377	215.838	0.154	-0.243
-341.362	111.086	0.108	0.129
-340.348	437.427	0.104	-0.225
-339.333	-115.434	-0.356	-0.067
-338.318	447.824	-0.074	0.162
-337.304	168.220	-0.061	-0.086
-336.289	208.253	-0.134	0.209
-335.275	99.195	0.044	0.051
-334.260	18.448	-0.179	-0.142
-333.245	53.020	-0.162	-0.155
-332.231	-66.268	0.153	0.061
-331.216	-71.469	0.119	0.044
-330.202	11.308	0.024	-0.018
-329.187	-128.163	-0.091	0.013
-328.172	-200.000	0.075	0.345
-327.158	-134.625	-0.461	-0.056
-326.143	800.000	-0.076	0.311
-325.129	-200.000	-0.000	-0.181
-324.114	800.000	0.112	-0.402
-323.099	262.452	-0.064	-0.111
-322.085	-200.000	0.009	-0.060
-321.070	-133.499	-0.062	-0.008
-320.056	-69.828	0.211	-0.080
-319.041	-124.671	0.282	0.043
-318.026	23.010	-0.065	0.053
-317.012	246.757	-0.228	-0.382
-315.997	353.626	-0.025	0.050
-314.983	800.000	-0.169	0.477
-313.968	1.397	-0.108	0.077
-312.953	-108.251	0.175	-0.038
-311.939	168.961	0.090	-0.128
-310.924	9.465	-0.185	0.139
-309.910	-62.041	-0.233	0.097
-308.895	112.805	-0.083	-0.099
-307.880	156.823	0.176	-0.242
-306.866	-146.644	-0.467	-0.040
-305.851	800.000	-0.034	0.141
-304.837	89.333	0.205	0.226
-303.822	-23.977	-0.389	0.231
-302.807	800.000	0.043	0.135
-301.793	-155.278	0.006	0.000
-300.778	-123.614	-0.209	0.033
-299.764	-200.000	0.055	0.317
-298.749	-99.628	-0.406	0.101
-297.735	-200.000	-0.025	0.268
-296.720	-106.247	0.103	-0.023
-295.705	197.860	-0.171	-0.259
-294.691	644.014	-0.056	-0.142
-293.676	128.179	-0.141	0.178
-292.662	86.244	0.340	0.372
-291.647	800.000	0.075	0.220
-290.632	60.789	0.059	0.058
-289.618	183.094	-0.099	-0.145
-288.603	-188.386	0.126	0.002
-287.589	-86.723	-0.273	0.083
-286.574	-50.799	-0.149	-0.069
-285.559	800.000	-0.055	-0.175
-284.545	451.088	0.055	0.120
-283.530	9.428	-0.250	-0.188
-282.516	207.798	-0.154	-0.238
-281.501	-156.619	0.279	0.017
-280.486	-200.000	0.001	-0.258
-279.472	171.982	0.229	-0.327
-278.457	-81.249	-0.243	0.080
-277.443	-52.134	-0.365	0.168
-276.428	-108.185	-0.332	-0.071
-275.413	-81.260	0.163	-0.053
-274.399	800.000	0.123	-0.356
-273.384	-200.000	0.002	-0.119
-272.370	-29.504	-0.169	-0.096
-271.355	-159.370	-0.139	0.008
-270.340	-200.000	0.010	0.090
-269.326	388.543	0.048	0.099
-268.311	-158.284	0.022	0.001
-267.297	714.213	-0.064	0.168
-266.282	10.137	0.493	0.372
-265.267	-79.870	0.228	-0.076
-264.253	19.398	-0.065	0.052
-263.238	-127.705	-0.177	-0.025
-262.224	5.659	0.046	0.033
-261.209	800.000	-0.029	0.124
-260.195	119.502	-0.346	0.425
-259.180	-200.000	0.030	0.175
-258.165	-179.559	-0.018	0.000
-257.151	62.721	0.186	-0.184
-256.136	800.000	-0.092	-0.314
-255.122	-200.000	-0.019	0.094
-254.107	70.139	-0.077	-0.079
-253.092	800.000	0.021	0.057
-252.078	286.108	-0.101	-0.181
-251.063	-81.571	-0.182	-0.059
-250.049	-85.161	-0.096	0.030
-249.034	-133.521	-0.271	0.034
-248.019	-52.449	-0.211	0.097
-247.005	-200.000	-0.013	0.138
-245.990	-61.910	-0.222	-0.092
-244.976	286.890	0.113	0.202
-243.961	-26.700	0.327	0.189
-242.946	32.340	0.160	0.137
-241.932	-200.000	-0.032	0.217
-240.917	-200.000	0.022	-0.141
-239.903	-6.159	-0.106	-0.072
-238.888	-122.927	0.059	-0.009
-237.873	-43.880	0.078	0.039
-236.859	-164.598	-0.184	0.008
-235.844	120.858	-0.078	0.096
-234.830	394.202	0.097	-0.200
-233.815	148.327	0.273	-0.366
-232.800	-103.245	-0.240	0.056
-231.786	-36.384	0.174	-0.093
-230.771	-200.000	0.018	0.094
-229.757	-82.434	0.413	0.133
-228.742	-92.637	0.145	0.040
-227.727	316.139	0.033	-0.062
-226.713	-17.127	0.277	0.173
-225.698	-21.170	0.286	-0.173
-224.684	800.000	0.055	0.213
-223.669	-147.186	0.157	-0.013
-222.655	-138.025	-0.391	0.043
-221.640	-7.019	-0.367	-0.246
-220.625	-64.704	0.145	-0.058
-219.611	340.180	-0.041	0.079
-218.596	613.095	-0.023	-0.057
-217.582	-8.073	0.228	-0.152
-216.567	-200.000	-0.042	-0.254
-215.552	2.297	-0.095	0.068
-214.538	-155.043	-0.188	-0.012
-213.523	406.253	0.098	0.205
-212.509	-85.698	0.118	0.036
-211.494	-200.000	0.021	-0.117
-210.479	-106.866	-0.270	0.059
-209.465	-98.813	-0.068	0.017
-208.450	164.484	0.182	-0.254
-207.436	154.508	-0.214	-0.291
-206.421	674.669	-0.109	0.279
-205.406	13.146	0.112	0.086
-204.392	62.115	0.078	0.077
-203.377	276.303	-0.052	0.091
-202.363	155.612	0.136	-0.185
-201.348	-72.393	0.345	0.126
-200.333	-8.997	-0.314	-0.208
-199.319	-92.332	0.143	0.040
-198.304	-118.698	-0.149	0.026
-197.290	-200.000	0.025	-0.238
-196.275	-74.530	-0.172	-0.061
-195.260	757.005	-0.077	-0.207
-194.246	174.272	-0.062	-0.089
-193.231	800.000	-0.085	0.328
-192.217	-145.558	0.482	0.043
-191.202	-110.714	0.430	0.088
-190.187	259.536	0.080	0.137
-189.173	-187.036	-0.246	0.003
-188.158	-60.681	0.273	-0.115
-187.144	112.943	0.068	-0.081
-186.129	528.684	-0.048	0.112
-185.114	-200.000	-0.010	-0.160
-184.100	-22.877	0.030	-0.018
-183.085	428.882	-0.051	-0.109
-182.071	143.451	0.130	0.171
-181.056	-130.957	0.314	0.041
-180.042	-148.746	0.254	-0.020
-179.027	-95.550	0.366	0.097
-178.012	-10.078	0.210	0.138
-176.998	-200.000	0.020	-0.240
-175.983	-80.099	0.228	-0.075
-174.969	202.960	0.140	-0.214
-173.954	-58.996	0.204	-0.087
-172.939	-4.665	-0.235	0.161
-171.925	-200.000	0.032	0.282
-170.910	365.349	0.128	-0.254
-169.896	-159.271	-0.123	0.007
-168.881	48.808	0.188	-0.174
-167.866	-160.140	0.579	-0.031
-166.852	-200.000	-0.021	0.265
-165.837	291.126	-0.180	-0.324
-164.823	504.711	0.108	-0.247
-163.808	-166.561	-0.235	-0.010
-162.793	-78.846	0.133	0.045
-161.779	-34.695	0.149	-0.080
-160.764	-167.101	-0.268	0.011
-159.750	-200.000	-0.074	0.336
-158.735	800.000	0.077	-0.302
-157.720	352.904	0.045	-0.088
-156.706	800.000	-0.049	0.188
-155.691	-200.000	0.029	0.141
-154.677	800.000	0.044	-0.144
-153.662	-40.404	-0.113	-0.058
-152.647	800.000	0.078	-0.264
-151.633	593.414	-0.030	-0.072
-150.618	-99.945	0.271	-0.067
-149.604	69.071	-0.070	-0.071
-148.589	-168.942	-0.107	0.004
-147.574	188.889	0.111	-0.164
-146.560	158.638	0.039	0.054
-145.545	-113.576	-0.103	-0.020
-144.531	311.400	-0.126	-0.234
-143.516	-5.415	-0.089	-0.061
-142.502	-0.345	0.409	0.287
-141.487	-71.193	0.071	-0.026
-140.472	-200.000	0.028	-0.221
-139.458	208.297	0.207	0.319
-138.443	340.669	0.101	0.195
-137.429	800.000	0.062	0.208
-136.414	-55.422	-0.163	0.072
-135.399	599.668	-0.048	-0.116
-134.385	-200.000	-0.069	-0.355
-133.370	-200.000	0.066	0.324
-132.356	-37.579	-0.167	-0.088
-131.341	800.000	-0.066	0.282
-130.326	330.261	0.152	0.289
-129.312	117.407	-0.178	0.216
-128.297	-154.290	-0.213	0.014
-127.283	125.437	-0.115	-0.143
-126.268	-200.000	-0.055	-0.470
-125.253	800.000	0.147	-0.581
-124.239	83.927	0.351	0.378
-123.224	-115.528	0.182	-0.034
-122.210	-155.328	-0.168	-0.011
-121.195	-162.685	0.116	0.006
-120.180	-200.000	0.027	0.284
-119.166	52.314	0.223	0.209
-118.151	-200.000	-0.019	-0.251
-117.137	-49.752	0.180	0.085
-116.122	42.414	0.306	-0.275
-115.107	199.116	-0.135	-0.204
-114.093	33.360	-0.235	0.201
-113.078	800.000	-0.112	0.400
-112.064	54.626	0.148	0.140
-111.049	375.332	-0.072	-0.145
-110.034	49.870	0.077	-0.071
-109.020	528.463	0.092	-0.215
-108.005	-7.329	0.231	-0.154
-106.991	-117.344	0.260	0.047
-105.976	-24.907	-0.292	-0.171
-104.962	-200.000	-0.038	-0.321
-103.947	258.929	0.042	0.071
-102.932	-200.000	-0.013	0.249
-101.918	-26.679	-0.344	0.199
-100.903	139.795	-0.163	0.212
-99.889	-69.055	-0.247	-0.094
-98.874	99.556	-0.215	-0.245
-97.859	-79.204	0.108	0.036
-96.845	-22.139	-0.099	-0.059
-95.830	-84.574	-0.088	-0.027
-94.816	201.224	-0.040	0.061
-93.801	68.907	-0.142	0.144
-92.786	-25.656	-0.215	-0.125
-91.772	-191.191	0.079	-0.001
-90.757	204.149	-0.187	0.286
-89.743	-200.000	0.097	-0.477
-88.728	-91.647	0.146	0.041
-87.713	-89.316	0.202	-0.059
-86.699	-109.726	0.113	0.023
-85.684	-139.254	-0.041	-0.004
-84.670	44.026	0.127	0.114
-83.655	-82.303	0.083	-0.027
-82.640	800.000	0.008	-0.031
-81.626	800.000	0.093	0.343
-80.611	800.000	0.051	-0.200
-79.597	-112.377	0.107	-0.021
-78.582	-131.434	-0.250	0.032
-77.567	-21.954	-0.157	0.094
-76.553	-200.000	-0.091	0.583
-75.538	-200.000	-0.009	-0.199
-74.524	446.348	-0.102	0.222
-73.509	23.834	-0.200	-0.163
-72.494	-200.000	0.000	0.088
-71.480	77.943	-0.061	-0.064
-70.465	231.798	0.120	0.194
-69.451	-200.000	-0.021	-0.208
-68.436	-200.000	0.042	0.218
-67.422	-100.124	0.240	-0.059
-66.407	28.009	-0.084	0.070
-65.392	-200.000	0.002	-0.132
-64.378	-79.946	0.236	-0.078
-63.363	-175.035	-0.441	0.012
-62.349	172.269	-0.226	0.320
-61.334	94.906	-1.028	-1.151
-60.319	-17.077	0.525	0.326
-59.305	251.142	-0.504	-0.844
-58.290	132.443	0.967	1.227
-57.276	706.511	0.584	1.518
-56.261	-200.000	95.793	595.364
-55.246	563.253	1367.804	3257.427
-54.232	161.859	2546.749	3508.108
-53.217	112.082	2158.488	2565.699
-52.203	42.725	1702.707	1525.274
-51.188	35.106	1516.393	1306.593
-50.173	32.692	1489.792	1267.409
-49.159	51.993	1539.141	1441.721
-48.144	53.728	1556.523	1469.806
-47.130	35.258	1516.292	1307.330
-46.115	32.106	1501.914	1273.546
-45.100	32.034	1498.431	1270.058
-44.086	32.024	1496.218	1268.067
-43.071	31.866	1494.463	1265.461
-42.057	31.902	1492.670	1264.136
-41.042	31.920	1491.188	1262.949
-40.027	32.007	1489.905	1262.397
-39.013	31.843	1488.594	1260.138
-37.998	31.829	1487.966	1259.462
-36.984	31.918	1485.965	1258.314
-35.969	31.918	1484.833	1257.307
-34.954	31.927	1483.103	1255.848
-33.940	31.870	1482.223	1254.673
-32.925	31.873	1481.004	1253.612
-31.911	31.894	1479.418	1252.362
-30.896	31.979	1477.758	1251.469
-29.881	31.902	1476.525	1249.866
-28.867	31.967	1475.025	1248.981
-27.852	31.904	1474.047	1247.683
-26.838	31.964	1472.245	1246.506
-25.823	31.978	1471.051	1245.537
-24.809	31.915	1469.353	1243.634
-23.794	31.905	1468.001	1242.375
-22.779	31.986	1466.857	1241.891
-21.765	31.984	1465.361	1240.563
-20.750	31.896	1464.457	1239.167
-19.736	31.879	1463.684	1238.349
-18.721	31.825	1462.147	1236.645
-17.706	31.876	1461.133	1236.077
-16.692	31.896	1459.673	1234.924
-15.677	31.816	1458.858	1233.655
-14.663	31.853	1457.720	1232.889
-13.648	31.805	1457.425	1232.279
-12.633	31.828	1456.369	1231.482
-11.619	31.774	1455.220	1230.111
-10.604	31.914	1454.544	1230.406
-9.590	31.816	1453.983	1229.241
-8.575	31.814	1453.261	1228.573
-7.560	31.761	1452.232	1227.303
-6.546	31.792	1450.923	1226.351
-5.531	31.891	1450.100	1226.254
-4.517	31.796	1449.260	1224.877
-3.502	31.848	1447.832	1223.963
-2.487	31.789	1446.958	1222.788
-1.473	31.828	1445.986	1222.169
-0.458	31.837	1444.873	1221.238
0.556	31.735	1435.626	1210.615
1.571	29.150	1410.492	1172.875
2.586	26.022	1354.899	1107.384
3.600	24.468	1276.276	1034.034
4.615	23.229	1229.701	989.294
5.629	19.688	1171.535	923.529
6.644	10.120	1084.400	807.216
7.659	2.719	1044.089	741.459
8.673	1.846	1038.135	732.970
9.688	1.557	1035.267	729.495
10.702	1.518	1033.649	728.103
11.717	1.569	1031.312	726.635
12.731	4.493	1034.754	742.996
13.746	14.211	1048.614	799.790
14.761	22.500	1059.250	847.902
15.775	24.694	1061.563	860.251
16.790	24.999	1061.261	861.397
17.804	24.867	1060.347	859.943
18.819	24.686	1059.975	858.697
19.834	24.744	1059.091	858.182
20.848	24.906	1058.752	858.610
21.863	25.060	1058.603	859.152
22.877	25.033	1057.884	858.359
23.892	24.984	1057.715	857.913
24.907	24.895	1056.624	856.527
25.921	25.029	1055.690	856.337
26.936	24.879	1055.246	855.183
27.950	24.854	1053.775	853.797
28.965	24.721	1053.173	852.598
29.980	24.812	1051.268	851.413
30.994	24.789	1050.179	850.344
32.009	24.933	1049.529	850.429
33.023	25.138	1048.875	850.799
34.038	24.906	1047.695	848.663
35.053	24.812	1046.694	847.334
36.067	24.911	1046.296	847.405
37.082	24.939	1045.377	846.718
38.096	24.981	1044.795	846.369
39.111	25.212	1044.079	846.808
40.126	25.299	1043.279	846.493
41.140	25.133	1042.320	844.856
42.155	24.759	1041.065	842.006
43.169	24.507	1039.386	839.390
44.184	24.538	1038.182	838.489
45.199	24.675	1037.112	838.189
46.213	24.472	1036.472	836.649
47.228	24.570	1035.436	836.197
48.242	24.765	1034.773	836.499
49.257	24.869	1034.082	836.352
50.271	24.876	1033.675	835.982
51.286	25.063	1032.622	835.930
52.301	25.114	1031.708	835.354
53.315	24.956	1031.472	834.353
54.330	24.968	1030.591	833.623
55.344	24.880	1029.643	832.371
56.359	24.894	1028.590	831.514
57.374	24.932	1027.957	831.100
58.388	24.728	1027.428	829.657
59.403	24.653	1026.891	828.799
60.417	24.637	1025.968	827.909
61.432	24.516	1024.704	826.255
62.447	24.605	1023.893	825.938
63.461	24.697	1023.410	825.904
64.476	24.754	1022.878	825.664
65.490	24.842	1021.637	824.991
66.505	24.580	1021.093	823.273
67.520	24.754	1020.166	823.255
68.534	24.724	1019.725	822.689
69.549	24.482	1018.804	820.759
70.563	24.252	1017.425	818.521
71.578	24.168	1016.915	817.653
72.593	24.303	1015.802	817.304
73.607	24.076	1014.692	815.300
74.622	24.071	1014.075	814.710
75.636	24.374	1013.310	815.405
76.651	24.547	1012.801	815.713
77.666	24.431	1011.532	814.092
78.680	24.165	1010.908	812.304
79.695	24.313	1010.524	812.600
80.709	24.466	1009.394	812.314
81.724	24.495	1009.041	812.090
82.739	24.551	1007.771	811.253
83.753	24.437	1007.351	810.322
84.768	24.704	1006.799	811.017
85.782	25.214	1006.242	812.812
86.797	25.292	1005.108	812.174
87.812	25.236	1004.973	811.740
88.826	25.052	1003.753	809.851
89.841	25.050	1002.899	809.080
90.855	25.283	1002.089	809.410
91.870	25.120	1001.668	808.261
92.884	25.107	1000.841	807.462
93.899	25.127	999.585	806.470
94.914	24.962	998.291	804.613
95.928	25.083	997.763	804.658
96.943	25.107	997.147	804.199
97.957	24.787	995.658	801.494
98.972	24.575	994.917	799.877
99.987	24.355	993.855	797.967
101.001	24.630	992.989	798.434
102.016	24.831	992.676	799.007
103.030	24.790	992.023	798.229
104.045	24.793	990.920	797.285
105.060	24.635	989.601	795.446
106.074	24.376	988.830	793.606
107.089	24.539	987.715	793.367
108.103	24.828	987.772	794.625
109.118	24.918	986.410	793.856
110.133	24.555	985.535	791.474
111.147	24.630	984.212	790.673
112.162	24.591	983.405	789.784
113.176	24.333	982.203	787.609
114.191	24.476	981.591	787.680
115.206	24.625	980.629	787.496
116.220	24.299	979.529	785.105
117.235	24.211	978.274	783.643
118.249	24.373	978.146	784.186
119.264	24.158	977.668	782.786
120.279	24.265	976.387	782.163
121.293	24.202	975.951	781.466
122.308	24.146	975.261	780.597
123.322	24.278	974.421	780.438
124.337	24.308	972.847	779.239
125.352	24.273	971.853	778.219
126.366	23.770	970.432	774.821
127.381	23.484	968.936	772.313
128.395	24.003	968.943	774.510
129.410	24.656	968.787	777.156
130.424	24.867	967.576	777.031
131.439	24.706	967.365	776.094
132.454	24.826	965.538	775.078
133.468	24.719	965.421	774.456
134.483	24.780	964.524	773.930
135.497	24.660	963.907	772.847
136.512	24.912	963.379	773.444
137.527	25.049	962.700	773.421
138.541	25.060	961.443	772.392
139.556	25.019	961.055	771.836
140.570	25.087	960.089	771.282
141.585	24.978	959.172	770.010
142.600	25.055	958.823	769.991
143.614	24.933	957.771	768.558
144.629	25.018	956.971	768.211
145.643	25.419	955.916	769.014
146.658	25.237	955.181	767.572
147.673	25.069	954.147	765.958
148.687	25.044	952.971	764.841
149.702	24.880	952.076	763.355
150.716	24.756	951.313	762.148
151.731	24.751	950.222	761.183
152.746	24.933	949.062	760.962
153.760	25.186	948.566	761.571
154.775	25.083	948.543	761.047
155.789	25.260	947.170	760.627
156.804	25.234	946.425	759.852
157.819	25.177	945.219	758.577
158.833	25.170	944.749	758.101
159.848	25.215	944.063	757.673
160.862	25.162	943.408	756.857
161.877	25.277	942.587	756.618
162.892	25.080	941.896	755.166
163.906	25.384	940.297	755.095
164.921	25.196	939.605	753.682
165.935	25.177	938.549	752.689
166.950	25.255	937.858	752.397
167.964	25.242	936.766	751.400
168.979	25.251	935.766	750.569
169.994	25.183	934.775	749.424
171.008	25.120	933.728	748.255
172.023	25.072	933.208	747.571
173.037	25.194	932.726	747.627
174.052	25.139	931.486	746.336
175.067	24.989	930.382	744.763
176.081	24.793	929.827	743.438
177.096	25.030	928.744	743.490
178.110	24.982	928.139	742.744
179.125	24.925	926.763	741.338
180.140	24.504	925.929	738.865
181.154	24.592	925.428	738.764
182.169	24.606	924.815	738.268
183.183	24.969	924.430	739.391
184.198	25.213	923.970	739.965
185.213	25.186	923.478	739.394
186.227	25.218	922.510	738.685
187.242	25.142	922.494	738.295
188.256	25.082	922.051	737.629
189.271	25.321	920.598	737.383
190.286	25.281	920.244	736.870
191.300	25.163	919.097	735.401
192.315	24.540	917.771	731.724
193.329	23.636	916.592	727.021
194.344	23.533	914.946	725.229
195.359	23.965	915.866	727.660
196.373	24.896	915.892	731.421
197.388	25.171	915.693	732.322
198.402	25.071	914.621	730.994
199.417	25.107	914.333	730.843
200.432	25.177	913.869	730.693
201.446	25.074	912.810	729.365
202.461	24.762	912.602	727.862
203.475	24.764	911.624	727.026
204.490	24.290	910.582	724.207
205.504	23.144	908.708	718.003
206.519	23.576	908.439	719.479
207.534	24.546	908.609	723.484
208.548	24.772	907.752	723.652
209.563	24.988	908.251	724.857
210.577	24.959	907.466	724.052
211.592	24.710	906.866	722.502
212.607	25.064	906.691	723.729
213.621	25.298	906.000	724.057
214.636	25.229	904.861	722.806
215.650	25.398	904.541	723.165
216.665	25.243	904.054	722.090
217.680	25.266	903.428	721.615
218.694	25.361	903.212	721.763
219.709	25.007	902.010	719.319
220.723	24.686	901.180	717.304
221.738	24.878	900.805	717.711
222.753	25.008	900.229	717.709
223.767	24.972	899.373	716.819
224.782	25.271	898.419	717.190
225.796	25.243	898.296	716.917
226.811	25.397	897.510	716.841
227.826	25.004	896.431	714.351
228.840	24.208	895.207	710.143
229.855	24.165	893.974	708.930
230.869	24.299	894.123	709.518
231.884	24.126	892.689	707.631
232.899	24.089	892.221	707.049
233.913	24.850	893.171	710.764
234.928	25.088	892.284	710.937
235.942	24.925	891.874	709.903
236.957	24.965	891.096	709.379
237.972	24.686	889.752	707.143
238.986	24.678	889.216	706.623
240.001	24.712	889.215	706.692
241.015	24.756	888.309	706.084
242.030	24.868	887.658	705.948
243.045	24.953	887.096	705.772
244.059	25.139	886.519	705.983
245.074	25.269	886.550	706.458
246.088	25.084	885.905	705.154
247.103	24.918	884.283	703.147
248.117	24.812	884.246	702.638
249.132	25.314	884.494	704.745
250.147	25.626	884.372	705.809
251.161	25.816	883.525	705.815
252.176	25.961	882.960	705.869
253.190	26.093	882.251	705.756
254.205	26.005	881.839	705.020
255.220	26.128	881.481	705.153
256.234	26.114	880.977	704.632
257.249	26.064	880.247	703.793
258.263	25.889	879.721	702.628
259.278	25.804	878.920	701.596
260.293	26.019	878.394	701.948
261.307	26.099	877.639	701.593
262.322	26.001	877.103	700.723
263.336	25.712	877.106	699.539
264.351	25.450	875.079	696.846
265.366	24.195	873.274	690.489
266.380	23.931	872.643	688.905
267.395	24.909	872.693	692.671
268.409	25.539	872.906	695.214
269.424	25.473	872.156	694.300
270.439	25.611	871.813	694.500
271.453	25.859	871.033	694.771
272.468	25.561	870.731	693.319
273.482	25.959	870.194	694.365
274.497	26.061	869.511	694.150
275.512	25.688	868.782	692.072
276.526	25.258	867.196	689.099
277.541	25.397	867.207	689.578
278.555	25.695	866.775	690.320
279.570	25.588	866.494	689.622
280.585	25.489	865.405	688.316
281.599	25.483	864.828	687.775
282.614	25.641	864.680	688.200
283.628	25.284	863.518	685.848
284.643	25.002	862.910	684.230
285.657	25.376	862.482	685.258
286.672	25.317	861.633	684.295
287.687	24.719	860.784	681.285
288.701	25.013	861.055	682.559
289.716	25.534	860.205	683.808
290.730	25.079	859.352	681.338
291.745	24.936	858.993	680.452
292.760	24.747	858.042	678.917
293.774	24.649	857.467	678.032
294.789	25.761	857.828	682.474
295.803	26.298	857.978	684.568
296.818	26.385	857.255	684.260
297.833	26.353	857.344	684.152
298.847	26.191	855.694	682.162
299.862	25.905	854.634	680.177
300.876	25.911	854.558	680.078
301.891	26.306	854.278	681.284
302.906	26.378	853.639	680.986
303.920	25.834	852.736	678.159
304.935	25.867	852.105	677.721
305.949	26.328	851.729	679.093
306.964	26.404	851.135	678.848
307.979	26.126	850.518	677.251
308.993	25.929	850.369	676.332
310.008	26.338	850.204	677.675
311.022	26.661	849.337	678.136
312.037	26.277	848.944	676.323
313.052	26.144	848.212	675.184
314.066	25.952	847.809	674.085
315.081	25.317	845.658	669.948
316.095	24.503	844.816	666.186
317.110	24.999	845.066	668.173
318.125	25.817	845.155	671.234
319.139	25.600	843.815	669.301
320.154	24.485	842.117	663.755
321.168	23.920	841.298	660.949
322.183	24.479	841.706	663.289
323.197	25.569	842.186	667.658
324.212	25.809	841.785	668.173
325.227	25.865	841.543	668.128
326.241	25.962	841.412	668.327
327.256	25.821	840.681	667.164
328.270	25.964	839.564	666.746
329.285	25.898	839.070	666.051
330.300	25.723	838.037	664.527
331.314	25.491	837.386	663.095
332.329	25.481	837.218	662.867
333.343	26.000	836.553	664.193
334.358	26.074	836.657	664.492
335.373	26.207	836.126	664.501
336.387	26.317	835.309	664.194
337.402	26.507	835.041	664.622
338.416	26.669	834.711	664.893
339.431	26.464	834.349	663.796
340.446	26.628	833.618	663.755
341.460	26.836	833.262	664.177
342.475	26.889	832.374	663.603
343.489	26.625	831.946	662.237
344.504	26.613	831.485	661.768
345.519	26.965	831.189	662.760
346.533	26.992	831.045	662.685
347.548	27.015	830.717	662.449
348.562	26.989	830.053	661.768
349.577	26.985	829.429	661.197
350.592	26.955	828.899	660.604
351.606	26.860	828.442	659.837
352.621	26.894	827.663	659.284
353.635	26.854	827.499	658.948
354.650	26.578	827.142	657.602
355.665	26.511	825.521	656.012
356.679	25.315	824.179	650.557
357.694	25.248	823.595	649.796
358.708	25.974	823.504	652.293
359.723	25.900	822.868	651.467
360.738	26.082	822.715	651.944
361.752	26.519	822.921	653.630
362.767	26.558	822.667	653.509
363.781	26.765	822.640	654.177
364.796	27.199	822.101	655.254
365.810	27.239	821.733	655.048
366.825	27.440	821.077	655.189
367.840	27.322	820.976	654.626
368.854	27.126	820.477	653.465
369.869	26.766	819.625	651.435
370.883	26.533	818.954	650.011
371.898	26.750	818.428	650.315
372.913	26.695	817.507	649.328
373.927	26.651	816.866	648.602
374.942	26.774	816.563	648.745
375.956	26.912	815.904	648.659
376.971	26.893	815.725	648.390
377.986	27.055	815.284	648.560
379.000	27.195	814.574	648.436
380.015	27.338	813.961	648.401
381.029	27.072	813.636	647.138
382.044	27.174	812.796	646.774
383.059	27.198	812.482	646.555
384.073	27.228	812.205	646.384
385.088	27.069	811.664	645.330
386.102	27.289	811.074	645.586
387.117	27.043	810.275	644.019
388.132	26.850	809.514	642.674
389.146	26.899	808.723	642.164
390.161	26.227	808.093	639.228
391.175	26.377	807.814	639.483
392.190	26.934	807.747	641.341
393.205	26.898	807.078	640.627
394.219	25.977	805.148	635.791
395.234	24.344	803.122	628.388
396.248	23.552	802.066	624.718
397.263	24.730	802.995	629.534
398.278	26.418	804.472	636.584
399.292	26.798	804.272	637.709
400.307	26.599	803.386	636.251
401.321	26.475	803.129	635.553
402.336	26.610	802.815	635.724
403.350	26.797	802.957	636.437
404.365	27.259	802.931	637.981
405.380	27.800	802.471	639.453
406.394	27.880	802.246	639.499
407.409	27.932	801.805	639.272
408.423	28.005	801.234	639.015
409.438	27.865	800.713	638.055
410.453	27.972	800.407	638.130
411.467	28.010	800.015	637.890
412.482	27.896	799.553	637.067
413.496	27.849	798.985	636.395
414.511	28.115	798.408	636.808
415.526	28.048	798.241	636.384
416.540	27.980	797.834	635.765
417.555	28.016	796.915	635.102
418.569	27.754	796.635	633.914
419.584	27.587	795.813	632.623
420.599	27.739	795.427	632.789
421.613	110.453	1286.257	1460.104
422.628	95.098	1357.764	1460.214
