DTS Sentinel unit serial number:	SN413079Multiplexer serial number:	ORYXHardware model number:	OX4-SRSoftware version number:	ORYX F/W v4.00 Oryx Data Collector v3.7.2.0data status	okinstallation	princeton_trtdifferential loss correction	single-endedforward channel	channel 3reverse channel	N/Adate	2019/09/12time	07:18:10forward acquisition time	60.00reverse acquisition time	0.00gamma	496.2192k internal	0.2318k external	0.2318temperature offset calibration	1.0035default loss term (dB/km)	0.3790temperature slope calibration	1.0000multiplexer offset coefficient	1.0000multiplexer slope coefficient	1.0000fibre end	0.00T internal ref (°C)	32.27T ext. ref 1 (°C)	1.61T ext. ref 2 (°C)	28.43length (m)	temperature (°C)	Stokes	anti-Stokes-747.200	-3.566	0.264	0.186
-746.185	-155.753	-0.141	0.009
-745.171	800.000	0.019	-0.061
-744.156	-200.000	0.000	0.166
-743.142	347.759	0.092	-0.184
-742.127	-200.000	-0.020	-0.237
-741.112	-200.000	-0.011	0.361
-740.098	-100.317	0.053	0.013
-739.083	184.728	0.114	-0.171
-738.069	46.251	-0.245	0.230
-737.054	-200.000	0.047	-0.269
-736.039	-45.719	-0.163	-0.081
-735.025	-183.526	0.255	0.004
-734.010	-155.369	-0.261	-0.017
-732.996	225.080	0.182	0.297
-731.981	-200.000	0.027	0.220
-730.966	-200.000	0.005	-0.114
-729.952	800.000	0.076	-0.254
-728.937	-113.533	-0.261	-0.052
-727.923	8.801	-0.209	-0.159
-726.908	-22.470	-0.305	0.187
-725.894	-158.462	-0.093	-0.005
-724.879	-200.000	-0.085	-0.464
-723.864	507.650	-0.107	-0.251
-722.850	-96.572	0.130	-0.035
-721.835	21.735	0.310	0.256
-720.821	-50.086	0.385	0.184
-719.806	-168.802	-0.511	0.019
-718.791	-170.710	-0.340	-0.012
-717.777	274.022	-0.161	0.289
-716.762	-150.389	-0.109	-0.008
-715.748	56.388	0.106	-0.105
-714.733	-200.000	-0.019	-0.159
-713.718	-41.282	0.278	0.145
-712.704	-200.000	0.037	0.287
-711.689	-125.983	-0.287	-0.044
-710.675	800.000	0.060	-0.203
-709.660	-38.209	0.072	0.039
-708.645	95.149	0.170	-0.195
-707.631	-114.491	-0.337	0.065
-706.616	686.409	-0.073	0.192
-705.602	24.910	-0.282	-0.236
-704.587	800.000	0.049	-0.192
-703.572	63.518	0.261	-0.265
-702.558	-92.884	-0.057	-0.016
-701.543	110.766	0.193	0.235
-700.529	-11.237	0.090	-0.060
-699.514	6.494	-0.138	0.104
-698.499	-97.069	-0.167	-0.044
-697.485	-200.000	-0.042	-0.408
-696.470	80.926	0.179	-0.195
-695.456	-143.306	0.171	0.017
-694.441	653.531	0.182	0.471
-693.426	-200.000	-0.007	0.214
-692.412	58.050	0.182	0.180
-691.397	-1.888	-0.188	0.133
-690.383	323.589	0.070	0.135
-689.368	165.121	-0.099	0.141
-688.354	-106.645	0.087	-0.020
-687.339	15.984	0.171	-0.136
-686.324	80.858	0.081	-0.088
-685.310	-200.000	0.027	-0.190
-684.295	800.000	0.044	0.181
-683.281	-200.000	-0.021	0.232
-682.266	103.109	0.121	-0.143
-681.251	32.554	-0.154	0.134
-680.237	-161.946	0.232	-0.012
-679.222	351.459	-0.101	-0.201
-678.208	800.000	0.096	-0.379
-677.193	-73.785	-0.446	-0.164
-676.178	-57.286	0.209	-0.093
-675.164	800.000	0.053	0.163
-674.149	347.742	-0.104	0.207
-673.135	-57.168	0.373	0.166
-672.120	-118.335	-0.433	-0.078
-671.105	800.000	-0.042	0.151
-670.091	688.265	0.096	-0.253
-669.076	800.000	-0.053	0.154
-668.062	-151.582	-0.177	-0.013
-667.047	-37.495	0.127	0.069
-666.032	-63.730	0.051	-0.021
-665.018	-200.000	0.071	-0.403
-664.003	-3.502	0.332	0.233
-662.989	-35.482	0.248	0.136
-661.974	400.257	-0.157	-0.331
-660.959	-200.000	0.378	-0.000
-659.945	576.740	0.053	0.130
-658.930	-130.295	0.178	-0.024
-657.916	-169.448	-0.265	0.010
-656.901	800.000	-0.056	-0.167
-655.886	601.874	-0.050	0.125
-654.872	-200.000	0.001	-0.060
-653.857	-116.746	0.321	-0.059
-652.843	85.568	0.236	-0.261
-651.828	7.893	0.209	-0.158
-650.814	-45.020	0.234	0.118
-649.799	107.886	-0.161	-0.193
-648.784	-54.532	0.061	-0.028
-647.770	189.444	-0.095	-0.144
-646.755	-26.048	-0.107	0.063
-645.741	141.912	-0.294	-0.393
-644.726	-96.840	-0.263	-0.070
-643.711	-41.715	-0.116	0.060
-642.697	101.592	-0.077	0.090
-641.682	351.860	-0.129	0.257
-640.668	-59.002	-0.247	0.108
-639.653	140.421	-0.100	0.133
-638.638	174.668	-0.142	-0.207
-637.624	-200.000	0.021	-0.375
-636.609	-59.076	0.091	-0.040
-635.595	-200.000	-0.051	0.236
-634.580	41.695	-0.035	0.032
-633.565	-172.566	-0.401	0.013
-632.551	-33.651	0.095	-0.053
-631.536	-101.868	0.304	-0.074
-630.522	-112.287	-0.062	-0.013
-629.507	-181.709	-0.168	0.003
-628.492	-200.000	0.019	-0.239
-627.478	-47.735	-0.169	0.083
-626.463	10.450	0.221	0.169
-625.449	-200.000	0.008	0.307
-624.434	405.879	0.081	-0.172
-623.419	800.000	-0.031	0.129
-622.405	-184.487	-0.348	0.006
-621.390	-65.612	-0.128	0.052
-620.376	60.600	0.035	-0.035
-619.361	241.630	0.135	-0.226
-618.346	-164.097	-0.244	-0.011
-617.332	41.357	-0.219	0.199
-616.317	-158.426	-0.146	0.009
-615.303	-200.000	0.015	0.384
-614.288	195.241	0.032	-0.049
-613.273	139.754	-0.205	0.272
-612.259	-63.250	0.097	-0.040
-611.244	51.370	-0.127	-0.121
-610.230	-90.626	-0.131	-0.038
-609.215	-12.522	-0.197	0.129
-608.201	-109.119	0.151	-0.032
-607.186	-180.107	-0.216	-0.005
-606.171	-39.306	0.400	0.212
-605.157	501.161	-0.069	0.161
-604.142	800.000	0.119	0.347
-603.128	-38.235	0.197	-0.105
-602.113	-6.651	0.284	-0.194
-601.098	-47.232	-0.088	0.043
-600.084	800.000	0.039	-0.121
-599.069	38.336	-0.181	0.162
-598.055	80.380	0.195	0.211
-597.040	-200.000	0.031	0.158
-596.025	44.248	-0.302	0.279
-595.011	-200.000	-0.006	0.096
-593.996	789.265	-0.151	0.417
-592.982	-82.386	0.331	-0.108
-591.967	287.064	0.156	0.284
-590.952	225.745	-0.062	-0.101
-589.938	-200.000	-0.005	-0.272
-588.923	380.107	-0.081	-0.167
-587.909	52.363	-0.163	-0.156
-586.894	15.044	-0.010	0.008
-585.879	45.920	0.110	0.103
-584.865	-200.000	-0.040	-0.298
-583.850	5.316	0.203	-0.150
-582.836	-200.000	0.048	0.295
-581.821	56.832	-0.246	-0.241
-580.806	-167.063	0.108	-0.004
-579.792	724.738	0.075	0.201
-578.777	1.160	0.271	-0.196
-577.763	42.280	-0.210	0.192
-576.748	251.037	-0.118	0.202
-575.733	320.624	-0.041	-0.079
-574.719	771.333	0.042	-0.116
-573.704	-67.003	0.137	0.054
-572.690	138.551	-0.267	-0.352
-571.675	67.207	0.289	-0.296
-570.661	800.000	0.081	-0.229
-569.646	334.139	-0.057	-0.111
-568.631	46.411	-0.132	-0.123
-567.617	-166.380	0.286	0.012
-566.602	-33.509	-0.486	-0.270
-565.588	32.061	-0.122	-0.106
-564.573	-92.000	0.122	-0.035
-563.558	258.681	-0.217	0.376
-562.544	-158.379	0.124	-0.007
-561.529	-54.538	0.122	0.056
-560.515	-58.264	0.536	0.234
-559.500	800.000	-0.077	0.266
-558.485	-16.137	0.261	0.166
-557.471	396.828	0.155	0.325
-556.456	-200.000	0.067	0.344
-555.442	-200.000	0.012	0.172
-554.427	17.801	-0.180	-0.144
-553.412	-127.293	-0.361	-0.053
-552.398	-200.000	-0.005	-0.122
-551.383	-62.066	0.464	-0.195
-550.369	30.890	0.155	0.134
-549.354	-160.609	-0.193	-0.010
-548.339	-80.504	0.252	-0.084
-547.325	213.370	-0.102	0.162
-546.310	800.000	0.084	-0.237
-545.296	165.721	-0.043	0.060
-544.281	-28.923	0.128	-0.074
-543.266	71.845	0.335	-0.350
-542.252	-39.063	0.205	0.108
-541.237	-200.000	-0.013	-0.158
-540.223	-166.216	-0.325	-0.014
-539.208	-71.908	0.373	-0.139
-538.193	136.511	-0.182	-0.238
-537.179	117.675	0.123	0.152
-536.164	256.398	-0.126	0.218
-535.150	390.721	-0.050	-0.104
-534.135	800.000	-0.045	0.171
-533.121	800.000	-0.103	-0.336
-532.106	49.709	-0.100	-0.094
-531.091	265.537	-0.162	-0.284
-530.077	-200.000	-0.005	0.192
-529.062	-110.626	-0.283	-0.059
-528.048	-200.000	0.179	0.000
-527.033	38.017	0.114	0.102
-526.018	-200.000	-0.014	-0.103
-525.004	-125.142	-0.116	-0.018
-523.989	7.116	0.053	-0.039
-522.975	303.310	-0.055	-0.102
-521.960	800.000	0.040	-0.165
-520.945	-71.692	-0.252	-0.094
-519.931	-72.539	-0.186	0.069
-518.916	60.418	-0.218	0.216
-517.902	418.190	0.076	0.164
-516.887	82.388	-0.149	0.162
-515.872	-200.000	0.000	0.303
-514.858	800.000	0.059	0.256
-513.843	77.771	0.242	0.258
-512.829	18.357	-0.247	-0.198
-511.814	-84.945	0.159	0.050
-510.799	-130.762	0.259	-0.035
-509.785	-15.425	0.193	0.124
-508.770	-200.000	-0.087	-0.386
-507.756	-71.369	0.285	-0.107
-506.741	-109.083	0.101	-0.022
-505.726	-200.000	0.018	0.183
-504.712	278.019	-0.078	0.140
-503.697	-117.164	0.192	-0.035
-502.683	20.355	0.091	-0.074
-501.668	-103.293	-0.112	0.026
-500.653	-129.436	-0.281	-0.039
-499.639	547.839	-0.066	0.159
-498.624	800.000	-0.051	0.201
-497.610	-200.000	-0.009	0.096
-496.595	-160.118	-0.233	0.013
-495.581	-45.862	-0.165	-0.082
-494.566	-65.874	-0.098	0.039
-493.551	-200.000	0.017	-0.095
-492.537	-129.047	0.199	0.028
-491.522	-21.415	0.401	0.245
-490.508	171.678	0.041	0.058
-489.493	87.507	0.084	0.093
-488.478	167.060	0.168	0.239
-487.464	330.005	-0.207	0.398
-486.449	-39.380	0.156	0.082
-485.435	25.878	-0.090	0.075
-484.420	-5.191	0.085	0.058
-483.405	-38.082	-0.346	-0.184
-482.391	800.000	0.054	-0.211
-481.376	112.957	-0.192	0.233
-480.362	-24.849	0.100	-0.060
-479.347	-148.294	-0.047	0.004
-478.332	319.212	-0.090	-0.170
-477.318	-21.317	0.231	-0.141
-476.303	-200.000	0.007	0.066
-475.289	29.656	-0.050	-0.042
-474.274	49.730	0.185	-0.175
-473.259	-200.000	-0.009	0.054
-472.245	-91.160	-0.516	-0.148
-471.230	-200.000	-0.309	-0.001
-470.216	-200.000	0.012	0.115
-469.201	-73.360	0.228	0.083
-468.186	-200.000	0.091	0.459
-467.172	-88.816	0.174	-0.052
-466.157	-11.525	0.163	0.107
-465.143	-45.722	0.021	-0.010
-464.128	-38.397	0.064	0.034
-463.113	-148.760	-0.195	-0.016
-462.099	620.429	0.094	0.238
-461.084	-146.763	0.427	-0.037
-460.070	16.462	0.094	-0.075
-459.055	127.909	-0.201	0.256
-458.040	77.628	0.200	-0.213
-457.026	-40.058	0.187	-0.098
-456.011	-200.000	-0.091	0.400
-454.997	88.452	-0.227	-0.252
-453.982	-53.960	0.174	-0.079
-452.968	-65.065	-0.293	-0.118
-451.953	-121.152	0.042	0.007
-450.938	380.991	0.177	-0.364
-449.924	214.794	-0.162	-0.257
-448.909	-200.000	0.095	-0.443
-447.895	-128.077	0.329	-0.047
-446.880	-24.898	-0.090	-0.054
-445.865	800.000	-0.050	0.147
-444.851	-132.714	-0.032	-0.004
-443.836	-93.568	-0.270	-0.075
-442.822	14.453	-0.306	-0.239
-441.807	273.775	0.108	0.190
-440.792	-113.985	0.208	-0.040
-439.778	77.157	-0.018	-0.019
-438.763	800.000	0.077	-0.269
-437.749	-5.346	0.332	-0.228
-436.734	-200.000	-0.005	0.339
-435.719	-139.067	0.068	-0.007
-434.705	800.000	0.076	-0.265
-433.690	178.877	-0.183	-0.268
-432.676	-35.999	0.065	0.035
-431.661	132.719	-0.064	-0.083
-430.646	262.796	-0.053	0.092
-429.632	-200.000	-0.004	0.193
-428.617	-200.000	0.006	-0.053
-427.603	275.003	-0.027	-0.047
-426.588	-78.300	0.084	-0.029
-425.573	45.793	-0.157	-0.145
-424.559	800.000	0.012	0.041
-423.544	-118.771	0.161	-0.028
-422.530	800.000	0.046	0.202
-421.515	-137.827	-0.412	-0.046
-420.500	44.038	-0.179	-0.164
-419.486	475.191	0.113	0.255
-418.471	-153.797	0.227	0.016
-417.457	-195.406	0.008	0.000
-416.442	800.000	-0.108	-0.394
-415.428	-40.474	0.192	0.100
-414.413	-93.023	-0.292	0.081
-413.398	56.378	0.217	-0.211
-412.384	-200.000	0.002	-0.188
-411.369	-13.011	0.074	-0.048
-410.355	-145.224	-0.149	-0.013
-409.340	70.805	-0.046	0.048
-408.325	309.818	0.041	-0.077
-407.311	-90.060	-0.076	-0.022
-406.296	64.103	-0.171	0.172
-405.282	800.000	0.125	-0.358
-404.267	719.745	-0.055	0.145
-403.252	111.833	-0.089	0.107
-402.238	-200.000	-0.032	-0.428
-401.223	609.910	-0.157	0.391
-400.209	23.958	0.286	-0.235
-399.194	-70.789	0.135	-0.051
-398.179	-125.695	0.060	-0.009
-397.165	-30.671	-0.283	-0.160
-396.150	643.990	0.085	0.217
-395.136	42.696	-0.102	0.092
-394.121	-1.127	-0.268	-0.189
-393.106	-200.000	-0.021	0.199
-392.092	-10.635	0.247	0.163
-391.077	-200.000	0.008	0.048
-390.063	380.297	-0.127	-0.261
-389.048	-102.131	-0.035	0.008
-388.033	-200.000	0.000	0.124
-387.019	7.910	-0.096	0.072
-386.004	-200.000	-0.025	0.116
-384.990	800.000	0.121	-0.342
-383.975	-47.600	-0.022	-0.011
-382.960	59.388	-0.081	-0.080
-381.946	409.759	0.046	0.097
-380.931	39.498	0.103	0.092
-379.917	117.342	0.048	0.058
-378.902	-133.499	-0.459	0.057
-377.888	-98.137	0.371	0.095
-376.873	-54.304	0.138	0.063
-375.858	-200.000	-0.002	0.117
-374.844	-35.979	0.021	-0.011
-373.829	-53.230	-0.171	-0.078
-372.815	113.565	-0.074	-0.089
-371.800	327.315	0.076	-0.145
-370.785	275.013	-0.158	0.280
-369.771	15.658	-0.186	-0.146
-368.756	-200.000	0.024	-0.193
-367.742	789.569	-0.056	-0.154
-366.727	-117.437	0.217	-0.039
-365.712	159.162	-0.208	0.288
-364.698	-44.190	-0.140	-0.070
-363.683	800.000	0.008	0.029
-362.669	-200.000	0.010	-0.047
-361.654	192.022	0.137	0.206
-360.639	22.547	-0.285	0.232
-359.625	800.000	-0.072	0.306
-358.610	800.000	0.066	-0.267
-357.596	-83.906	0.183	-0.058
-356.581	800.000	0.066	0.220
-355.566	-200.000	0.096	-0.000
-354.552	273.105	0.040	-0.071
-353.537	601.574	-0.025	-0.062
-352.523	224.681	-0.062	-0.099
-351.508	22.185	-0.176	-0.143
-350.493	146.137	-0.099	-0.133
-349.479	-31.740	0.260	-0.145
-348.464	35.384	-0.117	-0.102
-347.450	211.432	0.112	-0.176
-346.435	-65.675	0.277	-0.111
-345.420	-200.000	-0.010	-0.262
-344.406	-4.778	0.343	-0.236
-343.391	25.099	-0.065	-0.054
-342.377	423.729	0.061	0.131
-341.362	396.735	0.162	0.337
-340.348	51.912	0.251	-0.238
-339.333	298.515	-0.067	-0.123
-338.318	-40.437	0.199	0.103
-337.304	-57.507	0.240	-0.105
-336.289	800.000	0.064	-0.178
-335.275	-11.353	-0.091	-0.059
-334.260	-154.296	-0.129	0.009
-333.245	95.314	0.265	-0.300
-332.231	30.730	-0.018	-0.016
-331.216	-40.065	-0.153	-0.080
-330.202	49.364	-0.139	-0.130
-329.187	-171.040	0.110	-0.004
-328.172	175.960	-0.057	-0.083
-327.158	800.000	0.093	0.361
-326.143	-200.000	-0.040	0.249
-325.129	41.123	-0.188	0.169
-324.114	8.897	-0.299	0.225
-323.099	800.000	0.034	-0.097
-322.085	-84.274	-0.100	0.032
-321.070	576.604	0.125	-0.303
-320.056	-85.646	-0.326	-0.101
-319.041	800.000	0.097	0.295
-318.026	800.000	-0.067	-0.193
-317.012	-200.000	-0.038	-0.312
-315.997	-200.000	0.081	-0.380
-314.983	-154.666	-0.276	-0.018
-313.968	331.381	-0.083	0.158
-312.953	-102.157	0.369	0.088
-311.939	800.000	0.129	0.448
-310.924	-200.000	0.002	0.037
-309.910	3.042	0.269	0.194
-308.895	-119.037	0.274	-0.048
-307.880	-64.320	0.112	-0.045
-306.866	-50.298	-0.104	-0.049
-305.851	-18.090	0.232	0.144
-304.837	322.542	0.128	0.242
-303.822	-200.000	-0.022	-0.164
-302.807	-23.443	0.239	0.143
-301.793	-15.822	0.194	0.123
-300.778	-13.146	-0.170	-0.110
-299.764	-200.000	0.026	0.135
-298.749	-200.000	-0.002	-0.139
-297.735	-200.000	-0.064	0.355
-296.720	-156.787	0.172	0.011
-295.705	-128.654	0.354	-0.050
-294.691	599.246	0.040	0.099
-293.676	800.000	0.059	0.254
-292.662	55.407	-0.100	0.096
-291.647	188.392	-0.074	-0.110
-290.632	81.468	-0.151	0.163
-289.618	362.168	0.046	-0.092
-288.603	-111.779	0.295	0.059
-287.589	534.403	0.108	0.254
-286.574	97.850	0.032	-0.036
-285.559	102.715	0.017	0.019
-284.545	-116.372	0.138	0.025
-283.530	-200.000	-0.017	0.287
-282.516	40.177	-0.305	-0.272
-281.501	-20.880	-0.172	0.105
-280.486	378.352	0.028	0.057
-279.472	404.465	-0.036	0.075
-278.457	800.000	0.026	-0.083
-277.443	800.000	0.111	-0.343
-276.428	-56.118	-0.121	-0.053
-275.413	-26.428	-0.163	-0.095
-274.399	-12.007	-0.044	0.029
-273.384	2.656	0.262	0.188
-272.370	260.597	-0.109	-0.187
-271.355	-79.161	-0.160	0.054
-270.340	-200.000	0.198	0.001
-269.326	131.631	0.363	0.464
-268.311	-121.097	-0.202	0.034
-267.297	-138.963	0.424	-0.046
-266.282	-141.393	0.642	-0.065
-265.267	5.957	-0.039	-0.029
-264.253	-175.638	0.111	0.003
-263.238	455.689	-0.076	0.167
-262.224	-200.000	0.131	0.663
-261.209	-189.866	0.085	0.001
-260.195	-113.574	0.073	-0.014
-259.180	-99.137	-0.233	0.058
-258.165	524.161	0.145	-0.338
-257.151	800.000	0.092	-0.319
-256.136	170.483	0.077	0.109
-255.122	167.586	-0.105	-0.149
-254.107	-200.000	-0.007	-0.105
-253.092	220.358	-0.185	-0.294
-252.078	800.000	0.065	0.220
-251.063	-200.000	-0.012	-0.145
-250.049	166.222	-0.016	0.022
-249.034	216.535	0.290	-0.458
-248.019	76.259	0.054	-0.057
-247.005	65.202	0.249	-0.250
-245.990	-46.142	-0.330	0.161
-244.976	-108.256	-0.254	-0.055
-243.961	-52.000	0.129	-0.059
-242.946	37.932	-0.350	-0.309
-241.932	800.000	0.042	-0.178
-240.917	83.045	0.034	-0.037
-239.903	145.730	0.197	-0.262
-238.888	800.000	0.027	-0.104
-237.873	-200.000	0.014	-0.081
-236.859	-154.620	-0.192	0.013
-235.844	800.000	-0.078	0.319
-234.830	800.000	0.103	0.311
-233.815	154.656	0.089	0.121
-232.800	160.200	0.066	0.091
-231.786	49.105	0.040	-0.037
-230.771	-100.613	0.324	0.079
-229.757	514.631	0.098	-0.226
-228.742	-200.000	0.050	0.417
-227.727	-200.000	-0.020	-0.308
-226.713	-54.136	0.065	0.029
-225.698	156.947	-0.237	0.325
-224.684	-18.993	-0.150	-0.093
-223.669	4.687	-0.206	-0.150
-222.655	-166.442	-0.301	0.013
-221.640	-200.000	0.029	0.132
-220.625	314.742	-0.121	0.227
-219.611	800.000	0.064	0.187
-218.596	-100.778	-0.172	0.042
-217.582	-89.818	0.171	0.050
-216.567	-200.000	0.018	-0.099
-215.552	-138.158	-0.256	0.028
-214.538	119.786	-0.126	0.155
-213.523	-200.000	0.022	0.297
-212.509	-200.000	-0.021	0.102
-211.494	-134.152	-0.240	0.029
-210.479	199.796	0.021	-0.031
-209.465	-146.912	-0.129	0.011
-208.450	-32.759	-0.265	-0.146
-207.436	247.119	0.145	0.243
-206.421	230.406	-0.070	-0.114
-205.406	-134.913	0.026	0.003
-204.392	-51.855	0.353	0.163
-203.377	-34.407	0.075	-0.041
-202.363	-80.357	-0.190	-0.063
-201.348	2.362	0.102	-0.073
-200.333	58.212	0.059	-0.057
-199.319	23.656	0.285	-0.232
-198.304	209.332	0.176	-0.273
-197.290	396.057	0.165	-0.341
-196.275	205.708	-0.225	0.346
-195.260	-65.541	-0.200	-0.079
-194.246	-123.855	0.280	0.044
-193.231	-80.622	-0.182	0.060
-192.217	-58.101	0.155	0.067
-191.202	262.709	-0.086	0.147
-190.187	-80.326	0.183	0.060
-189.173	39.000	-0.038	-0.034
-188.158	-80.709	-0.254	-0.084
-187.144	-200.000	0.004	-0.207
-186.129	-200.000	0.016	-0.178
-185.114	-200.000	0.082	0.000
-184.100	-143.947	-0.106	0.010
-183.085	-93.688	0.160	0.044
-182.071	177.490	-0.324	-0.467
-181.056	-61.055	0.254	-0.106
-180.042	373.116	-0.044	0.088
-179.027	-66.295	-0.108	-0.043
-178.012	275.493	-0.126	-0.221
-176.998	-200.000	0.026	-0.300
-175.983	-141.354	0.262	0.026
-174.969	18.945	-0.207	0.164
-173.954	133.019	-0.168	-0.215
-172.939	130.941	-0.259	-0.329
-171.925	-33.881	0.152	-0.083
-170.910	-33.834	0.251	0.137
-169.896	-200.000	0.060	0.432
-168.881	184.456	-0.147	-0.215
-167.866	-88.409	0.054	-0.016
-166.852	-67.637	-0.366	-0.142
-165.837	-200.000	-0.007	0.161
-164.823	-200.000	-0.016	0.121
-163.808	-104.487	0.102	-0.023
-162.793	53.873	0.336	0.319
-161.779	800.000	0.011	0.031
-160.764	115.982	0.070	-0.085
-159.750	-156.725	-0.361	-0.022
-158.735	800.000	-0.104	0.382
-157.720	800.000	0.029	0.116
-156.706	-105.167	-0.368	0.083
-155.691	-168.662	-0.017	0.001
-154.677	30.093	-0.287	0.242
-153.662	108.763	0.201	-0.238
-152.647	139.661	-0.177	0.230
-151.633	207.450	-0.043	-0.066
-150.618	800.000	0.109	-0.311
-149.604	-118.636	-0.177	-0.031
-148.589	226.203	-0.125	-0.201
-147.574	36.287	0.151	0.131
-146.560	-150.038	-0.067	-0.005
-145.545	-200.000	-0.020	-0.207
-144.531	-33.758	0.326	-0.178
-143.516	-90.023	0.307	0.088
-142.502	336.480	0.106	-0.203
-141.487	800.000	-0.167	-0.519
-140.472	373.321	-0.088	0.177
-139.458	-58.738	-0.229	-0.098
-138.443	189.340	0.016	0.024
-137.429	31.926	0.071	-0.061
-136.414	-106.551	-0.128	-0.028
-135.399	389.426	-0.075	-0.153
-134.385	20.250	0.174	-0.139
-133.370	-200.000	-0.004	-0.348
-132.356	-200.000	-0.004	-0.052
-131.341	-4.826	0.120	0.082
-130.326	594.317	0.144	0.353
-129.312	707.112	-0.107	0.279
-128.297	240.047	0.166	0.273
-127.283	-7.691	-0.200	0.133
-126.268	355.751	-0.106	-0.208
-125.253	30.685	0.112	-0.094
-124.239	541.913	-0.047	0.111
-123.224	-134.280	0.242	-0.029
-122.210	129.030	0.144	-0.182
-121.195	28.532	-0.102	0.085
-120.180	4.136	-0.219	0.158
-119.166	-6.757	-0.005	0.003
-118.151	-76.251	0.036	0.012
-117.137	-77.734	-0.179	0.061
-116.122	119.944	-0.174	0.213
-115.107	-200.000	0.020	-0.152
-114.093	-119.879	0.424	-0.072
-113.078	800.000	0.074	0.201
-112.064	-48.309	0.602	0.287
-111.049	84.463	-0.209	0.225
-110.034	63.031	0.212	-0.209
-109.020	-150.268	0.298	0.023
-108.005	-7.714	0.209	-0.140
-106.991	-96.173	0.044	-0.012
-105.976	-83.397	-0.247	-0.078
-104.962	217.152	0.035	0.054
-103.947	-40.834	-0.229	0.117
-102.932	21.363	-0.188	-0.151
-101.918	-17.198	0.242	-0.151
-100.903	748.441	-0.190	-0.506
-99.889	365.254	-0.178	-0.353
-98.874	-187.383	-0.453	-0.006
-97.859	-59.015	-0.120	0.051
-96.845	23.683	0.128	-0.104
-95.830	188.539	-0.118	0.174
-94.816	-200.000	0.059	0.427
-93.801	-200.000	0.098	-0.000
-92.786	-200.000	-0.058	0.345
-91.772	-49.503	0.132	0.062
-90.757	484.642	0.100	0.225
-89.743	-200.000	0.015	-0.169
-88.728	395.548	-0.097	0.200
-87.713	-200.000	-0.017	0.145
-86.699	-200.000	0.005	-0.179
-85.684	800.000	0.097	0.268
-84.670	-135.686	0.167	0.019
-83.655	-200.000	0.019	-0.128
-82.640	-119.649	-0.187	-0.032
-81.626	-200.000	0.006	0.141
-80.611	-142.307	0.234	-0.023
-79.597	77.506	-0.130	-0.137
-78.582	-33.463	-0.238	-0.130
-77.567	800.000	0.034	-0.121
-76.553	11.709	-0.304	-0.230
-75.538	-53.145	0.093	-0.042
-74.524	-38.592	0.110	0.057
-73.509	-167.123	0.163	-0.007
-72.494	-200.000	-0.000	-0.063
-71.480	67.675	0.202	-0.203
-70.465	-200.000	0.007	-0.159
-69.451	-74.097	0.467	-0.167
-68.436	228.701	0.179	0.287
-67.422	-14.641	-0.224	-0.142
-66.407	-192.325	-0.121	-0.001
-65.392	299.030	0.091	0.164
-64.378	206.802	-0.288	-0.443
-63.363	11.473	-0.151	-0.114
-62.349	800.000	-0.116	0.440
-61.334	107.383	-0.639	-0.749
-60.319	4.272	0.522	0.377
-59.305	-200.000	-0.182	-0.986
-58.290	127.558	0.702	0.878
-57.276	800.000	0.585	1.793
-56.261	-200.000	96.723	592.126
-55.246	556.252	1385.288	3286.868
-54.232	158.798	2563.377	3507.151
-53.217	112.116	2168.117	2580.808
-52.203	42.807	1711.371	1535.659
-51.188	35.390	1524.727	1317.433
-50.173	33.058	1497.638	1278.223
-49.159	52.178	1546.718	1451.973
-48.144	53.921	1564.438	1480.529
-47.130	35.637	1523.820	1318.136
-46.115	32.560	1508.803	1284.157
-45.100	32.330	1505.976	1280.133
-44.086	32.267	1504.061	1278.028
-43.071	32.262	1501.518	1275.783
-42.057	32.260	1500.284	1274.667
-41.042	32.320	1498.741	1273.711
-40.027	32.302	1497.380	1272.387
-39.013	32.209	1496.120	1270.633
-37.998	32.209	1495.098	1269.720
-36.984	32.314	1493.722	1269.205
-35.969	32.342	1492.542	1268.342
-34.954	32.272	1490.718	1266.271
-33.940	32.221	1489.830	1265.122
-32.925	32.323	1487.991	1264.194
-31.911	32.311	1486.661	1262.938
-30.896	32.325	1485.422	1261.929
-29.881	32.256	1484.216	1260.392
-28.867	32.381	1482.387	1259.627
-27.852	32.402	1480.808	1258.375
-26.838	32.361	1479.190	1256.676
-25.823	32.329	1478.120	1255.502
-24.809	32.311	1476.189	1253.689
-23.794	32.301	1475.043	1252.601
-22.779	32.334	1473.692	1251.621
-21.765	32.222	1472.965	1250.214
-20.750	32.361	1471.623	1249.947
-19.736	32.300	1470.817	1248.809
-18.721	32.298	1469.357	1247.502
-17.706	32.279	1468.096	1246.262
-16.692	32.220	1467.214	1245.071
-15.677	32.289	1466.414	1244.796
-14.663	32.263	1465.112	1243.473
-13.648	32.176	1464.483	1242.311
-12.633	32.171	1463.770	1241.626
-11.619	32.186	1462.659	1240.732
-10.604	32.217	1461.783	1240.145
-9.590	32.215	1460.913	1239.349
-8.575	32.241	1459.929	1238.634
-7.560	32.292	1458.974	1238.111
-6.546	32.183	1458.565	1236.994
-5.531	32.154	1457.714	1236.034
-4.517	32.104	1456.477	1234.607
-3.502	32.272	1455.236	1234.612
-2.487	32.143	1454.585	1233.163
-1.473	32.197	1453.161	1232.261
-0.458	32.203	1451.468	1230.815
0.556	32.202	1442.358	1220.673
1.571	29.603	1417.477	1182.892
2.586	26.539	1361.374	1117.094
3.600	24.984	1282.777	1043.459
4.615	23.636	1235.728	997.526
5.629	19.653	1177.054	928.713
6.644	9.897	1090.339	811.408
7.659	2.745	1048.119	745.273
8.673	1.848	1043.185	737.360
9.688	1.584	1039.643	733.519
10.702	1.514	1038.374	732.219
11.717	1.484	1036.808	730.906
12.731	4.488	1039.885	747.482
13.746	14.142	1053.895	804.374
14.761	22.534	1064.436	853.161
15.775	24.669	1066.488	865.074
16.790	25.008	1066.316	866.499
17.804	24.811	1065.972	865.189
18.819	24.641	1065.160	863.635
19.834	24.765	1064.668	863.754
20.848	25.049	1063.570	864.160
21.863	25.101	1063.685	864.426
22.877	24.974	1062.938	863.133
23.892	25.089	1062.281	863.077
24.907	24.808	1061.975	861.400
25.921	25.015	1060.937	861.473
26.936	25.016	1060.048	860.680
27.950	24.937	1058.756	859.178
28.965	24.947	1057.862	858.426
29.980	24.717	1056.471	856.120
30.994	24.851	1054.644	855.201
32.009	24.977	1054.713	855.784
33.023	25.139	1053.803	855.741
34.038	24.932	1052.884	853.935
35.053	24.902	1051.537	852.623
36.067	24.960	1051.490	852.787
37.082	24.982	1050.946	852.373
38.096	25.021	1050.001	851.715
39.111	25.174	1049.080	851.620
40.126	25.247	1048.559	851.470
41.140	25.134	1047.303	849.840
42.155	24.818	1046.128	847.316
43.169	24.644	1044.132	844.801
44.184	24.517	1043.721	843.795
45.199	24.541	1042.885	843.157
46.213	24.584	1041.479	842.146
47.228	24.560	1040.821	841.429
48.242	24.818	1039.882	841.805
49.257	24.962	1039.121	841.795
50.271	24.878	1038.629	840.929
51.286	25.019	1037.859	840.891
52.301	25.097	1037.333	840.757
53.315	25.077	1036.419	839.846
54.330	25.050	1035.910	839.234
55.344	24.968	1034.641	837.749
56.359	24.906	1033.876	836.767
57.374	24.994	1033.149	836.514
58.388	24.801	1032.392	834.925
59.403	24.781	1031.353	833.921
60.417	24.745	1030.799	833.227
61.432	24.703	1029.956	832.279
62.447	24.646	1029.371	831.465
63.461	24.733	1028.758	831.303
64.476	24.750	1028.224	830.878
65.490	24.722	1026.933	829.632
66.505	24.688	1026.056	828.691
67.520	24.593	1025.431	827.670
68.534	24.682	1024.996	827.662
69.549	24.616	1023.709	826.241
70.563	24.285	1022.162	823.391
71.578	24.256	1021.693	822.806
72.593	24.347	1020.623	822.291
73.607	24.002	1020.040	820.161
74.622	24.082	1018.782	819.445
75.636	24.397	1018.362	820.482
76.651	24.588	1017.561	820.643
77.666	24.465	1016.750	819.354
78.680	24.437	1016.082	818.612
79.695	24.321	1015.362	817.427
80.709	24.421	1014.512	817.128
81.724	24.623	1013.495	817.160
82.739	24.578	1012.690	816.235
83.753	24.536	1012.612	815.907
84.768	24.862	1011.884	816.736
85.782	25.162	1011.496	817.720
86.797	25.320	1010.731	817.749
87.812	25.329	1010.135	817.235
88.826	25.223	1008.361	815.245
89.841	25.197	1007.970	814.739
90.855	25.095	1007.473	813.801
91.870	25.213	1006.224	813.259
92.884	25.225	1005.652	812.779
93.899	25.073	1004.850	811.369
94.914	25.104	1003.546	810.386
95.928	25.186	1002.981	810.225
96.943	25.096	1002.759	809.571
97.957	24.935	1000.902	807.272
98.972	24.679	999.599	804.997
99.987	24.573	998.683	803.713
101.001	24.651	998.181	803.587
102.016	24.886	998.131	804.533
103.030	24.928	997.259	803.946
104.045	24.843	996.069	802.535
105.060	24.753	994.539	800.828
106.074	24.645	993.546	799.474
107.089	24.700	993.079	799.276
108.103	24.935	993.126	800.291
109.118	25.019	991.653	799.409
110.133	24.798	990.379	797.327
111.147	24.751	989.648	796.459
112.162	24.588	988.805	794.984
113.176	24.347	987.697	792.949
114.191	24.504	987.002	793.021
115.206	24.569	986.528	792.860
116.220	24.321	984.952	790.422
117.235	24.160	984.402	789.199
118.249	24.406	983.533	789.520
119.264	24.424	982.840	788.972
120.279	24.245	981.839	787.308
121.293	24.281	980.817	786.578
122.308	24.423	980.460	786.849
123.322	24.336	979.766	785.841
124.337	24.348	978.585	784.877
125.352	24.187	977.447	783.184
126.366	23.878	975.707	780.369
127.381	23.524	974.416	777.714
128.395	24.047	974.229	779.787
129.410	24.854	973.785	782.895
130.424	24.772	973.482	782.221
131.439	24.716	972.308	780.966
132.454	24.800	971.149	780.334
133.468	24.883	970.794	780.341
134.483	24.769	969.619	778.830
135.497	24.905	969.165	778.987
136.512	25.062	968.902	779.388
137.527	25.049	968.000	778.541
138.541	25.156	966.781	777.953
139.556	25.200	966.125	777.546
140.570	25.058	965.527	776.382
141.585	25.155	964.834	776.178
142.600	25.223	964.444	776.091
143.614	25.201	963.052	774.808
144.629	25.152	962.514	774.092
145.643	25.525	962.064	775.271
146.658	25.338	960.809	773.385
147.673	25.113	959.656	771.420
148.687	25.050	958.603	770.235
149.702	24.983	957.705	769.158
150.716	25.031	956.618	768.422
151.731	24.758	955.655	766.412
152.746	24.964	954.779	766.525
153.760	25.202	953.968	766.821
154.775	25.329	953.572	766.980
155.789	25.266	953.018	766.197
156.804	25.393	951.748	765.647
157.819	25.261	950.967	764.390
158.833	25.304	950.032	763.755
159.848	25.303	949.863	763.545
160.862	25.518	948.552	763.337
161.877	25.390	947.719	762.055
162.892	25.132	946.930	760.262
163.906	25.301	946.017	760.176
164.921	25.254	945.259	759.303
165.935	25.174	944.013	757.897
166.950	25.239	943.280	757.513
167.964	25.316	941.998	756.742
168.979	25.224	941.493	755.881
169.994	25.137	940.339	754.525
171.008	25.008	939.548	753.279
172.023	25.198	938.805	753.416
173.037	25.491	937.848	753.810
174.052	25.220	936.666	751.656
175.067	24.961	935.952	749.933
176.081	24.960	934.703	748.862
177.096	25.012	933.837	748.321
178.110	25.206	933.164	748.523
179.125	24.973	932.234	746.739
180.140	24.741	931.204	744.883
181.154	24.594	930.669	743.775
182.169	24.618	930.581	743.742
183.183	25.009	929.872	744.735
184.198	25.151	929.941	745.315
185.213	25.300	928.838	744.981
186.227	25.144	928.153	743.722
187.242	25.258	927.629	743.708
188.256	25.271	927.243	743.385
189.271	25.445	925.898	742.960
190.286	25.354	925.492	742.194
191.300	25.329	924.318	741.083
192.315	24.662	922.797	737.049
193.329	23.930	921.475	732.911
194.344	23.551	920.136	730.224
195.359	24.086	921.238	733.236
196.373	25.053	921.323	737.221
197.388	25.387	920.593	737.944
198.402	25.187	920.288	736.810
199.417	25.090	919.879	736.022
200.432	25.140	919.262	735.668
201.446	25.189	918.524	735.212
202.461	24.769	918.025	733.028
203.475	24.847	917.491	732.853
204.490	24.362	915.866	729.508
205.504	23.271	913.373	723.008
206.519	23.566	914.088	724.716
207.534	24.579	914.165	728.845
208.548	24.846	912.892	728.856
209.563	25.065	913.513	730.177
210.577	25.132	912.489	729.567
211.592	24.801	911.394	727.283
212.607	25.167	911.755	728.994
213.621	25.301	911.380	729.173
214.636	25.372	910.082	728.359
215.650	25.335	909.974	728.059
216.665	25.313	909.122	727.225
217.680	25.233	909.275	726.956
218.694	25.360	908.801	727.027
219.709	25.145	907.045	724.689
220.723	24.618	906.551	722.103
221.738	24.944	905.949	722.874
222.753	25.141	905.454	723.208
223.767	25.191	904.594	722.663
224.782	25.278	903.891	722.387
225.796	25.273	903.566	722.043
226.811	25.491	903.088	722.474
227.826	25.102	901.578	719.640
228.840	24.355	900.045	715.356
229.855	24.242	899.219	714.186
230.869	24.497	899.049	715.007
231.884	24.032	898.225	712.430
232.899	24.190	897.561	712.472
233.913	24.926	898.296	715.936
234.928	25.242	897.525	716.521
235.942	24.948	896.957	714.831
236.957	24.914	896.579	714.330
237.972	24.777	895.118	712.557
238.986	24.634	894.380	711.335
240.001	24.718	894.369	711.601
241.015	24.647	893.692	710.713
242.030	24.848	893.094	710.976
243.045	25.039	892.456	711.162
244.059	25.101	891.755	710.786
245.074	25.265	891.685	711.320
246.088	24.966	891.353	709.804
247.103	24.790	890.092	708.043
248.117	24.848	889.058	707.387
249.132	25.538	889.006	710.009
250.147	25.797	889.256	711.170
251.161	25.917	888.533	711.002
252.176	25.978	888.156	710.876
253.190	25.996	887.488	710.349
254.205	26.153	887.007	710.518
255.220	26.203	886.741	710.440
256.234	26.202	886.380	710.083
257.249	26.212	885.523	709.373
258.263	25.963	884.567	707.570
259.278	25.867	884.276	706.897
260.293	25.988	883.937	707.039
261.307	26.196	883.317	707.295
262.322	25.860	882.534	705.291
263.336	25.770	882.225	704.627
264.351	25.370	880.948	701.983
265.366	24.364	878.708	696.211
266.380	23.939	877.686	693.682
267.395	24.838	878.274	697.593
268.409	25.681	878.173	700.736
269.424	25.588	877.609	699.862
270.439	25.585	877.549	699.737
271.453	25.806	876.900	700.018
272.468	25.763	876.314	699.320
273.482	26.084	875.292	699.688
274.497	26.031	875.163	699.318
275.512	25.970	873.923	698.030
276.526	25.402	872.537	694.664
277.541	25.551	872.548	695.189
278.555	25.916	872.301	696.342
279.570	25.704	871.331	694.686
280.585	25.535	870.804	693.553
281.599	25.728	870.429	693.936
282.614	25.857	869.881	693.937
283.628	25.327	869.030	691.155
284.643	24.898	867.913	688.556
285.657	25.516	867.755	690.745
286.672	25.222	867.307	689.200
287.687	24.601	866.437	686.062
288.701	25.119	865.984	687.632
289.716	25.621	865.672	689.245
290.730	25.142	864.999	686.815
291.745	25.038	864.176	685.702
292.760	24.848	863.296	684.219
293.774	24.769	863.113	683.712
294.789	25.714	863.540	687.600
295.803	26.304	863.806	690.005
296.818	26.250	862.910	689.020
297.833	26.581	862.148	689.612
298.847	26.300	861.212	687.734
299.862	25.828	860.523	685.329
300.876	26.017	859.954	685.533
301.891	26.347	859.185	686.110
302.906	26.209	859.408	685.705
303.920	25.998	857.820	683.576
304.935	25.905	857.471	682.886
305.949	26.174	857.126	683.569
306.964	26.354	856.542	683.726
307.979	26.125	855.842	682.238
308.993	25.964	855.539	681.330
310.008	26.341	855.622	682.760
311.022	26.577	854.895	683.010
312.037	26.393	854.031	681.564
313.052	26.131	853.382	680.002
314.066	25.989	852.596	678.780
315.081	25.311	851.236	675.087
316.095	24.550	849.793	671.027
317.110	25.201	849.996	673.571
318.125	25.947	850.309	676.563
319.139	25.624	849.465	674.619
320.154	24.379	848.081	668.795
321.168	23.972	846.863	666.251
322.183	24.595	846.938	668.584
323.197	25.587	847.469	672.659
324.212	25.790	847.196	673.139
325.227	25.997	846.886	673.607
326.241	26.113	846.339	673.546
327.256	26.041	845.679	672.694
328.270	25.874	845.371	671.766
329.285	25.894	844.412	671.020
330.300	25.807	843.191	669.666
331.314	25.571	842.334	668.050
332.329	25.617	842.087	667.965
333.343	25.978	841.618	668.874
334.358	26.127	841.792	669.505
335.373	26.320	841.158	669.658
336.387	26.196	840.399	668.535
337.402	26.428	840.392	669.328
338.416	26.639	840.103	669.819
339.431	26.770	839.521	669.780
340.446	26.648	839.144	668.970
341.460	26.975	838.385	669.510
342.475	26.760	838.165	668.485
343.489	26.658	837.291	667.351
344.504	26.738	836.364	666.849
345.519	26.877	836.320	667.265
346.533	27.128	835.865	667.766
347.548	27.064	835.689	667.331
348.562	27.243	835.010	667.385
349.577	27.044	834.534	666.216
350.592	26.996	834.055	665.598
351.606	27.024	833.191	664.955
352.621	27.074	832.831	664.791
353.635	27.004	832.180	663.957
354.650	26.809	831.900	662.962
355.665	26.556	830.509	660.870
356.679	25.442	828.928	655.491
357.694	25.316	828.625	654.734
358.708	25.979	828.545	657.029
359.723	25.846	828.339	656.323
360.738	26.090	827.883	656.793
361.752	26.632	827.597	658.481
362.767	26.571	827.581	658.189
363.781	26.933	827.377	659.283
364.796	27.173	827.188	659.944
365.810	27.473	826.475	660.404
366.825	27.503	826.326	660.336
367.840	27.374	826.250	659.748
368.854	27.304	825.427	658.780
369.869	26.736	824.544	655.963
370.883	26.783	823.362	655.136
371.898	26.738	823.160	654.751
372.913	26.700	822.290	653.864
373.927	26.761	821.647	653.515
374.942	26.813	821.097	653.209
375.956	26.875	820.942	653.251
376.971	27.027	820.429	653.331
377.986	27.192	819.824	653.387
379.000	27.350	819.488	653.626
380.015	27.298	819.105	653.078
381.029	27.197	818.300	652.015
382.044	27.036	817.567	650.795
383.059	27.295	817.383	651.518
384.073	27.468	816.562	651.427
385.088	27.512	815.929	651.023
386.102	27.410	815.747	650.453
387.117	27.116	815.179	648.893
388.132	26.967	814.548	647.801
389.146	26.870	813.945	646.922
390.161	26.238	812.719	643.637
391.175	26.417	812.304	643.888
392.190	26.997	812.517	646.066
393.205	26.953	812.245	645.634
394.219	26.001	810.231	640.598
395.234	24.412	807.941	633.099
396.248	23.637	806.964	629.528
397.263	24.588	807.875	633.559
398.278	26.361	808.974	640.654
399.292	26.988	809.141	642.951
400.307	26.700	808.502	641.367
401.321	26.598	807.658	640.280
402.336	26.688	807.313	640.268
403.350	26.901	807.717	641.285
404.365	27.424	807.337	642.774
405.380	27.687	807.377	643.676
406.394	28.045	806.903	644.506
407.409	28.070	806.605	644.296
408.423	28.043	806.108	643.747
409.438	27.890	805.659	642.792
410.453	27.925	805.262	642.542
411.467	28.133	804.682	642.753
412.482	28.176	803.721	642.082
413.496	28.090	803.595	641.620
414.511	27.981	803.186	640.855
415.526	28.143	802.862	641.108
416.540	28.045	802.605	640.504
417.555	27.934	802.200	639.734
418.569	27.754	801.473	638.470
419.584	27.732	800.764	637.771
420.599	27.780	800.278	637.495
421.613	110.033	1285.870	1459.206
422.628	94.864	1356.593	1459.314
