DTS Sentinel unit serial number:	SN413079Multiplexer serial number:	ORYXHardware model number:	OX4-SRSoftware version number:	ORYX F/W v4.00 Oryx Data Collector v3.7.2.0data status	okinstallation	princeton_trtdifferential loss correction	single-endedforward channel	channel 3reverse channel	N/Adate	2019/09/12time	05:42:10forward acquisition time	60.00reverse acquisition time	0.00gamma	496.2192k internal	0.2321k external	0.2321temperature offset calibration	1.0034default loss term (dB/km)	0.3790temperature slope calibration	1.0000multiplexer offset coefficient	1.0000multiplexer slope coefficient	1.0000fibre end	0.00T internal ref (°C)	32.00T ext. ref 1 (°C)	1.59T ext. ref 2 (°C)	27.53length (m)	temperature (°C)	Stokes	anti-Stokes-747.200	-40.646	0.075	0.039
-746.185	146.543	0.140	0.191
-745.171	-99.552	0.091	0.023
-744.156	-100.957	0.189	0.047
-743.142	390.665	-0.097	0.202
-742.127	-42.978	-0.283	0.145
-741.112	629.696	-0.124	0.317
-740.098	133.818	-0.150	-0.196
-739.083	5.461	0.284	0.212
-738.069	-200.000	-0.000	0.233
-737.054	-148.396	-0.202	-0.017
-736.039	-45.858	-0.220	-0.110
-735.025	-111.425	0.371	-0.076
-734.010	800.000	-0.042	-0.120
-732.996	219.193	-0.203	-0.328
-731.981	-200.000	-0.034	-0.317
-730.966	-70.987	-0.380	-0.144
-729.952	-200.000	0.425	-0.001
-728.937	603.021	0.055	0.138
-727.923	-50.314	-0.111	0.053
-726.908	-23.127	-0.272	-0.165
-725.894	-5.171	0.102	-0.071
-724.879	-200.000	-0.020	0.109
-723.864	312.646	0.028	-0.053
-722.850	800.000	-0.090	-0.288
-721.835	-200.000	0.092	0.448
-720.821	182.396	-0.192	-0.287
-719.806	-102.209	-0.292	-0.071
-718.791	156.007	-0.132	-0.184
-717.777	-160.321	0.224	0.012
-716.762	1.961	-0.284	-0.207
-715.748	-200.000	0.000	-0.137
-714.733	-156.762	0.396	-0.025
-713.718	-73.859	-0.091	-0.033
-712.704	115.228	-0.272	-0.336
-711.689	-185.318	0.073	-0.001
-710.675	800.000	-0.087	-0.330
-709.660	34.492	0.112	-0.099
-708.645	19.526	0.076	0.062
-707.631	226.949	0.115	0.189
-706.616	-200.000	-0.001	0.383
-705.602	-200.000	0.005	0.284
-704.587	12.259	0.206	-0.160
-703.572	-127.380	-0.107	0.016
-702.558	-200.000	-0.031	-0.160
-701.543	79.024	0.192	-0.207
-700.529	800.000	-0.061	0.233
-699.514	-11.628	-0.040	-0.026
-698.499	-51.431	0.164	-0.077
-697.485	124.030	0.106	-0.134
-696.470	46.704	0.200	-0.188
-695.456	100.451	-0.137	-0.160
-694.441	51.642	0.045	0.044
-693.426	375.893	0.077	0.159
-692.412	-13.098	0.090	-0.059
-691.397	650.648	-0.045	-0.117
-690.383	50.018	0.148	-0.141
-689.368	-77.994	0.237	-0.082
-688.354	-200.000	-0.016	-0.224
-687.339	800.000	0.048	0.154
-686.324	-200.000	-0.024	-0.277
-685.310	800.000	0.080	0.275
-684.295	596.914	0.079	-0.198
-683.281	-10.919	0.230	0.153
-682.266	736.295	0.027	-0.072
-681.251	94.654	0.108	0.124
-680.237	-96.814	0.164	0.043
-679.222	-200.000	0.010	-0.057
-678.208	-5.510	0.045	0.031
-677.193	-108.471	0.248	-0.054
-676.178	-40.229	-0.203	0.107
-675.164	137.740	-0.041	-0.055
-674.149	-49.456	0.133	-0.064
-673.135	74.488	-0.072	-0.077
-672.120	90.172	0.179	0.202
-671.105	196.354	0.250	-0.384
-670.091	19.165	0.168	-0.136
-669.076	13.839	0.255	0.200
-668.062	-10.702	-0.195	0.130
-667.047	-100.520	0.311	0.077
-666.032	-55.786	-0.172	-0.078
-665.018	-200.000	0.000	-0.070
-664.003	800.000	-0.061	0.263
-662.989	800.000	0.056	0.200
-661.974	-129.789	-0.265	-0.037
-660.959	-114.376	-0.235	-0.045
-659.945	185.529	-0.142	-0.213
-658.930	123.594	-0.225	0.284
-657.916	-200.000	0.014	-0.288
-656.901	-123.102	-0.289	-0.047
-655.886	373.291	0.069	-0.142
-654.872	-200.000	0.032	0.174
-653.857	66.622	0.157	-0.160
-652.843	800.000	-0.048	0.196
-651.828	168.495	-0.042	0.060
-650.814	255.878	0.094	0.162
-649.799	-164.824	0.030	-0.001
-648.784	146.766	0.134	0.181
-647.770	-200.000	0.017	0.203
-646.755	-200.000	0.046	-0.563
-645.741	-122.976	-0.277	0.045
-644.726	800.000	0.068	0.259
-643.711	-145.479	-0.251	-0.023
-642.697	-114.877	-0.208	-0.040
-641.682	-200.000	0.014	-0.152
-640.668	102.126	0.131	0.155
-639.653	-135.585	0.305	-0.037
-638.638	139.346	-0.107	0.142
-637.624	800.000	-0.066	-0.229
-636.609	-146.950	0.282	0.024
-635.595	34.470	0.199	0.175
-634.580	-117.408	0.390	-0.071
-633.565	-200.000	0.051	-0.242
-632.551	688.424	-0.040	-0.105
-631.536	-56.850	-0.079	0.035
-630.522	97.700	-0.039	0.045
-629.507	-38.829	0.285	0.151
-628.492	54.725	-0.147	0.143
-627.478	-200.000	0.005	-0.095
-626.463	-200.000	0.006	0.146
-625.449	-122.983	-0.267	-0.043
-624.434	800.000	0.022	-0.081
-623.419	455.609	-0.024	-0.053
-622.405	50.330	0.147	-0.140
-621.390	-200.000	-0.018	-0.146
-620.376	-200.000	-0.010	-0.080
-619.361	91.086	0.036	0.041
-618.346	478.064	-0.164	0.373
-617.332	156.334	-0.105	-0.145
-616.317	683.827	0.014	-0.037
-615.303	204.624	-0.054	0.084
-614.288	-23.903	0.235	-0.141
-613.273	20.245	-0.281	0.228
-612.259	-111.229	-0.504	0.104
-611.244	40.414	0.169	-0.153
-610.230	80.857	-0.147	-0.160
-609.215	-200.000	0.021	-0.136
-608.201	338.413	-0.153	-0.300
-607.186	214.773	0.252	-0.402
-606.171	-53.784	-0.142	0.065
-605.157	128.371	-0.094	0.121
-604.142	204.933	-0.115	0.179
-603.128	223.116	0.059	-0.095
-602.113	-200.000	0.045	0.286
-601.098	-200.000	-0.016	0.150
-600.084	-200.000	-0.005	-0.253
-599.069	-164.587	0.316	-0.014
-598.055	800.000	-0.068	0.222
-597.040	-200.000	-0.012	0.374
-596.025	-137.035	0.066	0.008
-595.011	-55.028	0.153	-0.069
-593.996	37.668	-0.220	-0.196
-592.982	-157.551	-0.224	0.013
-591.967	-154.016	0.429	-0.029
-590.952	-42.054	-0.154	-0.079
-589.938	-60.801	-0.319	0.136
-588.923	356.073	-0.138	-0.277
-587.909	335.818	-0.068	-0.132
-586.894	-174.272	0.337	-0.010
-585.879	-122.421	-0.085	0.014
-584.865	240.329	0.088	-0.148
-583.850	-200.000	0.010	0.110
-582.836	-200.000	-0.033	-0.170
-581.821	300.596	-0.103	-0.192
-580.806	-40.649	0.044	0.023
-579.792	304.244	0.008	0.016
-578.777	800.000	0.083	-0.232
-577.763	648.839	-0.106	0.271
-576.748	-112.097	0.157	-0.032
-575.733	-109.768	-0.445	0.094
-574.719	-23.468	0.032	0.019
-573.704	165.016	-0.194	0.276
-572.690	-110.356	-0.208	-0.043
-571.675	800.000	0.046	0.153
-570.661	193.000	0.161	-0.244
-569.646	624.757	-0.095	0.241
-568.631	450.442	-0.105	0.234
-567.617	117.308	-0.085	0.105
-566.602	-94.542	0.344	0.094
-565.588	765.723	-0.077	0.211
-564.573	154.067	0.170	0.234
-563.558	-200.000	-0.001	0.231
-562.544	-1.222	0.115	-0.082
-561.529	-200.000	-0.007	-0.287
-560.515	-186.058	-0.219	0.003
-559.500	-106.056	0.239	-0.054
-558.485	-44.528	-0.362	0.181
-557.471	465.359	-0.170	0.383
-556.456	800.000	0.082	0.335
-555.442	227.128	-0.113	-0.184
-554.427	52.712	0.362	0.347
-553.412	-29.659	-0.234	0.134
-552.398	649.809	-0.137	-0.353
-551.383	70.498	-0.182	0.189
-550.369	18.968	-0.080	-0.064
-549.354	800.000	0.074	-0.245
-548.339	-144.312	-0.170	-0.016
-547.325	195.456	0.121	-0.184
-546.310	-200.000	0.035	-0.251
-545.296	-43.350	-0.102	-0.052
-544.281	50.919	-0.109	-0.104
-543.266	177.852	0.104	0.153
-542.252	122.550	-0.165	0.207
-541.237	177.742	-0.126	0.184
-540.223	-22.763	0.299	0.181
-539.208	357.983	-0.065	-0.130
-538.193	205.172	0.179	0.279
-537.179	174.352	0.045	0.066
-536.164	643.004	0.041	0.106
-535.150	200.565	-0.206	0.317
-534.135	-120.111	0.109	-0.019
-533.121	-66.513	0.386	-0.154
-532.106	-6.718	-0.259	-0.177
-531.091	-200.000	-0.241	0.000
-530.077	-75.803	0.207	-0.074
-529.062	-52.782	-0.298	-0.138
-528.048	33.025	0.182	0.158
-527.033	28.327	-0.116	0.099
-526.018	137.977	0.291	0.382
-525.004	-200.000	-0.009	-0.436
-523.989	138.396	-0.133	-0.175
-522.975	-174.903	-0.304	-0.009
-521.960	-83.492	0.370	-0.119
-520.945	800.000	0.099	-0.415
-519.931	-200.000	-0.070	-0.369
-518.916	33.247	0.103	0.090
-517.902	16.404	-0.162	0.129
-516.887	-165.136	-0.253	-0.011
-515.872	206.544	0.105	-0.164
-514.858	800.000	0.016	0.067
-513.843	144.762	0.110	0.147
-512.829	-183.567	-0.075	-0.001
-511.814	-200.000	0.009	0.128
-510.799	102.801	-0.124	0.146
-509.785	-27.912	-0.213	-0.124
-508.770	3.111	-0.139	-0.101
-507.756	-129.795	-0.059	-0.008
-506.741	365.712	0.206	0.415
-505.726	0.732	0.158	-0.113
-504.712	800.000	0.085	0.260
-503.697	7.377	0.146	-0.109
-502.683	800.000	-0.113	0.325
-501.668	70.778	0.300	-0.311
-500.653	-200.000	-0.060	0.279
-499.639	135.581	-0.084	0.109
-498.624	-103.211	-0.058	0.014
-497.610	-5.811	0.047	0.032
-496.595	-200.000	-0.009	0.063
-495.581	-200.000	-0.020	-0.420
-494.566	-20.223	-0.086	0.053
-493.551	301.597	-0.072	-0.134
-492.537	-200.000	0.010	0.116
-491.522	314.590	-0.144	-0.271
-490.508	67.865	0.203	-0.208
-489.493	-200.000	0.067	0.323
-488.478	-174.972	-0.110	-0.003
-487.464	132.748	0.084	0.109
-486.449	-32.459	0.182	0.101
-485.435	82.936	-0.121	0.132
-484.420	-200.000	0.026	0.293
-483.405	-53.661	-0.205	-0.094
-482.391	275.081	0.098	0.174
-481.376	-121.140	0.219	-0.037
-480.362	593.924	0.050	0.124
-479.347	-47.682	-0.263	0.128
-478.332	35.209	0.155	-0.136
-477.318	239.002	-0.079	-0.131
-476.303	-4.269	0.299	0.207
-475.289	-24.964	0.127	0.075
-474.274	-200.000	-0.019	0.148
-473.259	226.576	0.171	-0.277
-472.245	-200.000	-0.027	-0.282
-471.230	-89.501	-0.149	-0.044
-470.216	-200.000	-0.027	-0.168
-469.201	-61.219	-0.346	0.146
-468.186	88.732	0.099	-0.111
-467.172	-72.337	0.160	-0.059
-466.157	226.386	-0.101	0.164
-465.143	-102.757	0.105	-0.025
-464.128	-200.000	0.075	-0.480
-463.113	-43.141	0.186	0.094
-462.099	-86.660	0.294	-0.090
-461.084	-25.102	0.194	-0.115
-460.070	242.335	0.108	-0.181
-459.055	114.688	0.082	0.101
-458.040	20.802	0.388	-0.314
-457.026	-10.159	-0.222	0.147
-456.011	800.000	0.077	-0.325
-454.997	800.000	0.044	-0.139
-453.982	-160.309	-0.266	-0.014
-452.968	220.107	-0.206	0.330
-451.953	-171.916	-0.275	0.009
-450.938	-16.613	0.152	-0.096
-449.924	7.706	0.142	-0.106
-448.909	-200.000	-0.004	0.181
-447.895	30.712	-0.170	0.146
-446.880	196.702	-0.161	-0.245
-445.865	-94.984	-0.118	-0.032
-444.851	800.000	-0.056	-0.182
-443.836	-63.396	-0.153	-0.063
-442.822	301.458	0.096	-0.178
-441.807	800.000	-0.116	-0.357
-440.792	-200.000	0.029	0.370
-439.778	-86.100	0.110	0.034
-438.763	-58.991	-0.230	0.099
-437.749	148.825	0.157	0.213
-436.734	-115.890	-0.446	-0.083
-435.719	-53.727	0.233	-0.106
-434.705	-29.723	-0.130	-0.074
-433.690	43.690	-0.129	-0.118
-432.676	-200.000	0.021	-0.112
-431.661	-163.045	-0.242	-0.012
-430.646	800.000	0.064	-0.246
-429.632	172.742	0.186	0.267
-428.617	-96.080	-0.131	0.035
-427.603	66.379	0.104	-0.106
-426.588	-78.965	-0.200	-0.068
-425.573	-192.165	0.331	0.003
-424.559	-85.586	0.183	-0.057
-423.544	183.079	0.038	-0.056
-422.530	80.855	-0.152	-0.163
-421.515	-51.835	0.216	0.100
-420.500	-200.000	-0.027	0.370
-419.486	-9.961	-0.201	-0.133
-418.471	212.524	-0.238	0.375
-417.457	800.000	-0.028	-0.115
-416.442	-99.429	0.378	-0.095
-415.428	114.763	-0.114	-0.139
-414.413	73.697	-0.157	-0.164
-413.398	800.000	0.070	-0.223
-412.384	-200.000	0.002	-0.286
-411.369	-37.963	0.264	0.140
-410.355	156.992	0.120	0.165
-409.340	373.923	-0.042	-0.086
-408.325	382.079	-0.112	-0.230
-407.311	36.668	0.093	-0.082
-406.296	-200.000	-0.029	0.400
-405.282	-83.889	-0.174	-0.055
-404.267	-70.714	-0.156	0.059
-403.252	43.413	-0.188	0.171
-402.238	87.415	-0.076	-0.084
-401.223	-30.722	-0.171	-0.097
-400.209	-200.000	-0.004	-0.100
-399.194	621.976	-0.053	0.133
-398.179	-182.485	-0.196	-0.004
-397.165	-42.403	-0.356	-0.181
-396.150	-122.989	0.116	0.019
-395.136	94.706	0.077	-0.087
-394.121	14.748	0.290	-0.226
-393.106	745.452	0.033	0.090
-392.092	-200.000	0.026	-0.161
-391.077	19.476	-0.337	-0.270
-390.063	-200.000	0.076	0.424
-389.048	-167.144	-0.386	0.016
-388.033	351.429	-0.071	0.140
-387.019	-200.000	0.033	0.371
-386.004	56.812	-0.233	0.226
-384.990	-200.000	0.069	-0.328
-383.975	29.952	-0.426	-0.362
-382.960	278.760	0.062	0.111
-381.946	800.000	-0.036	0.102
-380.931	-183.534	-0.152	-0.003
-379.917	-109.304	-0.432	0.091
-378.902	800.000	-0.102	-0.358
-377.888	-130.596	-0.278	0.037
-376.873	800.000	0.013	0.039
-375.858	-89.305	0.370	-0.109
-374.844	197.810	0.164	0.250
-373.829	-200.000	-0.003	0.143
-372.815	-73.401	0.418	-0.152
-371.800	800.000	0.071	-0.270
-370.785	-101.223	0.393	-0.096
-369.771	93.906	-0.054	-0.061
-368.756	65.634	-0.115	0.116
-367.742	-98.472	0.177	0.045
-366.727	-178.837	-0.310	0.007
-365.712	10.481	-0.195	0.148
-364.698	-144.132	0.214	-0.020
-363.683	295.376	0.065	0.119
-362.669	-144.161	0.017	-0.002
-361.654	550.484	-0.161	0.384
-360.639	91.518	-0.235	0.263
-359.625	-200.000	-0.087	0.583
-358.610	444.018	-0.089	0.194
-357.596	36.337	-0.106	0.093
-356.581	-44.084	-0.327	-0.164
-355.566	80.967	-0.164	-0.177
-354.552	-52.680	-0.273	-0.125
-353.537	-97.962	-0.323	-0.083
-352.523	-89.784	-0.251	-0.073
-351.508	-82.246	0.474	-0.154
-350.493	277.834	-0.114	0.201
-349.479	-170.849	-0.088	-0.003
-348.464	-7.597	-0.047	-0.031
-347.450	68.501	-0.138	0.141
-346.435	-85.598	-0.385	-0.119
-345.420	368.588	0.051	0.102
-344.406	-200.000	0.023	0.424
-343.391	-87.141	-0.055	0.017
-342.377	-6.145	0.158	-0.107
-341.362	488.829	-0.153	-0.347
-340.348	-200.000	0.019	-0.283
-339.333	15.842	0.162	-0.127
-338.318	-85.677	0.119	0.037
-337.304	73.791	-0.074	-0.077
-336.289	673.538	-0.028	-0.071
-335.275	302.282	-0.079	-0.146
-334.260	-195.053	-0.072	-0.001
-333.245	-51.397	0.116	0.054
-332.231	-200.000	0.032	0.199
-331.216	-36.361	0.143	0.076
-330.202	-200.000	0.039	0.381
-329.187	-200.000	0.016	-0.246
-328.172	800.000	0.021	0.059
-327.158	18.283	0.254	0.201
-326.143	458.540	0.089	-0.196
-325.129	-200.000	-0.033	0.174
-324.114	1.129	-0.227	0.162
-323.099	-30.611	0.050	0.028
-322.085	35.024	0.160	-0.140
-321.070	-56.216	-0.017	-0.008
-320.056	92.029	-0.048	0.054
-319.041	-81.733	0.276	0.090
-318.026	158.983	0.147	-0.204
-317.012	163.988	0.149	0.208
-315.997	-200.000	-0.020	-0.124
-314.983	-32.287	-0.387	0.215
-313.968	-52.220	0.093	-0.043
-312.953	166.430	0.249	-0.351
-311.939	6.026	-0.324	-0.238
-310.924	-92.121	-0.031	-0.009
-309.910	213.293	-0.204	0.321
-308.895	-200.000	-0.027	0.271
-307.880	-27.224	0.262	-0.152
-306.866	-39.173	-0.309	-0.162
-305.851	800.000	0.013	-0.051
-304.837	800.000	-0.023	0.093
-303.822	762.195	0.028	0.077
-302.807	45.111	0.183	0.168
-301.793	-11.562	0.139	0.091
-300.778	-29.964	0.296	0.167
-299.764	555.425	-0.033	-0.079
-298.749	109.057	0.194	-0.230
-297.735	800.000	-0.068	0.193
-296.720	368.414	-0.096	0.193
-295.705	-11.128	-0.237	0.155
-294.691	-200.000	0.025	0.118
-293.676	-200.000	0.018	-0.202
-292.662	800.000	-0.024	0.082
-291.647	800.000	0.045	0.171
-290.632	7.816	0.097	0.072
-289.618	4.600	-0.023	0.017
-288.603	-17.247	0.207	0.130
-287.589	800.000	0.065	-0.253
-286.574	-143.376	-0.460	0.044
-285.559	-29.775	0.367	0.208
-284.545	8.472	0.219	-0.163
-283.530	19.070	0.230	0.183
-282.516	-200.000	-0.004	0.043
-281.501	53.132	-0.009	0.009
-280.486	360.655	0.004	-0.008
-279.472	169.467	-0.014	-0.019
-278.457	462.195	0.094	0.208
-277.443	-164.064	0.046	0.002
-276.428	-51.961	-0.156	0.072
-275.413	5.414	-0.115	-0.084
-274.399	800.000	0.099	0.329
-273.384	16.771	0.235	-0.184
-272.370	-200.000	-0.004	-0.077
-271.355	20.630	-0.092	-0.074
-270.340	-55.590	0.218	-0.097
-269.326	33.127	0.166	-0.143
-268.311	349.093	0.149	0.291
-267.297	-3.899	0.227	-0.157
-266.282	398.165	0.139	0.289
-265.267	-200.000	-0.010	-0.295
-264.253	481.941	-0.075	-0.169
-263.238	7.787	0.190	0.141
-262.224	140.994	-0.194	0.254
-261.209	33.567	0.219	0.189
-260.195	-132.598	-0.232	-0.030
-259.180	-198.003	0.185	0.001
-258.165	29.492	-0.223	0.188
-257.151	474.874	0.077	-0.173
-256.136	245.910	0.091	0.152
-255.122	800.000	0.098	0.326
-254.107	237.713	-0.130	-0.214
-253.092	800.000	-0.230	-0.666
-252.078	66.170	0.223	-0.225
-251.063	251.039	-0.166	-0.280
-250.049	-42.217	0.170	0.086
-249.034	90.618	0.270	0.299
-248.019	341.216	0.224	-0.434
-247.005	-90.984	-0.109	0.031
-245.990	-99.275	-0.325	0.081
-244.976	-106.447	-0.075	0.017
-243.961	-200.000	-0.023	0.219
-242.946	254.334	0.109	-0.185
-241.932	-155.460	-0.219	0.014
-240.917	114.945	0.079	0.096
-239.903	800.000	-0.043	-0.119
-238.888	-146.768	0.252	0.022
-237.873	-200.000	0.066	-0.428
-236.859	-1.142	0.045	0.032
-235.844	800.000	0.152	0.567
-234.830	51.033	-0.253	0.238
-233.815	212.751	-0.062	-0.097
-232.800	-200.000	-0.008	-0.069
-231.786	-56.682	0.204	-0.089
-230.771	-104.880	0.290	0.066
-229.757	800.000	-0.082	0.353
-228.742	35.113	0.145	-0.126
-227.727	-72.705	0.175	-0.064
-226.713	-78.941	-0.096	0.033
-225.698	-52.316	0.135	-0.062
-224.684	800.000	-0.023	0.078
-223.669	122.420	-0.187	-0.231
-222.655	-75.720	0.219	0.077
-221.640	-200.000	0.057	-0.330
-220.625	223.732	-0.188	-0.301
-219.611	-25.619	0.057	-0.033
-218.596	-34.605	0.201	-0.109
-217.582	800.000	-0.014	-0.049
-216.567	800.000	0.030	-0.099
-215.552	16.464	0.142	-0.111
-214.538	470.120	0.035	-0.077
-213.523	-107.948	0.218	0.047
-212.509	-34.993	-0.176	0.095
-211.494	800.000	-0.037	0.123
-210.479	-200.000	-0.008	0.216
-209.465	58.339	0.185	0.180
-208.450	-151.096	0.185	-0.014
-207.436	-52.902	0.208	-0.095
-206.421	5.137	-0.129	-0.094
-205.406	50.086	-0.017	-0.016
-204.392	800.000	-0.021	-0.084
-203.377	-39.293	0.028	0.015
-202.363	-19.144	0.152	-0.094
-201.348	96.700	0.098	0.111
-200.333	5.951	0.030	-0.022
-199.319	-200.000	0.015	-0.240
-198.304	-200.000	-0.005	-0.172
-197.290	-131.173	0.379	-0.050
-196.275	-98.688	-0.272	-0.069
-195.260	-200.000	0.051	-0.247
-194.246	-200.000	-0.064	0.282
-193.231	-59.169	-0.114	0.049
-192.217	-102.892	0.055	0.013
-191.202	41.538	-0.184	-0.165
-190.187	210.286	0.107	0.166
-189.173	-38.761	0.178	-0.093
-188.158	-122.145	0.445	0.072
-187.144	236.693	0.127	-0.207
-186.129	-200.000	0.031	-0.187
-185.114	382.158	0.058	-0.119
-184.100	-200.000	0.012	0.190
-183.085	-200.000	0.006	0.076
-182.071	422.323	0.137	0.290
-181.056	-57.518	-0.375	0.163
-180.042	800.000	-0.047	-0.169
-179.027	-200.000	0.031	-0.157
-178.012	-78.934	0.175	0.059
-176.998	-22.534	-0.144	0.086
-175.983	20.401	0.198	-0.158
-174.969	-164.894	-0.365	0.016
-173.954	542.755	-0.131	0.308
-172.939	-63.382	-0.180	0.073
-171.925	-34.707	0.228	-0.123
-170.910	-0.937	0.141	-0.098
-169.896	364.270	0.119	-0.236
-168.881	11.735	0.078	0.059
-167.866	449.128	-0.216	0.471
-166.852	-127.679	0.138	0.020
-165.837	-68.610	-0.073	0.028
-164.823	-151.048	0.080	-0.006
-163.808	381.141	0.030	-0.060
-162.793	9.874	-0.181	-0.135
-161.779	-87.278	0.162	-0.049
-160.764	-100.837	-0.238	0.058
-159.750	-108.495	0.031	0.007
-158.735	55.755	0.037	0.035
-157.720	-107.881	0.423	-0.091
-156.706	147.971	-0.168	0.224
-155.691	-131.053	0.311	0.041
-154.677	43.022	-0.067	-0.060
-153.662	800.000	-0.099	-0.336
-152.647	-6.725	-0.203	-0.137
-151.633	-146.093	-0.224	0.019
-150.618	14.605	0.198	0.152
-149.604	800.000	0.131	0.391
-148.589	88.877	0.051	-0.056
-147.574	-200.000	0.034	-0.149
-146.560	69.645	0.090	0.091
-145.545	175.303	0.068	-0.097
-144.531	602.000	-0.136	-0.334
-143.516	-83.927	0.379	-0.119
-142.502	-144.343	-0.368	-0.034
-141.487	521.710	0.045	0.104
-140.472	800.000	-0.040	-0.147
-139.458	-134.249	0.175	-0.021
-138.443	-54.178	0.264	-0.118
-137.429	-200.000	-0.020	0.193
-136.414	-61.016	0.240	-0.100
-135.399	-62.410	0.096	-0.040
-134.385	224.282	0.186	0.296
-133.370	-41.750	-0.341	0.173
-132.356	126.927	-0.056	0.070
-131.341	100.091	-0.129	0.148
-130.326	-55.874	0.087	-0.038
-129.312	-115.651	0.363	-0.067
-128.297	-200.000	-0.021	0.329
-127.283	743.563	-0.022	0.059
-126.268	-200.000	0.014	-0.116
-125.253	-64.187	0.096	-0.039
-124.239	-49.241	-0.275	-0.130
-123.224	-200.000	-0.000	-0.042
-122.210	-200.000	-0.020	-0.181
-121.195	105.121	0.218	-0.254
-120.180	-49.389	-0.051	0.024
-119.166	-200.000	0.005	-0.034
-118.151	-83.686	0.271	0.085
-117.137	-174.312	0.184	0.005
-116.122	-129.930	-0.238	0.032
-115.107	-117.098	-0.114	-0.021
-114.093	-30.042	0.130	0.073
-113.078	-174.369	0.257	0.007
-112.064	-200.000	-0.017	-0.090
-111.049	38.772	-0.153	0.134
-110.034	513.781	-0.072	0.165
-109.020	-6.318	0.145	-0.097
-108.005	800.000	-0.044	-0.156
-106.991	-64.655	0.302	-0.121
-105.976	780.741	0.125	-0.337
-104.962	561.513	0.155	0.370
-103.947	495.912	-0.154	0.348
-102.932	-42.204	0.177	0.089
-101.918	122.044	-0.115	0.142
-100.903	473.602	0.078	0.174
-99.889	280.930	0.047	0.083
-98.874	-200.000	0.036	0.245
-97.859	-46.782	-0.228	-0.110
-96.845	-132.952	0.159	0.020
-95.830	2.673	-0.180	-0.129
-94.816	-87.464	0.347	-0.103
-93.801	142.469	-0.015	-0.019
-92.786	186.101	0.283	-0.414
-91.772	783.309	0.069	-0.186
-90.757	-2.560	0.406	-0.280
-89.743	-11.561	0.052	0.034
-88.728	800.000	-0.021	0.065
-87.713	31.720	-0.120	-0.102
-86.699	202.888	0.275	0.419
-85.684	-66.980	-0.116	0.045
-84.670	364.995	-0.056	-0.111
-83.655	800.000	0.046	-0.189
-82.640	-28.051	0.177	-0.101
-81.626	800.000	0.063	-0.171
-80.611	-79.241	0.280	0.093
-79.597	-99.173	-0.261	0.065
-78.582	-200.000	-0.033	-0.156
-77.567	266.284	-0.040	-0.069
-76.553	51.971	-0.346	0.325
-75.538	800.000	0.046	0.153
-74.524	105.787	0.191	0.222
-73.509	72.780	0.154	-0.158
-72.494	-80.648	0.135	-0.044
-71.480	-155.096	-0.203	-0.013
-70.465	-10.604	0.185	-0.121
-69.451	-200.000	0.038	-0.223
-68.436	38.406	0.355	-0.312
-67.422	-200.000	-0.017	-0.270
-66.407	187.402	-0.078	-0.114
-65.392	469.765	-0.117	0.259
-64.378	800.000	-0.047	-0.169
-63.363	-200.000	0.013	-0.142
-62.349	146.936	-0.161	-0.213
-61.334	43.789	-1.059	-0.954
-60.319	800.000	0.132	0.523
-59.305	-200.000	-0.143	-0.885
-58.290	338.115	0.617	1.182
-57.276	800.000	0.560	1.664
-56.261	-200.000	95.734	595.428
-55.246	568.964	1368.692	3273.521
-54.232	161.551	2548.901	3509.129
-53.217	112.647	2161.259	2574.506
-52.203	42.728	1705.946	1528.590
-51.188	35.217	1519.391	1310.268
-50.173	32.839	1492.953	1271.420
-49.159	51.898	1541.973	1444.102
-48.144	53.823	1558.842	1473.024
-47.130	35.390	1519.340	1311.199
-46.115	32.311	1504.557	1277.512
-45.100	32.105	1500.889	1272.948
-44.086	32.067	1499.437	1271.409
-43.071	32.001	1497.493	1269.264
-42.057	31.941	1495.606	1267.206
-41.042	32.097	1494.382	1267.175
-40.027	32.012	1493.191	1265.538
-39.013	31.904	1491.598	1263.413
-37.998	31.926	1490.358	1262.459
-36.984	32.036	1489.295	1262.251
-35.969	32.008	1487.745	1260.698
-34.954	32.003	1486.061	1259.189
-33.940	32.004	1485.062	1258.299
-32.925	31.976	1483.802	1256.995
-31.911	32.103	1481.747	1256.050
-30.896	32.056	1480.617	1254.733
-29.881	32.068	1479.677	1253.965
-28.867	32.117	1477.945	1252.773
-27.852	32.058	1476.704	1251.279
-26.838	32.107	1474.968	1250.083
-25.823	32.021	1473.637	1248.332
-24.809	32.070	1471.682	1246.953
-23.794	32.028	1470.113	1245.296
-22.779	32.034	1469.398	1244.682
-21.765	32.089	1468.334	1244.094
-20.750	31.999	1467.296	1242.573
-19.736	31.976	1466.359	1241.574
-18.721	32.045	1464.848	1240.702
-17.706	31.986	1464.099	1239.629
-16.692	32.051	1462.819	1238.928
-15.677	31.939	1461.846	1237.316
-14.663	31.903	1460.672	1236.037
-13.648	31.958	1459.690	1235.518
-12.633	31.914	1459.076	1234.658
-11.619	31.996	1458.064	1234.291
-10.604	31.916	1457.292	1233.061
-9.590	31.994	1456.520	1232.871
-8.575	31.986	1455.768	1232.137
-7.560	31.986	1454.597	1231.097
-6.546	32.052	1453.346	1230.422
-5.531	31.934	1452.653	1229.010
-4.517	31.921	1451.403	1227.823
-3.502	31.863	1450.657	1226.758
-2.487	31.929	1449.447	1226.120
-1.473	31.908	1448.788	1225.375
-0.458	31.961	1446.900	1224.078
0.556	31.929	1437.398	1213.508
1.571	29.222	1413.119	1175.664
2.586	26.039	1358.067	1110.210
3.600	24.659	1278.624	1037.168
4.615	23.305	1231.530	991.308
5.629	19.389	1173.631	923.689
6.644	9.873	1085.993	807.262
7.659	2.680	1044.746	741.824
8.673	1.803	1039.765	733.999
9.688	1.649	1036.168	730.656
10.702	1.477	1034.495	728.588
11.717	1.422	1032.898	727.137
12.731	4.446	1035.416	743.334
13.746	14.058	1049.275	799.656
14.761	22.302	1060.622	848.146
15.775	24.680	1062.680	861.189
16.790	25.062	1062.682	862.953
17.804	24.890	1061.377	860.990
18.819	24.537	1061.109	859.001
19.834	24.888	1059.739	859.504
20.848	24.969	1059.551	859.663
21.863	24.982	1059.791	859.842
22.877	25.047	1059.017	859.452
23.892	24.936	1058.796	858.664
24.907	24.839	1057.717	857.247
25.921	24.880	1056.866	856.676
26.936	24.921	1056.179	856.239
27.950	24.906	1055.005	855.144
28.965	24.755	1054.198	853.692
29.980	24.685	1052.568	851.963
30.994	24.701	1051.392	851.013
32.009	24.893	1050.564	851.181
33.023	25.027	1049.996	851.278
34.038	24.857	1048.771	849.407
35.053	24.742	1048.148	848.278
36.067	24.911	1047.525	848.501
37.082	24.984	1047.099	848.430
38.096	24.940	1045.972	847.230
39.111	25.135	1045.380	847.597
40.126	25.153	1044.275	846.714
41.140	25.172	1043.404	846.021
42.155	24.738	1041.863	842.652
43.169	24.638	1040.288	840.836
44.184	24.580	1039.579	839.913
45.199	24.520	1038.907	839.016
46.213	24.542	1037.455	837.869
47.228	24.526	1036.624	837.051
48.242	24.750	1036.031	837.546
49.257	24.743	1035.579	837.075
50.271	24.962	1034.629	837.256
51.286	24.864	1034.243	836.409
52.301	25.095	1033.128	836.512
53.315	25.056	1032.420	835.686
54.330	25.002	1031.166	834.342
55.344	24.923	1030.764	833.578
56.359	24.896	1030.289	832.996
57.374	24.915	1029.044	832.002
58.388	24.701	1028.474	830.473
59.403	24.693	1027.314	829.424
60.417	24.655	1026.739	828.714
61.432	24.661	1025.324	827.524
62.447	24.516	1025.226	826.702
63.461	24.693	1024.573	826.921
64.476	24.840	1023.395	826.576
65.490	24.706	1023.160	825.694
66.505	24.665	1022.018	824.509
67.520	24.605	1021.468	823.719
68.534	24.645	1020.872	823.349
69.549	24.634	1019.613	822.209
70.563	24.267	1018.449	819.510
71.578	24.253	1017.199	818.368
72.593	24.216	1017.136	818.074
73.607	24.006	1015.732	815.909
74.622	24.203	1014.611	815.839
75.636	24.269	1014.645	816.099
76.651	24.610	1013.571	816.721
77.666	24.377	1013.038	815.154
78.680	24.321	1011.937	813.941
79.695	24.319	1011.205	813.269
80.709	24.396	1010.872	813.282
81.724	24.488	1009.988	812.917
82.739	24.591	1009.059	812.567
83.753	24.569	1008.159	811.669
84.768	24.780	1007.703	812.191
85.782	25.068	1007.292	813.092
86.797	25.283	1006.352	813.238
87.812	25.392	1005.183	812.712
88.826	25.003	1004.524	810.349
89.841	25.091	1003.718	810.026
90.855	25.229	1003.019	810.012
91.870	25.175	1002.533	809.304
92.884	25.237	1001.387	808.589
93.899	25.013	1000.829	807.055
94.914	24.930	999.451	805.498
95.928	25.073	998.829	805.572
96.943	25.151	998.230	805.365
97.957	24.796	997.394	803.027
98.972	24.592	995.820	800.774
99.987	24.421	994.941	799.230
101.001	24.754	993.977	799.876
102.016	24.921	993.649	800.286
103.030	24.890	992.726	799.333
104.045	24.903	991.845	798.613
105.060	24.742	990.865	797.036
106.074	24.504	989.489	794.798
107.089	24.632	988.715	794.674
108.103	24.783	988.556	795.148
109.118	24.890	987.347	794.580
110.133	24.694	986.492	792.953
111.147	24.688	985.245	791.853
112.162	24.509	983.943	789.948
113.176	24.260	982.913	787.948
114.191	24.413	982.237	788.014
115.206	24.700	981.348	788.497
116.220	24.432	980.182	786.310
117.235	24.071	980.116	784.598
118.249	24.315	979.034	784.732
119.264	24.395	978.018	784.201
120.279	24.309	977.243	783.132
121.293	24.265	976.309	782.122
122.308	24.278	976.153	781.986
123.322	24.313	975.136	781.255
124.337	24.252	974.167	780.144
125.352	24.176	972.848	778.684
126.366	23.825	971.132	775.710
127.381	23.321	969.913	772.472
128.395	23.927	969.926	775.057
129.410	24.685	969.577	778.007
130.424	24.867	968.395	777.780
131.439	24.735	967.890	776.734
132.454	24.782	966.682	775.899
133.468	24.880	965.703	775.470
134.483	24.718	965.005	774.141
135.497	24.754	964.546	773.860
136.512	24.984	964.085	774.413
137.527	24.988	963.095	773.567
138.541	25.052	962.641	773.411
139.556	25.014	962.025	772.686
140.570	25.006	960.668	771.492
141.585	25.036	960.189	771.166
142.600	25.167	959.438	771.059
143.614	25.080	958.399	769.783
144.629	25.198	957.701	769.659
145.643	25.513	956.862	770.267
146.658	25.303	956.042	768.640
147.673	25.060	955.047	766.733
148.687	25.002	954.046	765.614
149.702	24.864	953.073	764.178
150.716	24.873	951.740	763.080
151.731	24.701	950.913	761.614
152.746	24.866	950.452	761.883
153.760	25.128	949.839	762.435
154.775	25.262	949.153	762.387
155.789	25.191	948.468	761.468
156.804	25.220	947.308	760.591
157.819	25.202	946.358	759.685
158.833	25.130	945.945	758.983
159.848	25.393	944.524	758.886
160.862	25.385	943.965	758.337
161.877	25.336	943.287	757.520
162.892	25.149	942.375	755.934
163.906	25.307	941.602	755.910
164.921	25.257	940.434	754.693
165.935	25.112	939.497	753.268
166.950	25.197	938.617	752.851
167.964	25.398	937.399	752.651
168.979	25.204	936.798	751.288
169.994	25.047	935.694	749.678
171.008	24.905	934.551	748.104
172.023	25.066	934.247	748.467
173.037	25.282	933.440	748.654
174.052	25.158	932.333	747.185
175.067	24.972	930.736	745.066
176.081	24.929	930.163	744.363
177.096	25.026	929.495	744.164
178.110	25.089	928.757	743.767
179.125	24.711	927.617	741.226
180.140	24.582	926.430	739.677
181.154	24.609	925.915	739.311
182.169	24.741	925.463	739.431
183.183	24.953	925.089	739.942
184.198	25.213	924.811	740.727
185.213	25.232	924.026	740.112
186.227	25.118	923.550	739.195
187.242	25.192	922.622	738.694
188.256	25.323	922.076	738.729
189.271	25.297	921.276	737.917
190.286	25.276	920.725	737.322
191.300	25.150	919.867	736.054
192.315	24.683	918.031	732.605
193.329	23.878	916.884	728.328
194.344	23.410	916.143	725.761
195.359	24.083	916.626	728.833
196.373	24.933	916.445	732.103
197.388	25.276	916.219	733.260
198.402	25.114	915.768	732.170
199.417	25.095	915.000	731.414
200.432	25.021	914.712	730.819
201.446	25.095	913.562	730.137
202.461	24.510	912.937	727.193
203.475	24.853	912.167	727.910
204.490	24.420	910.846	725.034
205.504	23.194	908.996	718.521
206.519	23.620	909.192	720.340
207.534	24.515	909.325	724.012
208.548	24.685	908.714	724.153
209.563	25.072	908.337	725.352
210.577	25.114	907.505	724.797
211.592	24.770	907.026	722.959
212.607	25.106	907.003	724.233
213.621	25.373	906.329	724.712
214.636	25.107	905.996	723.305
215.650	25.263	904.773	722.893
216.665	25.259	904.491	722.589
217.680	25.313	904.137	722.461
218.694	25.312	903.677	722.023
219.709	25.025	902.510	719.875
220.723	24.767	901.437	717.920
221.738	25.113	901.129	719.001
222.753	25.069	900.731	718.439
223.767	25.011	900.170	717.697
224.782	25.107	899.331	717.349
225.796	25.224	898.708	717.256
226.811	25.421	898.277	717.636
227.826	24.921	897.396	714.873
228.840	24.256	895.410	710.577
229.855	24.052	894.833	709.243
230.869	24.240	894.666	709.799
231.884	24.064	893.844	708.384
232.899	24.046	893.312	707.829
233.913	24.904	893.459	711.292
234.928	25.249	892.632	711.941
235.942	24.848	892.675	710.319
236.957	25.025	891.507	710.030
237.972	24.790	890.385	708.142
238.986	24.634	889.962	707.124
240.001	24.872	889.169	707.373
241.015	24.746	888.994	706.674
242.030	24.878	888.345	706.617
243.045	25.042	887.596	706.606
244.059	25.102	887.045	706.339
245.074	25.138	886.793	706.220
246.088	25.233	886.121	705.997
247.103	24.858	885.025	703.585
248.117	24.909	884.519	703.324
249.132	25.276	884.955	705.046
250.147	25.728	884.453	706.359
251.161	25.963	883.643	706.571
252.176	25.919	883.829	706.485
253.190	25.941	882.768	705.662
254.205	26.011	882.162	705.389
255.220	26.240	881.640	705.804
256.234	26.160	881.121	705.014
257.249	25.992	880.912	704.128
258.263	25.961	880.064	703.267
259.278	25.913	879.245	702.364
260.293	25.963	879.125	702.397
261.307	25.910	878.726	701.810
262.322	25.881	878.180	701.202
263.336	25.873	877.333	700.431
264.351	25.344	875.649	696.971
265.366	24.297	873.453	691.107
266.380	23.708	873.106	688.488
267.395	24.767	873.561	692.891
268.409	25.518	873.363	695.579
269.424	25.515	872.506	694.825
270.439	25.643	872.379	695.157
271.453	25.844	871.756	695.375
272.468	25.796	871.093	694.597
273.482	25.974	870.692	694.902
274.497	26.118	870.265	695.057
275.512	25.832	869.110	692.973
276.526	25.241	867.815	689.609
277.541	25.483	867.841	690.497
278.555	25.848	867.579	691.628
279.570	25.681	866.723	690.244
280.585	25.556	865.817	688.984
281.599	25.740	865.318	689.228
282.614	25.825	864.946	689.198
283.628	25.285	863.831	686.182
284.643	24.892	863.193	684.115
285.657	25.327	862.930	685.509
286.672	25.049	862.527	684.065
287.687	24.653	861.389	681.593
288.701	25.147	861.694	683.658
289.716	25.528	860.804	684.342
290.730	24.977	860.207	681.711
291.745	25.078	858.864	680.971
292.760	24.898	858.340	679.809
293.774	24.687	857.903	678.604
294.789	25.579	858.460	682.368
295.803	26.317	858.422	685.077
296.818	26.220	858.038	684.342
297.833	26.469	857.559	684.843
298.847	26.039	856.583	682.375
299.862	25.717	855.325	680.099
300.876	25.958	854.797	680.527
301.891	26.175	854.647	681.165
302.906	26.375	853.958	681.310
303.920	26.106	852.825	679.334
304.935	25.821	852.259	677.752
305.949	26.252	852.068	679.159
306.964	26.414	851.433	679.201
307.979	26.084	850.939	677.510
308.993	25.834	850.608	676.248
310.008	26.210	850.469	677.489
311.022	26.456	850.026	677.998
312.037	26.384	849.035	676.878
313.052	25.950	848.736	674.956
314.066	25.888	847.963	674.049
315.081	25.369	845.804	670.336
316.095	24.652	844.819	666.824
317.110	25.085	845.646	669.034
318.125	25.941	845.770	672.264
319.139	25.410	844.851	669.498
320.154	24.352	842.895	663.953
321.168	23.873	841.670	661.146
322.183	24.654	842.039	664.282
323.197	25.481	842.583	667.725
324.212	25.745	842.602	668.663
325.227	25.900	841.825	668.564
326.241	25.994	841.705	668.756
327.256	26.155	840.640	668.448
328.270	25.798	840.281	666.783
329.285	25.731	839.501	665.855
330.300	25.725	838.786	665.207
331.314	25.417	837.737	663.182
332.329	25.493	837.284	663.043
333.343	25.854	837.320	664.343
334.358	26.150	836.939	665.074
335.373	26.141	836.143	664.351
336.387	26.209	835.840	664.302
337.402	26.400	835.725	664.851
338.416	26.644	835.130	665.217
339.431	26.536	834.490	664.252
340.446	26.574	833.867	663.837
341.460	26.867	833.644	664.672
342.475	26.775	833.107	663.850
343.489	26.687	832.238	662.778
344.504	26.548	831.815	661.872
345.519	26.883	831.416	662.720
346.533	27.033	831.198	663.035
347.548	27.146	830.839	663.104
348.562	27.012	830.225	662.067
349.577	26.925	829.587	661.181
350.592	26.973	828.767	660.643
351.606	26.916	828.275	659.986
352.621	26.934	827.954	659.738
353.635	26.837	827.546	659.002
354.650	26.814	826.874	658.325
355.665	26.507	825.469	656.035
356.679	25.357	823.988	650.637
357.694	25.278	823.708	650.071
358.708	25.876	823.816	652.265
359.723	25.986	822.779	651.781
360.738	26.101	823.037	652.347
361.752	26.579	822.723	653.766
362.767	26.600	822.400	653.528
363.781	26.992	822.441	654.917
364.796	27.149	822.378	655.375
365.810	27.274	822.082	655.530
366.825	27.363	821.318	655.184
367.840	27.410	820.904	654.964
368.854	27.150	820.635	653.758
369.869	26.673	819.568	651.134
370.883	26.620	819.122	650.533
371.898	26.663	818.695	650.291
372.913	26.634	817.732	649.363
373.927	26.713	816.884	648.915
374.942	26.644	816.699	648.465
375.956	26.905	815.947	648.743
376.971	26.975	815.221	648.360
377.986	27.035	815.204	648.504
379.000	27.242	814.536	648.653
380.015	27.434	814.248	649.052
381.029	27.195	813.450	647.504
382.044	27.054	813.068	646.640
383.059	27.269	812.316	646.750
384.073	27.311	811.823	646.450
385.088	27.376	811.218	646.142
386.102	27.354	810.791	645.669
387.117	27.044	810.203	644.044
388.132	26.834	809.774	642.901
389.146	26.765	809.316	642.237
390.161	26.240	808.487	639.664
391.175	26.337	807.701	639.326
392.190	26.931	807.928	641.549
393.205	26.924	807.109	640.817
394.219	26.014	805.425	636.215
395.234	24.341	802.880	628.261
396.248	23.461	802.039	624.450
397.263	24.648	802.919	629.264
398.278	26.540	804.414	637.044
399.292	26.854	804.499	638.160
400.307	26.521	803.694	636.295
401.321	26.522	803.259	635.898
402.336	26.581	802.883	635.750
403.350	26.841	802.689	636.454
404.365	27.263	802.790	637.960
405.380	27.761	802.257	639.223
406.394	28.027	802.324	640.153
407.409	28.106	802.136	640.221
408.423	27.947	801.627	639.201
409.438	27.804	801.108	638.233
410.453	27.986	800.275	638.149
411.467	27.941	799.878	637.617
412.482	28.061	799.284	637.508
413.496	28.092	798.614	637.023
414.511	28.056	798.614	636.841
415.526	28.038	798.075	636.293
416.540	28.185	797.429	636.233
417.555	27.999	797.199	635.345
418.569	27.727	796.297	633.626
419.584	27.692	795.639	632.927
420.599	27.681	795.469	632.695
421.613	110.695	1285.949	1461.117
422.628	95.332	1357.415	1461.261
