DTS Sentinel unit serial number:	SN413079Multiplexer serial number:	ORYXHardware model number:	OX4-SRSoftware version number:	ORYX F/W v4.00 Oryx Data Collector v3.7.2.0data status	okinstallation	princeton_trtdifferential loss correction	single-endedforward channel	channel 3reverse channel	N/Adate	2019/09/12time	00:18:11forward acquisition time	60.00reverse acquisition time	0.00gamma	496.2192k internal	0.2318k external	0.2318temperature offset calibration	1.0060default loss term (dB/km)	0.3790temperature slope calibration	1.0000multiplexer offset coefficient	1.0000multiplexer slope coefficient	1.0000fibre end	0.00T internal ref (°C)	33.55T ext. ref 1 (°C)	2.03T ext. ref 2 (°C)	27.85length (m)	temperature (°C)	Stokes	anti-Stokes-747.200	342.316	0.056	-0.112
-746.185	-29.515	-0.331	0.191
-745.171	-200.000	0.050	0.504
-744.156	71.381	0.144	0.152
-743.142	-105.026	0.079	-0.018
-742.127	800.000	-0.105	0.395
-741.112	-61.174	0.091	-0.039
-740.098	-145.838	-0.125	-0.011
-739.083	-48.698	0.072	0.035
-738.069	425.767	-0.042	0.091
-737.054	57.357	-0.050	-0.050
-736.039	-78.919	-0.396	0.136
-735.025	-200.000	-0.026	0.177
-734.010	-113.166	-0.082	0.016
-732.996	-111.920	-0.340	-0.069
-731.981	151.769	-0.203	0.281
-730.966	-122.370	0.194	-0.032
-729.952	-165.355	-0.217	0.010
-728.937	-64.286	0.176	0.073
-727.923	-125.507	-0.689	0.106
-726.908	-200.000	-0.049	0.230
-725.894	-197.740	-0.335	0.002
-724.879	97.403	0.109	0.126
-723.864	538.135	-0.163	0.393
-722.850	-200.000	0.033	-0.254
-721.835	-14.721	0.125	-0.081
-720.821	-122.091	0.090	0.015
-719.806	23.727	0.160	-0.133
-718.791	-118.819	0.253	-0.045
-717.777	-71.795	-0.208	-0.078
-716.762	-78.433	-0.486	0.168
-715.748	-124.884	-0.338	0.053
-714.733	612.572	-0.085	-0.216
-713.718	245.962	0.028	0.047
-712.704	-200.000	-0.017	-0.101
-711.689	569.327	-0.031	-0.076
-710.675	-8.374	0.213	0.144
-709.660	-64.456	-0.264	-0.109
-708.645	281.365	-0.042	-0.076
-707.631	800.000	-0.061	-0.243
-706.616	173.898	0.137	0.199
-705.602	800.000	-0.094	-0.339
-704.587	-200.000	0.050	0.274
-703.572	800.000	-0.075	0.226
-702.558	800.000	0.024	0.074
-701.543	-50.609	0.185	-0.088
-700.529	-59.163	0.067	-0.029
-699.514	-191.610	0.311	-0.003
-698.499	-175.672	0.442	0.012
-697.485	-64.578	0.339	0.139
-696.470	-2.132	0.117	-0.083
-695.456	26.732	0.095	0.081
-694.441	46.178	0.302	0.283
-693.426	-125.422	-0.347	-0.053
-692.412	-106.245	-0.256	0.058
-691.397	98.802	0.039	0.046
-690.383	-114.313	0.242	0.047
-689.368	-100.312	0.209	0.052
-688.354	-62.172	0.137	-0.058
-687.339	-1.078	-0.392	-0.280
-686.324	-32.470	0.293	-0.165
-685.310	346.034	-0.055	0.109
-684.295	-192.690	-0.252	-0.002
-683.281	16.397	0.133	-0.106
-682.266	-135.263	-0.218	-0.026
-681.251	-62.264	-0.334	0.140
-680.237	7.663	-0.112	0.085
-679.222	57.629	-0.263	0.259
-678.208	-200.000	-0.019	0.158
-677.193	9.033	-0.064	0.049
-676.178	-71.753	0.389	0.146
-675.164	70.249	0.189	-0.197
-674.149	-200.000	-0.031	0.231
-673.135	458.369	-0.152	-0.342
-672.120	375.996	-0.153	-0.316
-671.105	-105.107	0.344	-0.079
-670.091	374.096	0.147	-0.301
-669.076	67.916	-0.133	0.137
-668.062	800.000	0.063	-0.263
-667.047	64.994	-0.100	-0.102
-666.032	-37.103	-0.202	-0.109
-665.018	-107.593	0.104	-0.023
-664.003	105.226	0.066	-0.078
-662.989	162.199	0.084	-0.119
-661.974	57.511	-0.183	0.180
-660.959	800.000	-0.023	-0.098
-659.945	-85.101	0.216	0.068
-658.930	-87.214	-0.224	-0.069
-657.916	-49.259	0.413	-0.199
-656.901	-200.000	-0.008	-0.153
-655.886	303.449	0.006	0.011
-654.872	243.818	-0.049	-0.083
-653.857	-200.000	-0.027	-0.250
-652.843	-200.000	-0.003	0.103
-651.828	-105.100	-0.224	0.052
-650.814	-200.000	0.314	0.000
-649.799	420.092	0.119	-0.258
-648.784	111.463	-0.062	-0.076
-647.770	29.075	0.013	0.011
-646.755	-72.430	0.195	0.073
-645.741	-94.577	-0.234	-0.064
-644.726	-87.804	-0.295	-0.090
-643.711	-120.062	0.437	-0.075
-642.697	800.000	0.035	-0.136
-641.682	217.777	-0.095	0.153
-640.668	-200.000	0.023	0.349
-639.653	122.593	-0.233	-0.293
-638.638	-62.201	0.078	-0.033
-637.624	149.967	0.184	-0.252
-636.609	-129.363	-0.461	-0.065
-635.595	-122.208	-0.272	-0.045
-634.580	-18.155	-0.387	-0.244
-633.565	800.000	-0.116	-0.465
-632.551	-95.730	0.155	0.042
-631.536	-6.479	0.188	0.129
-630.522	69.373	0.142	-0.147
-629.507	-7.514	0.164	-0.112
-628.492	83.082	-0.194	0.212
-627.478	-67.853	0.254	0.100
-626.463	-102.418	0.143	-0.034
-625.449	333.634	0.098	0.190
-624.434	-200.000	-0.002	-0.144
-623.419	431.883	-0.059	-0.129
-622.405	-17.352	-0.036	0.023
-621.390	240.233	0.134	-0.224
-620.376	-200.000	-0.023	0.143
-619.361	800.000	-0.101	-0.352
-618.346	-200.000	0.039	-0.236
-617.332	450.182	0.018	-0.041
-616.317	-200.000	-0.003	-0.030
-615.303	-139.785	-0.243	0.026
-614.288	-139.178	-0.283	-0.031
-613.273	-101.869	-0.175	-0.043
-612.259	-200.000	0.008	0.071
-611.244	5.961	-0.214	-0.160
-610.230	568.451	0.032	-0.078
-609.215	446.635	-0.085	-0.189
-608.201	-170.565	0.420	-0.015
-607.186	-12.621	0.250	0.164
-606.171	-58.253	-0.218	-0.096
-605.157	15.172	0.277	0.219
-604.142	458.929	0.187	-0.418
-603.128	195.822	0.075	-0.115
-602.113	-50.086	-0.372	0.177
-601.098	800.000	0.012	-0.052
-600.084	52.145	-0.099	0.095
-599.069	338.630	0.150	0.294
-598.055	673.168	0.055	-0.144
-597.040	-130.690	0.129	0.018
-596.025	787.469	-0.102	-0.281
-595.011	-101.999	0.303	0.074
-593.996	128.871	0.158	-0.203
-592.982	513.059	-0.135	0.316
-591.967	170.475	0.135	0.195
-590.952	-74.750	0.142	0.051
-589.938	800.000	0.078	0.232
-588.923	193.279	-0.066	-0.100
-587.909	-1.677	0.049	-0.035
-586.894	-163.422	0.146	0.007
-585.879	-200.000	-0.011	0.438
-584.865	-75.682	-0.174	0.062
-583.850	39.464	-0.105	-0.095
-582.836	39.116	-0.174	-0.157
-581.821	119.018	0.242	0.301
-580.806	138.786	-0.098	-0.129
-579.792	-25.788	0.054	0.032
-578.777	-86.641	0.153	0.047
-577.763	-166.792	0.286	0.012
-576.748	407.103	-0.142	0.303
-575.733	236.067	0.059	-0.098
-574.719	-200.000	-0.042	-0.549
-573.704	181.265	-0.128	0.189
-572.690	37.003	-0.025	0.022
-571.675	5.975	0.282	-0.210
-570.661	-27.777	0.232	0.135
-569.646	-178.705	0.052	-0.001
-568.631	800.000	-0.059	-0.181
-567.617	-75.582	0.119	0.043
-566.602	-168.550	-0.336	-0.013
-565.588	258.865	0.018	-0.031
-564.573	-200.000	-0.003	0.220
-563.558	490.194	0.027	0.063
-562.544	215.282	-0.227	0.362
-561.529	-148.755	0.311	0.025
-560.515	-80.385	0.249	-0.084
-559.500	-92.723	-0.427	0.120
-558.485	-167.528	-0.528	-0.021
-557.471	314.939	0.051	-0.096
-556.456	800.000	-0.072	-0.224
-555.442	-200.000	-0.034	0.164
-554.427	-99.008	-0.218	0.056
-553.412	-200.000	-0.015	-0.288
-552.398	-140.780	-0.154	-0.016
-551.383	-34.994	-0.212	-0.116
-550.369	287.811	0.114	-0.207
-549.354	68.521	0.154	0.158
-548.339	-200.000	0.003	0.133
-547.325	800.000	-0.069	-0.247
-546.310	-138.312	0.016	0.002
-545.296	360.464	0.144	-0.289
-544.281	657.862	0.141	-0.363
-543.266	8.165	0.064	-0.049
-542.252	-128.810	-0.163	0.023
-541.237	-55.805	0.188	-0.085
-540.223	-16.603	-0.411	0.261
-539.208	259.096	0.092	-0.159
-538.193	42.432	0.276	0.252
-537.179	-114.929	-0.253	0.048
-536.164	-55.407	-0.300	0.135
-535.150	-54.130	0.596	0.272
-534.135	235.724	0.089	-0.148
-533.121	-26.230	0.207	0.122
-532.106	-96.135	-0.134	0.036
-531.091	39.531	0.172	-0.155
-530.077	315.998	0.106	-0.200
-529.062	6.411	-0.197	-0.147
-528.048	104.622	0.063	-0.075
-527.033	117.688	0.146	0.180
-526.018	-88.519	0.381	0.114
-525.004	-200.000	-0.026	-0.320
-523.989	-13.560	-0.320	-0.208
-522.975	800.000	-0.004	-0.012
-521.960	800.000	0.059	-0.168
-520.945	-5.678	0.127	0.087
-519.931	41.439	-0.157	0.143
-518.916	-39.976	0.028	0.015
-517.902	-117.036	-0.107	-0.020
-516.887	-158.738	0.153	-0.009
-515.872	-93.541	0.078	-0.022
-514.858	166.973	0.083	-0.119
-513.843	-82.905	-0.269	0.087
-512.829	66.697	0.089	-0.091
-511.814	-200.000	0.006	0.033
-510.799	-100.788	0.234	0.058
-509.785	89.469	0.091	-0.102
-508.770	-38.587	-0.150	-0.079
-507.756	177.800	0.076	-0.111
-506.741	10.842	0.224	0.171
-505.726	320.286	0.113	0.215
-504.712	228.778	-0.067	0.109
-503.697	-185.149	-0.144	0.002
-502.683	119.029	0.239	-0.296
-501.668	800.000	0.097	0.300
-500.653	490.891	0.185	0.426
-499.639	800.000	0.064	0.196
-498.624	800.000	-0.067	-0.270
-497.610	-50.649	0.103	0.049
-496.595	-94.176	-0.288	-0.079
-495.581	64.960	-0.089	0.090
-494.566	152.292	-0.118	-0.162
-493.551	-200.000	0.033	-0.166
-492.537	97.266	0.216	0.249
-491.522	326.033	0.039	-0.075
-490.508	41.095	-0.081	-0.074
-489.493	10.636	-0.130	-0.099
-488.478	12.360	0.137	-0.106
-487.464	-82.759	-0.274	-0.089
-486.449	186.294	-0.107	-0.159
-485.435	-38.076	0.141	0.075
-484.420	795.470	-0.088	-0.242
-483.405	-48.815	0.159	-0.076
-482.391	56.469	-0.093	0.091
-481.376	-166.623	-0.181	-0.008
-480.362	533.067	-0.138	0.328
-479.347	-200.000	-0.010	-0.052
-478.332	-74.104	-0.286	0.104
-477.318	301.220	-0.167	0.310
-476.303	668.125	-0.131	0.340
-475.289	800.000	0.055	0.155
-474.274	-107.687	0.330	-0.072
-473.259	-112.161	0.292	-0.059
-472.245	477.836	-0.097	-0.219
-471.230	-112.155	-0.177	0.036
-470.216	60.685	-0.098	-0.097
-469.201	800.000	0.018	0.080
-468.186	800.000	-0.041	-0.116
-467.172	-200.000	-0.017	-0.279
-466.157	800.000	-0.118	-0.382
-465.143	-69.120	0.187	0.072
-464.128	800.000	-0.108	-0.369
-463.113	149.000	-0.200	0.270
-462.099	195.648	-0.070	-0.107
-461.084	373.777	0.111	-0.227
-460.070	105.680	-0.150	0.178
-459.055	4.688	-0.398	0.293
-458.040	24.414	-0.252	0.209
-457.026	504.381	-0.200	0.464
-456.011	672.483	-0.047	-0.121
-454.997	163.133	-0.141	-0.199
-453.982	45.676	0.167	-0.154
-452.968	800.000	0.071	0.298
-451.953	-101.190	0.255	-0.062
-450.938	-68.315	-0.050	-0.020
-449.924	235.305	-0.085	0.140
-448.909	106.115	-0.170	0.201
-447.895	800.000	-0.098	-0.328
-446.880	14.838	0.137	-0.107
-445.865	288.161	0.107	0.194
-444.851	131.750	-0.250	0.322
-443.836	246.546	-0.195	0.329
-442.822	-53.797	0.159	-0.072
-441.807	128.811	-0.141	-0.179
-440.792	-200.000	0.036	0.177
-439.778	-80.807	0.248	0.082
-438.763	42.582	0.299	-0.272
-437.749	-200.000	0.052	-0.242
-436.734	-44.443	-0.275	-0.138
-435.719	142.218	0.133	0.176
-434.705	137.794	0.167	0.219
-433.690	-31.826	-0.164	-0.092
-432.676	-200.000	0.007	0.324
-431.661	-200.000	0.046	0.250
-430.646	-105.961	-0.173	0.039
-429.632	-47.818	-0.222	-0.107
-428.617	25.583	0.255	0.212
-427.603	87.835	-0.170	-0.189
-426.588	-128.950	0.275	0.039
-425.573	-98.919	-0.023	0.006
-424.559	281.329	-0.129	0.230
-423.544	562.692	0.062	0.151
-422.530	-93.721	0.056	0.015
-421.515	221.479	-0.058	-0.093
-420.500	-111.537	-0.169	0.034
-419.486	-65.868	-0.159	0.064
-418.471	31.222	-0.273	-0.234
-417.457	-200.000	0.058	0.344
-416.442	56.329	0.066	0.064
-415.428	165.762	-0.158	-0.223
-414.413	-200.000	-0.056	0.368
-413.398	-200.000	-0.002	-0.012
-412.384	-140.428	-0.214	0.022
-411.369	-200.000	-0.021	-0.171
-410.355	45.076	0.030	-0.028
-409.340	800.000	-0.085	-0.297
-408.325	215.865	0.132	0.209
-407.311	-159.298	-0.174	0.010
-406.296	156.899	-0.156	-0.216
-405.282	-93.128	0.283	0.079
-404.267	68.215	0.066	0.067
-403.252	256.511	-0.191	-0.327
-402.238	800.000	-0.046	0.173
-401.223	-200.000	0.001	-0.023
-400.209	800.000	-0.020	0.067
-399.194	31.779	0.357	0.307
-398.179	-135.684	-0.231	-0.027
-397.165	800.000	-0.062	-0.201
-396.150	-10.184	0.089	-0.059
-395.136	38.805	-0.235	-0.210
-394.121	571.880	0.090	-0.219
-393.106	33.225	0.188	0.163
-392.092	-95.945	0.352	-0.094
-391.077	294.632	-0.159	0.290
-390.063	-77.450	-0.198	-0.068
-389.048	-27.030	0.202	-0.118
-388.033	-19.921	0.140	0.086
-387.019	536.097	-0.101	-0.240
-386.004	-97.535	-0.182	-0.047
-384.990	-200.000	-0.003	-0.193
-383.975	800.000	-0.107	-0.409
-382.960	-161.798	0.257	0.013
-381.946	-57.446	0.054	0.023
-380.931	800.000	0.018	-0.051
-379.917	-80.294	0.043	-0.015
-378.902	716.112	-0.020	0.052
-377.888	-200.000	-0.031	0.166
-376.873	-7.097	-0.143	-0.097
-375.858	498.346	-0.059	-0.136
-374.844	630.951	-0.096	0.242
-373.829	360.235	-0.091	-0.183
-372.815	-173.682	-0.149	0.004
-371.800	179.973	0.144	-0.210
-370.785	-99.457	-0.116	0.029
-369.771	64.814	0.151	-0.152
-368.756	276.588	0.116	0.205
-367.742	-200.000	0.035	-0.190
-366.727	79.427	0.226	0.242
-365.712	-17.836	0.061	0.038
-364.698	0.537	-0.264	-0.189
-363.683	17.991	0.124	0.099
-362.669	800.000	-0.029	0.102
-361.654	-21.632	0.217	0.132
-360.639	98.650	0.183	-0.211
-359.625	-200.000	0.015	0.285
-358.610	800.000	-0.057	0.217
-357.596	-121.167	0.076	-0.013
-356.581	-68.396	-0.359	0.139
-355.566	134.665	0.282	-0.364
-354.552	56.305	0.168	-0.163
-353.537	-200.000	-0.002	-0.065
-352.523	-200.000	0.069	0.412
-351.508	-200.000	-0.042	0.246
-350.493	-56.325	0.118	0.052
-349.479	-110.011	0.056	0.012
-348.464	-16.336	-0.161	0.102
-347.450	-106.919	0.421	0.093
-346.435	119.461	-0.039	-0.049
-345.420	-4.445	-0.364	0.251
-344.406	800.000	0.074	-0.232
-343.391	-47.936	-0.242	0.117
-342.377	92.822	0.163	0.183
-341.362	-89.894	0.265	0.077
-340.348	-74.855	0.145	0.052
-339.333	-93.015	-0.073	-0.020
-338.318	-200.000	-0.087	-0.558
-337.304	-90.391	-0.323	0.093
-336.289	57.634	-0.052	0.051
-335.275	-142.793	0.154	-0.015
-334.260	-7.374	0.260	-0.175
-333.245	-31.669	0.191	-0.107
-332.231	800.000	-0.096	-0.300
-331.216	760.370	-0.123	0.333
-330.202	599.443	0.108	0.267
-329.187	42.647	0.093	-0.084
-328.172	-59.523	0.113	0.048
-327.158	800.000	0.019	-0.062
-326.143	526.180	-0.163	0.382
-325.129	-56.311	0.255	0.113
-324.114	-5.835	0.158	-0.108
-323.099	52.412	-0.044	0.041
-322.085	-104.073	-0.089	0.021
-321.070	311.288	-0.097	0.181
-320.056	-5.515	0.298	-0.204
-319.041	156.423	-0.079	-0.108
-318.026	363.910	-0.163	0.326
-317.012	-200.000	-0.072	-0.325
-315.997	277.871	-0.192	-0.340
-314.983	-200.000	0.010	-0.137
-313.968	50.949	0.130	0.123
-312.953	-160.025	-0.063	0.003
-311.939	-113.577	-0.188	-0.036
-310.924	-91.259	0.279	-0.080
-309.910	-200.000	0.017	0.099
-308.895	95.971	0.165	0.188
-307.880	-200.000	0.043	0.342
-306.866	-75.217	-0.038	0.013
-305.851	-152.862	-0.295	-0.021
-304.837	-13.941	0.249	-0.160
-303.822	220.292	-0.185	0.294
-302.807	276.369	-0.181	-0.319
-301.793	-200.000	-0.084	0.409
-300.778	104.083	0.284	-0.332
-299.764	-200.000	-0.128	-0.584
-298.749	-47.668	-0.027	0.013
-297.735	53.538	0.116	0.111
-296.720	-91.705	0.175	-0.049
-295.705	-200.000	0.044	-0.228
-294.691	-200.000	0.057	0.274
-293.676	779.524	0.087	0.237
-292.662	800.000	0.048	-0.146
-291.647	383.609	0.074	0.151
-290.632	-53.471	0.361	-0.164
-289.618	-155.950	0.059	-0.004
-288.603	332.413	0.126	0.241
-287.589	476.208	-0.096	-0.216
-286.574	-33.193	-0.337	-0.185
-285.559	-194.879	-0.060	-0.000
-284.545	287.359	0.122	-0.220
-283.530	55.574	0.193	-0.186
-282.516	-53.870	0.240	0.109
-281.501	761.000	-0.080	-0.214
-280.486	-110.316	-0.122	-0.025
-279.472	-200.000	-0.068	0.609
-278.457	27.528	-0.048	-0.040
-277.443	332.422	0.072	-0.139
-276.428	-200.000	0.058	-0.471
-275.413	214.816	0.061	0.095
-274.399	72.631	0.027	-0.028
-273.384	104.726	0.054	0.063
-272.370	-33.273	-0.056	-0.031
-271.355	-35.977	0.052	0.028
-270.340	46.852	-0.064	-0.059
-269.326	800.000	0.046	-0.194
-268.311	68.924	0.233	0.238
-267.297	-67.566	-0.118	0.046
-266.282	240.114	0.134	0.221
-265.267	112.881	0.137	0.165
-264.253	-125.157	0.272	0.041
-263.238	44.853	-0.089	0.081
-262.224	-78.686	-0.290	-0.098
-261.209	-200.000	-0.027	-0.125
-260.195	30.575	-0.185	0.157
-259.180	800.000	0.065	-0.209
-258.165	-56.041	-0.190	0.084
-257.151	-94.491	0.368	0.100
-256.136	-75.165	0.095	0.034
-255.122	18.261	0.071	0.057
-254.107	3.003	0.156	0.112
-253.092	212.704	-0.204	0.320
-252.078	398.573	-0.066	-0.138
-251.063	-200.000	0.047	0.327
-250.049	138.394	-0.117	0.153
-249.034	98.920	-0.193	0.221
-248.019	152.288	-0.131	0.178
-247.005	-48.931	-0.115	-0.055
-245.990	-200.000	0.021	0.276
-244.976	181.900	-0.255	-0.372
-243.961	70.503	0.125	0.128
-242.946	41.117	0.159	-0.142
-241.932	158.015	0.061	-0.083
-240.917	393.529	-0.076	0.157
-239.903	-200.000	-0.005	-0.208
-238.888	-200.000	0.009	-0.158
-237.873	60.865	0.158	0.155
-236.859	314.170	0.093	0.173
-235.844	92.051	-0.060	0.067
-234.830	45.407	-0.186	-0.171
-233.815	-200.000	-0.008	-0.185
-232.800	-22.893	0.325	-0.194
-231.786	-200.000	-0.008	-0.379
-230.771	16.027	-0.067	-0.053
-229.757	19.570	-0.172	-0.137
-228.742	-200.000	-0.056	-0.324
-227.727	299.796	0.031	0.057
-226.713	98.017	-0.066	-0.075
-225.698	-200.000	-0.055	-0.270
-224.684	154.368	0.110	-0.149
-223.669	64.068	-0.129	-0.129
-222.655	-0.251	-0.228	0.160
-221.640	-200.000	0.078	0.342
-220.625	-200.000	0.043	0.298
-219.611	123.771	0.097	-0.121
-218.596	72.381	0.187	0.193
-217.582	800.000	-0.031	0.104
-216.567	-106.017	-0.148	-0.033
-215.552	329.878	0.093	0.178
-214.538	187.009	0.200	0.296
-213.523	8.600	0.302	0.225
-212.509	-21.858	-0.094	-0.057
-211.494	-200.000	0.023	-0.324
-210.479	131.355	0.221	0.281
-209.465	-200.000	-0.014	-0.196
-208.450	800.000	0.059	0.198
-207.436	326.509	-0.084	0.159
-206.421	-200.000	0.011	0.116
-205.406	-6.976	0.351	0.236
-204.392	800.000	0.064	0.228
-203.377	800.000	-0.040	0.154
-202.363	800.000	0.056	-0.157
-201.348	-72.399	-0.142	0.052
-200.333	-200.000	-0.055	0.433
-199.319	-44.468	0.147	-0.073
-198.304	372.396	-0.195	0.393
-197.290	343.945	-0.155	-0.300
-196.275	245.454	-0.047	-0.079
-195.260	-200.000	-0.016	-0.093
-194.246	94.084	0.068	0.077
-193.231	166.478	0.207	0.291
-192.217	-0.431	-0.096	0.067
-191.202	-200.000	-0.042	-0.233
-190.187	-41.895	-0.253	-0.129
-189.173	-115.253	-0.215	-0.040
-188.158	-200.000	0.020	-0.193
-187.144	260.108	-0.054	0.092
-186.129	377.601	0.089	-0.181
-185.114	237.722	-0.058	-0.095
-184.100	-170.966	0.333	0.011
-183.085	-159.573	0.148	-0.008
-182.071	-200.000	0.014	0.106
-181.056	446.151	-0.047	-0.103
-180.042	-200.000	0.003	0.205
-179.027	-200.000	-0.025	0.129
-178.012	117.168	0.199	-0.242
-176.998	-38.577	0.243	0.127
-175.983	-106.053	-0.296	0.066
-174.969	-97.170	-0.122	-0.032
-173.954	190.814	0.062	0.092
-172.939	-153.988	0.205	0.014
-171.925	-81.363	-0.171	-0.056
-170.910	23.065	0.060	-0.049
-169.896	-89.976	0.420	-0.121
-168.881	-146.388	0.130	-0.011
-167.866	-200.000	0.001	0.170
-166.852	-46.416	-0.308	0.150
-165.837	473.572	0.059	-0.133
-164.823	-200.000	-0.015	-0.127
-163.808	-45.252	-0.115	0.056
-162.793	-197.651	-0.372	0.002
-161.779	-200.000	0.027	0.155
-160.764	476.590	-0.067	0.151
-159.750	-87.194	-0.374	-0.113
-158.735	-11.374	-0.058	0.038
-157.720	-103.477	-0.179	-0.042
-156.706	88.072	0.128	-0.140
-155.691	-122.930	-0.049	-0.008
-154.677	-86.281	-0.389	-0.118
-153.662	34.020	-0.099	0.085
-152.647	-98.521	-0.200	0.051
-151.633	-200.000	-0.016	-0.134
-150.618	-122.269	0.070	-0.011
-149.604	443.898	-0.132	0.287
-148.589	11.601	-0.028	-0.021
-147.574	-7.811	0.191	-0.127
-146.560	-166.196	0.215	-0.009
-145.545	16.576	0.293	0.229
-144.531	-200.000	-0.066	0.323
-143.516	-101.458	0.204	0.049
-142.502	133.590	0.102	0.131
-141.487	-122.494	0.318	-0.051
-140.472	18.895	-0.091	-0.072
-139.458	68.726	-0.090	0.091
-138.443	-76.702	0.433	-0.150
-137.429	-200.000	-0.014	0.115
-136.414	172.565	0.139	0.198
-135.399	-200.000	0.016	-0.235
-134.385	27.790	0.156	0.130
-133.370	-200.000	-0.003	0.019
-132.356	-38.708	-0.337	-0.176
-131.341	694.889	-0.055	0.142
-130.326	-183.849	-0.206	0.003
-129.312	48.215	0.172	-0.159
-128.297	66.376	0.065	-0.065
-127.283	-194.844	-0.157	-0.001
-126.268	610.659	-0.062	-0.153
-125.253	-200.000	0.013	-0.349
-124.239	-32.195	0.230	0.127
-123.224	-9.242	0.211	-0.139
-122.210	30.469	0.441	0.372
-121.195	62.099	0.057	-0.056
-120.180	-27.481	-0.124	0.071
-119.166	-172.619	0.449	-0.014
-118.151	473.469	-0.135	0.300
-117.137	111.981	-0.223	0.266
-116.122	-200.000	0.017	0.094
-115.107	-109.076	0.231	0.048
-114.093	43.943	0.120	0.108
-113.078	-103.141	-0.339	0.079
-112.064	532.264	0.047	0.110
-111.049	-200.000	-0.046	0.320
-110.034	-200.000	0.066	0.350
-109.020	7.660	-0.215	0.159
-108.005	667.814	-0.052	0.132
-106.991	-109.975	0.370	0.077
-105.976	-200.000	-0.001	0.052
-104.962	140.683	0.089	-0.116
-103.947	193.332	0.121	-0.180
-102.932	800.000	0.169	0.515
-101.918	86.825	0.030	0.033
-100.903	186.808	0.183	-0.269
-99.889	-4.353	0.191	0.130
-98.874	24.328	0.092	0.075
-97.859	-126.318	0.074	0.011
-96.845	800.000	0.038	0.157
-95.830	194.915	0.189	0.283
-94.816	-40.533	0.562	0.288
-93.801	-200.000	0.018	0.194
-92.786	-126.967	-0.284	-0.041
-91.772	-200.000	0.062	0.346
-90.757	-105.416	-0.066	0.015
-89.743	-113.658	0.184	-0.035
-88.728	20.724	0.254	0.203
-87.713	-200.000	-0.040	0.242
-86.699	-81.334	0.184	0.060
-85.684	114.024	-0.195	0.234
-84.670	-1.942	-0.098	-0.068
-83.655	13.390	-0.121	0.092
-82.640	-200.000	-0.006	0.033
-81.626	31.121	0.149	-0.126
-80.611	-11.239	-0.088	-0.057
-79.597	-200.000	0.049	-0.411
-78.582	-22.844	-0.229	-0.136
-77.567	47.891	0.101	0.093
-76.553	800.000	-0.064	-0.184
-75.538	800.000	-0.018	0.059
-74.524	-174.893	-0.204	-0.006
-73.509	190.021	0.134	-0.199
-72.494	-178.821	-0.369	0.008
-71.480	611.332	-0.072	0.177
-70.465	-43.880	-0.145	-0.072
-69.451	24.432	-0.372	-0.303
-68.436	-131.392	0.277	0.036
-67.422	-200.000	-0.005	-0.212
-66.407	432.291	-0.178	0.380
-65.392	8.684	0.468	-0.347
-64.378	-101.357	0.347	0.083
-63.363	-115.185	0.271	0.051
-62.349	-95.982	0.401	0.105
-61.334	63.873	-0.744	-0.737
-60.319	4.796	0.517	0.374
-59.305	-200.000	0.124	-0.713
-58.290	443.493	0.599	1.294
-57.276	800.000	0.519	1.681
-56.261	-200.000	96.486	576.442
-55.246	541.942	1386.383	3255.666
-54.232	156.547	2573.248	3500.146
-53.217	110.517	2169.340	2568.886
-52.203	43.694	1709.790	1541.274
-51.188	36.766	1522.842	1325.472
-50.173	34.393	1496.447	1286.453
-49.159	53.637	1545.285	1460.793
-48.144	55.403	1563.662	1490.220
-47.130	36.905	1521.854	1325.351
-46.115	33.840	1506.748	1291.342
-45.100	33.632	1503.689	1287.256
-44.086	33.633	1501.668	1285.483
-43.071	33.497	1500.391	1283.419
-42.057	33.404	1499.059	1281.602
-41.042	33.626	1497.206	1281.463
-40.027	33.628	1495.823	1280.242
-39.013	33.526	1494.289	1278.189
-37.998	33.531	1492.972	1277.045
-36.984	33.505	1492.476	1276.397
-35.969	33.511	1490.755	1274.914
-34.954	33.530	1489.080	1273.561
-33.940	33.537	1487.918	1272.564
-32.925	33.585	1486.636	1271.734
-31.911	33.562	1485.266	1270.364
-30.896	33.595	1483.890	1269.358
-29.881	33.634	1482.875	1268.694
-28.867	33.589	1481.191	1266.908
-27.852	33.590	1479.495	1265.411
-26.838	33.597	1478.489	1264.548
-25.823	33.599	1476.935	1263.180
-24.809	33.554	1475.313	1261.444
-23.794	33.553	1473.941	1260.216
-22.779	33.554	1472.803	1259.199
-21.765	33.574	1471.196	1257.905
-20.750	33.646	1469.919	1257.240
-19.736	33.594	1469.436	1256.434
-18.721	33.657	1467.790	1255.397
-17.706	33.567	1466.992	1254.065
-16.692	33.488	1466.394	1252.984
-15.677	33.510	1465.435	1252.257
-14.663	33.559	1463.918	1251.237
-13.648	33.430	1464.023	1250.428
-12.633	33.590	1462.082	1249.770
-11.619	33.455	1461.811	1248.599
-10.604	33.500	1460.635	1247.844
-9.590	33.493	1459.797	1247.031
-8.575	33.552	1458.248	1246.048
-7.560	33.510	1458.017	1245.523
-6.546	33.580	1457.216	1245.249
-5.531	33.576	1456.067	1244.192
-4.517	33.516	1455.156	1242.970
-3.502	33.516	1454.347	1242.233
-2.487	33.456	1453.233	1240.835
-1.473	33.481	1452.344	1240.192
-0.458	33.488	1451.275	1239.279
0.556	33.909	1441.718	1228.299
1.571	31.047	1416.915	1188.846
2.586	27.934	1361.288	1122.969
3.600	26.300	1282.624	1048.513
4.615	25.112	1235.182	1002.999
5.629	21.548	1178.074	937.490
6.644	11.478	1090.252	817.354
7.659	3.370	1047.243	745.915
8.673	2.254	1041.111	736.113
9.688	2.058	1038.179	733.031
10.702	1.820	1036.606	730.717
11.717	1.988	1034.359	729.871
12.731	5.729	1039.317	751.259
13.746	15.804	1053.840	810.442
14.761	23.224	1063.527	853.751
15.775	24.927	1064.222	862.444
16.790	25.212	1063.908	863.485
17.804	24.940	1063.064	861.413
18.819	24.796	1062.799	860.430
19.834	25.056	1061.408	860.475
20.848	25.031	1061.509	860.361
21.863	25.205	1061.304	860.957
22.877	25.160	1060.589	860.082
23.892	25.113	1060.207	859.472
24.907	25.024	1059.118	858.088
25.921	25.033	1058.285	857.379
26.936	25.003	1057.764	856.739
27.950	24.966	1056.564	855.511
28.965	24.963	1055.355	854.446
29.980	24.834	1054.167	852.794
30.994	24.886	1052.545	851.653
32.009	24.993	1052.189	851.796
33.023	25.212	1051.767	852.421
34.038	24.940	1050.241	849.819
35.053	24.898	1049.605	849.031
36.067	24.966	1049.077	848.851
37.082	25.090	1048.294	848.730
38.096	25.139	1047.778	848.465
39.111	25.231	1046.857	848.081
40.126	25.338	1046.298	848.057
41.140	25.362	1044.733	846.828
42.155	25.109	1042.753	843.958
43.169	24.716	1041.824	841.283
44.184	24.705	1040.808	840.334
45.199	24.755	1040.018	839.856
46.213	24.714	1038.887	838.677
47.228	24.688	1038.215	837.942
48.242	24.853	1037.456	838.027
49.257	24.869	1037.227	837.840
50.271	24.934	1036.156	837.204
51.286	25.180	1035.076	837.410
52.301	25.309	1034.496	837.468
53.315	25.083	1034.528	836.366
54.330	25.229	1033.134	835.844
55.344	25.026	1032.489	834.303
56.359	24.907	1031.921	833.217
57.374	25.020	1031.097	833.003
58.388	24.906	1030.061	831.563
59.403	24.764	1029.259	830.183
60.417	24.738	1028.391	829.288
61.432	24.620	1027.636	828.059
62.447	24.589	1026.960	827.300
63.461	24.696	1026.639	827.461
64.476	24.960	1025.436	827.638
65.490	24.911	1024.624	826.683
66.505	24.707	1023.930	825.109
67.520	24.654	1023.006	824.047
68.534	24.827	1022.735	824.552
69.549	24.678	1021.679	822.943
70.563	24.405	1020.110	820.354
71.578	24.324	1019.425	819.357
72.593	24.260	1019.148	818.768
73.607	24.161	1017.617	817.008
74.622	24.217	1016.693	816.454
75.636	24.535	1016.057	817.325
76.651	24.601	1015.530	817.130
77.666	24.657	1014.292	816.318
78.680	24.469	1013.580	814.817
79.695	24.462	1013.173	814.386
80.709	24.499	1012.794	814.177
81.724	24.642	1012.062	814.167
82.739	24.612	1010.932	813.050
83.753	24.629	1010.360	812.593
84.768	24.901	1009.660	813.193
85.782	25.242	1009.368	814.438
86.797	25.318	1008.646	814.128
87.812	25.376	1007.308	813.237
88.826	25.233	1006.528	811.890
89.841	25.363	1005.408	811.499
90.855	25.339	1005.117	811.087
91.870	25.298	1004.222	810.106
92.884	25.442	1003.295	809.935
93.899	25.394	1002.250	808.805
94.914	25.098	1001.708	806.964
95.928	25.158	1001.116	806.686
96.943	25.287	1000.307	806.542
97.957	25.026	998.930	804.191
98.972	24.693	997.649	801.593
99.987	24.500	997.380	800.443
101.001	24.596	996.411	800.024
102.016	24.874	996.048	800.906
103.030	25.019	994.969	800.615
104.045	24.784	994.149	798.833
105.060	24.874	992.575	797.901
106.074	24.694	991.524	796.185
107.089	24.728	991.019	795.859
108.103	24.913	990.966	796.571
109.118	25.058	990.185	796.516
110.133	24.803	988.485	793.945
111.147	24.710	988.050	793.112
112.162	24.553	986.654	791.228
113.176	24.395	985.964	789.906
114.191	24.550	985.078	789.811
115.206	24.656	984.154	789.470
116.220	24.354	983.339	787.411
117.235	24.204	982.203	785.770
118.249	24.347	981.624	785.868
119.264	24.484	980.825	785.761
120.279	24.370	980.005	784.533
121.293	24.386	979.191	783.884
122.308	24.467	978.493	783.613
123.322	24.404	977.949	782.828
124.337	24.395	976.855	781.844
125.352	24.322	975.331	780.235
126.366	24.013	973.546	777.391
127.381	23.619	972.534	774.794
128.395	24.295	971.883	777.155
129.410	24.887	972.243	779.954
130.424	24.908	971.700	779.541
131.439	25.032	970.477	779.030
132.454	24.809	969.873	777.505
133.468	24.957	968.603	777.061
134.483	24.904	967.590	775.951
135.497	24.945	966.846	775.463
136.512	25.031	966.859	775.778
137.527	25.118	965.912	775.324
138.541	25.215	965.202	775.107
139.556	25.112	964.389	773.938
140.570	25.231	963.273	773.487
141.585	25.244	962.489	772.846
142.600	25.304	962.028	772.668
143.614	25.239	961.265	771.706
144.629	25.172	960.402	770.655
145.643	25.463	959.613	771.203
146.658	25.192	958.957	769.447
147.673	25.212	957.239	768.085
148.687	25.216	956.302	767.283
149.702	24.920	955.654	765.431
150.716	24.946	954.405	764.472
151.731	24.864	953.460	763.297
152.746	25.052	952.484	763.250
153.760	25.144	951.788	763.018
154.775	25.202	951.618	763.061
155.789	25.378	950.912	763.176
156.804	25.239	950.168	761.918
157.819	25.303	948.830	761.049
158.833	25.237	947.784	759.864
159.848	25.356	947.397	759.993
160.862	25.467	946.586	759.743
161.877	25.352	945.539	758.348
162.892	25.292	944.797	757.433
163.906	25.361	943.738	756.810
164.921	25.374	943.003	756.207
165.935	25.342	941.550	754.841
166.950	25.410	940.421	754.154
167.964	25.232	939.982	752.987
168.979	25.304	938.766	752.249
169.994	25.190	937.709	750.861
171.008	25.088	936.757	749.605
172.023	25.207	936.429	749.772
173.037	25.447	935.584	750.029
174.052	25.138	934.647	747.927
175.067	25.095	932.924	746.300
176.081	25.035	932.478	745.629
177.096	25.120	931.627	745.234
178.110	25.093	930.974	744.533
179.125	24.893	929.885	742.770
180.140	24.599	928.909	740.706
181.154	24.663	928.134	740.286
182.169	24.774	927.938	740.525
183.183	25.037	927.610	741.284
184.198	25.261	927.287	741.885
185.213	25.226	926.824	741.308
186.227	25.248	925.763	740.484
187.242	25.318	925.298	740.335
188.256	25.294	924.465	739.504
189.271	25.332	923.704	738.985
190.286	25.564	922.659	739.038
191.300	25.182	922.338	737.147
192.315	24.864	920.408	734.232
193.329	24.025	918.836	729.479
194.344	23.535	918.082	726.808
195.359	24.127	918.546	729.535
196.373	24.894	919.014	732.987
197.388	25.255	918.599	734.065
198.402	25.176	918.056	733.244
199.417	25.103	917.071	732.094
200.432	25.252	916.833	732.450
201.446	25.123	916.065	731.244
202.461	24.819	915.379	729.391
203.475	24.908	914.827	729.251
204.490	24.424	913.139	725.874
205.504	23.263	911.245	719.589
206.519	23.645	911.025	720.901
207.534	24.669	911.504	725.376
208.548	24.765	911.087	725.368
209.563	25.141	910.765	726.572
210.577	25.316	909.666	726.337
211.592	25.079	908.761	724.592
212.607	25.355	909.098	725.915
213.621	25.518	908.615	726.123
214.636	25.278	907.867	724.494
215.650	25.339	907.579	724.446
216.665	25.245	907.211	723.709
217.680	25.271	906.515	723.195
218.694	25.468	905.640	723.222
219.709	25.189	904.468	721.100
220.723	24.846	903.796	719.125
221.738	24.875	903.377	718.844
222.753	25.161	902.815	719.481
223.767	25.125	902.014	718.634
224.782	25.104	901.450	718.036
225.796	25.397	900.826	718.648
226.811	25.508	900.440	718.721
227.826	25.088	899.247	716.029
228.840	24.354	897.546	711.685
229.855	24.301	896.903	710.898
230.869	24.505	896.486	711.320
231.884	24.263	895.657	709.633
232.899	24.231	895.466	709.295
233.913	25.057	895.391	712.456
234.928	25.162	894.952	712.462
235.942	25.177	893.956	711.664
236.957	25.082	893.476	710.845
237.972	24.816	892.608	709.034
238.986	24.791	891.464	707.966
240.001	24.770	891.426	707.790
241.015	24.951	890.675	707.847
242.030	25.064	889.858	707.578
243.045	25.142	889.416	707.476
244.059	25.174	889.126	707.305
245.074	25.273	888.971	707.512
246.088	25.262	887.692	706.385
247.103	24.853	887.154	704.289
248.117	24.834	886.721	703.806
249.132	25.412	886.885	706.148
250.147	25.880	885.885	707.126
251.161	26.065	885.841	707.754
252.176	26.037	885.347	707.187
253.190	26.089	884.720	706.827
254.205	26.090	884.337	706.462
255.220	26.371	883.662	706.960
256.234	26.285	883.097	706.109
257.249	26.123	882.540	704.970
258.263	25.997	881.754	703.786
259.278	26.012	881.335	703.449
260.293	26.118	880.585	703.202
261.307	26.227	880.146	703.214
262.322	26.161	879.173	702.114
263.336	25.878	878.467	700.389
264.351	25.501	877.239	697.884
265.366	24.422	875.243	692.056
266.380	24.025	874.376	689.771
267.395	24.805	875.194	693.376
268.409	25.619	875.098	696.392
269.424	25.596	874.263	695.579
270.439	25.660	874.185	695.701
271.453	25.825	873.361	695.623
272.468	25.980	872.198	695.230
273.482	26.076	871.860	695.270
274.497	26.219	871.546	695.510
275.512	26.018	870.536	693.868
276.526	25.409	869.488	690.631
277.541	25.577	869.110	690.915
278.555	26.033	868.698	692.277
279.570	25.802	867.940	690.726
280.585	25.618	867.304	689.453
281.599	25.704	867.099	689.558
282.614	25.983	866.269	689.907
283.628	25.339	865.406	686.696
284.643	24.954	864.609	684.531
285.657	25.458	864.798	686.546
286.672	25.228	864.089	685.045
287.687	24.717	863.073	682.227
288.701	25.173	862.980	683.835
289.716	25.532	862.607	684.845
290.730	25.230	861.905	683.076
291.745	25.100	860.955	681.771
292.760	24.986	860.145	680.635
293.774	24.795	859.573	679.396
294.789	25.863	859.978	683.714
295.803	26.404	860.060	685.772
296.818	26.428	859.845	685.630
297.833	26.549	858.674	685.093
298.847	26.250	857.736	683.153
299.862	25.932	856.923	681.242
300.876	26.080	856.592	681.479
301.891	26.559	855.957	682.719
302.906	26.487	855.868	682.317
303.920	26.066	854.725	679.761
304.935	25.928	853.990	678.596
305.949	26.341	853.511	679.708
306.964	26.487	853.353	680.072
307.979	26.219	852.498	678.323
308.993	26.101	852.157	677.549
310.008	26.462	852.017	678.733
311.022	26.655	851.243	678.779
312.037	26.490	850.629	677.612
313.052	26.228	849.924	676.009
314.066	26.132	849.291	675.089
315.081	25.548	847.589	671.495
316.095	24.594	846.976	667.389
317.110	25.145	846.648	669.126
318.125	25.947	847.394	672.652
319.139	25.680	846.066	670.543
320.154	24.406	844.477	664.482
321.168	24.147	843.278	662.518
322.183	24.654	843.601	664.600
323.197	25.550	844.152	668.305
324.212	25.822	843.918	669.071
325.227	25.997	843.453	669.294
326.241	26.208	842.820	669.514
327.256	26.214	842.123	668.925
328.270	26.121	841.124	667.727
329.285	26.033	840.778	667.066
330.300	25.841	839.882	665.589
331.314	25.678	839.210	664.396
332.329	25.646	838.959	664.022
333.343	26.088	838.635	665.333
334.358	26.234	838.423	665.645
335.373	26.199	837.599	664.803
336.387	26.319	837.001	664.710
337.402	26.496	836.884	665.211
338.416	26.599	836.831	665.489
339.431	26.604	836.342	665.060
340.446	26.666	835.618	664.653
341.460	26.960	834.919	665.113
342.475	27.001	834.051	664.514
343.489	26.659	833.456	662.732
344.504	26.553	833.317	662.172
345.519	26.837	833.071	662.957
346.533	27.207	832.384	663.703
347.548	27.090	832.068	662.964
348.562	27.350	831.318	663.256
349.577	27.038	831.113	661.900
350.592	27.055	830.420	661.351
351.606	26.873	829.964	660.265
352.621	27.048	829.548	660.511
353.635	26.854	828.976	659.292
354.650	26.720	828.305	658.213
355.665	26.580	827.242	656.803
356.679	25.636	825.507	651.948
357.694	25.340	825.484	650.800
358.708	25.927	825.250	652.683
359.723	25.918	824.663	652.132
360.738	26.206	824.504	652.987
361.752	26.716	824.328	654.634
362.767	26.641	823.867	653.939
363.781	26.912	824.195	655.120
364.796	27.418	823.692	656.486
365.810	27.432	823.455	656.293
366.825	27.649	822.695	656.410
367.840	27.492	822.364	655.523
368.854	27.458	821.565	654.703
369.869	26.909	820.742	652.018
370.883	26.709	820.288	650.884
371.898	26.721	819.750	650.440
372.913	26.674	818.960	649.589
373.927	26.741	818.503	649.409
374.942	27.054	817.838	649.942
375.956	26.856	817.511	648.918
376.971	27.169	816.997	649.571
377.986	27.220	816.730	649.483
379.000	27.401	816.407	649.815
380.015	27.542	815.407	649.465
381.029	27.235	815.066	648.041
382.044	27.148	814.553	647.267
383.059	27.374	813.709	647.341
384.073	27.430	813.334	647.187
385.088	27.358	812.820	646.461
386.102	27.557	812.245	646.654
387.117	27.239	811.632	644.983
388.132	27.110	811.061	644.014
389.146	26.914	810.363	642.708
390.161	26.511	808.964	640.117
391.175	26.515	809.100	640.182
392.190	27.039	809.420	642.231
393.205	27.152	808.656	641.970
394.219	26.130	806.983	636.979
395.234	24.268	804.827	628.661
396.248	23.704	803.656	625.705
397.263	24.709	804.696	630.001
398.278	26.594	805.892	637.527
399.292	27.036	805.379	638.620
400.307	26.667	805.303	637.204
401.321	26.567	804.848	636.436
402.336	26.745	804.025	636.356
403.350	27.015	804.145	637.341
404.365	27.460	804.256	638.936
405.380	27.717	804.106	639.661
406.394	28.097	803.715	640.624
407.409	28.269	803.010	640.607
408.423	28.109	802.432	639.530
409.438	28.141	802.171	639.379
410.453	28.090	801.612	638.695
411.467	28.118	801.514	638.662
412.482	27.945	801.210	637.757
413.496	28.080	800.104	637.292
414.511	28.181	799.934	637.450
415.526	28.226	799.744	637.399
416.540	27.996	799.640	636.460
417.555	27.918	799.002	635.626
418.569	27.768	797.995	634.248
419.584	27.841	797.382	633.957
420.599	27.800	797.195	633.610
421.613	109.868	1283.502	1452.273
422.628	94.661	1354.339	1452.370
