DTS Sentinel unit serial number:	SN413079Multiplexer serial number:	ORYXHardware model number:	OX4-SRSoftware version number:	ORYX F/W v4.00 Oryx Data Collector v3.7.2.0data status	okinstallation	princeton_trtdifferential loss correction	single-endedforward channel	channel 3reverse channel	N/Adate	2019/09/12time	06:50:11forward acquisition time	60.00reverse acquisition time	0.00gamma	496.2192k internal	0.2320k external	0.2320temperature offset calibration	1.0036default loss term (dB/km)	0.3790temperature slope calibration	1.0000multiplexer offset coefficient	1.0000multiplexer slope coefficient	1.0000fibre end	0.00T internal ref (°C)	32.14T ext. ref 1 (°C)	1.58T ext. ref 2 (°C)	27.30length (m)	temperature (°C)	Stokes	anti-Stokes-747.200	-126.780	-0.084	0.013
-746.185	-145.672	0.274	0.025
-745.171	18.782	0.155	0.126
-744.156	-137.641	-0.395	-0.045
-743.142	-129.849	-0.160	0.022
-742.127	-140.086	-0.239	-0.025
-741.112	800.000	-0.064	-0.215
-740.098	259.181	-0.219	0.383
-739.083	91.831	-0.182	0.208
-738.069	6.948	0.024	0.018
-737.054	800.000	-0.058	0.243
-736.039	-51.070	-0.137	-0.065
-735.025	-26.436	0.091	0.054
-734.010	518.146	0.088	-0.208
-732.996	28.435	-0.025	-0.022
-731.981	138.924	0.096	-0.127
-730.966	323.081	-0.089	0.171
-729.952	98.514	0.195	-0.228
-728.937	10.590	-0.434	0.334
-727.923	275.912	0.013	-0.023
-726.908	-122.745	-0.097	-0.016
-725.894	126.657	-0.283	0.362
-724.879	111.101	-0.101	-0.122
-723.864	-114.849	-0.051	-0.010
-722.850	221.520	0.121	0.197
-721.835	188.453	0.093	0.141
-720.821	123.275	-0.162	0.205
-719.806	-61.643	-0.028	-0.012
-718.791	-200.000	0.025	0.169
-717.777	253.464	0.045	0.078
-716.762	-73.551	-0.271	-0.100
-715.748	-180.347	0.037	-0.001
-714.733	-200.000	-0.033	-0.237
-713.718	51.558	-0.207	-0.199
-712.704	-200.000	0.029	0.166
-711.689	-1.240	0.166	-0.118
-710.675	225.920	0.160	-0.262
-709.660	800.000	0.025	-0.097
-708.645	-200.000	-0.006	-0.279
-707.631	-200.000	-0.031	-0.265
-706.616	-54.218	0.147	-0.068
-705.602	800.000	-0.079	-0.240
-704.587	-139.086	-0.230	0.025
-703.572	-153.862	0.433	-0.030
-702.558	744.527	0.104	0.283
-701.543	-66.973	-0.138	0.055
-700.529	-200.000	-0.035	0.273
-699.514	49.993	-0.085	0.081
-698.499	244.138	-0.055	0.094
-697.485	564.695	-0.065	0.158
-696.470	6.733	-0.212	0.159
-695.456	-37.815	0.094	-0.050
-694.441	-156.680	0.060	-0.004
-693.426	-200.000	-0.003	-0.154
-692.412	210.369	0.110	-0.175
-691.397	-196.884	-0.478	-0.003
-690.383	-74.275	0.343	0.125
-689.368	22.626	0.103	-0.085
-688.354	134.079	0.046	0.061
-687.339	310.942	0.219	-0.413
-686.324	-200.000	-0.036	0.229
-685.310	506.834	-0.050	0.116
-684.295	-89.288	0.124	0.037
-683.281	-123.177	0.065	-0.010
-682.266	154.841	-0.115	0.159
-681.251	12.446	-0.073	0.057
-680.237	-180.791	-0.123	0.003
-679.222	800.000	0.047	-0.134
-678.208	62.602	-0.131	-0.132
-677.193	-88.257	0.278	0.084
-676.178	800.000	-0.064	-0.200
-675.164	-125.285	-0.231	-0.036
-674.149	-200.000	-0.063	-0.296
-673.135	69.080	0.072	0.075
-672.120	-18.702	-0.224	0.141
-671.105	-51.639	0.066	-0.031
-670.091	335.576	-0.102	-0.199
-669.076	-75.551	0.159	-0.057
-668.062	49.650	-0.235	-0.224
-667.047	82.653	0.098	0.107
-666.032	-52.299	-0.243	-0.113
-665.018	800.000	-0.017	0.069
-664.003	-200.000	-0.045	-0.364
-662.989	-12.294	0.117	-0.077
-661.974	-200.000	-0.022	0.161
-660.959	433.525	-0.072	0.158
-659.945	-140.673	0.094	-0.010
-658.930	702.843	0.053	-0.140
-657.916	10.219	-0.255	-0.196
-656.901	-120.561	-0.142	0.024
-655.886	-177.914	0.492	0.012
-654.872	167.027	0.135	0.193
-653.857	-200.000	-0.043	0.297
-652.843	144.236	-0.130	0.175
-651.828	185.707	-0.067	-0.101
-650.814	106.893	0.264	-0.316
-649.799	68.140	0.175	-0.180
-648.784	-85.909	-0.110	0.034
-647.770	579.266	-0.039	0.095
-646.755	-66.644	0.248	0.099
-645.741	-147.176	-0.515	0.044
-644.726	-169.166	0.120	-0.004
-643.711	-30.686	-0.263	-0.150
-642.697	-91.377	0.140	0.040
-641.682	-79.167	-0.227	0.078
-640.668	-114.938	-0.330	0.063
-639.653	43.529	-0.221	0.204
-638.638	-200.000	0.009	-0.176
-637.624	-144.950	-0.286	-0.026
-636.609	-53.074	0.069	0.032
-635.595	188.679	0.086	0.129
-634.580	-200.000	0.083	0.369
-633.565	-6.787	-0.072	-0.049
-632.551	-0.749	-0.166	0.119
-631.536	6.114	0.149	-0.111
-630.522	236.992	-0.185	0.309
-629.507	-200.000	-0.003	0.382
-628.492	-91.421	0.191	0.055
-627.478	225.114	-0.038	-0.061
-626.463	148.610	0.217	0.295
-625.449	-6.589	-0.043	-0.029
-624.434	800.000	0.058	-0.200
-623.419	800.000	-0.114	-0.353
-622.405	-159.424	-0.083	-0.005
-621.390	-50.244	0.334	0.159
-620.376	769.320	-0.049	0.135
-619.361	8.760	-0.046	-0.035
-618.346	-200.000	0.005	-0.157
-617.332	-147.802	0.113	0.009
-616.317	-7.796	-0.300	-0.204
-615.303	800.000	-0.095	0.349
-614.288	279.577	-0.082	0.147
-613.273	-159.466	0.042	-0.002
-612.259	-135.980	-0.536	0.063
-611.244	800.000	0.073	-0.312
-610.230	275.864	0.031	-0.056
-609.215	800.000	-0.151	-0.509
-608.201	-77.197	-0.219	0.077
-607.186	58.521	0.106	0.104
-606.171	-179.026	0.395	-0.009
-605.157	110.230	-0.047	0.057
-604.142	327.138	0.077	-0.149
-603.128	156.804	-0.095	0.131
-602.113	-61.164	-0.143	-0.061
-601.098	13.355	0.198	-0.154
-600.084	66.041	-0.049	0.050
-599.069	-4.784	0.079	-0.055
-598.055	-71.863	-0.351	-0.132
-597.040	3.208	-0.111	-0.081
-596.025	181.836	-0.111	-0.164
-595.011	-30.101	-0.216	0.123
-593.996	138.028	0.090	0.119
-592.982	-115.502	-0.032	-0.006
-591.967	112.631	-0.070	-0.085
-590.952	225.578	-0.255	0.416
-589.938	800.000	-0.040	-0.139
-588.923	800.000	0.116	0.377
-587.909	50.712	0.158	-0.150
-586.894	-200.000	-0.041	-0.231
-585.879	800.000	0.067	0.220
-584.865	-200.000	-0.020	-0.283
-583.850	-200.000	0.014	0.267
-582.836	-6.895	0.164	0.112
-581.821	148.283	-0.122	-0.165
-580.806	-200.000	-0.055	-0.262
-579.792	-200.000	-0.015	-0.168
-578.777	108.296	-0.094	-0.113
-577.763	-83.960	-0.108	0.034
-576.748	-200.000	0.023	-0.150
-575.733	25.191	0.177	-0.148
-574.719	116.142	0.127	-0.156
-573.704	-85.212	0.371	-0.116
-572.690	647.274	-0.065	0.166
-571.675	308.560	-0.020	0.037
-570.661	-75.233	0.134	0.048
-569.646	212.106	0.219	0.347
-568.631	136.064	0.233	0.304
-567.617	439.786	0.055	-0.122
-566.602	-109.408	-0.184	-0.039
-565.588	243.668	0.110	0.185
-564.573	-200.000	0.016	-0.202
-563.558	334.824	0.111	0.216
-562.544	-138.734	0.396	0.043
-561.529	-125.948	-0.141	-0.021
-560.515	-72.255	0.190	-0.071
-559.500	66.315	0.153	-0.156
-558.485	-10.430	-0.330	0.220
-557.471	595.715	0.098	0.243
-556.456	289.499	-0.282	-0.514
-555.442	357.215	-0.047	0.094
-554.427	542.136	0.077	0.183
-553.412	-200.000	0.028	-0.330
-552.398	-122.453	-0.428	0.070
-551.383	503.072	0.139	0.322
-550.369	-70.265	-0.256	-0.098
-549.354	-9.143	-0.313	0.210
-548.339	-152.912	0.310	-0.022
-547.325	498.998	-0.098	-0.226
-546.310	200.488	0.102	-0.157
-545.296	800.000	-0.066	0.270
-544.281	144.541	0.260	0.348
-543.266	517.019	-0.119	0.279
-542.252	248.323	-0.228	-0.387
-541.237	-1.883	-0.229	-0.162
-540.223	500.771	-0.144	0.334
-539.208	-69.412	-0.203	-0.078
-538.193	-119.487	-0.190	-0.033
-537.179	83.292	-0.237	-0.258
-536.164	-200.000	0.010	-0.160
-535.150	23.638	0.210	0.174
-534.135	-153.611	-0.178	0.012
-533.121	-42.537	0.275	-0.140
-532.106	119.243	0.221	-0.274
-531.091	-74.878	-0.288	-0.104
-530.077	508.959	-0.100	0.234
-529.062	70.933	0.250	-0.260
-528.048	-200.000	-0.021	0.421
-527.033	190.406	-0.206	-0.310
-526.018	-40.120	-0.106	0.055
-525.004	140.151	0.105	0.139
-523.989	-4.797	-0.087	-0.060
-522.975	362.165	0.050	0.101
-521.960	-17.805	0.123	0.077
-520.945	-80.586	-0.004	0.001
-519.931	-200.000	0.062	0.278
-518.916	-35.986	0.149	0.081
-517.902	-16.798	-0.170	-0.108
-516.887	71.507	0.098	0.102
-515.872	7.190	0.224	0.168
-514.858	800.000	-0.052	-0.225
-513.843	-89.918	0.388	-0.114
-512.829	52.680	-0.135	-0.130
-511.814	469.433	0.119	-0.269
-510.799	9.060	0.062	0.047
-509.785	-99.158	-0.249	-0.063
-508.770	-114.453	0.327	0.063
-507.756	549.146	0.063	-0.152
-506.741	102.358	0.100	-0.117
-505.726	112.075	-0.344	-0.416
-504.712	-106.027	-0.452	-0.102
-503.697	-74.249	-0.361	-0.131
-502.683	143.789	0.129	0.173
-501.668	-131.952	-0.097	-0.013
-500.653	-7.671	0.385	0.261
-499.639	63.325	-0.212	0.212
-498.624	-200.000	-0.004	0.129
-497.610	-174.181	0.300	0.009
-496.595	223.926	-0.074	-0.120
-495.581	212.510	-0.076	0.120
-494.566	66.760	-0.133	-0.136
-493.551	-74.856	-0.204	0.073
-492.537	-106.462	0.209	0.047
-491.522	800.000	-0.077	-0.313
-490.508	-69.768	-0.397	-0.152
-489.493	169.319	0.042	-0.060
-488.478	-178.212	-0.310	-0.007
-487.464	-200.000	0.042	0.282
-486.449	-23.159	0.315	0.190
-485.435	-167.302	-0.096	-0.004
-484.420	119.304	-0.076	-0.094
-483.405	-155.853	0.088	0.006
-482.391	-134.100	-0.216	-0.027
-481.376	244.085	0.085	0.144
-480.362	28.281	0.093	-0.078
-479.347	-44.265	0.219	-0.110
-478.332	-99.915	-0.242	-0.060
-477.318	3.793	0.087	-0.064
-476.303	84.059	0.079	-0.086
-475.289	-33.987	-0.137	-0.075
-474.274	-200.000	0.009	-0.056
-473.259	-60.458	-0.300	0.127
-472.245	373.931	0.154	-0.313
-471.230	-43.517	-0.119	-0.060
-470.216	-200.000	0.028	-0.158
-469.201	-34.994	0.057	-0.031
-468.186	517.258	-0.075	0.176
-467.172	-48.567	-0.379	-0.182
-466.157	-36.562	0.163	0.087
-465.143	-200.000	-0.018	-0.147
-464.128	-94.730	0.191	-0.052
-463.113	271.261	-0.127	-0.223
-462.099	5.160	0.047	-0.034
-461.084	-76.707	0.246	-0.086
-460.070	676.870	-0.018	0.047
-459.055	521.717	0.124	0.291
-458.040	-123.729	-0.093	0.015
-457.026	491.901	0.064	0.147
-456.011	-112.599	-0.057	0.011
-454.997	373.301	0.155	-0.316
-453.982	-172.098	-0.215	0.007
-452.968	-74.101	-0.162	-0.059
-451.953	621.097	0.125	-0.313
-450.938	-200.000	-0.021	0.433
-449.924	-200.000	0.019	0.154
-448.909	-125.656	0.158	-0.024
-447.895	-200.000	-0.002	-0.025
-446.880	-19.182	-0.156	-0.097
-445.865	29.561	0.068	-0.058
-444.851	102.977	-0.043	-0.050
-443.836	800.000	0.018	-0.075
-442.822	515.079	-0.075	-0.175
-441.807	413.345	-0.051	-0.109
-440.792	-36.730	0.305	-0.164
-439.778	-200.000	0.022	-0.178
-438.763	-118.907	-0.362	-0.064
-437.749	-95.133	0.068	0.018
-436.734	489.847	-0.125	0.286
-435.719	-77.770	-0.672	0.232
-434.705	-200.000	0.001	-0.124
-433.690	-200.000	-0.017	0.102
-432.676	-10.572	-0.196	0.130
-431.661	224.589	0.132	-0.213
-430.646	298.477	0.072	-0.133
-429.632	-72.870	0.268	0.098
-428.617	762.608	-0.078	-0.211
-427.603	81.109	0.043	0.047
-426.588	680.521	0.109	-0.284
-425.573	32.730	0.131	0.113
-424.559	-57.993	0.174	0.076
-423.544	324.257	0.034	-0.065
-422.530	-200.000	0.012	-0.214
-421.515	53.084	-0.169	0.162
-420.500	-61.853	0.325	0.136
-419.486	76.514	0.122	0.129
-418.471	-200.000	0.034	0.200
-417.457	42.638	0.157	-0.143
-416.442	800.000	-0.007	-0.027
-415.428	371.946	0.085	-0.173
-414.413	1.192	-0.103	-0.074
-413.398	724.153	-0.100	-0.265
-412.384	800.000	0.045	-0.164
-411.369	800.000	0.043	-0.148
-410.355	44.044	0.298	-0.273
-409.340	-200.000	-0.022	0.182
-408.325	67.033	0.140	-0.142
-407.311	33.712	0.125	-0.109
-406.296	-200.000	0.006	0.168
-405.282	39.924	-0.130	-0.116
-404.267	438.155	0.017	0.036
-403.252	-41.585	0.296	0.152
-402.238	-70.227	0.196	0.074
-401.223	-0.384	0.332	-0.235
-400.209	124.341	0.135	0.170
-399.194	-200.000	-0.008	-0.052
-398.179	-127.340	-0.367	-0.053
-397.165	-180.930	0.352	0.007
-396.150	-3.620	0.149	0.103
-395.136	-99.929	0.433	0.108
-394.121	800.000	0.056	0.159
-393.106	-80.332	0.107	-0.036
-392.092	-62.803	0.193	0.080
-391.077	-200.000	0.020	0.094
-390.063	-137.180	-0.175	0.020
-389.048	800.000	0.060	0.173
-388.033	-123.359	0.111	-0.018
-387.019	746.603	-0.029	-0.077
-386.004	-80.451	-0.446	-0.148
-384.990	45.067	-0.210	0.193
-383.975	-200.000	0.026	0.219
-382.960	-127.660	0.124	-0.018
-381.946	-72.568	0.131	-0.048
-380.931	278.881	-0.017	-0.030
-379.917	27.641	0.285	-0.239
-378.902	573.392	0.170	-0.413
-377.888	800.000	0.042	0.127
-376.873	108.584	-0.207	0.246
-375.858	-200.000	-0.068	0.431
-374.844	-126.745	-0.438	0.065
-373.829	699.265	0.129	-0.338
-372.815	28.955	-0.072	0.061
-371.800	270.217	-0.163	-0.285
-370.785	-200.000	-0.050	-0.290
-369.771	-200.000	0.037	-0.191
-368.756	-200.000	-0.009	-0.161
-367.742	-39.900	0.286	0.149
-366.727	264.562	0.112	0.194
-365.712	-7.039	0.186	0.126
-364.698	-200.000	0.041	-0.313
-363.683	-176.383	0.373	-0.010
-362.669	-200.000	-0.011	0.103
-361.654	-126.173	-0.273	-0.041
-360.639	45.129	-0.104	0.095
-359.625	-68.079	-0.048	0.019
-358.610	94.588	0.170	0.193
-357.596	58.143	0.247	0.241
-356.581	60.610	-0.087	-0.086
-355.566	-200.000	-0.033	0.296
-354.552	371.677	0.031	-0.063
-353.537	73.213	0.100	0.104
-352.523	21.829	-0.203	0.165
-351.508	82.036	0.131	-0.142
-350.493	733.926	0.066	-0.176
-349.479	-10.881	0.057	0.038
-348.464	-129.936	0.281	-0.038
-347.450	-59.847	0.351	0.150
-346.435	-169.579	0.376	0.014
-345.420	13.291	-0.212	0.164
-344.406	-142.808	-0.106	-0.010
-343.391	-179.871	0.028	-0.001
-342.377	-142.899	-0.207	0.020
-341.362	-200.000	-0.031	0.134
-340.348	-200.000	-0.007	-0.128
-339.333	-200.000	-0.004	-0.070
-338.318	113.983	-0.281	0.340
-337.304	-81.862	-0.045	-0.015
-336.289	-200.000	-0.004	0.508
-335.275	683.965	0.050	-0.129
-334.260	-200.000	0.036	-0.386
-333.245	800.000	-0.036	0.114
-332.231	6.513	-0.292	0.216
-331.216	800.000	0.066	-0.258
-330.202	213.312	-0.083	0.130
-329.187	-134.133	-0.323	0.040
-328.172	-144.712	-0.112	-0.010
-327.158	-200.000	0.037	0.266
-326.143	123.511	-0.133	0.166
-325.129	-200.000	-0.119	0.540
-324.114	622.761	-0.045	0.112
-323.099	-200.000	0.003	-0.056
-322.085	64.451	0.054	0.054
-321.070	800.000	-0.092	0.353
-320.056	70.439	0.310	0.319
-319.041	135.559	0.294	-0.381
-318.026	-84.520	-0.074	0.023
-317.012	-101.279	-0.239	0.058
-315.997	41.193	-0.337	-0.303
-314.983	246.016	-0.071	0.119
-313.968	118.170	-0.142	-0.174
-312.953	304.373	0.165	0.304
-311.939	-200.000	0.051	0.372
-310.924	11.776	0.085	-0.065
-309.910	442.845	-0.091	-0.198
-308.895	156.259	0.053	-0.072
-307.880	-23.503	0.057	0.034
-306.866	172.635	-0.160	0.229
-305.851	257.678	0.098	0.168
-304.837	800.000	0.087	0.248
-303.822	-200.000	0.001	-0.170
-302.807	-200.000	-0.004	0.400
-301.793	93.664	0.122	-0.137
-300.778	-53.544	-0.299	-0.136
-299.764	-146.926	0.441	0.038
-298.749	41.648	0.303	-0.273
-297.735	38.361	-0.235	0.208
-296.720	-200.000	-0.005	-0.033
-295.705	800.000	-0.025	0.108
-294.691	-90.995	0.081	0.023
-293.676	-178.869	-0.377	-0.009
-292.662	-200.000	-0.007	0.063
-291.647	147.460	0.187	-0.250
-290.632	-59.933	-0.246	-0.104
-289.618	-170.029	-0.215	-0.008
-288.603	-112.229	0.299	-0.060
-287.589	-5.839	-0.262	-0.178
-286.574	-73.544	-0.229	0.083
-285.559	-78.649	-0.039	-0.013
-284.545	-200.000	-0.017	-0.414
-283.530	-200.000	0.023	-0.124
-282.516	434.711	0.068	-0.147
-281.501	-119.388	0.264	0.046
-280.486	800.000	0.041	0.129
-279.472	-153.532	-0.035	-0.002
-278.457	-119.297	0.179	-0.031
-277.443	144.206	0.073	0.097
-276.428	11.592	0.118	0.090
-275.413	-192.402	0.402	-0.004
-274.399	-17.208	0.133	0.083
-273.384	-39.297	-0.163	0.085
-272.370	-80.404	0.005	0.002
-271.355	85.123	-0.058	0.063
-270.340	800.000	-0.073	0.296
-269.326	-10.724	-0.055	-0.036
-268.311	254.101	0.168	0.284
-267.297	-200.000	0.024	-0.108
-266.282	-200.000	-0.045	0.274
-265.267	183.886	-0.133	0.195
-264.253	-53.010	-0.114	-0.052
-263.238	-139.420	-0.433	0.046
-262.224	-89.604	0.452	0.132
-261.209	-88.015	0.162	-0.048
-260.195	221.873	0.117	-0.187
-259.180	-200.000	-0.000	0.029
-258.165	800.000	0.054	0.217
-257.151	9.988	-0.266	-0.200
-256.136	185.098	0.144	0.212
-255.122	-107.601	0.080	0.017
-254.107	-129.732	-0.092	0.013
-253.092	-23.910	-0.082	0.049
-252.078	-200.000	0.011	-0.086
-251.063	-169.777	0.271	-0.010
-250.049	72.671	-0.289	-0.300
-249.034	129.702	-0.103	-0.130
-248.019	238.421	-0.231	-0.381
-247.005	82.510	-0.234	-0.252
-245.990	259.968	-0.080	-0.136
-244.976	800.000	-0.103	0.389
-243.961	-2.039	0.215	0.150
-242.946	-70.242	-0.202	0.076
-241.932	156.160	0.079	0.108
-240.917	800.000	-0.035	0.148
-239.903	642.824	-0.124	-0.315
-238.888	-141.088	-0.286	0.029
-237.873	-132.739	0.377	-0.048
-236.859	685.946	-0.125	0.323
-235.844	-121.087	0.205	-0.034
-234.830	665.797	-0.122	-0.312
-233.815	0.104	0.095	0.067
-232.800	-108.937	0.127	-0.027
-231.786	-5.036	-0.165	-0.113
-230.771	-90.556	0.146	0.042
-229.757	69.314	-0.159	-0.163
-228.742	800.000	-0.056	0.216
-227.727	114.850	0.264	0.319
-226.713	-1.034	0.111	-0.078
-225.698	114.325	-0.137	0.165
-224.684	67.221	0.083	0.083
-223.669	-1.143	-0.229	0.160
-222.655	67.133	0.116	0.117
-221.640	223.784	0.040	0.064
-220.625	-200.000	0.022	0.136
-219.611	-200.000	-0.015	-0.189
-218.596	-200.000	0.016	-0.211
-217.582	6.661	-0.053	0.039
-216.567	155.424	0.114	0.155
-215.552	-200.000	0.032	-0.169
-214.538	40.536	0.136	-0.121
-213.523	17.723	0.029	0.023
-212.509	170.382	-0.183	-0.260
-211.494	-46.764	-0.140	-0.068
-210.479	-200.000	-0.032	0.258
-209.465	800.000	-0.017	0.063
-208.450	-193.829	0.316	0.003
-207.436	-136.307	0.506	-0.058
-206.421	275.416	-0.207	-0.363
-205.406	-200.000	-0.058	-0.259
-204.392	-121.391	0.108	0.018
-203.377	-3.499	-0.177	0.122
-202.363	800.000	0.098	0.296
-201.348	82.373	-0.206	-0.222
-200.333	-200.000	-0.032	-0.225
-199.319	800.000	0.079	-0.260
-198.304	-110.198	-0.225	-0.046
-197.290	174.941	0.215	0.308
-196.275	-200.000	-0.051	0.299
-195.260	9.611	0.158	0.119
-194.246	-200.000	-0.008	0.290
-193.231	-81.678	-0.005	-0.001
-192.217	-200.000	-0.006	-0.098
-191.202	-174.929	-0.054	-0.001
-190.187	-83.702	0.093	0.029
-189.173	-200.000	0.026	-0.234
-188.158	-111.727	0.177	0.036
-187.144	-162.820	-0.160	-0.008
-186.129	-200.000	-0.015	-0.198
-185.114	-164.872	0.137	0.006
-184.100	22.530	0.207	-0.167
-183.085	-71.346	0.158	0.059
-182.071	305.767	-0.022	0.040
-181.056	93.305	0.238	0.266
-180.042	-116.595	-0.273	-0.050
-179.027	99.429	-0.157	-0.179
-178.012	89.582	0.226	-0.249
-176.998	111.139	0.219	0.261
-175.983	7.960	0.167	-0.124
-174.969	800.000	-0.047	-0.156
-173.954	448.858	0.139	-0.304
-172.939	-168.879	-0.243	0.009
-171.925	-200.000	0.019	-0.148
-170.910	162.722	-0.180	-0.249
-169.896	-200.000	-0.085	0.398
-168.881	180.803	-0.202	-0.293
-167.866	33.871	0.255	-0.219
-166.852	-96.502	0.023	0.006
-165.837	27.186	0.122	0.102
-164.823	-200.000	0.022	-0.117
-163.808	-59.013	-0.218	-0.093
-162.793	-49.015	0.286	0.135
-161.779	800.000	0.045	0.143
-160.764	-22.821	-0.343	-0.205
-159.750	-139.088	-0.101	0.011
-158.735	2.966	-0.233	0.167
-157.720	754.178	0.072	0.192
-156.706	-16.877	0.117	0.073
-155.691	-200.000	0.009	0.247
-154.677	-153.793	-0.151	0.010
-153.662	108.370	0.070	-0.082
-152.647	-18.880	0.157	0.097
-151.633	387.459	0.273	-0.558
-150.618	562.314	0.076	-0.182
-149.604	10.922	0.217	0.163
-148.589	-97.912	-0.561	0.143
-147.574	-200.000	-0.060	0.394
-146.560	17.733	-0.110	0.087
-145.545	154.838	0.131	0.178
-144.531	222.607	0.050	-0.079
-143.516	368.258	0.066	-0.132
-142.502	15.376	0.099	-0.077
-141.487	-22.581	-0.464	0.277
-140.472	-200.000	0.004	-0.091
-139.458	393.899	-0.049	0.100
-138.443	-18.419	-0.136	0.084
-137.429	138.104	-0.050	-0.065
-136.414	142.195	-0.160	-0.210
-135.399	37.211	0.212	0.185
-134.385	-200.000	0.012	0.280
-133.370	157.089	0.090	-0.123
-132.356	800.000	-0.115	-0.402
-131.341	-8.135	0.312	-0.207
-130.326	556.291	0.118	-0.280
-129.312	-200.000	0.022	-0.160
-128.297	-200.000	-0.068	0.378
-127.283	-200.000	0.023	0.197
-126.268	-7.600	0.056	-0.038
-125.253	-35.047	-0.314	-0.169
-124.239	-200.000	-0.011	-0.053
-123.224	653.905	0.104	-0.264
-122.210	71.990	-0.127	0.131
-121.195	55.660	-0.103	0.098
-120.180	97.449	-0.094	-0.106
-119.166	-137.107	0.314	0.035
-118.151	44.799	-0.166	-0.150
-117.137	88.822	-0.118	0.129
-116.122	800.000	0.070	-0.225
-115.107	100.183	0.173	-0.198
-114.093	-23.628	0.022	-0.013
-113.078	390.423	0.120	-0.245
-112.064	-193.384	0.122	-0.001
-111.049	800.000	0.080	0.322
-110.034	-150.702	-0.059	0.004
-109.020	27.155	0.093	-0.077
-108.005	-21.821	0.233	0.140
-106.991	127.898	0.152	0.190
-105.976	800.000	-0.056	0.213
-104.962	-200.000	-0.079	0.414
-103.947	-200.000	0.066	-0.319
-102.932	177.948	-0.114	-0.164
-101.918	-200.000	-0.037	0.372
-100.903	79.503	-0.014	0.015
-99.889	222.135	0.095	-0.151
-98.874	-200.000	-0.027	-0.155
-97.859	-132.711	-0.274	-0.035
-96.845	-142.773	-0.256	0.025
-95.830	-85.751	0.207	0.063
-94.816	20.970	0.447	0.358
-93.801	115.898	0.098	0.119
-92.786	27.001	-0.026	-0.021
-91.772	-63.030	-0.149	0.061
-90.757	-159.684	0.332	0.018
-89.743	-42.409	0.129	0.065
-88.728	220.051	0.285	0.450
-87.713	230.129	0.123	0.199
-86.699	51.394	0.218	0.204
-85.684	-120.135	-0.138	0.023
-84.670	-115.232	-0.203	-0.038
-83.655	-120.068	0.149	-0.025
-82.640	7.225	-0.159	-0.117
-81.626	-157.878	0.163	0.009
-80.611	-200.000	0.028	-0.166
-79.597	22.717	0.233	-0.188
-78.582	-200.000	-0.012	0.197
-77.567	-48.474	0.248	0.118
-76.553	-31.040	0.313	-0.174
-75.538	-70.538	0.072	0.027
-74.524	509.362	-0.117	0.268
-73.509	701.457	-0.139	-0.362
-72.494	-86.621	0.232	-0.070
-71.480	164.455	-0.150	0.208
-70.465	-48.353	0.232	0.110
-69.451	53.021	0.207	-0.195
-68.436	-200.000	0.023	0.129
-67.422	303.914	0.080	0.145
-66.407	-105.860	0.287	0.064
-65.392	-53.272	-0.264	-0.119
-64.378	275.420	-0.055	0.096
-63.363	-62.757	0.213	-0.087
-62.349	42.963	0.060	0.054
-61.334	132.759	-0.776	-0.986
-60.319	-58.593	0.335	0.143
-59.305	800.000	-0.252	-0.828
-58.290	800.000	0.233	0.927
-57.276	-200.000	0.229	1.493
-56.261	-200.000	96.272	594.951
-55.246	565.504	1372.754	3276.379
-54.232	160.900	2551.052	3507.281
-53.217	112.265	2162.996	2574.168
-52.203	42.786	1708.653	1531.976
-51.188	35.403	1521.868	1314.124
-50.173	32.901	1495.258	1274.233
-49.159	52.140	1544.275	1448.395
-48.144	53.875	1561.759	1476.633
-47.130	35.657	1520.933	1314.849
-46.115	32.381	1506.859	1280.380
-45.100	32.241	1503.718	1276.703
-44.086	32.332	1501.389	1275.295
-43.071	32.235	1499.505	1272.990
-42.057	32.201	1498.014	1271.441
-41.042	32.156	1496.856	1270.104
-40.027	32.129	1495.382	1268.618
-39.013	32.124	1493.983	1267.350
-37.998	32.084	1492.468	1265.745
-36.984	32.090	1491.687	1265.072
-35.969	32.182	1489.642	1263.908
-34.954	32.193	1488.246	1262.746
-33.940	32.194	1487.105	1261.732
-32.925	32.123	1485.839	1260.132
-31.911	32.211	1484.478	1259.518
-30.896	32.257	1482.868	1258.408
-29.881	32.243	1481.295	1256.931
-28.867	32.267	1479.959	1255.906
-27.852	32.165	1479.161	1254.499
-26.838	32.283	1477.280	1253.642
-25.823	32.208	1475.779	1251.822
-24.809	32.194	1474.250	1250.378
-23.794	32.196	1472.487	1248.845
-22.779	32.155	1471.922	1248.047
-21.765	32.148	1470.816	1247.017
-20.750	32.181	1469.110	1245.735
-19.736	32.151	1468.508	1244.980
-18.721	32.199	1467.017	1243.983
-17.706	32.079	1466.432	1242.643
-16.692	32.147	1464.797	1241.658
-15.677	32.153	1463.757	1240.764
-14.663	32.176	1463.035	1240.257
-13.648	32.126	1461.819	1238.850
-12.633	32.035	1461.076	1237.565
-11.619	32.123	1460.233	1237.385
-10.604	32.068	1459.416	1236.283
-9.590	32.042	1459.029	1235.734
-8.575	32.131	1457.702	1235.148
-7.560	32.042	1456.979	1233.901
-6.546	32.021	1456.570	1233.364
-5.531	32.028	1455.220	1232.219
-4.517	32.113	1453.453	1231.231
-3.502	32.120	1452.691	1230.586
-2.487	32.099	1451.623	1229.495
-1.473	31.982	1450.969	1228.121
-0.458	32.146	1449.215	1227.666
0.556	32.084	1439.559	1216.579
1.571	29.238	1414.388	1177.050
2.586	25.822	1358.593	1109.521
3.600	24.379	1279.285	1036.282
4.615	22.930	1232.619	990.279
5.629	19.398	1174.372	924.503
6.644	9.666	1087.973	807.855
7.659	2.776	1046.662	743.796
8.673	1.899	1041.535	735.856
9.688	1.613	1038.544	732.306
10.702	1.420	1036.700	730.009
11.717	1.369	1034.941	728.465
12.731	4.345	1037.918	744.794
13.746	13.986	1051.605	801.238
14.761	22.302	1062.384	849.722
15.775	24.643	1065.558	863.512
16.790	25.054	1064.731	864.752
17.804	24.850	1063.950	863.057
18.819	24.720	1063.010	861.592
19.834	24.733	1062.722	861.345
20.848	24.980	1062.218	862.047
21.863	25.085	1061.951	862.262
22.877	25.070	1061.734	861.934
23.892	25.062	1060.611	860.907
24.907	24.954	1060.110	859.909
25.921	24.987	1059.600	859.574
26.936	25.040	1058.247	858.656
27.950	24.896	1057.450	857.244
28.965	25.011	1056.041	856.577
29.980	24.816	1054.740	854.512
30.994	24.706	1053.898	853.231
32.009	24.999	1052.696	853.581
33.023	25.035	1052.481	853.500
34.038	24.826	1051.137	851.342
35.053	24.858	1050.072	850.557
36.067	24.999	1049.815	850.942
37.082	24.907	1048.981	849.755
38.096	24.960	1048.550	849.581
39.111	25.237	1047.352	849.847
40.126	25.166	1046.694	848.904
41.140	25.289	1044.954	847.997
42.155	24.968	1043.858	845.517
43.169	24.555	1043.122	842.897
44.184	24.636	1041.512	841.903
45.199	24.690	1040.650	841.385
46.213	24.682	1039.730	840.532
47.228	24.452	1039.389	839.102
48.242	24.811	1038.112	839.680
49.257	24.929	1037.680	839.809
50.271	24.829	1037.313	838.968
51.286	24.970	1036.397	838.816
52.301	25.079	1035.433	838.470
53.315	25.040	1035.073	837.923
54.330	25.002	1034.288	837.036
55.344	25.007	1033.497	836.342
56.359	24.986	1032.338	835.236
57.374	24.990	1031.631	834.606
58.388	24.789	1030.907	833.014
59.403	24.747	1030.290	832.244
60.417	24.754	1029.498	831.563
61.432	24.653	1028.230	829.996
62.447	24.643	1027.676	829.431
63.461	24.759	1027.284	829.578
64.476	24.698	1026.881	828.897
65.490	24.757	1025.688	828.132
66.505	24.640	1024.621	826.656
67.520	24.688	1024.066	826.356
68.534	24.890	1023.133	826.464
69.549	24.671	1022.125	824.568
70.563	24.199	1021.452	821.775
71.578	24.266	1020.366	821.135
72.593	24.209	1019.589	820.175
73.607	24.120	1018.655	818.946
74.622	24.219	1017.533	818.426
75.636	24.443	1016.647	818.667
76.651	24.625	1015.725	818.686
77.666	24.462	1015.543	817.721
78.680	24.382	1014.561	816.493
79.695	24.315	1014.270	815.880
80.709	24.594	1012.915	815.992
81.724	24.637	1012.691	815.934
82.739	24.527	1011.791	814.632
83.753	24.652	1010.951	814.455
84.768	24.814	1010.584	814.824
85.782	25.125	1009.912	815.628
86.797	25.356	1008.939	815.817
87.812	25.206	1008.407	814.637
88.826	25.063	1007.337	813.050
89.841	25.129	1006.597	812.680
90.855	25.357	1005.596	812.831
91.870	25.276	1005.074	811.970
92.884	25.179	1004.133	810.703
93.899	25.198	1003.124	809.902
94.914	25.142	1001.840	808.540
95.928	25.108	1001.504	808.045
96.943	25.119	1001.110	807.702
97.957	24.869	999.547	805.246
98.972	24.654	998.206	803.130
99.987	24.524	997.456	801.872
101.001	24.551	996.817	801.408
102.016	24.792	996.396	802.080
103.030	24.911	995.011	801.427
104.045	24.825	994.432	800.503
105.060	24.780	992.655	798.800
106.074	24.507	991.785	796.811
107.089	24.670	990.927	796.779
108.103	25.040	990.786	798.244
109.118	25.022	989.863	797.352
110.133	24.666	988.939	794.954
111.147	24.746	988.134	794.591
112.162	24.535	986.828	792.535
113.176	24.374	985.964	791.054
114.191	24.435	985.239	790.672
115.206	24.586	984.166	790.410
116.220	24.322	982.712	788.006
117.235	24.179	982.098	786.814
118.249	24.327	981.739	787.108
119.264	24.315	980.908	786.320
120.279	24.355	979.444	785.254
121.293	24.233	979.241	784.486
122.308	24.394	978.569	784.583
123.322	24.352	978.049	783.915
124.337	24.343	976.717	782.740
125.352	24.272	975.096	781.057
126.366	23.806	973.896	777.987
127.381	23.479	972.517	775.389
128.395	24.198	972.301	778.290
129.410	24.608	972.372	780.070
130.424	24.835	971.944	780.647
131.439	24.986	970.353	779.956
132.454	24.798	969.595	778.460
133.468	24.749	968.986	777.689
134.483	24.666	968.009	776.474
135.497	24.713	967.694	776.360
136.512	24.995	967.096	777.036
137.527	25.120	966.088	776.698
138.541	25.055	965.142	775.586
139.556	25.173	964.273	775.330
140.570	25.127	963.499	774.439
141.585	25.211	962.892	774.244
142.600	25.255	961.898	773.569
143.614	25.155	961.022	772.363
144.629	25.167	960.736	772.117
145.643	25.303	960.261	772.253
146.658	25.303	958.459	770.736
147.673	25.105	957.497	769.045
148.687	24.982	956.618	767.741
149.702	24.839	956.064	766.616
150.716	24.872	954.741	765.632
151.731	24.932	953.560	764.874
152.746	25.031	952.942	764.731
153.760	25.112	952.668	764.788
154.775	25.192	951.853	764.411
155.789	25.201	951.031	763.721
156.804	25.299	950.071	763.298
157.819	25.239	948.883	762.019
158.833	25.297	947.923	761.430
159.848	25.363	946.999	760.897
160.862	25.465	946.460	760.831
161.877	25.270	945.506	759.172
162.892	25.051	945.033	757.799
163.906	25.291	944.423	758.256
164.921	25.180	943.395	756.895
165.935	25.212	941.909	755.769
166.950	25.239	941.133	755.195
167.964	25.230	940.670	754.720
168.979	25.166	939.014	753.054
169.994	25.176	938.239	752.408
171.008	25.069	937.308	751.146
172.023	25.241	936.927	751.497
173.037	25.333	936.326	751.332
174.052	25.162	934.967	749.462
175.067	24.975	933.865	747.731
176.081	24.893	933.575	747.089
177.096	25.114	932.150	746.801
178.110	25.027	931.426	745.797
179.125	24.860	930.309	744.139
180.140	24.639	929.525	742.528
181.154	24.670	928.544	741.808
182.169	24.752	928.249	741.848
183.183	25.012	928.243	742.858
184.198	25.344	927.260	743.378
185.213	25.171	927.189	742.537
186.227	25.042	926.387	741.297
187.242	25.242	926.089	741.822
188.256	25.381	924.956	741.420
189.271	25.281	924.772	740.797
190.286	25.353	924.062	740.459
191.300	25.100	922.767	738.312
192.315	24.571	921.655	735.183
193.329	23.961	919.945	731.247
194.344	23.483	918.677	728.210
195.359	24.123	919.393	731.341
196.373	24.935	919.818	734.949
197.388	25.233	919.792	736.086
198.402	25.099	918.900	734.758
199.417	25.006	918.453	733.955
200.432	25.233	917.799	734.296
201.446	25.085	916.993	732.980
202.461	24.837	915.948	731.068
203.475	24.937	915.653	731.176
204.490	24.445	913.849	727.668
205.504	23.296	911.962	721.423
206.519	23.669	912.077	722.970
207.534	24.676	912.356	727.224
208.548	24.797	911.566	727.023
209.563	25.157	911.854	728.653
210.577	25.133	910.965	727.780
211.592	25.022	909.936	726.442
212.607	25.295	909.891	727.449
213.621	25.373	909.593	727.463
214.636	25.267	909.220	726.670
215.650	25.369	908.325	726.303
216.665	25.370	907.471	725.561
217.680	25.393	907.265	725.422
218.694	25.466	906.620	725.138
219.709	25.097	905.540	722.725
220.723	24.648	905.038	720.451
221.738	24.897	904.384	720.868
222.753	25.121	903.941	721.350
223.767	25.028	902.965	720.135
224.782	25.160	902.364	720.124
225.796	25.325	901.710	720.200
226.811	25.590	901.341	720.903
227.826	25.016	900.483	717.854
228.840	24.342	898.327	713.375
229.855	24.190	898.173	712.583
230.869	24.330	897.898	712.860
231.884	24.181	896.710	711.259
232.899	24.183	895.962	710.611
233.913	24.920	896.475	713.898
234.928	25.055	895.789	713.827
235.942	24.901	895.700	713.078
236.957	24.989	894.776	712.627
237.972	24.684	893.734	710.522
238.986	24.745	892.578	709.786
240.001	24.861	892.348	710.000
241.015	24.904	891.520	709.447
242.030	24.929	891.224	709.249
243.045	24.907	891.118	709.013
244.059	24.969	890.662	708.833
245.074	25.325	889.675	709.392
246.088	25.189	889.160	708.383
247.103	24.803	888.495	706.264
248.117	24.880	887.825	705.973
249.132	25.467	887.707	708.132
250.147	25.872	887.787	709.729
251.161	25.895	886.974	709.105
252.176	25.934	886.850	709.098
253.190	26.044	885.677	708.531
254.205	26.036	885.429	708.236
255.220	26.137	885.408	708.552
256.234	26.317	884.306	708.316
257.249	26.158	883.826	707.246
258.263	26.057	883.082	706.190
259.278	26.073	882.491	705.720
260.293	26.050	882.101	705.254
261.307	26.067	881.659	704.905
262.322	25.937	880.943	703.763
263.336	25.955	880.035	703.047
264.351	25.443	879.080	700.225
265.366	24.343	876.651	693.951
266.380	24.126	875.726	692.316
267.395	24.965	876.300	695.967
268.409	25.689	876.417	698.812
269.424	25.603	876.003	698.088
270.439	25.716	875.148	697.782
271.453	25.890	874.783	698.104
272.468	25.774	874.231	697.152
273.482	26.036	873.848	697.800
274.497	26.198	873.375	697.988
275.512	25.901	872.360	695.966
276.526	25.530	870.440	692.944
277.541	25.602	870.774	693.425
278.555	25.924	870.479	694.371
279.570	25.753	869.809	693.117
280.585	25.580	869.266	691.954
281.599	25.649	868.843	691.822
282.614	25.848	868.410	692.182
283.628	25.284	867.281	689.057
284.643	24.934	866.181	686.780
285.657	25.283	866.180	688.054
286.672	25.108	865.758	686.990
287.687	24.681	864.559	684.343
288.701	25.132	864.711	686.127
289.716	25.550	864.074	687.159
290.730	25.332	863.291	685.644
291.745	25.039	862.768	684.050
292.760	24.890	861.653	682.539
293.774	24.742	861.499	681.792
294.789	25.714	862.076	685.893
295.803	26.352	862.026	688.220
296.818	26.436	861.267	687.874
297.833	26.522	860.918	687.863
298.847	26.138	859.848	685.488
299.862	25.790	858.860	683.320
300.876	26.076	858.245	683.855
301.891	26.472	858.046	685.137
302.906	26.291	857.737	684.143
303.920	25.987	856.305	681.792
304.935	25.899	855.766	680.968
305.949	26.346	855.401	682.307
306.964	26.504	854.937	682.470
307.979	26.000	854.533	680.190
308.993	25.932	854.390	679.759
310.008	26.324	853.670	680.600
311.022	26.648	853.225	681.406
312.037	26.403	852.411	679.774
313.052	26.212	852.255	678.872
314.066	26.029	851.253	677.325
315.081	25.538	849.409	673.959
316.095	24.518	848.205	669.125
317.110	25.071	848.801	671.609
318.125	25.874	849.204	674.876
319.139	25.615	848.240	673.083
320.154	24.423	846.124	666.891
321.168	23.967	845.086	664.311
322.183	24.553	845.765	666.975
323.197	25.350	846.285	670.304
324.212	25.696	845.899	671.230
325.227	26.006	845.409	671.936
326.241	26.144	844.962	672.035
327.256	26.150	844.006	671.237
328.270	25.863	843.847	669.984
329.285	25.915	843.162	669.576
330.300	25.615	842.190	667.630
331.314	25.545	841.120	666.462
332.329	25.583	840.925	666.392
333.343	25.931	840.520	667.300
334.358	26.190	840.216	667.956
335.373	26.333	839.643	667.972
336.387	26.171	839.328	667.064
337.402	26.505	838.756	667.781
338.416	26.662	838.557	668.145
339.431	26.637	837.931	667.495
340.446	26.701	837.602	667.409
341.460	27.015	836.818	667.879
342.475	26.908	836.313	667.023
343.489	26.648	835.849	665.639
344.504	26.628	835.079	664.894
345.519	27.051	834.267	665.742
346.533	27.188	834.502	666.371
347.548	27.144	834.079	665.814
348.562	27.241	833.473	665.625
349.577	27.076	832.737	664.374
350.592	27.151	831.944	663.959
351.606	27.062	831.697	663.378
352.621	26.955	831.165	662.505
353.635	26.858	830.631	661.666
354.650	26.831	830.011	661.015
355.665	26.403	829.192	658.743
356.679	25.407	827.498	653.717
357.694	25.389	827.195	653.358
358.708	25.895	827.368	655.274
359.723	25.960	826.487	654.756
360.738	26.146	826.225	655.163
361.752	26.610	826.219	656.784
362.767	26.750	825.686	656.810
363.781	27.019	825.641	657.693
364.796	27.207	825.625	658.302
365.810	27.373	825.064	658.395
366.825	27.525	824.436	658.386
367.840	27.485	824.603	658.316
368.854	27.285	823.831	656.919
369.869	26.841	823.034	654.625
370.883	26.544	822.326	652.932
371.898	26.649	822.025	653.012
372.913	26.647	820.781	651.961
373.927	26.772	819.931	651.679
374.942	26.714	820.204	651.627
375.956	27.006	819.026	651.683
376.971	27.031	818.860	651.584
377.986	27.257	818.435	651.997
379.000	27.296	818.049	651.770
380.015	27.332	817.377	651.308
381.029	27.130	817.002	650.230
382.044	27.228	815.987	649.713
383.059	27.328	815.797	649.862
384.073	27.405	815.278	649.664
385.088	27.284	814.919	648.891
386.102	27.344	814.559	648.759
387.117	27.252	813.204	647.296
388.132	27.002	812.803	646.029
389.146	26.765	812.550	644.928
390.161	26.247	811.234	641.986
391.175	26.298	811.178	642.065
392.190	27.134	811.130	644.940
393.205	26.995	810.860	644.175
394.219	25.993	808.754	638.897
395.234	24.341	806.361	631.111
396.248	23.532	805.317	627.377
397.263	24.627	806.521	632.135
398.278	26.475	808.016	639.795
399.292	26.820	807.671	640.682
400.307	26.649	806.916	639.424
401.321	26.543	806.680	638.805
402.336	26.467	806.237	638.132
403.350	26.912	806.086	639.523
404.365	27.546	805.950	641.591
405.380	27.692	805.870	641.985
406.394	27.970	805.639	642.724
407.409	28.384	804.632	643.316
408.423	28.074	804.718	642.240
409.438	28.021	804.047	641.462
410.453	27.988	803.741	641.044
411.467	28.227	803.356	641.518
412.482	28.009	802.635	640.123
413.496	28.057	802.262	639.936
414.511	28.113	802.292	640.101
415.526	28.253	801.194	639.657
416.540	28.033	801.007	638.681
417.555	27.926	800.511	637.858
418.569	27.741	799.511	636.358
419.584	27.860	799.088	636.381
420.599	27.824	798.951	636.089
421.613	110.264	1285.951	1459.287
422.628	95.031	1356.905	1459.395
