DTS Sentinel unit serial number:	SN413079Multiplexer serial number:	ORYXHardware model number:	OX4-SRSoftware version number:	ORYX F/W v4.00 Oryx Data Collector v3.7.2.0data status	okinstallation	princeton_trtdifferential loss correction	single-endedforward channel	channel 3reverse channel	N/Adate	2019/09/10time	19:18:11forward acquisition time	60.00reverse acquisition time	0.00gamma	496.2192k internal	0.2317k external	0.2317temperature offset calibration	0.9922default loss term (dB/km)	0.3790temperature slope calibration	1.0000multiplexer offset coefficient	1.0000multiplexer slope coefficient	1.0000fibre end	0.00T internal ref (°C)	33.87T ext. ref 1 (°C)	-0.25T ext. ref 2 (°C)	26.31length (m)	temperature (°C)	Stokes	anti-Stokes-747.200	-176.677	0.178	-0.005
-746.185	457.360	0.070	-0.156
-745.171	346.207	-0.030	0.061
-744.156	-40.308	0.302	0.159
-743.142	-200.000	0.015	0.183
-742.127	-200.000	0.001	0.071
-741.112	800.000	0.025	0.093
-740.098	-44.021	-0.391	0.199
-739.083	27.080	-0.255	0.217
-738.069	33.619	-0.378	0.333
-737.054	349.090	-0.046	-0.092
-736.039	1.289	-0.250	0.182
-735.025	-200.000	-0.023	-0.292
-734.010	-200.000	0.068	-0.311
-732.996	-53.816	-0.401	-0.185
-731.981	364.222	-0.055	0.112
-730.966	24.422	-0.162	0.135
-729.952	-168.643	-0.170	-0.007
-728.937	65.160	0.170	-0.173
-727.923	-94.834	-0.276	0.076
-726.908	-200.000	0.002	-0.018
-725.894	-34.448	0.120	-0.067
-724.879	-197.620	0.356	0.002
-723.864	-200.000	0.022	-0.127
-722.850	-179.536	-0.188	-0.004
-721.835	1.383	-0.059	0.043
-720.821	-40.932	0.148	-0.077
-719.806	218.608	0.153	-0.248
-718.791	608.910	-0.058	0.146
-717.777	-143.351	-0.055	0.005
-716.762	336.677	0.125	-0.245
-715.748	-122.615	-0.407	-0.067
-714.733	-51.484	0.040	-0.019
-713.718	-135.217	-0.226	-0.027
-712.704	-28.204	0.220	-0.128
-711.689	3.510	-0.161	-0.119
-710.675	130.785	-0.116	-0.150
-709.660	513.299	0.037	-0.087
-708.645	108.519	-0.254	0.306
-707.631	-160.115	-0.275	0.015
-706.616	800.000	0.015	0.043
-705.602	373.872	0.010	-0.020
-704.587	447.559	-0.133	-0.295
-703.572	800.000	0.054	0.209
-702.558	-200.000	-0.039	0.259
-701.543	-67.063	0.138	0.055
-700.529	520.953	-0.076	0.180
-699.514	363.633	-0.086	-0.174
-698.499	-101.111	-0.196	0.049
-697.485	-41.976	-0.218	-0.113
-696.470	-79.160	-0.255	0.088
-695.456	-103.449	0.319	-0.076
-694.441	-4.561	-0.114	0.080
-693.426	178.111	-0.180	0.265
-692.412	235.474	-0.173	-0.288
-691.397	800.000	0.072	-0.206
-690.383	20.480	0.178	0.145
-689.368	-200.000	0.006	-0.110
-688.354	191.120	0.097	0.148
-687.339	58.844	-0.071	-0.071
-686.324	70.303	0.384	-0.400
-685.310	8.560	0.144	-0.109
-684.295	-200.000	0.019	0.134
-683.281	17.300	0.236	0.189
-682.266	191.372	-0.202	0.307
-681.251	-164.150	-0.073	-0.003
-680.237	800.000	-0.121	-0.442
-679.222	284.943	-0.156	-0.284
-678.208	14.916	-0.052	0.041
-677.193	-53.404	0.124	0.057
-676.178	602.093	-0.049	0.123
-675.164	150.213	-0.084	-0.115
-674.149	-83.322	-0.200	-0.065
-673.135	-4.845	-0.117	-0.081
-672.120	183.582	0.213	-0.318
-671.105	239.096	-0.148	-0.248
-670.091	-62.637	0.185	-0.077
-669.076	-96.531	0.346	0.092
-668.062	-63.513	-0.135	-0.056
-667.047	800.000	0.087	-0.266
-666.032	98.788	0.005	-0.006
-665.018	-40.196	0.112	-0.059
-664.003	5.510	0.122	0.091
-662.989	800.000	0.054	-0.207
-661.974	800.000	-0.023	0.076
-660.959	298.485	0.060	0.111
-659.945	318.595	-0.147	-0.281
-658.930	-170.709	-0.243	0.008
-657.916	109.621	-0.151	0.183
-656.901	800.000	0.060	0.187
-655.886	47.876	0.065	0.061
-654.872	409.220	0.029	-0.062
-653.857	800.000	0.030	-0.098
-652.843	-28.996	-0.141	-0.082
-651.828	38.834	0.131	0.118
-650.814	-71.634	0.402	0.151
-649.799	84.338	0.177	0.195
-648.784	-119.220	-0.340	0.060
-647.770	-147.892	0.312	-0.026
-646.755	121.596	-0.138	0.173
-645.741	-68.541	-0.180	0.070
-644.726	-116.151	0.229	-0.043
-643.711	-55.217	-0.200	-0.091
-642.697	18.559	0.115	-0.093
-641.682	207.097	-0.070	-0.111
-640.668	86.134	-0.164	0.182
-639.653	-26.590	-0.296	-0.175
-638.638	214.034	-0.182	-0.290
-637.624	-51.405	0.280	-0.132
-636.609	-200.000	0.005	-0.093
-635.595	239.824	-0.135	-0.227
-634.580	800.000	0.112	0.358
-633.565	656.120	-0.122	-0.317
-632.551	247.178	-0.231	-0.394
-631.536	-12.837	-0.323	-0.212
-630.522	-200.000	0.005	-0.210
-629.507	78.375	-0.293	-0.316
-628.492	800.000	0.043	-0.186
-627.478	83.051	-0.045	0.049
-626.463	-66.156	0.222	0.089
-625.449	41.635	0.329	0.300
-624.434	-113.056	0.289	0.057
-623.419	527.397	-0.131	-0.312
-622.405	-161.239	-0.198	-0.010
-621.390	800.000	-0.051	-0.170
-620.376	-157.678	-0.217	-0.013
-619.361	-49.895	-0.238	0.114
-618.346	-29.763	0.193	-0.111
-617.332	-47.356	0.084	-0.041
-616.317	119.557	0.061	-0.076
-615.303	257.214	0.146	-0.252
-614.288	-114.096	0.338	0.066
-613.273	-4.986	0.216	-0.150
-612.259	-132.215	-0.255	-0.033
-611.244	-200.000	0.015	0.122
-610.230	361.767	0.028	0.057
-609.215	43.603	-0.145	-0.133
-608.201	-133.619	0.200	0.025
-607.186	28.320	-0.258	0.219
-606.171	-53.916	0.118	0.054
-605.157	800.000	-0.047	0.153
-604.142	-77.595	-0.136	-0.047
-603.128	361.020	0.033	-0.066
-602.113	57.863	0.086	-0.085
-601.098	210.944	0.131	0.208
-600.084	71.627	-0.276	-0.289
-599.069	-123.507	-0.292	-0.047
-598.055	-65.356	0.171	0.069
-597.040	-145.136	0.097	-0.009
-596.025	270.905	0.053	-0.093
-595.011	80.523	-0.125	0.136
-593.996	163.947	0.158	0.224
-592.982	-53.701	0.179	0.082
-591.967	-17.241	0.055	0.035
-590.952	-8.313	-0.248	-0.168
-589.938	-200.000	0.006	0.031
-588.923	800.000	0.045	0.142
-587.909	67.851	-0.224	-0.230
-586.894	-200.000	0.039	-0.327
-585.879	179.756	-0.177	-0.261
-584.865	-21.170	-0.284	0.175
-583.850	199.096	0.161	-0.249
-582.836	47.996	0.104	-0.098
-581.821	-200.000	-0.042	-0.237
-580.806	19.430	-0.300	-0.243
-579.792	-38.131	-0.288	-0.154
-578.777	36.706	0.317	0.282
-577.763	-77.747	0.354	0.123
-576.748	451.970	0.068	0.152
-575.733	-45.989	-0.303	0.150
-574.719	0.793	-0.061	-0.044
-573.704	-46.550	-0.070	-0.035
-572.690	-200.000	0.086	-0.405
-571.675	16.638	-0.160	-0.127
-570.661	800.000	0.081	-0.260
-569.646	-64.005	0.318	-0.131
-568.631	-104.981	-0.194	0.045
-567.617	-37.668	0.074	0.039
-566.602	-154.449	-0.224	0.015
-565.588	83.809	-0.054	0.060
-564.573	395.327	0.085	-0.179
-563.558	-200.000	0.025	-0.277
-562.544	-54.286	0.115	-0.053
-561.529	60.986	0.222	0.221
-560.515	-44.792	-0.212	0.106
-559.500	28.931	0.219	-0.187
-558.485	-42.725	-0.277	0.142
-557.471	213.569	-0.223	-0.354
-556.456	-126.216	-0.301	0.045
-555.442	-27.434	-0.224	-0.131
-554.427	-64.007	0.181	0.074
-553.412	524.382	-0.058	0.136
-552.398	-181.882	-0.124	-0.002
-551.383	40.719	0.372	0.337
-550.369	563.990	0.018	0.043
-549.354	800.000	-0.042	-0.153
-548.339	47.202	-0.073	-0.068
-547.325	697.868	0.066	-0.175
-546.310	563.173	0.052	-0.126
-545.296	194.871	0.100	-0.152
-544.281	-200.000	0.030	-0.179
-543.266	-158.367	0.203	0.012
-542.252	-102.101	0.220	-0.053
-541.237	-79.199	-0.278	-0.095
-540.223	31.757	-0.056	-0.048
-539.208	198.831	0.081	-0.124
-538.193	-58.576	-0.089	0.039
-537.179	130.298	-0.159	0.205
-536.164	-200.000	-0.035	0.241
-535.150	-157.358	0.120	0.007
-534.135	52.107	-0.299	-0.286
-533.121	177.082	-0.166	0.242
-532.106	344.588	0.037	0.072
-531.091	-200.000	-0.047	0.306
-530.077	74.902	0.072	0.076
-529.062	-88.791	-0.210	0.063
-528.048	800.000	0.068	0.221
-527.033	740.035	-0.060	-0.162
-526.018	-124.986	0.258	-0.040
-525.004	325.203	-0.044	-0.084
-523.989	205.649	0.132	-0.205
-522.975	166.691	-0.072	-0.102
-521.960	-111.315	0.038	-0.008
-520.945	137.015	0.194	-0.255
-519.931	17.983	0.260	0.208
-518.916	-9.415	-0.123	-0.083
-517.902	-74.650	-0.233	-0.084
-516.887	375.567	0.218	-0.446
-515.872	-200.000	-0.012	-0.361
-514.858	-70.609	0.195	-0.074
-513.843	147.421	0.150	-0.202
-512.829	21.350	-0.134	0.110
-511.814	-116.788	-0.225	0.041
-510.799	800.000	-0.043	0.142
-509.785	291.367	0.116	-0.212
-508.770	-149.713	-0.306	0.024
-507.756	98.468	0.262	0.303
-506.741	-88.182	0.263	-0.079
-505.726	31.826	-0.118	-0.102
-504.712	133.652	0.138	0.179
-503.697	-200.000	0.023	-0.141
-502.683	16.239	-0.255	-0.201
-501.668	-80.971	-0.384	0.128
-500.653	160.369	-0.099	0.139
-499.639	128.786	-0.291	0.372
-498.624	-17.432	0.241	-0.152
-497.610	800.000	-0.092	-0.279
-496.595	-79.342	0.043	0.015
-495.581	657.914	0.063	0.162
-494.566	-200.000	-0.001	-0.264
-493.551	-123.881	-0.128	0.020
-492.537	-200.000	-0.041	0.424
-491.522	-134.541	-0.265	0.032
-490.508	-137.257	-0.371	-0.042
-489.493	91.054	0.068	0.076
-488.478	-127.005	-0.210	0.031
-487.464	-67.893	0.142	0.055
-486.449	-61.524	-0.386	0.162
-485.435	-200.000	0.020	-0.188
-484.420	-153.269	-0.303	0.021
-483.405	-83.385	-0.252	0.081
-482.391	230.430	-0.187	0.307
-481.376	503.950	-0.102	0.237
-480.362	-143.039	-0.202	0.020
-479.347	-65.349	0.260	0.105
-478.332	-16.108	-0.104	-0.066
-477.318	62.539	-0.154	-0.154
-476.303	56.783	0.162	-0.158
-475.289	-82.993	0.066	-0.021
-474.274	-85.222	0.097	-0.030
-473.259	212.609	-0.082	0.130
-472.245	-83.268	0.198	-0.064
-471.230	-200.000	-0.001	-0.058
-470.216	-80.716	-0.227	0.076
-469.201	-200.000	0.040	0.209
-468.186	243.003	0.187	-0.314
-467.172	-74.251	-0.233	-0.084
-466.157	-142.749	0.097	-0.009
-465.143	-130.816	0.414	-0.056
-464.128	-74.941	0.590	0.212
-463.113	-147.504	0.184	0.016
-462.099	267.018	0.113	0.197
-461.084	536.581	0.078	0.185
-460.070	-0.411	-0.041	-0.029
-459.055	486.594	0.020	0.045
-458.040	-135.951	0.511	-0.060
-457.026	-200.000	-0.013	-0.212
-456.011	445.805	-0.051	0.111
-454.997	-152.830	-0.067	0.005
-453.982	-172.719	-0.274	0.009
-452.968	757.167	-0.064	-0.172
-451.953	-57.366	0.164	-0.072
-450.938	-161.618	0.049	0.003
-449.924	-175.256	0.167	-0.005
-448.909	143.161	-0.128	0.170
-447.895	-189.507	0.178	0.002
-446.880	-200.000	0.023	-0.227
-445.865	-200.000	0.013	0.078
-444.851	-159.862	0.214	-0.012
-443.836	-123.386	0.110	-0.018
-442.822	800.000	0.040	-0.142
-441.807	684.661	-0.119	-0.311
-440.792	-149.312	0.316	0.025
-439.778	-93.337	-0.340	0.094
-438.763	-53.369	0.234	0.107
-437.749	-200.000	0.013	-0.170
-436.734	40.462	0.051	-0.046
-435.719	-200.000	-0.024	-0.255
-434.705	-29.947	-0.171	-0.097
-433.690	-83.783	-0.266	0.085
-432.676	100.615	-0.366	-0.425
-431.661	109.306	0.197	-0.236
-430.646	707.283	0.085	-0.223
-429.632	-200.000	-0.028	0.258
-428.617	114.670	0.055	0.067
-427.603	77.317	0.368	0.391
-426.588	345.552	0.039	0.077
-425.573	-66.591	-0.514	0.204
-424.559	-147.559	-0.414	0.035
-423.544	-168.072	-0.400	0.016
-422.530	-158.281	0.244	0.014
-421.515	113.736	0.175	0.213
-420.500	-115.159	-0.184	-0.035
-419.486	259.915	-0.091	0.156
-418.471	98.693	-0.097	0.112
-417.457	-105.536	-0.260	0.059
-416.442	-130.666	-0.139	-0.019
-415.428	800.000	-0.097	0.275
-414.413	-74.422	-0.138	0.050
-413.398	-84.705	0.358	-0.113
-412.384	-200.000	-0.048	0.443
-411.369	132.824	-0.142	0.183
-410.355	188.596	0.169	0.252
-409.340	-70.526	-0.264	-0.100
-408.325	110.342	0.119	0.143
-407.311	399.622	-0.163	0.341
-406.296	197.056	0.151	0.230
-405.282	-3.936	0.168	-0.117
-404.267	-200.000	0.025	0.197
-403.252	2.178	-0.169	-0.122
-402.238	-200.000	-0.028	-0.289
-401.223	-170.914	-0.117	0.004
-400.209	-200.000	0.072	0.328
-399.194	108.727	0.236	0.281
-398.179	800.000	-0.018	0.073
-397.165	128.127	-0.109	0.138
-396.150	24.596	0.137	-0.113
-395.136	14.134	-0.155	-0.121
-394.121	-200.000	-0.021	-0.181
-393.106	203.642	-0.120	0.186
-392.092	-8.603	0.277	0.185
-391.077	-177.176	-0.382	0.009
-390.063	-145.054	0.152	0.014
-389.048	132.300	0.102	0.131
-388.033	-68.694	0.369	0.143
-387.019	-117.419	0.248	0.045
-386.004	-49.662	-0.190	0.090
-384.990	-200.000	-0.021	-0.219
-383.975	-29.698	0.138	-0.079
-382.960	26.095	0.109	-0.091
-381.946	168.103	-0.085	-0.121
-380.931	-78.969	-0.138	0.047
-379.917	72.396	0.257	0.267
-378.902	800.000	-0.047	-0.182
-377.888	242.091	-0.140	0.234
-376.873	-200.000	0.021	-0.156
-375.858	800.000	-0.026	-0.081
-374.844	-61.296	-0.169	0.071
-373.829	99.022	0.143	-0.165
-372.815	242.672	-0.084	0.141
-371.800	29.507	-0.095	0.081
-370.785	14.380	0.118	-0.092
-369.771	386.681	-0.130	0.267
-368.756	470.761	-0.160	0.358
-367.742	-111.667	0.105	-0.021
-366.727	800.000	0.020	0.058
-365.712	-139.138	0.101	-0.011
-364.698	176.119	-0.079	-0.115
-363.683	-55.459	-0.283	0.127
-362.669	-200.000	-0.004	-0.124
-361.654	-81.995	0.233	-0.076
-360.639	475.528	-0.069	-0.155
-359.625	-200.000	0.050	-0.301
-358.610	-149.461	0.287	-0.023
-357.596	15.401	-0.192	0.150
-356.581	-148.481	0.064	0.005
-355.566	342.145	0.127	-0.247
-354.552	-59.534	-0.149	0.064
-353.537	106.184	0.132	-0.156
-352.523	-110.209	0.224	0.047
-351.508	33.485	0.100	-0.086
-350.493	212.004	0.154	-0.242
-349.479	88.455	-0.187	-0.207
-348.464	-162.899	-0.334	-0.016
-347.450	-200.000	0.057	-0.267
-346.435	-200.000	-0.019	0.261
-345.420	78.192	-0.124	-0.132
-344.406	-115.063	0.194	-0.037
-343.391	800.000	0.103	0.300
-342.377	212.007	-0.143	0.225
-341.362	477.635	0.065	0.147
-340.348	800.000	-0.051	0.194
-339.333	-200.000	-0.010	-0.195
-338.318	407.921	0.052	0.110
-337.304	800.000	-0.067	0.188
-336.289	506.935	0.047	-0.109
-335.275	29.651	0.184	-0.156
-334.260	-16.003	-0.086	0.054
-333.245	61.463	0.275	-0.272
-332.231	475.256	0.079	-0.178
-331.216	-76.209	-0.156	0.055
-330.202	-124.221	0.213	-0.033
-329.187	-75.415	-0.195	0.069
-328.172	800.000	-0.037	-0.132
-327.158	-9.352	0.071	-0.047
-326.143	-200.000	-0.046	-0.294
-325.129	-28.157	0.034	0.020
-324.114	800.000	-0.071	0.276
-323.099	16.680	-0.256	0.201
-322.085	312.527	0.176	-0.330
-321.070	-200.000	-0.026	0.166
-320.056	71.410	-0.148	-0.153
-319.041	231.573	-0.043	-0.071
-318.026	72.136	0.208	-0.216
-317.012	39.492	0.334	-0.298
-315.997	-200.000	0.001	0.162
-314.983	145.384	-0.165	-0.220
-313.968	-200.000	-0.045	0.432
-312.953	-40.372	-0.090	-0.047
-311.939	119.025	0.154	0.189
-310.924	100.393	-0.221	0.255
-309.910	-200.000	0.025	0.142
-308.895	-200.000	-0.003	0.020
-307.880	13.597	-0.107	-0.083
-306.866	469.105	-0.075	-0.167
-305.851	-27.706	0.198	0.114
-304.837	738.862	0.087	0.231
-303.822	208.196	-0.114	0.177
-302.807	51.549	-0.147	-0.139
-301.793	-141.942	-0.070	-0.007
-300.778	-39.405	0.169	0.088
-299.764	-58.082	0.211	-0.091
-298.749	-34.739	0.156	-0.085
-297.735	-26.836	-0.026	0.015
-296.720	-200.000	-0.015	-0.253
-295.705	-200.000	0.016	0.106
-294.691	74.371	-0.079	-0.083
-293.676	-104.426	-0.048	0.011
-292.662	70.827	0.246	0.254
-291.647	160.499	-0.130	0.180
-290.632	80.081	0.136	0.146
-289.618	26.553	0.111	0.092
-288.603	-200.000	0.009	-0.095
-287.589	42.650	-0.242	0.219
-286.574	-71.475	0.466	0.174
-285.559	-117.564	0.199	-0.036
-284.545	514.877	0.027	-0.063
-283.530	-33.240	0.244	-0.134
-282.516	-130.907	0.095	0.013
-281.501	118.064	-0.172	0.211
-280.486	-35.460	-0.237	0.128
-279.472	-79.838	0.334	-0.112
-278.457	-90.249	-0.187	0.054
-277.443	282.123	0.309	0.550
-276.428	-118.344	0.096	0.017
-275.413	-81.639	-0.181	-0.059
-274.399	-80.146	-0.166	0.055
-273.384	609.781	-0.120	-0.299
-272.370	-200.000	-0.009	-0.228
-271.355	-170.977	-0.215	0.007
-270.340	46.301	0.075	-0.069
-269.326	-200.000	0.000	0.431
-268.311	-144.260	0.282	-0.026
-267.297	101.244	0.165	-0.191
-266.282	56.728	0.028	0.027
-265.267	18.593	0.125	0.100
-264.253	-132.546	-0.040	-0.005
-263.238	-79.044	0.228	0.077
-262.224	-24.072	-0.400	0.237
-261.209	-46.833	0.272	0.132
-260.195	77.796	0.099	-0.104
-259.180	-173.500	0.099	0.003
-258.165	-91.637	-0.220	0.062
-257.151	19.506	0.275	0.220
-256.136	205.614	-0.071	0.110
-255.122	2.468	0.268	-0.192
-254.107	-200.000	0.016	0.160
-253.092	-8.510	0.132	0.088
-252.078	528.988	0.198	-0.465
-251.063	375.961	-0.115	0.234
-250.049	-118.975	-0.042	-0.007
-249.034	129.015	-0.264	-0.334
-248.019	-200.000	0.022	0.231
-247.005	-55.534	0.063	-0.028
-245.990	800.000	0.069	-0.211
-244.976	165.013	-0.117	0.163
-243.961	-200.000	0.006	0.299
-242.946	-200.000	-0.010	0.201
-241.932	-200.000	-0.037	-0.438
-240.917	91.888	0.109	0.122
-239.903	-138.525	-0.374	0.041
-238.888	-23.353	0.237	0.141
-237.873	35.846	0.289	0.252
-236.859	800.000	-0.121	0.353
-235.844	1.584	-0.156	0.112
-234.830	195.216	0.162	0.243
-233.815	-200.000	-0.024	-0.147
-232.800	-200.000	0.010	-0.128
-231.786	-200.000	0.003	0.053
-230.771	800.000	-0.096	-0.360
-229.757	-43.958	0.064	-0.032
-228.742	21.947	0.143	-0.116
-227.727	-6.630	-0.218	0.147
-226.713	-200.000	-0.004	0.339
-225.698	-200.000	-0.017	-0.082
-224.684	-200.000	-0.025	-0.168
-223.669	-200.000	-0.012	-0.225
-222.655	225.005	0.030	-0.048
-221.640	-90.507	0.160	-0.046
-220.625	-103.498	0.176	-0.041
-219.611	120.983	0.103	-0.127
-218.596	357.395	-0.149	-0.295
-217.582	13.526	-0.149	0.115
-216.567	127.627	-0.188	0.236
-215.552	800.000	-0.073	0.239
-214.538	-200.000	0.023	-0.232
-213.523	249.902	0.137	0.231
-212.509	79.436	-0.074	-0.078
-211.494	-95.803	0.104	-0.027
-210.479	307.452	0.047	-0.087
-209.465	267.923	-0.053	0.092
-208.450	-200.000	-0.005	-0.342
-207.436	-200.000	-0.016	-0.201
-206.421	-105.930	-0.207	0.046
-205.406	-6.271	-0.293	0.198
-204.392	282.903	0.093	0.165
-203.377	-130.295	0.167	0.023
-202.363	-102.617	0.246	-0.058
-201.348	-124.623	-0.098	-0.015
-200.333	-200.000	-0.015	-0.400
-199.319	-200.000	-0.019	0.256
-198.304	210.138	0.091	-0.142
-197.290	137.581	-0.047	-0.061
-196.275	-32.564	-0.055	-0.030
-195.260	-119.115	-0.078	0.013
-194.246	57.138	-0.130	0.126
-193.231	140.471	0.091	-0.118
-192.217	153.523	0.278	-0.378
-191.202	-200.000	-0.011	-0.122
-190.187	-72.015	-0.168	-0.062
-189.173	-22.932	-0.222	0.133
-188.158	-73.418	0.175	0.063
-187.144	2.359	0.078	0.056
-186.129	10.215	0.156	0.117
-185.114	-86.446	0.081	-0.025
-184.100	-74.470	-0.086	0.031
-183.085	-92.398	0.160	-0.045
-182.071	-11.919	0.109	0.071
-181.056	688.791	-0.010	-0.025
-180.042	3.196	0.138	0.099
-179.027	363.043	0.073	0.145
-178.012	-109.214	-0.163	0.034
-176.998	-48.360	0.375	0.179
-175.983	-16.402	-0.407	0.256
-174.969	323.926	0.100	0.189
-173.954	-39.260	-0.245	-0.127
-172.939	-57.966	0.080	-0.035
-171.925	-4.797	0.197	-0.135
-170.910	384.732	-0.140	0.287
-169.896	11.116	0.132	0.100
-168.881	-200.000	-0.010	0.173
-167.866	800.000	-0.020	-0.074
-166.852	-45.299	0.182	0.090
-165.837	-22.402	0.149	0.089
-164.823	-63.019	0.118	0.048
-163.808	-130.706	-0.255	-0.034
-162.793	83.824	-0.062	-0.066
-161.779	388.233	0.086	-0.177
-160.764	800.000	0.014	0.045
-159.750	10.627	-0.385	0.290
-158.735	-169.428	0.331	0.012
-157.720	-87.295	0.275	0.082
-156.706	-189.862	0.200	-0.002
-155.691	457.893	-0.067	-0.146
-154.677	-200.000	0.024	0.146
-153.662	60.405	-0.124	-0.122
-152.647	-72.986	-0.062	0.023
-151.633	-200.000	-0.032	-0.189
-150.618	-200.000	-0.010	-0.273
-149.604	132.604	0.073	-0.094
-148.589	4.134	-0.262	-0.190
-147.574	-200.000	-0.001	-0.297
-146.560	-200.000	0.014	-0.078
-145.545	800.000	-0.045	-0.139
-144.531	189.296	-0.196	0.290
-143.516	800.000	0.031	0.096
-142.502	101.399	0.128	-0.147
-141.487	124.899	0.091	-0.114
-140.472	-38.660	-0.253	-0.132
-139.458	-8.281	0.050	0.034
-138.443	179.170	-0.085	0.124
-137.429	-8.902	0.072	-0.048
-136.414	386.098	0.206	0.421
-135.399	38.946	0.273	0.241
-134.385	-5.426	0.131	-0.089
-133.370	-5.063	0.150	0.102
-132.356	243.244	0.113	-0.187
-131.341	47.489	0.067	0.062
-130.326	-200.000	-0.031	0.326
-129.312	162.493	0.201	0.279
-128.297	270.381	-0.063	0.110
-127.283	-12.366	-0.090	-0.058
-126.268	-89.336	0.161	0.047
-125.253	6.287	0.260	0.190
-124.239	-22.158	-0.076	0.046
-123.224	33.267	0.030	0.026
-122.210	-122.700	0.264	0.042
-121.195	800.000	0.083	0.257
-120.180	164.618	0.048	-0.067
-119.166	-87.058	-0.065	0.019
-118.151	148.793	0.123	0.165
-117.137	-200.000	-0.002	-0.177
-116.122	-37.878	-0.307	-0.161
-115.107	-47.887	-0.182	0.087
-114.093	-98.263	-0.343	0.087
-113.078	46.315	0.040	-0.036
-112.064	-200.000	0.002	0.171
-111.049	-58.484	-0.062	-0.027
-110.034	-151.172	0.373	-0.028
-109.020	-39.396	0.241	-0.125
-108.005	-140.322	0.125	0.013
-106.991	98.975	0.164	0.187
-105.976	-29.141	0.114	0.065
-104.962	528.156	-0.176	-0.411
-103.947	-49.781	0.225	0.105
-102.932	177.695	0.172	0.247
-101.918	255.962	0.076	0.128
-100.903	-176.422	-0.139	-0.004
-99.889	4.881	-0.074	0.054
-98.874	800.000	-0.034	-0.106
-97.859	411.052	0.113	-0.237
-96.845	-200.000	0.053	-0.272
-95.830	19.153	0.070	0.055
-94.816	800.000	-0.093	0.304
-93.801	-61.966	0.168	-0.069
-92.786	169.261	-0.068	0.096
-91.772	800.000	0.083	-0.265
-90.757	284.055	-0.069	0.123
-89.743	119.576	0.136	0.166
-88.728	-200.000	0.076	0.349
-87.713	-110.524	-0.340	-0.069
-86.699	155.340	0.141	0.192
-85.684	800.000	-0.054	0.160
-84.670	-141.271	-0.284	0.028
-83.655	136.735	0.126	0.162
-82.640	-200.000	-0.027	0.231
-81.626	9.624	-0.247	-0.185
-80.611	-35.108	-0.272	0.146
-79.597	-200.000	0.065	-0.282
-78.582	-90.440	-0.156	-0.045
-77.567	71.264	-0.250	0.255
-76.553	23.761	0.118	-0.096
-75.538	381.969	0.027	-0.055
-74.524	318.826	0.064	-0.119
-73.509	-200.000	0.029	0.134
-72.494	-200.000	0.068	-0.388
-71.480	31.767	-0.109	-0.092
-70.465	4.039	0.182	0.131
-69.451	212.621	-0.075	-0.117
-68.436	61.336	-0.159	0.156
-67.422	-104.971	-0.179	-0.040
-66.407	243.886	-0.073	-0.121
-65.392	-73.084	0.039	-0.014
-64.378	621.753	0.098	0.244
-63.363	450.067	0.172	0.374
-62.349	-200.000	0.086	0.657
-61.334	55.447	-0.849	-0.810
-60.319	-45.414	0.737	0.360
-59.305	420.523	-0.448	-0.946
-58.290	160.463	0.791	1.088
-57.276	149.206	1.073	1.432
-56.261	-200.000	103.243	620.527
-55.246	601.444	1442.060	3530.866
-54.232	180.657	2653.793	3839.463
-53.217	117.731	2200.099	2669.192
-52.203	44.245	1728.310	1562.761
-51.188	36.941	1539.690	1341.821
-50.173	34.642	1512.003	1301.982
-49.159	54.357	1566.316	1486.148
-48.144	56.595	1584.628	1519.004
-47.130	37.302	1538.084	1342.704
-46.115	34.118	1522.121	1306.890
-45.100	33.886	1519.261	1302.793
-44.086	33.991	1516.950	1301.475
-43.071	33.861	1515.148	1298.993
-42.057	33.802	1513.810	1297.386
-41.042	33.909	1511.892	1296.420
-40.027	33.864	1510.580	1294.942
-39.013	33.866	1509.151	1293.675
-37.998	33.826	1508.069	1292.424
-36.984	33.864	1506.882	1291.614
-35.969	33.995	1505.023	1290.860
-34.954	33.801	1504.417	1288.970
-33.940	33.892	1502.570	1287.954
-32.925	33.866	1501.475	1286.791
-31.911	33.945	1500.289	1286.257
-30.896	33.947	1499.417	1285.474
-29.881	33.967	1497.377	1283.804
-28.867	33.896	1496.393	1282.434
-27.852	33.959	1494.723	1281.372
-26.838	33.991	1493.406	1280.415
-25.823	33.875	1492.102	1278.459
-24.809	33.890	1490.079	1276.779
-23.794	33.944	1488.636	1275.855
-22.779	33.908	1487.807	1274.849
-21.765	33.876	1486.680	1273.622
-20.750	33.838	1485.298	1272.135
-19.736	33.904	1484.011	1271.421
-18.721	33.869	1483.181	1270.424
-17.706	33.811	1482.483	1269.392
-16.692	33.898	1481.081	1268.716
-15.677	33.794	1480.680	1267.633
-14.663	33.839	1479.649	1266.995
-13.648	33.815	1478.539	1265.839
-12.633	33.892	1476.812	1264.820
-11.619	33.943	1476.075	1264.477
-10.604	33.772	1475.368	1262.688
-9.590	33.856	1474.887	1262.781
-8.575	33.846	1473.788	1261.729
-7.560	33.936	1472.877	1261.492
-6.546	33.858	1472.454	1260.562
-5.531	33.820	1471.520	1259.459
-4.517	33.826	1470.379	1258.471
-3.502	33.784	1469.198	1257.138
-2.487	33.814	1468.098	1256.343
-1.473	33.908	1466.947	1255.931
-0.458	33.740	1466.158	1254.091
0.556	31.407	1456.189	1241.785
1.571	27.970	1428.711	1195.800
2.586	23.943	1365.434	1117.492
3.600	21.953	1282.152	1037.488
4.615	20.823	1237.244	994.612
5.629	17.851	1181.582	933.550
6.644	8.718	1095.562	818.985
7.659	1.080	1053.386	749.711
8.673	-0.112	1047.662	739.702
9.688	-0.225	1044.298	736.709
10.702	-0.398	1042.990	734.870
11.717	-0.284	1040.683	733.739
12.731	2.899	1044.423	751.911
13.746	11.942	1057.205	805.703
14.761	17.941	1065.321	841.466
15.775	18.338	1064.322	842.558
16.790	18.209	1063.145	840.915
17.804	18.083	1061.978	839.300
18.819	17.573	1061.207	836.111
19.834	17.771	1060.870	836.744
20.848	17.820	1060.324	836.480
21.863	17.742	1059.856	835.657
22.877	17.751	1059.024	834.968
23.892	17.762	1058.703	834.694
24.907	17.620	1057.649	833.099
25.921	17.630	1057.819	833.207
26.936	17.744	1056.718	832.822
27.950	17.655	1055.474	831.332
28.965	17.676	1054.162	830.328
29.980	17.540	1052.676	828.423
30.994	17.454	1051.046	826.649
32.009	17.685	1049.875	826.776
33.023	17.780	1049.176	826.611
34.038	17.684	1047.672	824.891
35.053	17.550	1047.124	823.739
36.067	17.758	1046.094	823.858
37.082	17.752	1045.754	823.488
38.096	17.693	1045.343	822.809
39.111	17.893	1044.049	822.684
40.126	18.108	1042.634	822.529
41.140	18.050	1041.314	821.136
42.155	17.852	1039.757	818.883
43.169	17.529	1038.520	816.288
44.184	17.449	1037.598	815.110
45.199	17.524	1036.700	814.690
46.213	17.491	1035.531	813.546
47.228	17.478	1034.538	812.630
48.242	17.534	1033.400	811.930
49.257	17.396	1032.683	810.639
50.271	17.595	1031.578	810.646
51.286	17.625	1030.763	810.074
52.301	17.625	1029.859	809.293
53.315	17.650	1028.941	808.618
54.330	17.700	1027.898	807.966
55.344	17.680	1027.341	807.361
56.359	17.709	1026.160	806.500
57.374	17.715	1025.447	805.895
58.388	17.614	1024.349	804.485
59.403	17.648	1023.428	803.852
60.417	17.624	1023.149	803.449
61.432	17.500	1021.945	801.845
62.447	17.578	1020.917	801.335
63.461	17.790	1020.171	801.675
64.476	17.722	1019.561	800.806
65.490	17.613	1018.876	799.686
66.505	17.491	1018.031	798.380
67.520	17.526	1016.917	797.602
68.534	17.703	1016.433	797.976
69.549	17.623	1015.177	796.545
70.563	17.360	1014.213	794.494
71.578	17.274	1013.297	793.304
72.593	17.320	1012.451	792.784
73.607	17.353	1011.048	791.772
74.622	17.286	1010.335	790.831
75.636	17.482	1009.834	791.278
76.651	17.644	1009.202	791.465
77.666	17.419	1008.282	789.631
78.680	17.353	1007.093	788.325
79.695	17.353	1006.812	788.032
80.709	17.551	1006.003	788.249
81.724	17.574	1005.166	787.627
82.739	17.472	1004.454	786.531
83.753	17.388	1003.845	785.596
84.768	17.786	1002.926	786.640
85.782	17.828	1002.160	786.163
86.797	17.933	1001.208	785.830
87.812	17.852	1000.266	784.651
88.826	17.859	999.190	783.770
89.841	17.751	998.761	782.867
90.855	17.925	997.643	782.722
91.870	17.862	997.134	781.964
92.884	17.884	995.896	781.021
93.899	17.893	994.875	780.196
94.914	17.736	993.839	778.594
95.928	17.853	993.599	778.875
96.943	17.998	992.436	778.556
97.957	17.700	991.323	776.253
98.972	17.592	990.220	774.830
99.987	17.273	989.538	772.778
101.001	17.307	988.346	771.933
102.016	17.634	988.183	773.221
103.030	17.735	987.279	772.904
104.045	17.619	985.681	771.062
105.060	17.533	984.228	769.468
106.074	17.255	983.415	767.507
107.089	17.388	982.711	767.492
108.103	17.738	982.738	769.021
109.118	17.862	981.693	768.696
110.133	17.721	980.409	766.986
111.147	17.652	979.524	765.917
112.162	17.504	978.625	764.484
113.176	17.454	976.993	762.917
114.191	17.636	976.161	763.011
115.206	17.510	975.385	761.776
116.220	17.202	974.626	759.740
117.235	17.163	973.547	758.656
118.249	17.293	972.542	758.387
119.264	17.398	971.482	757.959
120.279	17.340	970.978	757.242
121.293	17.368	969.891	756.452
122.308	17.407	969.497	756.251
123.322	17.480	968.081	755.401
124.337	17.429	967.004	754.271
125.352	17.548	965.491	753.548
126.366	17.149	963.765	750.372
127.381	16.704	962.455	747.323
128.395	17.092	962.638	749.111
129.410	17.772	961.595	751.231
130.424	17.761	960.704	750.419
131.439	17.836	959.593	749.814
132.454	17.715	958.685	748.505
133.468	17.724	957.762	747.758
134.483	17.753	956.741	747.022
135.497	17.725	956.164	746.386
136.512	17.842	955.659	746.435
137.527	17.972	954.634	746.136
138.541	18.000	953.698	745.462
139.556	18.061	953.083	745.183
140.570	18.077	952.012	744.346
141.585	18.027	950.802	743.116
142.600	17.953	950.624	742.593
143.614	17.881	949.470	741.311
144.629	17.991	948.758	741.167
145.643	18.244	948.058	741.651
146.658	17.992	947.217	739.836
147.673	17.922	945.904	738.443
148.687	17.875	944.874	737.370
149.702	17.909	943.862	736.661
150.716	17.791	942.842	735.295
151.731	17.970	941.199	734.716
152.746	17.871	941.045	734.107
153.760	18.043	940.538	734.383
154.775	18.024	939.979	733.801
155.789	18.214	938.972	733.765
156.804	18.076	937.652	732.076
157.819	18.023	936.930	731.225
158.833	18.105	936.155	730.906
159.848	18.172	935.045	730.260
160.862	18.179	934.284	729.631
161.877	17.994	933.630	728.266
162.892	18.060	932.638	727.708
163.906	18.115	931.986	727.370
164.921	18.216	931.006	726.969
165.935	18.132	930.031	725.786
166.950	18.127	928.853	724.784
167.964	18.115	927.928	723.946
168.979	18.163	926.934	723.311
169.994	17.936	925.987	721.548
171.008	17.931	924.628	720.404
172.023	18.177	923.858	720.776
173.037	18.134	923.226	720.037
174.052	17.949	921.897	718.161
175.067	17.767	921.174	716.768
176.081	17.900	920.144	716.460
177.096	18.017	919.904	716.703
178.110	18.032	918.984	715.988
179.125	17.848	917.200	713.764
180.140	17.721	916.327	712.489
181.154	17.708	915.883	712.027
182.169	17.791	915.595	712.085
183.183	17.949	914.762	712.033
184.198	18.214	913.731	712.273
185.213	18.086	913.804	711.732
186.227	18.056	912.945	710.879
187.242	18.059	912.680	710.621
188.256	18.115	911.729	710.050
189.271	18.119	910.978	709.420
190.286	18.208	910.245	709.152
191.300	18.052	909.061	707.522
192.315	17.622	907.950	704.816
193.329	17.254	906.291	701.947
194.344	16.737	906.160	699.648
195.359	17.215	905.975	701.417
196.373	17.869	905.890	703.987
197.388	18.229	905.074	704.774
198.402	18.018	904.491	703.391
199.417	17.837	903.707	701.973
200.432	17.865	903.228	701.654
201.446	17.686	902.508	700.298
202.461	17.455	901.684	698.647
203.475	17.533	900.859	698.265
204.490	17.240	899.400	695.873
205.504	16.233	897.747	690.417
206.519	16.729	897.800	692.423
207.534	17.611	897.956	696.087
208.548	17.626	897.550	695.775
209.563	17.973	897.433	697.037
210.577	17.944	896.650	696.250
211.592	17.605	896.159	694.425
212.607	18.093	895.390	695.756
213.621	18.247	894.619	695.719
214.636	18.082	894.267	694.713
215.650	18.125	893.749	694.424
216.665	17.975	893.293	693.402
217.680	18.177	892.446	693.502
218.694	18.427	891.381	693.624
219.709	17.791	890.837	690.566
220.723	17.707	889.456	689.096
221.738	17.905	889.241	689.669
222.753	18.102	888.903	690.141
223.767	17.997	888.223	689.127
224.782	18.106	886.958	688.525
225.796	18.226	886.358	688.479
226.811	18.217	886.294	688.331
227.826	17.977	885.049	686.341
228.840	17.437	882.993	682.520
229.855	17.296	882.579	681.573
230.869	17.503	882.343	682.161
231.884	17.228	881.692	680.497
232.899	17.323	880.863	680.177
233.913	18.095	880.886	683.220
234.928	18.163	880.551	683.172
235.942	18.080	879.584	682.031
236.957	18.171	878.940	681.834
237.972	18.085	877.827	680.569
238.986	17.964	877.224	679.558
240.001	17.900	877.017	679.083
241.015	17.991	876.142	678.708
242.030	18.097	875.294	678.410
243.045	18.188	874.445	678.053
244.059	18.104	874.057	677.358
245.074	18.354	873.812	678.099
246.088	18.275	872.779	676.928
247.103	17.792	872.119	674.445
248.117	17.876	871.128	673.953
249.132	18.217	870.992	675.133
250.147	18.499	870.731	675.984
251.161	18.505	869.596	675.064
252.176	18.637	869.188	675.210
253.190	18.722	868.398	674.867
254.205	18.831	867.398	674.461
255.220	18.883	867.611	674.770
256.234	18.855	866.781	673.954
257.249	18.660	866.219	672.694
258.263	18.774	865.354	672.408
259.278	18.849	864.748	672.173
260.293	18.838	864.198	671.642
261.307	18.903	863.635	671.401
262.322	18.715	862.967	670.088
263.336	18.541	862.554	669.027
264.351	18.125	860.662	665.881
265.366	17.147	858.790	660.572
266.380	16.767	857.774	658.255
267.395	17.621	857.998	661.688
268.409	18.352	858.289	664.692
269.424	18.290	858.191	664.316
270.439	18.572	857.136	664.535
271.453	18.485	856.794	663.871
272.468	18.630	855.982	663.747
273.482	18.824	855.284	663.894
274.497	18.955	854.757	663.932
275.512	18.708	853.810	662.188
276.526	18.306	852.347	659.446
277.541	18.559	851.635	659.811
278.555	18.768	851.824	660.703
279.570	18.489	850.949	658.891
280.585	18.164	850.026	656.871
281.599	18.425	849.535	657.435
282.614	18.669	848.765	657.715
283.628	18.245	848.052	655.481
284.643	17.909	847.493	653.704
285.657	18.270	847.406	654.961
286.672	18.114	846.376	653.513
287.687	17.921	845.103	651.734
288.701	18.093	844.954	652.217
289.716	18.535	844.399	653.417
290.730	18.132	843.933	651.463
291.745	18.000	843.043	650.217
292.760	17.809	842.056	648.673
293.774	17.857	841.293	648.210
294.789	18.503	842.123	651.247
295.803	19.161	841.519	653.217
296.818	19.267	841.235	653.342
297.833	19.439	840.525	653.385
298.847	19.075	839.252	650.958
299.862	18.773	838.664	649.305
300.876	18.788	838.323	649.039
301.891	19.281	837.624	650.304
302.906	19.211	836.968	649.473
303.920	18.745	835.613	646.606
304.935	18.587	835.272	645.692
305.949	18.904	834.907	646.545
306.964	18.995	834.640	646.623
307.979	19.035	833.347	645.716
308.993	19.043	832.934	645.366
310.008	19.357	832.682	646.291
311.022	19.335	832.571	646.066
312.037	19.207	831.502	644.702
313.052	18.931	831.511	643.618
314.066	19.032	830.431	643.104
315.081	18.467	828.965	639.803
316.095	17.933	827.338	636.497
317.110	18.366	827.785	638.400
318.125	18.923	828.056	640.632
319.139	18.701	827.178	639.067
320.154	17.781	825.853	634.565
321.168	17.558	824.485	632.630
322.183	17.982	824.785	634.379
323.197	18.688	824.844	636.990
324.212	18.846	824.491	637.249
325.227	19.048	824.206	637.720
326.241	19.315	823.768	638.312
327.256	19.243	822.775	637.223
328.270	19.110	822.421	636.398
329.285	19.083	821.860	635.810
330.300	19.025	820.991	634.866
331.314	18.613	820.489	632.904
332.329	18.564	819.779	632.117
333.343	19.049	819.013	633.257
334.358	19.298	818.524	633.738
335.373	19.242	818.005	633.074
336.387	19.175	817.707	632.543
337.402	19.355	817.542	633.020
338.416	19.604	816.874	633.357
339.431	19.618	815.674	632.423
340.446	19.406	815.401	631.380
341.460	19.548	814.950	631.495
342.475	19.620	814.262	631.168
343.489	19.395	813.323	629.562
344.504	19.344	812.789	628.907
345.519	19.511	812.625	629.334
346.533	19.802	812.117	629.946
347.548	19.746	812.168	629.726
348.562	19.739	811.706	629.287
349.577	19.949	811.108	629.532
350.592	19.877	810.578	628.801
351.606	19.841	809.995	628.164
352.621	19.846	809.566	627.793
353.635	19.813	809.200	627.336
354.650	19.657	808.658	626.293
355.665	19.411	807.483	624.437
356.679	18.679	805.702	620.362
357.694	18.456	805.421	619.283
358.708	18.901	805.499	620.897
359.723	18.941	805.009	620.607
360.738	19.408	804.279	621.674
361.752	19.538	804.451	622.222
362.767	19.598	804.208	622.193
363.781	19.889	803.713	622.803
364.796	20.056	803.527	623.205
365.810	20.122	802.942	622.933
366.825	20.227	802.369	622.812
367.840	20.165	802.155	622.368
368.854	19.938	801.422	620.927
369.869	19.678	800.847	619.495
370.883	19.573	800.209	618.572
371.898	19.755	799.516	618.631
372.913	19.739	798.521	617.752
373.927	19.487	797.913	616.324
374.942	19.718	797.863	617.056
375.956	19.749	797.416	616.767
376.971	19.836	796.558	616.357
377.986	19.978	796.056	616.422
379.000	20.026	795.553	616.149
380.015	20.049	795.594	616.206
381.029	19.922	794.553	614.896
382.044	20.021	793.766	614.583
383.059	20.066	793.260	614.299
384.073	20.076	792.861	613.970
385.088	20.123	792.246	613.606
386.102	20.006	792.064	612.994
387.117	20.146	791.051	612.654
388.132	19.976	790.873	611.860
389.146	19.833	790.464	610.985
390.161	19.593	789.371	609.238
391.175	19.598	788.713	608.695
392.190	19.834	789.049	609.730
393.205	19.807	788.520	609.174
394.219	19.015	787.194	605.309
395.234	17.783	785.521	599.641
396.248	17.264	784.434	596.936
397.263	18.133	784.950	600.328
398.278	19.725	785.951	606.633
399.292	20.035	785.928	607.649
400.307	19.866	784.999	606.285
401.321	19.791	784.444	605.538
402.336	19.865	784.382	605.697
403.350	20.086	783.982	606.109
404.365	20.261	783.905	606.607
405.380	20.516	783.435	607.081
406.394	20.772	782.999	607.581
407.409	20.814	782.787	607.510
408.423	20.732	782.008	606.566
409.438	20.639	781.710	605.959
410.453	20.648	781.093	605.458
411.467	20.734	780.872	605.533
412.482	20.736	780.262	605.011
413.496	20.873	779.876	605.135
414.511	20.858	779.593	604.811
415.526	20.878	778.815	604.222
416.540	20.783	778.615	603.682
417.555	20.877	778.172	603.611
418.569	20.480	777.618	601.755
419.584	20.337	776.780	600.558
420.599	20.495	776.327	600.702
421.613	155.883	1359.238	1792.518
422.628	134.564	1444.181	1792.611
