DTS Sentinel unit serial number:	SN413079Multiplexer serial number:	ORYXHardware model number:	OX4-SRSoftware version number:	ORYX F/W v4.00 Oryx Data Collector v3.7.2.0data status	okinstallation	princeton_trtdifferential loss correction	single-endedforward channel	channel 3reverse channel	N/Adate	2019/09/11time	22:46:11forward acquisition time	60.00reverse acquisition time	0.00gamma	496.2192k internal	0.2315k external	0.2315temperature offset calibration	1.0048default loss term (dB/km)	0.3790temperature slope calibration	1.0000multiplexer offset coefficient	1.0000multiplexer slope coefficient	1.0000fibre end	0.00T internal ref (°C)	34.81T ext. ref 1 (°C)	1.84T ext. ref 2 (°C)	29.01length (m)	temperature (°C)	Stokes	anti-Stokes-747.200	-101.559	0.084	-0.021
-746.185	-39.227	0.084	-0.045
-745.171	76.862	-0.204	-0.220
-744.156	329.183	-0.058	0.112
-743.142	5.696	0.323	-0.242
-742.127	-99.059	0.222	-0.057
-741.112	18.140	0.105	-0.085
-740.098	-22.704	-0.039	0.024
-739.083	800.000	0.064	0.208
-738.069	800.000	0.068	0.293
-737.054	1.175	0.152	-0.111
-736.039	-200.000	-0.251	0.001
-735.025	-75.438	-0.182	-0.066
-734.010	-6.273	-0.145	-0.100
-732.996	0.304	-0.230	-0.166
-731.981	-200.000	0.018	0.107
-730.966	-11.493	0.426	-0.284
-729.952	-194.918	-0.272	0.002
-728.937	199.650	-0.047	-0.073
-727.923	52.685	0.125	0.121
-726.908	530.747	0.058	-0.138
-725.894	775.964	-0.049	-0.136
-724.879	-38.526	-0.219	0.117
-723.864	-200.000	-0.008	-0.038
-722.850	294.589	0.113	0.210
-721.835	101.373	-0.027	0.032
-720.821	31.765	-0.060	-0.052
-719.806	-84.477	0.205	0.066
-718.791	-116.111	0.097	0.018
-717.777	-147.346	-0.334	-0.029
-716.762	45.658	-0.093	0.087
-715.748	-43.183	-0.108	0.056
-714.733	162.164	-0.087	0.123
-713.718	-60.386	0.193	0.083
-712.704	97.216	-0.081	0.094
-711.689	-168.562	-0.272	-0.010
-710.675	-25.580	0.127	0.076
-709.660	-42.301	0.087	-0.045
-708.645	147.158	-0.153	-0.208
-707.631	-53.425	0.326	0.151
-706.616	435.734	-0.023	-0.050
-705.602	-117.362	-0.301	0.055
-704.587	800.000	-0.083	-0.239
-703.572	521.482	-0.038	0.089
-702.558	-68.645	-0.329	0.129
-701.543	146.228	0.101	-0.137
-700.529	632.360	-0.063	0.162
-699.514	20.393	-0.176	-0.144
-698.499	-151.856	0.147	-0.011
-697.485	-83.325	0.324	0.105
-696.470	-83.642	0.356	-0.115
-695.456	-82.910	-0.350	0.114
-694.441	447.261	-0.082	-0.182
-693.426	-102.254	-0.261	0.064
-692.412	23.222	0.152	-0.126
-691.397	123.996	-0.119	-0.151
-690.383	190.203	-0.187	-0.285
-689.368	-55.439	-0.136	0.062
-688.354	282.092	-0.063	-0.115
-687.339	-200.000	0.021	0.149
-686.324	-141.115	-0.225	0.023
-685.310	272.340	0.041	-0.073
-684.295	242.663	-0.080	0.135
-683.281	800.000	-0.087	-0.301
-682.266	367.950	-0.090	-0.185
-681.251	282.736	0.136	-0.247
-680.237	-63.797	-0.146	-0.060
-679.222	-200.000	0.012	-0.128
-678.208	69.598	-0.322	-0.335
-677.193	324.329	0.035	-0.068
-676.178	-29.665	0.235	0.135
-675.164	54.648	0.052	-0.051
-674.149	364.357	-0.194	-0.393
-673.135	8.546	-0.257	-0.195
-672.120	191.919	0.183	0.279
-671.105	-129.987	-0.091	-0.013
-670.091	-200.000	-0.300	-0.000
-669.076	-200.000	-0.001	-0.200
-668.062	-164.323	-0.025	0.001
-667.047	279.408	-0.053	-0.096
-666.032	65.064	0.084	-0.085
-665.018	-120.186	-0.185	-0.032
-664.003	-132.219	0.027	0.004
-662.989	-118.705	-0.123	0.022
-661.974	800.000	-0.043	0.161
-660.959	89.403	-0.194	0.219
-659.945	243.530	0.070	0.119
-658.930	-128.498	0.167	-0.024
-657.916	-120.501	0.187	0.032
-656.901	379.547	0.117	-0.243
-655.886	44.839	0.307	-0.285
-654.872	-6.817	-0.118	0.081
-653.857	281.303	-0.139	0.252
-652.843	-90.646	0.134	0.039
-651.828	-200.000	-0.004	0.246
-650.814	253.536	0.075	0.130
-649.799	132.239	0.412	-0.536
-648.784	61.706	-0.191	-0.192
-647.770	447.612	-0.029	-0.064
-646.755	800.000	-0.080	-0.339
-645.741	-102.849	-0.107	-0.026
-644.726	-63.239	0.233	-0.097
-643.711	-141.765	0.117	0.012
-642.697	800.000	-0.046	-0.133
-641.682	-76.469	-0.298	0.106
-640.668	800.000	-0.032	-0.116
-639.653	-200.000	-0.015	-0.099
-638.638	-45.542	0.085	-0.043
-637.624	-43.080	0.187	-0.096
-636.609	-106.334	-0.286	0.065
-635.595	-36.122	0.225	-0.122
-634.580	-148.659	-0.196	0.016
-633.565	800.000	0.035	-0.105
-632.551	49.620	-0.125	0.119
-631.536	-200.000	0.009	0.139
-630.522	-145.062	-0.135	-0.012
-629.507	-45.656	-0.361	0.180
-628.492	-51.471	-0.180	-0.085
-627.478	-128.055	-0.064	-0.009
-626.463	502.785	-0.029	-0.068
-625.449	372.800	-0.126	0.258
-624.434	-20.414	-0.099	0.061
-623.419	-188.071	0.428	-0.006
-622.405	-120.569	0.192	0.033
-621.390	-114.022	-0.110	0.021
-620.376	-34.575	0.414	0.228
-619.361	-40.410	0.183	-0.096
-618.346	-200.000	0.063	0.412
-617.332	-77.774	-0.306	0.107
-616.317	800.000	0.030	-0.106
-615.303	-121.887	0.176	0.029
-614.288	42.713	-0.313	0.287
-613.273	288.107	0.088	0.160
-612.259	-161.556	0.008	-0.000
-611.244	586.183	-0.069	-0.172
-610.230	-200.000	0.000	0.045
-609.215	-67.250	-0.262	-0.104
-608.201	296.839	-0.017	-0.031
-607.186	112.202	0.115	-0.140
-606.171	439.533	-0.037	0.081
-605.157	120.080	-0.087	-0.109
-604.142	800.000	0.097	0.324
-603.128	205.120	0.018	-0.028
-602.113	-81.682	-0.191	0.063
-601.098	-177.284	0.121	-0.003
-600.084	48.852	-0.098	0.092
-599.069	-200.000	-0.006	-0.141
-598.055	280.098	-0.206	-0.371
-597.040	159.722	-0.279	-0.392
-596.025	-176.765	0.031	0.001
-595.011	-200.000	0.012	-0.131
-593.996	157.318	-0.191	-0.266
-592.982	-200.000	0.046	0.380
-591.967	-92.431	-0.387	-0.110
-590.952	-28.352	0.067	-0.039
-589.938	-16.694	-0.269	-0.172
-588.923	77.837	-0.149	0.160
-587.909	44.918	-0.092	0.085
-586.894	-44.566	-0.385	-0.194
-585.879	703.186	0.053	0.141
-584.865	78.135	0.072	0.077
-583.850	-200.000	0.054	-0.414
-582.836	800.000	0.112	0.317
-581.821	-200.000	0.025	0.151
-580.806	-106.533	0.564	-0.127
-579.792	58.129	0.152	-0.150
-578.777	-200.000	0.042	-0.193
-577.763	-200.000	-0.046	0.232
-576.748	-142.418	0.348	-0.034
-575.733	-64.280	-0.188	0.077
-574.719	20.589	-0.211	-0.172
-573.704	17.437	-0.172	-0.138
-572.690	-200.000	0.016	0.379
-571.675	-200.000	0.019	-0.261
-570.661	-70.370	0.230	0.088
-569.646	-61.823	0.145	0.061
-568.631	305.234	-0.067	0.125
-567.617	-200.000	0.032	-0.199
-566.602	-123.652	-0.236	-0.038
-565.588	26.874	-0.245	0.207
-564.573	409.105	-0.139	-0.296
-563.558	89.554	0.101	-0.113
-562.544	-200.000	0.099	0.440
-561.529	104.142	0.168	0.199
-560.515	66.784	-0.187	-0.191
-559.500	-200.000	0.038	-0.323
-558.485	-79.205	0.165	0.056
-557.471	-96.830	0.179	0.047
-556.456	800.000	-0.017	-0.060
-555.442	800.000	-0.076	0.227
-554.427	-200.000	0.311	-0.001
-553.412	63.034	0.335	-0.338
-552.398	-200.000	0.022	-0.186
-551.383	18.154	-0.128	0.103
-550.369	-79.441	0.075	0.026
-549.354	202.613	0.087	0.135
-548.339	-40.882	0.303	0.158
-547.325	-200.000	-0.083	-0.578
-546.310	-200.000	-0.000	-0.101
-545.296	-200.000	-0.041	0.207
-544.281	70.174	0.100	-0.103
-543.266	-39.616	-0.205	0.108
-542.252	287.045	0.097	0.176
-541.237	-174.503	0.076	-0.002
-540.223	-200.000	0.035	0.281
-539.208	-29.400	-0.081	0.047
-538.193	-38.923	-0.079	-0.042
-537.179	-200.000	-0.011	-0.105
-536.164	800.000	0.098	-0.308
-535.150	200.715	-0.135	-0.209
-534.135	800.000	0.021	0.067
-533.121	79.701	0.152	0.163
-532.106	706.018	-0.059	0.156
-531.091	402.437	0.081	-0.171
-530.077	42.715	0.220	0.201
-529.062	-119.388	0.311	0.054
-528.048	-109.279	-0.257	-0.055
-527.033	-104.846	-0.343	0.079
-526.018	343.239	0.036	0.071
-525.004	88.126	-0.176	0.196
-523.989	800.000	-0.049	-0.163
-522.975	800.000	0.076	-0.216
-521.960	116.232	0.088	0.108
-520.945	186.373	0.066	-0.099
-519.931	215.632	-0.060	-0.096
-518.916	-10.142	-0.052	0.034
-517.902	-152.419	-0.397	-0.029
-516.887	800.000	0.040	-0.125
-515.872	132.299	0.124	-0.161
-514.858	-15.442	-0.261	0.167
-513.843	228.424	0.135	0.220
-512.829	10.298	0.030	0.023
-511.814	-76.824	0.265	0.093
-510.799	119.438	-0.099	-0.122
-509.785	-47.832	0.051	0.025
-508.770	-127.008	0.312	-0.046
-507.756	331.119	-0.052	0.101
-506.741	-6.301	-0.192	0.132
-505.726	-200.000	0.008	0.086
-504.712	14.837	0.242	0.190
-503.697	-14.859	-0.097	-0.062
-502.683	-200.000	-0.025	-0.201
-501.668	107.460	0.286	-0.341
-500.653	10.046	0.087	0.066
-499.639	379.544	0.151	-0.310
-498.624	-10.837	0.173	-0.115
-497.610	-63.436	-0.171	0.071
-496.595	71.776	-0.172	0.179
-495.581	-73.634	0.259	0.095
-494.566	-125.471	-0.186	-0.028
-493.551	-83.101	-0.063	0.020
-492.537	-200.000	0.071	0.397
-491.522	69.407	0.298	-0.308
-490.508	143.340	0.032	-0.043
-489.493	-200.000	-0.063	-0.282
-488.478	71.223	-0.132	0.138
-487.464	420.489	0.004	0.009
-486.449	-5.769	0.053	-0.036
-485.435	-34.564	0.038	-0.021
-484.420	23.584	0.144	-0.119
-483.405	69.001	0.311	0.320
-482.391	569.458	0.083	-0.203
-481.376	-102.328	-0.260	-0.062
-480.362	35.123	0.180	-0.158
-479.347	-110.169	-0.503	0.105
-478.332	343.632	0.097	-0.190
-477.318	-18.979	0.237	0.148
-476.303	152.667	0.040	0.054
-475.289	45.251	-0.059	-0.054
-474.274	83.618	-0.180	-0.197
-473.259	70.115	-0.399	-0.413
-472.245	-2.930	-0.287	0.201
-471.230	-81.169	0.519	0.172
-470.216	-148.387	-0.430	-0.035
-469.201	540.302	0.066	-0.157
-468.186	-200.000	-0.025	-0.273
-467.172	-48.856	-0.268	0.129
-466.157	-80.459	-0.082	-0.028
-465.143	-200.000	-0.020	-0.171
-464.128	-5.242	0.192	0.132
-463.113	-53.560	0.007	-0.003
-462.099	-200.000	-0.066	-0.356
-461.084	-188.123	0.201	-0.003
-460.070	-33.058	0.115	-0.064
-459.055	205.483	-0.035	-0.055
-458.040	341.828	0.209	-0.409
-457.026	-148.786	-0.192	-0.016
-456.011	800.000	-0.031	-0.089
-454.997	800.000	0.041	-0.138
-453.982	-200.000	-0.050	0.308
-452.968	-115.629	0.272	0.051
-451.953	-200.000	-0.034	0.261
-450.938	-104.973	-0.261	0.060
-449.924	-120.779	-0.091	-0.015
-448.909	-165.449	-0.181	-0.008
-447.895	-79.009	-0.046	-0.016
-446.880	-149.459	0.158	0.013
-445.865	800.000	0.144	-0.415
-444.851	130.279	-0.223	0.286
-443.836	140.040	0.181	0.239
-442.822	98.215	0.212	0.244
-441.807	263.533	0.129	0.225
-440.792	-81.376	0.200	-0.066
-439.778	97.678	0.148	0.170
-438.763	232.288	0.040	-0.066
-437.749	-3.639	-0.150	0.104
-436.734	195.024	0.237	-0.360
-435.719	22.659	-0.257	0.211
-434.705	318.604	-0.040	-0.076
-433.690	-90.408	-0.061	-0.018
-432.676	-183.144	-0.576	0.010
-431.661	-37.537	0.102	-0.055
-430.646	-156.549	-0.268	-0.017
-429.632	-106.653	0.361	0.080
-428.617	-85.745	-0.150	0.047
-427.603	800.000	0.107	0.303
-426.588	-97.776	0.112	0.029
-425.573	-200.000	0.032	-0.288
-424.559	-161.659	-0.031	0.002
-423.544	376.457	-0.168	-0.343
-422.530	800.000	-0.002	-0.007
-421.515	-200.000	0.071	-0.366
-420.500	30.257	-0.122	-0.104
-419.486	249.908	-0.095	0.162
-418.471	127.011	-0.116	0.147
-417.457	-112.459	-0.165	-0.033
-416.442	20.094	0.184	0.148
-415.428	211.466	-0.063	-0.100
-414.413	-94.777	-0.065	0.018
-413.398	172.189	-0.167	-0.241
-412.384	-55.004	0.125	0.056
-411.369	-200.000	0.006	0.050
-410.355	31.378	0.115	0.099
-409.340	49.352	0.211	0.198
-408.325	-200.000	0.006	-0.075
-407.311	-200.000	-0.050	0.292
-406.296	75.293	0.336	0.355
-405.282	685.612	0.053	-0.138
-404.267	-200.000	0.040	0.208
-403.252	-90.716	0.121	-0.035
-402.238	-200.000	0.024	0.150
-401.223	85.404	0.173	0.189
-400.209	-200.000	0.066	-0.371
-399.194	800.000	-0.083	-0.304
-398.179	-136.729	0.333	0.038
-397.165	100.917	-0.302	0.352
-396.150	-200.000	0.026	0.166
-395.136	-54.076	0.225	-0.102
-394.121	-111.809	-0.193	0.039
-393.106	51.091	-0.090	-0.085
-392.092	510.402	0.091	0.211
-391.077	-153.204	0.150	-0.010
-390.063	-200.000	-0.003	-0.147
-389.048	-20.312	0.425	0.261
-388.033	-200.000	0.029	0.195
-387.019	-29.234	0.011	0.006
-386.004	-8.895	-0.257	-0.172
-384.990	132.721	-0.275	-0.354
-383.975	-25.082	-0.120	0.071
-382.960	109.928	-0.162	0.194
-381.946	-200.000	0.178	-0.000
-380.931	375.001	-0.146	-0.298
-379.917	-45.431	-0.215	0.107
-378.902	-76.860	0.202	-0.071
-377.888	-200.000	0.004	-0.189
-376.873	-200.000	-0.027	-0.177
-375.858	297.338	-0.104	-0.192
-374.844	324.120	-0.105	0.201
-373.829	75.369	0.320	-0.337
-372.815	18.102	0.155	0.123
-371.800	-52.274	0.144	0.067
-370.785	-115.503	-0.238	-0.045
-369.771	-200.000	-0.048	-0.335
-368.756	-52.201	0.075	-0.035
-367.742	386.140	-0.068	-0.140
-366.727	-179.710	-0.057	0.001
-365.712	-50.502	-0.116	-0.055
-364.698	-21.531	0.394	0.240
-363.683	-101.860	0.174	-0.042
-362.669	-200.000	0.031	0.258
-361.654	-66.224	-0.286	-0.114
-360.639	150.677	0.113	0.153
-359.625	21.086	0.244	-0.198
-358.610	369.435	0.168	0.339
-357.596	196.579	-0.140	0.212
-356.581	-150.325	-0.258	-0.020
-355.566	763.508	0.066	0.179
-354.552	-54.439	-0.240	0.109
-353.537	71.733	-0.373	0.387
-352.523	-37.784	0.160	-0.085
-351.508	-129.403	0.196	0.027
-350.493	800.000	0.156	0.449
-349.479	800.000	0.052	-0.157
-348.464	79.471	-0.062	-0.066
-347.450	93.342	-0.030	0.034
-346.435	278.865	0.040	0.072
-345.420	-200.000	-0.018	-0.404
-344.406	339.230	-0.097	-0.189
-343.391	-99.759	0.080	-0.020
-342.377	800.000	0.097	-0.367
-341.362	-94.496	0.172	0.047
-340.348	-97.810	0.158	0.041
-339.333	56.130	0.229	0.222
-338.318	-108.125	-0.197	0.042
-337.304	-103.808	-0.234	0.055
-336.289	-29.844	0.165	0.094
-335.275	800.000	0.130	-0.394
-334.260	-173.385	0.332	-0.010
-333.245	264.770	-0.140	0.242
-332.231	-135.363	-0.408	0.049
-331.216	268.124	-0.075	0.132
-330.202	-31.322	0.503	-0.282
-329.187	34.577	0.188	-0.163
-328.172	92.017	-0.070	0.079
-327.158	800.000	-0.086	-0.306
-326.143	-200.000	-0.038	0.222
-325.129	57.965	0.180	-0.176
-324.114	128.235	-0.188	0.238
-323.099	-129.402	-0.314	-0.044
-322.085	270.587	-0.100	-0.175
-321.070	350.249	0.108	0.212
-320.056	-30.242	-0.243	-0.138
-319.041	800.000	0.069	0.212
-318.026	-78.735	-0.282	0.096
-317.012	-59.012	-0.217	0.093
-315.997	-72.304	-0.222	-0.082
-314.983	-70.629	-0.271	-0.102
-313.968	30.447	0.054	-0.046
-312.953	81.805	-0.121	-0.130
-311.939	-12.229	-0.167	0.109
-310.924	70.050	-0.250	0.257
-309.910	-181.916	0.261	0.005
-308.895	94.182	0.066	0.074
-307.880	57.810	0.060	0.059
-306.866	132.952	0.128	-0.165
-305.851	69.148	-0.268	-0.274
-304.837	-200.000	-0.094	0.441
-303.822	-33.412	0.267	0.147
-302.807	87.317	0.171	0.188
-301.793	-155.257	0.171	-0.011
-300.778	210.486	0.098	0.153
-299.764	486.250	-0.035	-0.080
-298.749	-200.000	0.006	-0.242
-297.735	-39.751	0.076	0.039
-296.720	135.629	-0.179	-0.232
-295.705	-94.404	-0.768	0.209
-294.691	508.025	-0.097	-0.225
-293.676	38.541	0.075	-0.067
-292.662	800.000	0.041	0.132
-291.647	-200.000	-0.023	-0.151
-290.632	800.000	0.031	-0.092
-289.618	-116.544	0.043	0.008
-288.603	-125.277	0.193	-0.029
-287.589	-92.816	-0.187	0.052
-286.574	-93.889	-0.353	-0.097
-285.559	-87.552	0.347	-0.104
-284.545	-87.107	-0.099	-0.030
-283.530	-0.186	-0.117	-0.083
-282.516	-200.000	0.010	0.109
-281.501	-200.000	0.016	-0.193
-280.486	-80.239	-0.261	-0.087
-279.472	42.108	0.158	-0.143
-278.457	800.000	-0.043	-0.141
-277.443	800.000	-0.035	-0.125
-276.428	178.814	-0.202	-0.293
-275.413	304.109	0.091	-0.167
-274.399	-42.271	-0.123	-0.063
-273.384	38.267	0.108	0.096
-272.370	104.770	-0.096	-0.113
-271.355	-75.334	-0.323	-0.115
-270.340	-132.452	0.092	0.012
-269.326	310.873	-0.114	-0.212
-268.311	12.504	-0.062	-0.048
-267.297	565.690	-0.053	0.127
-266.282	499.470	-0.082	0.187
-265.267	20.854	0.180	0.145
-264.253	137.493	0.019	-0.024
-263.238	-52.045	0.198	0.092
-262.224	-111.908	-0.123	0.025
-261.209	173.075	0.083	0.119
-260.195	205.977	0.028	-0.043
-259.180	296.006	-0.087	-0.159
-258.165	1.085	0.246	0.175
-257.151	134.476	-0.171	0.221
-256.136	-89.423	0.305	0.089
-255.122	147.128	0.076	0.102
-254.107	800.000	-0.047	0.154
-253.092	312.634	0.139	0.260
-252.078	280.716	0.139	-0.247
-251.063	-116.665	-0.355	-0.065
-250.049	-69.091	-0.152	-0.058
-249.034	44.580	-0.280	-0.256
-248.019	-87.055	-0.279	-0.084
-247.005	-112.927	0.111	-0.022
-245.990	40.414	0.082	-0.073
-244.976	243.327	-0.078	-0.129
-243.961	800.000	-0.031	-0.109
-242.946	-140.642	0.469	-0.048
-241.932	800.000	-0.061	0.176
-240.917	-146.005	0.390	0.034
-239.903	-34.081	-0.202	0.111
-238.888	-99.882	0.087	-0.022
-237.873	-200.000	0.014	-0.209
-236.859	-174.636	0.275	0.008
-235.844	373.306	0.125	-0.253
-234.830	-200.000	-0.041	-0.193
-233.815	89.107	-0.352	0.389
-232.800	-6.228	0.220	-0.149
-231.786	-200.000	-0.015	-0.319
-230.771	-200.000	0.039	-0.223
-229.757	235.174	0.097	0.159
-228.742	123.540	-0.161	-0.200
-227.727	261.254	0.135	0.232
-226.713	97.958	0.238	-0.272
-225.698	269.702	0.157	0.275
-224.684	-93.677	0.164	-0.045
-223.669	389.973	-0.054	0.111
-222.655	126.289	-0.137	0.172
-221.640	206.944	0.245	0.379
-220.625	800.000	0.076	0.306
-219.611	-167.184	-0.271	0.011
-218.596	-126.314	-0.163	0.024
-217.582	-82.325	0.184	0.059
-216.567	-84.589	0.152	-0.048
-215.552	-122.979	0.279	-0.045
-214.538	-200.000	-0.050	0.360
-213.523	25.263	0.102	-0.084
-212.509	-200.000	0.078	-0.431
-211.494	-18.801	-0.119	0.074
-210.479	-9.696	-0.014	-0.009
-209.465	162.398	-0.015	0.021
-208.450	722.695	-0.044	-0.116
-207.436	54.286	0.081	-0.077
-206.421	800.000	-0.083	0.318
-205.406	-200.000	-0.014	0.119
-204.392	725.187	0.065	0.172
-203.377	-64.622	0.174	-0.070
-202.363	596.575	0.053	0.129
-201.348	-200.000	0.033	0.195
-200.333	800.000	0.076	0.271
-199.319	-160.124	-0.252	0.014
-198.304	-25.037	0.214	-0.126
-197.290	-74.354	-0.085	-0.031
-196.275	90.892	-0.133	-0.148
-195.260	-200.000	0.270	-0.001
-194.246	800.000	-0.033	0.125
-193.231	-12.201	-0.206	0.134
-192.217	47.393	-0.152	0.140
-191.202	-4.450	0.059	0.041
-190.187	-200.000	0.036	-0.183
-189.173	-21.223	-0.250	0.151
-188.158	606.150	0.070	0.173
-187.144	-200.000	-0.001	0.127
-186.129	-111.956	0.034	0.007
-185.114	-200.000	-0.031	0.263
-184.100	25.034	0.024	0.019
-183.085	-168.085	-0.110	0.004
-182.071	166.845	0.246	0.345
-181.056	-200.000	0.074	-0.379
-180.042	81.478	-0.182	0.195
-179.027	-22.913	-0.231	0.138
-178.012	4.140	-0.103	0.075
-176.998	406.051	-0.025	0.052
-175.983	-91.608	-0.260	-0.074
-174.969	800.000	0.034	-0.143
-173.954	-40.877	-0.113	0.058
-172.939	636.514	0.134	-0.336
-171.925	212.019	0.103	0.160
-170.910	-140.904	-0.257	-0.026
-169.896	-130.765	-0.196	-0.026
-168.881	-200.000	-0.003	0.172
-167.866	38.178	0.281	0.248
-166.852	238.425	-0.112	0.184
-165.837	53.590	0.178	0.169
-164.823	-200.000	0.019	-0.212
-163.808	778.716	0.139	0.377
-162.793	499.744	0.127	0.289
-161.779	800.000	-0.033	-0.125
-160.764	-53.714	0.155	-0.070
-159.750	450.750	-0.069	-0.152
-158.735	-46.723	-0.215	0.104
-157.720	81.216	0.202	0.216
-156.706	454.375	0.073	0.160
-155.691	69.194	0.087	0.088
-154.677	-101.325	-0.122	0.029
-153.662	43.687	0.267	-0.242
-152.647	-200.000	-0.018	0.170
-151.633	-79.157	0.097	0.033
-150.618	-185.262	-0.129	-0.002
-149.604	181.207	0.055	0.080
-148.589	-41.548	0.062	0.032
-147.574	800.000	0.089	-0.342
-146.560	-183.276	0.450	0.008
-145.545	-200.000	0.061	0.557
-144.531	-3.436	-0.101	-0.070
-143.516	71.839	0.189	-0.194
-142.502	-4.317	0.273	-0.187
-141.487	528.640	-0.105	-0.245
-140.472	311.214	0.011	0.021
-139.458	104.616	0.147	0.172
-138.443	-37.229	-0.240	-0.127
-137.429	-50.065	0.088	0.041
-136.414	-200.000	0.019	0.089
-135.399	49.311	-0.146	-0.136
-134.385	433.722	0.059	0.127
-133.370	172.676	-0.193	0.275
-132.356	-49.118	-0.140	-0.066
-131.341	-116.315	-0.100	0.018
-130.326	77.561	0.032	-0.034
-129.312	-155.585	0.130	-0.008
-128.297	445.731	-0.110	0.239
-127.283	128.057	-0.212	-0.266
-126.268	720.134	0.049	-0.129
-125.253	468.993	0.087	-0.193
-124.239	-142.839	0.044	-0.004
-123.224	8.843	0.321	-0.240
-122.210	483.710	-0.130	-0.292
-121.195	272.201	0.129	0.225
-120.180	-200.000	-0.016	0.087
-119.166	385.211	0.089	-0.182
-118.151	-75.972	-0.132	0.046
-117.137	331.830	0.091	-0.173
-116.122	-133.154	-0.333	0.042
-115.107	-36.420	0.192	0.102
-114.093	-39.200	0.168	-0.087
-113.078	-35.835	-0.220	0.118
-112.064	16.483	0.263	-0.205
-111.049	-118.121	-0.266	-0.047
-110.034	56.883	-0.118	0.114
-109.020	-138.528	-0.352	-0.038
-108.005	153.719	-0.131	-0.177
-106.991	-200.000	0.004	0.147
-105.976	-112.244	-0.260	-0.052
-104.962	-136.537	-0.132	0.015
-103.947	80.380	0.039	0.042
-102.932	60.939	0.267	0.262
-101.918	289.152	-0.092	0.164
-100.903	-88.880	0.229	0.067
-99.889	-200.000	0.012	-0.132
-98.874	132.532	0.254	-0.324
-97.859	204.780	0.064	0.098
-96.845	32.961	-0.208	-0.178
-95.830	-200.000	-0.012	-0.257
-94.816	47.302	0.102	-0.094
-93.801	-131.469	-0.095	-0.012
-92.786	-58.875	0.240	0.103
-91.772	3.254	0.151	0.109
-90.757	-200.000	-0.011	0.049
-89.743	-83.591	-0.155	-0.049
-88.728	-159.762	-0.144	-0.008
-87.713	-21.514	0.053	0.032
-86.699	40.919	0.165	0.147
-85.684	142.803	0.075	0.099
-84.670	-84.556	-0.107	-0.033
-83.655	-72.141	-0.064	0.023
-82.640	107.131	-0.059	0.069
-81.626	-43.080	-0.010	0.005
-80.611	5.384	-0.098	-0.071
-79.597	448.118	-0.098	-0.213
-78.582	328.038	0.164	0.310
-77.567	-48.366	-0.061	0.029
-76.553	-109.328	0.242	-0.051
-75.538	536.094	-0.165	-0.386
-74.524	21.454	0.079	-0.063
-73.509	-54.894	-0.488	0.217
-72.494	800.000	-0.027	0.101
-71.480	-46.880	-0.150	-0.073
-70.465	-53.687	0.247	0.111
-69.451	-200.000	-0.040	0.255
-68.436	-72.286	-0.079	0.029
-67.422	-179.666	-0.314	-0.007
-66.407	34.858	0.157	0.135
-65.392	-200.000	-0.000	0.103
-64.378	-200.000	-0.025	-0.196
-63.363	-62.450	0.231	-0.095
-62.349	800.000	-0.057	0.216
-61.334	24.897	-0.929	-0.760
-60.319	216.009	0.277	0.435
-59.305	-200.000	0.119	-0.698
-58.290	366.760	0.607	1.209
-57.276	574.823	0.727	1.750
-56.261	-200.000	97.837	591.714
-55.246	566.754	1382.387	3308.804
-54.232	154.093	2583.174	3494.236
-53.217	115.163	2177.830	2622.016
-52.203	45.389	1715.826	1561.360
-51.188	38.018	1527.713	1339.764
-50.173	35.619	1500.103	1299.300
-49.159	55.558	1551.739	1481.585
-48.144	59.375	1570.267	1525.419
-47.130	38.273	1525.505	1339.363
-46.115	35.058	1510.073	1303.909
-45.100	34.892	1506.904	1299.994
-44.086	34.836	1504.838	1297.778
-43.071	34.776	1502.747	1295.518
-42.057	34.712	1501.218	1293.714
-41.042	34.824	1499.949	1293.329
-40.027	34.805	1498.491	1291.888
-39.013	34.822	1496.708	1290.413
-37.998	34.779	1496.297	1289.722
-36.984	34.848	1494.619	1288.688
-35.969	34.803	1493.435	1287.314
-34.954	34.807	1491.793	1285.871
-33.940	34.834	1490.220	1284.645
-32.925	34.871	1488.966	1283.761
-31.911	34.920	1487.734	1282.982
-30.896	34.876	1486.653	1281.704
-29.881	34.887	1485.301	1280.557
-28.867	34.971	1483.798	1279.773
-27.852	34.909	1481.842	1277.623
-26.838	34.796	1481.241	1276.297
-25.823	34.893	1479.486	1275.382
-24.809	34.797	1478.631	1273.955
-23.794	34.783	1477.046	1272.444
-22.779	34.837	1475.403	1271.338
-21.765	34.885	1474.638	1270.951
-20.750	34.808	1473.561	1269.460
-19.736	34.845	1472.189	1268.475
-18.721	34.934	1470.862	1267.865
-17.706	34.717	1470.598	1266.153
-16.692	34.691	1469.559	1265.032
-15.677	34.819	1468.131	1264.599
-14.663	34.734	1467.405	1263.367
-13.648	34.683	1466.789	1262.448
-12.633	34.866	1465.176	1262.214
-11.619	34.869	1464.400	1261.521
-10.604	34.752	1463.814	1260.193
-9.590	34.883	1462.387	1259.777
-8.575	34.834	1461.662	1258.777
-7.560	34.716	1461.362	1257.692
-6.546	34.729	1460.633	1257.104
-5.531	34.657	1459.438	1255.549
-4.517	34.745	1458.432	1255.216
-3.502	34.688	1457.764	1254.216
-2.487	34.705	1456.273	1252.994
-1.473	34.636	1455.457	1251.791
-0.458	34.792	1453.607	1251.171
0.556	34.950	1444.039	1239.908
1.571	31.944	1418.379	1198.597
2.586	28.505	1358.572	1126.864
3.600	26.843	1277.230	1049.692
4.615	25.367	1230.759	1003.174
5.629	21.457	1173.799	935.784
6.644	11.178	1086.074	814.629
7.659	3.189	1043.061	743.802
8.673	2.081	1037.225	734.251
9.688	1.820	1034.282	730.849
10.702	1.763	1032.081	728.954
11.717	1.677	1030.769	727.553
12.731	5.475	1035.031	748.702
13.746	15.507	1048.988	807.176
14.761	22.951	1059.103	850.877
15.775	24.803	1059.869	860.332
16.790	25.004	1059.677	861.065
17.804	24.747	1059.090	859.279
18.819	24.624	1058.245	857.924
19.834	24.810	1057.495	858.131
20.848	24.892	1057.158	858.176
21.863	24.880	1056.758	857.717
22.877	24.850	1056.542	857.324
23.892	24.903	1055.622	856.756
24.907	24.704	1055.267	855.437
25.921	24.763	1054.509	855.031
26.936	24.983	1053.301	855.026
27.950	24.769	1052.205	853.041
28.965	24.660	1051.583	851.940
29.980	24.675	1049.881	850.557
30.994	24.685	1048.616	849.508
32.009	24.839	1047.597	849.337
33.023	24.928	1047.243	849.396
34.038	24.670	1046.286	847.324
35.053	24.597	1045.515	846.276
36.067	24.800	1044.557	846.389
37.082	24.740	1043.976	845.557
38.096	24.908	1043.093	845.558
39.111	24.949	1042.696	845.359
40.126	25.161	1041.582	845.381
41.140	24.972	1040.462	843.506
42.155	24.618	1039.250	840.785
43.169	24.483	1037.817	838.916
44.184	24.398	1036.897	837.700
45.199	24.399	1036.137	837.013
46.213	24.370	1034.917	835.819
47.228	24.396	1034.454	835.491
48.242	24.611	1033.046	835.287
49.257	24.720	1032.901	835.607
50.271	24.692	1032.225	834.855
51.286	24.815	1031.479	834.753
52.301	24.977	1030.702	834.800
53.315	24.958	1029.761	833.879
54.330	24.813	1028.779	832.335
55.344	24.627	1028.838	831.446
56.359	24.771	1027.432	830.904
57.374	24.758	1026.589	830.087
58.388	24.637	1025.642	828.687
59.403	24.471	1025.160	827.456
60.417	24.471	1024.501	826.850
61.432	24.351	1023.258	825.220
62.447	24.392	1023.144	825.244
63.461	24.563	1022.182	825.185
64.476	24.592	1021.488	824.683
65.490	24.580	1020.538	823.789
66.505	24.519	1019.697	822.755
67.520	24.460	1019.104	821.934
68.534	24.486	1018.363	821.385
69.549	24.499	1017.337	820.544
70.563	24.152	1016.197	817.957
71.578	24.125	1014.982	816.782
72.593	24.145	1014.380	816.317
73.607	24.120	1012.972	815.000
74.622	23.994	1012.066	813.621
75.636	24.168	1012.086	814.361
76.651	24.445	1011.262	814.890
77.666	24.341	1009.916	813.259
78.680	24.218	1009.321	812.150
79.695	24.260	1008.870	811.904
80.709	24.320	1008.492	811.800
81.724	24.409	1007.769	811.554
82.739	24.434	1006.563	810.622
83.753	24.273	1005.864	809.258
84.768	24.606	1005.223	810.180
85.782	24.935	1004.594	811.092
86.797	25.191	1003.544	811.333
87.812	25.054	1003.027	810.223
88.826	24.845	1002.153	808.503
89.841	24.920	1001.299	808.077
90.855	25.077	1000.640	808.185
91.870	25.081	1000.028	807.637
92.884	25.003	999.048	806.424
93.899	24.941	998.139	805.339
94.914	24.685	997.700	803.761
95.928	24.893	996.918	803.992
96.943	25.063	995.506	803.547
97.957	24.671	994.733	801.096
98.972	24.317	993.698	798.606
99.987	24.244	992.675	797.388
101.001	24.422	992.232	797.756
102.016	24.707	991.314	798.221
103.030	24.818	990.842	798.263
104.045	24.775	989.390	796.832
105.060	24.567	988.694	795.275
106.074	24.285	987.528	793.015
107.089	24.366	986.592	792.553
108.103	24.609	986.404	793.408
109.118	24.817	985.171	793.268
110.133	24.566	984.695	791.706
111.147	24.488	983.610	790.418
112.162	24.359	982.636	788.994
113.176	24.267	981.209	787.370
114.191	24.317	980.493	786.949
115.206	24.494	979.801	787.105
116.220	24.111	978.718	784.478
117.235	23.939	977.949	783.032
118.249	24.208	977.046	783.424
119.264	24.248	976.232	782.878
120.279	24.231	974.807	781.593
121.293	24.131	974.546	780.876
122.308	24.151	974.119	780.551
123.322	24.170	973.321	779.927
124.337	24.251	971.964	779.123
125.352	23.898	970.883	776.646
126.366	23.597	969.373	774.056
127.381	23.381	967.485	771.542
128.395	23.795	968.022	773.705
129.410	24.545	967.426	776.420
130.424	24.785	966.548	776.691
131.439	24.770	965.365	775.607
132.454	24.681	964.695	774.612
133.468	24.761	963.524	773.951
134.483	24.629	963.374	773.192
135.497	24.633	962.518	772.454
136.512	24.802	962.386	773.010
137.527	24.918	961.337	772.597
138.541	25.053	960.348	772.316
139.556	24.947	960.003	771.515
140.570	24.951	959.275	770.877
141.585	25.039	957.932	770.108
142.600	25.148	957.171	769.896
143.614	24.999	956.222	768.425
144.629	25.072	955.589	768.161
145.643	25.286	955.014	768.549
146.658	25.117	954.048	766.982
147.673	24.938	952.630	765.008
148.687	24.884	951.545	763.839
149.702	24.764	950.726	762.604
150.716	24.715	949.375	761.244
151.731	24.642	948.932	760.508
152.746	24.699	948.279	760.163
153.760	24.911	947.691	760.524
154.775	25.148	946.831	760.770
155.789	25.054	946.013	759.648
156.804	25.132	944.805	758.943
157.819	24.994	944.284	757.871
158.833	25.068	943.166	757.218
159.848	25.099	942.827	757.011
160.862	25.245	942.109	756.984
161.877	25.049	940.801	755.038
162.892	24.988	939.930	754.019
163.906	25.203	938.819	753.961
164.921	25.085	938.265	752.955
165.935	24.965	937.158	751.499
166.950	25.171	936.029	751.391
167.964	24.921	935.387	749.760
168.979	25.021	934.243	749.194
169.994	24.944	933.154	747.935
171.008	24.942	932.066	746.989
172.023	24.976	931.462	746.581
173.037	25.240	930.944	747.197
174.052	24.995	929.337	744.823
175.067	24.947	928.189	743.638
176.081	24.787	928.160	742.886
177.096	24.822	927.202	742.196
178.110	24.842	926.579	741.716
179.125	24.654	925.701	740.171
180.140	24.289	924.618	737.726
181.154	24.371	924.060	737.555
182.169	24.576	923.295	737.728
183.183	24.733	922.947	738.033
184.198	25.059	922.800	739.193
185.213	24.934	922.280	738.195
186.227	24.918	921.080	737.105
187.242	25.094	920.764	737.511
188.256	25.146	919.915	736.977
189.271	25.143	919.161	736.298
190.286	25.260	918.835	736.452
191.300	24.968	917.892	734.433
192.315	24.486	916.513	731.294
193.329	23.832	914.780	727.169
194.344	23.216	913.982	723.951
195.359	23.829	914.346	726.684
196.373	24.715	914.422	730.301
197.388	24.937	914.376	731.106
198.402	24.872	913.612	730.166
199.417	24.904	913.114	729.831
200.432	24.903	912.821	729.529
201.446	24.666	912.221	728.019
202.461	24.550	911.095	726.586
203.475	24.596	910.439	726.184
204.490	24.066	909.016	722.836
205.504	23.001	906.652	716.577
206.519	23.383	907.031	718.362
207.534	24.302	907.359	722.282
208.548	24.592	906.545	722.744
209.563	24.842	906.505	723.660
210.577	24.911	905.347	722.949
211.592	24.759	904.609	721.682
212.607	24.943	905.172	722.809
213.621	25.267	904.345	723.393
214.636	25.168	903.492	722.245
215.650	25.150	902.723	721.498
216.665	24.974	902.461	720.516
217.680	25.170	901.908	720.796
218.694	25.325	901.141	720.741
219.709	24.822	900.527	718.167
220.723	24.489	899.351	715.834
221.738	24.804	898.680	716.498
222.753	24.967	898.377	716.845
223.767	24.919	897.388	715.801
224.782	25.060	896.647	715.709
225.796	25.103	896.647	715.816
226.811	25.413	895.839	716.346
227.826	24.876	894.898	713.391
228.840	24.003	893.273	708.558
229.855	23.935	892.495	707.608
230.869	24.250	892.008	708.410
231.884	24.046	890.943	706.691
232.899	23.938	890.456	705.816
233.913	24.767	890.672	709.212
234.928	24.992	890.664	710.034
235.942	24.759	890.063	708.568
236.957	24.929	888.750	708.134
237.972	24.413	888.263	705.642
238.986	24.473	887.191	704.966
240.001	24.545	887.173	705.175
241.015	24.568	886.330	704.532
242.030	24.599	885.986	704.318
243.045	24.790	885.388	704.533
244.059	24.905	884.911	704.543
245.074	25.107	884.169	704.685
246.088	24.992	883.768	703.851
247.103	24.593	882.805	701.456
248.117	24.724	881.818	701.124
249.132	25.243	882.325	703.499
250.147	25.533	882.073	704.375
251.161	25.701	881.297	704.347
252.176	25.823	881.023	704.543
253.190	25.787	880.610	704.011
254.205	25.798	879.717	703.276
255.220	26.026	879.477	703.915
256.234	26.063	878.380	703.117
257.249	25.868	878.468	702.365
258.263	25.679	877.389	700.705
259.278	25.649	876.693	699.971
260.293	25.807	876.342	700.244
261.307	25.910	875.855	700.190
262.322	25.753	875.588	699.306
263.336	25.721	874.391	698.163
264.351	25.287	872.768	695.128
265.366	24.101	870.957	689.036
266.380	23.816	870.067	687.170
267.395	24.575	870.813	690.633
268.409	25.355	870.955	693.699
269.424	25.300	870.271	692.881
270.439	25.368	869.859	692.753
271.453	25.618	869.365	693.263
272.468	25.731	868.332	692.813
273.482	25.777	867.849	692.541
274.497	25.956	867.809	693.139
275.512	25.635	866.940	691.148
276.526	25.136	865.393	687.941
277.541	25.364	865.047	688.480
278.555	25.791	864.570	689.676
279.570	25.561	863.740	688.071
280.585	25.318	863.214	686.664
281.599	25.478	862.732	686.831
282.614	25.744	862.558	687.647
283.628	25.092	861.267	684.069
284.643	24.773	860.615	682.273
285.657	25.182	860.200	683.444
286.672	24.953	859.634	682.060
287.687	24.574	859.071	680.112
288.701	24.951	858.477	681.014
289.716	25.228	858.468	682.001
290.730	24.869	857.659	679.933
291.745	24.729	856.910	678.748
292.760	24.664	855.868	677.619
293.774	24.619	855.328	676.958
294.789	25.474	856.035	680.700
295.803	26.202	855.872	683.265
296.818	26.084	855.454	682.423
297.833	26.181	855.141	682.483
298.847	25.964	853.836	680.560
299.862	25.627	852.789	678.395
300.876	25.916	852.409	679.120
301.891	26.011	852.208	679.258
302.906	26.215	851.215	679.174
303.920	25.811	850.211	676.795
304.935	25.735	849.682	676.029
305.949	26.010	849.724	677.034
306.964	26.133	849.221	677.036
307.979	26.019	848.133	675.681
308.993	25.855	847.778	674.727
310.008	26.262	847.491	675.960
311.022	26.140	847.547	675.487
312.037	26.164	847.056	675.128
313.052	25.850	846.324	673.312
314.066	25.788	845.437	672.313
315.081	25.155	843.676	668.497
316.095	24.449	842.631	664.978
317.110	24.903	842.827	666.766
318.125	25.689	842.985	669.759
319.139	25.395	841.960	667.793
320.154	24.133	840.315	661.741
321.168	23.773	839.397	659.626
322.183	24.465	839.628	662.318
323.197	25.324	839.734	665.526
324.212	25.675	839.429	666.529
325.227	25.732	839.542	666.769
326.241	25.895	838.895	666.799
327.256	25.905	838.030	666.089
328.270	25.666	837.688	664.877
329.285	25.599	837.020	664.039
330.300	25.513	836.362	663.142
331.314	25.373	834.921	661.423
332.329	25.325	834.832	661.119
333.343	25.695	834.813	662.407
334.358	26.154	834.359	663.675
335.373	26.079	833.688	662.808
336.387	26.104	833.354	662.575
337.402	26.179	833.246	662.709
338.416	26.439	832.872	663.303
339.431	26.460	831.751	662.431
340.446	26.385	831.785	662.126
341.460	26.732	831.044	662.743
342.475	26.675	830.099	661.722
343.489	26.384	829.477	660.108
344.504	26.348	828.996	659.536
345.519	26.726	828.884	660.767
346.533	26.738	828.815	660.696
347.548	26.827	828.335	660.579
348.562	26.937	827.503	660.259
349.577	26.844	826.918	659.395
350.592	26.817	826.209	658.672
351.606	26.732	826.335	658.407
352.621	26.785	825.217	657.648
353.635	26.730	824.846	657.097
354.650	26.677	824.174	656.309
355.665	26.180	823.584	653.983
356.679	25.254	821.735	649.110
357.694	24.999	821.399	647.863
358.708	25.893	821.237	650.908
359.723	25.761	820.567	649.843
360.738	25.826	820.207	649.735
361.752	26.339	820.431	651.708
362.767	26.582	820.184	652.327
363.781	26.648	820.162	652.493
364.796	26.857	819.667	652.791
365.810	27.107	819.214	653.271
366.825	27.290	818.547	653.340
367.840	27.165	818.687	652.945
368.854	27.145	817.700	652.028
369.869	26.692	816.939	649.738
370.883	26.387	816.392	648.152
371.898	26.566	815.639	648.141
372.913	26.454	815.034	647.200
373.927	26.414	814.709	646.743
374.942	26.542	814.073	646.638
375.956	26.785	813.202	646.755
376.971	26.868	813.067	646.885
377.986	26.933	812.525	646.629
379.000	26.938	812.409	646.499
380.015	27.102	811.549	646.340
381.029	26.934	811.010	645.257
382.044	26.853	810.409	644.432
383.059	27.088	809.777	644.710
384.073	27.220	809.460	644.867
385.088	27.216	808.903	644.351
386.102	27.178	808.238	643.631
387.117	27.027	807.742	642.644
388.132	26.871	807.064	641.496
389.146	26.752	806.478	640.553
390.161	26.166	805.317	637.506
391.175	26.327	805.021	637.785
392.190	26.760	805.384	639.543
393.205	26.802	804.542	638.964
394.219	25.763	802.915	633.961
395.234	24.167	800.939	626.735
396.248	23.461	799.666	623.204
397.263	24.477	800.264	627.186
398.278	26.271	802.164	634.930
399.292	26.847	801.741	636.562
400.307	26.423	801.381	634.732
401.321	26.180	801.001	633.523
402.336	26.409	800.398	633.791
403.350	26.649	800.464	634.627
404.365	27.193	800.266	636.319
405.380	27.389	800.196	636.895
406.394	27.772	799.727	637.802
407.409	27.845	799.467	637.792
408.423	27.800	799.277	637.428
409.438	27.809	798.067	636.440
410.453	27.729	798.047	636.087
411.467	27.964	797.591	636.485
412.482	27.783	796.953	635.291
413.496	27.678	796.547	634.546
414.511	27.846	796.019	634.653
415.526	27.930	795.755	634.677
416.540	27.869	795.380	634.113
417.555	27.677	794.953	633.050
418.569	27.541	794.243	631.957
419.584	27.403	793.545	630.864
420.599	27.496	793.020	630.714
421.613	108.811	1279.742	1446.212
422.628	93.632	1350.663	1446.337
