DTS Sentinel unit serial number:	SN413079Multiplexer serial number:	ORYXHardware model number:	OX4-SRSoftware version number:	ORYX F/W v4.00 Oryx Data Collector v3.7.2.0data status	okinstallation	princeton_trtdifferential loss correction	single-endedforward channel	channel 3reverse channel	N/Adate	2019/09/10time	19:58:11forward acquisition time	60.00reverse acquisition time	0.00gamma	496.2192k internal	0.2323k external	0.2323temperature offset calibration	0.9920default loss term (dB/km)	0.3790temperature slope calibration	1.0000multiplexer offset coefficient	1.0000multiplexer slope coefficient	1.0000fibre end	0.00T internal ref (°C)	32.69T ext. ref 1 (°C)	-0.31T ext. ref 2 (°C)	25.62length (m)	temperature (°C)	Stokes	anti-Stokes-747.200	-200.000	-0.011	-0.154
-746.185	20.726	0.046	-0.038
-745.171	-200.000	0.021	0.282
-744.156	480.264	-0.070	0.159
-743.142	-73.111	-0.069	0.025
-742.127	282.113	-0.074	0.135
-741.112	-195.344	0.273	-0.002
-740.098	-200.000	-0.080	0.360
-739.083	39.216	-0.216	0.195
-738.069	663.388	-0.127	0.330
-737.054	51.048	-0.144	-0.138
-736.039	100.295	0.175	-0.205
-735.025	-200.000	0.066	-0.482
-734.010	-200.000	-0.039	-0.391
-732.996	-200.000	-0.032	-0.430
-731.981	-28.193	-0.114	0.066
-730.966	10.379	-0.170	-0.131
-729.952	800.000	-0.025	0.092
-728.937	-93.984	-0.247	-0.068
-727.923	96.902	-0.077	0.089
-726.908	-1.405	0.175	0.125
-725.894	3.431	-0.185	0.136
-724.879	-185.301	-0.237	-0.004
-723.864	107.218	0.269	-0.322
-722.850	-112.141	0.160	-0.032
-721.835	89.536	-0.077	0.087
-720.821	74.639	-0.089	-0.094
-719.806	145.994	0.200	-0.271
-718.791	227.728	0.189	0.310
-717.777	800.000	-0.045	-0.164
-716.762	3.530	-0.074	-0.055
-715.748	-200.000	-0.065	-0.390
-714.733	-146.093	-0.280	-0.025
-713.718	-117.336	-0.411	0.075
-712.704	17.101	-0.227	0.181
-711.689	161.465	0.150	0.212
-710.675	-72.938	-0.456	-0.169
-709.660	-200.000	0.012	-0.143
-708.645	800.000	0.078	-0.334
-707.631	470.767	-0.118	0.269
-706.616	-144.727	0.123	0.011
-705.602	800.000	-0.107	0.396
-704.587	-200.000	0.048	-0.407
-703.572	89.674	-0.148	-0.166
-702.558	60.879	-0.037	0.037
-701.543	222.210	-0.159	0.258
-700.529	-200.000	0.003	-0.219
-699.514	-183.902	0.151	-0.003
-698.499	6.682	-0.271	0.203
-697.485	-200.000	0.040	0.374
-696.470	800.000	-0.018	-0.078
-695.456	-200.000	-0.051	-0.231
-694.441	58.433	0.191	-0.188
-693.426	73.242	0.122	-0.128
-692.412	-200.000	0.012	-0.073
-691.397	800.000	-0.067	0.238
-690.383	164.964	-0.116	-0.165
-689.368	217.365	-0.097	-0.155
-688.354	-200.000	-0.043	-0.291
-687.339	-85.544	-0.023	0.007
-686.324	800.000	0.098	0.434
-685.310	-77.313	0.154	-0.054
-684.295	-89.249	-0.274	0.081
-683.281	73.227	0.106	-0.112
-682.266	-193.596	0.071	0.001
-681.251	43.206	-0.189	-0.174
-680.237	-124.171	-0.169	-0.027
-679.222	800.000	-0.143	-0.439
-678.208	443.192	0.061	0.134
-677.193	-62.768	-0.361	0.151
-676.178	-179.958	-0.185	-0.004
-675.164	-45.551	-0.107	-0.053
-674.149	-12.917	0.141	-0.092
-673.135	-84.058	0.361	0.116
-672.120	-200.000	0.036	-0.234
-671.105	-200.000	-0.090	0.459
-670.091	-200.000	-0.024	-0.161
-669.076	504.514	0.120	-0.280
-668.062	127.214	-0.107	0.137
-667.047	-79.734	0.044	-0.015
-666.032	-6.078	-0.118	0.081
-665.018	355.946	-0.248	0.497
-664.003	-29.174	-0.098	0.057
-662.989	-200.000	-0.009	0.112
-661.974	60.327	-0.155	0.154
-660.959	61.709	-0.281	0.282
-659.945	561.052	-0.102	-0.249
-658.930	-54.059	0.298	0.136
-657.916	-19.052	-0.093	0.058
-656.901	-161.848	0.105	-0.005
-655.886	-168.678	-0.155	-0.006
-654.872	-131.402	-0.161	-0.021
-653.857	129.456	-0.060	0.078
-652.843	-92.401	-0.047	-0.013
-651.828	-152.437	-0.267	0.019
-650.814	-10.318	-0.076	-0.051
-649.799	-59.203	-0.095	-0.041
-648.784	-200.000	-0.022	-0.166
-647.770	-23.643	-0.251	-0.151
-646.755	-200.000	-0.003	0.075
-645.741	-158.027	-0.305	-0.018
-644.726	26.738	0.175	-0.147
-643.711	-39.615	0.127	0.067
-642.697	530.714	0.041	0.098
-641.682	83.229	0.011	0.012
-640.668	-24.622	0.217	-0.130
-639.653	800.000	-0.042	0.131
-638.638	594.723	0.156	-0.389
-637.624	-200.000	-0.046	-0.229
-636.609	-200.000	0.031	0.553
-635.595	-110.218	0.166	0.035
-634.580	-200.000	-0.016	0.316
-633.565	-57.426	-0.258	0.114
-632.551	-105.509	-0.366	0.084
-631.536	-200.000	0.024	-0.157
-630.522	800.000	-0.011	-0.033
-629.507	800.000	0.102	-0.339
-628.492	-79.205	-0.197	0.067
-627.478	-200.000	-0.229	0.000
-626.463	-200.000	0.012	-0.237
-625.449	-200.000	-0.006	-0.214
-624.434	-170.411	0.242	-0.009
-623.419	-17.949	-0.291	0.184
-622.405	136.353	0.131	-0.172
-621.390	-40.090	-0.026	0.013
-620.376	-83.703	-0.164	-0.053
-619.361	-44.142	-0.037	0.019
-618.346	-74.573	0.262	-0.095
-617.332	-67.879	0.232	-0.091
-616.317	800.000	-0.013	-0.044
-615.303	-94.568	-0.269	0.073
-614.288	306.111	-0.017	-0.033
-613.273	4.825	0.169	-0.125
-612.259	-126.579	-0.193	-0.029
-611.244	-67.737	0.125	-0.049
-610.230	-97.552	0.358	0.093
-609.215	800.000	-0.086	0.293
-608.201	-200.000	-0.004	0.126
-607.186	-200.000	0.068	0.365
-606.171	169.437	0.095	0.136
-605.157	244.178	0.076	-0.129
-604.142	-54.606	0.172	0.078
-603.128	498.750	-0.073	-0.168
-602.113	-30.729	-0.350	-0.199
-601.098	327.869	0.174	-0.335
-600.084	-200.000	-0.037	-0.325
-599.069	-35.793	0.130	-0.070
-598.055	-78.641	-0.324	-0.111
-597.040	44.866	0.298	0.275
-596.025	-115.787	0.234	-0.044
-595.011	-110.403	0.119	-0.025
-593.996	11.504	-0.318	-0.245
-592.982	800.000	0.095	-0.305
-591.967	329.354	-0.077	0.149
-590.952	91.358	-0.050	-0.056
-589.938	27.226	0.278	0.235
-588.923	541.803	0.094	-0.225
-587.909	-71.139	-0.297	0.112
-586.894	800.000	-0.036	0.108
-585.879	-200.000	-0.036	0.185
-584.865	-200.000	0.001	0.135
-583.850	800.000	-0.052	-0.207
-582.836	-200.000	0.007	-0.454
-581.821	580.739	-0.099	0.244
-580.806	84.223	0.115	-0.126
-579.792	759.381	-0.108	0.292
-578.777	-101.247	-0.190	0.046
-577.763	-42.938	0.108	0.055
-576.748	-200.000	0.000	-0.143
-575.733	-102.995	-0.096	-0.023
-574.719	-200.000	-0.008	0.162
-573.704	-29.365	0.031	0.018
-572.690	15.130	-0.183	-0.144
-571.675	-108.214	0.321	-0.070
-570.661	-86.971	-0.089	-0.027
-569.646	-200.000	0.003	-0.186
-568.631	-97.250	-0.242	-0.063
-567.617	646.635	0.139	-0.356
-566.602	-110.775	-0.113	-0.023
-565.588	-102.967	-0.333	0.079
-564.573	537.646	-0.118	0.282
-563.558	-188.788	0.270	-0.003
-562.544	209.418	-0.024	0.038
-561.529	-200.000	-0.014	0.240
-560.515	164.884	0.255	0.361
-559.500	-145.997	-0.170	0.015
-558.485	92.433	-0.055	-0.063
-557.471	-61.869	0.173	0.073
-556.456	-26.592	0.261	0.153
-555.442	572.640	0.136	0.333
-554.427	-200.000	0.024	-0.365
-553.412	-200.000	0.005	-0.210
-552.398	495.100	0.066	0.152
-551.383	204.004	-0.064	-0.100
-550.369	-11.967	-0.044	-0.029
-549.354	-200.000	-0.043	0.240
-548.339	95.805	-0.188	0.215
-547.325	-200.000	0.012	-0.131
-546.310	800.000	0.067	-0.270
-545.296	254.933	0.021	-0.037
-544.281	-127.288	0.343	-0.050
-543.266	57.728	0.164	0.161
-542.252	-153.745	-0.127	-0.009
-541.237	-200.000	-0.007	-0.088
-540.223	-90.524	0.181	-0.053
-539.208	-95.107	-0.247	-0.067
-538.193	-24.293	-0.171	-0.102
-537.179	-200.000	0.004	0.020
-536.164	-200.000	-0.018	0.289
-535.150	427.694	-0.018	-0.039
-534.135	-83.037	0.389	-0.126
-533.121	-200.000	0.035	-0.360
-532.106	-200.000	0.000	-0.108
-531.091	-200.000	-0.008	0.224
-530.077	-37.956	-0.280	0.149
-529.062	-118.787	0.196	-0.034
-528.048	262.735	-0.126	-0.219
-527.033	800.000	-0.085	0.234
-526.018	-29.735	-0.293	-0.167
-525.004	-58.113	-0.341	0.149
-523.989	-41.369	0.096	0.049
-522.975	26.760	-0.223	-0.187
-521.960	67.896	-0.025	0.026
-520.945	142.101	-0.190	-0.253
-519.931	116.808	0.074	0.091
-518.916	-200.000	0.020	0.269
-517.902	-123.269	0.364	0.058
-516.887	-200.000	-0.009	0.120
-515.872	-1.248	-0.288	-0.203
-514.858	216.318	-0.104	-0.166
-513.843	800.000	-0.103	-0.397
-512.829	-20.461	-0.201	-0.124
-511.814	144.709	0.128	-0.172
-510.799	156.687	-0.125	0.172
-509.785	800.000	0.035	-0.119
-508.770	-200.000	0.020	-0.099
-507.756	-200.000	0.008	-0.071
-506.741	-145.836	-0.021	-0.002
-505.726	-82.289	-0.010	-0.003
-504.712	-111.440	-0.164	0.033
-503.697	-45.542	0.103	-0.051
-502.683	-141.610	0.113	0.011
-501.668	-171.463	0.295	0.010
-500.653	139.208	0.150	0.197
-499.639	-22.561	0.273	0.165
-498.624	-200.000	0.024	0.190
-497.610	-200.000	-0.001	0.050
-496.595	-128.573	0.276	0.039
-495.581	-200.000	-0.033	-0.236
-494.566	800.000	0.084	0.277
-493.551	329.123	-0.094	0.181
-492.537	166.428	0.156	-0.221
-491.522	-39.008	0.292	-0.154
-490.508	276.584	0.101	-0.180
-489.493	432.693	0.145	-0.316
-488.478	-120.703	-0.175	0.030
-487.464	-59.418	-0.061	-0.026
-486.449	-200.000	-0.000	-0.098
-485.435	145.021	-0.212	0.283
-484.420	-85.649	-0.175	-0.054
-483.405	129.630	0.110	-0.141
-482.391	-200.000	0.031	0.144
-481.376	800.000	0.063	-0.203
-480.362	-19.857	-0.118	-0.073
-479.347	-17.085	-0.078	-0.049
-478.332	-103.634	0.310	-0.073
-477.318	246.954	-0.083	0.140
-476.303	-200.000	-0.091	-0.000
-475.289	-3.766	0.297	0.206
-474.274	-200.000	-0.013	0.090
-473.259	298.827	-0.239	0.440
-472.245	-53.879	0.069	0.031
-471.230	278.542	-0.086	0.152
-470.216	-83.969	0.286	-0.091
-469.201	-97.712	0.324	0.084
-468.186	770.307	0.142	0.386
-467.172	505.430	0.114	0.263
-466.157	265.188	-0.081	0.141
-465.143	54.458	0.122	0.117
-464.128	-200.000	0.008	0.168
-463.113	248.165	0.028	0.047
-462.099	363.832	0.058	0.116
-461.084	-200.000	-0.002	0.064
-460.070	-97.898	0.223	-0.057
-459.055	42.456	-0.077	-0.070
-458.040	-112.695	-0.341	-0.068
-457.026	9.164	-0.295	-0.223
-456.011	-11.074	0.224	0.147
-454.997	-9.350	-0.038	0.025
-453.982	-111.548	-0.289	-0.059
-452.968	-71.286	-0.017	-0.007
-451.953	24.481	-0.226	0.186
-450.938	-200.000	0.044	-0.265
-449.924	85.826	0.077	-0.084
-448.909	123.066	-0.100	0.125
-447.895	-101.665	0.189	-0.046
-446.880	800.000	-0.125	0.350
-445.865	57.564	-0.107	0.105
-444.851	-200.000	-0.036	-0.230
-443.836	-48.736	-0.215	0.103
-442.822	-119.848	-0.369	-0.063
-441.807	-123.504	0.208	0.033
-440.792	89.069	0.178	0.197
-439.778	-100.894	0.282	-0.069
-438.763	800.000	0.066	-0.188
-437.749	800.000	0.024	-0.074
-436.734	88.180	-0.189	0.210
-435.719	117.842	-0.092	0.113
-434.705	-85.624	0.171	-0.053
-433.690	-123.349	0.195	0.031
-432.676	556.136	0.042	0.100
-431.661	-200.000	-0.016	0.252
-430.646	800.000	-0.066	0.247
-429.632	187.919	-0.095	0.141
-428.617	-34.511	-0.357	-0.195
-427.603	800.000	-0.040	0.160
-426.588	93.778	0.086	-0.098
-425.573	149.662	-0.166	-0.225
-424.559	-200.000	-0.001	-0.220
-423.544	-98.106	0.100	0.026
-422.530	152.175	0.200	0.273
-421.515	309.588	0.142	0.264
-420.500	-200.000	0.001	-0.228
-419.486	57.178	0.400	0.389
-418.471	800.000	0.105	-0.387
-417.457	-200.000	-0.049	0.513
-416.442	391.326	0.084	-0.174
-415.428	725.013	-0.047	-0.124
-414.413	-168.149	0.131	0.005
-413.398	-46.500	-0.108	-0.053
-412.384	-200.000	0.073	0.350
-411.369	-24.208	-0.138	0.082
-410.355	-200.000	-0.045	0.221
-409.340	19.807	0.321	0.258
-408.325	-81.296	0.071	0.023
-407.311	35.627	0.190	0.166
-406.296	-106.635	0.191	0.042
-405.282	-49.342	-0.307	-0.146
-404.267	-2.456	0.329	0.229
-403.252	-104.031	0.320	-0.074
-402.238	182.405	-0.121	0.178
-401.223	-66.943	-0.205	-0.081
-400.209	717.898	-0.047	-0.125
-399.194	-32.860	0.366	0.203
-398.179	47.432	-0.081	0.075
-397.165	74.241	0.069	-0.072
-396.150	47.746	-0.195	0.181
-395.136	-81.178	0.177	-0.058
-394.121	-200.000	0.019	-0.169
-393.106	-114.516	0.362	0.069
-392.092	-99.962	-0.133	-0.033
-391.077	182.549	-0.220	-0.323
-390.063	-200.000	-0.024	0.117
-389.048	-14.938	0.109	-0.070
-388.033	800.000	0.146	0.427
-387.019	2.028	0.250	0.180
-386.004	-200.000	0.058	-0.281
-384.990	-68.917	0.095	0.036
-383.975	-142.959	-0.300	0.029
-382.960	-115.803	-0.138	0.026
-381.946	-40.876	0.184	-0.095
-380.931	-37.666	0.248	-0.132
-379.917	-127.477	-0.058	0.008
-378.902	-110.591	-0.167	-0.034
-377.888	657.383	0.076	-0.195
-376.873	-200.000	0.011	0.102
-375.858	216.888	0.078	-0.123
-374.844	-200.000	0.029	0.306
-373.829	-98.004	0.295	-0.076
-372.815	-134.961	0.221	0.027
-371.800	391.029	0.081	0.168
-370.785	-59.908	-0.252	0.107
-369.771	800.000	-0.027	-0.096
-368.756	800.000	-0.102	0.313
-367.742	-24.598	-0.179	0.106
-366.727	-68.925	-0.271	0.104
-365.712	107.191	-0.157	0.186
-364.698	421.115	0.029	0.062
-363.683	-200.000	0.039	0.242
-362.669	34.633	0.197	0.171
-361.654	-200.000	0.039	0.175
-360.639	-91.031	0.108	-0.031
-359.625	-119.781	-0.315	0.054
-358.610	19.779	-0.105	0.084
-357.596	323.135	-0.114	-0.216
-356.581	-200.000	-0.020	-0.147
-355.566	153.930	0.136	-0.185
-354.552	272.958	-0.049	-0.086
-353.537	114.892	0.097	-0.118
-352.523	332.944	-0.006	-0.012
-351.508	-91.899	0.271	-0.077
-350.493	-37.185	0.333	-0.177
-349.479	623.224	-0.116	-0.290
-348.464	-117.557	-0.306	-0.055
-347.450	-78.066	-0.263	0.090
-346.435	-139.552	-0.155	0.016
-345.420	733.797	0.134	0.356
-344.406	-98.857	0.228	0.058
-343.391	800.000	-0.024	0.087
-342.377	-200.000	-0.010	-0.165
-341.362	800.000	-0.089	0.278
-340.348	-36.811	0.057	-0.030
-339.333	521.972	0.100	0.233
-338.318	-55.773	-0.129	0.057
-337.304	-139.922	-0.180	0.019
-336.289	-200.000	0.055	-0.418
-335.275	38.310	-0.178	-0.157
-334.260	-32.689	0.099	-0.055
-333.245	-200.000	-0.027	0.151
-332.231	-75.093	-0.266	-0.095
-331.216	-77.301	-0.138	0.048
-330.202	-181.565	0.210	-0.004
-329.187	98.963	-0.028	-0.032
-328.172	250.095	-0.205	-0.346
-327.158	185.943	-0.074	-0.109
-326.143	-62.513	0.215	-0.089
-325.129	361.784	-0.144	0.286
-324.114	229.333	0.077	-0.124
-323.099	800.000	0.032	-0.097
-322.085	-122.508	-0.145	0.023
-321.070	-128.038	-0.061	-0.009
-320.056	800.000	0.027	-0.076
-319.041	57.626	-0.212	-0.205
-318.026	-99.570	-0.185	-0.046
-317.012	-66.946	-0.193	-0.076
-315.997	-200.000	-0.006	0.139
-314.983	27.568	-0.057	0.048
-313.968	-48.911	-0.142	0.068
-312.953	183.098	0.076	-0.111
-311.939	89.922	0.350	0.388
-310.924	800.000	0.038	-0.124
-309.910	-142.388	0.060	0.006
-308.895	-83.728	0.218	0.069
-307.880	178.056	0.188	-0.273
-306.866	61.742	-0.052	0.051
-305.851	-132.852	0.113	0.014
-304.837	148.435	-0.161	0.216
-303.822	-200.000	-0.003	-0.366
-302.807	-88.530	0.110	0.033
-301.793	-126.304	0.184	-0.027
-300.778	-46.145	-0.237	0.116
-299.764	-200.000	-0.001	0.193
-298.749	-117.869	0.207	-0.037
-297.735	27.145	0.065	0.054
-296.720	-114.132	-0.101	0.019
-295.705	-75.646	-0.171	-0.060
-294.691	112.858	-0.089	0.107
-293.676	417.131	0.122	-0.259
-292.662	217.260	0.027	0.043
-291.647	-200.000	-0.042	-0.233
-290.632	190.449	0.106	-0.157
-289.618	760.993	-0.209	-0.561
-288.603	-200.000	-0.001	-0.122
-287.589	800.000	0.031	-0.112
-286.574	127.693	-0.224	0.283
-285.559	-133.807	-0.182	-0.022
-284.545	404.549	0.080	0.166
-283.530	-1.018	0.122	-0.085
-282.516	-25.728	-0.212	0.124
-281.501	-118.876	-0.051	-0.009
-280.486	769.695	-0.057	-0.153
-279.472	-42.103	-0.181	0.092
-278.457	-200.000	0.300	0.001
-277.443	528.539	-0.129	-0.303
-276.428	410.692	0.037	-0.079
-275.413	21.277	0.133	-0.107
-274.399	-89.164	-0.112	0.033
-273.384	292.362	0.019	-0.033
-272.370	462.529	-0.050	-0.110
-271.355	-40.182	-0.232	0.120
-270.340	-170.010	0.412	0.015
-269.326	-113.689	0.122	-0.024
-268.311	325.279	-0.098	0.186
-267.297	-17.955	-0.231	-0.143
-266.282	-200.000	0.005	0.309
-265.267	197.935	-0.142	0.215
-264.253	21.811	0.273	0.220
-263.238	12.884	0.209	0.160
-262.224	-62.079	0.279	0.116
-261.209	118.061	-0.075	0.092
-260.195	56.668	-0.311	-0.300
-259.180	-168.117	-0.182	-0.007
-258.165	-5.369	0.080	0.054
-257.151	-57.550	-0.157	0.068
-256.136	688.578	0.136	0.351
-255.122	401.486	0.073	-0.152
-254.107	-200.000	0.044	0.333
-253.092	800.000	0.075	-0.207
-252.078	-165.880	0.287	0.012
-251.063	112.128	-0.109	0.130
-250.049	-200.000	-0.031	-0.210
-249.034	416.236	0.085	-0.180
-248.019	251.995	-0.113	0.191
-247.005	-87.255	0.092	0.028
-245.990	-200.000	-0.002	0.057
-244.976	23.739	0.175	-0.143
-243.961	800.000	0.068	0.212
-242.946	-47.707	-0.259	-0.125
-241.932	800.000	-0.060	0.208
-240.917	-82.890	-0.295	-0.094
-239.903	82.142	-0.196	0.210
-238.888	130.428	-0.108	-0.137
-237.873	55.456	0.186	-0.178
-236.859	-85.388	0.605	-0.187
-235.844	-153.447	0.069	0.005
-234.830	31.620	-0.183	0.156
-233.815	1.884	0.169	0.120
-232.800	119.082	-0.188	0.230
-231.786	-200.000	0.043	-0.349
-230.771	-115.278	0.188	0.035
-229.757	39.506	0.073	0.065
-228.742	253.854	0.039	0.066
-227.727	800.000	0.025	-0.075
-226.713	504.569	-0.079	0.181
-225.698	629.823	0.093	-0.232
-224.684	-12.088	0.330	-0.214
-223.669	-118.996	-0.175	-0.030
-222.655	-200.000	0.018	-0.092
-221.640	52.591	0.336	-0.318
-220.625	-174.185	-0.331	-0.010
-219.611	349.817	0.032	0.062
-218.596	-114.842	0.318	-0.060
-217.582	-198.933	0.251	0.001
-216.567	-79.831	0.271	0.090
-215.552	-80.078	-0.426	0.141
-214.538	-97.959	-0.375	0.096
-213.523	-200.000	-0.004	0.028
-212.509	95.250	0.166	-0.188
-211.494	-0.219	-0.242	-0.170
-210.479	-98.337	-0.108	0.027
-209.465	-97.013	-0.337	-0.087
-208.450	-38.744	0.143	-0.074
-207.436	390.473	0.040	-0.083
-206.421	-30.693	0.310	-0.174
-205.406	-200.000	0.004	0.266
-204.392	-200.000	0.095	-0.438
-203.377	354.617	-0.091	0.179
-202.363	-53.751	-0.186	0.084
-201.348	-166.589	0.437	0.018
-200.333	-45.359	-0.141	0.069
-199.319	189.172	0.100	0.148
-198.304	-74.653	0.051	-0.018
-197.290	-191.651	0.153	0.002
-196.275	-68.469	0.099	0.038
-195.260	800.000	-0.063	-0.212
-194.246	459.203	-0.107	0.236
-193.231	-45.836	0.064	-0.031
-192.217	-200.000	-0.054	0.447
-191.202	-30.921	-0.166	-0.093
-190.187	-106.420	0.283	0.063
-189.173	-6.260	-0.157	-0.106
-188.158	-61.731	0.170	-0.070
-187.144	-200.000	0.050	-0.371
-186.129	238.244	-0.112	0.184
-185.114	-91.436	-0.331	-0.093
-184.100	-66.591	-0.480	0.188
-183.085	800.000	-0.033	0.094
-182.071	438.738	-0.119	0.256
-181.056	223.195	0.171	-0.273
-180.042	425.530	-0.079	-0.167
-179.027	173.996	0.111	-0.158
-178.012	-200.000	-0.005	-0.508
-176.998	62.580	-0.151	0.149
-175.983	-200.000	0.006	-0.197
-174.969	-37.223	-0.095	0.050
-173.954	117.724	0.230	-0.280
-172.939	192.780	-0.088	-0.131
-171.925	55.831	-0.132	0.126
-170.910	60.160	0.076	-0.074
-169.896	321.904	-0.008	-0.015
-168.881	-80.133	-0.033	0.011
-167.866	34.454	-0.241	-0.208
-166.852	12.460	0.012	-0.009
-165.837	-110.932	-0.387	0.079
-164.823	-96.815	-0.427	0.111
-163.808	-200.000	-0.055	-0.357
-162.793	800.000	-0.012	0.045
-161.779	800.000	-0.041	0.137
-160.764	-200.000	-0.018	-0.273
-159.750	-113.108	-0.299	0.058
-158.735	43.324	-0.160	0.144
-157.720	136.693	0.108	-0.139
-156.706	200.288	-0.122	0.186
-155.691	280.157	0.039	0.070
-154.677	52.105	0.207	-0.195
-153.662	-172.839	-0.291	-0.009
-152.647	-128.337	0.537	-0.076
-151.633	148.803	-0.124	0.165
-150.618	-36.632	-0.179	-0.095
-149.604	153.919	-0.186	-0.252
-148.589	-59.873	0.101	0.042
-147.574	-113.348	0.253	-0.049
-146.560	-11.168	0.188	0.122
-145.545	-100.228	0.279	0.068
-144.531	-200.000	-0.052	0.232
-143.516	-154.899	-0.208	-0.014
-142.502	166.748	0.127	0.178
-141.487	-200.000	-0.007	-0.052
-140.472	-58.540	0.078	0.033
-139.458	800.000	-0.037	0.103
-138.443	800.000	0.047	0.145
-137.429	46.484	0.142	0.130
-136.414	-46.769	0.217	0.105
-135.399	-103.971	-0.283	-0.065
-134.385	-91.412	-0.304	0.086
-133.370	800.000	0.130	-0.382
-132.356	7.874	0.305	0.225
-131.341	156.304	0.179	-0.244
-130.326	26.702	0.113	0.093
-129.312	219.706	-0.103	-0.162
-128.297	800.000	0.089	0.259
-127.283	512.904	-0.043	0.100
-126.268	-200.000	0.014	-0.219
-125.253	62.043	0.047	-0.046
-124.239	75.198	-0.091	0.094
-123.224	-45.207	0.111	0.054
-122.210	-4.258	-0.400	0.273
-121.195	126.734	-0.291	0.364
-120.180	118.697	0.116	-0.141
-119.166	800.000	0.031	0.127
-118.151	626.843	0.103	0.256
-117.137	-80.365	-0.329	-0.108
-116.122	-200.000	0.053	0.302
-115.107	-170.151	-0.078	-0.003
-114.093	45.173	0.283	0.257
-113.078	50.816	-0.068	0.064
-112.064	800.000	-0.105	0.341
-111.049	10.248	-0.090	0.068
-110.034	-115.638	-0.144	-0.027
-109.020	-200.000	0.001	0.039
-108.005	7.592	0.240	0.177
-106.991	-200.000	0.063	0.345
-105.976	800.000	-0.087	-0.367
-104.962	-70.143	-0.243	0.091
-103.947	-34.132	0.224	-0.121
-102.932	61.809	-0.181	-0.177
-101.918	10.535	0.177	0.133
-100.903	-59.059	0.364	0.155
-99.889	308.035	0.036	-0.065
-98.874	-39.210	0.259	0.134
-97.859	-11.354	0.063	0.041
-96.845	-136.134	0.083	0.010
-95.830	6.458	-0.337	0.246
-94.816	122.534	-0.275	0.339
-93.801	-59.124	-0.233	0.099
-92.786	-49.714	0.148	0.069
-91.772	412.549	0.147	0.307
-90.757	-178.113	0.100	0.002
-89.743	-200.000	-0.056	-0.299
-88.728	50.871	0.135	0.126
-87.713	-10.463	-0.233	-0.152
-86.699	-200.000	0.036	0.192
-85.684	-26.522	-0.079	0.045
-84.670	293.468	0.111	0.199
-83.655	-133.721	0.182	0.022
-82.640	78.124	-0.031	0.032
-81.626	128.014	-0.087	0.109
-80.611	-200.000	0.027	-0.181
-79.597	-66.730	-0.142	0.055
-78.582	344.859	0.103	-0.198
-77.567	-116.995	-0.159	-0.029
-76.553	-141.101	-0.261	0.026
-75.538	-151.779	-0.273	0.020
-74.524	-102.593	0.048	-0.011
-73.509	-5.798	-0.107	-0.072
-72.494	-118.251	-0.328	0.057
-71.480	800.000	-0.047	-0.167
-70.465	800.000	0.109	0.298
-69.451	266.177	-0.145	0.248
-68.436	64.732	-0.078	-0.078
-67.422	225.107	-0.084	-0.134
-66.407	-92.492	0.402	-0.111
-65.392	-200.000	0.024	-0.196
-64.378	800.000	0.048	0.144
-63.363	53.446	-0.141	0.133
-62.349	-124.747	-0.285	0.043
-61.334	-9.351	-1.125	-0.739
-60.319	-82.307	0.621	0.199
-59.305	325.462	-0.441	-0.830
-58.290	108.784	0.589	0.692
-57.276	196.061	0.912	1.365
-56.261	-200.000	100.003	607.531
-55.246	598.384	1421.620	3465.698
-54.232	187.534	2617.694	3840.480
-53.217	116.058	2181.681	2626.230
-52.203	43.155	1718.711	1542.083
-51.188	35.860	1532.440	1324.912
-50.173	33.463	1506.208	1285.935
-49.159	52.291	1557.105	1459.814
-48.144	54.077	1574.540	1488.440
-47.130	35.956	1532.332	1325.268
-46.115	32.953	1517.258	1291.678
-45.100	32.813	1513.983	1287.882
-44.086	32.761	1511.978	1285.773
-43.071	32.754	1510.420	1284.351
-42.057	32.686	1508.965	1282.595
-41.042	32.704	1507.666	1281.563
-40.027	32.776	1506.048	1280.629
-39.013	32.826	1504.161	1279.307
-37.998	32.612	1503.934	1277.614
-36.984	32.610	1502.424	1276.269
-35.969	32.724	1500.534	1275.382
-34.954	32.712	1499.315	1274.216
-33.940	32.709	1498.256	1273.247
-32.925	32.856	1496.328	1272.550
-31.911	32.700	1495.350	1270.616
-30.896	32.804	1494.135	1270.234
-29.881	32.770	1492.880	1268.884
-28.867	32.759	1491.125	1267.272
-27.852	32.785	1489.995	1266.431
-26.838	32.719	1488.215	1264.425
-25.823	32.722	1486.494	1262.937
-24.809	32.777	1484.523	1261.576
-23.794	32.735	1484.016	1260.816
-22.779	32.765	1482.094	1259.331
-21.765	32.701	1481.396	1258.262
-20.750	32.735	1480.270	1257.486
-19.736	32.492	1479.646	1255.286
-18.721	32.589	1478.681	1255.063
-17.706	32.691	1476.958	1254.228
-16.692	32.668	1476.042	1253.245
-15.677	32.742	1474.642	1252.501
-14.663	32.711	1473.981	1251.682
-13.648	32.627	1473.292	1250.491
-12.633	32.592	1472.367	1249.426
-11.619	32.653	1471.640	1249.160
-10.604	32.623	1470.785	1248.191
-9.590	32.689	1469.673	1247.630
-8.575	32.641	1468.970	1246.668
-7.560	32.688	1467.900	1246.020
-6.546	32.633	1467.158	1244.977
-5.531	32.540	1466.566	1243.815
-4.517	32.704	1464.772	1243.325
-3.502	32.641	1464.272	1242.436
-2.487	32.686	1462.850	1241.473
-1.473	32.645	1461.411	1239.934
-0.458	32.594	1460.622	1238.883
0.556	30.308	1450.992	1227.391
1.571	26.997	1424.137	1183.032
2.586	23.176	1361.802	1107.292
3.600	21.432	1278.789	1029.444
4.615	20.312	1233.470	986.515
5.629	17.493	1177.961	926.712
6.644	8.526	1092.632	814.037
7.659	1.009	1050.521	745.694
8.673	-0.139	1044.708	735.875
9.688	-0.346	1042.028	732.915
10.702	-0.424	1040.223	731.200
11.717	-0.341	1037.927	729.927
12.731	2.649	1041.785	747.163
13.746	11.715	1054.474	800.759
14.761	18.061	1062.459	837.967
15.775	18.590	1061.838	839.991
16.790	18.437	1061.102	838.585
17.804	18.184	1060.119	836.497
18.819	18.070	1059.203	835.143
19.834	18.105	1058.742	834.878
20.848	18.198	1058.086	834.740
21.863	18.071	1058.195	834.132
22.877	18.057	1057.375	833.345
23.892	18.062	1056.987	832.989
24.907	18.013	1056.077	831.961
25.921	18.092	1055.234	831.607
26.936	18.050	1054.699	830.908
27.950	18.202	1052.780	830.059
28.965	18.084	1051.488	828.394
29.980	18.000	1050.311	826.992
30.994	17.887	1048.698	825.100
32.009	18.094	1048.174	825.616
33.023	18.146	1047.100	824.948
34.038	17.886	1045.861	822.646
35.053	17.870	1045.108	821.903
36.067	18.142	1044.362	822.552
37.082	18.237	1043.558	822.302
38.096	18.155	1042.876	821.297
39.111	18.217	1041.857	820.721
40.126	18.413	1041.248	821.106
41.140	18.451	1039.585	819.903
42.155	18.025	1038.568	816.993
43.169	17.845	1037.593	815.294
44.184	17.847	1035.869	813.879
45.199	17.969	1035.071	813.762
46.213	17.826	1034.183	812.309
47.228	17.732	1033.345	811.130
48.242	17.796	1032.074	810.366
49.257	17.918	1031.258	810.235
50.271	18.032	1030.521	810.125
51.286	18.116	1029.180	809.395
52.301	18.092	1028.328	808.541
53.315	18.115	1027.530	807.948
54.330	18.086	1026.760	807.136
55.344	18.007	1026.087	806.163
56.359	18.164	1024.715	805.752
57.374	18.281	1023.640	805.387
58.388	17.957	1022.975	803.269
59.403	17.910	1022.229	802.391
60.417	18.043	1021.431	802.321
61.432	18.025	1020.342	801.309
62.447	17.891	1020.151	800.457
63.461	18.020	1019.292	800.316
64.476	18.019	1018.296	799.461
65.490	18.066	1017.618	799.079
66.505	17.913	1016.548	797.453
67.520	17.898	1016.088	796.950
68.534	17.986	1014.812	796.287
69.549	17.924	1013.806	795.141
70.563	17.684	1012.705	793.091
71.578	17.544	1012.449	792.168
72.593	17.758	1010.961	791.927
73.607	17.521	1010.041	790.037
74.622	17.566	1009.113	789.448
75.636	17.935	1008.163	790.344
76.651	17.994	1007.631	790.131
77.666	17.737	1006.874	788.278
78.680	17.673	1005.992	787.223
79.695	17.863	1005.107	787.339
80.709	17.922	1004.505	787.070
81.724	17.964	1003.376	786.308
82.739	17.799	1002.643	784.907
83.753	17.866	1001.874	784.543
84.768	18.220	1001.051	785.454
85.782	18.171	1000.766	784.937
86.797	18.262	1000.160	784.808
87.812	18.306	998.621	783.732
88.826	18.088	997.797	782.018
89.841	18.217	996.949	781.873
90.855	18.282	996.176	781.496
91.870	18.299	995.468	780.951
92.884	18.265	994.711	780.132
93.899	18.167	993.836	778.928
94.914	18.017	992.793	777.362
95.928	18.146	992.179	777.397
96.943	18.220	990.936	776.690
97.957	18.029	990.160	775.146
98.972	17.753	989.011	772.929
99.987	17.630	987.927	771.456
101.001	17.794	986.962	771.379
102.016	17.962	986.755	771.907
103.030	18.067	986.003	771.724
104.045	17.968	984.765	770.240
105.060	17.909	982.878	768.431
106.074	17.660	982.061	766.603
107.089	17.754	981.079	766.191
108.103	18.169	980.965	767.899
109.118	18.307	980.016	767.707
110.133	18.014	978.962	765.502
111.147	18.041	977.802	764.646
112.162	17.982	976.817	763.545
113.176	17.764	975.781	761.696
114.191	17.978	974.762	761.786
115.206	17.942	973.932	760.911
116.220	17.644	972.534	758.424
117.235	17.664	971.550	757.678
118.249	17.811	970.841	757.712
119.264	17.882	969.566	756.965
120.279	17.622	969.412	755.624
121.293	17.728	968.268	755.136
122.308	17.767	968.119	755.123
123.322	17.846	967.131	754.635
124.337	17.882	965.695	753.606
125.352	17.871	963.944	752.127
126.366	17.450	962.279	748.909
127.381	17.047	961.176	746.210
128.395	17.536	960.840	748.035
129.410	18.190	960.461	750.545
130.424	18.241	959.224	749.736
131.439	18.110	958.754	748.727
132.454	18.165	957.171	747.663
133.468	18.134	956.029	746.572
134.483	18.113	955.399	745.920
135.497	18.076	954.703	745.151
136.512	18.312	954.020	745.581
137.527	18.272	953.433	744.880
138.541	18.298	952.267	744.016
139.556	18.426	951.259	743.720
140.570	18.334	950.653	742.781
141.585	18.394	949.577	742.135
142.600	18.397	948.878	741.534
143.614	18.288	947.780	740.141
144.629	18.458	947.010	740.210
145.643	18.511	946.509	739.981
146.658	18.445	945.397	738.760
147.673	18.290	944.718	737.494
148.687	18.287	942.899	735.999
149.702	18.286	941.876	735.132
150.716	18.189	941.217	734.135
151.731	18.241	940.102	733.423
152.746	18.122	939.600	732.459
153.760	18.384	938.951	733.006
154.775	18.569	937.930	732.936
155.789	18.497	937.147	731.952
156.804	18.535	936.079	731.216
157.819	18.428	935.059	729.899
158.833	18.485	934.489	729.632
159.848	18.563	933.788	729.350
160.862	18.548	932.940	728.561
161.877	18.453	931.870	727.259
162.892	18.325	931.158	726.095
163.906	18.574	930.445	726.528
164.921	18.500	929.801	725.648
165.935	18.622	928.195	724.846
166.950	18.583	927.183	723.829
167.964	18.554	926.060	722.765
168.979	18.654	925.081	722.358
169.994	18.454	924.703	721.155
171.008	18.319	923.906	719.905
172.023	18.474	922.772	719.609
173.037	18.531	921.943	719.139
174.052	18.252	920.738	716.964
175.067	18.043	919.961	715.423
176.081	18.196	919.104	715.333
177.096	18.269	918.178	714.850
178.110	18.395	917.482	714.773
179.125	18.229	916.341	713.131
180.140	17.996	915.184	711.196
181.154	18.064	914.459	710.853
182.169	18.012	914.035	710.243
183.183	18.225	913.241	710.448
184.198	18.380	913.114	710.930
185.213	18.351	912.288	710.104
186.227	18.422	911.305	709.568
187.242	18.479	910.927	709.447
188.256	18.621	910.216	709.419
189.271	18.432	909.183	707.771
190.286	18.473	908.484	707.331
191.300	18.398	907.899	706.505
192.315	18.096	906.730	704.291
193.329	17.427	905.291	700.358
194.344	17.081	904.403	698.186
195.359	17.695	904.333	700.594
196.373	18.373	904.365	703.343
197.388	18.458	904.277	703.560
198.402	18.363	903.280	702.333
199.417	18.301	902.556	701.455
200.432	18.405	902.003	701.386
201.446	18.217	901.003	699.780
202.461	17.922	900.314	697.974
203.475	17.900	900.097	697.656
204.490	17.579	898.333	694.916
205.504	16.533	896.675	689.314
206.519	17.074	896.404	691.248
207.534	17.948	896.794	695.045
208.548	17.986	896.082	694.588
209.563	18.322	896.007	695.833
210.577	18.431	894.828	695.300
211.592	18.055	894.631	693.558
212.607	18.422	894.185	694.640
213.621	18.306	893.679	693.714
214.636	18.557	892.365	693.647
215.650	18.378	892.276	692.794
216.665	18.438	891.802	692.608
217.680	18.494	891.053	692.191
218.694	18.643	890.392	692.218
219.709	18.281	888.962	689.584
220.723	17.886	888.245	687.378
221.738	18.137	887.958	688.106
222.753	18.267	887.566	688.261
223.767	18.362	886.419	687.693
224.782	18.467	885.577	687.401
225.796	18.488	885.195	687.128
226.811	18.841	883.928	687.499
227.826	18.163	883.389	684.307
228.840	17.630	881.469	680.627
229.855	17.671	880.986	680.360
230.869	17.948	880.665	681.155
231.884	17.598	879.363	678.697
232.899	17.653	879.298	678.805
233.913	18.283	879.320	681.269
234.928	18.547	878.760	681.826
235.942	18.377	878.374	680.789
236.957	18.528	877.712	680.817
237.972	18.225	876.138	678.333
238.986	18.316	875.429	678.084
240.001	18.222	874.995	677.316
241.015	18.285	874.431	677.070
242.030	18.390	873.619	676.795
243.045	18.412	873.262	676.547
244.059	18.479	872.695	676.311
245.074	18.700	872.209	676.748
246.088	18.482	871.454	675.243
247.103	18.215	869.992	673.000
248.117	18.210	869.613	672.626
249.132	18.737	869.137	674.268
250.147	19.021	868.821	675.077
251.161	18.951	868.018	674.122
252.176	19.033	867.457	673.948
253.190	19.105	866.723	673.600
254.205	19.067	866.464	673.189
255.220	19.301	865.850	673.567
256.234	19.227	865.389	672.860
257.249	19.146	864.588	671.860
258.263	19.142	863.644	671.054
259.278	19.125	863.146	670.539
260.293	19.172	863.078	670.613
261.307	19.296	862.224	670.373
262.322	19.177	861.329	669.152
263.336	19.021	860.465	667.818
264.351	18.460	859.106	664.529
265.366	17.501	857.150	659.245
266.380	17.036	856.213	656.666
267.395	17.960	856.279	660.233
268.409	18.669	856.756	663.283
269.424	18.692	856.084	662.795
270.439	18.955	855.437	663.249
271.453	19.039	854.721	662.958
272.468	19.193	854.187	663.079
273.482	19.243	853.906	662.993
274.497	19.305	853.264	662.677
275.512	19.185	851.736	660.972
276.526	18.691	850.590	658.129
277.541	18.745	849.973	657.800
278.555	19.108	850.250	659.346
279.570	18.973	849.004	657.806
280.585	18.616	848.532	656.017
281.599	18.690	847.984	655.819
282.614	18.990	847.120	656.237
283.628	18.552	846.373	653.931
284.643	18.537	845.185	652.897
285.657	18.629	845.665	653.560
286.672	18.661	844.285	652.557
287.687	18.143	843.697	650.079
288.701	18.498	843.649	651.332
289.716	18.870	842.745	651.989
290.730	18.423	842.009	649.666
291.745	18.411	841.417	649.105
292.760	18.303	839.916	647.483
293.774	18.273	839.718	647.159
294.789	18.873	840.032	649.613
295.803	19.585	840.061	652.268
296.818	19.469	839.643	651.449
297.833	19.674	838.862	651.558
298.847	19.490	837.574	649.806
299.862	19.183	836.813	648.004
300.876	19.190	836.513	647.739
301.891	19.728	835.587	648.987
302.906	19.523	835.322	647.953
303.920	19.097	834.341	645.536
304.935	19.013	833.602	644.594
305.949	19.313	833.132	645.298
306.964	19.325	833.366	645.464
307.979	19.500	832.096	645.079
308.993	19.398	831.350	644.064
310.008	19.780	831.299	645.394
311.022	19.770	830.924	645.008
312.037	19.594	830.364	643.859
313.052	19.307	830.003	642.451
314.066	19.231	829.359	641.614
315.081	18.751	827.946	638.680
316.095	18.169	826.763	635.550
317.110	18.626	826.425	636.930
318.125	19.374	826.585	639.773
319.139	18.969	825.718	637.544
320.154	18.032	824.150	632.809
321.168	17.793	823.168	631.113
322.183	18.417	823.073	633.291
323.197	19.129	823.059	635.856
324.212	19.215	823.173	636.206
325.227	19.289	822.956	636.255
326.241	19.319	822.744	636.146
327.256	19.609	821.416	636.130
328.270	19.341	820.911	634.697
329.285	19.334	820.244	634.097
330.300	19.257	819.598	633.262
331.314	19.051	818.812	631.840
332.329	19.181	818.359	631.915
333.343	19.402	817.913	632.324
334.358	19.555	817.561	632.554
335.373	19.573	817.063	632.180
336.387	19.587	816.358	631.628
337.402	19.940	815.915	632.520
338.416	20.034	815.275	632.312
339.431	19.914	814.545	631.252
340.446	19.867	814.106	630.683
341.460	19.777	814.005	630.224
342.475	20.000	812.918	630.136
343.489	19.848	811.936	628.769
344.504	19.735	811.649	628.081
345.519	19.987	811.755	629.021
346.533	20.115	811.124	628.943
347.548	20.284	810.625	629.111
348.562	20.261	810.162	628.614
349.577	20.351	810.018	628.771
350.592	20.231	809.224	627.665
351.606	20.315	808.778	627.568
352.621	20.208	808.253	626.719
353.635	20.261	807.391	626.186
354.650	19.906	807.757	625.133
355.665	19.786	806.529	623.693
356.679	19.033	804.600	619.436
357.694	18.793	804.247	618.248
358.708	19.236	804.084	619.662
359.723	19.205	803.702	619.199
360.738	19.655	803.165	620.346
361.752	19.944	803.222	621.372
362.767	19.985	802.764	621.111
363.781	20.179	802.477	621.530
364.796	20.458	801.942	622.058
365.810	20.456	801.825	621.906
366.825	20.567	801.631	622.099
367.840	20.562	801.163	621.662
368.854	20.377	800.288	620.269
369.869	20.179	799.133	618.610
370.883	20.107	798.642	617.920
371.898	19.977	798.436	617.243
372.913	20.007	797.583	616.635
373.927	19.776	797.214	615.471
374.942	20.090	796.500	615.985
375.956	20.167	796.185	615.959
376.971	20.391	795.316	616.026
377.986	20.395	794.766	615.560
379.000	20.441	794.589	615.530
380.015	20.713	793.941	615.937
381.029	20.325	793.584	614.234
382.044	20.395	792.825	613.841
383.059	20.489	792.547	613.901
384.073	20.469	791.885	613.265
385.088	20.443	791.147	612.547
386.102	20.598	790.817	612.782
387.117	20.517	790.220	611.982
388.132	20.313	790.044	611.072
389.146	20.312	789.099	610.285
390.161	19.883	788.094	607.948
391.175	19.706	788.293	607.425
392.190	20.075	787.690	608.202
393.205	20.221	787.159	608.251
394.219	19.397	785.768	604.234
395.234	18.118	783.707	598.125
396.248	17.476	782.978	595.273
397.263	18.527	783.912	599.606
398.278	19.900	785.036	605.219
399.292	20.316	784.726	606.380
400.307	20.191	784.105	605.408
401.321	20.004	783.573	604.293
402.336	20.189	783.313	604.683
403.350	20.253	783.036	604.639
404.365	20.662	782.791	605.822
405.380	20.822	782.510	606.107
406.394	21.039	782.336	606.674
407.409	21.177	781.800	606.684
408.423	21.142	781.150	606.004
409.438	20.998	780.331	604.815
410.453	21.112	780.025	604.919
411.467	21.171	779.586	604.731
412.482	21.083	779.174	604.053
413.496	21.100	778.787	603.758
414.511	21.144	778.699	603.787
415.526	21.183	778.168	603.460
416.540	21.210	777.626	603.077
417.555	21.215	777.175	602.693
418.569	20.795	776.464	600.638
419.584	20.806	775.871	600.167
420.599	20.811	775.518	599.857
421.613	156.634	1360.459	1793.840
422.628	135.192	1445.700	1793.940
