DTS Sentinel unit serial number:	SN413079Multiplexer serial number:	ORYXHardware model number:	OX4-SRSoftware version number:	ORYX F/W v4.00 Oryx Data Collector v3.7.2.0data status	okinstallation	princeton_trtdifferential loss correction	single-endedforward channel	channel 3reverse channel	N/Adate	2019/09/11time	05:26:11forward acquisition time	60.00reverse acquisition time	0.00gamma	496.2192k internal	0.2331k external	0.2331temperature offset calibration	0.9907default loss term (dB/km)	0.3790temperature slope calibration	1.0000multiplexer offset coefficient	1.0000multiplexer slope coefficient	1.0000fibre end	0.00T internal ref (°C)	29.44T ext. ref 1 (°C)	-0.26T ext. ref 2 (°C)	23.48length (m)	temperature (°C)	Stokes	anti-Stokes-747.200	-88.409	0.459	0.138
-746.185	-45.174	-0.085	-0.042
-745.171	-56.261	0.219	0.098
-744.156	-70.367	-0.306	0.117
-743.142	-132.589	0.054	-0.007
-742.127	-47.844	0.066	-0.032
-741.112	800.000	0.104	-0.339
-740.098	-150.087	0.262	-0.021
-739.083	-200.000	-0.027	-0.283
-738.069	-64.741	-0.326	0.133
-737.054	-24.786	0.217	-0.130
-736.039	-171.136	-0.317	0.011
-735.025	-200.000	-0.065	-0.423
-734.010	185.345	-0.100	-0.149
-732.996	-165.936	-0.100	-0.004
-731.981	179.729	0.262	-0.386
-730.966	-200.000	-0.023	0.254
-729.952	133.168	-0.294	0.382
-728.937	-200.000	-0.033	0.209
-727.923	296.539	-0.064	0.118
-726.908	467.165	-0.020	0.046
-725.894	-200.000	0.034	0.319
-724.879	-52.887	0.104	0.048
-723.864	800.000	0.025	0.096
-722.850	-101.430	-0.292	0.072
-721.835	-200.000	0.028	-0.425
-720.821	-200.000	-0.047	-0.315
-719.806	89.344	-0.152	-0.170
-718.791	-200.000	-0.066	0.328
-717.777	-124.950	-0.080	0.012
-716.762	-200.000	0.082	-0.449
-715.748	-200.000	0.016	-0.095
-714.733	292.423	0.076	0.139
-713.718	198.208	0.161	0.247
-712.704	-56.016	0.117	-0.052
-711.689	75.847	-0.211	0.224
-710.675	-1.933	-0.303	-0.215
-709.660	-19.266	-0.310	-0.194
-708.645	-200.000	-0.016	-0.112
-707.631	-200.000	0.014	0.073
-706.616	291.365	0.036	-0.065
-705.602	-63.544	-0.126	-0.052
-704.587	-200.000	0.005	0.054
-703.572	-200.000	-0.056	0.358
-702.558	-141.582	-0.342	-0.035
-701.543	5.719	0.292	-0.217
-700.529	31.804	-0.169	-0.146
-699.514	207.640	-0.152	-0.239
-698.499	-150.286	-0.015	0.001
-697.485	800.000	0.089	-0.325
-696.470	20.935	-0.147	-0.120
-695.456	-150.835	0.295	-0.022
-694.441	800.000	-0.089	-0.289
-693.426	-200.000	0.026	-0.225
-692.412	350.494	0.055	-0.110
-691.397	-138.403	-0.057	-0.006
-690.383	-200.000	0.022	-0.309
-689.368	78.204	-0.181	-0.194
-688.354	-20.612	0.236	0.146
-687.339	-56.012	-0.127	-0.057
-686.324	-80.693	-0.043	0.014
-685.310	57.193	-0.117	-0.115
-684.295	-200.000	0.000	-0.045
-683.281	-39.066	0.251	0.133
-682.266	-59.460	-0.387	-0.167
-681.251	623.896	0.027	-0.069
-680.237	-84.118	-0.458	0.146
-679.222	-200.000	0.002	0.066
-678.208	-143.875	0.246	-0.023
-677.193	67.639	-0.152	0.156
-676.178	-94.553	0.201	-0.055
-675.164	-153.530	0.379	0.026
-674.149	-200.000	0.030	-0.138
-673.135	-116.245	-0.049	0.009
-672.120	-31.946	0.324	-0.182
-671.105	-200.000	-0.010	0.265
-670.091	-82.557	-0.198	0.065
-669.076	225.185	0.273	-0.444
-668.062	-200.000	0.008	-0.120
-667.047	345.320	0.073	-0.144
-666.032	-200.000	0.029	0.217
-665.018	-84.565	-0.204	-0.065
-664.003	-200.000	-0.048	-0.461
-662.989	-122.017	0.135	-0.022
-661.974	-42.905	-0.106	0.054
-660.959	329.999	-0.095	-0.184
-659.945	-142.292	0.287	-0.028
-658.930	118.095	-0.161	0.199
-657.916	15.528	0.144	-0.113
-656.901	133.465	0.119	-0.154
-655.886	-61.914	0.056	-0.023
-654.872	-41.369	0.044	-0.023
-653.857	-4.354	-0.131	-0.091
-652.843	-200.000	0.004	0.328
-651.828	175.131	0.131	0.191
-650.814	-122.377	-0.160	-0.026
-649.799	14.245	-0.172	-0.135
-648.784	-51.414	-0.097	-0.045
-647.770	-172.390	-0.293	0.009
-646.755	492.156	0.023	-0.054
-645.741	-200.000	0.010	-0.319
-644.726	92.574	0.390	0.441
-643.711	43.010	0.143	0.131
-642.697	800.000	-0.077	-0.231
-641.682	-81.163	0.387	-0.128
-640.668	-20.715	-0.232	0.143
-639.653	-200.000	-0.048	0.268
-638.638	-200.000	0.052	0.315
-637.624	-142.369	-0.263	-0.026
-636.609	-139.317	0.274	0.029
-635.595	558.464	-0.151	-0.366
-634.580	-38.871	-0.074	0.039
-633.565	473.428	-0.177	-0.399
-632.551	23.272	-0.083	-0.068
-631.536	93.165	-0.110	-0.124
-630.522	278.064	-0.176	0.314
-629.507	800.000	-0.038	-0.124
-628.492	-10.751	0.237	0.157
-627.478	260.815	-0.121	-0.209
-626.463	210.956	-0.096	0.151
-625.449	-80.051	0.437	-0.147
-624.434	-200.000	0.009	0.223
-623.419	581.282	-0.114	0.280
-622.405	-200.000	-0.012	0.181
-621.390	-200.000	0.075	-0.347
-620.376	-25.582	-0.376	-0.222
-619.361	166.132	-0.307	0.435
-618.346	-200.000	0.034	-0.207
-617.332	4.191	0.314	-0.230
-616.317	20.728	0.142	-0.115
-615.303	-37.627	0.109	0.058
-614.288	29.347	-0.199	-0.169
-613.273	-194.736	-0.114	0.001
-612.259	64.106	-0.157	-0.158
-611.244	-65.615	0.141	-0.057
-610.230	-18.235	-0.083	-0.052
-609.215	-200.000	0.006	-0.048
-608.201	-200.000	0.044	-0.312
-607.186	16.339	-0.145	0.115
-606.171	110.357	0.055	-0.067
-605.157	-200.000	-0.025	-0.123
-604.142	69.509	-0.173	-0.178
-603.128	-160.176	-0.167	-0.009
-602.113	-200.000	-0.022	-0.227
-601.098	-154.938	0.252	-0.017
-600.084	800.000	-0.066	0.197
-599.069	-71.810	0.210	-0.078
-598.055	52.312	-0.159	0.152
-597.040	34.348	0.187	-0.163
-596.025	-145.276	0.137	-0.012
-595.011	-63.116	-0.194	-0.080
-593.996	33.278	-0.251	-0.218
-592.982	-86.431	0.255	-0.078
-591.967	-96.835	-0.342	0.090
-590.952	-200.000	-0.017	0.132
-589.938	-12.952	-0.209	0.136
-588.923	35.099	0.015	-0.013
-587.909	-200.000	0.008	-0.146
-586.894	-69.824	0.169	0.064
-585.879	-23.599	0.117	-0.070
-584.865	-154.694	-0.096	0.006
-583.850	800.000	0.083	-0.331
-582.836	-27.217	0.114	0.067
-581.821	285.186	-0.052	0.093
-580.806	-19.285	-0.080	-0.049
-579.792	117.535	0.294	0.362
-578.777	800.000	0.020	0.084
-577.763	-76.263	0.091	0.032
-576.748	41.283	0.225	0.204
-575.733	410.719	-0.126	0.268
-574.719	90.621	-0.097	0.109
-573.704	513.475	-0.118	-0.274
-572.690	-200.000	-0.007	0.217
-571.675	-35.597	0.044	-0.024
-570.661	-200.000	0.021	-0.095
-569.646	-82.047	0.157	0.051
-568.631	-68.550	0.052	-0.020
-567.617	-200.000	-0.019	-0.308
-566.602	-14.111	-0.173	0.112
-565.588	-125.106	-0.306	-0.047
-564.573	484.031	-0.094	0.214
-563.558	-168.192	0.236	0.009
-562.544	-128.990	-0.367	0.051
-561.529	-105.638	-0.206	-0.047
-560.515	287.079	-0.260	0.470
-559.500	30.990	-0.309	0.265
-558.485	-165.661	-0.147	-0.006
-557.471	41.535	0.066	-0.060
-556.456	48.553	0.195	0.182
-555.442	323.960	-0.111	-0.211
-554.427	186.912	-0.110	0.163
-553.412	-105.284	0.314	-0.072
-552.398	311.854	-0.054	-0.102
-551.383	800.000	0.048	-0.211
-550.369	0.021	0.081	-0.058
-549.354	201.747	0.075	0.116
-548.339	-102.136	0.200	-0.048
-547.325	-200.000	0.012	-0.194
-546.310	800.000	-0.063	0.209
-545.296	170.723	0.065	-0.093
-544.281	36.504	0.082	-0.072
-543.266	-24.404	-0.149	0.089
-542.252	59.062	0.329	0.323
-541.237	47.235	0.094	-0.087
-540.223	-115.898	0.063	-0.012
-539.208	-22.436	0.268	-0.162
-538.193	-11.078	-0.037	0.024
-537.179	280.991	-0.080	0.143
-536.164	-135.174	-0.257	-0.031
-535.150	31.700	0.077	-0.066
-534.135	389.074	0.232	-0.479
-533.121	-18.387	0.154	0.096
-532.106	346.259	0.105	0.206
-531.091	254.169	-0.093	-0.158
-530.077	-200.000	-0.022	-0.121
-529.062	-126.463	0.145	-0.022
-528.048	-176.062	-0.169	-0.004
-527.033	40.330	-0.237	0.213
-526.018	-200.000	0.083	-0.457
-525.004	-89.375	0.359	-0.106
-523.989	-94.574	0.121	-0.033
-522.975	56.479	-0.080	-0.078
-521.960	-200.000	-0.051	0.376
-520.945	800.000	-0.045	-0.142
-519.931	279.903	-0.083	-0.147
-518.916	711.347	0.210	-0.555
-517.902	66.327	0.170	0.172
-516.887	17.447	0.253	-0.201
-515.872	123.912	0.110	-0.138
-514.858	31.132	-0.065	0.056
-513.843	-140.428	0.123	0.013
-512.829	-85.520	-0.165	-0.051
-511.814	198.586	0.143	-0.219
-510.799	-200.000	0.027	-0.328
-509.785	145.238	-0.130	0.174
-508.770	-19.932	0.134	0.082
-507.756	8.196	-0.103	-0.077
-506.741	231.856	0.052	-0.085
-505.726	800.000	-0.046	0.191
-504.712	-77.543	-0.226	0.078
-503.697	-89.407	0.271	0.080
-502.683	51.820	-0.131	-0.124
-501.668	-143.536	-0.161	0.015
-500.653	-150.850	0.028	-0.002
-499.639	800.000	-0.014	0.057
-498.624	800.000	0.097	0.404
-497.610	-200.000	-0.006	0.177
-496.595	-125.825	-0.042	-0.006
-495.581	49.500	-0.153	-0.143
-494.566	-200.000	0.008	-0.073
-493.551	132.939	-0.157	-0.202
-492.537	734.172	0.082	-0.218
-491.522	22.719	0.137	0.112
-490.508	800.000	-0.081	0.235
-489.493	-200.000	0.050	-0.324
-488.478	-132.905	-0.090	-0.011
-487.464	-200.000	-0.001	0.444
-486.449	-200.000	-0.035	0.440
-485.435	637.148	0.074	-0.187
-484.420	-200.000	-0.022	0.237
-483.405	77.795	-0.035	0.037
-482.391	261.467	-0.054	0.093
-481.376	-35.331	-0.320	0.173
-480.362	-200.000	0.027	0.427
-479.347	81.930	0.304	0.329
-478.332	-117.340	0.246	0.044
-477.318	800.000	-0.013	-0.046
-476.303	-200.000	-0.033	0.225
-475.289	160.415	0.101	0.140
-474.274	-181.520	-0.048	-0.001
-473.259	258.108	0.052	-0.088
-472.245	-200.000	0.007	-0.224
-471.230	-34.107	-0.002	0.001
-470.216	-89.074	-0.305	-0.090
-469.201	245.353	-0.111	-0.186
-468.186	800.000	0.002	-0.006
-467.172	15.482	-0.389	0.304
-466.157	231.684	-0.036	-0.058
-465.143	-15.974	-0.185	0.117
-464.128	-200.000	-0.005	-0.121
-463.113	800.000	0.042	-0.170
-462.099	800.000	-0.041	-0.136
-461.084	489.037	-0.144	0.328
-460.070	-200.000	0.030	0.173
-459.055	27.866	-0.152	0.128
-458.040	-28.530	-0.192	0.110
-457.026	53.666	0.212	-0.202
-456.011	-63.242	-0.231	-0.095
-454.997	-26.877	0.061	0.036
-453.982	20.769	0.166	-0.133
-452.968	-200.000	0.001	0.160
-451.953	-80.180	-0.176	-0.059
-450.938	48.058	-0.124	0.116
-449.924	178.461	0.079	0.115
-448.909	-200.000	0.017	0.235
-447.895	-200.000	-0.018	0.094
-446.880	-199.929	-0.090	0.000
-445.865	320.986	0.059	-0.111
-444.851	-200.000	0.029	0.145
-443.836	418.738	0.147	0.312
-442.822	800.000	-0.027	-0.116
-441.807	-164.252	0.286	-0.013
-440.792	-51.435	-0.310	0.144
-439.778	247.496	-0.163	0.275
-438.763	-200.000	-0.017	0.179
-437.749	-54.009	-0.124	0.056
-436.734	124.804	0.145	0.182
-435.719	800.000	0.094	-0.329
-434.705	285.815	-0.214	-0.384
-433.690	-200.000	0.064	0.440
-432.676	-43.306	0.160	0.080
-431.661	26.647	0.129	-0.107
-430.646	-200.000	0.001	-0.097
-429.632	-114.155	-0.094	-0.018
-428.617	-121.713	0.116	0.019
-427.603	800.000	0.043	-0.132
-426.588	-200.000	0.005	-0.100
-425.573	201.296	-0.084	-0.129
-424.559	-76.191	0.215	-0.075
-423.544	15.069	0.149	0.116
-422.530	-200.000	0.004	0.168
-421.515	800.000	-0.072	-0.202
-420.500	-23.047	-0.204	-0.122
-419.486	-64.518	0.122	-0.049
-418.471	204.696	0.230	-0.355
-417.457	761.622	0.060	-0.161
-416.442	-78.856	0.254	-0.086
-415.428	-65.450	-0.269	-0.107
-414.413	-76.156	0.346	0.121
-413.398	216.945	0.054	-0.085
-412.384	-127.191	0.403	-0.059
-411.369	99.146	0.371	0.426
-410.355	78.848	0.093	0.099
-409.340	122.283	-0.110	-0.137
-408.325	448.005	-0.092	-0.202
-407.311	-30.085	-0.023	-0.013
-406.296	800.000	-0.081	0.262
-405.282	25.029	-0.206	0.170
-404.267	-92.203	0.250	0.070
-403.252	-49.958	0.104	0.049
-402.238	-200.000	0.004	0.036
-401.223	-36.327	0.129	0.069
-400.209	125.993	-0.179	0.225
-399.194	-20.277	0.139	0.085
-398.179	-200.000	0.002	-0.152
-397.165	-200.000	-0.014	0.149
-396.150	522.215	-0.123	0.286
-395.136	22.622	-0.275	0.223
-394.121	182.665	0.178	0.261
-393.106	-43.121	0.180	0.091
-392.092	10.847	0.190	-0.144
-391.077	-200.000	0.025	-0.257
-390.063	264.511	0.189	0.327
-389.048	-139.398	0.131	0.014
-388.033	174.361	0.033	0.047
-387.019	486.636	-0.157	-0.355
-386.004	-200.000	-0.054	0.242
-384.990	-78.495	0.055	0.019
-383.975	355.665	-0.091	0.179
-382.960	-200.000	-0.000	0.037
-381.946	-56.431	-0.114	-0.050
-380.931	-52.501	0.151	-0.069
-379.917	107.734	-0.124	-0.146
-378.902	50.955	-0.104	0.098
-377.888	-61.047	0.262	-0.110
-376.873	-14.494	0.216	-0.138
-375.858	454.419	-0.057	-0.125
-374.844	-200.000	0.063	0.343
-373.829	-73.246	0.308	-0.112
-372.815	-7.407	-0.081	0.054
-371.800	13.770	-0.142	-0.109
-370.785	-93.021	-0.326	0.090
-369.771	-137.361	-0.357	0.040
-368.756	-143.364	-0.215	0.020
-367.742	-93.373	0.186	0.051
-366.727	188.658	0.114	-0.169
-365.712	33.857	-0.196	0.169
-364.698	385.167	0.128	-0.262
-363.683	273.802	0.060	0.106
-362.669	800.000	-0.125	0.437
-361.654	325.346	-0.119	-0.225
-360.639	-56.600	-0.043	0.019
-359.625	-200.000	0.015	-0.299
-358.610	453.603	-0.027	-0.060
-357.596	-61.669	0.264	-0.110
-356.581	-200.000	0.016	-0.359
-355.566	20.550	0.289	0.232
-354.552	-74.701	-0.299	-0.107
-353.537	-136.954	-0.086	-0.010
-352.523	396.388	0.056	0.115
-351.508	146.597	-0.122	0.162
-350.493	58.060	0.128	0.124
-349.479	735.419	-0.061	0.162
-348.464	-11.555	-0.530	-0.345
-347.450	4.592	-0.245	-0.178
-346.435	153.828	-0.155	0.211
-345.420	-5.870	0.216	-0.146
-344.406	259.891	0.066	-0.114
-343.391	-200.000	0.034	0.279
-342.377	156.915	-0.132	-0.181
-341.362	800.000	0.067	-0.261
-340.348	-50.388	0.128	0.060
-339.333	800.000	-0.070	-0.251
-338.318	-89.710	-0.219	0.063
-337.304	-141.493	-0.197	-0.020
-336.289	-200.000	-0.013	-0.255
-335.275	190.251	0.142	-0.212
-334.260	-26.271	0.100	0.058
-333.245	-120.580	-0.397	0.067
-332.231	140.501	0.205	-0.268
-331.216	208.249	0.072	0.111
-330.202	-91.028	-0.183	0.052
-329.187	21.682	0.069	-0.056
-328.172	165.526	-0.100	-0.141
-327.158	15.850	0.545	-0.425
-326.143	-169.674	-0.303	-0.011
-325.129	800.000	-0.010	0.042
-324.114	-200.000	-0.020	-0.103
-323.099	-123.699	-0.260	-0.041
-322.085	67.173	0.260	-0.262
-321.070	-143.234	0.047	0.004
-320.056	45.871	0.162	0.148
-319.041	305.167	-0.032	0.059
-318.026	-78.943	-0.213	0.072
-317.012	423.735	-0.037	-0.079
-315.997	239.821	0.125	0.206
-314.983	276.231	-0.219	0.385
-313.968	-123.363	0.138	0.022
-312.953	-63.860	-0.282	-0.114
-311.939	-14.379	-0.143	0.091
-310.924	148.318	-0.125	-0.167
-309.910	-7.105	-0.326	-0.219
-308.895	103.678	-0.216	0.251
-307.880	87.202	0.170	-0.186
-306.866	-92.543	0.478	0.133
-305.851	-200.000	0.015	-0.077
-304.837	-200.000	0.024	0.203
-303.822	702.454	0.032	-0.083
-302.807	132.384	0.040	-0.051
-301.793	99.444	0.224	0.256
-300.778	16.840	-0.172	0.135
-299.764	-125.128	-0.287	-0.044
-298.749	-115.375	0.044	-0.008
-297.735	-78.799	0.127	-0.043
-296.720	85.483	0.275	-0.299
-295.705	252.556	0.112	0.188
-294.691	97.990	-0.126	0.144
-293.676	-30.646	-0.143	-0.080
-292.662	41.033	0.040	0.035
-291.647	-14.466	0.198	-0.126
-290.632	68.978	0.291	-0.296
-289.618	-106.306	-0.304	0.067
-288.603	-200.000	-0.045	-0.325
-287.589	-200.000	-0.046	-0.408
-286.574	-46.313	0.173	-0.084
-285.559	-200.000	0.009	-0.067
-284.545	-130.082	-0.460	0.062
-283.530	-133.007	0.189	-0.024
-282.516	-200.000	-0.006	-0.205
-281.501	-91.907	0.116	0.033
-280.486	-200.000	-0.035	0.197
-279.472	172.942	0.111	-0.158
-278.457	-0.885	0.103	0.072
-277.443	491.714	-0.088	-0.200
-276.428	179.932	0.061	-0.089
-275.413	-60.785	0.205	-0.086
-274.399	360.248	-0.102	0.202
-273.384	205.836	0.166	0.255
-272.370	321.422	0.085	0.160
-271.355	-200.000	0.036	0.304
-270.340	90.127	-0.104	0.115
-269.326	-23.024	0.129	0.077
-268.311	-181.731	-0.304	-0.006
-267.297	-87.236	0.099	0.030
-266.282	101.338	0.046	-0.053
-265.267	36.810	0.167	-0.145
-264.253	-103.640	-0.235	-0.054
-263.238	116.956	0.043	0.052
-262.224	-200.000	0.027	0.147
-261.209	800.000	-0.048	0.182
-260.195	-126.549	0.270	-0.040
-259.180	22.972	0.067	-0.055
-258.165	-69.957	0.135	-0.051
-257.151	-58.167	0.103	0.044
-256.136	-200.000	0.021	-0.321
-255.122	-99.635	0.318	-0.079
-254.107	-200.000	0.000	-0.017
-253.092	-121.412	-0.244	-0.040
-252.078	-36.512	0.133	-0.071
-251.063	-63.353	0.094	-0.038
-250.049	-200.000	-0.031	-0.387
-249.034	-200.000	-0.001	0.340
-248.019	156.637	-0.117	0.159
-247.005	-135.065	0.221	-0.026
-245.990	-122.944	-0.217	-0.035
-244.976	800.000	-0.128	0.411
-243.961	800.000	-0.053	0.189
-242.946	182.113	0.067	-0.098
-241.932	-200.000	-0.037	-0.214
-240.917	168.037	0.227	-0.319
-239.903	357.395	0.043	-0.084
-238.888	-129.808	-0.074	-0.010
-237.873	800.000	0.048	-0.205
-236.859	800.000	-0.087	-0.315
-235.844	-140.412	-0.228	-0.023
-234.830	-157.084	-0.280	0.017
-233.815	-66.050	0.244	-0.096
-232.800	-200.000	-0.033	0.172
-231.786	17.674	-0.346	0.272
-230.771	646.762	-0.168	0.423
-229.757	-200.000	0.073	0.368
-228.742	-22.952	-0.032	0.019
-227.727	-71.173	-0.171	-0.063
-226.713	-82.971	-0.280	-0.089
-225.698	800.000	-0.074	0.206
-224.684	101.776	0.017	0.019
-223.669	-139.762	0.167	-0.018
-222.655	800.000	0.133	0.476
-221.640	800.000	-0.040	0.150
-220.625	-200.000	-0.026	-0.150
-219.611	-200.000	0.011	-0.121
-218.596	-139.721	0.267	-0.028
-217.582	-44.799	-0.041	-0.020
-216.567	-200.000	0.000	0.218
-215.552	208.471	0.040	0.061
-214.538	-105.144	-0.258	0.058
-213.523	-71.461	-0.227	-0.084
-212.509	-110.300	0.229	-0.047
-211.494	-44.548	0.183	-0.090
-210.479	-85.880	-0.143	0.044
-209.465	68.135	-0.056	-0.057
-208.450	688.481	0.114	0.293
-207.436	470.883	-0.166	0.368
-206.421	225.747	-0.035	0.055
-205.406	20.743	-0.045	0.036
-204.392	145.382	-0.076	-0.100
-203.377	800.000	0.106	0.301
-202.363	115.589	0.015	-0.018
-201.348	46.849	0.200	-0.183
-200.333	-200.000	0.044	-0.286
-199.319	124.662	-0.009	0.011
-198.304	-53.066	-0.211	0.096
-197.290	-193.301	-0.103	-0.001
-196.275	213.480	0.071	-0.110
-195.260	-94.276	0.396	-0.107
-194.246	31.611	0.128	0.109
-193.231	-172.638	-0.216	0.007
-192.217	96.590	-0.121	-0.136
-191.202	800.000	0.102	-0.333
-190.187	241.171	0.048	-0.080
-189.173	-142.402	-0.332	-0.032
-188.158	177.391	0.106	-0.152
-187.144	39.744	-0.099	-0.087
-186.129	-34.383	-0.101	-0.054
-185.114	1.005	0.061	0.043
-184.100	191.223	0.064	-0.096
-183.085	-200.000	-0.159	0.001
-182.071	117.597	0.169	-0.205
-181.056	-200.000	0.029	-0.228
-180.042	32.706	-0.147	0.125
-179.027	-0.145	0.110	-0.077
-178.012	182.168	0.173	0.251
-176.998	-83.677	-0.249	0.078
-175.983	71.163	-0.181	0.184
-174.969	262.950	0.198	-0.339
-173.954	-186.964	0.388	0.005
-172.939	13.516	0.188	-0.143
-171.925	181.527	0.261	0.379
-170.910	52.591	0.296	-0.278
-169.896	-200.000	-0.106	0.000
-168.881	-103.861	-0.314	0.072
-167.866	97.394	-0.136	0.154
-166.852	-152.999	0.220	0.015
-165.837	-200.000	-0.003	-0.027
-164.823	-36.334	-0.108	-0.057
-163.808	800.000	-0.037	0.129
-162.793	-200.000	0.075	0.364
-161.779	166.537	0.132	0.184
-160.764	-119.765	0.258	-0.044
-159.750	91.511	0.162	-0.180
-158.735	-61.255	-0.125	-0.052
-157.720	-78.213	0.159	-0.054
-156.706	93.639	-0.028	0.031
-155.691	772.628	0.076	-0.204
-154.677	800.000	-0.028	-0.113
-153.662	104.980	-0.139	0.161
-152.647	-113.336	-0.189	0.036
-151.633	379.088	-0.033	0.066
-150.618	-115.797	0.173	0.032
-149.604	-200.000	-0.052	0.260
-148.589	-5.809	0.131	-0.088
-147.574	-200.000	-0.032	-0.154
-146.560	-141.558	0.269	-0.027
-145.545	-200.000	0.010	0.132
-144.531	391.210	0.132	0.270
-143.516	-126.634	-0.202	-0.029
-142.502	102.591	-0.198	-0.228
-141.487	-50.993	0.286	-0.132
-140.472	148.605	-0.059	-0.078
-139.458	8.834	-0.120	0.089
-138.443	28.728	-0.061	0.051
-137.429	-77.648	0.137	-0.046
-136.414	512.229	-0.141	-0.324
-135.399	154.460	-0.191	-0.258
-134.385	800.000	-0.057	0.201
-133.370	-166.734	-0.141	0.006
-132.356	-76.036	-0.230	-0.080
-131.341	-200.000	-0.031	-0.214
-130.326	-7.649	-0.065	-0.043
-129.312	-0.348	0.079	-0.055
-128.297	-200.000	-0.059	0.386
-127.283	800.000	0.100	0.309
-126.268	-200.000	-0.011	0.087
-125.253	318.210	0.092	0.171
-124.239	-118.837	-0.141	0.024
-123.224	559.343	0.040	-0.095
-122.210	79.754	0.190	0.200
-121.195	-139.342	-0.051	-0.005
-120.180	29.428	-0.305	-0.255
-119.166	-16.317	0.070	-0.044
-118.151	550.779	0.146	-0.345
-117.137	291.962	0.241	-0.431
-116.122	129.544	0.126	-0.158
-115.107	-134.606	-0.239	-0.029
-114.093	138.173	0.163	0.210
-113.078	160.423	0.166	-0.227
-112.064	141.782	0.172	0.223
-111.049	181.578	-0.080	0.116
-110.034	-39.786	0.397	-0.204
-109.020	130.119	0.201	-0.253
-108.005	-47.500	0.339	-0.162
-106.991	-200.000	-0.015	-0.276
-105.976	17.000	-0.224	0.174
-104.962	213.639	-0.089	0.138
-103.947	60.528	0.211	0.205
-102.932	252.441	0.122	0.203
-101.918	-3.110	0.191	0.131
-100.903	-142.381	-0.289	0.028
-99.889	408.870	-0.122	-0.254
-98.874	-116.296	0.144	0.026
-97.859	557.958	0.046	0.109
-96.845	-121.615	-0.083	0.013
-95.830	30.424	0.269	-0.226
-94.816	55.682	0.070	0.066
-93.801	19.373	0.358	0.282
-92.786	-27.196	0.316	-0.181
-91.772	632.100	0.053	-0.132
-90.757	76.874	0.256	0.267
-89.743	286.393	-0.075	-0.132
-88.728	-39.478	0.083	-0.043
-87.713	800.000	-0.008	-0.032
-86.699	26.776	0.187	-0.154
-85.684	-171.200	-0.121	-0.004
-84.670	-76.109	0.065	0.023
-83.655	3.999	-0.250	0.179
-82.640	-78.290	-0.154	-0.052
-81.626	800.000	-0.082	0.247
-80.611	170.347	-0.051	-0.072
-79.597	800.000	-0.040	0.138
-78.582	-79.750	-0.184	-0.061
-77.567	28.501	-0.161	-0.134
-76.553	335.852	0.105	-0.200
-75.538	-60.609	-0.193	-0.080
-74.524	-89.578	-0.076	-0.022
-73.509	-68.809	-0.208	-0.079
-72.494	-84.136	0.211	-0.066
-71.480	30.862	-0.134	-0.112
-70.465	-74.383	-0.312	0.110
-69.451	313.162	-0.239	0.440
-68.436	-99.652	0.170	-0.042
-67.422	30.329	0.251	0.210
-66.407	-139.340	0.045	0.005
-65.392	-153.809	0.214	0.014
-64.378	-200.000	-0.044	0.400
-63.363	-62.325	0.308	-0.126
-62.349	47.851	-0.204	0.187
-61.334	29.948	-1.193	-0.997
-60.319	67.610	0.686	0.687
-59.305	-200.000	-0.110	-0.891
-58.290	156.658	0.905	1.225
-57.276	207.394	0.728	1.113
-56.261	-200.000	106.281	615.093
-55.246	507.295	1510.346	3433.609
-54.232	176.141	2702.511	3845.029
-53.217	110.613	2185.670	2575.117
-52.203	40.106	1705.360	1501.822
-51.188	32.592	1515.854	1283.907
-50.173	30.258	1488.771	1245.276
-49.159	51.477	1545.490	1438.513
-48.144	51.656	1561.820	1454.876
-47.130	32.851	1517.358	1286.748
-46.115	29.776	1502.659	1253.424
-45.100	29.595	1498.771	1248.906
-44.086	29.497	1496.744	1246.506
-43.071	29.451	1494.993	1244.694
-42.057	29.402	1493.318	1242.918
-41.042	29.440	1491.810	1241.867
-40.027	29.462	1490.578	1240.944
-39.013	29.425	1488.933	1239.277
-37.998	29.362	1487.845	1237.896
-36.984	29.327	1486.587	1236.567
-35.969	29.448	1484.782	1235.827
-34.954	29.455	1483.606	1234.845
-33.940	29.357	1482.220	1232.986
-32.925	29.376	1480.887	1231.957
-31.911	29.572	1479.222	1231.827
-30.896	29.452	1478.232	1230.156
-29.881	29.487	1476.818	1229.166
-28.867	29.490	1475.984	1228.441
-27.852	29.479	1474.547	1227.125
-26.838	29.441	1473.362	1225.837
-25.823	29.513	1471.528	1224.741
-24.809	29.573	1469.510	1223.410
-23.794	29.414	1468.773	1221.692
-22.779	29.504	1467.422	1221.119
-21.765	29.569	1466.228	1220.507
-20.750	29.452	1465.471	1219.049
-19.736	29.456	1464.095	1217.886
-18.721	29.458	1463.094	1217.017
-17.706	29.416	1461.806	1215.623
-16.692	29.431	1460.624	1214.689
-15.677	29.486	1459.439	1214.017
-14.663	29.524	1458.615	1213.533
-13.648	29.379	1457.670	1211.748
-12.633	29.366	1456.622	1210.742
-11.619	29.364	1456.198	1210.325
-10.604	29.452	1455.238	1210.061
-9.590	29.434	1454.504	1209.285
-8.575	29.474	1453.652	1208.786
-7.560	29.334	1452.834	1207.147
-6.546	29.427	1451.864	1206.896
-5.531	29.400	1450.783	1205.778
-4.517	29.360	1449.780	1204.634
-3.502	29.371	1449.147	1204.133
-2.487	29.373	1447.720	1202.908
-1.473	29.323	1446.718	1201.705
-0.458	29.453	1444.891	1200.988
0.556	26.970	1435.910	1190.305
1.571	24.094	1411.125	1151.094
2.586	20.825	1352.741	1083.079
3.600	19.416	1271.955	1010.063
4.615	18.250	1227.734	968.264
5.629	16.127	1173.142	913.639
6.644	8.243	1089.057	808.282
7.659	1.031	1049.162	743.312
8.673	-0.049	1043.233	733.778
9.688	-0.253	1039.661	730.207
10.702	-0.414	1038.403	728.477
11.717	-0.313	1036.101	727.287
12.731	3.031	1039.999	746.210
13.746	11.908	1052.348	798.453
14.761	18.668	1061.256	838.272
15.775	20.469	1063.760	848.983
16.790	20.823	1063.043	850.064
17.804	20.577	1062.524	848.377
18.819	20.482	1061.369	846.917
19.834	20.555	1061.121	846.997
20.848	20.830	1060.040	847.397
21.863	20.826	1059.802	847.113
22.877	20.750	1059.043	846.061
23.892	20.764	1058.914	845.954
24.907	20.535	1058.072	844.094
25.921	20.586	1057.667	843.944
26.936	20.701	1056.287	843.326
27.950	20.632	1055.374	842.187
28.965	20.526	1054.474	840.882
29.980	20.631	1052.530	839.762
30.994	20.576	1050.459	837.770
32.009	20.734	1050.185	838.241
33.023	20.802	1049.492	837.942
34.038	20.568	1048.344	835.826
35.053	20.600	1047.345	835.107
36.067	20.812	1046.548	835.418
37.082	20.668	1045.944	834.171
38.096	20.776	1045.013	833.868
39.111	20.810	1044.433	833.496
40.126	21.065	1043.323	833.756
41.140	21.010	1041.619	832.059
42.155	20.662	1040.585	829.501
43.169	20.376	1039.220	826.977
44.184	20.422	1038.083	826.215
45.199	20.362	1037.166	825.126
46.213	20.388	1036.148	824.371
47.228	20.244	1035.326	822.961
48.242	20.524	1034.288	823.389
49.257	20.577	1033.668	823.073
50.271	20.673	1032.732	822.710
51.286	20.754	1032.134	822.545
52.301	20.679	1031.448	821.570
53.315	20.830	1030.731	821.636
54.330	20.837	1029.276	820.435
55.344	20.699	1028.793	819.329
56.359	20.655	1028.628	818.918
57.374	20.808	1027.191	818.421
58.388	20.597	1026.227	816.592
59.403	20.449	1025.745	815.440
60.417	20.479	1024.864	814.810
61.432	20.243	1024.055	812.986
62.447	20.429	1023.164	813.079
63.461	20.609	1022.587	813.392
64.476	20.601	1021.978	812.796
65.490	20.514	1020.874	811.439
66.505	20.390	1020.345	810.371
67.520	20.464	1019.246	809.771
68.534	20.675	1017.899	809.608
69.549	20.413	1017.284	807.830
70.563	20.088	1016.306	805.472
71.578	20.162	1015.403	805.030
72.593	20.187	1014.609	804.446
73.607	19.930	1013.809	802.549
74.622	20.003	1012.422	801.714
75.636	20.337	1012.019	802.870
76.651	20.424	1011.842	803.062
77.666	20.271	1010.171	800.959
78.680	20.198	1009.130	799.724
79.695	20.189	1008.697	799.269
80.709	20.228	1008.306	799.070
81.724	20.369	1007.568	799.065
82.739	20.363	1006.387	798.027
83.753	20.308	1005.998	797.396
84.768	20.616	1004.596	797.629
85.782	20.842	1004.464	798.488
86.797	21.012	1003.386	798.337
87.812	21.001	1002.748	797.712
88.826	20.803	1001.571	795.798
89.841	20.848	1000.866	795.372
90.855	20.979	1000.079	795.274
91.870	20.972	999.561	794.761
92.884	20.980	998.264	793.696
93.899	20.869	997.628	792.614
94.914	20.868	996.530	791.670
95.928	20.735	996.119	790.667
96.943	20.981	994.893	790.741
97.957	20.581	994.102	788.227
98.972	20.577	992.550	786.909
99.987	20.170	991.484	784.153
101.001	20.226	991.187	784.106
102.016	20.547	991.094	785.411
103.030	20.730	989.540	784.937
104.045	20.711	987.923	783.500
105.060	20.534	986.994	781.898
106.074	20.341	986.230	780.355
107.089	20.369	985.161	779.566
108.103	20.651	985.201	780.794
109.118	20.796	984.431	780.764
110.133	20.515	983.054	778.347
111.147	20.515	981.935	777.390
112.162	20.385	980.675	775.743
113.176	20.232	979.472	774.043
114.191	20.392	978.486	773.907
115.206	20.377	978.193	773.539
116.220	20.164	976.468	771.160
117.235	20.121	975.530	770.160
118.249	20.175	975.189	770.063
119.264	20.305	974.396	769.945
120.279	20.145	973.232	768.246
121.293	20.130	972.681	767.680
122.308	20.209	972.218	767.594
123.322	20.201	971.461	766.896
124.337	20.110	970.387	765.577
125.352	20.096	968.492	763.950
126.366	19.674	967.026	760.869
127.381	19.488	965.748	758.981
128.395	19.999	965.506	760.968
129.410	20.653	964.790	763.205
130.424	20.706	964.123	762.845
131.439	20.764	962.932	762.087
132.454	20.544	961.840	760.193
133.468	20.619	960.806	759.636
134.483	20.524	959.717	758.292
135.497	20.578	959.442	758.245
136.512	20.751	959.238	758.772
137.527	20.918	957.915	758.386
138.541	20.826	957.221	757.368
139.556	20.882	956.252	756.779
140.570	20.725	955.604	755.515
141.585	20.787	954.947	755.201
142.600	20.963	953.951	755.106
143.614	20.772	953.119	753.553
144.629	20.970	952.426	753.795
145.643	21.122	951.622	753.748
146.658	20.924	950.789	752.170
147.673	20.920	949.464	751.038
148.687	20.857	948.168	749.674
149.702	20.679	947.525	748.333
150.716	20.598	946.351	746.991
151.731	20.765	944.898	746.498
152.746	20.752	944.265	745.876
153.760	21.012	943.758	746.519
154.775	21.083	942.887	746.072
155.789	21.192	941.731	745.553
156.804	21.015	940.808	744.004
157.819	20.836	940.474	742.910
158.833	20.910	939.674	742.526
159.848	21.063	938.931	742.528
160.862	21.242	938.159	742.611
161.877	21.071	937.159	741.028
162.892	21.040	936.046	739.949
163.906	21.022	935.436	739.325
164.921	21.081	934.390	738.685
165.935	21.111	933.078	737.709
166.950	21.037	932.433	736.819
167.964	20.946	931.863	735.920
168.979	20.980	930.318	734.780
169.994	20.982	929.038	733.711
171.008	20.778	929.140	732.866
172.023	21.037	927.567	732.648
173.037	21.205	927.037	732.873
174.052	20.953	925.660	730.663
175.067	20.782	925.050	729.402
176.081	20.724	924.214	728.432
177.096	20.860	923.362	728.264
178.110	20.926	922.330	727.663
179.125	20.562	921.427	725.369
180.140	20.367	920.145	723.482
181.154	20.529	919.543	723.619
182.169	20.513	919.328	723.319
183.183	20.676	919.455	724.035
184.198	20.945	918.781	724.559
185.213	20.995	917.721	723.864
186.227	20.977	917.210	723.324
187.242	21.084	916.586	723.211
188.256	21.240	915.642	723.049
189.271	21.095	914.815	721.733
190.286	21.008	914.416	720.991
191.300	20.966	913.450	719.994
192.315	20.525	912.157	717.093
193.329	19.962	910.273	713.229
194.344	19.472	909.440	710.494
195.359	19.943	909.944	712.765
196.373	20.864	909.663	716.272
197.388	20.927	909.892	716.648
198.402	20.818	908.999	715.433
199.417	20.739	908.619	714.746
200.432	20.876	908.082	714.823
201.446	20.614	907.195	712.986
202.461	20.341	906.873	711.554
203.475	20.441	906.218	711.386
204.490	20.045	904.318	708.214
205.504	18.955	902.265	702.092
206.519	19.422	902.669	704.253
207.534	20.506	902.065	708.141
208.548	20.487	901.901	707.870
209.563	20.902	901.636	709.290
210.577	20.888	900.952	708.630
211.592	20.692	899.771	706.846
212.607	20.959	900.080	708.107
213.621	21.010	899.629	707.899
214.636	21.031	898.595	707.109
215.650	21.190	898.011	707.231
216.665	21.099	897.620	706.491
217.680	21.096	896.980	705.912
218.694	21.260	896.371	706.032
219.709	20.776	895.389	703.244
220.723	20.423	894.435	701.007
221.738	20.759	893.931	701.906
222.753	20.832	893.658	701.923
223.767	20.808	892.834	701.118
224.782	20.873	891.985	700.651
225.796	21.160	891.465	701.334
226.811	21.348	890.730	701.446
227.826	20.880	889.883	698.840
228.840	20.000	888.093	693.848
229.855	19.904	887.915	693.265
230.869	20.246	887.400	694.171
231.884	19.935	886.555	692.202
232.899	20.009	885.982	691.993
233.913	20.690	886.208	694.825
234.928	20.830	885.425	694.708
235.942	20.864	884.794	694.290
236.957	20.809	884.329	693.643
237.972	20.625	882.981	691.795
238.986	20.434	882.701	690.752
240.001	20.699	882.097	691.270
241.015	20.562	881.322	690.060
242.030	20.639	880.982	690.037
243.045	20.743	880.347	689.893
244.059	20.924	879.691	690.034
245.074	20.986	879.425	690.011
246.088	20.900	878.437	688.832
247.103	20.506	877.953	686.836
248.117	20.571	877.025	686.305
249.132	21.217	876.817	688.629
250.147	21.437	876.760	689.390
251.161	21.512	876.499	689.421
252.176	21.801	875.820	689.963
253.190	21.730	875.022	688.996
254.205	21.670	874.718	688.459
255.220	21.830	874.492	688.850
256.234	21.945	873.506	688.462
257.249	21.938	872.579	687.641
258.263	21.735	872.098	686.407
259.278	21.685	871.621	685.778
260.293	21.756	870.967	685.477
261.307	21.792	870.768	685.401
262.322	21.658	870.025	684.232
263.336	21.469	869.281	682.848
264.351	21.046	867.755	679.941
265.366	19.968	865.808	674.163
266.380	19.638	864.691	671.950
267.395	20.539	865.014	675.643
268.409	21.359	865.202	678.916
269.424	21.305	864.471	678.076
270.439	21.394	864.118	678.082
271.453	21.540	863.518	678.119
272.468	21.673	862.524	677.790
273.482	21.676	862.451	677.686
274.497	21.863	862.028	678.016
275.512	21.708	860.675	676.295
276.526	21.093	859.580	673.004
277.541	21.289	859.362	673.528
278.555	21.611	859.254	674.624
279.570	21.389	858.669	673.249
280.585	21.275	857.373	671.738
281.599	21.236	857.139	671.346
282.614	21.447	856.394	671.510
283.628	21.041	855.270	669.013
284.643	20.631	854.752	666.977
285.657	21.140	854.928	669.007
286.672	21.043	853.974	667.830
287.687	20.601	852.535	664.957
288.701	20.847	852.626	665.907
289.716	21.293	852.408	667.384
290.730	20.859	851.838	665.222
291.745	20.781	850.853	664.097
292.760	20.769	849.546	662.970
293.774	20.569	849.020	661.742
294.789	21.540	849.925	666.085
295.803	22.097	849.472	667.789
296.818	21.958	849.736	667.409
297.833	22.278	848.558	667.641
298.847	21.887	847.670	665.400
299.862	21.574	846.917	663.562
300.876	21.824	846.328	663.988
301.891	22.004	846.139	664.462
302.906	21.919	845.442	663.537
303.920	21.649	844.397	661.639
304.935	21.696	843.601	661.133
305.949	22.041	843.356	662.183
306.964	21.972	842.921	661.523
307.979	21.806	842.373	660.410
308.993	21.766	842.193	660.058
310.008	22.044	841.942	660.850
311.022	22.186	841.470	660.955
312.037	22.084	840.397	659.671
313.052	22.012	839.494	658.634
314.066	21.702	839.345	657.295
315.081	21.139	837.651	653.801
316.095	20.475	836.641	650.472
317.110	21.062	836.605	652.584
318.125	21.812	837.026	655.659
319.139	21.399	835.533	652.889
320.154	20.321	833.959	647.582
321.168	19.789	833.403	645.109
322.183	20.473	833.626	647.777
323.197	21.244	834.058	650.927
324.212	21.600	833.441	651.717
325.227	21.762	833.172	652.050
326.241	21.873	832.650	651.997
327.256	21.890	831.935	651.440
328.270	21.712	831.343	650.260
329.285	21.578	830.687	649.192
330.300	21.546	829.926	648.420
331.314	21.358	828.968	646.920
332.329	21.401	828.571	646.712
333.343	21.637	828.588	647.540
334.358	22.063	828.020	648.612
335.373	21.955	827.172	647.494
336.387	22.175	826.729	647.901
337.402	22.143	826.428	647.491
338.416	22.422	826.168	648.256
339.431	22.358	825.796	647.670
340.446	22.247	825.259	646.784
341.460	22.604	824.418	647.378
342.475	22.629	823.983	647.073
343.489	22.373	822.619	645.006
344.504	22.400	822.275	644.776
345.519	22.455	822.184	644.851
346.533	22.709	821.865	645.472
347.548	22.801	821.320	645.323
348.562	22.777	821.047	644.964
349.577	22.705	820.700	644.371
350.592	22.885	819.669	644.163
351.606	22.753	819.441	643.445
352.621	22.573	818.858	642.274
353.635	22.645	818.414	642.130
354.650	22.583	817.813	641.377
355.665	22.272	816.913	639.484
356.679	21.154	815.071	633.927
357.694	21.054	814.675	633.199
358.708	21.634	814.679	635.253
359.723	21.511	814.356	634.497
360.738	21.993	813.951	635.875
361.752	22.323	813.787	636.884
362.767	22.365	813.671	636.888
363.781	22.650	813.671	637.862
364.796	22.833	813.437	638.286
365.810	23.049	812.690	638.422
366.825	23.117	812.148	638.184
367.840	23.128	811.895	637.968
368.854	22.986	811.417	637.026
369.869	22.597	810.286	634.681
370.883	22.364	809.784	633.393
371.898	22.405	809.407	633.189
372.913	22.429	808.660	632.634
373.927	22.370	807.842	631.726
374.942	22.508	806.869	631.404
375.956	22.469	807.144	631.425
376.971	22.786	806.188	631.757
377.986	22.825	805.767	631.510
379.000	22.947	805.329	631.547
380.015	23.049	804.994	631.595
381.029	22.879	804.244	630.341
382.044	22.719	804.000	629.523
383.059	23.043	803.350	630.115
384.073	23.166	802.584	629.897
385.088	23.118	802.469	629.578
386.102	23.077	801.562	628.665
387.117	22.802	801.300	627.426
388.132	22.752	800.454	626.533
389.146	22.528	800.013	625.337
390.161	22.161	798.624	622.894
391.175	22.140	798.769	622.878
392.190	22.742	798.567	624.797
393.205	22.821	798.118	624.670
394.219	21.702	796.458	619.362
395.234	20.062	794.010	611.621
396.248	19.408	793.206	608.639
397.263	20.502	794.186	613.200
398.278	22.366	795.309	620.592
399.292	22.767	795.290	621.938
400.307	22.372	794.645	619.987
401.321	22.388	794.459	619.843
402.336	22.473	793.919	619.665
403.350	22.690	793.825	620.301
404.365	23.167	793.618	621.761
405.380	23.335	793.389	622.114
406.394	23.451	793.564	622.606
407.409	23.744	792.865	623.031
408.423	23.748	791.979	622.294
409.438	23.623	791.521	621.438
410.453	23.503	791.296	620.789
411.467	23.832	790.745	621.452
412.482	23.786	789.791	620.486
413.496	23.638	789.571	619.741
414.511	23.790	789.188	619.917
415.526	23.669	789.307	619.533
416.540	23.669	788.704	619.005
417.555	23.612	787.704	617.968
418.569	23.459	787.140	616.939
419.584	23.408	786.566	616.257
420.599	23.441	786.312	616.117
421.613	157.049	1365.491	1798.798
422.628	135.841	1449.846	1798.877
