DTS Sentinel unit serial number:	SN413079Multiplexer serial number:	ORYXHardware model number:	OX4-SRSoftware version number:	ORYX F/W v4.00 Oryx Data Collector v3.7.2.0data status	okinstallation	princeton_trtdifferential loss correction	single-endedforward channel	channel 3reverse channel	N/Adate	2019/09/12time	04:18:11forward acquisition time	60.00reverse acquisition time	0.00gamma	496.2192k internal	0.2323k external	0.2323temperature offset calibration	1.0071default loss term (dB/km)	0.3790temperature slope calibration	1.0000multiplexer offset coefficient	1.0000multiplexer slope coefficient	1.0000fibre end	0.00T internal ref (°C)	31.80T ext. ref 1 (°C)	2.23T ext. ref 2 (°C)	25.74length (m)	temperature (°C)	Stokes	anti-Stokes-747.200	-200.000	0.012	0.341
-746.185	6.940	0.194	-0.146
-745.171	-156.431	-0.271	0.017
-744.156	-17.616	-0.420	0.267
-743.142	-89.556	0.236	0.070
-742.127	-151.489	-0.415	0.031
-741.112	-130.946	-0.108	0.015
-740.098	-53.136	-0.394	0.183
-739.083	-147.686	-0.095	0.008
-738.069	-161.518	-0.242	-0.013
-737.054	223.631	-0.119	0.194
-736.039	800.000	-0.017	0.055
-735.025	454.796	-0.041	-0.092
-734.010	74.866	-0.400	-0.425
-732.996	146.471	-0.054	0.073
-731.981	-174.442	0.254	-0.007
-730.966	157.873	-0.141	-0.197
-729.952	-200.000	0.024	-0.155
-728.937	20.812	0.044	-0.036
-727.923	-117.112	-0.425	-0.078
-726.908	-29.363	-0.428	-0.247
-725.894	-46.790	-0.233	0.115
-724.879	-129.815	-0.239	0.033
-723.864	-53.898	-0.166	0.076
-722.850	-55.297	-0.071	-0.032
-721.835	273.144	-0.202	-0.361
-720.821	-94.898	-0.041	-0.011
-719.806	374.019	0.079	-0.163
-718.791	-71.050	-0.155	0.059
-717.777	800.000	0.079	-0.282
-716.762	-200.000	-0.016	0.160
-715.748	-200.000	0.019	0.174
-714.733	-9.193	-0.279	0.188
-713.718	67.371	-0.215	-0.221
-712.704	800.000	0.011	-0.049
-711.689	-200.000	-0.025	-0.170
-710.675	-6.342	0.213	0.146
-709.660	-121.763	-0.328	-0.055
-708.645	-126.428	0.185	0.028
-707.631	5.164	-0.160	-0.119
-706.616	-10.496	-0.641	-0.428
-705.602	-90.124	-0.287	-0.084
-704.587	800.000	-0.058	-0.164
-703.572	-200.000	0.008	-0.356
-702.558	95.664	-0.028	-0.033
-701.543	-200.000	0.037	-0.298
-700.529	800.000	0.061	-0.229
-699.514	85.854	-0.092	-0.102
-698.499	-200.000	-0.001	0.236
-697.485	-34.710	0.042	-0.023
-696.470	-79.826	0.206	0.070
-695.456	-175.753	-0.013	0.000
-694.441	-200.000	-0.006	0.172
-693.426	800.000	0.057	0.228
-692.412	-160.711	-0.567	-0.030
-691.397	-200.000	0.041	-0.244
-690.383	-134.651	-0.234	0.029
-689.368	-200.000	-0.014	-0.233
-688.354	79.886	-0.098	-0.107
-687.339	800.000	0.081	0.238
-686.324	-89.957	-0.184	-0.054
-685.310	-142.254	-0.507	-0.051
-684.295	-43.652	0.337	-0.171
-683.281	-85.689	-0.097	0.030
-682.266	-200.000	0.008	-0.050
-681.251	-48.993	-0.360	0.174
-680.237	-94.899	-0.219	-0.060
-679.222	-111.506	0.238	0.049
-678.208	238.960	0.206	0.344
-677.193	82.713	-0.092	-0.100
-676.178	-200.000	-0.016	0.291
-675.164	129.093	0.220	-0.282
-674.149	-25.289	-0.258	-0.154
-673.135	-200.000	-0.196	-0.001
-672.120	-72.754	-0.213	-0.079
-671.105	-19.182	0.227	-0.142
-670.091	22.022	-0.153	0.126
-669.076	395.510	0.054	-0.113
-668.062	800.000	0.028	0.089
-667.047	-200.000	0.405	-0.000
-666.032	-200.000	-0.060	-0.363
-665.018	800.000	-0.018	-0.061
-664.003	-200.000	0.007	0.154
-662.989	800.000	-0.144	-0.505
-661.974	-170.602	-0.184	0.006
-660.959	260.568	0.095	-0.166
-659.945	-61.240	-0.109	-0.046
-658.930	800.000	-0.081	0.285
-657.916	-63.555	-0.156	0.064
-656.901	14.725	-0.203	-0.160
-655.886	65.323	0.101	0.103
-654.872	-161.794	0.051	-0.003
-653.857	-151.333	-0.137	0.010
-652.843	79.374	0.058	-0.063
-651.828	-59.624	0.158	0.068
-650.814	-200.000	0.039	-0.227
-649.799	-200.000	0.021	0.130
-648.784	-85.307	0.242	0.076
-647.770	93.504	0.107	-0.122
-646.755	-108.780	0.248	0.053
-645.741	119.476	0.189	0.235
-644.726	-107.704	-0.175	-0.039
-643.711	-200.000	0.032	-0.220
-642.697	-162.936	-0.248	-0.012
-641.682	15.091	-0.323	0.255
-640.668	-162.526	0.115	0.006
-639.653	-148.086	-0.393	-0.033
-638.638	-90.261	-0.343	-0.100
-637.624	-101.686	0.253	-0.062
-636.609	24.968	0.091	0.076
-635.595	-200.000	0.033	0.455
-634.580	45.575	-0.114	0.106
-633.565	31.016	0.120	-0.103
-632.551	123.039	-0.225	0.283
-631.536	6.482	0.014	-0.011
-630.522	-200.000	-0.011	-0.191
-629.507	-48.875	-0.167	-0.080
-628.492	-106.680	0.070	-0.016
-627.478	-71.285	-0.384	0.145
-626.463	327.360	0.140	-0.270
-625.449	-40.599	-0.189	-0.099
-624.434	209.788	-0.286	-0.450
-623.419	-100.381	-0.316	-0.079
-622.405	-126.238	-0.120	-0.018
-621.390	-200.000	-0.021	0.404
-620.376	141.185	-0.142	0.189
-619.361	-12.547	-0.271	0.178
-618.346	-104.598	0.310	-0.072
-617.332	-170.711	0.152	-0.005
-616.317	800.000	0.045	-0.181
-615.303	18.798	0.308	-0.247
-614.288	-125.905	-0.232	0.035
-613.273	518.990	0.148	-0.349
-612.259	84.908	-0.051	0.057
-611.244	800.000	-0.082	-0.260
-610.230	314.024	0.063	-0.119
-609.215	-82.114	-0.289	-0.095
-608.201	800.000	-0.053	-0.169
-607.186	152.988	-0.032	-0.044
-606.171	234.030	0.179	-0.296
-605.157	-200.000	-0.030	0.175
-604.142	-200.000	0.008	0.202
-603.128	-78.262	0.407	0.140
-602.113	6.101	-0.082	0.061
-601.098	318.878	-0.069	-0.131
-600.084	-200.000	0.025	0.129
-599.069	257.495	-0.095	0.163
-598.055	270.335	-0.021	0.036
-597.040	-160.675	-0.143	0.008
-596.025	794.960	-0.088	-0.244
-595.011	-86.735	-0.136	-0.042
-593.996	-46.391	-0.083	0.041
-592.982	-27.178	-0.076	0.044
-591.967	-126.697	0.247	0.037
-590.952	-22.373	0.202	-0.123
-589.938	484.765	-0.071	-0.161
-588.923	198.977	-0.094	0.145
-587.909	-74.694	-0.051	-0.018
-586.894	431.158	-0.118	-0.256
-585.879	-73.291	0.083	0.030
-584.865	-12.022	0.228	-0.150
-583.850	-33.819	-0.175	0.097
-582.836	-12.365	-0.337	0.221
-581.821	800.000	0.116	0.357
-580.806	158.000	0.318	-0.442
-579.792	313.580	0.039	0.074
-578.777	-62.195	0.147	-0.061
-577.763	111.004	0.196	0.237
-576.748	-60.099	-0.122	-0.052
-575.733	-75.075	0.095	-0.034
-574.719	-107.533	0.128	-0.028
-573.704	-3.564	0.125	-0.087
-572.690	-97.629	-0.582	-0.152
-571.675	101.860	0.239	0.280
-570.661	-200.000	0.032	-0.243
-569.646	18.872	-0.081	0.065
-568.631	-56.342	0.267	-0.119
-567.617	131.840	0.110	0.142
-566.602	7.198	-0.228	-0.171
-565.588	800.000	0.013	-0.052
-564.573	63.436	0.156	0.157
-563.558	358.041	0.118	0.236
-562.544	-200.000	-0.030	0.147
-561.529	-83.071	-0.233	-0.075
-560.515	-35.274	0.243	-0.133
-559.500	-91.583	-0.095	-0.027
-558.485	-11.405	0.225	-0.148
-557.471	-87.676	-0.090	0.027
-556.456	35.171	0.307	0.270
-555.442	-98.966	0.187	0.048
-554.427	187.929	0.198	0.297
-553.412	-146.393	0.145	0.013
-552.398	-200.000	0.066	-0.455
-551.383	503.939	0.041	0.094
-550.369	-200.000	-0.062	0.305
-549.354	721.844	-0.131	0.349
-548.339	-174.168	0.389	-0.011
-547.325	12.521	-0.151	0.117
-546.310	-153.116	-0.254	0.018
-545.296	175.015	-0.129	0.187
-544.281	-118.493	-0.148	0.026
-543.266	-25.103	0.081	0.048
-542.252	177.145	0.081	-0.118
-541.237	292.012	-0.021	-0.039
-540.223	118.991	-0.122	-0.151
-539.208	259.368	-0.085	-0.148
-538.193	-153.069	-0.149	-0.010
-537.179	-200.000	-0.026	-0.191
-536.164	-117.030	0.340	-0.062
-535.150	517.068	0.056	-0.131
-534.135	315.428	-0.044	0.083
-533.121	-114.567	0.046	-0.009
-532.106	-49.065	0.193	-0.092
-531.091	800.000	0.027	0.103
-530.077	-54.538	0.268	0.121
-529.062	-142.419	-0.515	0.051
-528.048	-40.904	-0.279	-0.145
-527.033	297.019	0.052	-0.095
-526.018	64.654	0.174	-0.176
-525.004	-107.149	-0.283	-0.062
-523.989	-117.614	0.243	0.044
-522.975	183.374	0.057	0.085
-521.960	33.610	0.085	-0.074
-520.945	727.150	-0.180	-0.481
-519.931	-21.269	-0.367	0.225
-518.916	-58.889	-0.184	-0.080
-517.902	237.217	-0.165	0.273
-516.887	800.000	0.070	-0.274
-515.872	136.702	-0.091	-0.119
-514.858	228.217	-0.158	0.257
-513.843	-6.499	0.173	-0.118
-512.829	-93.045	0.113	0.031
-511.814	-97.662	0.207	-0.054
-510.799	-152.948	0.090	-0.006
-509.785	102.881	-0.173	-0.202
-508.770	324.414	0.180	-0.345
-507.756	-109.862	0.272	-0.057
-506.741	101.815	0.143	0.167
-505.726	-200.000	0.148	-0.000
-504.712	444.582	-0.057	0.126
-503.697	-27.291	0.332	0.193
-502.683	107.602	-0.073	-0.087
-501.668	-200.000	-0.019	0.202
-500.653	10.800	-0.042	0.032
-499.639	-173.252	-0.347	0.011
-498.624	-14.553	0.242	0.156
-497.610	-36.795	0.163	-0.087
-496.595	-200.000	0.018	-0.333
-495.581	35.540	0.076	-0.067
-494.566	-37.453	-0.119	-0.063
-493.551	78.954	-0.217	-0.232
-492.537	156.717	0.113	-0.156
-491.522	696.283	-0.087	0.229
-490.508	9.584	-0.312	-0.236
-489.493	-85.320	0.277	-0.086
-488.478	-68.126	0.124	0.048
-487.464	-177.551	-0.258	0.006
-486.449	-167.468	0.076	-0.003
-485.435	167.977	0.189	-0.269
-484.420	-141.083	0.205	0.021
-483.405	525.988	-0.109	0.255
-482.391	-200.000	0.053	0.273
-481.376	-190.763	-0.106	-0.001
-480.362	-200.000	-0.016	0.306
-479.347	289.106	0.128	0.231
-478.332	-200.000	-0.014	0.154
-477.318	-82.472	-0.172	-0.056
-476.303	510.290	-0.058	-0.135
-475.289	479.589	0.111	-0.250
-474.274	28.891	-0.186	0.157
-473.259	-37.954	0.326	0.173
-472.245	-200.000	-0.013	-0.231
-471.230	-68.945	-0.184	0.071
-470.216	643.896	-0.150	-0.383
-469.201	23.836	0.087	-0.072
-468.186	35.547	0.203	-0.178
-467.172	383.639	0.069	0.141
-466.157	224.409	0.067	-0.108
-465.143	30.318	-0.067	0.057
-464.128	-83.059	-0.124	0.040
-463.113	115.862	0.100	0.123
-462.099	-120.413	-0.137	0.023
-461.084	-200.000	-0.023	-0.199
-460.070	18.381	-0.174	0.139
-459.055	-81.721	-0.396	0.130
-458.040	-200.000	0.137	0.000
-457.026	-200.000	0.039	0.187
-456.011	-73.385	-0.057	0.021
-454.997	-138.663	0.096	-0.010
-453.982	-200.000	-0.022	0.114
-452.968	20.223	-0.302	-0.243
-451.953	16.362	-0.330	0.260
-450.938	-200.000	0.009	0.079
-449.924	643.003	-0.109	0.278
-448.909	354.653	0.019	0.038
-447.895	-58.741	-0.100	-0.043
-446.880	373.016	0.037	-0.074
-445.865	-200.000	0.006	-0.066
-444.851	800.000	0.083	-0.276
-443.836	-65.500	-0.313	-0.125
-442.822	110.138	-0.179	0.215
-441.807	37.790	0.089	0.079
-440.792	-200.000	-0.003	0.526
-439.778	-135.647	-0.147	-0.017
-438.763	-58.089	0.412	0.179
-437.749	-96.510	0.229	-0.060
-436.734	209.195	0.161	-0.251
-435.719	-56.429	0.127	-0.056
-434.705	27.041	0.127	-0.106
-433.690	36.105	0.176	0.155
-432.676	800.000	-0.043	-0.166
-431.661	-186.810	0.333	0.005
-430.646	399.592	-0.079	-0.165
-429.632	-94.087	-0.183	0.050
-428.617	-200.000	-0.077	0.367
-427.603	-200.000	0.075	0.390
-426.588	159.603	0.110	-0.152
-425.573	800.000	0.098	0.321
-424.559	-45.539	0.332	0.164
-423.544	128.455	-0.136	0.173
-422.530	-62.920	-0.286	0.118
-421.515	-87.878	-0.139	0.042
-420.500	-102.351	0.125	0.030
-419.486	-60.522	-0.135	0.057
-418.471	-98.954	-0.130	-0.033
-417.457	-200.000	0.007	0.057
-416.442	-21.511	-0.051	-0.031
-415.428	-4.008	0.341	0.236
-414.413	95.258	-0.122	-0.139
-413.398	-29.236	0.109	0.062
-412.384	-200.000	-0.029	0.201
-411.369	-28.423	0.219	-0.126
-410.355	-61.241	-0.054	-0.023
-409.340	-200.000	0.023	0.169
-408.325	-200.000	0.001	0.061
-407.311	-155.620	-0.309	-0.020
-406.296	-142.757	-0.076	-0.007
-405.282	200.237	-0.090	-0.137
-404.267	-40.201	0.107	-0.055
-403.252	-153.635	0.234	0.016
-402.238	264.207	-0.055	0.095
-401.223	-123.132	-0.099	-0.016
-400.209	-91.577	0.343	0.097
-399.194	252.458	-0.055	-0.093
-398.179	-134.094	0.117	0.014
-397.165	-186.133	0.106	0.002
-396.150	800.000	0.056	0.220
-395.136	500.362	0.086	0.198
-394.121	307.351	-0.051	-0.094
-393.106	-200.000	-0.012	0.089
-392.092	-200.000	-0.021	0.108
-391.077	-85.116	-0.388	-0.121
-390.063	23.235	-0.213	0.174
-389.048	53.598	0.044	0.042
-388.033	-200.000	-0.030	0.314
-387.019	185.460	0.075	-0.110
-386.004	-200.000	-0.008	0.095
-384.990	437.504	0.114	-0.247
-383.975	800.000	-0.090	-0.250
-382.960	-200.000	-0.019	-0.124
-381.946	-167.803	-0.122	0.005
-380.931	-162.465	0.209	0.010
-379.917	121.363	0.157	0.195
-378.902	800.000	0.041	0.178
-377.888	-118.495	-0.076	0.013
-376.873	25.437	-0.076	-0.063
-375.858	198.475	-0.122	0.185
-374.844	-200.000	0.009	-0.154
-373.829	800.000	0.077	-0.251
-372.815	269.956	-0.200	0.349
-371.800	800.000	0.087	-0.336
-370.785	-200.000	-0.035	0.535
-369.771	31.198	0.150	-0.128
-368.756	290.626	-0.085	0.153
-367.742	70.934	-0.062	-0.064
-366.727	-200.000	0.006	0.070
-365.712	-200.000	-0.053	0.248
-364.698	-100.603	0.217	0.053
-363.683	-37.141	0.094	-0.050
-362.669	111.574	-0.220	-0.264
-361.654	172.141	0.100	0.143
-360.639	-200.000	0.023	0.187
-359.625	169.411	0.198	-0.282
-358.610	111.301	-0.190	0.228
-357.596	800.000	0.068	0.265
-356.581	-49.733	0.038	0.018
-355.566	27.099	-0.256	0.214
-354.552	-165.685	-0.071	-0.003
-353.537	-161.529	0.100	-0.005
-352.523	-200.000	0.047	-0.205
-351.508	274.254	0.101	-0.177
-350.493	-50.412	-0.372	-0.175
-349.479	-200.000	0.055	0.253
-348.464	-200.000	-0.029	0.209
-347.450	-27.940	0.185	0.106
-346.435	27.208	-0.051	0.043
-345.420	-200.000	0.099	0.598
-344.406	800.000	0.046	0.151
-343.391	351.748	0.160	-0.315
-342.377	289.217	0.052	-0.094
-341.362	-54.474	-0.201	-0.090
-340.348	-200.000	0.065	-0.435
-339.333	-45.000	-0.269	0.133
-338.318	110.523	-0.094	0.112
-337.304	-200.000	-0.019	-0.254
-336.289	-85.765	-0.275	-0.085
-335.275	536.542	-0.216	-0.509
-334.260	-200.000	-0.006	0.107
-333.245	-111.925	0.102	-0.020
-332.231	-172.212	0.164	0.005
-331.216	19.573	-0.319	0.255
-330.202	7.557	-0.319	-0.237
-329.187	-141.859	-0.268	0.027
-328.172	-26.122	-0.130	-0.076
-327.158	-57.776	-0.161	0.070
-326.143	-130.401	0.375	-0.051
-325.129	180.465	-0.119	-0.174
-324.114	-121.241	-0.167	-0.028
-323.099	-73.584	0.234	0.085
-322.085	-66.452	-0.220	-0.087
-321.070	-7.171	0.244	-0.164
-320.056	-20.293	-0.116	-0.071
-319.041	800.000	0.089	0.339
-318.026	-106.987	0.173	-0.038
-317.012	-80.854	-0.285	-0.094
-315.997	-93.105	0.251	0.069
-314.983	-97.915	0.108	0.028
-313.968	142.300	0.039	0.051
-312.953	185.494	-0.195	-0.288
-311.939	-81.180	0.275	0.090
-310.924	800.000	0.089	-0.264
-309.910	-107.312	-0.196	-0.043
-308.895	800.000	-0.101	-0.362
-307.880	721.235	0.144	-0.380
-306.866	-75.030	0.069	0.025
-305.851	294.446	-0.160	-0.290
-304.837	259.097	0.066	-0.114
-303.822	-34.876	0.272	-0.147
-302.807	-83.080	-0.312	-0.100
-301.793	306.848	-0.206	0.380
-300.778	-69.775	0.112	0.043
-299.764	299.165	-0.074	-0.135
-298.749	-200.000	-0.008	-0.278
-297.735	87.964	0.123	-0.135
-296.720	-110.631	0.260	0.053
-295.705	-200.000	0.059	-0.345
-294.691	30.516	-0.245	-0.207
-293.676	-200.000	0.065	-0.309
-292.662	800.000	0.035	-0.127
-291.647	-86.154	-0.050	-0.015
-290.632	-7.169	0.070	0.047
-289.618	-81.669	0.247	-0.080
-288.603	-200.000	-0.055	0.357
-287.589	108.376	-0.090	-0.106
-286.574	-54.631	0.137	-0.061
-285.559	-82.858	0.378	-0.121
-284.545	-200.000	0.009	0.107
-283.530	800.000	-0.081	-0.270
-282.516	615.101	0.055	-0.137
-281.501	800.000	-0.090	0.257
-280.486	207.654	-0.100	-0.155
-279.472	-75.243	0.075	-0.026
-278.457	-200.000	-0.022	-0.288
-277.443	-3.136	0.077	0.054
-276.428	-47.932	-0.425	0.204
-275.413	46.888	-0.172	0.159
-274.399	800.000	-0.051	0.209
-273.384	110.597	0.062	0.073
-272.370	476.426	0.033	0.073
-271.355	230.851	0.053	0.085
-270.340	-63.037	0.147	-0.060
-269.326	-9.489	0.114	-0.075
-268.311	405.799	0.243	-0.508
-267.297	-200.000	0.012	-0.219
-266.282	294.444	0.131	-0.238
-265.267	-171.868	0.301	-0.010
-264.253	30.366	0.204	0.173
-263.238	52.447	0.192	0.182
-262.224	110.908	0.246	0.293
-261.209	800.000	0.036	0.152
-260.195	-194.534	-0.369	-0.003
-259.180	-183.871	-0.118	0.002
-258.165	-7.139	-0.228	-0.154
-257.151	-35.276	0.357	0.193
-256.136	45.419	-0.317	-0.290
-255.122	762.579	-0.048	0.128
-254.107	-129.830	-0.047	0.006
-253.092	-128.110	-0.157	0.022
-252.078	-200.000	-0.028	0.224
-251.063	578.658	-0.106	0.257
-250.049	-102.085	0.250	-0.060
-249.034	732.106	0.085	-0.226
-248.019	-200.000	-0.019	0.384
-247.005	416.721	0.055	0.116
-245.990	-97.022	-0.246	-0.064
-244.976	107.493	0.065	0.076
-243.961	-147.838	0.379	-0.031
-242.946	800.000	-0.053	-0.228
-241.932	-143.768	-0.121	-0.011
-240.917	800.000	0.068	0.234
-239.903	-79.495	0.202	0.068
-238.888	-21.366	0.337	-0.204
-237.873	-200.000	0.005	-0.090
-236.859	-109.076	0.301	0.064
-235.844	61.664	0.318	-0.314
-234.830	-25.538	-0.133	-0.078
-233.815	186.159	-0.083	-0.122
-232.800	-188.691	0.163	0.002
-231.786	-132.012	-0.210	-0.027
-230.771	-112.560	-0.080	-0.016
-229.757	-200.000	-0.007	0.116
-228.742	365.247	-0.047	-0.094
-227.727	-77.307	-0.360	0.124
-226.713	523.429	0.045	-0.105
-225.698	-185.121	0.303	-0.005
-224.684	-105.709	-0.176	0.039
-223.669	-118.929	-0.371	0.064
-222.655	65.192	0.078	-0.078
-221.640	-89.475	-0.314	0.091
-220.625	350.759	0.084	-0.165
-219.611	-52.526	0.186	0.085
-218.596	315.321	-0.072	0.134
-217.582	-140.598	0.189	-0.019
-216.567	-91.923	0.170	-0.048
-215.552	-30.220	0.372	0.209
-214.538	-44.634	-0.121	0.060
-213.523	-44.694	-0.060	0.029
-212.509	-77.439	0.409	0.140
-211.494	-13.141	-0.307	0.197
-210.479	-60.502	-0.157	-0.066
-209.465	-188.567	-0.234	0.003
-208.450	263.222	0.162	0.278
-207.436	12.750	0.186	0.142
-206.421	206.184	0.157	-0.241
-205.406	66.068	-0.074	0.074
-204.392	161.475	-0.093	0.128
-203.377	70.646	0.144	0.147
-202.363	800.000	0.035	-0.101
-201.348	103.254	0.235	-0.273
-200.333	-111.912	-0.081	-0.016
-199.319	20.021	-0.073	0.058
-198.304	139.007	0.046	-0.059
-197.290	800.000	-0.074	-0.282
-196.275	-200.000	0.011	-0.297
-195.260	-56.647	0.197	-0.086
-194.246	-113.803	-0.222	-0.043
-193.231	-18.631	-0.407	0.251
-192.217	56.598	0.131	-0.126
-191.202	130.590	0.107	0.136
-190.187	-140.023	-0.083	0.009
-189.173	-108.240	-0.121	-0.026
-188.158	41.531	-0.327	0.293
-187.144	-200.000	-0.078	0.432
-186.129	-200.000	-0.025	-0.232
-185.114	-107.831	-0.304	-0.065
-184.100	-200.000	0.037	-0.340
-183.085	-200.000	-0.022	-0.431
-182.071	92.350	0.076	-0.084
-181.056	-41.629	-0.217	0.110
-180.042	58.191	-0.212	-0.205
-179.027	-200.000	0.017	-0.228
-178.012	-26.046	-0.360	0.209
-176.998	-200.000	0.044	0.271
-175.983	508.863	0.078	-0.180
-174.969	800.000	-0.051	-0.142
-173.954	-144.617	0.032	0.003
-172.939	-97.587	-0.230	-0.059
-171.925	-3.005	0.118	0.081
-170.910	-115.461	0.267	-0.050
-169.896	-35.068	0.169	0.091
-168.881	590.444	-0.069	0.167
-167.866	-200.000	0.069	0.383
-166.852	608.681	-0.018	-0.044
-165.837	-146.820	-0.342	0.029
-164.823	-82.303	-0.158	0.051
-163.808	52.494	0.142	0.134
-162.793	-183.980	0.532	0.009
-161.779	800.000	-0.044	0.157
-160.764	-200.000	0.029	0.140
-159.750	-20.437	0.168	-0.102
-158.735	-178.295	0.317	0.007
-157.720	-200.000	0.000	-0.077
-156.706	57.131	-0.242	-0.232
-155.691	-57.780	0.178	-0.077
-154.677	-200.000	-0.055	0.348
-153.662	85.343	0.066	0.071
-152.647	-125.172	0.343	0.052
-151.633	-113.008	-0.180	-0.035
-150.618	149.773	-0.064	0.086
-149.604	70.532	-0.082	-0.084
-148.589	300.054	0.111	-0.202
-147.574	800.000	0.055	-0.163
-146.560	800.000	-0.095	-0.297
-145.545	-200.000	0.014	-0.388
-144.531	197.136	-0.104	0.156
-143.516	-40.203	0.340	-0.174
-142.502	17.211	-0.282	0.220
-141.487	-200.000	-0.013	0.276
-140.472	-58.212	0.346	0.149
-139.458	-105.343	-0.236	0.053
-138.443	4.037	0.203	0.146
-137.429	86.312	-0.134	0.145
-136.414	-87.698	-0.296	-0.088
-135.399	-118.541	0.186	0.033
-134.385	214.301	-0.226	0.352
-133.370	-5.110	0.088	-0.059
-132.356	-200.000	-0.025	-0.356
-131.341	-200.000	0.021	-0.097
-130.326	-113.532	-0.241	0.046
-129.312	-74.766	-0.232	-0.082
-128.297	-200.000	-0.029	-0.289
-127.283	368.788	0.089	0.178
-126.268	-74.816	-0.147	-0.052
-125.253	91.215	-0.312	0.346
-124.239	728.835	0.103	-0.271
-123.224	61.781	-0.238	-0.234
-122.210	800.000	-0.049	-0.158
-121.195	-66.530	-0.401	-0.157
-120.180	21.214	-0.244	0.196
-119.166	361.670	-0.075	-0.148
-118.151	-200.000	0.003	0.235
-117.137	-200.000	-0.027	0.259
-116.122	346.807	0.092	0.179
-115.107	453.461	-0.163	0.356
-114.093	-200.000	0.006	0.098
-113.078	-62.332	0.238	-0.098
-112.064	-81.516	-0.247	0.080
-111.049	-9.703	0.201	-0.132
-110.034	-200.000	-0.004	-0.149
-109.020	339.822	-0.116	-0.224
-108.005	-86.874	0.138	-0.042
-106.991	-104.105	0.209	0.048
-105.976	22.261	0.120	0.097
-104.962	682.037	0.076	-0.195
-103.947	5.681	-0.272	0.198
-102.932	623.652	0.048	0.119
-101.918	-68.308	-0.132	0.050
-100.903	-65.717	-0.273	0.108
-99.889	-37.614	-0.298	-0.156
-98.874	-86.301	0.241	-0.073
-97.859	-200.000	-0.014	0.098
-96.845	800.000	-0.045	0.152
-95.830	259.244	-0.108	0.183
-94.816	-154.332	0.184	0.012
-93.801	-144.639	0.040	-0.004
-92.786	-186.889	0.094	-0.001
-91.772	-172.334	-0.266	0.008
-90.757	312.730	-0.100	-0.185
-89.743	800.000	-0.091	0.278
-88.728	385.999	0.224	0.455
-87.713	-134.821	0.197	0.023
-86.699	11.388	0.267	-0.201
-85.684	636.198	0.064	0.159
-84.670	156.393	0.119	-0.161
-83.655	-200.000	-0.040	0.228
-82.640	194.463	-0.170	0.254
-81.626	800.000	-0.136	-0.423
-80.611	800.000	-0.120	-0.442
-79.597	75.102	-0.132	-0.137
-78.582	83.487	-0.079	-0.084
-77.567	-200.000	-0.004	0.197
-76.553	90.268	-0.103	0.114
-75.538	-102.740	-0.318	0.075
-74.524	212.799	0.129	0.200
-73.509	-127.043	-0.190	-0.027
-72.494	-55.066	-0.563	0.249
-71.480	245.996	-0.075	0.124
-70.465	-101.515	0.193	0.046
-69.451	127.037	0.019	0.024
-68.436	800.000	-0.035	0.115
-67.422	33.036	0.214	0.183
-66.407	-133.155	-0.379	0.047
-65.392	46.863	-0.150	0.138
-64.378	131.224	0.056	0.071
-63.363	105.528	-0.110	0.128
-62.349	-200.000	0.013	-0.069
-61.334	-8.577	-0.853	-0.563
-60.319	-24.385	0.686	0.402
-59.305	218.863	-0.279	-0.439
-58.290	86.457	0.706	0.766
-57.276	270.129	0.887	1.532
-56.261	-200.000	97.098	600.581
-55.246	551.831	1370.978	3235.555
-54.232	161.896	2548.160	3507.445
-53.217	111.985	2152.930	2556.121
-52.203	42.562	1697.317	1517.938
-51.188	34.975	1511.371	1300.280
-50.173	32.593	1484.485	1261.175
-49.159	52.178	1534.437	1437.355
-48.144	53.851	1551.577	1464.736
-47.130	35.240	1511.310	1301.823
-46.115	32.120	1496.552	1268.029
-45.100	31.843	1493.153	1263.234
-44.086	31.816	1491.325	1261.454
-43.071	31.921	1488.783	1259.962
-42.057	31.845	1487.556	1258.366
-41.042	31.831	1486.392	1257.233
-40.027	31.686	1485.477	1255.438
-39.013	31.784	1483.675	1254.523
-37.998	31.863	1482.089	1253.656
-36.984	31.805	1480.772	1252.107
-35.969	31.697	1479.756	1250.480
-34.954	31.790	1478.577	1250.052
-33.940	31.811	1476.996	1248.807
-32.925	31.952	1475.103	1248.095
-31.911	31.935	1473.941	1246.947
-30.896	31.875	1473.020	1245.721
-29.881	31.822	1471.814	1244.301
-28.867	31.947	1469.447	1243.077
-27.852	31.813	1468.909	1241.685
-26.838	31.777	1467.525	1240.226
-25.823	31.821	1465.724	1238.946
-24.809	31.854	1463.659	1237.374
-23.794	31.786	1463.142	1236.439
-22.779	31.865	1461.622	1235.622
-21.765	31.836	1460.773	1234.666
-20.750	31.795	1459.744	1233.475
-19.736	31.840	1458.341	1232.537
-18.721	31.860	1457.348	1231.781
-17.706	31.791	1456.003	1230.145
-16.692	31.776	1455.389	1229.475
-15.677	31.726	1453.811	1227.768
-14.663	31.756	1453.255	1227.444
-13.648	31.747	1452.253	1226.492
-12.633	31.680	1451.046	1224.985
-11.619	31.675	1450.683	1224.600
-10.604	31.710	1449.593	1223.858
-9.590	31.822	1448.477	1223.596
-8.575	31.811	1447.794	1222.901
-7.560	31.803	1446.865	1222.018
-6.546	31.737	1445.613	1220.480
-5.531	31.763	1445.172	1220.229
-4.517	31.632	1444.290	1218.580
-3.502	31.739	1442.511	1217.726
-2.487	31.764	1441.873	1217.304
-1.473	31.719	1441.234	1216.425
-0.458	31.765	1439.622	1215.314
0.556	32.326	1430.208	1204.197
1.571	29.526	1405.608	1165.730
2.586	26.739	1349.532	1102.198
3.600	25.680	1271.434	1032.253
4.615	24.512	1226.207	988.980
5.629	21.003	1168.782	924.023
6.644	11.230	1082.544	807.569
7.659	3.633	1040.339	739.724
8.673	2.454	1035.484	730.581
9.688	2.115	1032.164	726.563
10.702	2.188	1030.492	725.667
11.717	2.163	1028.392	724.007
12.731	6.037	1032.942	745.561
13.746	15.868	1046.522	802.366
14.761	23.246	1056.377	845.210
15.775	25.207	1057.734	855.588
16.790	25.589	1057.470	857.117
17.804	25.607	1056.547	856.378
18.819	25.300	1056.282	854.628
19.834	25.363	1055.410	854.147
20.848	25.491	1055.068	854.401
21.863	25.584	1054.546	854.347
22.877	25.637	1054.288	854.312
23.892	25.549	1053.818	853.441
24.907	25.533	1052.133	851.922
25.921	25.438	1052.435	851.643
26.936	25.439	1051.862	851.106
27.950	25.426	1050.631	849.975
28.965	25.489	1048.769	848.691
29.980	25.311	1047.820	847.010
30.994	25.334	1046.557	846.021
32.009	25.587	1045.572	846.339
33.023	25.421	1046.103	845.913
34.038	25.404	1044.300	844.301
35.053	25.397	1043.495	843.543
36.067	25.428	1043.103	843.295
37.082	25.450	1041.981	842.419
38.096	25.540	1041.370	842.270
39.111	25.782	1040.570	842.680
40.126	25.962	1039.738	842.774
41.140	25.664	1038.875	840.611
42.155	25.511	1036.860	838.190
43.169	25.141	1035.838	835.569
44.184	25.178	1035.081	835.053
45.199	25.191	1034.017	834.184
46.213	25.159	1032.704	832.901
47.228	25.085	1032.326	832.178
48.242	25.206	1031.968	832.378
49.257	25.314	1031.285	832.255
50.271	25.559	1030.072	832.335
51.286	25.582	1029.247	831.701
52.301	25.552	1028.985	831.279
53.315	25.598	1028.376	830.925
54.330	25.712	1026.854	830.147
55.344	25.461	1026.801	828.872
56.359	25.427	1026.105	828.081
57.374	25.417	1025.245	827.270
58.388	25.380	1023.777	825.841
59.403	25.342	1023.196	825.126
60.417	25.337	1022.566	824.520
61.432	25.214	1021.548	823.060
62.447	25.262	1020.822	822.624
63.461	25.248	1020.530	822.251
64.476	25.380	1019.528	821.978
65.490	25.354	1018.736	821.148
66.505	25.118	1017.938	819.351
67.520	25.313	1017.003	819.418
68.534	25.399	1016.058	818.975
69.549	25.210	1015.291	817.421
70.563	24.778	1013.916	814.279
71.578	24.715	1013.484	813.572
72.593	24.717	1013.051	813.161
73.607	24.755	1011.633	812.123
74.622	24.641	1010.545	810.660
75.636	24.902	1010.392	811.650
76.651	25.212	1009.484	812.254
77.666	24.935	1008.555	810.181
78.680	24.718	1008.056	808.727
79.695	24.957	1007.170	809.025
80.709	25.017	1006.496	808.681
81.724	25.101	1006.157	808.718
82.739	25.090	1004.789	807.497
83.753	25.124	1003.618	806.638
84.768	25.421	1003.536	807.836
85.782	25.719	1003.034	808.697
86.797	25.890	1002.051	808.604
87.812	25.964	1000.986	808.004
88.826	25.710	1000.298	806.237
89.841	25.683	999.357	805.290
90.855	25.764	998.725	805.069
91.870	25.884	998.315	805.203
92.884	25.703	997.730	803.854
93.899	25.695	996.538	802.787
94.914	25.566	995.434	801.250
95.928	25.750	994.978	801.635
96.943	25.619	994.240	800.386
97.957	25.398	992.821	798.190
98.972	25.190	991.618	796.230
99.987	25.132	990.600	795.082
101.001	24.996	990.553	794.370
102.016	25.438	989.601	795.496
103.030	25.568	988.582	795.182
104.045	25.305	987.776	793.301
105.060	25.335	986.231	792.122
106.074	25.135	985.446	790.540
107.089	25.184	984.496	789.922
108.103	25.546	984.400	791.371
109.118	25.634	983.246	790.761
110.133	25.313	982.364	788.570
111.147	25.227	981.602	787.510
112.162	25.102	980.482	785.994
113.176	24.827	979.381	783.840
114.191	24.940	978.722	783.735
115.206	25.200	977.511	783.833
116.220	24.690	976.756	780.932
117.235	24.721	975.755	780.198
118.249	25.001	974.832	780.610
119.264	24.988	974.191	779.972
120.279	24.850	973.496	778.745
121.293	24.711	973.042	777.710
122.308	24.901	972.184	777.779
123.322	24.847	971.239	776.719
124.337	24.788	970.135	775.513
125.352	24.812	968.874	774.539
126.366	24.307	967.212	770.963
127.381	24.133	965.844	769.052
128.395	24.652	965.701	771.110
129.410	25.236	965.754	773.602
130.424	25.524	964.768	773.982
131.439	25.456	963.988	772.998
132.454	25.288	963.192	771.570
133.468	25.381	962.419	771.280
134.483	25.375	961.151	770.169
135.497	25.237	960.845	769.267
136.512	25.519	960.160	769.856
137.527	25.603	959.590	769.691
138.541	25.547	959.073	768.968
139.556	25.540	958.167	768.146
140.570	25.557	957.253	767.415
141.585	25.641	956.292	766.938
142.600	25.696	955.841	766.741
143.614	25.664	954.207	765.225
144.629	25.848	953.400	765.295
145.643	25.887	953.503	765.472
146.658	25.830	952.493	764.351
147.673	25.718	950.917	762.547
148.687	25.733	949.543	761.441
149.702	25.480	948.982	759.853
150.716	25.396	947.991	758.638
151.731	25.378	946.980	757.685
152.746	25.378	946.602	757.317
153.760	25.650	945.385	757.423
154.775	25.792	944.829	757.506
155.789	25.765	944.148	756.779
156.804	25.884	942.889	756.201
157.819	25.724	942.091	754.823
158.833	25.750	941.719	754.571
159.848	25.872	941.029	754.459
160.862	26.103	940.076	754.596
161.877	25.943	938.541	752.630
162.892	25.871	937.759	751.634
163.906	25.858	937.688	751.458
164.921	25.664	936.864	749.920
165.935	25.818	935.403	749.326
166.950	25.771	934.608	748.428
167.964	25.812	933.703	747.808
168.979	25.807	932.503	746.762
169.994	25.697	931.768	745.649
171.008	25.712	930.619	744.725
172.023	25.742	930.147	744.408
173.037	25.968	929.139	744.466
174.052	25.689	928.375	742.639
175.067	25.494	927.278	740.890
176.081	25.486	926.687	740.321
177.096	25.523	926.027	739.879
178.110	25.615	924.945	739.326
179.125	25.460	924.097	737.947
180.140	25.173	922.666	735.563
181.154	25.251	922.343	735.561
182.169	25.310	921.781	735.291
183.183	25.387	921.968	735.688
184.198	25.836	921.259	736.895
185.213	25.773	920.328	735.827
186.227	25.705	919.887	735.134
187.242	25.766	919.787	735.237
188.256	25.865	918.810	734.795
189.271	25.926	917.731	734.115
190.286	26.075	916.897	733.989
191.300	25.745	916.427	732.207
192.315	25.151	914.810	728.438
193.329	24.408	913.316	724.169
194.344	24.014	912.339	721.733
195.359	24.635	912.738	724.503
196.373	25.553	913.139	728.476
197.388	25.788	912.601	728.936
198.402	25.672	912.002	727.923
199.417	25.717	911.516	727.654
200.432	25.625	911.318	727.057
201.446	25.453	910.562	725.698
202.461	25.208	909.615	723.891
203.475	25.385	909.256	724.255
204.490	24.916	907.664	721.031
205.504	23.761	905.610	714.695
206.519	24.245	905.641	716.602
207.534	25.155	906.000	720.481
208.548	25.253	905.541	720.444
209.563	25.627	905.307	721.695
210.577	25.623	904.837	721.239
211.592	25.503	903.506	719.637
212.607	25.789	903.525	720.731
213.621	25.919	903.272	720.986
214.636	25.948	902.335	720.292
215.650	25.839	902.085	719.594
216.665	25.822	901.184	718.744
217.680	25.871	900.827	718.590
218.694	25.869	900.668	718.391
219.709	25.576	899.310	716.078
220.723	25.353	898.311	714.333
221.738	25.445	897.822	714.246
222.753	25.638	897.568	714.749
223.767	25.620	896.560	713.810
224.782	25.739	895.785	713.600
225.796	25.777	895.731	713.647
226.811	26.038	894.901	713.954
227.826	25.703	893.234	711.239
228.840	24.776	892.222	706.710
229.855	24.607	891.836	705.675
230.869	24.958	891.176	706.473
231.884	24.656	890.325	704.546
232.899	24.556	889.900	703.751
233.913	25.503	889.940	707.451
234.928	25.693	889.538	707.819
235.942	25.572	888.917	706.783
236.957	25.517	888.360	706.061
237.972	25.260	887.231	704.095
238.986	25.242	886.546	703.419
240.001	25.367	886.209	703.579
241.015	25.437	885.232	703.015
242.030	25.333	884.859	702.249
243.045	25.526	884.583	702.722
244.059	25.514	884.022	702.169
245.074	25.850	883.136	702.712
246.088	25.871	882.244	702.022
247.103	25.340	881.913	699.630
248.117	25.416	881.106	699.222
249.132	25.993	881.016	701.335
250.147	26.244	881.365	702.528
251.161	26.362	880.498	702.231
252.176	26.587	879.936	702.593
253.190	26.653	879.252	702.240
254.205	26.420	879.307	701.318
255.220	26.730	878.678	701.956
256.234	26.887	877.569	701.617
257.249	26.686	876.831	700.188
258.263	26.580	876.091	699.124
259.278	26.516	875.849	698.624
260.293	26.575	875.740	698.701
261.307	26.751	875.124	698.829
262.322	26.670	874.291	697.788
263.336	26.490	873.299	696.244
264.351	26.051	871.954	693.420
265.366	24.700	870.596	687.093
266.380	24.313	869.695	684.835
267.395	25.376	869.933	689.042
268.409	26.096	870.196	691.953
269.424	26.108	868.683	690.735
270.439	26.229	868.924	691.328
271.453	26.371	868.308	691.318
272.468	26.454	867.724	691.109
273.482	26.433	867.682	690.935
274.497	26.545	866.970	690.735
275.512	26.450	865.620	689.236
276.526	25.821	864.466	685.860
277.541	26.152	863.781	686.516
278.555	26.498	863.703	687.709
279.570	26.267	863.129	686.312
280.585	25.884	862.741	684.490
281.599	26.062	862.068	684.572
282.614	26.337	861.706	685.265
283.628	25.792	860.214	681.954
284.643	25.376	859.796	679.990
285.657	25.769	859.658	681.306
286.672	25.807	858.804	680.713
287.687	25.421	857.695	678.317
288.701	25.649	858.064	679.408
289.716	26.121	857.388	680.593
290.730	25.746	856.501	678.418
291.745	25.590	855.878	677.278
292.760	25.310	855.339	675.735
293.774	25.336	854.316	674.965
294.789	26.199	855.121	678.789
295.803	26.877	855.318	681.433
296.818	26.929	855.118	681.408
297.833	27.110	853.808	680.983
298.847	26.747	853.155	679.041
299.862	26.244	852.095	676.255
300.876	26.545	851.992	677.241
301.891	26.787	851.734	677.880
302.906	26.980	850.844	677.834
303.920	26.458	849.725	674.933
304.935	26.539	848.824	674.459
305.949	26.980	848.819	676.040
306.964	26.889	848.178	675.129
307.979	26.785	847.140	673.856
308.993	26.717	846.965	673.408
310.008	26.957	847.228	674.447
311.022	27.164	846.809	674.823
312.037	26.911	845.914	673.111
313.052	26.751	845.295	671.965
314.066	26.514	844.489	670.389
315.081	25.811	842.951	666.510
316.095	25.120	841.721	662.924
317.110	25.580	842.187	664.932
318.125	26.468	842.343	668.278
319.139	26.076	841.348	665.982
320.154	24.898	839.760	660.324
321.168	24.389	838.560	657.446
322.183	25.211	838.705	660.532
323.197	26.098	839.279	664.190
324.212	26.477	838.862	665.197
325.227	26.728	838.222	665.551
326.241	26.635	838.245	665.169
327.256	26.471	837.548	663.955
328.270	26.445	837.169	663.502
329.285	26.442	836.185	662.651
330.300	26.258	835.552	661.419
331.314	26.112	834.432	659.940
332.329	26.128	834.032	659.623
333.343	26.548	833.813	660.926
334.358	26.928	833.095	661.682
335.373	26.794	832.672	660.800
336.387	26.765	832.282	660.328
337.402	27.006	832.350	661.201
338.416	27.324	831.396	661.542
339.431	27.360	831.122	661.396
340.446	27.118	830.997	660.358
341.460	27.468	830.279	660.999
342.475	27.428	829.613	660.266
343.489	27.179	829.069	658.871
344.504	26.989	828.808	657.917
345.519	27.409	828.160	658.863
346.533	27.510	827.685	658.796
347.548	27.668	827.600	659.239
348.562	27.751	827.139	659.112
349.577	27.640	826.485	658.132
350.592	27.459	825.928	656.978
351.606	27.659	825.035	656.930
352.621	27.455	824.760	655.921
353.635	27.477	824.523	655.751
354.650	27.376	824.024	654.932
355.665	27.080	822.713	652.771
356.679	25.988	820.908	647.361
357.694	25.858	820.713	646.684
358.708	26.579	820.796	649.280
359.723	26.444	820.350	648.385
360.738	26.731	819.928	649.024
361.752	27.095	820.012	650.336
362.767	27.153	819.673	650.215
363.781	27.574	819.574	651.584
364.796	27.753	818.821	651.570
365.810	27.905	818.806	652.041
366.825	27.999	818.411	652.005
367.840	27.953	818.229	651.639
368.854	27.811	817.516	650.506
369.869	27.400	816.424	648.115
370.883	27.165	815.955	646.852
371.898	27.328	815.299	646.855
372.913	27.171	814.522	645.623
373.927	27.206	814.078	645.335
374.942	27.482	813.327	645.662
375.956	27.485	813.150	645.477
376.971	27.590	812.717	645.448
377.986	27.584	812.380	645.102
379.000	27.799	811.821	645.359
380.015	27.746	811.679	645.005
381.029	27.801	810.510	644.212
382.044	27.810	809.894	643.697
383.059	27.890	809.441	643.560
384.073	27.815	808.946	642.847
385.088	27.943	808.318	642.741
386.102	27.972	807.790	642.365
387.117	27.736	807.070	640.909
388.132	27.639	806.696	640.216
389.146	27.423	806.016	638.858
390.161	26.819	805.090	635.952
391.175	26.860	804.917	635.901
392.190	27.404	805.061	637.867
393.205	27.570	804.249	637.747
394.219	26.459	802.631	632.526
395.234	24.967	800.203	625.350
396.248	24.066	799.410	621.532
397.263	25.199	800.418	626.221
398.278	26.979	801.477	633.207
399.292	27.430	801.630	634.847
400.307	27.094	800.900	633.040
401.321	27.015	800.302	632.239
402.336	27.199	800.069	632.638
403.350	27.363	799.925	633.037
404.365	27.981	799.725	634.971
405.380	28.159	799.611	635.444
406.394	28.482	799.262	636.231
407.409	28.659	799.008	636.587
408.423	28.615	798.068	635.628
409.438	28.475	798.036	635.063
410.453	28.526	797.710	634.923
411.467	28.593	797.308	634.779
412.482	28.523	796.642	633.950
413.496	28.486	795.851	633.138
414.511	28.699	795.332	633.403
415.526	28.657	795.298	633.175
416.540	28.529	795.120	632.534
417.555	28.509	794.550	631.958
418.569	28.347	793.558	630.555
419.584	28.315	793.007	629.952
420.599	28.356	792.494	629.629
421.613	111.748	1286.154	1459.496
422.628	96.199	1358.095	1459.594
