DTS Sentinel unit serial number:	SN413079Multiplexer serial number:	ORYXHardware model number:	OX4-SRSoftware version number:	ORYX F/W v4.00 Oryx Data Collector v3.7.2.0data status	okinstallation	princeton_trtdifferential loss correction	single-endedforward channel	channel 3reverse channel	N/Adate	2019/09/11time	08:58:11forward acquisition time	60.00reverse acquisition time	0.00gamma	496.2192k internal	0.2309k external	0.2309temperature offset calibration	0.9940default loss term (dB/km)	0.3790temperature slope calibration	1.0000multiplexer offset coefficient	1.0000multiplexer slope coefficient	1.0000fibre end	0.00T internal ref (°C)	34.05T ext. ref 1 (°C)	0.09T ext. ref 2 (°C)	30.59length (m)	temperature (°C)	Stokes	anti-Stokes-747.200	-111.897	-0.147	0.030
-746.185	-200.000	-0.011	0.083
-745.171	205.825	0.219	-0.346
-744.156	-80.318	0.278	0.094
-743.142	-200.000	0.006	-0.034
-742.127	97.766	-0.177	-0.207
-741.112	573.358	0.037	-0.092
-740.098	69.493	-0.170	0.178
-739.083	-90.567	-0.038	0.011
-738.069	-14.934	0.229	0.149
-737.054	-83.000	-0.127	0.042
-736.039	-11.084	-0.044	0.030
-735.025	-200.000	0.023	0.237
-734.010	99.629	-0.119	0.140
-732.996	-113.061	-0.358	0.072
-731.981	-84.121	-0.164	-0.053
-730.966	559.420	-0.140	0.343
-729.952	78.425	-0.090	-0.098
-728.937	-57.284	-0.160	-0.071
-727.923	-86.074	0.164	0.051
-726.908	-11.107	-0.256	-0.172
-725.894	-200.000	0.027	-0.304
-724.879	-56.997	-0.141	0.063
-723.864	-41.446	0.195	0.102
-722.850	104.183	-0.154	0.184
-721.835	-200.000	0.033	0.180
-720.821	382.562	-0.126	0.262
-719.806	10.560	0.239	-0.185
-718.791	514.642	0.073	-0.172
-717.777	-135.531	-0.173	-0.021
-716.762	32.636	0.213	0.187
-715.748	26.397	0.218	0.185
-714.733	139.030	0.123	0.164
-713.718	-119.538	-0.127	-0.022
-712.704	76.514	0.213	0.230
-711.689	30.298	0.052	0.045
-710.675	-174.948	-0.266	0.008
-709.660	-1.627	0.269	0.193
-708.645	-134.684	0.490	0.061
-707.631	800.000	0.082	0.250
-706.616	143.535	-0.169	-0.229
-705.602	-105.497	-0.181	-0.042
-704.587	-200.000	-0.004	0.025
-703.572	-47.267	0.241	-0.119
-702.558	-86.510	0.350	-0.109
-701.543	-200.000	0.009	-0.202
-700.529	-47.342	-0.472	-0.233
-699.514	-73.663	-0.250	-0.092
-698.499	7.300	-0.063	-0.048
-697.485	-77.024	-0.266	0.094
-696.470	-66.328	0.106	-0.043
-695.456	66.349	0.161	-0.166
-694.441	-182.919	0.294	0.005
-693.426	243.837	-0.060	0.102
-692.412	-84.358	-0.072	0.023
-691.397	71.869	0.117	0.124
-690.383	-200.000	-0.032	-0.185
-689.368	-200.000	-0.001	-0.077
-688.354	-80.132	-0.315	0.107
-687.339	-108.775	-0.199	0.043
-686.324	-200.000	-0.062	0.277
-685.310	-200.000	-0.041	-0.210
-684.295	800.000	0.033	0.114
-683.281	-56.592	-0.381	0.171
-682.266	-22.342	0.216	-0.133
-681.251	571.299	0.101	-0.248
-680.237	-99.774	0.195	0.049
-679.222	63.105	-0.378	0.384
-678.208	609.284	0.052	-0.132
-677.193	-164.175	0.196	-0.009
-676.178	-200.000	0.016	-0.178
-675.164	352.966	-0.068	-0.137
-674.149	800.000	-0.054	-0.202
-673.135	-200.000	-0.022	-0.167
-672.120	-66.713	-0.318	0.128
-671.105	-200.000	0.019	-0.103
-670.091	-32.995	-0.028	-0.016
-669.076	-160.526	-0.104	0.006
-668.062	137.422	0.207	-0.275
-667.047	-200.000	-0.032	-0.199
-666.032	162.176	-0.198	0.281
-665.018	800.000	0.091	0.317
-664.003	800.000	0.087	0.264
-662.989	-200.000	-0.002	-0.167
-661.974	-125.485	-0.254	0.039
-660.959	-137.492	-0.048	0.006
-659.945	-123.872	-0.159	0.025
-658.930	356.752	-0.054	-0.108
-657.916	262.979	-0.135	0.237
-656.901	-89.519	0.425	0.126
-655.886	346.832	-0.130	-0.259
-654.872	-200.000	0.009	-0.392
-653.857	-131.732	-0.266	0.035
-652.843	691.821	0.051	-0.136
-651.828	15.159	0.340	0.270
-650.814	71.128	-0.176	-0.184
-649.799	98.027	-0.213	0.248
-648.784	147.507	-0.230	-0.313
-647.770	-78.077	-0.394	-0.137
-646.755	196.421	0.093	-0.143
-645.741	-141.673	0.408	0.042
-644.726	-30.023	0.254	0.146
-643.711	-200.000	0.040	-0.293
-642.697	-200.000	0.008	0.149
-641.682	-31.015	0.169	-0.096
-640.668	572.310	-0.069	-0.169
-639.653	-200.000	-0.001	0.082
-638.638	216.290	-0.043	-0.068
-637.624	99.270	0.031	-0.036
-636.609	-120.032	-0.323	0.056
-635.595	24.003	0.142	-0.119
-634.580	-200.000	-0.010	-0.175
-633.565	31.001	-0.098	0.085
-632.551	-200.000	0.012	0.061
-631.536	50.087	-0.076	-0.073
-630.522	-200.000	-0.005	-0.194
-629.507	-200.000	-0.027	-0.520
-628.492	-200.000	-0.055	0.264
-627.478	-200.000	0.015	-0.100
-626.463	-200.000	0.017	0.171
-625.449	-33.510	0.082	0.046
-624.434	800.000	-0.114	-0.389
-623.419	800.000	-0.080	-0.252
-622.405	-46.441	-0.084	0.042
-621.390	-48.893	0.437	-0.212
-620.376	-200.000	-0.003	0.106
-619.361	-151.925	0.283	-0.021
-618.346	18.498	0.303	0.245
-617.332	800.000	0.072	-0.203
-616.317	-136.988	-0.127	-0.015
-615.303	-112.559	0.230	-0.046
-614.288	-200.000	-0.024	-0.259
-613.273	-58.803	-0.263	-0.115
-612.259	78.702	0.260	0.281
-611.244	330.286	0.215	0.418
-610.230	800.000	-0.043	-0.173
-609.215	-40.667	-0.166	0.087
-608.201	-200.000	0.009	0.068
-607.186	-200.000	-0.047	0.278
-606.171	-31.038	0.101	-0.058
-605.157	-64.921	-0.168	0.069
-604.142	14.471	-0.435	0.343
-603.128	7.472	-0.192	0.145
-602.113	800.000	0.057	0.212
-601.098	14.321	0.127	0.100
-600.084	39.728	-0.171	0.155
-599.069	230.360	0.154	-0.254
-598.055	800.000	0.069	-0.245
-597.040	800.000	0.043	0.139
-596.025	-81.829	0.273	0.090
-595.011	41.241	0.184	0.168
-593.996	42.580	-0.164	-0.151
-592.982	120.438	-0.183	0.229
-591.967	-114.323	-0.278	-0.054
-590.952	138.928	0.123	0.163
-589.938	-150.583	-0.121	0.009
-588.923	65.665	-0.166	0.170
-587.909	42.534	0.228	0.210
-586.894	716.387	0.059	-0.159
-585.879	101.303	-0.255	0.300
-584.865	-139.783	-0.220	-0.024
-583.850	-200.000	0.072	-0.383
-582.836	-200.000	0.020	-0.168
-581.821	-200.000	0.005	-0.055
-580.806	-200.000	-0.005	-0.215
-579.792	151.244	0.203	-0.279
-578.777	58.970	0.143	-0.142
-577.763	800.000	0.108	-0.362
-576.748	283.182	-0.138	-0.250
-575.733	40.450	-0.276	-0.250
-574.719	68.848	0.321	0.333
-573.704	-34.829	0.182	0.101
-572.690	-65.239	0.023	0.009
-571.675	24.981	-0.084	0.070
-570.661	-48.872	-0.093	0.045
-569.646	89.373	0.206	-0.232
-568.631	149.630	0.084	-0.114
-567.617	27.436	-0.375	-0.318
-566.602	46.319	0.034	0.032
-565.588	40.142	-0.197	0.178
-564.573	-20.233	-0.314	0.195
-563.558	321.441	-0.033	0.064
-562.544	800.000	0.016	-0.055
-561.529	800.000	0.077	-0.247
-560.515	800.000	-0.019	-0.071
-559.500	596.139	-0.046	0.115
-558.485	2.865	0.287	-0.210
-557.471	25.291	0.150	0.126
-556.456	-48.975	0.056	-0.027
-555.442	-200.000	0.016	0.195
-554.427	-143.218	0.087	-0.008
-553.412	150.972	0.281	-0.385
-552.398	-200.000	-0.045	-0.448
-551.383	-28.374	-0.018	-0.010
-550.369	-200.000	0.001	-0.049
-549.354	-152.218	0.309	0.023
-548.339	-200.000	0.029	-0.174
-547.325	101.765	-0.023	-0.027
-546.310	-62.306	-0.215	-0.090
-545.296	390.156	-0.117	-0.245
-544.281	8.582	-0.323	-0.245
-543.266	-132.897	-0.372	0.048
-542.252	243.706	0.138	0.233
-541.237	-200.000	-0.001	-0.273
-540.223	-182.360	-0.143	0.003
-539.208	-200.000	-0.035	0.178
-538.193	224.171	0.083	0.136
-537.179	800.000	0.021	0.073
-536.164	-200.000	0.050	-0.404
-535.150	56.370	-0.154	-0.151
-534.135	-52.613	0.212	-0.099
-533.121	-121.016	-0.100	-0.017
-532.106	56.319	0.285	-0.279
-531.091	-23.439	0.140	0.085
-530.077	800.000	-0.019	0.071
-529.062	24.520	0.106	0.088
-528.048	-200.000	-0.015	-0.065
-527.033	-139.868	0.221	-0.024
-526.018	-119.521	-0.207	0.036
-525.004	6.697	-0.213	-0.159
-523.989	800.000	-0.022	-0.061
-522.975	67.317	-0.144	0.148
-521.960	800.000	-0.113	0.350
-520.945	212.169	0.131	0.208
-519.931	231.687	-0.093	-0.154
-518.916	51.213	-0.115	-0.110
-517.902	31.505	-0.122	0.105
-516.887	221.849	-0.253	0.409
-515.872	304.783	-0.050	0.094
-514.858	54.335	-0.392	0.380
-513.843	-78.715	0.128	0.044
-512.829	232.914	0.064	0.106
-511.814	264.048	0.245	0.429
-510.799	-75.983	-0.308	0.110
-509.785	-200.000	-0.025	-0.131
-508.770	227.796	-0.214	-0.351
-507.756	-200.000	0.036	-0.329
-506.741	-131.273	-0.115	-0.015
-505.726	-147.027	-0.129	0.011
-504.712	-200.000	-0.000	-0.117
-503.697	-200.000	-0.004	-0.021
-502.683	-200.000	0.073	0.358
-501.668	17.479	0.172	-0.137
-500.653	-44.841	-0.152	-0.076
-499.639	-20.557	0.065	-0.040
-498.624	13.506	-0.064	-0.050
-497.610	63.158	-0.123	-0.124
-496.595	-69.196	0.181	-0.070
-495.581	55.762	0.324	0.316
-494.566	101.035	0.140	0.164
-493.551	-121.027	0.288	-0.049
-492.537	-145.646	0.389	-0.035
-491.522	-90.677	0.141	-0.041
-490.508	-200.000	-0.049	0.251
-489.493	598.578	-0.079	-0.198
-488.478	515.126	-0.101	-0.238
-487.464	123.988	-0.018	-0.023
-486.449	597.628	-0.104	-0.259
-485.435	-53.095	0.135	0.063
-484.420	33.594	0.045	-0.039
-483.405	449.014	0.127	0.281
-482.391	-0.700	-0.112	-0.080
-481.376	800.000	0.053	-0.194
-480.362	800.000	-0.082	0.273
-479.347	171.562	-0.184	0.265
-478.332	-91.776	0.078	0.022
-477.318	-200.000	0.003	-0.039
-476.303	24.125	-0.046	-0.039
-475.289	239.965	-0.133	-0.223
-474.274	204.258	0.083	-0.130
-473.259	-78.557	-0.232	0.080
-472.245	126.138	-0.195	-0.248
-471.230	-109.650	0.280	-0.059
-470.216	-9.589	-0.143	-0.096
-469.201	-200.000	0.021	0.218
-468.186	800.000	-0.054	0.190
-467.172	-179.019	0.308	0.007
-466.157	-170.460	0.174	0.006
-465.143	2.829	0.376	0.274
-464.128	749.279	-0.032	0.086
-463.113	-135.748	-0.136	0.016
-462.099	-200.000	0.008	-0.061
-461.084	108.257	0.313	0.375
-460.070	-141.884	-0.408	0.041
-459.055	201.476	-0.208	0.321
-458.040	-148.506	-0.099	-0.008
-457.026	-106.790	0.137	-0.031
-456.011	226.753	0.223	-0.364
-454.997	-200.000	-0.025	-0.109
-453.982	-124.699	-0.102	-0.016
-452.968	78.547	0.149	-0.160
-451.953	322.258	0.142	0.272
-450.938	-112.570	-0.243	-0.049
-449.924	-171.060	0.217	-0.007
-448.909	-158.318	0.200	0.012
-447.895	82.759	0.112	-0.122
-446.880	143.050	0.207	0.276
-445.865	-200.000	-0.061	0.327
-444.851	667.653	0.016	0.041
-443.836	-148.303	-0.319	-0.026
-442.822	-200.000	-0.025	-0.402
-441.807	-200.000	-0.068	0.429
-440.792	-127.733	0.117	0.017
-439.778	-52.681	-0.140	0.065
-438.763	-108.341	0.089	0.019
-437.749	653.203	0.003	-0.009
-436.734	467.523	0.092	0.208
-435.719	-86.257	0.118	0.036
-434.705	180.779	-0.154	-0.226
-433.690	800.000	-0.025	-0.083
-432.676	-200.000	-0.004	0.100
-431.661	-200.000	-0.019	0.179
-430.646	-87.637	0.144	0.044
-429.632	-200.000	-0.020	-0.432
-428.617	-104.926	0.319	0.073
-427.603	80.422	0.100	0.108
-426.588	78.622	0.299	-0.321
-425.573	329.134	0.094	-0.181
-424.559	-128.774	0.245	-0.035
-423.544	-88.696	-0.236	0.070
-422.530	-5.429	-0.226	0.156
-421.515	-6.357	0.204	0.140
-420.500	260.213	-0.166	-0.287
-419.486	-127.569	0.242	0.035
-418.471	-105.626	0.145	0.033
-417.457	-20.652	0.044	0.027
-416.442	200.739	0.209	-0.323
-415.428	-178.003	-0.292	0.007
-414.413	-115.906	-0.119	-0.022
-413.398	225.293	0.086	-0.139
-412.384	221.391	0.178	-0.287
-411.369	-186.414	0.238	0.003
-410.355	182.322	-0.070	0.103
-409.340	64.322	-0.074	0.075
-408.325	-128.920	-0.376	-0.053
-407.311	160.428	-0.134	0.187
-406.296	32.194	0.274	-0.237
-405.282	-75.817	0.127	-0.045
-404.267	-200.000	-0.011	-0.096
-403.252	268.451	0.101	-0.178
-402.238	800.000	0.041	0.139
-401.223	-200.000	0.013	0.116
-400.209	800.000	-0.088	0.308
-399.194	41.596	-0.092	0.083
-398.179	-86.617	-0.113	-0.035
-397.165	800.000	-0.024	0.079
-396.150	800.000	0.005	0.015
-395.136	-59.066	-0.221	0.096
-394.121	45.538	-0.389	0.360
-393.106	284.685	0.081	-0.146
-392.092	-84.493	-0.668	0.211
-391.077	111.975	-0.225	-0.273
-390.063	-200.000	0.005	-0.236
-389.048	-72.679	0.091	-0.034
-388.033	-200.000	-0.045	-0.309
-387.019	566.586	0.081	-0.196
-386.004	160.113	-0.150	-0.209
-384.990	-80.853	-0.289	0.096
-383.975	-57.434	0.201	-0.089
-382.960	192.584	0.066	-0.099
-381.946	399.413	0.014	0.029
-380.931	800.000	0.029	0.111
-379.917	-173.015	0.249	0.008
-378.902	417.327	0.188	0.402
-377.888	-115.554	-0.102	-0.019
-376.873	386.976	-0.059	0.123
-375.858	-200.000	0.039	0.247
-374.844	-56.882	0.112	0.049
-373.829	-151.993	-0.317	-0.023
-372.815	-90.249	-0.219	0.064
-371.800	-14.442	-0.246	-0.159
-370.785	-149.359	-0.298	0.024
-369.771	-90.008	-0.246	-0.072
-368.756	28.655	0.125	-0.106
-367.742	-9.244	0.196	-0.131
-366.727	302.090	0.125	0.231
-365.712	157.986	-0.072	0.100
-364.698	-87.020	0.084	-0.026
-363.683	-37.182	-0.304	0.163
-362.669	800.000	0.096	-0.292
-361.654	294.628	-0.118	0.216
-360.639	2.626	0.127	0.092
-359.625	-109.456	0.207	-0.044
-358.610	-63.348	0.111	0.046
-357.596	318.630	0.078	-0.148
-356.581	-134.450	-0.209	-0.026
-355.566	-133.172	0.162	0.020
-354.552	88.348	-0.093	-0.103
-353.537	-16.366	-0.097	-0.061
-352.523	-200.000	0.098	-0.526
-351.508	-85.827	-0.317	0.098
-350.493	-46.196	0.089	-0.044
-349.479	271.900	-0.181	-0.319
-348.464	93.829	0.095	-0.108
-347.450	179.922	0.047	-0.070
-346.435	-83.033	-0.228	0.074
-345.420	800.000	0.049	-0.162
-344.406	-34.641	0.157	0.086
-343.391	47.442	0.030	-0.028
-342.377	-11.993	0.161	0.106
-341.362	166.432	0.110	0.156
-340.348	-31.948	0.190	0.107
-339.333	-101.071	-0.189	-0.046
-338.318	-200.000	0.049	-0.311
-337.304	334.870	0.094	-0.183
-336.289	220.723	-0.051	0.082
-335.275	800.000	0.067	-0.206
-334.260	145.178	0.160	-0.214
-333.245	315.678	0.079	0.150
-332.231	-72.348	0.268	-0.099
-331.216	15.665	-0.147	0.116
-330.202	124.282	-0.032	-0.040
-329.187	-46.424	0.301	-0.148
-328.172	16.500	-0.223	-0.176
-327.158	-139.965	0.219	0.023
-326.143	-200.000	0.024	0.223
-325.129	-200.000	0.016	0.120
-324.114	256.958	0.069	-0.119
-323.099	186.571	0.192	-0.286
-322.085	-62.222	-0.133	-0.055
-321.070	261.274	-0.086	-0.150
-320.056	62.711	-0.291	-0.291
-319.041	-185.740	-0.138	0.002
-318.026	439.806	-0.074	0.161
-317.012	800.000	-0.090	0.275
-315.997	-200.000	0.061	0.272
-314.983	-96.749	0.064	-0.017
-313.968	53.546	0.165	-0.158
-312.953	298.870	0.156	0.287
-311.939	800.000	0.062	0.191
-310.924	29.941	-0.226	0.192
-309.910	-23.143	0.057	0.034
-308.895	26.701	-0.087	0.073
-307.880	800.000	0.074	-0.230
-306.866	-200.000	0.029	0.180
-305.851	554.984	-0.116	-0.278
-304.837	370.089	0.065	-0.131
-303.822	-30.761	0.138	-0.078
-302.807	0.750	0.272	-0.194
-301.793	8.203	-0.115	-0.086
-300.778	-62.661	-0.238	-0.098
-299.764	-134.672	0.136	0.016
-298.749	82.418	-0.329	0.357
-297.735	-68.200	0.305	-0.118
-296.720	19.006	-0.152	0.122
-295.705	-141.336	0.127	0.013
-294.691	-37.625	-0.150	-0.080
-293.676	7.702	0.251	-0.188
-292.662	73.190	-0.054	-0.056
-291.647	-22.122	-0.277	0.168
-290.632	183.775	0.062	0.092
-289.618	-100.030	0.211	-0.053
-288.603	65.923	0.159	-0.161
-287.589	-117.067	-0.120	0.022
-286.574	-77.931	-0.090	0.031
-285.559	46.717	0.152	0.141
-284.545	209.165	0.128	-0.199
-283.530	17.544	0.220	0.175
-282.516	-200.000	-0.006	-0.167
-281.501	-200.000	0.050	-0.226
-280.486	79.768	0.160	-0.171
-279.472	-51.089	0.202	-0.094
-278.457	193.776	-0.208	0.315
-277.443	-43.544	0.255	0.128
-276.428	-25.519	-0.302	0.178
-275.413	-60.763	0.332	-0.140
-274.399	-200.000	-0.021	-0.125
-273.384	-72.390	-0.448	0.165
-272.370	-133.538	0.355	-0.044
-271.355	800.000	0.046	-0.181
-270.340	-132.654	-0.292	0.037
-269.326	-48.320	-0.348	0.167
-268.311	-5.322	-0.052	0.036
-267.297	-81.599	0.188	0.062
-266.282	-200.000	0.021	-0.158
-265.267	-170.536	0.163	0.006
-264.253	-200.000	-0.001	-0.293
-263.238	-65.366	-0.142	-0.057
-262.224	19.619	-0.138	0.111
-261.209	116.846	0.083	0.101
-260.195	544.906	0.051	0.120
-259.180	-79.973	0.389	0.130
-258.165	-37.697	-0.225	0.119
-257.151	-200.000	-0.026	-0.149
-256.136	73.016	-0.376	0.392
-255.122	-200.000	-0.036	0.286
-254.107	-51.146	0.124	-0.058
-253.092	381.247	0.133	0.272
-252.078	87.742	-0.213	0.235
-251.063	438.935	-0.105	-0.229
-250.049	-60.462	0.195	0.083
-249.034	785.752	-0.026	0.072
-248.019	-200.000	-0.016	0.111
-247.005	150.323	-0.159	0.215
-245.990	166.494	0.153	0.216
-244.976	-41.317	0.027	-0.014
-243.961	-113.817	-0.108	0.021
-242.946	-88.953	0.156	0.046
-241.932	-48.789	0.183	0.087
-240.917	-110.220	0.304	0.063
-239.903	407.432	0.048	0.101
-238.888	-89.007	-0.287	0.085
-237.873	47.290	-0.111	-0.103
-236.859	-200.000	-0.059	-0.299
-235.844	-6.460	0.201	-0.137
-234.830	-59.317	-0.240	-0.103
-233.815	-102.416	0.179	0.043
-232.800	126.139	0.114	0.143
-231.786	463.130	-0.105	-0.234
-230.771	215.546	0.107	-0.170
-229.757	-160.310	-0.265	0.014
-228.742	-200.000	0.003	0.050
-227.727	-189.487	-0.167	-0.002
-226.713	800.000	-0.042	0.156
-225.698	526.944	-0.158	0.370
-224.684	800.000	-0.023	-0.067
-223.669	741.421	-0.018	0.048
-222.655	11.017	0.213	0.162
-221.640	-200.000	0.025	0.292
-220.625	591.383	-0.046	-0.114
-219.611	-74.528	0.324	0.116
-218.596	137.248	0.021	0.027
-217.582	-200.000	-0.035	0.233
-216.567	-200.000	-0.081	0.576
-215.552	-200.000	0.025	0.291
-214.538	-3.511	-0.154	0.106
-213.523	99.034	-0.127	-0.146
-212.509	-101.774	-0.151	-0.036
-211.494	-122.914	-0.317	-0.051
-210.479	-200.000	-0.004	-0.166
-209.465	-35.239	-0.358	-0.194
-208.450	-41.011	-0.105	0.054
-207.436	148.243	-0.105	0.142
-206.421	-66.526	0.279	-0.110
-205.406	207.214	0.048	-0.074
-204.392	800.000	-0.080	-0.289
-203.377	-200.000	0.009	0.106
-202.363	71.703	0.137	0.141
-201.348	-200.000	0.029	0.144
-200.333	277.863	0.194	-0.344
-199.319	-200.000	0.001	-0.254
-198.304	800.000	-0.095	0.287
-197.290	-34.643	0.116	-0.063
-196.275	-116.805	0.085	0.015
-195.260	-58.260	0.225	0.098
-194.246	-21.673	-0.171	0.104
-193.231	112.117	0.024	0.029
-192.217	404.288	0.088	-0.184
-191.202	800.000	0.042	0.145
-190.187	244.155	0.156	0.260
-189.173	153.362	0.095	-0.130
-188.158	-77.789	-0.119	-0.041
-187.144	34.751	-0.326	0.283
-186.129	-200.000	0.021	-0.221
-185.114	115.213	-0.141	0.172
-184.100	39.191	-0.069	-0.061
-183.085	-28.632	0.092	0.053
-182.071	29.571	0.103	0.088
-181.056	334.497	-0.105	0.202
-180.042	50.714	-0.244	0.229
-179.027	227.087	-0.125	-0.202
-178.012	82.872	-0.105	0.113
-176.998	159.872	0.212	0.294
-175.983	-5.314	0.265	0.181
-174.969	-200.000	0.005	0.516
-173.954	86.019	0.105	-0.114
-172.939	-171.476	-0.189	-0.006
-171.925	-28.891	-0.205	0.117
-170.910	311.955	-0.029	-0.053
-169.896	-126.411	0.194	0.029
-168.881	-200.000	0.019	-0.362
-167.866	615.194	-0.077	0.193
-166.852	-200.000	-0.051	0.241
-165.837	275.955	-0.115	-0.202
-164.823	-64.818	0.219	-0.088
-163.808	-100.513	-0.257	0.063
-162.793	-150.721	-0.269	0.020
-161.779	-147.925	-0.169	0.014
-160.764	800.000	-0.126	-0.382
-159.750	-154.338	0.247	0.016
-158.735	-11.464	-0.097	-0.063
-157.720	800.000	0.055	0.165
-156.706	-200.000	0.271	-0.001
-155.691	56.189	0.154	-0.148
-154.677	-44.793	0.249	-0.123
-153.662	-153.703	0.107	0.007
-152.647	-77.626	-0.033	-0.011
-151.633	-200.000	0.019	0.136
-150.618	573.667	0.082	-0.199
-149.604	800.000	0.071	0.262
-148.589	-90.775	0.258	0.074
-147.574	191.926	-0.109	0.164
-146.560	-200.000	-0.023	-0.154
-145.545	-200.000	-0.028	0.126
-144.531	-200.000	0.021	-0.122
-143.516	271.379	0.060	0.106
-142.502	-156.955	0.056	-0.003
-141.487	-92.269	0.254	-0.071
-140.472	29.501	-0.182	0.153
-139.458	800.000	-0.039	-0.168
-138.443	732.757	-0.105	-0.278
-137.429	800.000	0.064	0.259
-136.414	120.903	0.078	-0.096
-135.399	68.911	-0.154	-0.156
-134.385	-41.889	-0.354	-0.180
-133.370	107.146	-0.227	-0.267
-132.356	-200.000	-0.033	0.256
-131.341	10.196	0.202	-0.153
-130.326	85.155	-0.158	-0.172
-129.312	-200.000	-0.002	0.155
-128.297	-101.705	-0.161	0.039
-127.283	-200.000	0.018	0.099
-126.268	140.391	-0.056	0.073
-125.253	800.000	0.152	0.431
-124.239	-120.694	-0.310	0.052
-123.224	87.188	-0.146	0.160
-122.210	733.049	-0.079	-0.209
-121.195	-200.000	-0.014	-0.177
-120.180	154.284	-0.035	-0.048
-119.166	-200.000	0.031	0.264
-118.151	-174.707	0.353	0.010
-117.137	-185.421	0.126	-0.002
-116.122	-85.393	-0.074	0.023
-115.107	489.942	0.143	0.325
-114.093	-200.000	0.041	0.227
-113.078	-200.000	0.056	-0.259
-112.064	-54.013	0.122	0.055
-111.049	498.475	0.062	0.141
-110.034	363.113	0.097	0.194
-109.020	81.740	-0.270	-0.290
-108.005	800.000	0.114	-0.447
-106.991	-79.174	-0.175	-0.059
-105.976	-200.000	-0.072	-0.434
-104.962	-68.442	-0.222	-0.086
-103.947	446.424	0.054	-0.118
-102.932	-103.783	0.261	0.061
-101.918	800.000	0.066	0.182
-100.903	-181.853	-0.126	0.002
-99.889	-104.666	0.532	0.121
-98.874	-89.155	-0.049	-0.014
-97.859	190.271	0.066	0.098
-96.845	800.000	0.106	0.301
-95.830	198.582	0.176	0.267
-94.816	-101.118	0.266	-0.064
-93.801	-200.000	0.025	-0.154
-92.786	-75.420	0.092	0.032
-91.772	50.724	-0.031	0.029
-90.757	-200.000	-0.011	-0.141
-89.743	-200.000	0.022	0.159
-88.728	-165.132	0.146	0.006
-87.713	198.406	-0.225	-0.342
-86.699	-57.706	0.158	-0.068
-85.684	-200.000	0.024	0.289
-84.670	-88.745	-0.061	0.018
-83.655	-83.484	0.087	-0.028
-82.640	25.697	0.087	0.072
-81.626	166.737	0.168	0.237
-80.611	-78.249	0.145	-0.049
-79.597	29.384	-0.081	0.069
-78.582	-160.047	-0.333	0.018
-77.567	-81.895	0.278	-0.090
-76.553	800.000	0.098	-0.413
-75.538	800.000	0.024	0.071
-74.524	-75.569	0.273	-0.096
-73.509	786.960	-0.028	-0.077
-72.494	800.000	-0.055	-0.199
-71.480	57.779	0.042	0.040
-70.465	-128.959	-0.151	0.021
-69.451	-127.621	0.107	-0.015
-68.436	-78.041	-0.175	-0.060
-67.422	284.303	0.194	-0.346
-66.407	39.346	0.237	0.210
-65.392	-37.036	0.084	-0.045
-64.378	-56.262	0.175	0.077
-63.363	-157.004	-0.135	0.008
-62.349	-200.000	0.064	-0.334
-61.334	-36.846	-1.200	-0.637
-60.319	56.042	0.542	0.520
-59.305	-200.000	-0.185	-0.996
-58.290	-200.000	0.190	0.870
-57.276	415.540	0.650	1.371
-56.261	-200.000	97.651	555.170
-55.246	590.484	1399.083	3413.427
-54.232	182.314	2633.802	3839.639
-53.217	116.834	2222.525	2698.312
-52.203	44.430	1752.659	1591.985
-51.188	37.242	1562.141	1368.458
-50.173	34.852	1534.372	1327.507
-49.159	53.021	1586.388	1501.319
-48.144	56.371	1604.301	1541.880
-47.130	37.422	1559.608	1367.284
-46.115	34.293	1543.482	1331.269
-45.100	34.218	1540.009	1327.698
-44.086	34.216	1538.105	1325.992
-43.071	34.079	1536.152	1323.304
-42.057	34.086	1534.435	1321.819
-41.042	34.065	1533.482	1320.799
-40.027	34.064	1532.388	1319.796
-39.013	34.217	1530.084	1318.823
-37.998	34.085	1528.980	1316.907
-36.984	33.996	1528.226	1315.589
-35.969	34.118	1526.742	1315.097
-34.954	34.015	1525.545	1313.309
-33.940	33.951	1524.173	1311.629
-32.925	34.085	1522.303	1310.895
-31.911	34.020	1521.632	1309.817
-30.896	34.119	1519.964	1309.010
-29.881	34.136	1518.390	1307.715
-28.867	34.143	1517.581	1307.019
-27.852	34.077	1515.910	1305.076
-26.838	34.054	1514.194	1303.386
-25.823	34.104	1512.290	1302.041
-24.809	34.102	1510.773	1300.670
-23.794	34.085	1509.758	1299.624
-22.779	34.083	1508.451	1298.438
-21.765	34.038	1507.994	1297.682
-20.750	34.057	1505.912	1295.969
-19.736	34.006	1505.248	1295.002
-18.721	34.023	1503.895	1293.902
-17.706	34.093	1502.679	1293.275
-16.692	34.042	1501.549	1291.911
-15.677	34.004	1501.107	1291.217
-14.663	34.009	1499.934	1290.188
-13.648	34.052	1498.612	1289.296
-12.633	34.047	1497.867	1288.571
-11.619	33.979	1497.327	1287.590
-10.604	34.006	1496.383	1286.914
-9.590	34.108	1495.075	1286.427
-8.575	33.963	1494.294	1284.722
-7.560	33.969	1494.034	1284.489
-6.546	34.018	1493.102	1283.971
-5.531	34.019	1492.070	1283.037
-4.517	34.054	1490.800	1282.130
-3.502	33.936	1489.974	1280.572
-2.487	33.936	1489.021	1279.701
-1.473	33.921	1488.193	1278.842
-0.458	33.972	1486.631	1277.790
0.556	32.383	1477.332	1268.670
1.571	29.809	1450.802	1228.705
2.586	26.430	1390.125	1155.662
3.600	25.086	1307.705	1078.963
4.615	23.565	1262.254	1032.526
5.629	19.411	1202.419	960.418
6.644	8.946	1112.400	834.255
7.659	1.229	1069.709	763.447
8.673	0.255	1063.361	753.978
9.688	0.108	1060.468	751.124
10.702	0.010	1058.760	749.363
11.717	-0.003	1056.804	747.846
12.731	3.466	1061.198	768.190
13.746	13.399	1075.838	828.683
14.761	20.448	1085.233	871.330
15.775	21.832	1086.103	878.895
16.790	22.007	1085.471	879.182
17.804	21.878	1084.563	877.720
18.819	21.727	1083.425	875.970
19.834	21.724	1083.288	875.765
20.848	21.824	1082.980	875.935
21.863	21.805	1082.666	875.511
22.877	21.834	1082.092	875.115
23.892	21.832	1081.233	874.334
24.907	21.754	1080.324	873.130
25.921	21.816	1079.695	872.856
26.936	21.848	1078.830	872.238
27.950	21.811	1077.540	870.934
28.965	21.632	1077.121	869.626
29.980	21.614	1075.146	867.866
30.994	21.645	1073.653	866.741
32.009	21.865	1072.901	867.143
33.023	21.858	1072.636	866.817
34.038	21.925	1070.608	865.431
35.053	21.675	1070.424	863.973
36.067	21.777	1070.293	864.295
37.082	21.838	1069.050	863.513
38.096	21.815	1068.058	862.527
39.111	21.883	1067.547	862.368
40.126	22.022	1066.557	862.177
41.140	22.022	1065.447	861.200
42.155	21.870	1063.876	859.114
43.169	21.380	1062.820	855.785
44.184	21.372	1061.368	854.502
45.199	21.463	1060.510	854.180
46.213	21.521	1059.173	853.310
47.228	21.407	1058.451	852.095
48.242	21.562	1057.474	851.990
49.257	21.592	1057.484	852.067
50.271	21.701	1056.212	851.498
51.286	21.836	1055.494	851.501
52.301	21.986	1054.660	851.477
53.315	21.956	1053.758	850.531
54.330	21.865	1053.056	849.449
55.344	21.753	1052.511	848.393
56.359	21.872	1051.181	847.821
57.374	21.782	1050.606	846.843
58.388	21.697	1049.859	845.760
59.403	21.619	1049.112	844.706
60.417	21.552	1048.478	843.796
61.432	21.473	1047.017	842.168
62.447	21.458	1046.240	841.396
63.461	21.733	1045.663	842.180
64.476	21.607	1045.099	841.044
65.490	21.661	1043.349	839.818
66.505	21.531	1042.928	838.783
67.520	21.620	1041.944	838.344
68.534	21.679	1041.330	838.057
69.549	21.574	1040.327	836.677
70.563	21.252	1038.925	833.939
71.578	21.080	1038.322	832.557
72.593	21.014	1037.667	831.645
73.607	21.034	1036.118	830.424
74.622	21.097	1035.273	829.976
75.636	21.246	1034.692	830.144
76.651	21.475	1034.168	830.737
77.666	21.318	1033.003	828.982
78.680	21.254	1032.496	828.198
79.695	21.304	1031.721	827.741
80.709	21.456	1030.988	827.797
81.724	21.477	1030.481	827.419
82.739	21.419	1029.588	826.351
83.753	21.408	1028.057	825.000
84.768	21.698	1027.902	826.172
85.782	22.023	1027.374	827.204
86.797	22.151	1026.487	827.022
87.812	22.083	1025.635	825.937
88.826	21.899	1024.367	823.980
89.841	21.860	1024.088	823.503
90.855	22.064	1022.742	823.302
91.870	22.176	1022.096	823.235
92.884	22.137	1021.006	822.100
93.899	22.014	1020.110	820.732
94.914	21.809	1019.426	819.153
95.928	21.866	1018.844	818.875
96.943	22.066	1018.001	819.058
97.957	21.729	1016.736	816.401
98.972	21.360	1015.564	813.670
99.987	21.341	1014.323	812.515
101.001	21.317	1013.804	811.918
102.016	21.734	1013.240	813.328
103.030	21.752	1012.331	812.610
104.045	21.688	1011.330	811.439
105.060	21.516	1010.182	809.647
106.074	21.500	1008.717	808.330
107.089	21.391	1008.179	807.323
108.103	21.740	1008.193	808.873
109.118	21.904	1006.941	808.556
110.133	21.535	1005.838	805.900
111.147	21.536	1004.492	804.754
112.162	21.349	1003.816	803.279
113.176	21.250	1002.034	801.330
114.191	21.363	1001.188	801.100
115.206	21.548	1000.216	801.100
116.220	21.243	999.298	798.899
117.235	21.145	998.454	797.703
118.249	21.206	997.557	797.196
119.264	21.068	997.419	796.386
120.279	21.096	996.530	795.732
121.293	21.305	994.890	795.305
122.308	21.364	994.636	795.300
123.322	21.325	993.598	794.223
124.337	21.196	992.624	792.787
125.352	21.167	991.408	791.612
126.366	20.795	989.790	788.569
127.381	20.445	988.427	785.829
128.395	20.961	988.520	788.165
129.410	21.606	987.841	790.469
130.424	21.799	986.876	790.497
131.439	21.821	985.521	789.442
132.454	21.645	984.655	787.886
133.468	21.727	983.775	787.479
134.483	21.669	983.186	786.679
135.497	21.627	982.629	785.976
136.512	21.927	981.987	786.735
137.527	22.044	981.105	786.485
138.541	21.939	980.754	785.666
139.556	21.927	979.453	784.499
140.570	21.880	978.727	783.640
141.585	22.057	977.709	783.541
142.600	22.094	977.226	783.254
143.614	21.972	975.896	781.573
144.629	21.950	975.609	781.177
145.643	22.171	975.077	781.666
146.658	22.186	973.479	780.379
147.673	21.858	972.825	778.333
148.687	21.737	971.344	776.540
149.702	21.707	970.398	775.584
150.716	21.674	968.799	774.094
151.731	21.755	968.021	773.761
152.746	21.796	967.330	773.321
153.760	22.004	967.099	773.982
154.775	21.940	966.615	773.247
155.789	22.230	965.341	773.434
156.804	22.207	964.005	772.193
157.819	21.970	963.442	770.633
158.833	22.124	962.553	770.529
159.848	22.026	962.275	769.809
160.862	22.013	961.356	768.949
161.877	22.087	959.816	767.973
162.892	22.032	959.012	767.022
163.906	22.209	958.163	767.046
164.921	22.021	957.983	766.017
165.935	21.974	956.397	764.473
166.950	22.080	955.244	763.948
167.964	21.881	954.330	762.283
168.979	22.071	953.196	762.136
169.994	22.072	951.568	760.771
171.008	21.854	951.289	759.534
172.023	22.168	950.060	759.845
173.037	22.110	949.365	758.972
174.052	21.974	948.412	757.557
175.067	21.761	947.186	755.591
176.081	21.738	946.581	754.942
177.096	22.021	945.795	755.465
178.110	21.854	944.887	753.955
179.125	21.762	943.987	752.776
180.140	21.473	942.664	750.414
181.154	21.360	942.246	749.530
182.169	21.559	941.605	749.808
183.183	21.770	941.325	750.422
184.198	21.952	941.025	750.898
185.213	21.920	940.105	749.957
186.227	21.927	939.405	749.365
187.242	22.104	938.668	749.466
188.256	22.143	938.375	749.332
189.271	21.972	937.450	747.797
190.286	22.163	936.647	747.903
191.300	22.068	935.670	746.654
192.315	21.583	934.453	743.556
193.329	20.845	932.981	739.188
194.344	20.334	931.676	735.926
195.359	21.024	931.866	738.933
196.373	21.738	932.539	742.428
197.388	21.974	932.002	742.932
198.402	21.886	931.622	742.191
199.417	21.824	930.829	741.233
200.432	22.105	929.970	741.670
201.446	21.941	929.123	740.238
202.461	21.515	928.806	738.122
203.475	21.597	928.417	738.092
204.490	21.094	926.790	734.618
205.504	20.041	924.728	728.493
206.519	20.387	924.693	729.856
207.534	21.463	925.124	734.653
208.548	21.641	924.329	734.703
209.563	21.985	924.269	736.034
210.577	21.808	923.930	734.956
211.592	21.619	922.605	733.045
212.607	21.925	922.565	734.231
213.621	22.317	921.608	735.042
214.636	22.191	920.814	733.815
215.650	22.104	920.609	733.227
216.665	22.106	919.655	732.410
217.680	22.054	919.604	732.087
218.694	22.334	918.666	732.440
219.709	21.913	917.605	729.782
220.723	21.540	916.804	727.526
221.738	21.834	916.302	728.285
222.753	22.026	915.668	728.513
223.767	21.924	915.038	727.527
224.782	21.868	914.604	726.887
225.796	22.283	913.636	727.769
226.811	22.276	913.274	727.389
227.826	21.821	911.967	724.403
228.840	20.959	910.700	719.775
229.855	20.865	910.485	719.153
230.869	21.190	910.075	720.104
231.884	20.921	908.725	717.864
232.899	21.071	907.814	717.699
233.913	21.765	908.335	720.904
234.928	21.900	907.811	720.981
235.942	21.983	906.584	720.281
236.957	22.016	906.045	719.925
237.972	21.637	905.351	717.756
238.986	21.603	904.206	716.646
240.001	21.616	904.239	716.660
241.015	21.614	903.203	715.770
242.030	21.538	903.036	715.262
243.045	21.757	902.324	715.528
244.059	21.936	902.048	715.980
245.074	21.983	901.678	715.811
246.088	22.110	900.402	715.254
247.103	21.507	899.767	712.231
248.117	21.736	899.116	712.585
249.132	22.280	898.847	714.521
250.147	22.458	898.969	715.277
251.161	22.488	898.293	714.796
252.176	22.576	898.081	714.922
253.190	22.739	896.751	714.460
254.205	22.778	896.575	714.414
255.220	22.905	896.258	714.612
256.234	22.893	895.640	714.007
257.249	22.924	894.270	712.977
258.263	22.547	894.162	711.306
259.278	22.706	893.359	711.248
260.293	22.751	893.157	711.205
261.307	22.898	892.663	711.339
262.322	22.800	891.429	709.901
263.336	22.756	890.940	709.272
264.351	22.200	889.450	705.788
265.366	21.104	886.939	699.346
266.380	20.782	886.227	697.431
267.395	21.600	887.189	701.404
268.409	22.397	887.079	704.450
269.424	22.446	886.401	704.043
270.439	22.538	886.073	704.087
271.453	22.456	885.624	703.341
272.468	22.640	884.721	703.296
273.482	22.837	884.197	703.601
274.497	22.952	883.541	703.476
275.512	22.833	882.417	702.045
276.526	22.139	880.843	697.976
277.541	22.244	881.027	698.478
278.555	22.643	880.798	699.818
279.570	22.556	880.147	698.892
280.585	22.343	879.543	697.509
281.599	22.294	878.970	696.798
282.614	22.462	878.657	697.153
283.628	21.961	877.163	693.927
284.643	21.899	876.274	692.918
285.657	22.135	876.241	693.762
286.672	22.179	875.294	693.120
287.687	21.488	874.357	689.595
288.701	21.836	874.702	691.178
289.716	22.381	874.040	692.740
290.730	22.066	873.062	690.667
291.745	21.934	872.539	689.674
292.760	21.740	871.219	687.805
293.774	21.696	871.029	687.423
294.789	22.627	871.286	691.216
295.803	23.131	871.303	693.143
296.818	23.188	871.029	693.089
297.833	23.316	870.228	692.892
298.847	23.018	869.185	690.836
299.862	22.694	868.464	688.934
300.876	22.723	867.864	688.513
301.891	23.110	867.428	689.614
302.906	23.185	867.266	689.716
303.920	22.801	865.696	686.913
304.935	22.696	864.906	685.816
305.949	23.175	864.359	687.181
306.964	23.106	864.163	686.699
307.979	22.909	863.422	685.286
308.993	22.986	863.158	685.314
310.008	23.161	863.079	685.868
311.022	23.247	862.461	685.651
312.037	23.077	861.828	684.427
313.052	22.985	860.980	683.336
314.066	22.897	860.115	682.250
315.081	22.122	858.853	678.199
316.095	21.318	857.794	674.203
317.110	21.919	857.810	676.472
318.125	22.982	858.063	680.710
319.139	22.474	856.906	677.778
320.154	21.317	855.409	672.087
321.168	20.792	854.346	669.174
322.183	21.513	854.348	671.886
323.197	22.387	854.918	675.633
324.212	22.667	854.363	676.208
325.227	22.861	854.332	676.864
326.241	23.045	853.624	676.951
327.256	22.730	853.422	675.524
328.270	22.720	852.149	674.420
329.285	22.697	851.522	673.773
330.300	22.672	850.394	672.727
331.314	22.305	850.325	671.212
332.329	22.301	849.415	670.419
333.343	22.810	849.229	672.153
334.358	23.073	849.038	672.944
335.373	22.979	848.660	672.225
336.387	23.077	847.804	671.861
337.402	23.266	847.071	671.940
338.416	23.444	847.074	672.558
339.431	23.312	846.699	671.698
340.446	23.519	845.990	671.860
341.460	23.622	845.665	671.934
342.475	23.566	844.627	670.837
343.489	23.396	843.834	669.504
344.504	23.434	843.416	669.259
345.519	23.680	843.090	669.870
346.533	23.826	842.826	670.151
347.548	23.845	842.384	669.810
348.562	23.760	841.728	668.911
349.577	23.856	841.510	669.040
350.592	23.733	841.101	668.190
351.606	23.696	840.277	667.337
352.621	23.955	839.615	667.725
353.635	23.632	839.352	666.248
354.650	23.742	838.381	665.828
355.665	23.376	837.482	663.684
356.679	22.344	835.809	658.443
357.694	22.114	835.290	657.114
358.708	22.659	835.378	659.165
359.723	22.615	835.171	658.776
360.738	23.071	834.750	660.091
361.752	23.528	834.331	661.405
362.767	23.549	834.062	661.211
363.781	23.792	834.057	662.054
364.796	24.033	833.879	662.750
365.810	24.045	833.281	662.261
366.825	24.145	832.936	662.301
367.840	24.205	832.574	662.177
368.854	23.832	832.167	660.412
369.869	23.606	831.152	658.707
370.883	23.441	830.261	657.332
371.898	23.560	830.214	657.678
372.913	23.348	829.027	655.893
373.927	23.518	828.149	655.771
374.942	23.643	827.652	655.779
375.956	23.576	827.653	655.474
376.971	23.762	826.988	655.576
377.986	23.993	826.274	655.806
379.000	24.046	826.074	655.784
380.015	24.170	825.235	655.514
381.029	23.918	824.792	654.178
382.044	23.967	824.076	653.733
383.059	24.131	823.975	654.197
384.073	24.137	823.206	653.549
385.088	24.171	822.646	653.172
386.102	24.044	822.181	652.281
387.117	23.990	821.627	651.585
388.132	23.662	821.469	650.202
389.146	23.788	820.237	649.630
390.161	23.108	819.267	646.320
391.175	23.189	819.000	646.349
392.190	23.716	819.089	648.287
393.205	23.858	818.239	648.071
394.219	22.942	816.438	643.256
395.234	21.340	814.039	635.490
396.248	20.461	813.375	631.717
397.263	21.635	814.223	636.593
398.278	23.348	815.786	643.990
399.292	23.872	815.453	645.573
400.307	23.559	814.690	643.777
401.321	23.454	814.269	643.006
402.336	23.364	814.333	642.675
403.350	23.673	813.918	643.411
404.365	24.132	813.802	644.923
405.380	24.438	813.554	645.776
406.394	24.789	813.238	646.737
407.409	24.837	813.091	646.737
408.423	24.780	812.539	646.036
409.438	24.725	811.569	645.010
410.453	24.733	811.533	644.953
411.467	24.812	810.980	644.740
412.482	24.722	810.665	644.110
413.496	24.758	809.852	643.534
414.511	24.930	809.606	643.900
415.526	24.794	809.166	643.004
416.540	24.847	808.821	642.866
417.555	24.729	808.330	641.994
418.569	24.450	807.628	640.378
419.584	24.512	806.701	639.811
420.599	24.561	806.509	639.777
421.613	153.736	1364.728	1792.542
422.628	133.535	1446.062	1792.650
