DTS Sentinel unit serial number:	SN413079Multiplexer serial number:	ORYXHardware model number:	OX4-SRSoftware version number:	ORYX F/W v4.00 Oryx Data Collector v3.7.2.0data status	okinstallation	princeton_trtdifferential loss correction	single-endedforward channel	channel 3reverse channel	N/Adate	2019/09/10time	16:18:11forward acquisition time	60.00reverse acquisition time	0.00gamma	496.2192k internal	0.2298k external	0.2298temperature offset calibration	0.9907default loss term (dB/km)	0.3790temperature slope calibration	1.0000multiplexer offset coefficient	1.0000multiplexer slope coefficient	1.0000fibre end	0.00T internal ref (°C)	38.25T ext. ref 1 (°C)	-0.28T ext. ref 2 (°C)	30.85length (m)	temperature (°C)	Stokes	anti-Stokes-747.200	-112.195	0.192	0.039
-746.185	191.823	-0.162	0.249
-745.171	-200.000	-0.000	0.192
-744.156	67.694	0.143	0.149
-743.142	-200.000	0.003	0.071
-742.127	6.526	-0.175	0.133
-741.112	188.806	0.119	-0.182
-740.098	54.055	-0.125	0.122
-739.083	-200.000	0.002	0.286
-738.069	800.000	-0.086	0.252
-737.054	800.000	-0.084	0.308
-736.039	181.753	-0.118	0.177
-735.025	-124.163	0.216	-0.035
-734.010	-200.000	-0.025	-0.187
-732.996	-200.000	0.029	-0.632
-731.981	312.040	-0.179	-0.343
-730.966	545.081	-0.098	0.238
-729.952	-62.335	-0.215	-0.091
-728.937	68.332	-0.207	-0.217
-727.923	91.056	0.246	0.282
-726.908	800.000	-0.119	-0.352
-725.894	190.322	-0.170	-0.260
-724.879	-134.391	-0.132	-0.016
-723.864	203.002	-0.093	-0.146
-722.850	-54.647	0.137	-0.063
-721.835	800.000	-0.067	-0.190
-720.821	127.666	0.099	0.129
-719.806	-101.662	-0.035	-0.009
-718.791	366.766	-0.123	0.254
-717.777	-53.841	0.251	-0.117
-716.762	-200.000	-0.103	-0.573
-715.748	-61.265	0.067	-0.029
-714.733	237.491	-0.165	0.279
-713.718	-53.537	0.116	0.054
-712.704	73.222	0.190	0.203
-711.689	800.000	-0.045	-0.167
-710.675	-200.000	0.054	-0.294
-709.660	38.383	0.174	-0.158
-708.645	-78.336	0.104	0.036
-707.631	-108.042	0.301	-0.067
-706.616	474.150	-0.133	0.305
-705.602	-139.273	-0.096	-0.011
-704.587	0.625	-0.159	-0.116
-703.572	436.722	0.168	0.373
-702.558	-125.513	-0.407	0.063
-701.543	200.661	0.125	0.196
-700.529	-200.000	0.040	-0.195
-699.514	-52.849	-0.203	0.095
-698.499	123.445	-0.048	-0.062
-697.485	31.870	0.213	-0.187
-696.470	23.591	-0.236	-0.198
-695.456	141.181	-0.116	-0.157
-694.441	121.556	0.210	-0.266
-693.426	800.000	0.028	0.117
-692.412	-120.758	-0.417	0.072
-691.397	-26.547	-0.017	0.010
-690.383	-96.306	-0.119	0.032
-689.368	-200.000	-0.005	0.153
-688.354	-188.336	-0.164	-0.002
-687.339	-101.269	0.166	0.041
-686.324	109.138	0.187	-0.228
-685.310	-47.645	-0.238	0.118
-684.295	800.000	0.045	-0.185
-683.281	-200.000	-0.027	-0.246
-682.266	279.823	0.034	-0.062
-681.251	-200.000	-0.001	-0.119
-680.237	-58.615	-0.160	0.071
-679.222	-200.000	-0.002	-0.130
-678.208	-6.735	0.111	0.077
-677.193	-43.867	0.161	-0.082
-676.178	800.000	-0.020	-0.078
-675.164	283.962	-0.112	-0.205
-674.149	296.383	0.167	-0.312
-673.135	800.000	0.008	-0.031
-672.120	-200.000	-0.040	-0.311
-671.105	800.000	0.071	-0.232
-670.091	96.804	0.163	-0.190
-669.076	-148.146	0.129	-0.011
-668.062	-200.000	0.036	-0.173
-667.047	31.147	0.129	-0.113
-666.032	243.062	0.118	-0.201
-665.018	13.142	-0.186	-0.147
-664.003	38.916	-0.295	-0.268
-662.989	-200.000	0.027	0.212
-661.974	52.782	0.151	-0.147
-660.959	63.132	-0.288	-0.294
-659.945	-38.872	-0.210	-0.113
-658.930	-48.347	0.201	-0.099
-657.916	377.895	-0.143	-0.298
-656.901	-200.000	-0.029	-0.270
-655.886	-200.000	0.306	0.001
-654.872	601.066	0.106	-0.268
-653.857	508.949	0.102	-0.241
-652.843	96.630	0.064	0.074
-651.828	177.618	-0.152	-0.225
-650.814	-106.387	0.059	-0.013
-649.799	-200.000	-0.001	-0.157
-648.784	652.645	0.100	-0.260
-647.770	152.297	-0.054	-0.075
-646.755	-200.000	0.023	0.344
-645.741	-19.688	-0.073	-0.046
-644.726	-68.310	0.115	-0.045
-643.711	-101.324	-0.170	0.042
-642.697	800.000	-0.047	-0.161
-641.682	-111.982	0.137	-0.028
-640.668	-63.190	-0.137	0.058
-639.653	33.236	-0.237	-0.209
-638.638	-105.195	0.376	0.087
-637.624	800.000	-0.061	-0.224
-636.609	-200.000	-0.021	0.168
-635.595	119.709	-0.057	0.072
-634.580	-126.324	-0.304	-0.046
-633.565	294.733	-0.045	0.084
-632.551	-2.050	-0.146	-0.104
-631.536	20.369	0.126	0.104
-630.522	87.547	0.052	0.058
-629.507	138.986	-0.075	0.100
-628.492	-113.551	-0.230	0.046
-627.478	-34.216	0.370	-0.206
-626.463	83.806	-0.162	-0.179
-625.449	183.461	-0.110	-0.165
-624.434	800.000	-0.137	-0.398
-623.419	-200.000	-0.004	-0.021
-622.405	156.733	-0.257	-0.360
-621.390	-199.883	-0.093	-0.000
-620.376	-34.240	-0.133	-0.074
-619.361	-40.728	0.165	-0.087
-618.346	-121.597	-0.283	0.048
-617.332	-200.000	0.059	0.366
-616.317	215.722	-0.075	0.121
-615.303	281.375	0.228	-0.415
-614.288	-3.252	-0.101	0.071
-613.273	503.548	-0.056	0.132
-612.259	175.790	-0.102	-0.150
-611.244	800.000	0.111	0.419
-610.230	580.584	0.117	-0.292
-609.215	-162.909	0.054	0.003
-608.201	800.000	0.060	0.213
-607.186	239.118	0.134	-0.226
-606.171	45.949	0.109	-0.102
-605.157	-139.905	0.196	0.021
-604.142	14.810	0.033	0.027
-603.128	166.011	0.055	0.078
-602.113	412.936	-0.111	-0.239
-601.098	-200.000	-0.013	-0.106
-600.084	-69.263	0.118	-0.046
-599.069	32.119	-0.346	-0.303
-598.055	10.121	0.226	0.174
-597.040	-200.000	-0.007	0.347
-596.025	-119.712	-0.213	-0.037
-595.011	800.000	0.060	-0.210
-593.996	-51.236	-0.265	-0.126
-592.982	-131.962	0.168	-0.022
-591.967	-96.031	0.142	0.038
-590.952	-73.009	-0.268	-0.100
-589.938	208.808	-0.166	-0.263
-588.923	800.000	-0.039	-0.146
-587.909	78.652	0.097	-0.106
-586.894	206.679	-0.081	0.128
-585.879	218.338	-0.136	-0.220
-584.865	301.961	-0.205	-0.384
-583.850	327.223	-0.097	0.189
-582.836	-60.046	-0.283	0.122
-581.821	491.852	0.180	-0.417
-580.806	-14.650	-0.350	0.228
-579.792	328.856	-0.047	0.091
-578.777	3.812	-0.069	-0.051
-577.763	218.564	0.276	-0.447
-576.748	162.371	0.077	-0.109
-575.733	13.997	-0.037	0.029
-574.719	-78.287	0.446	0.155
-573.704	-103.618	-0.168	0.040
-572.690	-29.801	0.239	-0.138
-571.675	-136.128	0.283	0.034
-570.661	2.870	0.017	-0.012
-569.646	167.283	-0.125	0.180
-568.631	44.611	-0.312	0.290
-567.617	-13.197	-0.217	-0.143
-566.602	107.992	0.072	-0.087
-565.588	800.000	-0.117	0.346
-564.573	197.963	-0.035	-0.055
-563.558	101.448	-0.026	0.030
-562.544	-146.960	0.091	-0.008
-561.529	-71.176	-0.171	-0.065
-560.515	31.632	-0.201	0.175
-559.500	-200.000	-0.033	-0.261
-558.485	24.902	0.131	-0.110
-557.471	294.639	0.096	0.177
-556.456	369.697	0.091	0.187
-555.442	-149.592	-0.372	0.030
-554.427	-80.623	-0.246	-0.083
-553.412	46.024	-0.116	0.109
-552.398	121.524	0.107	0.135
-551.383	339.407	-0.210	-0.415
-550.369	63.278	-0.190	0.193
-549.354	-169.157	0.482	-0.018
-548.339	191.490	0.050	-0.077
-547.325	-200.000	-0.046	0.282
-546.310	78.790	-0.137	-0.148
-545.296	140.904	-0.088	0.117
-544.281	498.286	0.036	0.084
-543.266	800.000	-0.067	0.206
-542.252	-54.627	-0.230	0.106
-541.237	800.000	0.050	0.178
-540.223	121.364	-0.050	0.064
-539.208	-161.735	0.299	-0.015
-538.193	-200.000	-0.005	0.025
-537.179	-91.419	-0.504	0.146
-536.164	438.854	0.203	-0.449
-535.150	6.296	0.340	-0.256
-534.135	-12.114	-0.122	0.081
-533.121	-59.408	-0.153	0.067
-532.106	-0.364	-0.161	-0.116
-531.091	116.965	0.211	0.263
-530.077	107.974	-0.039	0.047
-529.062	172.720	-0.218	-0.318
-528.048	800.000	-0.062	0.244
-527.033	448.532	-0.163	-0.363
-526.018	397.138	0.099	0.209
-525.004	6.562	0.386	0.291
-523.989	40.520	0.132	-0.120
-522.975	-17.508	-0.452	-0.288
-521.960	-11.284	-0.139	-0.092
-520.945	-200.000	-0.008	0.138
-519.931	-42.505	0.158	-0.081
-518.916	-200.000	-0.018	0.103
-517.902	-151.018	0.312	-0.024
-516.887	-105.233	-0.166	0.038
-515.872	800.000	-0.085	0.343
-514.858	800.000	-0.041	0.141
-513.843	85.363	-0.199	-0.221
-512.829	-129.403	-0.047	-0.007
-511.814	443.160	-0.102	0.227
-510.799	-153.097	0.461	-0.033
-509.785	800.000	0.031	0.121
-508.770	35.292	0.221	-0.196
-507.756	800.000	-0.208	0.583
-506.741	-169.337	-0.375	0.014
-505.726	-139.769	-0.185	-0.020
-504.712	-115.751	0.224	-0.042
-503.697	128.751	0.266	-0.343
-502.683	-101.944	-0.315	-0.077
-501.668	36.118	0.161	0.144
-500.653	91.531	0.250	-0.284
-499.639	-200.000	-0.012	-0.084
-498.624	-200.000	0.051	-0.270
-497.610	800.000	-0.079	-0.232
-496.595	318.808	-0.202	0.387
-495.581	-163.126	-0.015	0.001
-494.566	-58.538	-0.185	0.081
-493.551	-152.867	0.541	-0.039
-492.537	-8.396	-0.293	-0.199
-491.522	26.812	0.248	0.210
-490.508	16.585	-0.127	-0.102
-489.493	-200.000	0.021	0.146
-488.478	0.836	-0.253	-0.183
-487.464	-46.368	0.198	0.098
-486.449	-124.456	-0.115	-0.018
-485.435	188.843	-0.205	-0.310
-484.420	-128.310	0.313	0.045
-483.405	-200.000	0.027	-0.200
-482.391	800.000	0.014	0.047
-481.376	36.561	-0.472	-0.421
-480.362	-200.000	-0.015	0.270
-479.347	-53.333	-0.065	0.030
-478.332	-200.000	-0.003	-0.244
-477.318	-61.764	0.225	0.095
-476.303	-12.970	0.266	0.175
-475.289	-200.000	0.018	0.097
-474.274	60.681	-0.218	0.218
-473.259	-21.541	0.171	-0.105
-472.245	57.378	0.058	0.057
-471.230	-87.532	-0.374	-0.114
-470.216	8.912	0.130	0.099
-469.201	293.346	-0.109	0.200
-468.186	-86.743	0.243	0.075
-467.172	44.500	-0.388	0.360
-466.157	-16.238	-0.165	-0.106
-465.143	-100.053	0.207	0.052
-464.128	-200.000	-0.031	-0.217
-463.113	-97.818	0.046	-0.012
-462.099	-26.492	0.280	-0.166
-461.084	-26.900	0.172	0.101
-460.070	-200.000	0.034	0.199
-459.055	-84.207	0.180	0.058
-458.040	-200.000	-0.037	-0.184
-457.026	278.767	0.113	0.203
-456.011	82.545	-0.072	0.079
-454.997	34.915	-0.100	-0.088
-453.982	96.952	0.352	-0.407
-452.968	-200.000	0.005	0.160
-451.953	133.724	-0.255	0.333
-450.938	-200.000	-0.021	0.186
-449.924	-93.235	0.462	-0.130
-448.909	244.160	0.125	-0.212
-447.895	-28.109	0.332	0.194
-446.880	234.015	-0.065	0.108
-445.865	-60.356	0.196	0.084
-444.851	800.000	0.056	-0.212
-443.836	95.586	0.056	-0.064
-442.822	-200.000	-0.015	-0.202
-441.807	-28.232	0.163	0.095
-440.792	-169.792	-0.281	0.010
-439.778	-200.000	-0.045	-0.215
-438.763	-200.000	0.052	-0.370
-437.749	-77.717	0.343	-0.120
-436.734	-200.000	-0.010	-0.098
-435.719	296.297	0.061	-0.112
-434.705	78.894	0.242	-0.261
-433.690	800.000	0.056	0.198
-432.676	-100.682	0.329	-0.082
-431.661	-114.731	0.025	-0.005
-430.646	-200.000	-0.011	-0.085
-429.632	-200.000	0.001	-0.277
-428.617	-72.378	-0.226	0.084
-427.603	-182.227	0.181	0.003
-426.588	-125.710	-0.231	-0.035
-425.573	26.961	0.105	-0.089
-424.559	-171.152	0.375	-0.013
-423.544	160.268	-0.141	0.198
-422.530	-30.551	-0.215	-0.123
-421.515	-200.000	-0.018	0.238
-420.500	-18.947	0.390	0.244
-419.486	764.735	-0.143	-0.391
-418.471	47.450	0.139	-0.131
-417.457	-132.156	-0.161	0.021
-416.442	17.055	-0.250	-0.200
-415.428	-28.650	-0.104	-0.060
-414.413	-128.473	-0.104	0.015
-413.398	800.000	0.069	-0.206
-412.384	-63.959	0.095	0.039
-411.369	-200.000	0.014	-0.084
-410.355	137.631	0.268	0.354
-409.340	60.112	0.160	0.159
-408.325	306.434	0.074	0.138
-407.311	-200.000	-0.045	-0.383
-406.296	-118.298	-0.149	0.027
-405.282	121.489	-0.136	0.170
-404.267	-100.113	0.058	0.015
-403.252	-124.626	0.042	0.007
-402.238	-200.000	0.007	-0.084
-401.223	745.868	-0.116	0.313
-400.209	-94.119	-0.200	0.055
-399.194	782.458	-0.023	-0.064
-398.179	216.367	0.071	-0.113
-397.165	-9.954	0.037	-0.025
-396.150	123.141	-0.191	0.241
-395.136	-81.943	-0.069	0.023
-394.121	175.863	0.148	-0.216
-393.106	800.000	-0.045	-0.152
-392.092	-119.897	-0.268	-0.046
-391.077	-59.304	0.067	-0.029
-390.063	365.494	0.178	0.362
-389.048	800.000	0.041	0.158
-388.033	800.000	-0.081	-0.229
-387.019	800.000	0.071	0.248
-386.004	119.226	-0.074	0.092
-384.990	800.000	-0.060	0.175
-383.975	-25.140	-0.130	-0.077
-382.960	-200.000	-0.010	0.222
-381.946	-200.000	0.019	-0.160
-380.931	-57.542	-0.185	-0.082
-379.917	176.749	-0.171	0.250
-378.902	236.556	0.174	0.289
-377.888	378.180	-0.057	-0.117
-376.873	-200.000	0.015	0.102
-375.858	-84.766	-0.485	0.153
-374.844	150.195	-0.098	0.134
-373.829	1.376	0.142	0.103
-372.815	-96.036	-0.247	0.066
-371.800	-200.000	-0.004	0.107
-370.785	-200.000	0.014	0.071
-369.771	800.000	-0.050	0.138
-368.756	-200.000	-0.019	0.112
-367.742	14.427	-0.168	-0.132
-366.727	-189.400	0.151	0.002
-365.712	-90.884	-0.299	-0.086
-364.698	-200.000	0.068	-0.322
-363.683	-113.071	0.181	0.036
-362.669	31.869	0.372	0.323
-361.654	-77.185	-0.297	0.104
-360.639	-79.714	0.113	0.038
-359.625	-200.000	-0.069	0.412
-358.610	121.619	-0.173	0.217
-357.596	74.227	0.066	0.070
-356.581	-37.129	-0.123	-0.066
-355.566	290.339	-0.113	-0.207
-354.552	-101.361	-0.203	-0.050
-353.537	50.736	-0.267	-0.254
-352.523	-10.678	0.118	0.078
-351.508	-200.000	0.045	0.294
-350.493	800.000	0.049	-0.144
-349.479	272.749	0.140	0.248
-348.464	-200.000	-0.000	0.204
-347.450	-200.000	-0.010	-0.055
-346.435	9.820	0.250	-0.191
-345.420	-200.000	-0.035	0.165
-344.406	98.303	-0.190	0.220
-343.391	48.201	0.343	-0.322
-342.377	-116.207	0.051	-0.009
-341.362	708.197	0.132	-0.352
-340.348	-77.414	0.075	-0.026
-339.333	301.382	-0.080	-0.149
-338.318	-200.000	0.038	0.282
-337.304	-19.747	0.175	0.109
-336.289	-20.399	0.339	0.210
-335.275	800.000	-0.075	0.312
-334.260	36.967	0.180	-0.160
-333.245	-175.409	0.318	0.009
-332.231	-138.708	0.540	-0.059
-331.216	-83.048	-0.294	-0.095
-330.202	1.673	0.188	0.136
-329.187	-87.986	-0.079	0.024
-328.172	-34.796	0.028	-0.016
-327.158	251.612	0.133	-0.227
-326.143	-15.011	-0.108	0.069
-325.129	44.625	0.105	0.097
-324.114	-200.000	-0.022	0.292
-323.099	-18.248	-0.103	-0.065
-322.085	-138.673	-0.306	-0.034
-321.070	-74.662	0.213	0.077
-320.056	-182.355	-0.239	-0.004
-319.041	147.655	0.154	-0.209
-318.026	-25.660	-0.441	-0.261
-317.012	456.141	-0.097	-0.215
-315.997	137.720	-0.066	-0.087
-314.983	-83.517	0.333	-0.107
-313.968	800.000	0.010	0.029
-312.953	-200.000	0.019	-0.098
-311.939	800.000	-0.077	-0.237
-310.924	-47.596	-0.242	-0.118
-309.910	582.108	0.231	0.569
-308.895	-200.000	-0.036	-0.204
-307.880	198.000	-0.271	0.416
-306.866	-82.169	0.092	0.030
-305.851	-200.000	0.000	-0.164
-304.837	27.188	-0.253	-0.213
-303.822	-84.944	0.411	-0.129
-302.807	-117.325	0.076	0.014
-301.793	-200.000	-0.012	-0.234
-300.778	496.769	-0.088	-0.203
-299.764	800.000	-0.105	-0.304
-298.749	-75.905	0.130	0.046
-297.735	-200.000	0.320	0.001
-296.720	28.560	0.140	-0.119
-295.705	-116.817	0.333	0.061
-294.691	-35.394	0.210	0.114
-293.676	114.464	0.194	0.238
-292.662	356.191	-0.098	-0.195
-291.647	-114.745	0.080	0.015
-290.632	-200.000	-0.003	-0.104
-289.618	-62.765	-0.223	-0.093
-288.603	-200.000	0.047	0.347
-287.589	191.732	-0.207	-0.313
-286.574	-159.997	-0.092	0.005
-285.559	-125.117	0.322	0.050
-284.545	-130.132	0.373	-0.051
-283.530	-168.654	-0.160	0.006
-282.516	-112.603	-0.087	0.017
-281.501	57.605	0.150	0.147
-280.486	75.878	0.210	0.223
-279.472	-56.045	-0.112	0.050
-278.457	-200.000	-0.019	0.325
-277.443	-70.792	-0.163	-0.062
-276.428	205.072	-0.229	0.357
-275.413	-60.074	0.179	-0.077
-274.399	324.025	-0.034	-0.064
-273.384	-41.716	-0.094	0.048
-272.370	-42.910	0.064	0.033
-271.355	223.625	-0.116	-0.188
-270.340	-200.000	-0.085	-0.445
-269.326	-200.000	0.061	-0.276
-268.311	66.006	0.025	0.026
-267.297	-200.000	-0.050	-0.402
-266.282	-200.000	0.016	-0.240
-265.267	-67.356	0.055	-0.022
-264.253	-57.693	-0.257	0.113
-263.238	46.367	-0.341	0.316
-262.224	-102.466	-0.031	0.008
-261.209	800.000	0.026	0.094
-260.195	483.573	-0.015	-0.033
-259.180	-88.653	0.213	0.064
-258.165	-200.000	0.001	0.160
-257.151	-36.117	-0.367	0.199
-256.136	223.331	0.169	0.273
-255.122	-200.000	-0.060	-0.405
-254.107	-7.244	-0.295	-0.200
-253.092	170.189	0.062	0.089
-252.078	170.588	-0.115	0.165
-251.063	-200.000	-0.061	0.355
-250.049	0.114	-0.313	-0.223
-249.034	-200.000	-0.027	-0.281
-248.019	25.573	0.123	0.102
-247.005	-31.506	-0.163	-0.092
-245.990	800.000	0.090	0.272
-244.976	729.104	0.065	-0.175
-243.961	-66.002	-0.076	0.031
-242.946	-56.976	0.156	0.069
-241.932	-123.301	0.164	-0.026
-240.917	238.390	0.047	0.079
-239.903	800.000	0.054	-0.222
-238.888	800.000	-0.095	0.332
-237.873	411.135	-0.088	-0.187
-236.859	800.000	-0.087	0.293
-235.844	14.381	-0.282	0.220
-234.830	-200.000	-0.015	-0.098
-233.815	186.727	-0.040	0.060
-232.800	-200.000	0.001	0.058
-231.786	376.038	0.154	0.315
-230.771	580.389	-0.091	0.222
-229.757	-10.867	0.151	0.100
-228.742	97.194	0.038	-0.043
-227.727	48.155	-0.172	-0.161
-226.713	-122.940	-0.092	0.015
-225.698	-200.000	0.031	0.305
-224.684	-47.015	-0.182	0.089
-223.669	-29.686	-0.216	-0.123
-222.655	513.202	0.206	-0.481
-221.640	-80.489	-0.146	0.049
-220.625	-53.164	0.221	0.101
-219.611	-200.000	0.043	0.459
-218.596	-118.919	0.052	-0.009
-217.582	800.000	0.125	-0.378
-216.567	-136.391	0.204	-0.024
-215.552	-200.000	0.004	0.091
-214.538	-12.370	-0.168	-0.109
-213.523	-56.459	-0.302	-0.134
-212.509	229.740	-0.047	0.077
-211.494	-177.234	-0.340	0.008
-210.479	27.393	-0.204	-0.171
-209.465	-121.737	0.265	0.044
-208.450	-130.665	0.371	-0.050
-207.436	55.114	0.160	-0.155
-206.421	-200.000	0.031	0.225
-205.406	-120.955	-0.056	-0.009
-204.392	167.139	-0.256	-0.363
-203.377	800.000	-0.061	-0.182
-202.363	114.835	0.165	-0.201
-201.348	166.428	-0.141	-0.199
-200.333	378.830	0.125	-0.256
-199.319	-151.870	0.203	-0.015
-198.304	16.434	0.183	0.144
-197.290	-200.000	-0.016	0.076
-196.275	-200.000	-0.077	0.407
-195.260	106.398	-0.206	0.244
-194.246	309.633	0.151	0.281
-193.231	-135.125	0.479	0.058
-192.217	45.970	0.213	0.197
-191.202	-53.240	-0.040	0.018
-190.187	82.638	0.210	-0.228
-189.173	800.000	-0.039	-0.148
-188.158	800.000	-0.114	0.490
-187.144	-60.541	-0.022	-0.009
-186.129	598.094	-0.015	0.038
-185.114	-120.212	-0.302	0.052
-184.100	131.025	0.126	0.161
-183.085	316.469	0.125	-0.235
-182.071	-131.748	-0.250	-0.033
-181.056	-109.233	-0.189	0.040
-180.042	-163.180	-0.123	0.006
-179.027	800.000	0.085	0.278
-178.012	267.325	-0.100	0.175
-176.998	800.000	-0.106	0.330
-175.983	800.000	-0.025	-0.076
-174.969	-54.260	0.126	0.057
-173.954	323.755	0.077	-0.148
-172.939	-200.000	0.062	0.296
-171.925	-6.400	0.180	0.123
-170.910	-14.489	0.195	-0.125
-169.896	-200.000	0.002	0.134
-168.881	-31.588	0.145	0.081
-167.866	195.303	-0.163	-0.247
-166.852	606.046	-0.081	-0.201
-165.837	-117.340	-0.293	0.053
-164.823	-11.735	0.126	-0.083
-163.808	-130.220	0.399	0.054
-162.793	332.850	0.141	-0.272
-161.779	-118.288	0.145	0.026
-160.764	-158.742	0.410	-0.023
-159.750	-200.000	0.055	-0.248
-158.735	-69.632	0.248	-0.095
-157.720	458.867	-0.170	0.377
-156.706	-200.000	0.050	0.272
-155.691	168.130	-0.201	-0.285
-154.677	-87.758	0.213	-0.064
-153.662	-88.849	-0.070	0.021
-152.647	-93.832	0.303	-0.083
-151.633	-200.000	-0.009	0.289
-150.618	793.663	0.093	0.255
-149.604	-185.280	0.115	0.002
-148.589	99.543	0.142	0.164
-147.574	17.986	-0.081	0.064
-146.560	-51.238	0.257	0.120
-145.545	29.394	0.162	0.137
-144.531	800.000	0.089	0.298
-143.516	8.753	-0.241	0.181
-142.502	-10.569	0.177	0.117
-141.487	49.665	0.115	-0.108
-140.472	-53.615	-0.231	0.105
-139.458	133.054	0.206	0.265
-138.443	744.088	0.087	0.233
-137.429	19.704	-0.159	0.127
-136.414	-46.213	0.306	0.150
-135.399	-31.322	-0.339	-0.190
-134.385	-155.204	0.176	-0.011
-133.370	-14.978	-0.280	0.179
-132.356	800.000	0.040	0.129
-131.341	-200.000	-0.014	0.247
-130.326	-200.000	0.014	-0.119
-129.312	148.575	0.163	0.219
-128.297	-141.290	0.170	0.017
-127.283	234.466	0.146	-0.239
-126.268	182.675	0.098	-0.143
-125.253	-200.000	0.038	-0.179
-124.239	-42.150	-0.199	-0.102
-123.224	800.000	-0.101	0.376
-122.210	-200.000	-0.055	-0.382
-121.195	-100.719	0.171	0.042
-120.180	-20.548	-0.224	0.137
-119.166	-132.022	-0.165	-0.021
-118.151	-86.391	-0.148	-0.045
-117.137	-164.729	-0.221	0.010
-116.122	161.970	-0.065	0.090
-115.107	144.047	0.126	0.167
-114.093	-92.591	0.092	0.026
-113.078	57.882	-0.324	0.316
-112.064	7.286	0.101	-0.075
-111.049	8.946	-0.277	0.208
-110.034	10.333	-0.201	0.152
-109.020	8.413	-0.027	0.020
-108.005	-119.989	-0.217	0.037
-106.991	800.000	0.095	0.383
-105.976	19.116	-0.125	0.099
-104.962	444.706	0.172	-0.377
-103.947	366.032	-0.106	0.212
-102.932	800.000	-0.056	-0.156
-101.918	-85.378	0.400	-0.124
-100.903	-109.214	0.221	-0.047
-99.889	-121.818	-0.112	-0.018
-98.874	176.257	-0.068	-0.098
-97.859	-33.864	-0.084	0.046
-96.845	-153.414	0.152	-0.011
-95.830	-200.000	0.012	-0.094
-94.816	800.000	-0.062	0.267
-93.801	278.632	-0.153	-0.272
-92.786	-31.929	0.120	0.067
-91.772	16.565	-0.167	0.131
-90.757	-117.749	0.399	-0.071
-89.743	-89.281	0.058	0.017
-88.728	98.672	-0.238	0.274
-87.713	-120.678	-0.141	-0.024
-86.699	287.183	0.166	-0.298
-85.684	-37.006	0.050	-0.027
-84.670	-200.000	-0.007	-0.113
-83.655	421.378	-0.140	0.299
-82.640	-200.000	-0.205	-0.000
-81.626	82.282	-0.010	-0.011
-80.611	-127.482	-0.054	0.008
-79.597	800.000	-0.057	0.247
-78.582	147.817	0.050	-0.067
-77.567	800.000	0.088	0.289
-76.553	151.225	0.211	0.286
-75.538	495.332	-0.156	-0.355
-74.524	-6.321	-0.256	-0.174
-73.509	-98.572	0.318	-0.081
-72.494	-30.337	-0.098	0.055
-71.480	-60.986	-0.270	-0.113
-70.465	-108.969	0.099	0.021
-69.451	-112.685	0.130	0.026
-68.436	242.044	-0.069	-0.115
-67.422	237.994	-0.136	-0.224
-66.407	-96.343	0.098	-0.026
-65.392	800.000	0.127	-0.405
-64.378	-200.000	-0.024	0.286
-63.363	-200.000	0.034	0.197
-62.349	-200.000	-0.012	0.084
-61.334	-22.274	-0.890	-0.536
-60.319	53.928	0.229	0.219
-59.305	800.000	-0.244	-0.912
-58.290	87.173	0.624	0.686
-57.276	800.000	0.429	1.431
-56.261	-200.000	83.545	505.844
-55.246	553.947	1385.059	3309.409
-54.232	177.730	2638.696	3821.591
-53.217	119.430	2294.636	2822.098
-52.203	48.200	1821.259	1692.521
-51.188	41.233	1626.152	1460.310
-50.173	38.849	1597.769	1417.560
-49.159	54.969	1638.540	1571.815
-48.144	59.097	1658.268	1620.848
-47.130	41.822	1619.570	1458.466
-46.115	38.564	1605.366	1422.006
-45.100	38.353	1602.454	1417.837
-44.086	38.253	1600.734	1415.542
-43.071	38.231	1598.405	1413.263
-42.057	38.205	1596.728	1411.540
-41.042	38.145	1595.458	1409.923
-40.027	38.274	1593.577	1409.136
-39.013	38.198	1591.490	1406.685
-37.998	38.283	1590.019	1405.945
-36.984	38.198	1589.245	1404.595
-35.969	38.281	1588.054	1404.078
-34.954	38.173	1586.538	1401.906
-33.940	38.266	1584.613	1400.818
-32.925	38.289	1583.289	1399.757
-31.911	38.232	1582.263	1398.387
-30.896	38.297	1580.611	1397.339
-29.881	38.389	1579.283	1396.762
-28.867	38.359	1577.908	1395.277
-27.852	38.240	1576.711	1393.318
-26.838	38.297	1575.317	1392.438
-25.823	38.316	1573.177	1390.624
-24.809	38.347	1571.522	1389.323
-23.794	38.217	1570.681	1387.606
-22.779	38.316	1569.178	1386.924
-21.765	38.278	1567.900	1385.470
-20.750	38.279	1566.888	1384.528
-19.736	38.344	1565.326	1383.552
-18.721	38.283	1564.246	1382.110
-17.706	38.326	1562.888	1381.164
-16.692	38.267	1561.966	1379.871
-15.677	38.233	1560.738	1378.496
-14.663	38.243	1559.896	1377.767
-13.648	38.139	1559.001	1376.188
-12.633	38.168	1557.904	1375.373
-11.619	38.213	1556.701	1374.571
-10.604	38.197	1555.970	1373.760
-9.590	38.266	1554.755	1373.116
-8.575	38.253	1554.133	1372.417
-7.560	38.268	1552.940	1371.420
-6.546	38.145	1552.506	1370.117
-5.531	38.154	1551.690	1369.408
-4.517	38.135	1550.691	1368.338
-3.502	38.181	1549.403	1367.465
-2.487	38.225	1547.969	1366.456
-1.473	38.222	1547.097	1365.608
-0.458	38.178	1545.646	1363.968
0.556	35.809	1535.487	1353.083
1.571	32.806	1506.695	1306.828
2.586	28.847	1439.062	1221.800
3.600	26.790	1351.310	1134.341
4.615	25.376	1303.107	1085.243
5.629	22.423	1245.666	1020.231
6.644	11.854	1152.276	886.697
7.659	1.889	1102.609	796.540
8.673	-0.080	1095.839	781.347
9.688	-0.292	1092.703	777.944
10.702	-0.431	1091.200	776.084
11.717	-0.317	1089.532	775.418
12.731	4.078	1095.808	802.628
13.746	14.240	1110.787	866.679
14.761	17.959	1114.190	888.647
15.775	15.110	1108.916	869.586
16.790	13.783	1106.042	860.381
17.804	13.323	1104.754	856.921
18.819	13.092	1104.032	855.085
19.834	13.011	1103.247	853.984
20.848	13.019	1102.471	853.351
21.863	12.852	1101.918	851.984
22.877	12.719	1101.315	850.756
23.892	12.729	1100.542	850.131
24.907	12.577	1099.617	848.560
25.921	12.699	1099.319	848.884
26.936	12.727	1098.194	848.082
27.950	12.656	1096.887	846.636
28.965	12.773	1095.928	846.421
29.980	12.939	1093.842	845.585
30.994	12.599	1092.828	842.988
32.009	12.726	1091.286	842.372
33.023	12.720	1090.429	841.603
34.038	12.809	1089.192	841.027
35.053	12.673	1088.547	839.762
36.067	12.792	1087.472	839.468
37.082	12.749	1086.739	838.607
38.096	12.821	1086.005	838.334
39.111	12.783	1085.096	837.366
40.126	12.829	1083.905	836.605
41.140	12.861	1082.569	835.659
42.155	12.739	1081.567	834.198
43.169	12.769	1080.404	833.376
44.184	12.725	1079.365	832.280
45.199	12.689	1077.874	830.876
46.213	12.715	1076.881	830.165
47.228	12.684	1076.103	829.335
48.242	12.645	1074.986	828.204
49.257	12.666	1074.021	827.497
50.271	12.749	1072.706	826.827
51.286	12.673	1071.683	825.581
52.301	12.557	1071.240	824.587
53.315	12.755	1070.165	824.676
54.330	12.746	1069.126	823.759
55.344	12.822	1067.797	823.041
56.359	12.699	1067.263	821.942
57.374	12.731	1066.043	821.093
58.388	12.710	1065.320	820.358
59.403	12.692	1064.539	819.596
60.417	12.835	1063.440	819.384
61.432	12.688	1062.893	818.161
62.447	12.835	1061.618	817.837
63.461	12.661	1061.585	816.877
64.476	12.739	1060.252	816.166
65.490	12.774	1059.144	815.411
66.505	12.916	1057.940	815.116
67.520	12.793	1057.298	813.942
68.534	12.799	1056.713	813.448
69.549	12.809	1055.875	812.782
70.563	12.708	1054.669	811.281
71.578	12.663	1054.298	810.706
72.593	12.765	1053.541	810.550
73.607	12.858	1051.977	809.734
74.622	12.740	1051.412	808.649
75.636	12.752	1050.279	807.764
76.651	12.836	1049.330	807.372
77.666	12.820	1048.862	806.866
78.680	12.769	1047.955	805.844
79.695	12.594	1047.864	804.849
80.709	12.725	1046.866	804.652
81.724	12.709	1045.945	803.795
82.739	12.930	1044.497	803.687
83.753	12.679	1043.904	801.938
84.768	12.830	1043.227	802.081
85.782	12.819	1042.209	801.174
86.797	12.970	1041.036	800.934
87.812	12.967	1039.824	799.916
88.826	12.960	1039.327	799.430
89.841	12.830	1038.772	798.303
90.855	12.885	1037.418	797.457
91.870	12.923	1036.531	796.887
92.884	12.867	1036.098	796.213
93.899	12.861	1035.276	795.484
94.914	12.885	1034.010	794.558
95.928	12.738	1033.530	793.407
96.943	13.050	1032.475	794.027
97.957	12.810	1032.231	792.618
98.972	12.834	1031.073	791.772
99.987	12.849	1029.967	790.925
101.001	12.735	1029.462	789.921
102.016	12.961	1028.456	790.164
103.030	13.001	1027.495	789.546
104.045	12.887	1026.238	787.967
105.060	12.854	1024.820	786.651
106.074	12.651	1023.909	784.914
107.089	12.847	1023.324	785.328
108.103	12.927	1022.659	785.129
109.118	12.787	1022.139	783.993
110.133	12.779	1021.051	783.052
111.147	12.887	1020.013	782.702
112.162	12.885	1018.635	781.564
113.176	12.815	1017.498	780.291
114.191	12.878	1016.617	779.843
115.206	12.896	1015.405	778.933
116.220	12.850	1014.843	778.215
117.235	12.866	1013.998	777.571
118.249	12.804	1013.159	776.570
119.264	12.766	1012.245	775.620
120.279	12.812	1011.064	774.861
121.293	12.865	1010.264	774.430
122.308	12.821	1009.716	773.733
123.322	12.986	1008.408	773.438
124.337	12.943	1007.118	772.178
125.352	12.923	1006.180	771.297
126.366	12.889	1004.661	769.906
127.381	12.838	1003.487	768.700
128.395	12.833	1002.537	767.881
129.410	12.967	1001.514	767.655
130.424	13.042	1000.439	767.110
131.439	12.979	999.525	766.050
132.454	12.937	998.603	765.079
133.468	13.016	997.610	764.617
134.483	12.915	996.929	763.560
135.497	13.070	995.808	763.351
136.512	12.919	995.162	762.090
137.527	13.077	994.147	761.974
138.541	12.860	993.515	760.424
139.556	12.935	992.647	760.036
140.570	12.910	992.013	759.368
141.585	12.958	990.595	758.437
142.600	12.938	989.989	757.815
143.614	13.040	988.763	757.276
144.629	12.967	988.263	756.490
145.643	12.960	987.317	755.670
146.658	13.032	985.935	754.875
147.673	13.084	984.894	754.249
148.687	12.964	984.340	753.207
149.702	13.039	983.124	752.555
150.716	12.979	982.220	751.523
151.731	13.064	981.191	751.052
152.746	12.943	980.501	749.909
153.760	12.973	979.726	749.388
154.775	12.972	979.242	748.944
155.789	13.118	977.882	748.501
156.804	12.977	977.187	747.263
157.819	12.912	976.553	746.418
158.833	12.873	975.796	745.599
159.848	12.984	974.674	745.178
160.862	13.002	973.997	744.675
161.877	12.972	973.036	743.739
162.892	13.133	972.047	743.642
163.906	13.103	971.572	743.079
164.921	13.023	971.198	742.367
165.935	12.900	969.932	740.780
166.950	13.026	968.438	740.140
167.964	12.984	967.855	739.438
168.979	13.072	966.272	738.556
169.994	12.903	965.550	737.186
171.008	12.995	964.595	736.800
172.023	13.093	963.446	736.298
173.037	13.000	962.762	735.293
174.052	12.851	961.812	733.838
175.067	12.972	960.786	733.530
176.081	13.112	959.525	733.122
177.096	13.019	959.286	732.465
178.110	13.115	958.204	732.000
179.125	13.110	957.538	731.404
180.140	13.118	956.312	730.439
181.154	12.990	955.942	729.523
182.169	13.052	955.069	729.068
183.183	13.052	954.476	728.549
184.198	13.066	953.681	727.941
185.213	13.022	952.599	726.856
186.227	13.128	952.090	726.871
187.242	13.176	951.500	726.567
188.256	13.167	950.506	725.705
189.271	13.236	949.381	725.082
190.286	13.252	948.337	724.292
191.300	13.134	948.013	723.464
192.315	13.080	947.238	722.571
193.329	13.099	946.514	722.038
194.344	13.061	945.651	721.150
195.359	13.026	945.274	720.647
196.373	13.026	944.785	720.209
197.388	13.160	944.094	720.203
198.402	13.233	943.174	719.755
199.417	13.133	942.953	719.088
200.432	13.162	942.356	718.696
201.446	13.180	941.915	718.372
202.461	13.065	940.929	717.058
203.475	13.137	940.403	716.907
204.490	13.055	939.669	715.928
205.504	13.061	938.359	714.893
206.519	13.049	937.830	714.375
207.534	13.226	937.395	714.744
208.548	13.270	936.378	714.095
209.563	13.203	936.195	713.606
210.577	13.240	935.320	713.033
211.592	13.257	934.286	712.257
212.607	13.267	933.794	711.860
213.621	13.243	933.027	711.109
214.636	13.160	932.255	710.104
215.650	13.263	932.150	710.401
216.665	13.320	930.976	709.691
217.680	13.341	930.675	709.486
218.694	13.434	929.879	709.214
219.709	13.326	929.243	708.203
220.723	13.253	928.247	707.072
221.738	13.324	927.518	706.756
222.753	13.232	926.988	705.899
223.767	13.284	926.423	705.629
224.782	13.254	925.218	704.518
225.796	13.369	924.296	704.244
226.811	13.395	923.426	703.629
227.826	13.337	922.468	702.591
228.840	13.310	922.260	702.255
229.855	13.196	921.824	701.377
230.869	13.157	920.942	700.479
231.884	13.297	920.032	700.320
232.899	13.408	919.120	700.030
233.913	13.376	918.665	699.486
234.928	13.355	917.872	698.733
235.942	13.394	917.352	698.441
236.957	13.404	916.697	697.921
237.972	13.450	915.515	697.155
238.986	13.465	915.121	696.854
240.001	13.331	914.888	696.053
241.015	13.500	913.524	695.664
242.030	13.567	912.689	695.249
243.045	13.372	912.328	694.091
244.059	13.439	911.897	693.982
245.074	13.487	910.590	693.130
246.088	13.313	910.122	691.982
247.103	13.357	909.706	691.788
248.117	13.332	909.055	691.130
249.132	13.583	907.846	691.196
250.147	13.599	907.281	690.773
251.161	13.453	906.964	689.860
252.176	13.560	905.816	689.370
253.190	13.519	904.861	688.414
254.205	13.582	904.150	688.075
255.220	13.606	903.636	687.722
256.234	13.587	902.686	686.860
257.249	13.639	902.191	686.636
258.263	13.656	901.764	686.322
259.278	13.560	901.293	685.504
260.293	13.592	900.634	685.075
261.307	13.553	900.020	684.386
262.322	13.595	898.937	683.676
263.336	13.589	898.619	683.349
264.351	13.671	897.519	682.791
265.366	13.564	896.963	681.865
266.380	13.609	896.377	681.543
267.395	13.710	895.577	681.289
268.409	13.564	894.727	679.985
269.424	13.804	893.770	680.179
270.439	13.673	893.325	679.246
271.453	13.597	892.691	678.393
272.468	13.607	891.913	677.781
273.482	13.695	890.832	677.262
274.497	13.583	890.548	676.526
275.512	13.666	889.735	676.190
276.526	13.693	888.595	675.372
277.541	13.763	888.045	675.178
278.555	13.619	887.556	674.162
279.570	13.639	886.698	673.531
280.585	13.810	885.970	673.614
281.599	13.744	885.563	672.978
282.614	13.744	885.255	672.683
283.628	13.829	884.291	672.233
284.643	13.795	883.646	671.546
285.657	13.814	883.063	671.123
286.672	13.872	882.512	670.879
287.687	13.726	882.316	670.082
288.701	13.768	881.549	669.606
289.716	13.759	880.906	669.025
290.730	13.818	880.305	668.745
291.745	13.831	879.805	668.361
292.760	13.922	878.893	667.974
293.774	13.981	877.683	667.232
294.789	13.957	877.286	666.774
295.803	13.854	876.781	665.917
296.818	13.676	876.147	664.664
297.833	13.768	875.449	664.444
298.847	13.888	874.583	664.210
299.862	13.902	874.071	663.816
300.876	13.677	873.614	662.513
301.891	13.800	872.448	662.060
302.906	13.889	871.688	661.781
303.920	13.941	871.369	661.685
304.935	13.939	870.657	661.078
305.949	13.918	869.710	660.219
306.964	13.844	869.177	659.461
307.979	14.010	868.532	659.573
308.993	13.907	867.744	658.508
310.008	13.810	867.311	657.737
311.022	13.923	866.568	657.562
312.037	13.853	866.483	657.162
313.052	13.944	865.600	656.795
314.066	13.934	865.331	656.491
315.081	14.217	864.302	656.771
316.095	14.182	863.904	656.270
317.110	13.997	863.592	655.248
318.125	13.992	862.907	654.649
319.139	13.964	862.304	654.025
320.154	14.095	861.957	654.219
321.168	14.238	861.216	654.161
322.183	14.172	860.672	653.429
323.197	14.038	860.076	652.394
324.212	14.133	859.188	652.034
325.227	13.943	858.975	651.069
326.241	14.030	858.090	650.683
327.256	14.016	857.438	650.076
328.270	14.163	856.957	650.226
329.285	14.066	856.450	649.407
330.300	14.094	855.824	648.983
331.314	14.244	855.092	648.955
332.329	14.079	854.519	647.821
333.343	14.001	853.989	647.061
334.358	14.171	853.354	647.180
335.373	14.046	852.591	646.060
336.387	14.040	852.087	645.596
337.402	13.949	851.541	644.774
338.416	13.956	850.961	644.305
339.431	14.094	850.236	644.233
340.446	14.030	849.559	643.416
341.460	13.940	849.012	642.598
342.475	14.114	848.168	642.573
343.489	14.075	848.195	642.387
344.504	14.074	847.328	641.670
345.519	14.138	846.533	641.256
346.533	14.066	846.466	640.872
347.548	14.032	845.735	640.132
348.562	14.176	844.858	639.965
349.577	14.019	844.488	639.024
350.592	13.955	844.335	638.606
351.606	14.039	843.658	638.357
352.621	14.114	842.979	638.078
353.635	14.096	842.710	637.747
354.650	14.122	842.035	637.280
355.665	14.119	841.963	637.158
356.679	14.432	841.309	637.805
357.694	14.439	840.771	637.368
358.708	14.222	840.355	636.166
359.723	14.294	839.514	635.749
360.738	14.263	838.684	634.943
361.752	14.166	838.085	634.063
362.767	14.221	837.776	633.986
363.781	14.155	837.469	633.444
364.796	14.119	836.858	632.788
365.810	13.897	836.423	631.560
366.825	14.004	835.865	631.490
367.840	14.078	835.473	631.420
368.854	14.209	834.541	631.158
369.869	14.215	834.459	631.061
370.883	14.223	833.926	630.631
371.898	14.145	833.146	629.690
372.913	14.218	832.599	629.499
373.927	14.295	832.195	629.426
374.942	14.164	831.530	628.374
375.956	14.183	830.629	627.709
376.971	14.279	830.125	627.637
377.986	14.184	829.533	626.775
379.000	14.232	828.708	626.275
380.015	14.394	827.676	626.051
381.029	14.251	828.087	625.769
382.044	14.326	827.239	625.355
383.059	14.260	826.616	624.580
384.073	14.109	826.399	623.792
385.088	14.227	825.221	623.293
386.102	14.217	825.156	623.148
387.117	14.245	824.205	622.479
388.132	14.073	823.742	621.433
389.146	14.273	823.596	622.014
390.161	14.437	823.257	622.317
391.175	14.536	822.820	622.301
392.190	14.365	822.449	621.327
393.205	14.345	822.088	620.926
394.219	14.586	821.596	621.395
395.234	15.270	821.382	623.724
396.248	15.280	821.429	623.743
397.263	14.874	820.626	621.567
398.278	14.453	819.397	619.021
399.292	14.245	818.765	617.715
400.307	14.268	818.701	617.698
401.321	14.230	818.237	617.150
402.336	14.416	817.680	617.366
403.350	14.369	816.942	616.579
404.365	14.056	816.996	615.407
405.380	14.186	815.884	614.997
406.394	14.075	815.383	614.156
407.409	14.078	814.469	613.425
408.423	14.237	813.818	613.466
409.438	14.174	813.650	613.053
410.453	14.138	812.945	612.333
411.467	14.043	812.606	611.674
412.482	14.144	812.029	611.556
413.496	14.088	811.451	610.863
414.511	14.074	811.176	610.549
415.526	14.161	810.836	610.558
416.540	14.124	810.229	609.913
417.555	14.162	809.912	609.758
418.569	14.375	809.575	610.231
419.584	14.461	808.803	609.909
420.599	14.219	808.598	608.815
421.613	149.797	1354.620	1773.885
422.628	130.227	1434.190	1774.010
