DTS Sentinel unit serial number:	SN413079Multiplexer serial number:	ORYXHardware model number:	OX4-SRSoftware version number:	ORYX F/W v4.00 Oryx Data Collector v3.7.2.0data status	okinstallation	princeton_trtdifferential loss correction	single-endedforward channel	channel 3reverse channel	N/Adate	2019/09/12time	06:22:11forward acquisition time	60.00reverse acquisition time	0.00gamma	496.2192k internal	0.2320k external	0.2320temperature offset calibration	1.0031default loss term (dB/km)	0.3790temperature slope calibration	1.0000multiplexer offset coefficient	1.0000multiplexer slope coefficient	1.0000fibre end	0.00T internal ref (°C)	32.16T ext. ref 1 (°C)	1.57T ext. ref 2 (°C)	27.37length (m)	temperature (°C)	Stokes	anti-Stokes-747.200	800.000	0.096	0.291
-746.185	724.835	0.207	0.558
-745.171	-38.945	-0.089	-0.047
-744.156	140.342	0.175	0.233
-743.142	43.326	-0.005	0.005
-742.127	-200.000	0.011	0.470
-741.112	25.286	0.227	-0.191
-740.098	-138.822	-0.311	-0.034
-739.083	-10.216	0.458	0.307
-738.069	800.000	-0.032	0.105
-737.054	73.834	0.248	-0.263
-736.039	67.605	-0.290	-0.299
-735.025	-52.013	0.136	-0.064
-734.010	43.465	-0.075	0.070
-732.996	-200.000	0.056	-0.364
-731.981	-154.026	-0.167	-0.011
-730.966	-115.110	-0.367	0.070
-729.952	11.685	-0.092	-0.071
-728.937	800.000	-0.116	0.382
-727.923	-200.000	-0.003	-0.161
-726.908	143.573	0.090	0.122
-725.894	273.675	0.201	-0.360
-724.879	-167.098	-0.403	-0.017
-723.864	-46.167	0.121	0.060
-722.850	-200.000	0.100	-0.471
-721.835	800.000	-0.020	-0.060
-720.821	106.825	0.155	0.186
-719.806	800.000	-0.075	0.311
-718.791	800.000	-0.069	0.279
-717.777	-142.711	0.332	0.033
-716.762	-200.000	-0.023	0.260
-715.748	76.853	-0.123	-0.132
-714.733	-38.398	-0.221	-0.118
-713.718	-118.078	0.311	0.056
-712.704	-200.000	0.012	-0.063
-711.689	131.121	-0.063	0.081
-710.675	-127.377	0.313	-0.046
-709.660	-75.553	0.116	0.042
-708.645	370.063	0.080	0.163
-707.631	253.842	0.159	-0.275
-706.616	-200.000	0.041	0.267
-705.602	-135.071	-0.420	-0.051
-704.587	-27.977	-0.086	0.050
-703.572	-116.378	0.201	0.037
-702.558	800.000	-0.015	-0.064
-701.543	-131.606	0.172	0.023
-700.529	-92.684	0.275	-0.078
-699.514	244.972	0.190	0.322
-698.499	276.299	0.107	-0.192
-697.485	64.125	0.203	-0.206
-696.470	26.452	-0.307	0.259
-695.456	3.709	-0.129	0.095
-694.441	10.229	0.185	-0.142
-693.426	343.585	-0.142	0.281
-692.412	151.002	-0.113	-0.156
-691.397	-200.000	0.053	0.389
-690.383	-75.300	-0.443	-0.160
-689.368	-52.303	-0.127	0.060
-688.354	-200.000	0.035	0.416
-687.339	-200.000	-0.011	-0.083
-686.324	-5.497	-0.211	-0.146
-685.310	446.047	-0.022	0.048
-684.295	800.000	-0.114	-0.350
-683.281	609.624	-0.029	-0.072
-682.266	56.698	-0.074	-0.073
-681.251	219.989	-0.132	0.214
-680.237	-108.137	-0.235	-0.051
-679.222	-30.272	0.256	-0.147
-678.208	-200.000	-0.029	0.173
-677.193	-200.000	-0.065	-0.321
-676.178	-154.336	0.205	-0.014
-675.164	74.220	0.093	0.098
-674.149	-72.965	-0.321	0.119
-673.135	-154.121	-0.240	0.016
-672.120	135.478	-0.094	-0.124
-671.105	-200.000	-0.046	-0.208
-670.091	-90.369	0.008	-0.002
-669.076	-135.793	0.149	0.018
-668.062	-134.408	-0.127	0.016
-667.047	-155.069	0.435	0.029
-666.032	474.951	-0.079	-0.180
-665.018	353.425	0.198	0.396
-664.003	464.654	0.028	0.064
-662.989	-200.000	0.020	0.355
-661.974	117.445	-0.020	0.025
-660.959	33.961	0.118	-0.104
-659.945	-9.057	-0.271	-0.183
-658.930	594.673	-0.102	0.254
-657.916	16.762	-0.113	0.090
-656.901	-200.000	0.030	0.195
-655.886	-182.606	-0.152	-0.003
-654.872	800.000	0.033	-0.105
-653.857	-89.847	-0.152	-0.045
-652.843	132.346	0.040	-0.052
-651.828	-55.546	0.160	0.072
-650.814	6.764	-0.136	0.102
-649.799	-200.000	0.031	-0.201
-648.784	800.000	0.058	0.195
-647.770	53.009	0.424	-0.409
-646.755	-10.425	0.061	-0.041
-645.741	-72.960	-0.181	0.067
-644.726	350.615	0.099	-0.197
-643.711	-188.992	-0.414	-0.005
-642.697	665.959	-0.048	-0.124
-641.682	-112.342	0.167	0.034
-640.668	-200.000	-0.022	-0.112
-639.653	291.093	0.046	-0.085
-638.638	-200.000	-0.017	-0.185
-637.624	-3.954	0.355	-0.248
-636.609	-73.548	-0.326	0.120
-635.595	-0.824	-0.149	-0.106
-634.580	347.521	-0.068	-0.135
-633.565	695.863	0.145	0.384
-632.551	-51.016	-0.257	0.121
-631.536	34.698	-0.199	-0.175
-630.522	420.708	-0.068	-0.147
-629.507	-6.370	-0.194	0.133
-628.492	-86.295	-0.304	0.094
-627.478	-118.095	0.302	-0.054
-626.463	6.197	-0.295	0.220
-625.449	800.000	0.119	0.374
-624.434	170.400	-0.273	0.394
-623.419	-200.000	-0.007	0.081
-622.405	-35.987	-0.119	0.065
-621.390	800.000	0.039	0.150
-620.376	-200.000	-0.004	-0.146
-619.361	800.000	0.095	-0.300
-618.346	800.000	0.040	0.134
-617.332	-200.000	0.173	0.000
-616.317	-67.034	-0.076	-0.030
-615.303	71.134	-0.183	0.191
-614.288	36.674	0.256	0.227
-613.273	54.289	-0.060	0.058
-612.259	-200.000	-0.001	-0.024
-611.244	-126.632	-0.143	0.021
-610.230	-34.863	-0.138	-0.076
-609.215	-14.081	0.255	-0.166
-608.201	-131.447	0.189	-0.025
-607.186	-8.644	-0.258	-0.175
-606.171	800.000	-0.066	-0.246
-605.157	264.953	-0.097	0.171
-604.142	-13.070	0.210	0.138
-603.128	73.087	0.262	-0.275
-602.113	24.911	0.188	0.157
-601.098	-160.959	-0.379	0.020
-600.084	611.063	-0.052	0.130
-599.069	189.990	0.088	-0.133
-598.055	252.218	0.288	-0.493
-597.040	-106.237	0.283	-0.064
-596.025	-200.000	-0.056	0.339
-595.011	-12.540	0.152	-0.099
-593.996	-56.047	-0.057	0.025
-592.982	-8.620	0.243	0.164
-591.967	39.461	0.169	-0.153
-590.952	-2.587	0.410	0.289
-589.938	-59.248	0.216	-0.093
-588.923	-35.116	-0.135	-0.074
-587.909	-28.042	0.113	0.066
-586.894	-191.573	-0.072	-0.001
-585.879	800.000	0.047	0.170
-584.865	145.941	0.111	0.150
-583.850	441.855	-0.091	0.199
-582.836	17.067	-0.065	0.052
-581.821	117.994	0.115	-0.143
-580.806	111.968	-0.045	0.054
-579.792	13.715	-0.257	0.200
-578.777	30.668	0.194	0.167
-577.763	-18.214	-0.303	0.191
-576.748	267.217	0.045	0.079
-575.733	-5.007	-0.098	-0.068
-574.719	25.330	-0.211	0.176
-573.704	-40.085	-0.035	-0.018
-572.690	789.869	-0.055	-0.151
-571.675	298.672	-0.087	-0.162
-570.661	-200.000	-0.013	0.150
-569.646	678.805	-0.085	0.222
-568.631	12.579	0.047	-0.036
-567.617	-200.000	0.017	0.146
-566.602	800.000	0.048	-0.134
-565.588	-200.000	0.020	-0.103
-564.573	257.817	-0.145	0.251
-563.558	800.000	-0.038	-0.109
-562.544	-70.554	0.191	-0.073
-561.529	-200.000	-0.012	0.118
-560.515	67.319	-0.195	-0.200
-559.500	-36.113	-0.239	0.129
-558.485	-20.496	-0.128	0.079
-557.471	-29.021	0.210	-0.121
-556.456	-32.755	0.306	-0.171
-555.442	8.386	-0.417	0.315
-554.427	213.093	0.100	-0.159
-553.412	800.000	-0.085	-0.306
-552.398	-96.305	-0.242	-0.064
-551.383	112.758	0.151	0.183
-550.369	-200.000	0.018	0.101
-549.354	800.000	0.140	-0.593
-548.339	641.649	-0.019	0.048
-547.325	-71.430	0.235	0.088
-546.310	444.406	0.040	-0.088
-545.296	-200.000	-0.340	0.000
-544.281	-129.254	0.036	-0.005
-543.266	-66.609	0.145	0.058
-542.252	86.878	-0.131	0.145
-541.237	355.957	0.103	0.206
-540.223	-44.492	-0.115	-0.058
-539.208	-76.317	-0.102	-0.036
-538.193	23.646	0.274	-0.226
-537.179	-200.000	-0.036	-0.271
-536.164	-40.311	-0.153	-0.080
-535.150	-64.337	-0.191	0.078
-534.135	-47.354	-0.172	0.084
-533.121	158.101	0.066	-0.091
-532.106	800.000	0.051	0.154
-531.091	-200.000	0.003	-0.145
-530.077	800.000	0.165	-0.460
-529.062	-39.009	-0.056	-0.030
-528.048	365.455	-0.060	-0.122
-527.033	-11.230	0.287	0.190
-526.018	-138.643	0.355	0.039
-525.004	-126.604	0.166	0.025
-523.989	-22.257	-0.289	0.176
-522.975	-174.595	0.113	0.003
-521.960	-89.229	-0.149	0.044
-520.945	138.460	0.105	0.138
-519.931	-88.557	0.211	-0.063
-518.916	-56.098	0.223	0.100
-517.902	-83.018	-0.164	-0.053
-516.887	-13.780	-0.229	-0.149
-515.872	-148.737	0.237	0.019
-514.858	42.168	-0.151	0.138
-513.843	800.000	-0.097	0.339
-512.829	14.848	0.328	-0.257
-511.814	9.209	-0.155	0.117
-510.799	52.304	0.060	0.058
-509.785	-24.832	-0.057	-0.034
-508.770	108.852	-0.110	-0.132
-507.756	161.287	0.126	-0.176
-506.741	-14.093	-0.299	0.193
-505.726	97.844	-0.134	-0.155
-504.712	32.564	-0.222	-0.192
-503.697	-153.269	-0.328	-0.023
-502.683	-200.000	0.005	-0.109
-501.668	159.786	-0.133	-0.185
-500.653	800.000	-0.073	-0.309
-499.639	-200.000	-0.022	-0.172
-498.624	-200.000	-0.022	-0.158
-497.610	-65.017	-0.018	-0.007
-496.595	-169.100	0.333	0.012
-495.581	-24.364	0.189	0.113
-494.566	-200.000	-0.066	0.298
-493.551	800.000	0.041	-0.161
-492.537	101.793	0.131	0.154
-491.522	9.037	0.035	-0.027
-490.508	-88.167	-0.043	-0.013
-489.493	-0.576	0.006	-0.004
-488.478	649.278	0.079	-0.203
-487.464	180.492	0.085	-0.124
-486.449	115.784	-0.290	-0.355
-485.435	-109.232	-0.075	0.016
-484.420	89.693	-0.193	-0.216
-483.405	-133.781	0.198	-0.025
-482.391	33.584	-0.251	-0.218
-481.376	84.604	0.215	0.236
-480.362	-200.000	-0.056	-0.358
-479.347	363.393	-0.124	0.250
-478.332	99.245	0.080	-0.092
-477.318	-17.400	0.041	0.026
-476.303	-103.202	0.253	0.060
-475.289	339.481	-0.101	0.197
-474.274	-14.612	-0.113	0.073
-473.259	-80.760	0.098	-0.032
-472.245	-85.864	0.104	0.032
-471.230	-79.416	0.031	0.010
-470.216	235.101	-0.073	0.121
-469.201	5.147	0.192	0.142
-468.186	-83.644	0.292	-0.093
-467.172	197.390	0.188	0.287
-466.157	635.987	0.058	0.148
-465.143	-114.710	0.250	0.048
-464.128	578.674	0.111	0.271
-463.113	800.000	0.009	0.040
-462.099	-40.940	-0.164	0.085
-461.084	800.000	-0.180	-0.540
-460.070	-71.322	-0.260	0.098
-459.055	40.292	0.208	-0.187
-458.040	81.933	0.078	-0.084
-457.026	30.771	-0.156	-0.133
-456.011	78.182	0.206	-0.220
-454.997	739.607	0.072	0.192
-453.982	-76.149	0.076	-0.027
-452.968	-200.000	-0.075	0.507
-451.953	-200.000	-0.012	0.128
-450.938	662.394	-0.277	-0.714
-449.924	77.207	0.353	-0.375
-448.909	-6.217	-0.260	-0.177
-447.895	-128.907	0.273	0.038
-446.880	92.344	0.131	0.147
-445.865	57.050	-0.249	0.242
-444.851	-78.198	0.112	0.038
-443.836	154.736	0.151	0.208
-442.822	80.451	0.091	0.098
-441.807	-35.529	-0.197	0.107
-440.792	-200.000	-0.041	0.305
-439.778	-200.000	0.099	0.461
-438.763	-110.015	-0.182	0.038
-437.749	-200.000	0.056	0.362
-436.734	273.874	-0.175	-0.310
-435.719	-37.109	-0.066	0.035
-434.705	-200.000	-0.009	-0.067
-433.690	280.033	0.100	-0.179
-432.676	44.587	0.142	0.130
-431.661	-171.889	0.138	-0.004
-430.646	-10.576	0.066	0.044
-429.632	140.302	-0.165	-0.218
-428.617	-116.976	-0.155	0.028
-427.603	480.549	0.156	-0.354
-426.588	672.350	-0.142	-0.368
-425.573	-200.000	0.037	-0.420
-424.559	8.101	-0.112	-0.084
-423.544	232.328	-0.098	0.161
-422.530	-200.000	0.029	-0.171
-421.515	-52.756	0.100	0.046
-420.500	-103.864	0.278	0.065
-419.486	553.188	-0.130	0.312
-418.471	800.000	0.098	0.283
-417.457	19.020	-0.232	0.186
-416.442	46.889	-0.151	-0.140
-415.428	-156.843	-0.172	-0.011
-414.413	800.000	-0.033	0.133
-413.398	57.131	-0.116	0.113
-412.384	503.006	-0.137	0.317
-411.369	800.000	-0.080	-0.256
-410.355	800.000	0.087	0.287
-409.340	-44.375	0.069	0.035
-408.325	-200.000	0.001	-0.036
-407.311	-111.374	0.010	0.002
-406.296	-200.000	-0.023	0.305
-405.282	-139.239	0.109	0.012
-404.267	443.321	0.060	-0.132
-403.252	-200.000	-0.010	0.102
-402.238	272.693	-0.139	-0.245
-401.223	452.934	0.018	0.040
-400.209	800.000	0.002	0.007
-399.194	-8.524	-0.360	-0.242
-398.179	444.345	0.067	-0.147
-397.165	263.329	-0.159	0.276
-396.150	800.000	-0.101	0.362
-395.136	76.057	0.123	0.130
-394.121	292.343	0.096	-0.175
-393.106	-200.000	-0.029	-0.150
-392.092	646.024	0.057	0.144
-391.077	800.000	0.044	-0.142
-390.063	800.000	0.030	-0.094
-389.048	261.730	0.068	-0.117
-388.033	218.012	0.032	-0.051
-387.019	84.993	-0.185	0.202
-386.004	137.853	0.058	0.076
-384.990	800.000	-0.079	0.284
-383.975	-60.370	0.214	-0.091
-382.960	800.000	-0.048	-0.157
-381.946	-97.789	0.203	0.052
-380.931	-200.000	0.001	-0.040
-379.917	82.306	-0.210	0.227
-378.902	-33.153	0.400	-0.221
-377.888	106.834	-0.158	-0.187
-376.873	-200.000	0.057	-0.387
-375.858	606.832	-0.120	0.299
-374.844	-200.000	0.002	0.109
-373.829	800.000	-0.049	-0.143
-372.815	-131.956	0.335	-0.043
-371.800	-200.000	-0.003	0.029
-370.785	448.118	0.088	-0.194
-369.771	12.922	-0.106	-0.082
-368.756	95.972	-0.123	-0.140
-367.742	-105.679	0.177	-0.040
-366.727	145.053	0.043	0.058
-365.712	-44.661	-0.080	0.040
-364.698	-103.921	-0.184	-0.043
-363.683	149.659	-0.128	-0.172
-362.669	35.816	-0.293	0.257
-361.654	-141.459	-0.206	0.021
-360.639	153.123	0.085	0.115
-359.625	-99.903	-0.117	-0.029
-358.610	-200.000	0.033	-0.198
-357.596	448.234	0.028	0.062
-356.581	-11.410	-0.254	-0.166
-355.566	-13.002	0.106	0.069
-354.552	-200.000	0.003	-0.090
-353.537	394.335	0.107	-0.223
-352.523	200.184	0.149	-0.227
-351.508	122.992	-0.104	0.130
-350.493	-93.418	0.132	0.036
-349.479	-79.521	-0.332	0.112
-348.464	-144.422	0.268	-0.025
-347.450	22.761	0.177	-0.144
-346.435	211.366	-0.162	0.253
-345.420	-53.264	0.257	0.117
-344.406	-107.594	0.199	0.043
-343.391	-200.000	-0.020	0.101
-342.377	169.459	-0.146	0.208
-341.362	-35.099	-0.282	0.153
-340.348	-200.000	-0.188	0.000
-339.333	-103.152	0.035	-0.008
-338.318	800.000	-0.028	0.090
-337.304	72.111	-0.246	-0.255
-336.289	-200.000	-0.019	-0.201
-335.275	800.000	0.092	0.276
-334.260	173.378	-0.075	-0.108
-333.245	21.437	-0.171	0.138
-332.231	-200.000	0.026	-0.273
-331.216	-85.536	-0.082	-0.025
-330.202	-98.704	0.313	0.079
-329.187	287.266	0.095	0.171
-328.172	87.040	0.105	-0.116
-327.158	783.497	-0.042	-0.114
-326.143	75.760	0.170	0.179
-325.129	754.320	0.049	0.132
-324.114	800.000	0.072	0.225
-323.099	529.705	-0.071	-0.166
-322.085	-147.238	0.037	-0.003
-321.070	94.830	-0.186	0.211
-320.056	-136.891	-0.099	-0.011
-319.041	0.270	-0.137	0.097
-318.026	-108.259	0.114	-0.025
-317.012	471.944	0.015	0.033
-315.997	-200.000	-0.008	0.221
-314.983	125.669	-0.127	0.159
-313.968	14.081	0.081	0.063
-312.953	0.291	0.215	-0.152
-311.939	730.259	0.108	-0.287
-310.924	224.743	0.074	-0.119
-309.910	800.000	-0.091	-0.333
-308.895	800.000	0.016	0.053
-307.880	73.428	-0.227	0.237
-306.866	206.412	0.132	-0.204
-305.851	-101.535	0.223	-0.054
-304.837	-143.643	0.382	0.036
-303.822	578.182	0.029	-0.071
-302.807	-200.000	0.008	-0.158
-301.793	-41.540	-0.339	-0.173
-300.778	34.361	0.059	0.051
-299.764	517.901	0.140	0.324
-298.749	-146.098	0.206	-0.018
-297.735	77.067	-0.111	-0.117
-296.720	-200.000	-0.014	-0.083
-295.705	40.615	-0.225	0.202
-294.691	-68.478	0.077	0.030
-293.676	-200.000	-0.000	0.203
-292.662	-200.000	-0.006	0.173
-291.647	-124.776	-0.180	-0.028
-290.632	-31.832	0.133	0.074
-289.618	-200.000	0.018	0.169
-288.603	-12.766	-0.131	-0.085
-287.589	-154.081	0.257	0.017
-286.574	139.608	0.076	0.099
-285.559	800.000	-0.046	0.179
-284.545	251.205	0.066	-0.112
-283.530	-67.601	0.208	-0.081
-282.516	247.150	-0.103	0.174
-281.501	-122.211	0.247	-0.040
-280.486	-200.000	0.040	-0.186
-279.472	185.094	-0.069	0.101
-278.457	-32.901	-0.070	0.038
-277.443	-154.969	0.216	-0.014
-276.428	170.052	0.181	0.257
-275.413	420.807	0.050	0.107
-274.399	53.077	0.058	-0.055
-273.384	743.460	-0.133	-0.355
-272.370	-10.315	-0.086	-0.056
-271.355	-23.202	0.150	-0.090
-270.340	-145.589	-0.077	0.007
-269.326	248.720	-0.141	0.237
-268.311	36.292	0.144	-0.126
-267.297	-200.000	-0.012	-0.262
-266.282	-151.542	-0.195	-0.014
-265.267	-116.725	0.095	-0.017
-264.253	-200.000	-0.022	0.329
-263.238	52.813	0.205	-0.194
-262.224	-200.000	-0.006	-0.321
-261.209	-19.876	-0.200	0.123
-260.195	800.000	-0.131	0.405
-259.180	-59.165	0.199	0.085
-258.165	-28.624	0.135	0.077
-257.151	-175.786	-0.224	-0.006
-256.136	-69.291	0.106	-0.040
-255.122	205.396	-0.048	0.073
-254.107	-108.615	-0.391	0.083
-253.092	-156.647	0.212	0.013
-252.078	701.995	0.099	-0.259
-251.063	78.130	0.043	0.046
-250.049	-47.449	-0.241	0.116
-249.034	14.205	0.350	-0.270
-248.019	-200.000	-0.040	0.207
-247.005	-84.129	-0.098	-0.031
-245.990	800.000	-0.085	-0.354
-244.976	800.000	0.028	0.096
-243.961	-62.450	-0.152	0.063
-242.946	-200.000	-0.033	-0.294
-241.932	-200.000	-0.012	0.224
-240.917	147.858	-0.167	-0.224
-239.903	381.002	0.032	-0.064
-238.888	232.870	-0.083	0.136
-237.873	-42.464	0.068	0.034
-236.859	51.539	-0.163	0.154
-235.844	20.781	0.126	0.101
-234.830	-96.268	-0.141	-0.037
-233.815	631.875	-0.034	-0.085
-232.800	67.499	-0.079	0.080
-231.786	-39.043	-0.119	0.062
-230.771	-200.000	0.016	-0.107
-229.757	-63.039	-0.088	-0.036
-228.742	-85.917	-0.309	0.095
-227.727	-43.015	-0.121	0.061
-226.713	-23.778	-0.175	0.104
-225.698	800.000	0.066	0.276
-224.684	364.455	-0.036	-0.073
-223.669	-200.000	-0.036	0.386
-222.655	-9.275	0.074	-0.049
-221.640	-53.137	-0.079	0.036
-220.625	-110.523	-0.220	-0.045
-219.611	-65.903	0.395	-0.156
-218.596	-128.950	0.499	-0.069
-217.582	51.964	0.185	-0.174
-216.567	-34.722	-0.027	-0.015
-215.552	-179.150	-0.106	-0.002
-214.538	82.449	0.187	0.202
-213.523	800.000	0.055	-0.220
-212.509	-196.323	-0.507	-0.003
-211.494	-76.325	0.151	-0.053
-210.479	-42.551	-0.310	0.157
-209.465	-25.902	0.294	-0.172
-208.450	-200.000	-0.046	0.212
-207.436	800.000	0.034	-0.136
-206.421	-200.000	-0.072	-0.379
-205.406	-178.952	0.114	0.003
-204.392	168.202	0.076	-0.107
-203.377	481.867	-0.133	-0.298
-202.363	1.145	-0.259	-0.184
-201.348	550.455	-0.120	0.284
-200.333	127.251	0.087	0.110
-199.319	33.520	0.040	0.035
-198.304	-118.213	0.209	-0.037
-197.290	-108.058	0.129	-0.028
-196.275	-79.297	0.145	-0.049
-195.260	-200.000	-0.036	0.368
-194.246	-200.000	0.019	-0.107
-193.231	747.762	-0.068	0.182
-192.217	-119.949	0.057	-0.010
-191.202	-178.172	-0.204	0.005
-190.187	-128.612	-0.133	0.019
-189.173	541.398	-0.094	0.221
-188.158	-200.000	-0.017	0.143
-187.144	-200.000	0.016	-0.127
-186.129	-200.000	0.189	-0.001
-185.114	-178.848	-0.256	-0.006
-184.100	-200.000	-0.020	0.278
-183.085	112.350	-0.211	-0.253
-182.071	-200.000	-0.066	-0.350
-181.056	-147.173	0.130	-0.011
-180.042	-104.351	0.347	0.080
-179.027	800.000	0.048	-0.148
-178.012	43.583	0.184	0.166
-176.998	91.136	0.187	-0.207
-175.983	800.000	-0.071	0.219
-174.969	800.000	-0.107	-0.369
-173.954	424.851	0.193	-0.412
-172.939	61.565	-0.129	-0.127
-171.925	39.524	0.149	-0.132
-170.910	-76.073	-0.449	-0.157
-169.896	24.127	0.032	-0.026
-168.881	-200.000	-0.000	0.099
-167.866	-200.000	0.011	0.107
-166.852	454.457	0.101	-0.221
-165.837	800.000	-0.070	0.273
-164.823	-200.000	-0.037	0.287
-163.808	-107.425	0.160	0.035
-162.793	800.000	-0.055	0.174
-161.779	-200.000	0.035	0.304
-160.764	-200.000	-0.010	-0.312
-159.750	90.594	0.248	0.275
-158.735	113.467	0.049	-0.059
-157.720	162.615	0.097	0.134
-156.706	-36.517	0.251	0.133
-155.691	-96.578	-0.489	-0.128
-154.677	67.637	-0.124	-0.126
-153.662	-108.515	0.125	0.027
-152.647	141.338	0.096	-0.125
-151.633	24.205	0.177	0.145
-150.618	-200.000	0.032	-0.189
-149.604	3.678	0.214	-0.154
-148.589	-193.628	-0.349	-0.003
-147.574	-14.523	0.117	-0.074
-146.560	452.239	0.074	-0.161
-145.545	800.000	-0.046	-0.135
-144.531	79.624	0.113	0.120
-143.516	-200.000	-0.054	0.252
-142.502	-200.000	-0.014	0.204
-141.487	376.634	0.150	-0.302
-140.472	-91.695	0.055	0.016
-139.458	-83.430	0.282	-0.089
-138.443	-200.000	-0.006	0.067
-137.429	613.338	0.129	0.319
-136.414	-108.131	0.258	-0.055
-135.399	499.000	0.175	-0.398
-134.385	-56.946	-0.117	-0.051
-133.370	-106.802	-0.385	-0.084
-132.356	800.000	-0.039	0.151
-131.341	7.965	0.242	0.179
-130.326	338.731	0.083	0.160
-129.312	46.077	0.312	-0.285
-128.297	-14.016	0.074	-0.047
-127.283	117.660	-0.207	-0.252
-126.268	68.531	0.383	0.388
-125.253	-36.789	0.183	0.097
-124.239	468.125	-0.123	-0.273
-123.224	800.000	-0.079	0.248
-122.210	-64.370	-0.089	-0.036
-121.195	-200.000	-0.003	0.111
-120.180	91.638	0.037	-0.042
-119.166	-78.132	-0.186	-0.063
-118.151	-200.000	0.007	-0.311
-117.137	-104.876	-0.104	-0.023
-116.122	-200.000	0.025	-0.113
-115.107	800.000	-0.072	-0.239
-114.093	800.000	0.096	0.284
-113.078	-10.253	-0.105	0.069
-112.064	258.289	-0.150	0.255
-111.049	-86.793	0.249	-0.075
-110.034	192.099	0.269	-0.400
-109.020	-200.000	-0.012	-0.118
-108.005	-90.278	0.298	-0.085
-106.991	182.755	0.041	0.059
-105.976	36.984	0.229	0.200
-104.962	151.577	-0.264	-0.355
-103.947	-141.705	0.330	-0.033
-102.932	-14.722	0.382	0.242
-101.918	-43.132	-0.138	0.069
-100.903	-200.000	0.021	0.119
-99.889	198.859	-0.039	-0.059
-98.874	48.092	0.083	0.077
-97.859	-200.000	0.091	-0.441
-96.845	0.673	0.157	-0.111
-95.830	91.157	-0.117	-0.129
-94.816	-23.119	0.208	-0.123
-93.801	-69.516	-0.248	0.094
-92.786	235.975	-0.131	0.214
-91.772	-95.055	0.112	-0.030
-90.757	44.226	0.196	0.177
-89.743	-151.820	-0.109	0.008
-88.728	-161.117	-0.090	-0.005
-87.713	-10.977	0.406	0.264
-86.699	277.420	0.013	-0.023
-85.684	404.815	-0.098	-0.204
-84.670	800.000	-0.075	0.237
-83.655	46.610	-0.190	-0.174
-82.640	-150.927	-0.072	-0.005
-81.626	-200.000	-0.033	0.253
-80.611	-34.149	-0.202	-0.109
-79.597	-200.000	-0.032	0.211
-78.582	-17.493	0.354	0.219
-77.567	102.708	0.117	-0.135
-76.553	800.000	-0.054	-0.166
-75.538	-39.352	-0.210	-0.109
-74.524	487.250	0.082	0.184
-73.509	43.630	0.239	0.215
-72.494	10.934	-0.273	-0.206
-71.480	216.698	-0.019	-0.030
-70.465	-35.839	-0.285	-0.152
-69.451	174.326	0.114	0.163
-68.436	-34.252	-0.259	0.140
-67.422	8.239	0.159	0.117
-66.407	-28.355	-0.254	-0.144
-65.392	-200.000	-0.029	0.223
-64.378	-25.250	-0.332	-0.193
-63.363	565.536	0.129	-0.307
-62.349	800.000	0.042	-0.117
-61.334	137.028	-0.788	-1.014
-60.319	-12.323	0.469	0.302
-59.305	608.730	-0.422	-1.037
-58.290	296.140	0.540	0.974
-57.276	517.861	0.694	1.598
-56.261	-200.000	95.901	594.571
-55.246	566.265	1372.434	3277.955
-54.232	161.010	2549.758	3507.137
-53.217	112.213	2162.967	2574.148
-52.203	42.765	1708.300	1531.770
-51.188	35.314	1521.355	1313.304
-50.173	33.034	1494.791	1274.959
-49.159	51.954	1544.196	1447.310
-48.144	53.859	1561.348	1476.401
-47.130	35.551	1520.907	1314.335
-46.115	32.448	1506.173	1280.477
-45.100	32.287	1503.040	1276.668
-44.086	32.218	1501.061	1274.467
-43.071	32.249	1499.210	1273.056
-42.057	32.199	1497.537	1271.249
-41.042	32.229	1495.842	1269.962
-40.027	32.262	1494.497	1268.994
-39.013	32.172	1493.531	1267.512
-37.998	32.130	1492.304	1266.143
-36.984	32.153	1490.656	1264.846
-35.969	32.130	1489.445	1263.614
-34.954	32.115	1488.431	1262.603
-33.940	32.264	1486.404	1261.830
-32.925	32.206	1485.372	1260.517
-31.911	32.095	1484.465	1258.951
-30.896	32.331	1482.234	1258.593
-29.881	32.278	1480.866	1257.025
-28.867	32.262	1479.875	1256.027
-27.852	32.216	1478.743	1254.707
-26.838	32.271	1477.309	1253.812
-25.823	32.271	1475.422	1252.157
-24.809	32.154	1473.905	1250.043
-23.794	32.214	1472.173	1248.925
-22.779	32.255	1470.914	1248.075
-21.765	32.157	1470.022	1246.620
-20.750	32.226	1468.549	1245.778
-19.736	32.202	1467.784	1244.923
-18.721	32.139	1466.756	1243.582
-17.706	32.148	1465.601	1242.614
-16.692	32.114	1464.727	1241.603
-15.677	32.216	1463.522	1241.200
-14.663	32.071	1462.889	1239.658
-13.648	32.041	1461.867	1238.549
-12.633	32.053	1461.068	1237.900
-11.619	32.139	1459.918	1237.441
-10.604	32.095	1458.961	1236.293
-9.590	32.051	1458.550	1235.606
-8.575	32.077	1457.121	1234.519
-7.560	32.100	1456.693	1234.257
-6.546	32.146	1455.082	1233.142
-5.531	32.056	1454.706	1232.185
-4.517	32.021	1453.717	1231.068
-3.502	32.064	1452.382	1230.175
-2.487	32.018	1451.706	1229.252
-1.473	32.039	1450.374	1228.210
-0.458	32.049	1448.662	1226.779
0.556	32.000	1439.586	1216.770
1.571	29.129	1414.465	1177.110
2.586	25.871	1358.649	1110.521
3.600	24.245	1279.264	1036.094
4.615	22.973	1232.435	990.949
5.629	19.314	1174.153	924.424
6.644	9.667	1087.394	807.903
7.659	2.580	1046.262	743.000
8.673	1.847	1040.839	735.545
9.688	1.542	1037.952	731.973
10.702	1.464	1036.636	730.604
11.717	1.408	1034.423	728.714
12.731	4.333	1037.432	744.825
13.746	13.897	1051.223	800.991
14.761	22.162	1062.268	849.452
15.775	24.599	1064.430	862.892
16.790	24.976	1064.068	864.342
17.804	24.781	1063.392	862.778
18.819	24.656	1062.147	861.087
19.834	24.790	1061.831	861.401
20.848	24.897	1061.868	861.870
21.863	25.039	1061.097	861.850
22.877	25.099	1060.775	861.801
23.892	24.908	1060.502	860.586
24.907	24.908	1059.010	859.297
25.921	24.893	1058.805	858.986
26.936	24.884	1058.195	858.368
27.950	24.779	1056.969	856.798
28.965	24.806	1055.654	855.783
29.980	24.648	1054.593	854.095
30.994	24.698	1053.114	853.057
32.009	24.847	1052.068	852.848
33.023	24.997	1051.558	853.069
34.038	24.874	1050.335	851.418
35.053	24.841	1049.617	850.604
36.067	24.752	1049.255	849.811
37.082	24.817	1048.060	849.080
38.096	24.815	1047.660	848.672
39.111	25.077	1046.977	849.281
40.126	25.270	1045.802	849.167
41.140	25.093	1044.816	847.458
42.155	24.761	1043.661	844.875
43.169	24.455	1042.084	842.081
44.184	24.507	1041.378	841.682
45.199	24.539	1040.440	840.998
46.213	24.420	1039.229	839.385
47.228	24.478	1038.660	839.126
48.242	24.594	1037.992	839.054
49.257	24.783	1036.962	839.038
50.271	24.694	1036.636	838.279
51.286	24.891	1036.084	838.682
52.301	25.000	1035.316	838.499
53.315	25.039	1034.256	837.746
54.330	24.968	1033.433	836.675
55.344	24.874	1032.821	835.668
56.359	24.912	1031.935	835.052
57.374	24.903	1031.153	834.305
58.388	24.783	1030.416	833.076
59.403	24.604	1029.775	831.650
60.417	24.634	1028.879	830.993
61.432	24.419	1028.115	829.305
62.447	24.519	1027.630	829.303
63.461	24.572	1026.822	828.821
64.476	24.640	1026.079	828.465
65.490	24.708	1024.885	827.742
66.505	24.520	1024.235	826.277
67.520	24.480	1023.652	825.545
68.534	24.761	1022.447	825.799
69.549	24.518	1021.777	824.063
70.563	24.310	1020.226	821.780
71.578	24.035	1019.708	820.025
72.593	24.122	1018.913	819.715
73.607	24.067	1017.353	818.131
74.622	24.067	1016.973	817.755
75.636	24.367	1016.306	818.523
76.651	24.561	1015.448	818.648
77.666	24.425	1014.694	817.348
78.680	24.275	1013.979	816.011
79.695	24.211	1013.812	815.513
80.709	24.446	1012.828	815.722
81.724	24.645	1012.041	815.924
82.739	24.467	1011.134	814.310
83.753	24.355	1010.739	813.406
84.768	24.707	1009.985	814.331
85.782	25.037	1009.259	815.178
86.797	25.215	1008.192	815.054
87.812	25.031	1008.205	814.153
88.826	25.051	1006.268	812.609
89.841	25.019	1006.176	812.319
90.855	25.162	1004.942	811.898
91.870	25.106	1004.849	811.499
92.884	25.189	1003.345	810.585
93.899	25.134	1002.348	809.461
94.914	24.957	1001.591	807.980
95.928	25.135	1000.596	807.909
96.943	25.115	999.764	807.076
97.957	24.833	998.397	804.631
98.972	24.783	997.501	803.613
99.987	24.391	996.886	801.288
101.001	24.423	996.051	800.686
102.016	24.789	995.722	801.995
103.030	24.820	994.460	801.044
104.045	24.851	993.210	800.108
105.060	24.635	992.079	798.160
106.074	24.616	991.042	797.167
107.089	24.537	990.395	796.226
108.103	24.810	990.360	797.346
109.118	24.953	989.313	797.067
110.133	24.486	988.429	794.208
111.147	24.626	987.680	794.160
112.162	24.630	985.754	792.555
113.176	24.246	985.230	790.365
114.191	24.459	984.358	790.538
115.206	24.582	983.931	790.667
116.220	24.201	982.431	787.709
117.235	24.017	981.530	786.105
118.249	24.324	981.032	786.991
119.264	24.250	980.260	785.976
120.279	24.138	979.588	784.874
121.293	24.265	978.746	784.688
122.308	24.351	977.933	784.345
123.322	24.397	976.870	783.626
124.337	24.161	976.395	782.142
125.352	24.235	974.771	781.095
126.366	23.726	973.346	777.656
127.381	23.369	972.231	775.133
128.395	23.979	971.729	777.331
129.410	24.587	971.336	779.602
130.424	24.668	970.949	779.576
131.439	24.773	969.998	779.200
132.454	24.809	969.049	778.524
133.468	24.680	968.383	777.360
134.483	24.573	967.457	776.085
135.497	24.678	966.779	775.929
136.512	25.049	966.144	776.958
137.527	25.090	965.195	776.303
138.541	25.054	964.483	775.510
139.556	25.052	963.864	774.932
140.570	24.999	963.035	773.969
141.585	25.083	962.377	773.731
142.600	25.286	961.534	773.863
143.614	25.075	960.399	771.971
144.629	24.979	960.242	771.364
145.643	25.318	959.541	772.190
146.658	25.201	958.294	770.617
147.673	24.969	957.022	768.529
148.687	24.836	956.257	767.280
149.702	24.767	955.130	766.010
150.716	24.823	953.883	765.182
151.731	24.855	952.538	764.172
152.746	24.945	951.915	763.989
153.760	25.047	951.763	764.235
154.775	25.102	951.446	764.148
155.789	25.219	950.262	763.624
156.804	25.266	949.366	763.038
157.819	25.112	948.373	761.518
158.833	25.125	947.675	760.946
159.848	25.190	946.774	760.431
160.862	25.368	945.830	760.358
161.877	25.258	944.647	758.875
162.892	25.080	944.118	757.631
163.906	25.251	943.207	757.553
164.921	25.230	942.391	756.743
165.935	25.183	941.213	755.535
166.950	25.249	940.569	755.225
167.964	25.133	939.861	754.102
168.979	25.103	939.133	753.329
169.994	25.045	937.776	751.931
171.008	24.846	936.821	750.261
172.023	25.071	936.008	750.485
173.037	25.291	935.551	750.976
174.052	25.116	934.398	749.252
175.067	24.990	933.173	747.678
176.081	24.880	932.571	746.668
177.096	24.959	931.672	746.213
178.110	24.905	930.908	745.309
179.125	24.660	930.219	743.672
180.140	24.525	928.556	741.717
181.154	24.476	928.359	741.291
182.169	24.633	928.111	741.680
183.183	24.909	927.313	742.121
184.198	25.216	926.748	742.873
185.213	25.088	926.516	742.090
186.227	25.062	925.636	741.214
187.242	25.113	925.297	741.090
188.256	25.098	924.440	740.274
189.271	25.117	923.908	739.861
190.286	25.255	923.156	739.760
191.300	25.199	921.975	738.520
192.315	24.619	920.736	735.078
193.329	23.907	919.007	730.705
194.344	23.429	918.363	728.167
195.359	23.935	919.147	730.806
196.373	24.804	919.069	734.245
197.388	24.991	919.039	734.923
198.402	24.959	918.249	734.094
199.417	25.004	917.870	733.910
200.432	25.096	917.223	733.706
201.446	24.839	916.791	732.243
202.461	24.656	915.510	730.408
203.475	24.672	915.491	730.395
204.490	24.434	913.271	727.590
205.504	23.215	911.367	721.046
206.519	23.547	911.814	722.685
207.534	24.541	911.607	726.506
208.548	24.567	911.623	726.559
209.563	25.008	911.138	727.903
210.577	25.144	910.219	727.652
211.592	24.930	909.247	725.946
212.607	25.275	909.237	727.272
213.621	25.356	909.035	727.373
214.636	25.313	907.961	726.274
215.650	25.286	907.597	725.811
216.665	25.161	906.997	724.763
217.680	25.226	906.544	724.598
218.694	25.288	906.107	724.434
219.709	24.923	905.066	722.068
220.723	24.706	904.035	720.307
221.738	24.891	903.307	720.408
222.753	25.103	903.071	721.007
223.767	24.977	902.396	719.899
224.782	24.937	901.877	719.259
225.796	25.160	901.419	719.728
226.811	25.342	900.904	719.982
227.826	24.972	899.335	717.182
228.840	24.023	898.235	712.445
229.855	24.169	897.039	712.020
230.869	24.415	896.995	712.904
231.884	24.066	896.237	710.842
232.899	24.121	895.374	710.317
233.913	25.010	895.524	713.917
234.928	24.929	895.721	713.687
235.942	24.948	894.812	712.975
236.957	25.010	893.637	712.222
237.972	24.691	893.070	710.441
238.986	24.640	892.190	709.473
240.001	24.684	892.066	709.487
241.015	24.709	891.335	708.945
242.030	24.764	890.824	708.690
243.045	24.928	890.226	708.804
244.059	25.030	889.669	708.699
245.074	25.147	889.301	708.805
246.088	25.143	888.566	708.142
247.103	24.590	888.203	705.605
248.117	24.797	887.322	705.659
249.132	25.404	886.924	707.674
250.147	25.673	886.949	708.690
251.161	25.624	886.706	708.240
252.176	25.953	885.879	708.814
253.190	25.992	885.352	708.482
254.205	26.020	884.789	708.077
255.220	26.096	884.459	708.048
256.234	26.039	883.984	707.381
257.249	26.062	883.070	706.679
258.263	25.930	882.292	705.478
259.278	25.925	881.747	704.958
260.293	25.923	881.728	704.874
261.307	26.034	881.062	704.712
262.322	26.017	880.177	703.876
263.336	25.918	879.153	702.610
264.351	25.334	878.210	699.520
265.366	24.116	876.370	693.252
266.380	23.872	874.957	691.126
267.395	24.745	875.921	695.221
268.409	25.520	876.083	698.299
269.424	25.473	875.157	697.319
270.439	25.712	874.550	697.698
271.453	25.851	873.948	697.696
272.468	25.741	873.199	696.612
273.482	25.950	872.683	696.944
274.497	25.761	873.398	696.724
275.512	25.805	872.039	695.748
276.526	25.230	870.553	692.281
277.541	25.465	870.306	692.930
278.555	25.859	870.019	694.160
279.570	25.631	869.253	692.608
280.585	25.378	868.740	691.164
281.599	25.512	868.279	691.252
282.614	25.629	867.544	691.057
283.628	25.256	866.392	688.646
284.643	24.877	865.690	686.573
285.657	25.402	865.342	688.250
286.672	25.250	864.468	686.913
287.687	24.773	863.797	684.495
288.701	25.008	863.994	685.489
289.716	25.354	863.684	686.503
290.730	24.960	862.832	684.262
291.745	25.138	861.854	684.102
292.760	24.817	860.739	681.935
293.774	24.618	860.786	681.155
294.789	25.658	860.801	685.066
295.803	26.281	861.105	687.619
296.818	26.228	860.894	687.187
297.833	26.484	859.983	687.375
298.847	25.974	859.134	684.697
299.862	25.716	858.375	683.055
300.876	26.087	857.365	683.594
301.891	26.264	857.714	684.483
302.906	26.327	856.676	683.835
303.920	25.974	855.611	681.588
304.935	25.705	855.159	680.151
305.949	26.097	855.174	681.585
306.964	26.311	854.592	681.869
307.979	25.988	853.741	679.911
308.993	25.945	853.390	679.410
310.008	26.236	853.396	680.449
311.022	26.398	852.675	680.424
312.037	26.326	851.937	679.504
313.052	26.096	851.296	678.070
314.066	26.061	850.114	676.936
315.081	25.207	848.983	672.775
316.095	24.504	847.763	669.114
317.110	25.156	848.070	671.741
318.125	26.000	848.530	675.208
319.139	25.413	847.344	672.010
320.154	24.279	845.524	666.272
321.168	23.963	844.381	664.132
322.183	24.462	845.101	666.504
323.197	25.422	845.634	670.450
324.212	25.748	845.200	671.262
325.227	25.894	844.464	671.162
326.241	26.076	844.080	671.473
327.256	25.885	843.573	670.300
328.270	25.848	842.914	669.580
329.285	25.818	841.981	668.668
330.300	25.674	841.422	667.630
331.314	25.280	840.368	665.276
332.329	25.489	839.775	665.521
333.343	25.845	839.949	666.919
334.358	26.144	839.665	667.741
335.373	26.122	839.075	667.132
336.387	26.170	838.255	666.595
337.402	26.244	838.513	667.017
338.416	26.622	837.760	667.754
339.431	26.516	837.421	667.033
340.446	26.640	836.854	666.977
341.460	26.797	836.396	667.134
342.475	26.936	835.310	666.718
343.489	26.541	835.064	665.012
344.504	26.485	834.257	664.105
345.519	26.834	834.056	665.165
346.533	27.063	833.550	665.543
347.548	27.023	833.432	665.241
348.562	26.923	833.001	664.473
349.577	26.920	832.140	663.717
350.592	26.801	831.748	662.909
351.606	26.979	830.918	662.841
352.621	26.992	830.646	662.614
353.635	26.834	830.241	661.654
354.650	26.672	829.706	660.579
355.665	26.229	828.836	658.216
356.679	25.346	826.957	653.451
357.694	25.145	826.515	652.312
358.708	25.931	826.429	655.047
359.723	25.808	825.744	653.999
360.738	26.012	825.834	654.754
361.752	26.379	825.974	656.137
362.767	26.787	825.071	656.841
363.781	26.754	825.345	656.881
364.796	27.260	824.781	658.207
365.810	27.149	824.828	657.784
366.825	27.279	824.274	657.754
367.840	27.183	824.100	657.211
368.854	27.258	823.181	656.688
369.869	26.830	821.999	654.146
370.883	26.549	821.714	652.845
371.898	26.711	821.040	652.836
372.913	26.644	820.259	651.918
373.927	26.704	819.857	651.754
374.942	26.853	819.304	651.793
375.956	26.869	818.880	651.457
376.971	27.016	818.261	651.436
377.986	27.078	818.036	651.418
379.000	27.338	817.474	651.844
380.015	27.305	817.065	651.345
381.029	27.134	816.038	649.857
382.044	27.023	815.581	649.040
383.059	27.138	815.338	649.200
384.073	27.390	814.612	649.462
385.088	27.296	814.088	648.651
386.102	27.289	813.612	648.189
387.117	27.084	812.732	646.700
388.132	26.988	812.436	646.068
389.146	26.636	811.951	644.372
390.161	26.187	810.818	641.821
391.175	26.482	810.174	642.301
392.190	27.009	810.221	644.152
393.205	26.908	810.008	643.568
394.219	25.845	808.213	638.320
395.234	24.226	805.668	630.531
396.248	23.445	804.829	627.059
397.263	24.559	805.734	631.649
398.278	26.382	807.211	639.202
399.292	26.714	807.345	640.426
400.307	26.556	806.265	638.953
401.321	26.654	805.774	638.854
402.336	26.702	805.275	638.570
403.350	26.923	805.146	639.190
404.365	27.357	805.580	641.009
405.380	27.619	805.047	641.451
406.394	27.883	805.258	642.489
407.409	28.060	804.648	642.568
408.423	28.047	803.949	641.906
409.438	27.923	803.265	640.871
410.453	27.925	802.796	640.445
411.467	28.070	802.378	640.563
412.482	28.019	802.064	640.077
413.496	27.827	801.597	638.975
414.511	27.998	801.519	639.456
415.526	28.119	800.706	639.173
416.540	27.956	800.636	638.490
417.555	28.058	799.881	638.190
418.569	27.570	799.244	635.923
419.584	27.695	798.389	635.622
420.599	27.506	798.295	634.833
421.613	110.070	1285.915	1459.146
422.628	94.834	1356.958	1459.252
