DTS Sentinel unit serial number:	SN413079Multiplexer serial number:	ORYXHardware model number:	OX4-SRSoftware version number:	ORYX F/W v4.00 Oryx Data Collector v3.7.2.0data status	okinstallation	princeton_trtdifferential loss correction	single-endedforward channel	channel 3reverse channel	N/Adate	2019/09/10time	21:18:11forward acquisition time	60.00reverse acquisition time	0.00gamma	496.2192k internal	0.2328k external	0.2328temperature offset calibration	0.9918default loss term (dB/km)	0.3790temperature slope calibration	1.0000multiplexer offset coefficient	1.0000multiplexer slope coefficient	1.0000fibre end	0.00T internal ref (°C)	31.31T ext. ref 1 (°C)	-0.33T ext. ref 2 (°C)	24.44length (m)	temperature (°C)	Stokes	anti-Stokes-747.200	-79.218	0.095	0.032
-746.185	-200.000	0.041	0.370
-745.171	-138.661	0.128	-0.014
-744.156	95.356	-0.265	0.304
-743.142	-73.340	-0.092	0.034
-742.127	-73.772	-0.206	-0.075
-741.112	186.172	-0.108	-0.162
-740.098	2.878	-0.040	-0.029
-739.083	-65.134	0.335	0.136
-738.069	279.718	0.065	0.117
-737.054	-115.537	-0.333	0.063
-736.039	-98.851	-0.346	0.089
-735.025	-200.000	0.034	0.190
-734.010	-128.378	-0.242	0.035
-732.996	426.098	0.234	-0.509
-731.981	-155.432	0.259	0.017
-730.966	800.000	-0.027	0.084
-729.952	239.138	-0.082	0.137
-728.937	545.154	-0.020	0.048
-727.923	800.000	-0.081	-0.229
-726.908	-55.177	-0.386	-0.175
-725.894	-186.188	-0.121	-0.002
-724.879	287.681	0.151	-0.275
-723.864	-141.025	-0.408	-0.042
-722.850	-166.332	-0.221	0.009
-721.835	-200.000	0.013	-0.196
-720.821	592.764	-0.152	-0.378
-719.806	-163.296	-0.034	0.002
-718.791	-200.000	0.020	-0.171
-717.777	800.000	0.043	-0.169
-716.762	316.929	0.150	0.286
-715.748	-50.124	-0.130	-0.062
-714.733	337.800	-0.023	0.045
-713.718	-200.000	-0.030	-0.138
-712.704	254.550	-0.026	0.045
-711.689	107.590	-0.055	0.066
-710.675	14.138	-0.180	-0.141
-709.660	26.207	0.155	-0.130
-708.645	129.396	-0.044	0.057
-707.631	-32.679	-0.284	0.159
-706.616	-41.042	-0.155	0.081
-705.602	-59.458	0.163	0.071
-704.587	92.474	0.142	0.161
-703.572	-51.348	-0.179	-0.084
-702.558	-164.187	0.048	0.002
-701.543	-3.362	-0.160	0.112
-700.529	22.814	0.181	-0.149
-699.514	-67.241	-0.122	-0.048
-698.499	800.000	-0.119	-0.518
-697.485	-60.915	-0.342	-0.145
-696.470	202.954	-0.111	-0.173
-695.456	171.995	-0.151	-0.218
-694.441	-164.953	-0.095	-0.004
-693.426	98.794	-0.187	-0.218
-692.412	37.054	0.093	-0.083
-691.397	115.937	-0.125	-0.154
-690.383	-60.869	0.063	-0.027
-689.368	91.758	0.268	-0.304
-688.354	66.887	-0.124	-0.127
-687.339	85.121	0.116	-0.127
-686.324	96.715	0.177	-0.204
-685.310	-12.452	-0.083	-0.055
-684.295	221.664	0.160	-0.258
-683.281	-200.000	0.032	0.252
-682.266	-58.079	-0.214	0.094
-681.251	-9.426	-0.229	-0.154
-680.237	-47.401	-0.095	-0.046
-679.222	-77.082	-0.176	-0.062
-678.208	-120.828	-0.213	0.036
-677.193	800.000	0.052	-0.177
-676.178	-12.032	0.095	0.062
-675.164	-92.674	-0.198	0.056
-674.149	-200.000	-0.046	-0.250
-673.135	-164.129	-0.077	-0.004
-672.120	-200.000	-0.021	0.116
-671.105	800.000	-0.024	0.084
-670.091	-200.000	-0.007	-0.148
-669.076	194.489	-0.041	-0.063
-668.062	124.555	0.036	0.046
-667.047	26.716	0.177	-0.149
-666.032	-200.000	0.043	-0.356
-665.018	-155.377	0.153	-0.010
-664.003	-200.000	-0.027	-0.187
-662.989	-144.363	0.116	-0.011
-661.974	244.893	-0.149	-0.251
-660.959	342.132	0.075	-0.148
-659.945	296.048	0.031	-0.057
-658.930	2.880	0.129	-0.094
-657.916	-200.000	-0.028	0.164
-656.901	687.032	0.028	0.074
-655.886	4.647	-0.124	-0.091
-654.872	24.246	-0.382	-0.317
-653.857	-76.134	0.181	0.064
-652.843	60.720	-0.187	0.186
-651.828	-108.232	-0.307	0.067
-650.814	31.388	0.025	-0.021
-649.799	-34.807	0.239	0.131
-648.784	800.000	0.102	-0.441
-647.770	-200.000	0.038	0.394
-646.755	-26.995	0.147	-0.086
-645.741	-56.533	0.236	0.105
-644.726	-18.716	-0.071	-0.044
-643.711	-61.676	-0.076	-0.032
-642.697	318.375	-0.158	-0.301
-641.682	-114.750	0.052	0.010
-640.668	611.481	0.024	0.059
-639.653	14.034	-0.169	0.132
-638.638	-115.586	0.109	-0.020
-637.624	27.529	-0.210	-0.177
-636.609	-200.000	0.014	0.289
-635.595	-200.000	-0.002	-0.050
-634.580	800.000	0.071	0.281
-633.565	800.000	-0.102	-0.286
-632.551	-47.713	-0.297	0.145
-631.536	800.000	0.048	-0.150
-630.522	-138.354	0.308	0.034
-629.507	389.096	-0.117	0.243
-628.492	800.000	0.064	-0.179
-627.478	29.279	-0.058	0.049
-626.463	-200.000	0.052	-0.371
-625.449	65.209	-0.109	0.110
-624.434	187.459	-0.206	0.309
-623.419	121.733	-0.114	0.143
-622.405	-133.974	-0.056	0.007
-621.390	-82.302	-0.129	-0.042
-620.376	-19.052	-0.215	0.134
-619.361	215.424	-0.045	0.072
-618.346	-36.085	-0.258	-0.140
-617.332	-200.000	-0.036	0.211
-616.317	28.293	0.308	0.261
-615.303	150.797	-0.250	0.340
-614.288	-200.000	-0.041	-0.395
-613.273	-155.516	-0.158	-0.010
-612.259	-131.481	-0.173	0.023
-611.244	506.384	0.087	0.203
-610.230	50.883	-0.180	0.171
-609.215	-75.390	0.084	-0.030
-608.201	-61.430	-0.298	0.126
-607.186	120.307	-0.057	-0.071
-606.171	-147.095	0.132	-0.011
-605.157	139.501	0.221	-0.292
-604.142	112.817	-0.161	0.195
-603.128	-110.184	-0.108	0.023
-602.113	800.000	0.015	-0.062
-601.098	-53.602	-0.204	-0.093
-600.084	-200.000	-0.006	-0.109
-599.069	-96.620	-0.244	-0.064
-598.055	85.569	-0.341	-0.376
-597.040	-35.231	-0.281	-0.153
-596.025	800.000	0.153	-0.464
-595.011	-6.163	-0.016	-0.011
-593.996	-200.000	0.030	0.157
-592.982	106.068	-0.116	0.137
-591.967	-67.820	-0.228	-0.089
-590.952	800.000	-0.017	0.074
-589.938	73.798	-0.216	0.227
-588.923	58.959	-0.066	0.065
-587.909	38.622	-0.093	0.083
-586.894	-120.291	-0.366	0.062
-585.879	89.815	0.153	0.171
-584.865	800.000	-0.084	0.267
-583.850	170.969	0.056	-0.081
-582.836	-200.000	0.043	-0.357
-581.821	-98.260	-0.217	-0.056
-580.806	-98.759	-0.366	-0.093
-579.792	-56.833	0.128	0.056
-578.777	516.289	-0.111	0.261
-577.763	-113.342	0.167	0.033
-576.748	84.838	0.219	-0.240
-575.733	-200.000	0.048	-0.317
-574.719	-126.595	0.178	-0.026
-573.704	-71.832	0.051	-0.019
-572.690	-200.000	-0.066	0.309
-571.675	-134.340	-0.133	0.016
-570.661	56.300	0.147	-0.143
-569.646	346.692	-0.116	-0.228
-568.631	-125.142	0.016	0.002
-567.617	117.767	-0.050	-0.061
-566.602	-66.416	-0.456	0.181
-565.588	78.973	0.173	-0.185
-564.573	-200.000	-0.031	-0.175
-563.558	70.752	-0.204	-0.211
-562.544	-74.131	0.129	0.047
-561.529	28.267	0.159	-0.134
-560.515	619.895	-0.109	0.275
-559.500	-200.000	0.013	-0.089
-558.485	-200.000	0.008	-0.199
-557.471	115.664	0.144	0.176
-556.456	87.356	-0.049	0.054
-555.442	-4.314	0.283	0.196
-554.427	27.220	-0.231	-0.194
-553.412	213.643	-0.047	-0.075
-552.398	800.000	0.040	-0.147
-551.383	-200.000	0.015	0.067
-550.369	432.861	0.033	0.072
-549.354	800.000	-0.050	-0.144
-548.339	-183.289	0.340	0.006
-547.325	0.587	-0.136	0.097
-546.310	-121.235	-0.132	-0.022
-545.296	800.000	0.068	0.202
-544.281	300.704	-0.129	0.238
-543.266	571.083	-0.053	0.128
-542.252	-165.902	0.128	-0.005
-541.237	-84.974	-0.274	-0.086
-540.223	29.735	-0.155	0.132
-539.208	109.939	-0.211	0.253
-538.193	-158.853	-0.270	-0.015
-537.179	-200.000	0.013	-0.255
-536.164	-189.231	-0.390	0.005
-535.150	-9.913	0.273	0.181
-534.135	-92.550	0.217	0.061
-533.121	-200.000	0.039	-0.247
-532.106	-48.844	-0.034	0.016
-531.091	757.037	-0.054	0.147
-530.077	435.575	0.066	0.143
-529.062	-60.058	0.093	-0.040
-528.048	-44.588	-0.070	0.035
-527.033	-138.255	-0.378	0.042
-526.018	-42.251	-0.356	-0.181
-525.004	-143.500	-0.101	0.010
-523.989	-182.264	0.128	0.002
-522.975	535.938	0.224	-0.530
-521.960	-107.690	0.283	-0.062
-520.945	38.392	-0.096	0.085
-519.931	166.949	0.162	0.230
-518.916	-63.042	-0.277	0.114
-517.902	-52.191	-0.227	0.105
-516.887	-83.521	0.270	-0.086
-515.872	199.954	-0.106	-0.162
-514.858	55.577	0.153	0.148
-513.843	67.194	0.212	0.216
-512.829	-136.516	-0.085	-0.010
-511.814	-200.000	-0.009	-0.069
-510.799	186.802	-0.095	0.141
-509.785	-129.602	0.482	-0.067
-508.770	130.342	-0.243	-0.311
-507.756	-102.501	-0.217	0.052
-506.741	-95.478	-0.230	0.062
-505.726	800.000	-0.061	-0.218
-504.712	-187.048	-0.388	0.005
-503.697	800.000	-0.053	0.158
-502.683	176.638	-0.096	-0.139
-501.668	-34.766	0.200	-0.109
-500.653	-68.356	-0.096	-0.037
-499.639	51.532	0.251	0.238
-498.624	-182.702	-0.254	0.005
-497.610	86.902	0.215	-0.236
-496.595	800.000	-0.040	-0.137
-495.581	-28.294	-0.135	-0.078
-494.566	-99.684	0.164	-0.041
-493.551	800.000	-0.030	0.096
-492.537	-111.606	0.079	0.016
-491.522	-112.108	0.203	0.041
-490.508	-93.931	-0.437	0.120
-489.493	-41.966	-0.073	-0.037
-488.478	-200.000	-0.036	0.262
-487.464	-37.079	-0.068	0.036
-486.449	-2.348	-0.255	0.178
-485.435	140.489	0.066	-0.087
-484.420	47.697	0.028	0.026
-483.405	-200.000	-0.062	0.360
-482.391	-197.551	-0.168	0.001
-481.376	800.000	-0.135	-0.467
-480.362	-200.000	0.008	0.335
-479.347	-81.177	0.010	0.003
-478.332	800.000	-0.032	0.099
-477.318	-53.948	-0.120	-0.055
-476.303	-7.565	0.070	-0.047
-475.289	-49.271	0.085	-0.041
-474.274	132.033	0.219	0.282
-473.259	-200.000	-0.045	-0.401
-472.245	-74.687	0.238	0.085
-471.230	-8.823	0.156	-0.104
-470.216	800.000	0.063	-0.206
-469.201	124.247	-0.086	0.107
-468.186	-22.180	0.457	-0.277
-467.172	-185.024	0.425	-0.007
-466.157	-117.002	0.298	-0.054
-465.143	-150.387	0.139	-0.011
-464.128	-62.785	-0.055	0.023
-463.113	-82.031	0.244	-0.079
-462.099	78.814	0.280	-0.298
-461.084	193.534	-0.129	0.194
-460.070	-133.854	0.118	0.015
-459.055	-168.515	-0.190	-0.007
-458.040	-78.265	-0.106	-0.036
-457.026	57.878	-0.183	0.179
-456.011	56.507	0.177	-0.171
-454.997	-200.000	-0.048	-0.395
-453.982	800.000	0.058	-0.201
-452.968	-10.002	-0.239	-0.158
-451.953	-34.512	0.258	0.141
-450.938	258.552	0.136	0.233
-449.924	32.127	0.080	-0.069
-448.909	-200.000	0.010	0.198
-447.895	115.839	-0.084	-0.102
-446.880	69.052	0.143	-0.146
-445.865	-200.000	0.069	-0.330
-444.851	114.384	0.150	-0.182
-443.836	-133.355	-0.195	-0.024
-442.822	91.861	0.145	0.163
-441.807	288.155	0.038	-0.068
-440.792	-200.000	-0.027	-0.332
-439.778	-114.044	-0.567	-0.109
-438.763	-108.089	-0.248	-0.054
-437.749	-90.091	0.102	0.030
-436.734	-140.358	0.261	-0.027
-435.719	72.559	0.178	0.185
-434.705	19.969	-0.358	-0.287
-433.690	800.000	0.064	-0.245
-432.676	-112.737	-0.155	-0.031
-431.661	-200.000	0.067	0.537
-430.646	133.748	0.050	-0.065
-429.632	-133.267	-0.274	0.034
-428.617	-27.696	0.140	-0.081
-427.603	158.508	-0.086	0.119
-426.588	-106.986	0.127	-0.028
-425.573	495.018	0.094	-0.215
-424.559	-95.897	0.425	-0.113
-423.544	-53.473	-0.058	-0.027
-422.530	11.849	0.155	0.118
-421.515	-121.144	0.046	0.008
-420.500	-122.005	-0.116	-0.019
-419.486	116.593	0.071	0.087
-418.471	215.253	-0.104	-0.165
-417.457	566.355	-0.103	0.249
-416.442	800.000	-0.066	0.237
-415.428	-139.050	-0.150	-0.016
-414.413	-56.765	0.219	-0.096
-413.398	800.000	0.081	-0.275
-412.384	800.000	0.098	-0.364
-411.369	-68.003	-0.313	-0.121
-410.355	72.555	-0.068	-0.070
-409.340	-145.780	-0.174	0.015
-408.325	-20.735	0.285	-0.174
-407.311	-166.308	0.124	0.005
-406.296	-200.000	-0.008	0.195
-405.282	-200.000	-0.009	0.069
-404.267	407.454	-0.039	0.081
-403.252	-166.886	0.131	0.005
-402.238	436.717	-0.053	0.115
-401.223	226.571	-0.154	0.248
-400.209	-200.000	0.027	0.201
-399.194	800.000	0.102	-0.325
-398.179	367.853	0.068	0.136
-397.165	-147.985	0.215	-0.018
-396.150	-0.849	-0.075	-0.053
-395.136	115.427	0.037	0.044
-394.121	-5.822	0.111	0.075
-393.106	-94.083	0.284	0.077
-392.092	-144.353	-0.256	-0.024
-391.077	-9.233	-0.084	-0.056
-390.063	-105.070	0.242	0.055
-389.048	-9.091	-0.085	-0.057
-388.033	-100.073	-0.114	-0.028
-387.019	100.444	0.101	-0.117
-386.004	195.967	0.107	0.161
-384.990	800.000	-0.118	0.492
-383.975	-200.000	0.008	-0.103
-382.960	58.017	0.115	0.112
-381.946	243.715	0.072	-0.120
-380.931	-145.565	-0.161	0.014
-379.917	-200.000	0.012	0.204
-378.902	-200.000	-0.031	0.395
-377.888	-116.288	0.204	-0.037
-376.873	523.186	0.086	0.200
-375.858	800.000	-0.081	0.237
-374.844	800.000	-0.102	0.437
-373.829	-200.000	-0.054	-0.319
-372.815	80.408	-0.210	-0.224
-371.800	-131.487	-0.265	-0.035
-370.785	-38.436	-0.222	-0.117
-369.771	21.060	0.033	0.026
-368.756	-200.000	0.053	0.361
-367.742	-113.718	0.242	0.047
-366.727	-180.752	-0.300	0.006
-365.712	-24.548	-0.300	-0.177
-364.698	152.008	0.182	0.246
-363.683	344.322	0.147	0.286
-362.669	154.697	0.121	0.166
-361.654	-160.673	-0.085	0.004
-360.639	-111.665	0.199	0.040
-359.625	-200.000	-0.069	0.367
-358.610	102.501	-0.107	-0.124
-357.596	60.047	-0.186	-0.182
-356.581	55.586	-0.107	-0.103
-355.566	-103.083	-0.316	-0.074
-354.552	-200.000	-0.026	-0.133
-353.537	-46.106	-0.050	0.025
-352.523	-120.277	-0.323	-0.055
-351.508	-121.065	0.101	-0.017
-350.493	365.900	-0.033	-0.067
-349.479	-200.000	0.046	-0.392
-348.464	800.000	-0.024	-0.076
-347.450	-200.000	0.026	-0.416
-346.435	172.568	0.181	0.258
-345.420	-200.000	0.024	-0.194
-344.406	800.000	0.082	-0.273
-343.391	-86.832	-0.289	-0.088
-342.377	49.436	-0.194	-0.181
-341.362	599.377	0.136	0.334
-340.348	800.000	-0.076	-0.316
-339.333	800.000	0.071	-0.264
-338.318	-98.979	-0.320	0.081
-337.304	-185.617	0.229	0.003
-336.289	-46.434	0.363	-0.177
-335.275	-74.546	0.272	0.097
-334.260	15.470	-0.057	0.044
-333.245	800.000	0.046	-0.129
-332.231	-49.099	-0.150	0.071
-331.216	-200.000	-0.007	-0.109
-330.202	-200.000	0.058	0.280
-329.187	-106.313	0.217	0.048
-328.172	-129.671	0.301	0.041
-327.158	139.796	0.084	0.109
-326.143	-142.420	-0.400	0.039
-325.129	43.232	0.133	0.120
-324.114	42.395	0.098	-0.088
-323.099	-93.671	0.449	0.123
-322.085	-73.213	-0.280	0.102
-321.070	81.282	-0.187	0.200
-320.056	80.711	0.011	0.012
-319.041	210.590	0.164	-0.255
-318.026	45.262	0.174	0.159
-317.012	23.790	-0.151	-0.123
-315.997	17.066	0.061	-0.048
-314.983	474.081	-0.099	0.221
-313.968	-48.834	-0.147	-0.070
-312.953	94.505	0.231	-0.260
-311.939	188.949	-0.107	0.159
-310.924	-92.440	-0.223	-0.062
-309.910	-3.408	-0.271	-0.187
-308.895	-74.972	-0.297	0.105
-307.880	-16.642	0.224	-0.140
-306.866	-200.000	0.001	-0.056
-305.851	-200.000	-0.008	-0.044
-304.837	-111.535	0.353	0.071
-303.822	-117.433	-0.184	-0.033
-302.807	-152.956	0.321	0.022
-301.793	-103.422	0.413	0.096
-300.778	-36.193	0.128	-0.068
-299.764	445.705	0.088	-0.191
-298.749	-200.000	-0.030	0.219
-297.735	-90.721	-0.026	-0.007
-296.720	91.598	-0.223	-0.248
-295.705	-200.000	-0.003	0.021
-294.691	-200.000	0.006	-0.113
-293.676	-47.063	-0.255	-0.123
-292.662	456.511	-0.105	0.232
-291.647	307.011	0.189	0.349
-290.632	800.000	0.032	0.124
-289.618	346.353	0.112	0.218
-288.603	-200.000	0.009	0.355
-287.589	461.830	0.068	0.150
-286.574	-103.456	0.249	-0.058
-285.559	800.000	-0.043	-0.156
-284.545	327.032	-0.086	0.163
-283.530	-171.473	0.203	-0.007
-282.516	498.408	0.082	-0.186
-281.501	1.745	0.310	-0.221
-280.486	800.000	-0.020	-0.084
-279.472	-200.000	0.027	0.224
-278.457	-157.327	-0.149	-0.009
-277.443	-200.000	0.023	0.167
-276.428	-195.567	0.387	-0.003
-275.413	169.193	-0.103	-0.145
-274.399	-200.000	-0.002	0.272
-273.384	-159.907	-0.159	0.009
-272.370	227.376	-0.006	0.010
-271.355	800.000	-0.039	0.114
-270.340	98.877	0.063	-0.072
-269.326	-200.000	0.005	-0.066
-268.311	800.000	0.135	-0.401
-267.297	-200.000	0.012	0.068
-266.282	3.307	0.117	0.084
-265.267	334.363	0.042	0.080
-264.253	-200.000	-0.021	0.391
-263.238	38.810	-0.101	0.090
-262.224	-55.276	-0.198	0.088
-261.209	-200.000	0.002	-0.045
-260.195	-200.000	-0.059	0.325
-259.180	76.799	0.358	-0.376
-258.165	-153.763	-0.092	0.006
-257.151	-79.757	0.242	0.081
-256.136	18.073	0.128	0.101
-255.122	-200.000	-0.035	-0.157
-254.107	608.216	-0.117	-0.289
-253.092	-125.929	-0.304	-0.045
-252.078	-117.003	0.210	0.038
-251.063	512.594	-0.049	-0.113
-250.049	6.571	-0.296	-0.218
-249.034	60.325	0.074	0.072
-248.019	32.655	-0.252	0.215
-247.005	-200.000	-0.009	0.074
-245.990	800.000	0.025	-0.086
-244.976	-31.014	0.226	-0.126
-243.961	-200.000	-0.007	-0.163
-242.946	-68.207	-0.214	0.082
-241.932	-87.719	-0.156	-0.046
-240.917	478.584	0.204	0.456
-239.903	42.821	0.316	0.285
-238.888	1.080	0.196	0.139
-237.873	800.000	-0.037	-0.145
-236.859	-53.799	-0.195	0.088
-235.844	-75.565	-0.234	-0.082
-234.830	-108.917	-0.013	0.003
-233.815	152.104	-0.326	-0.440
-232.800	-163.692	0.300	-0.014
-231.786	-87.208	0.154	0.046
-230.771	74.721	0.162	0.169
-229.757	-111.894	0.180	0.036
-228.742	28.951	0.020	-0.017
-227.727	250.388	0.138	-0.232
-226.713	115.162	0.097	-0.117
-225.698	-24.646	0.169	-0.099
-224.684	-200.000	0.046	-0.345
-223.669	-74.062	0.196	0.070
-222.655	-100.968	0.267	-0.065
-221.640	-158.361	0.343	-0.020
-220.625	94.158	-0.063	-0.070
-219.611	-144.984	0.186	-0.017
-218.596	104.474	0.096	-0.112
-217.582	-25.541	-0.124	0.072
-216.567	-200.000	-0.045	0.239
-215.552	-164.739	-0.227	0.010
-214.538	86.208	0.104	-0.113
-213.523	553.681	0.131	-0.310
-212.509	800.000	-0.049	0.179
-211.494	-76.081	0.188	0.066
-210.479	-14.476	0.304	0.193
-209.465	196.999	-0.041	0.061
-208.450	580.563	-0.069	-0.166
-207.436	-119.364	0.254	0.044
-206.421	-200.000	-0.055	0.285
-205.406	-89.954	-0.158	0.045
-204.392	-169.096	0.351	0.013
-203.377	-98.948	0.482	-0.121
-202.363	-23.772	-0.134	-0.079
-201.348	615.617	0.075	0.187
-200.333	-37.481	-0.245	0.129
-199.319	213.228	0.141	-0.219
-198.304	224.502	-0.049	0.079
-197.290	-57.790	-0.286	-0.123
-196.275	100.966	0.250	0.287
-195.260	-89.763	-0.227	0.065
-194.246	-51.057	0.161	0.074
-193.231	-11.930	-0.089	0.058
-192.217	-200.000	0.091	-0.422
-191.202	800.000	-0.080	0.336
-190.187	429.329	-0.060	-0.127
-189.173	-200.000	-0.052	-0.287
-188.158	-119.634	-0.116	0.020
-187.144	124.482	-0.087	-0.108
-186.129	800.000	0.049	0.182
-185.114	42.415	-0.358	0.321
-184.100	59.585	-0.107	0.104
-183.085	493.809	0.103	0.233
-182.071	629.875	0.053	-0.133
-181.056	-6.731	-0.235	-0.158
-180.042	16.095	-0.102	0.079
-179.027	59.055	0.128	-0.125
-178.012	42.563	0.308	0.276
-176.998	-74.047	-0.119	-0.043
-175.983	177.828	-0.046	-0.066
-174.969	-102.505	-0.089	-0.021
-173.954	134.875	0.052	0.067
-172.939	60.594	0.174	0.170
-171.925	52.414	0.405	-0.381
-170.910	620.086	-0.054	-0.133
-169.896	281.864	-0.076	-0.134
-168.881	608.420	-0.128	0.314
-167.866	-78.712	-0.115	-0.039
-166.852	525.532	0.081	0.188
-165.837	-111.135	-0.213	-0.043
-164.823	-200.000	-0.019	-0.112
-163.808	-74.995	0.500	0.176
-162.793	-35.763	-0.264	-0.141
-161.779	393.059	0.097	-0.198
-160.764	251.518	0.183	0.307
-159.750	75.127	0.164	-0.170
-158.735	100.303	0.158	0.180
-157.720	-58.331	0.277	0.119
-156.706	313.772	0.045	-0.083
-155.691	-142.805	-0.444	0.043
-154.677	-113.546	0.264	-0.051
-153.662	44.846	0.084	0.076
-152.647	-165.632	-0.309	0.013
-151.633	276.863	0.056	-0.098
-150.618	-200.000	0.024	-0.131
-149.604	71.899	0.248	0.254
-148.589	-16.282	0.281	0.175
-147.574	-200.000	-0.007	-0.215
-146.560	544.675	-0.184	0.432
-145.545	-60.462	0.228	0.095
-144.531	248.014	-0.021	0.035
-143.516	-145.192	0.289	-0.026
-142.502	-41.105	-0.285	0.145
-141.487	-101.961	0.290	-0.069
-140.472	800.000	-0.048	0.187
-139.458	-200.000	-0.013	-0.360
-138.443	23.066	-0.222	-0.179
-137.429	-17.243	0.279	-0.173
-136.414	-200.000	-0.133	0.001
-135.399	-32.579	0.173	0.095
-134.385	531.403	-0.063	-0.146
-133.370	-47.075	-0.104	0.050
-132.356	-200.000	-0.068	0.353
-131.341	-8.202	-0.223	0.148
-130.326	145.118	0.169	0.223
-129.312	373.063	-0.048	0.096
-128.297	473.336	-0.059	0.131
-127.283	208.006	0.057	0.087
-126.268	800.000	0.108	-0.348
-125.253	-25.437	0.057	0.033
-124.239	76.040	0.011	0.011
-123.224	-80.698	0.117	-0.038
-122.210	-47.128	0.172	-0.083
-121.195	800.000	0.011	-0.045
-120.180	800.000	-0.079	-0.267
-119.166	800.000	0.118	-0.396
-118.151	-200.000	0.016	-0.072
-117.137	189.850	0.077	-0.114
-116.122	800.000	-0.088	-0.266
-115.107	581.446	0.046	-0.112
-114.093	-200.000	-0.133	-0.000
-113.078	-200.000	-0.022	0.207
-112.064	-200.000	0.003	-0.252
-111.049	-138.370	-0.144	0.016
-110.034	-200.000	-0.021	0.108
-109.020	800.000	0.093	-0.278
-108.005	6.549	-0.307	0.224
-106.991	-128.664	0.393	0.055
-105.976	232.579	-0.128	0.207
-104.962	800.000	0.167	-0.630
-103.947	-156.626	0.267	-0.016
-102.932	105.109	-0.126	-0.146
-101.918	372.307	0.051	-0.101
-100.903	-22.709	-0.172	-0.102
-99.889	-200.000	-0.015	0.078
-98.874	-103.843	0.179	0.041
-97.859	-130.886	0.175	0.023
-96.845	5.861	0.269	-0.196
-95.830	188.428	0.088	-0.129
-94.816	91.975	-0.237	-0.262
-93.801	214.221	-0.038	-0.059
-92.786	-200.000	0.025	0.109
-91.772	25.374	-0.076	0.062
-90.757	-96.514	0.263	0.068
-89.743	-200.000	0.040	0.324
-88.728	51.139	0.336	-0.313
-87.713	-191.766	-0.105	-0.001
-86.699	-200.000	-0.045	0.243
-85.684	667.651	-0.161	0.408
-84.670	-45.689	-0.124	0.060
-83.655	-29.319	-0.090	-0.051
-82.640	-11.119	0.052	0.034
-81.626	305.829	-0.021	-0.039
-80.611	543.550	0.156	0.367
-79.597	351.122	-0.015	-0.030
-78.582	-185.792	-0.243	-0.004
-77.567	-69.973	0.184	0.069
-76.553	-58.153	0.275	0.118
-75.538	-129.610	0.187	0.025
-74.524	133.963	-0.168	-0.213
-73.509	116.842	-0.075	0.090
-72.494	-148.591	0.154	-0.012
-71.480	-39.914	0.220	-0.113
-70.465	497.761	-0.073	-0.164
-69.451	320.184	-0.068	0.126
-68.436	-69.999	-0.263	-0.098
-67.422	-110.736	0.165	-0.033
-66.407	751.601	0.071	0.188
-65.392	61.109	-0.304	0.296
-64.378	78.520	-0.156	0.163
-63.363	38.017	0.183	0.159
-62.349	226.454	0.049	-0.078
-61.334	21.229	-1.245	-0.992
-60.319	161.160	0.328	0.450
-59.305	-200.000	-0.128	-0.986
-58.290	199.970	0.718	1.081
-57.276	453.952	0.608	1.321
-56.261	-200.000	98.688	612.880
-55.246	589.727	1408.576	3406.172
-54.232	191.453	2601.712	3842.660
-53.217	116.342	2163.802	2600.895
-52.203	42.273	1699.220	1514.295
-51.188	34.628	1511.891	1295.667
-50.173	32.114	1486.083	1256.700
-49.159	51.846	1536.582	1434.134
-48.144	53.267	1554.561	1460.532
-47.130	34.719	1513.334	1297.313
-46.115	31.602	1498.115	1263.222
-45.100	31.402	1494.890	1259.103
-44.086	31.357	1493.186	1257.314
-43.071	31.354	1490.607	1255.076
-42.057	31.360	1489.219	1253.895
-41.042	31.295	1488.031	1252.407
-40.027	31.280	1486.623	1251.077
-39.013	31.331	1485.032	1250.027
-37.998	31.270	1483.804	1248.536
-36.984	31.303	1482.437	1247.557
-35.969	31.217	1481.061	1245.773
-34.954	31.318	1479.806	1245.344
-33.940	31.371	1478.321	1244.399
-32.925	31.376	1477.075	1243.332
-31.911	31.358	1476.088	1242.335
-30.896	31.366	1474.650	1241.128
-29.881	31.383	1473.173	1239.948
-28.867	31.399	1471.726	1238.786
-27.852	31.389	1470.293	1237.460
-26.838	31.295	1469.590	1236.199
-25.823	31.455	1467.561	1235.500
-24.809	31.373	1465.702	1233.345
-23.794	31.384	1463.985	1231.925
-22.779	31.378	1462.685	1230.745
-21.765	31.313	1462.117	1229.789
-20.750	31.355	1461.169	1229.219
-19.736	31.309	1460.236	1228.082
-18.721	31.313	1458.854	1226.895
-17.706	31.341	1457.501	1225.897
-16.692	31.293	1456.308	1224.528
-15.677	31.427	1455.326	1224.534
-14.663	31.268	1454.233	1222.524
-13.648	31.178	1453.914	1221.617
-12.633	31.263	1452.742	1221.142
-11.619	31.190	1451.920	1219.921
-10.604	31.248	1451.333	1219.758
-9.590	31.214	1450.806	1219.050
-8.575	31.307	1449.510	1218.519
-7.560	31.295	1448.256	1217.334
-6.546	31.271	1447.797	1216.748
-5.531	31.296	1446.967	1216.165
-4.517	31.207	1446.051	1214.763
-3.502	31.215	1445.135	1213.999
-2.487	31.187	1443.980	1212.798
-1.473	31.258	1442.684	1212.123
-0.458	31.319	1441.430	1211.418
0.556	28.992	1431.562	1199.707
1.571	25.795	1405.192	1157.001
2.586	22.188	1344.163	1084.447
3.600	20.500	1261.817	1008.139
4.615	19.433	1217.537	966.700
5.629	16.732	1162.695	908.598
6.644	8.018	1078.823	799.429
7.659	0.829	1038.551	734.696
8.673	-0.154	1032.834	725.835
9.688	-0.407	1029.635	722.305
10.702	-0.384	1028.022	721.220
11.717	-0.365	1025.743	719.650
12.731	2.735	1029.244	736.952
13.746	11.551	1041.858	788.643
14.761	18.072	1049.652	826.089
15.775	19.082	1050.370	831.465
16.790	19.221	1049.927	831.709
17.804	18.903	1048.785	829.198
18.819	18.624	1048.262	827.369
19.834	18.758	1047.804	827.577
20.848	18.824	1047.158	827.314
21.863	18.753	1046.993	826.764
22.877	18.751	1045.972	825.880
23.892	18.878	1045.275	825.867
24.907	18.737	1044.620	824.595
25.921	18.786	1043.969	824.246
26.936	18.800	1043.353	823.753
27.950	18.847	1041.794	822.675
28.965	18.739	1040.882	821.365
29.980	18.647	1039.177	819.508
30.994	18.572	1037.605	817.837
32.009	18.797	1037.156	818.483
33.023	19.004	1035.868	818.378
34.038	18.683	1034.494	815.697
35.053	18.749	1033.687	815.301
36.067	18.903	1033.541	815.846
37.082	18.870	1033.158	815.313
38.096	19.001	1032.005	814.951
39.111	19.010	1031.447	814.482
40.126	19.050	1030.296	813.691
41.140	19.047	1028.870	812.481
42.155	18.885	1027.103	810.246
43.169	18.608	1025.713	807.775
44.184	18.593	1024.765	806.888
45.199	18.675	1023.876	806.499
46.213	18.545	1023.222	805.304
47.228	18.531	1021.626	803.911
48.242	18.649	1021.153	804.019
49.257	18.669	1020.009	803.144
50.271	18.678	1019.448	802.669
51.286	18.823	1018.678	802.671
52.301	18.927	1017.374	802.057
53.315	18.874	1016.606	801.134
54.330	18.786	1016.163	800.305
55.344	18.778	1015.335	799.544
56.359	18.838	1014.422	799.034
57.374	18.780	1013.655	798.091
58.388	18.629	1012.276	796.235
59.403	18.664	1011.844	795.987
60.417	18.775	1010.740	795.561
61.432	18.665	1009.491	793.997
62.447	18.628	1009.061	793.417
63.461	18.651	1008.735	793.196
64.476	18.669	1007.972	792.612
65.490	18.672	1006.888	791.701
66.505	18.660	1005.733	790.669
67.520	18.687	1004.938	790.100
68.534	18.828	1004.175	790.075
69.549	18.731	1003.088	788.707
70.563	18.387	1002.074	786.261
71.578	18.314	1001.359	785.297
72.593	18.304	1000.529	784.528
73.607	18.319	999.328	783.585
74.622	18.288	998.702	782.886
75.636	18.452	997.917	782.950
76.651	18.659	997.015	783.115
77.666	18.553	996.356	782.049
78.680	18.463	995.150	780.622
79.695	18.371	994.834	779.884
80.709	18.560	993.945	779.977
81.724	18.637	993.599	779.988
82.739	18.570	992.295	778.589
83.753	18.572	991.680	778.050
84.768	18.784	991.080	778.470
85.782	18.944	990.619	778.765
86.797	19.032	989.555	778.258
87.812	19.062	988.787	777.719
88.826	18.885	987.583	775.906
89.841	18.912	986.774	775.322
90.855	19.111	985.881	775.447
91.870	19.033	985.220	774.510
92.884	19.090	984.429	774.073
93.899	18.895	983.615	772.492
94.914	18.827	982.352	771.127
95.928	19.031	981.509	771.308
96.943	18.971	981.096	770.650
97.957	18.776	979.688	768.599
98.972	18.570	978.516	766.695
99.987	18.271	977.672	764.627
101.001	18.368	977.298	764.700
102.016	18.631	976.523	765.200
103.030	18.639	975.800	764.600
104.045	18.710	974.302	763.677
105.060	18.600	972.458	761.677
106.074	18.475	971.670	760.435
107.089	18.502	971.110	760.051
108.103	18.726	971.211	761.053
109.118	18.986	970.039	761.220
110.133	18.715	968.560	758.797
111.147	18.750	967.981	758.429
112.162	18.654	966.385	756.688
113.176	18.420	965.173	754.641
114.191	18.465	964.754	754.443
115.206	18.476	963.574	753.504
116.220	18.338	962.195	751.751
117.235	18.245	961.348	750.615
118.249	18.458	960.431	750.766
119.264	18.464	959.638	750.109
120.279	18.484	958.115	748.940
121.293	18.403	958.108	748.513
122.308	18.448	957.253	747.972
123.322	18.603	956.387	747.909
124.337	18.556	954.753	746.358
125.352	18.379	953.883	744.844
126.366	18.070	951.699	741.733
127.381	17.686	950.542	739.099
128.395	18.210	950.234	741.064
129.410	18.850	949.527	743.217
130.424	18.994	948.758	743.172
131.439	18.749	947.825	741.316
132.454	18.808	946.644	740.584
133.468	18.722	945.680	739.392
134.483	18.695	944.704	738.446
135.497	18.623	944.293	737.753
136.512	19.085	943.647	739.167
137.527	18.950	943.225	738.190
138.541	19.021	941.828	737.337
139.556	19.009	941.458	736.932
140.570	18.956	940.124	735.594
141.585	19.005	939.540	735.280
142.600	19.072	938.521	734.705
143.614	18.979	937.818	733.693
144.629	18.990	937.124	733.132
145.643	19.225	936.328	733.445
146.658	19.159	935.308	732.301
147.673	19.094	933.977	730.916
148.687	18.914	933.371	729.613
149.702	18.954	932.328	728.907
150.716	18.851	930.979	727.348
151.731	18.814	929.910	726.294
152.746	18.907	929.773	726.516
153.760	19.181	928.562	726.663
154.775	19.218	928.064	726.365
155.789	19.174	927.320	725.531
156.804	19.153	926.384	724.649
157.819	19.125	925.132	723.487
158.833	19.141	924.438	722.947
159.848	19.295	923.207	722.567
160.862	19.438	922.139	722.264
161.877	19.175	921.643	720.710
162.892	19.193	920.906	720.147
163.906	19.229	920.318	719.772
164.921	19.266	919.344	719.101
165.935	19.315	918.175	718.328
166.950	19.302	917.335	717.553
167.964	19.353	916.123	716.754
168.979	19.078	915.649	715.176
169.994	19.129	914.640	714.538
171.008	19.005	913.465	713.041
172.023	19.060	912.968	712.819
173.037	19.227	911.937	712.641
174.052	19.127	910.524	711.060
175.067	18.877	909.672	709.304
176.081	18.882	909.086	708.804
177.096	19.109	908.259	709.032
178.110	19.025	907.400	707.953
179.125	18.881	906.053	706.246
180.140	18.698	905.186	704.755
181.154	18.732	904.524	704.320
182.169	18.821	903.936	704.162
183.183	18.920	903.399	704.089
184.198	19.235	903.264	705.209
185.213	19.243	902.175	704.332
186.227	19.202	901.410	703.502
187.242	19.187	900.949	703.019
188.256	19.153	900.243	702.269
189.271	19.149	899.375	701.511
190.286	19.339	898.450	701.503
191.300	19.152	898.203	700.486
192.315	18.742	896.646	697.546
193.329	18.116	895.298	693.895
194.344	17.799	894.010	691.551
195.359	18.227	894.378	693.510
196.373	18.974	894.792	696.794
197.388	19.235	893.873	697.074
198.402	19.255	893.068	696.467
199.417	18.911	892.747	694.767
200.432	18.970	892.172	694.494
201.446	18.714	891.620	692.970
202.461	18.508	890.908	691.526
203.475	18.544	890.089	690.974
204.490	18.222	888.865	688.664
205.504	17.326	886.712	683.336
206.519	17.791	886.609	685.064
207.534	18.493	887.230	688.304
208.548	18.805	886.303	688.777
209.563	19.036	886.331	689.661
210.577	19.231	885.269	689.555
211.592	18.895	884.623	687.646
212.607	19.043	884.837	688.347
213.621	19.114	884.047	687.952
214.636	19.167	882.810	687.141
215.650	19.223	882.667	687.194
216.665	19.242	882.192	686.839
217.680	19.208	881.826	686.357
218.694	19.328	881.201	686.287
219.709	18.956	880.087	683.880
220.723	18.614	879.247	681.809
221.738	18.743	878.766	681.885
222.753	19.054	878.212	682.631
223.767	19.083	877.515	682.142
224.782	19.145	876.469	681.514
225.796	19.116	876.470	681.339
226.811	19.371	875.584	681.601
227.826	18.885	874.245	678.580
228.840	18.240	872.573	674.681
229.855	18.278	871.970	674.304
230.869	18.417	871.927	674.757
231.884	18.188	870.853	672.966
232.899	18.185	869.862	672.127
233.913	18.974	870.539	675.691
234.928	19.140	869.693	675.629
235.942	18.978	869.619	674.875
236.957	19.256	868.488	675.026
237.972	18.936	867.155	672.678
238.986	18.881	866.592	671.967
240.001	18.956	866.447	672.088
241.015	18.829	865.758	671.001
242.030	18.847	865.179	670.562
243.045	19.121	864.437	670.993
244.059	19.074	864.044	670.450
245.074	19.246	863.529	670.657
246.088	19.100	862.758	669.433
247.103	18.815	861.536	667.317
248.117	18.876	860.968	667.057
249.132	19.315	860.909	668.654
250.147	19.577	860.584	669.357
251.161	19.619	859.755	668.818
252.176	19.811	858.892	668.829
253.190	19.818	858.564	668.540
254.205	19.872	857.885	668.162
255.220	19.968	857.728	668.353
256.234	20.159	856.742	668.259
257.249	19.944	855.955	666.759
258.263	19.906	855.394	666.116
259.278	19.811	854.964	665.358
260.293	19.986	854.464	665.582
261.307	20.080	853.590	665.203
262.322	19.840	852.970	663.740
263.336	19.733	852.191	662.665
264.351	19.239	850.710	659.564
265.366	18.136	849.440	654.303
266.380	17.828	848.097	652.033
267.395	18.694	848.419	655.534
268.409	19.438	848.648	658.494
269.424	19.457	848.028	658.028
270.439	19.686	847.386	658.344
271.453	19.605	847.094	657.750
272.468	19.801	846.208	657.749
273.482	19.815	845.716	657.359
274.497	20.048	845.348	657.902
275.512	19.837	844.514	656.395
276.526	19.344	842.692	653.053
277.541	19.454	842.375	653.168
278.555	19.869	842.205	654.547
279.570	19.634	841.166	652.792
280.585	19.268	840.403	650.761
281.599	19.449	840.317	651.322
282.614	19.684	839.692	651.664
283.628	19.329	838.344	649.222
284.643	19.001	837.700	647.435
285.657	19.383	837.583	648.723
286.672	19.367	836.746	647.958
287.687	18.820	836.049	645.307
288.701	19.172	835.882	646.440
289.716	19.404	835.551	646.997
290.730	19.142	834.682	645.286
291.745	19.127	833.577	644.318
292.760	18.873	832.573	642.536
293.774	18.900	831.813	641.995
294.789	19.501	832.725	644.886
295.803	20.210	832.569	647.356
296.818	20.292	832.351	647.437
297.833	20.448	831.468	647.274
298.847	20.100	830.541	645.199
299.862	19.704	829.538	642.891
300.876	19.981	828.965	643.418
301.891	20.332	828.362	644.195
302.906	20.332	827.664	643.595
303.920	19.845	826.789	641.056
304.935	19.672	826.242	639.935
305.949	20.119	825.873	641.246
306.964	20.227	825.525	641.317
307.979	20.049	824.663	639.936
308.993	20.079	824.145	639.587
310.008	20.279	824.306	640.394
311.022	20.342	824.018	640.347
312.037	20.274	823.105	639.327
313.052	20.035	822.530	637.946
314.066	20.106	821.834	637.609
315.081	19.401	820.301	633.775
316.095	18.860	819.026	630.749
317.110	19.426	819.153	632.868
318.125	20.014	819.883	635.534
319.139	19.699	818.487	633.242
320.154	18.743	816.906	628.464
321.168	18.293	816.253	626.259
322.183	18.984	816.210	628.700
323.197	19.677	816.160	631.137
324.212	19.773	816.292	631.532
325.227	20.099	815.603	632.134
326.241	20.187	815.066	631.983
327.256	20.180	814.609	631.548
328.270	20.011	814.225	630.579
329.285	20.025	813.796	630.241
330.300	19.827	812.787	628.684
331.314	19.608	811.756	627.037
332.329	19.794	811.086	627.138
333.343	20.063	810.694	627.754
334.358	20.221	809.940	627.688
335.373	20.259	809.667	627.555
336.387	20.234	809.179	627.034
337.402	20.579	808.815	627.940
338.416	20.627	808.432	627.763
339.431	20.627	807.854	627.258
340.446	20.692	807.030	626.794
341.460	20.793	806.704	626.850
342.475	20.699	805.959	625.878
343.489	20.554	804.978	624.541
344.504	20.631	804.987	624.768
345.519	20.698	804.796	624.806
346.533	21.008	804.318	625.490
347.548	21.123	803.814	625.455
348.562	20.963	803.491	624.577
349.577	20.971	803.014	624.180
350.592	20.984	802.468	623.746
351.606	20.809	802.103	622.781
352.621	21.033	801.470	623.036
353.635	20.835	800.647	621.634
354.650	20.789	800.204	621.070
355.665	20.513	799.085	619.166
356.679	19.483	797.948	614.562
357.694	19.446	797.235	613.827
358.708	20.010	797.019	615.614
359.723	19.963	796.680	615.127
360.738	20.191	796.420	615.682
361.752	20.565	795.984	616.619
362.767	20.561	795.798	616.407
363.781	20.926	795.644	617.523
364.796	21.219	795.242	618.196
365.810	21.357	794.802	618.288
366.825	21.255	794.982	618.013
367.840	21.249	794.408	617.488
368.854	21.052	793.746	616.225
369.869	20.718	792.712	614.187
370.883	20.630	791.827	613.140
371.898	20.728	791.380	613.082
372.913	20.509	790.674	611.711
373.927	20.426	790.584	611.296
374.942	20.788	789.716	611.843
375.956	20.822	789.488	611.732
376.971	20.942	788.724	611.505
377.986	21.073	787.917	611.286
379.000	21.153	788.085	611.641
380.015	21.247	787.461	611.432
381.029	21.121	786.654	610.310
382.044	21.203	786.000	610.035
383.059	21.104	785.882	609.546
384.073	21.125	785.556	609.312
385.088	21.228	784.693	608.949
386.102	21.266	784.551	608.917
387.117	21.157	783.775	607.882
388.132	21.005	783.269	606.903
389.146	20.920	782.479	605.945
390.161	20.409	781.707	603.517
391.175	20.477	781.317	603.400
392.190	20.853	781.409	604.720
393.205	20.944	780.751	604.474
394.219	20.053	779.274	600.191
395.234	18.692	777.395	593.986
396.248	18.092	776.398	591.096
397.263	19.098	777.073	595.040
398.278	20.819	777.924	601.587
399.292	21.086	778.038	602.545
400.307	20.779	777.257	600.826
401.321	20.858	776.943	600.805
402.336	20.821	776.882	600.575
403.350	21.151	776.494	601.361
404.365	21.482	776.272	602.276
405.380	21.828	775.984	603.188
406.394	21.803	775.698	602.826
407.409	21.959	774.985	602.755
408.423	21.730	774.950	601.887
409.438	21.868	774.194	601.721
410.453	21.642	774.271	600.951
411.467	21.913	773.569	601.283
412.482	21.925	772.763	600.644
413.496	21.809	772.482	599.975
414.511	21.811	772.433	599.893
415.526	21.709	772.219	599.325
416.540	21.878	771.291	599.128
417.555	21.873	770.711	598.606
418.569	21.472	770.143	596.745
419.584	21.494	769.323	596.133
420.599	21.559	769.046	596.087
421.613	157.651	1361.276	1795.846
422.628	135.882	1447.536	1795.935
