DTS Sentinel unit serial number:	SN413079Multiplexer serial number:	ORYXHardware model number:	OX4-SRSoftware version number:	ORYX F/W v4.00 Oryx Data Collector v3.7.2.0data status	okinstallation	princeton_trtdifferential loss correction	single-endedforward channel	channel 3reverse channel	N/Adate	2019/09/12time	03:50:11forward acquisition time	60.00reverse acquisition time	0.00gamma	496.2192k internal	0.2322k external	0.2322temperature offset calibration	1.0065default loss term (dB/km)	0.3790temperature slope calibration	1.0000multiplexer offset coefficient	1.0000multiplexer slope coefficient	1.0000fibre end	0.00T internal ref (°C)	32.16T ext. ref 1 (°C)	2.13T ext. ref 2 (°C)	27.30length (m)	temperature (°C)	Stokes	anti-Stokes-747.200	521.802	-0.232	0.551
-746.185	11.661	0.163	-0.126
-745.171	46.119	-0.172	0.161
-744.156	83.860	-0.148	0.164
-743.142	202.799	-0.094	-0.147
-742.127	220.946	0.171	0.277
-741.112	669.952	0.102	-0.268
-740.098	18.963	0.163	-0.132
-739.083	27.782	-0.180	0.153
-738.069	-118.761	-0.483	0.086
-737.054	-200.000	0.030	0.251
-736.039	18.522	-0.107	0.087
-735.025	217.235	0.202	-0.324
-734.010	28.138	0.186	0.159
-732.996	-38.310	0.140	-0.075
-731.981	-55.511	-0.252	0.114
-730.966	-83.173	0.274	-0.089
-729.952	-92.760	-0.080	-0.023
-728.937	-66.910	-0.052	0.021
-727.923	131.433	-0.079	0.102
-726.908	-47.938	0.041	0.020
-725.894	-200.000	-0.042	0.350
-724.879	-200.000	0.062	0.301
-723.864	113.329	-0.173	0.212
-722.850	290.410	-0.118	0.216
-721.835	-117.453	-0.103	0.019
-720.821	189.745	0.139	-0.211
-719.806	-77.268	0.234	0.082
-718.791	-80.616	-0.214	-0.072
-717.777	800.000	-0.123	-0.379
-716.762	-200.000	0.006	-0.032
-715.748	-31.156	-0.059	-0.034
-714.733	233.706	0.083	-0.138
-713.718	366.887	0.046	0.094
-712.704	569.592	-0.061	-0.149
-711.689	-66.925	-0.124	0.049
-710.675	204.957	0.057	-0.089
-709.660	9.517	0.365	-0.279
-708.645	-192.969	-0.337	-0.003
-707.631	-5.430	0.205	0.142
-706.616	-25.099	-0.224	0.134
-705.602	534.454	-0.114	-0.273
-704.587	-200.000	0.031	-0.396
-703.572	800.000	-0.112	-0.332
-702.558	418.563	-0.046	-0.099
-701.543	235.069	0.123	0.206
-700.529	150.445	0.244	-0.335
-699.514	-17.774	0.315	-0.199
-698.499	265.390	-0.088	-0.154
-697.485	-200.000	0.025	-0.245
-696.470	-73.542	-0.364	0.134
-695.456	-28.093	-0.026	-0.015
-694.441	168.393	0.188	0.271
-693.426	-39.260	-0.369	0.196
-692.412	-78.935	0.222	-0.076
-691.397	800.000	-0.090	0.259
-690.383	361.701	-0.052	-0.105
-689.368	-200.000	-0.003	-0.194
-688.354	-200.000	0.045	0.000
-687.339	-158.889	0.364	-0.021
-686.324	-41.642	0.182	-0.094
-685.310	116.930	-0.236	0.293
-684.295	-200.000	0.015	0.107
-683.281	-67.591	-0.354	-0.140
-682.266	11.599	0.059	-0.046
-681.251	800.000	-0.075	0.216
-680.237	13.474	0.207	0.162
-679.222	800.000	0.045	-0.196
-678.208	-178.131	0.072	-0.002
-677.193	53.700	-0.082	-0.079
-676.178	-200.000	-0.012	-0.335
-675.164	314.705	-0.198	-0.376
-674.149	255.060	-0.083	-0.143
-673.135	-48.078	0.160	-0.078
-672.120	-200.000	0.023	0.104
-671.105	-147.089	0.320	-0.028
-670.091	174.596	-0.155	-0.226
-669.076	222.414	-0.164	-0.265
-668.062	-200.000	-0.013	0.237
-667.047	179.827	0.239	-0.353
-666.032	33.190	-0.202	0.176
-665.018	677.790	-0.139	-0.364
-664.003	-169.710	-0.174	-0.006
-662.989	10.323	-0.149	0.114
-661.974	-200.000	0.014	0.135
-660.959	181.297	0.144	-0.214
-659.945	88.459	-0.154	0.173
-658.930	-144.319	-0.248	0.023
-657.916	-4.458	-0.031	0.022
-656.901	-7.909	-0.473	-0.322
-655.886	183.786	0.088	0.131
-654.872	-11.050	0.260	-0.173
-653.857	-200.000	-0.063	0.366
-652.843	-200.000	0.043	0.206
-651.828	-200.000	0.004	-0.029
-650.814	131.529	0.075	0.097
-649.799	-200.000	0.006	-0.345
-648.784	-200.000	0.061	0.313
-647.770	34.099	-0.106	0.093
-646.755	17.739	0.212	-0.170
-645.741	184.364	-0.016	0.023
-644.726	641.203	0.126	0.323
-643.711	-19.916	-0.145	0.090
-642.697	-188.174	-0.100	-0.001
-641.682	-36.983	0.287	-0.155
-640.668	-142.557	0.165	-0.016
-639.653	-110.518	0.183	-0.038
-638.638	-34.805	-0.218	0.120
-637.624	10.785	-0.251	0.193
-636.609	-200.000	0.024	-0.259
-635.595	-93.598	-0.229	0.064
-634.580	62.993	-0.263	-0.265
-633.565	-64.690	0.041	0.017
-632.551	-80.536	0.266	-0.089
-631.536	372.824	-0.218	-0.446
-630.522	-200.000	-0.001	0.030
-629.507	-200.000	0.012	-0.124
-628.492	-4.240	-0.138	-0.096
-627.478	476.452	-0.078	-0.176
-626.463	-200.000	-0.087	-0.399
-625.449	-57.872	0.260	0.114
-624.434	-200.000	0.004	-0.475
-623.419	-43.931	0.310	-0.157
-622.405	-200.000	-0.037	-0.214
-621.390	-148.630	0.158	0.013
-620.376	-130.761	-0.278	-0.038
-619.361	10.457	0.077	-0.059
-618.346	-3.863	-0.098	-0.069
-617.332	-100.255	-0.103	-0.026
-616.317	215.135	-0.089	-0.142
-615.303	-157.701	-0.453	-0.027
-614.288	-71.790	-0.215	0.080
-613.273	-76.823	-0.185	-0.065
-612.259	-200.000	0.014	0.176
-611.244	-200.000	0.044	0.236
-610.230	-108.134	-0.122	-0.027
-609.215	800.000	-0.026	-0.107
-608.201	-28.104	-0.357	-0.207
-607.186	36.694	-0.130	0.116
-606.171	-169.413	-0.071	-0.003
-605.157	250.428	-0.115	0.197
-604.142	-200.000	0.015	-0.240
-603.128	-91.960	-0.102	0.029
-602.113	-200.000	-0.034	0.338
-601.098	196.968	-0.223	0.342
-600.084	-97.567	0.186	-0.049
-599.069	319.548	-0.106	-0.202
-598.055	-120.923	-0.150	0.025
-597.040	-12.231	0.305	0.200
-596.025	-142.906	0.209	0.020
-595.011	-35.007	-0.222	0.121
-593.996	-46.552	0.489	-0.241
-592.982	323.386	0.015	-0.029
-591.967	-124.017	0.123	0.020
-590.952	-55.188	0.042	0.019
-589.938	-200.000	-0.019	-0.112
-588.923	-200.000	-0.042	-0.233
-587.909	187.730	0.213	0.319
-586.894	360.844	-0.173	-0.348
-585.879	-112.762	-0.337	-0.067
-584.865	-200.000	-0.001	0.104
-583.850	409.792	0.108	0.229
-582.836	539.972	0.122	0.291
-581.821	440.966	0.070	-0.154
-580.806	800.000	0.047	-0.131
-579.792	-23.615	-0.102	-0.062
-578.777	266.348	0.148	0.260
-577.763	-150.935	0.012	0.001
-576.748	193.470	0.138	-0.210
-575.733	-140.995	-0.135	0.014
-574.719	104.512	0.230	0.272
-573.704	-53.843	0.183	-0.084
-572.690	172.750	0.021	-0.030
-571.675	-26.650	-0.255	-0.150
-570.661	-26.304	-0.171	0.101
-569.646	-200.000	0.087	0.410
-568.631	-77.489	-0.160	-0.056
-567.617	-200.000	-0.042	0.277
-566.602	288.944	-0.165	0.300
-565.588	25.997	-0.322	0.269
-564.573	20.891	0.280	-0.227
-563.558	-26.183	0.070	0.041
-562.544	44.218	-0.219	-0.202
-561.529	-74.985	-0.145	0.052
-560.515	795.782	0.124	0.342
-559.500	-200.000	-0.005	-0.032
-558.485	-97.911	0.092	-0.024
-557.471	-190.215	-0.206	0.002
-556.456	-115.703	0.157	-0.029
-555.442	-95.178	-0.073	-0.020
-554.427	-28.638	-0.095	0.055
-553.412	79.092	-0.255	0.274
-552.398	444.443	0.168	0.370
-551.383	-17.459	0.176	0.111
-550.369	-114.277	-0.189	-0.036
-549.354	-144.491	-0.447	-0.042
-548.339	372.388	-0.022	0.046
-547.325	-200.000	-0.033	-0.158
-546.310	800.000	-0.017	-0.057
-545.296	-200.000	0.024	0.266
-544.281	155.332	-0.091	-0.125
-543.266	401.780	0.124	0.261
-542.252	-70.033	-0.127	-0.048
-541.237	800.000	0.085	-0.294
-540.223	149.395	-0.028	0.038
-539.208	-200.000	-0.073	0.340
-538.193	-108.154	0.183	0.040
-537.179	-52.441	-0.047	0.022
-536.164	-58.461	-0.301	0.131
-535.150	-200.000	0.009	-0.050
-534.135	254.429	0.119	-0.205
-533.121	37.934	-0.135	-0.120
-532.106	-136.069	0.089	-0.010
-531.091	-16.436	-0.127	-0.081
-530.077	-70.198	-0.153	0.058
-529.062	-68.698	0.216	-0.084
-528.048	-200.000	-0.009	-0.479
-527.033	-200.000	-0.009	-0.293
-526.018	-137.909	0.133	0.015
-525.004	-200.000	-0.052	-0.265
-523.989	-200.000	0.003	-0.207
-522.975	247.982	0.107	0.181
-521.960	-200.000	0.063	-0.313
-520.945	-32.958	-0.035	-0.020
-519.931	-78.998	0.236	0.080
-518.916	-15.627	-0.068	-0.044
-517.902	115.037	-0.054	-0.066
-516.887	19.895	0.061	-0.050
-515.872	91.163	-0.137	-0.154
-514.858	-56.298	-0.233	-0.104
-513.843	-92.307	0.195	-0.055
-512.829	622.456	0.091	-0.230
-511.814	800.000	-0.038	0.110
-510.799	-76.584	-0.223	-0.078
-509.785	-79.808	-0.244	-0.082
-508.770	0.709	-0.278	-0.199
-507.756	800.000	0.037	-0.147
-506.741	744.412	-0.067	0.179
-505.726	342.766	0.099	0.194
-504.712	61.468	0.126	-0.126
-503.697	-27.483	-0.074	-0.043
-502.683	800.000	0.113	0.379
-501.668	779.608	-0.069	0.189
-500.653	-123.104	-0.452	-0.073
-499.639	-121.696	-0.246	-0.041
-498.624	-200.000	-0.029	0.240
-497.610	431.845	-0.201	0.435
-496.595	-200.000	0.014	-0.175
-495.581	161.340	-0.186	-0.260
-494.566	-34.534	-0.260	0.142
-493.551	2.923	-0.076	0.055
-492.537	79.010	-0.245	0.263
-491.522	-200.000	-0.011	0.097
-490.508	-131.057	0.139	-0.019
-489.493	318.288	-0.041	-0.078
-488.478	-9.087	0.127	0.085
-487.464	-200.000	0.007	-0.176
-486.449	-200.000	0.047	0.260
-485.435	-200.000	0.040	-0.260
-484.420	800.000	0.105	0.295
-483.405	-112.042	-0.084	-0.017
-482.391	-200.000	0.073	0.421
-481.376	100.174	0.034	0.039
-480.362	100.873	0.039	-0.045
-479.347	-106.828	0.213	0.047
-478.332	117.733	-0.216	0.266
-477.318	-200.000	-0.026	-0.262
-476.303	-148.701	0.267	0.022
-475.289	800.000	-0.117	-0.454
-474.274	27.207	-0.177	0.149
-473.259	85.219	0.124	0.137
-472.245	152.364	0.010	-0.013
-471.230	222.006	-0.164	-0.263
-470.216	-200.000	0.052	0.262
-469.201	800.000	0.093	0.291
-468.186	-27.844	-0.044	-0.025
-467.172	51.820	-0.133	0.126
-466.157	1.146	-0.275	-0.197
-465.143	-38.633	-0.050	0.027
-464.128	-200.000	0.051	-0.304
-463.113	65.893	0.116	-0.118
-462.099	106.879	0.186	0.221
-461.084	-84.255	-0.259	0.082
-460.070	707.110	0.084	-0.222
-459.055	-188.973	-0.327	-0.004
-458.040	-159.030	-0.324	-0.018
-457.026	-200.000	0.004	-0.073
-456.011	287.526	0.134	0.242
-454.997	800.000	0.084	0.346
-453.982	-41.821	-0.094	-0.048
-452.968	-158.672	-0.162	0.009
-451.953	800.000	0.108	-0.359
-450.938	-40.256	-0.214	-0.111
-449.924	-200.000	0.021	-0.359
-448.909	-109.054	-0.317	0.067
-447.895	-166.375	0.183	-0.008
-446.880	304.517	-0.050	0.093
-445.865	-98.743	-0.077	-0.020
-444.851	-105.196	-0.138	-0.031
-443.836	-161.436	0.142	0.007
-442.822	-2.131	0.053	0.037
-441.807	249.199	0.056	0.094
-440.792	-9.420	0.424	-0.283
-439.778	250.310	-0.107	-0.181
-438.763	-19.605	0.197	-0.122
-437.749	-95.784	0.342	-0.091
-436.734	26.797	-0.163	0.136
-435.719	-66.521	-0.139	0.055
-434.705	-80.918	-0.025	-0.008
-433.690	64.751	0.265	0.267
-432.676	255.931	-0.071	-0.121
-431.661	595.573	-0.122	-0.302
-430.646	-141.221	0.209	0.021
-429.632	-22.911	-0.154	-0.093
-428.617	-200.000	0.064	0.308
-427.603	355.727	0.139	0.276
-426.588	-124.463	0.256	0.040
-425.573	32.580	0.029	0.025
-424.559	800.000	0.092	0.315
-423.544	26.901	-0.108	0.091
-422.530	-175.312	0.138	0.004
-421.515	-200.000	0.016	0.111
-420.500	-61.871	0.125	0.052
-419.486	61.882	0.128	0.127
-418.471	-200.000	0.320	0.001
-417.457	-156.076	-0.156	0.010
-416.442	-200.000	-0.029	-0.147
-415.428	-49.030	0.204	0.098
-414.413	800.000	-0.067	-0.192
-413.398	-200.000	-0.030	-0.287
-412.384	-9.435	0.283	0.188
-411.369	-135.495	0.208	-0.025
-410.355	234.112	0.004	-0.006
-409.340	800.000	-0.149	-0.484
-408.325	-142.746	0.474	0.046
-407.311	800.000	-0.039	0.115
-406.296	-78.076	-0.297	-0.102
-405.282	15.774	-0.238	-0.186
-404.267	800.000	0.105	-0.298
-403.252	29.135	-0.218	-0.185
-402.238	24.472	-0.248	-0.205
-401.223	-87.215	0.263	-0.080
-400.209	-78.653	-0.229	-0.078
-399.194	232.688	0.078	-0.127
-398.179	800.000	0.089	-0.283
-397.165	-200.000	-0.114	0.552
-396.150	20.122	0.156	0.126
-395.136	64.089	0.119	-0.119
-394.121	800.000	-0.040	-0.153
-393.106	800.000	0.078	-0.272
-392.092	-75.045	-0.304	-0.109
-391.077	114.639	0.189	0.229
-390.063	-159.982	0.078	0.004
-389.048	-200.000	0.000	-0.310
-388.033	584.315	-0.039	-0.096
-387.019	509.726	-0.073	-0.170
-386.004	192.573	0.078	0.117
-384.990	800.000	0.084	-0.346
-383.975	-200.000	0.038	-0.180
-382.960	-200.000	0.019	0.193
-381.946	-50.247	-0.136	-0.064
-380.931	-200.000	-0.042	0.189
-379.917	-113.236	-0.038	-0.007
-378.902	135.032	0.087	-0.113
-377.888	-4.852	0.145	-0.100
-376.873	107.823	0.124	-0.147
-375.858	-148.664	0.223	-0.018
-374.844	23.298	0.194	-0.158
-373.829	130.915	0.149	0.190
-372.815	-60.884	-0.307	-0.129
-371.800	-124.218	0.146	0.023
-370.785	26.580	-0.121	0.101
-369.771	227.933	-0.211	0.342
-368.756	-104.368	-0.103	-0.024
-367.742	-32.121	0.018	0.010
-366.727	-68.717	-0.077	0.030
-365.712	360.218	-0.008	0.017
-364.698	-82.313	0.366	0.119
-363.683	-92.297	-0.020	0.006
-362.669	-24.001	-0.204	-0.121
-361.654	-8.584	0.122	-0.082
-360.639	-83.568	0.349	0.111
-359.625	800.000	-0.031	0.091
-358.610	-128.097	0.140	0.020
-357.596	282.395	0.086	-0.154
-356.581	206.306	-0.049	-0.076
-355.566	-200.000	-0.021	0.192
-354.552	800.000	0.108	0.305
-353.537	286.721	0.185	-0.333
-352.523	-187.095	-0.069	0.001
-351.508	99.242	0.207	0.238
-350.493	-200.000	-0.018	0.190
-349.479	-200.000	-0.010	0.249
-348.464	42.723	-0.266	0.241
-347.450	-39.469	0.083	-0.043
-346.435	175.447	-0.126	-0.182
-345.420	-19.340	-0.166	0.103
-344.406	-13.731	0.193	0.125
-343.391	4.546	0.232	-0.169
-342.377	147.331	-0.057	-0.077
-341.362	66.931	-0.189	-0.192
-340.348	-87.181	-0.458	-0.138
-339.333	96.535	0.181	-0.206
-338.318	-69.387	0.048	-0.018
-337.304	85.464	-0.138	0.150
-336.289	-200.000	-0.010	0.385
-335.275	209.205	0.086	0.134
-334.260	-22.060	0.242	0.146
-333.245	136.879	0.088	0.114
-332.231	73.483	-0.207	-0.215
-331.216	-100.941	-0.413	-0.101
-330.202	300.407	0.046	-0.084
-329.187	-34.010	0.277	-0.151
-328.172	-71.759	-0.191	-0.071
-327.158	-200.000	0.031	0.172
-326.143	-33.608	-0.203	0.111
-325.129	-92.868	-0.058	-0.016
-324.114	-125.795	0.203	0.030
-323.099	11.946	-0.375	0.287
-322.085	-151.319	0.355	0.026
-321.070	-146.298	0.376	0.033
-320.056	21.135	-0.029	0.023
-319.041	-114.699	-0.158	-0.030
-318.026	276.124	-0.115	0.202
-317.012	800.000	0.103	0.429
-315.997	-200.000	0.001	0.200
-314.983	-200.000	-0.022	0.402
-313.968	40.350	-0.122	-0.109
-312.953	48.596	-0.249	0.232
-311.939	155.283	-0.106	-0.146
-310.924	15.963	-0.380	-0.298
-309.910	5.812	0.135	-0.099
-308.895	-85.960	-0.270	-0.083
-307.880	44.603	-0.311	-0.284
-306.866	105.539	0.020	0.023
-305.851	599.958	0.100	0.247
-304.837	-74.830	0.321	0.114
-303.822	-101.218	0.360	-0.087
-302.807	152.601	0.068	-0.093
-301.793	2.963	-0.032	-0.023
-300.778	93.403	-0.058	-0.066
-299.764	71.103	0.367	0.378
-298.749	347.749	-0.138	-0.270
-297.735	-57.490	0.220	0.096
-296.720	-90.422	0.245	-0.071
-295.705	-4.104	0.114	0.079
-294.691	-200.000	-0.029	-0.237
-293.676	-105.304	-0.197	-0.045
-292.662	-16.511	0.190	0.120
-291.647	214.934	-0.325	-0.511
-290.632	-129.750	0.216	-0.029
-289.618	316.598	-0.157	0.294
-288.603	286.420	-0.114	-0.205
-287.589	-109.797	0.252	0.052
-286.574	75.276	0.268	-0.280
-285.559	412.095	0.072	0.152
-284.545	-33.258	-0.253	0.139
-283.530	468.026	-0.047	0.104
-282.516	-17.861	-0.024	0.015
-281.501	439.978	-0.117	-0.254
-280.486	-200.000	-0.002	-0.206
-279.472	-50.345	-0.171	0.080
-278.457	422.135	0.039	0.084
-277.443	543.868	0.087	0.207
-276.428	-51.324	0.260	0.121
-275.413	509.805	-0.124	-0.286
-274.399	309.794	0.077	0.143
-273.384	29.181	0.183	-0.154
-272.370	-103.344	0.191	-0.045
-271.355	40.539	0.065	-0.058
-270.340	800.000	0.104	-0.348
-269.326	-200.000	-0.049	0.356
-268.311	800.000	-0.042	0.175
-267.297	-37.948	0.016	-0.009
-266.282	800.000	0.062	-0.245
-265.267	76.068	-0.123	0.129
-264.253	32.668	0.097	-0.083
-263.238	-50.042	-0.132	-0.062
-262.224	12.543	-0.188	0.144
-261.209	54.650	0.152	-0.145
-260.195	-53.153	-0.274	-0.125
-259.180	73.316	0.375	-0.389
-258.165	-80.974	-0.339	-0.111
-257.151	-69.330	-0.124	0.047
-256.136	-200.000	-0.004	0.186
-255.122	63.794	-0.159	0.158
-254.107	-135.731	0.077	-0.009
-253.092	-186.876	0.251	0.003
-252.078	47.998	-0.061	0.057
-251.063	117.069	0.177	0.215
-250.049	-48.954	0.327	-0.155
-249.034	-153.766	0.239	-0.016
-248.019	298.292	0.133	-0.243
-247.005	73.170	-0.184	0.190
-245.990	354.394	-0.069	-0.135
-244.976	23.908	-0.147	-0.120
-243.961	-107.047	-0.366	-0.080
-242.946	417.369	0.105	0.223
-241.932	-200.000	-0.003	-0.056
-240.917	800.000	0.119	0.330
-239.903	-78.994	0.217	0.073
-238.888	764.973	0.055	0.148
-237.873	-200.000	-0.020	0.517
-236.859	-123.680	0.128	-0.020
-235.844	528.215	-0.092	-0.215
-234.830	-23.095	0.233	0.139
-233.815	-127.220	0.262	0.038
-232.800	66.529	-0.044	-0.045
-231.786	93.403	0.135	-0.151
-230.771	80.733	0.307	-0.328
-229.757	0.655	0.079	0.056
-228.742	-32.151	-0.143	0.079
-227.727	77.030	-0.047	0.050
-226.713	-146.645	-0.236	-0.020
-225.698	-91.117	0.081	-0.023
-224.684	-99.568	-0.150	-0.037
-223.669	675.478	-0.056	-0.144
-222.655	-147.935	-0.234	-0.019
-221.640	280.952	0.189	0.335
-220.625	243.589	0.113	0.188
-219.611	-200.000	-0.041	0.369
-218.596	-40.032	0.096	-0.050
-217.582	-32.731	-0.100	0.055
-216.567	-4.219	0.096	-0.066
-215.552	650.903	0.120	0.304
-214.538	215.728	-0.040	-0.063
-213.523	315.353	0.131	-0.244
-212.509	-107.460	-0.175	0.038
-211.494	-97.015	-0.180	-0.047
-210.479	-99.700	-0.103	0.026
-209.465	-60.366	-0.070	0.029
-208.450	290.232	0.181	0.325
-207.436	122.362	-0.157	-0.194
-206.421	-176.358	0.135	0.003
-205.406	37.316	0.365	0.320
-204.392	800.000	-0.043	-0.154
-203.377	-93.129	0.203	0.056
-202.363	-141.710	0.202	0.020
-201.348	34.847	-0.216	-0.187
-200.333	-69.450	-0.276	0.105
-199.319	800.000	-0.052	0.154
-198.304	-0.518	0.122	-0.085
-197.290	185.048	0.064	-0.094
-196.275	-90.571	-0.249	-0.071
-195.260	-200.000	0.026	0.291
-194.246	800.000	0.083	-0.281
-193.231	-106.001	0.225	-0.050
-192.217	-60.591	0.315	-0.132
-191.202	-57.914	0.268	-0.116
-190.187	34.385	0.153	-0.132
-189.173	314.841	0.042	0.078
-188.158	490.713	0.141	-0.320
-187.144	-200.000	-0.050	0.325
-186.129	2.859	-0.069	-0.049
-185.114	51.890	0.148	0.139
-184.100	-102.240	0.117	0.028
-183.085	249.190	0.156	0.261
-182.071	19.640	-0.128	-0.102
-181.056	33.977	-0.312	0.269
-180.042	70.204	0.187	-0.191
-179.027	29.747	0.195	-0.165
-178.012	-73.145	0.211	0.077
-176.998	-30.193	-0.216	-0.121
-175.983	-151.888	-0.165	0.012
-174.969	-200.000	-0.048	-0.262
-173.954	84.675	0.272	0.294
-172.939	323.381	-0.099	-0.187
-171.925	-200.000	0.003	0.133
-170.910	-155.515	-0.279	-0.018
-169.896	-200.000	-0.047	-0.325
-168.881	-200.000	-0.028	0.141
-167.866	254.775	-0.144	0.244
-166.852	328.554	-0.044	0.084
-165.837	-110.547	0.494	0.101
-164.823	9.120	-0.190	-0.142
-163.808	800.000	0.029	-0.084
-162.793	-60.248	0.080	-0.034
-161.779	-200.000	-0.015	-0.256
-160.764	-200.000	-0.038	0.426
-159.750	-56.486	-0.191	-0.084
-158.735	-116.423	0.253	-0.046
-157.720	67.128	-0.084	0.084
-156.706	-53.233	-0.428	0.194
-155.691	105.646	0.120	0.140
-154.677	86.974	0.257	0.281
-153.662	800.000	-0.075	0.292
-152.647	-200.000	-0.023	-0.110
-151.633	25.599	0.300	-0.246
-150.618	1.005	0.337	-0.239
-149.604	-17.536	-0.172	-0.107
-148.589	501.666	-0.082	-0.187
-147.574	409.441	0.096	-0.201
-146.560	172.869	-0.189	-0.268
-145.545	-97.275	0.271	-0.070
-144.531	218.311	-0.162	0.255
-143.516	-102.598	-0.151	0.036
-142.502	-126.887	-0.269	-0.039
-141.487	511.984	-0.129	0.298
-140.472	-1.338	-0.351	0.245
-139.458	-200.000	0.012	-0.345
-138.443	-0.938	0.395	0.276
-137.429	-200.000	-0.023	-0.298
-136.414	-200.000	0.001	0.256
-135.399	-122.376	0.331	-0.053
-134.385	9.022	0.134	0.100
-133.370	592.095	-0.011	-0.027
-132.356	-200.000	-0.064	-0.300
-131.341	100.022	-0.081	0.093
-130.326	27.364	-0.171	0.142
-129.312	13.056	0.128	0.097
-128.297	-200.000	0.125	0.583
-127.283	131.101	0.160	0.203
-126.268	-84.090	0.194	0.061
-125.253	126.941	-0.179	0.224
-124.239	-118.942	-0.177	0.031
-123.224	8.575	-0.143	-0.106
-122.210	-200.000	-0.012	-0.109
-121.195	561.924	-0.083	-0.198
-120.180	-0.383	-0.239	-0.167
-119.166	129.012	0.154	0.193
-118.151	49.721	-0.097	0.091
-117.137	-58.052	0.072	-0.031
-116.122	-51.757	0.173	-0.080
-115.107	191.775	-0.167	0.249
-114.093	80.828	0.055	-0.059
-113.078	145.561	0.073	0.096
-112.064	-132.336	0.215	0.027
-111.049	-200.000	0.014	0.119
-110.034	-86.247	-0.147	-0.045
-109.020	-25.830	0.248	0.144
-108.005	-200.000	0.030	0.133
-106.991	-33.217	0.325	0.178
-105.976	800.000	-0.010	0.027
-104.962	-200.000	0.013	0.211
-103.947	800.000	-0.030	0.117
-102.932	-200.000	-0.008	0.074
-101.918	-64.898	0.141	0.056
-100.903	-140.459	0.293	-0.030
-99.889	-25.163	0.236	0.138
-98.874	-69.160	0.377	0.143
-97.859	229.714	-0.386	-0.621
-96.845	-200.000	-0.015	0.118
-95.830	4.898	0.116	0.084
-94.816	800.000	-0.036	-0.142
-93.801	140.651	0.112	-0.145
-92.786	36.192	0.219	0.190
-91.772	-128.375	0.328	0.046
-90.757	800.000	-0.071	-0.219
-89.743	160.039	-0.162	-0.223
-88.728	-200.000	0.055	-0.247
-87.713	-200.000	0.046	0.255
-86.699	-43.583	0.138	0.068
-85.684	-117.012	0.165	-0.030
-84.670	-21.239	0.102	0.062
-83.655	97.106	-0.075	-0.085
-82.640	-115.745	0.263	0.048
-81.626	800.000	-0.028	0.114
-80.611	276.243	-0.145	-0.253
-79.597	-170.068	0.375	0.013
-78.582	20.881	0.283	-0.226
-77.567	61.650	0.395	-0.387
-76.553	-15.859	-0.053	-0.033
-75.538	24.053	0.099	0.080
-74.524	494.258	0.147	-0.332
-73.509	-106.833	-0.231	0.050
-72.494	-200.000	0.031	0.210
-71.480	43.675	0.241	-0.217
-70.465	-200.000	0.021	0.312
-69.451	496.051	-0.061	-0.138
-68.436	219.342	-0.094	0.148
-67.422	564.068	0.018	0.044
-66.407	-115.027	-0.208	-0.039
-65.392	215.684	-0.145	0.227
-64.378	-77.122	0.121	-0.042
-63.363	-182.411	0.184	-0.003
-62.349	-100.034	-0.102	-0.025
-61.334	51.724	-0.798	-0.746
-60.319	52.003	0.652	0.611
-59.305	445.273	-0.398	-0.861
-58.290	415.082	0.610	1.279
-57.276	800.000	0.467	1.461
-56.261	-200.000	95.518	595.065
-55.246	573.702	1363.417	3270.523
-54.232	162.905	2539.090	3506.807
-53.217	112.917	2156.422	2570.156
-52.203	42.893	1702.948	1526.616
-51.188	35.446	1516.777	1309.116
-50.173	33.017	1490.509	1270.085
-49.159	52.064	1539.269	1442.187
-48.144	54.089	1556.658	1472.256
-47.130	35.591	1516.350	1309.529
-46.115	32.463	1501.747	1275.705
-45.100	32.253	1498.563	1271.533
-44.086	32.246	1496.820	1269.956
-43.071	32.233	1494.849	1268.141
-42.057	32.197	1493.266	1266.508
-41.042	32.212	1491.887	1265.386
-40.027	32.180	1490.395	1263.854
-39.013	32.139	1488.886	1262.254
-37.998	32.097	1487.598	1260.831
-36.984	32.248	1486.560	1260.912
-35.969	32.178	1485.272	1259.302
-34.954	32.252	1484.040	1258.703
-33.940	32.161	1482.527	1256.761
-32.925	32.147	1481.316	1255.589
-31.911	32.186	1479.507	1254.264
-30.896	32.199	1478.036	1253.057
-29.881	32.252	1477.050	1252.523
-28.867	32.243	1475.589	1251.174
-27.852	32.232	1473.785	1249.525
-26.838	32.240	1472.962	1248.831
-25.823	32.282	1471.726	1248.006
-24.809	32.251	1469.245	1245.651
-23.794	32.171	1467.988	1244.005
-22.779	32.036	1467.391	1242.557
-21.765	32.215	1466.092	1242.593
-20.750	32.164	1464.695	1241.021
-19.736	32.172	1463.783	1240.251
-18.721	32.181	1462.126	1238.861
-17.706	32.139	1461.420	1237.932
-16.692	32.212	1460.585	1237.659
-15.677	32.131	1459.039	1235.769
-14.663	32.070	1458.376	1234.758
-13.648	32.107	1457.299	1234.037
-12.633	32.064	1456.663	1233.169
-11.619	32.102	1455.630	1232.491
-10.604	32.152	1454.533	1231.841
-9.590	32.147	1453.900	1231.225
-8.575	32.147	1452.885	1230.317
-7.560	32.094	1452.053	1229.219
-6.546	32.060	1451.606	1228.570
-5.531	32.071	1450.460	1227.623
-4.517	32.147	1449.034	1226.861
-3.502	32.085	1448.303	1225.792
-2.487	32.044	1447.404	1224.713
-1.473	32.053	1446.268	1223.761
-0.458	32.165	1444.655	1223.077
0.556	32.636	1435.501	1212.285
1.571	29.750	1411.623	1173.723
2.586	26.727	1357.420	1110.073
3.600	25.146	1279.496	1037.121
4.615	23.910	1230.747	990.639
5.629	20.429	1173.037	925.587
6.644	10.869	1086.431	809.768
7.659	3.443	1044.478	742.759
8.673	2.348	1039.383	733.818
9.688	2.130	1035.712	730.121
10.702	2.055	1034.170	728.609
11.717	1.988	1032.691	727.183
12.731	5.711	1036.524	747.605
13.746	15.337	1051.007	804.354
14.761	23.123	1060.444	849.029
15.775	25.071	1062.438	859.905
16.790	25.344	1062.256	860.992
17.804	25.321	1061.192	859.941
18.819	25.270	1059.968	858.630
19.834	25.068	1060.023	857.633
20.848	25.314	1059.814	858.562
21.863	25.377	1059.330	858.396
22.877	25.581	1058.348	858.497
23.892	25.435	1057.786	857.272
24.907	25.268	1057.024	855.782
25.921	25.384	1056.717	856.009
26.936	25.298	1055.960	854.909
27.950	25.287	1054.361	853.489
28.965	25.308	1053.633	852.924
29.980	25.118	1052.325	850.885
30.994	25.137	1050.715	849.602
32.009	25.364	1050.191	850.176
33.023	25.486	1049.235	849.903
34.038	25.294	1048.163	848.053
35.053	25.208	1047.595	847.111
36.067	25.449	1046.891	847.608
37.082	25.348	1046.431	846.681
38.096	25.405	1045.206	845.883
39.111	25.460	1045.066	845.957
40.126	25.655	1043.867	845.825
41.140	25.606	1042.628	844.518
42.155	25.376	1040.835	841.911
43.169	24.997	1039.705	839.151
44.184	24.950	1038.862	838.176
45.199	25.072	1038.181	838.124
46.213	25.077	1036.882	837.022
47.228	24.935	1035.995	835.568
48.242	25.268	1035.318	836.503
49.257	25.198	1035.047	835.881
50.271	25.179	1034.311	835.127
51.286	25.421	1033.408	835.450
52.301	25.541	1032.595	835.275
53.315	25.434	1032.508	834.635
54.330	25.458	1031.171	833.590
55.344	25.280	1030.882	832.457
56.359	25.381	1029.663	831.866
57.374	25.379	1028.348	830.724
58.388	25.140	1028.140	829.375
59.403	25.049	1027.450	828.325
60.417	25.038	1026.844	827.713
61.432	24.863	1025.608	825.837
62.447	24.944	1025.147	825.762
63.461	25.062	1024.481	825.700
64.476	25.059	1024.073	825.281
65.490	25.151	1022.828	824.630
66.505	25.043	1021.736	823.181
67.520	24.962	1021.053	822.184
68.534	25.168	1020.508	822.620
69.549	24.992	1019.538	820.957
70.563	24.714	1018.058	818.423
71.578	24.572	1017.434	817.200
72.593	24.635	1016.937	817.013
73.607	24.526	1015.596	815.367
74.622	24.556	1014.650	814.674
75.636	24.795	1013.991	815.159
76.651	25.061	1013.349	815.783
77.666	24.864	1012.561	814.178
78.680	24.682	1012.048	812.868
79.695	24.741	1011.444	812.579
80.709	24.816	1010.652	812.211
81.724	24.955	1010.247	812.444
82.739	24.985	1008.811	811.354
83.753	24.942	1008.358	810.724
84.768	25.210	1007.622	811.271
85.782	25.570	1006.990	812.317
86.797	25.762	1006.320	812.573
87.812	25.718	1005.270	811.452
88.826	25.605	1004.283	810.076
89.841	25.475	1003.693	808.946
90.855	25.471	1003.324	808.557
91.870	25.631	1002.117	808.229
92.884	25.542	1001.437	807.210
93.899	25.495	1000.609	806.260
94.914	25.343	999.360	804.504
95.928	25.529	998.825	804.834
96.943	25.448	998.266	803.950
97.957	25.146	997.037	801.541
98.972	25.017	995.934	800.004
99.987	24.959	994.635	798.631
101.001	24.925	994.454	798.267
102.016	25.374	993.400	799.349
103.030	25.388	992.499	798.616
104.045	25.174	991.600	796.871
105.060	25.166	990.464	795.851
106.074	24.949	989.250	793.842
107.089	24.862	989.000	793.186
108.103	25.328	988.352	794.659
109.118	25.277	987.725	793.860
110.133	25.111	986.523	792.092
111.147	24.988	985.252	790.458
112.162	24.880	984.378	789.209
113.176	24.771	982.996	787.554
114.191	24.940	982.481	787.813
115.206	24.965	981.686	787.217
116.220	24.646	980.627	784.898
117.235	24.594	979.617	783.791
118.249	24.762	979.069	784.020
119.264	24.785	978.369	783.492
120.279	24.590	977.770	782.088
121.293	24.621	976.876	781.440
122.308	24.759	976.085	781.338
123.322	24.828	975.320	780.962
124.337	24.781	974.422	779.967
125.352	24.617	972.972	778.022
126.366	24.339	971.130	775.273
127.381	23.954	969.945	772.586
128.395	24.299	970.022	774.076
129.410	25.176	969.501	777.397
130.424	25.276	968.996	777.356
131.439	25.305	967.874	776.513
132.454	25.207	966.734	775.104
133.468	25.192	966.276	774.604
134.483	25.255	965.308	774.031
135.497	25.175	964.764	773.183
136.512	25.547	963.716	773.876
137.527	25.595	963.108	773.528
138.541	25.493	962.309	772.377
139.556	25.531	961.962	772.195
140.570	25.433	961.314	771.187
141.585	25.365	960.196	769.930
142.600	25.476	959.307	769.622
143.614	25.420	958.613	768.759
144.629	25.595	958.081	769.010
145.643	25.906	957.304	769.648
146.658	25.638	956.462	767.758
147.673	25.596	954.943	766.295
148.687	25.341	954.255	764.587
149.702	25.250	952.860	763.015
150.716	25.228	951.900	762.085
151.731	25.240	950.804	761.193
152.746	25.394	950.033	761.159
153.760	25.572	949.607	761.506
154.775	25.688	948.692	761.194
155.789	25.742	947.953	760.761
156.804	25.693	947.038	759.754
157.819	25.621	945.792	758.385
158.833	25.679	945.532	758.353
159.848	25.678	945.178	757.997
160.862	25.779	944.234	757.598
161.877	25.732	942.932	756.288
162.892	25.590	942.111	754.970
163.906	25.609	941.336	754.360
164.921	25.595	940.529	753.589
165.935	25.515	939.116	752.056
166.950	25.679	938.243	751.975
167.964	25.665	937.335	751.123
168.979	25.597	936.851	750.384
169.994	25.614	935.370	749.201
171.008	25.427	934.298	747.499
172.023	25.444	934.147	747.381
173.037	25.747	932.944	747.613
174.052	25.565	932.080	746.100
175.067	25.426	930.978	744.576
176.081	25.358	930.308	743.691
177.096	25.358	929.430	742.925
178.110	25.445	928.699	742.633
179.125	25.224	927.438	740.648
180.140	24.961	927.078	739.209
181.154	25.030	925.908	738.497
182.169	25.266	925.278	738.898
183.183	25.358	925.228	739.172
184.198	25.703	924.869	740.239
185.213	25.690	923.743	739.217
186.227	25.507	923.506	738.213
187.242	25.763	922.804	738.636
188.256	25.676	922.325	737.829
189.271	25.615	921.589	736.926
190.286	25.682	920.879	736.570
191.300	25.564	919.736	735.108
192.315	25.005	918.754	731.971
193.329	24.244	917.070	727.463
194.344	23.897	916.010	725.144
195.359	24.460	916.275	727.585
196.373	25.301	916.442	731.078
197.388	25.516	916.524	731.954
198.402	25.579	916.010	731.734
199.417	25.496	915.137	730.634
200.432	25.565	914.795	730.580
201.446	25.440	913.952	729.334
202.461	25.050	913.351	727.208
203.475	25.155	912.927	727.230
204.490	24.697	911.899	724.490
205.504	23.661	909.204	718.102
206.519	24.085	909.052	719.630
207.534	24.972	909.637	723.615
208.548	25.127	909.072	723.725
209.563	25.509	909.087	725.216
210.577	25.475	908.144	724.261
211.592	25.303	907.221	722.771
212.607	25.603	907.418	724.072
213.621	25.783	906.725	724.179
214.636	25.634	906.167	723.069
215.650	25.725	905.882	723.144
216.665	25.677	904.735	721.972
217.680	25.740	904.495	721.970
218.694	25.859	903.903	721.909
219.709	25.404	903.223	719.478
220.723	24.882	902.398	716.671
221.738	25.276	901.631	717.572
222.753	25.473	901.135	717.902
223.767	25.465	900.462	717.269
224.782	25.485	899.543	716.556
225.796	25.823	899.062	717.455
226.811	25.868	898.699	717.281
227.826	25.321	897.570	714.142
228.840	24.604	895.614	709.674
229.855	24.541	895.643	709.384
230.869	24.881	894.939	710.113
231.884	24.487	893.949	707.701
232.899	24.466	893.696	707.355
233.913	25.407	893.992	711.256
234.928	25.499	893.320	711.022
235.942	25.465	892.689	710.322
236.957	25.408	891.680	709.232
237.972	25.143	891.121	707.681
238.986	24.941	890.645	706.443
240.001	25.231	889.793	706.848
241.015	25.176	889.210	706.104
242.030	25.184	888.840	705.780
243.045	25.384	888.274	706.053
244.059	25.436	887.866	705.873
245.074	25.654	887.428	706.317
246.088	25.618	886.643	705.488
247.103	25.194	885.780	703.079
248.117	25.112	885.487	702.461
249.132	25.834	885.010	704.848
250.147	26.235	884.813	706.196
251.161	26.332	884.370	706.160
252.176	26.514	883.829	706.376
253.190	26.402	883.303	705.457
254.205	26.477	882.691	705.196
255.220	26.580	882.522	705.399
256.234	26.512	881.982	704.639
257.249	26.447	880.700	703.302
258.263	26.458	880.301	702.962
259.278	26.387	879.906	702.312
260.293	26.358	879.598	701.892
261.307	26.403	878.535	701.156
262.322	26.414	878.267	700.922
263.336	26.483	877.332	700.381
264.351	25.961	876.044	697.273
265.366	24.840	873.949	691.214
266.380	24.319	873.407	688.716
267.395	25.148	873.625	692.027
268.409	25.967	873.777	695.246
269.424	25.992	873.117	694.753
270.439	25.932	872.873	694.267
271.453	26.310	871.867	694.858
272.468	26.158	871.643	694.035
273.482	26.437	871.181	694.678
274.497	26.429	871.148	694.560
275.512	26.440	869.633	693.330
276.526	25.961	868.109	690.221
277.541	25.838	867.980	689.588
278.555	26.446	867.757	691.673
279.570	25.992	867.144	689.390
280.585	25.864	866.228	688.114
281.599	25.890	865.690	687.722
282.614	26.144	865.496	688.479
283.628	25.750	863.901	685.649
284.643	25.326	863.166	683.390
285.657	25.754	863.443	685.178
286.672	25.668	862.654	684.164
287.687	25.153	861.626	681.331
288.701	25.553	861.484	682.679
289.716	25.768	861.421	683.385
290.730	25.651	860.350	682.032
291.745	25.439	859.708	680.657
292.760	25.251	858.707	679.096
293.774	25.252	858.188	678.626
294.789	26.117	858.729	682.269
295.803	26.722	858.950	684.669
296.818	26.712	858.596	684.288
297.833	26.832	857.992	684.198
298.847	26.515	856.533	681.781
299.862	26.180	855.677	679.776
300.876	26.438	855.168	680.285
301.891	26.861	854.918	681.616
302.906	26.887	854.657	681.444
303.920	26.474	853.345	678.789
304.935	26.427	852.588	677.949
305.949	26.627	852.651	678.689
306.964	26.770	851.804	678.491
307.979	26.526	851.349	677.156
308.993	26.447	851.084	676.590
310.008	26.685	851.028	677.373
311.022	26.903	850.292	677.545
312.037	26.671	849.729	676.171
313.052	26.553	848.890	675.002
314.066	26.525	847.869	674.025
315.081	25.712	846.451	669.814
316.095	25.075	845.446	666.591
317.110	25.583	845.540	668.497
318.125	26.361	845.864	671.584
319.139	25.817	845.089	668.892
320.154	24.792	843.111	663.465
321.168	24.395	841.912	660.992
322.183	24.964	842.452	663.467
323.197	25.992	842.907	667.574
324.212	26.327	842.475	668.414
325.227	26.497	842.300	668.843
326.241	26.439	841.942	668.287
327.256	26.302	841.073	667.033
328.270	26.291	840.811	666.725
329.285	26.195	839.997	665.664
330.300	26.014	839.335	664.416
331.314	25.953	838.010	663.085
332.329	26.007	837.867	663.111
333.343	26.453	837.392	664.312
334.358	26.694	837.330	665.092
335.373	26.710	836.606	664.514
336.387	26.670	836.145	663.943
337.402	26.870	836.135	664.609
338.416	27.195	835.737	665.423
339.431	27.043	835.082	664.289
340.446	27.087	834.798	664.163
341.460	27.328	834.207	664.515
342.475	27.237	833.332	663.426
343.489	27.102	832.735	662.401
344.504	26.973	832.073	661.348
345.519	27.171	832.101	662.031
346.533	27.389	831.785	662.516
347.548	27.495	831.366	662.508
348.562	27.393	831.015	661.798
349.577	27.549	830.052	661.539
350.592	27.453	829.497	660.692
351.606	27.374	828.931	659.895
352.621	27.291	828.863	659.481
353.635	27.182	828.190	658.493
354.650	27.191	827.311	657.770
355.665	26.870	826.494	655.900
356.679	25.901	824.557	650.809
357.694	25.660	824.452	649.798
358.708	26.343	824.799	652.479
359.723	26.149	823.816	650.946
360.738	26.673	823.249	652.328
361.752	27.033	823.693	653.918
362.767	27.205	822.898	653.847
363.781	27.381	823.094	654.578
364.796	27.682	822.683	655.273
365.810	27.720	822.579	655.271
366.825	27.835	822.266	655.377
367.840	27.778	821.554	654.547
368.854	27.640	821.368	653.844
369.869	27.187	820.186	651.225
370.883	27.224	819.385	650.664
371.898	27.050	819.310	649.922
372.913	27.112	818.404	649.367
373.927	27.131	817.628	648.763
374.942	27.189	817.321	648.670
375.956	27.457	816.468	648.891
376.971	27.361	816.202	648.278
377.986	27.543	815.434	648.258
379.000	27.744	814.887	648.481
380.015	27.704	814.807	648.217
381.029	27.748	813.884	647.583
382.044	27.493	813.428	646.258
383.059	27.716	813.238	646.839
384.073	27.743	812.735	646.479
385.088	27.788	812.020	646.013
386.102	27.712	811.494	645.267
387.117	27.522	810.503	643.750
388.132	27.365	810.288	642.969
389.146	27.245	809.436	641.814
390.161	26.757	808.727	639.472
391.175	26.856	808.495	639.582
392.190	27.264	808.436	640.915
393.205	27.475	807.772	641.077
394.219	26.566	805.765	636.233
395.234	24.769	803.920	628.412
396.248	24.044	802.765	624.910
397.263	25.169	803.681	629.520
398.278	26.820	804.985	636.284
399.292	27.337	804.862	637.942
400.307	27.014	804.325	636.332
401.321	27.054	803.503	635.763
402.336	27.019	803.485	635.571
403.350	27.378	803.204	636.548
404.365	27.921	803.219	638.403
405.380	28.107	802.890	638.733
406.394	28.290	802.766	639.216
407.409	28.364	802.626	639.306
408.423	28.398	802.156	638.995
409.438	28.455	801.405	638.538
410.453	28.451	800.791	637.980
411.467	28.469	800.682	637.897
412.482	28.398	800.256	637.254
413.496	28.296	799.766	636.454
414.511	28.492	799.157	636.595
415.526	28.445	799.222	636.426
416.540	28.462	798.753	636.057
417.555	28.304	798.093	634.926
418.569	27.918	797.362	632.951
419.584	28.018	796.660	632.684
420.599	28.090	795.964	632.324
421.613	111.449	1285.125	1458.844
422.628	96.046	1356.400	1458.934
