DTS Sentinel unit serial number:	SN413079Multiplexer serial number:	ORYXHardware model number:	OX4-SRSoftware version number:	ORYX F/W v4.00 Oryx Data Collector v3.7.2.0data status	okinstallation	princeton_trtdifferential loss correction	single-endedforward channel	channel 3reverse channel	N/Adate	2019/09/12time	01:34:10forward acquisition time	60.00reverse acquisition time	0.00gamma	496.2192k internal	0.2320k external	0.2320temperature offset calibration	1.0070default loss term (dB/km)	0.3790temperature slope calibration	1.0000multiplexer offset coefficient	1.0000multiplexer slope coefficient	1.0000fibre end	0.00T internal ref (°C)	32.92T ext. ref 1 (°C)	2.07T ext. ref 2 (°C)	27.19length (m)	temperature (°C)	Stokes	anti-Stokes-747.200	-200.000	0.030	0.349
-746.185	609.021	-0.065	0.164
-745.171	800.000	0.059	-0.215
-744.156	285.680	-0.185	0.338
-743.142	-107.270	-0.164	0.036
-742.127	262.022	-0.073	0.128
-741.112	800.000	-0.072	-0.244
-740.098	86.677	0.246	0.274
-739.083	-56.958	0.223	-0.100
-738.069	-200.000	0.002	-0.194
-737.054	59.679	-0.079	-0.079
-736.039	-200.000	0.088	0.400
-735.025	-104.396	0.191	0.045
-734.010	558.028	-0.139	0.339
-732.996	-200.000	-0.004	-0.093
-731.981	-200.000	0.003	-0.060
-730.966	800.000	-0.064	-0.257
-729.952	-115.173	-0.208	-0.040
-728.937	159.544	0.180	-0.253
-727.923	-15.834	0.168	-0.108
-726.908	52.873	-0.077	-0.074
-725.894	-156.727	0.147	0.009
-724.879	-200.000	0.026	0.165
-723.864	92.139	0.167	0.190
-722.850	-200.000	-0.014	0.158
-721.835	-28.451	-0.069	0.040
-720.821	743.418	-0.111	-0.300
-719.806	43.442	-0.349	-0.322
-718.791	-152.925	0.072	-0.005
-717.777	-6.430	-0.193	0.133
-716.762	63.368	0.025	-0.025
-715.748	-57.848	-0.244	-0.108
-714.733	236.375	-0.224	-0.374
-713.718	-172.775	-0.376	-0.012
-712.704	-200.000	-0.063	0.350
-711.689	-108.407	0.168	-0.036
-710.675	-26.913	-0.326	0.192
-709.660	441.625	-0.038	0.084
-708.645	-135.167	0.039	-0.005
-707.631	23.169	-0.113	-0.094
-706.616	-200.000	-0.011	0.223
-705.602	800.000	-0.068	0.250
-704.587	64.800	0.183	-0.186
-703.572	415.173	-0.175	0.376
-702.558	-17.341	0.243	0.155
-701.543	14.089	-0.205	-0.162
-700.529	-127.081	-0.133	0.020
-699.514	-200.000	0.052	-0.359
-698.499	-200.000	0.012	0.072
-697.485	-64.255	-0.320	-0.132
-696.470	-200.000	-0.030	-0.192
-695.456	169.284	-0.120	-0.173
-694.441	500.232	-0.077	-0.178
-693.426	-200.000	0.033	0.272
-692.412	77.770	-0.138	0.148
-691.397	-108.503	-0.156	0.034
-690.383	-103.455	-0.156	-0.037
-689.368	375.820	0.132	0.272
-688.354	800.000	-0.022	-0.085
-687.339	19.844	-0.122	-0.099
-686.324	-70.775	0.324	-0.124
-685.310	-76.839	-0.219	-0.077
-684.295	-96.880	0.341	-0.090
-683.281	-200.000	-0.005	0.031
-682.266	30.857	-0.123	0.107
-681.251	-26.503	-0.303	-0.179
-680.237	800.000	-0.070	-0.240
-679.222	-120.212	-0.365	-0.063
-678.208	-39.106	0.187	0.099
-677.193	-200.000	-0.024	-0.170
-676.178	-136.018	-0.204	-0.024
-675.164	-200.000	0.019	0.114
-674.149	-57.438	0.303	-0.134
-673.135	-200.000	-0.056	0.253
-672.120	-103.513	-0.257	0.061
-671.105	-77.523	-0.190	-0.067
-670.091	135.926	-0.093	-0.122
-669.076	-117.388	-0.128	-0.023
-668.062	-200.000	0.048	0.214
-667.047	-21.028	-0.100	-0.062
-666.032	-200.000	-0.013	-0.198
-665.018	17.853	0.059	0.047
-664.003	-106.436	0.333	0.075
-662.989	80.199	-0.189	-0.205
-661.974	800.000	0.103	-0.384
-660.959	60.461	0.172	-0.171
-659.945	-200.000	0.031	-0.200
-658.930	29.013	0.136	0.117
-657.916	-200.000	0.056	0.379
-656.901	-34.341	-0.321	0.177
-655.886	51.296	-0.096	0.092
-654.872	-102.367	-0.210	0.051
-653.857	-21.270	0.041	0.025
-652.843	-42.652	0.299	-0.153
-651.828	-200.000	-0.043	0.206
-650.814	-28.173	0.134	0.078
-649.799	175.436	-0.290	-0.423
-648.784	800.000	0.066	-0.222
-647.770	-145.523	-0.136	0.012
-646.755	-200.000	0.000	-0.093
-645.741	-45.391	0.077	0.039
-644.726	800.000	-0.134	0.438
-643.711	-147.084	0.236	-0.020
-642.697	390.602	-0.101	0.211
-641.682	-54.804	0.352	-0.160
-640.668	-21.731	-0.139	0.085
-639.653	25.552	-0.345	0.289
-638.638	-6.461	-0.112	0.077
-637.624	-144.534	-0.118	-0.011
-636.609	-18.328	-0.242	-0.152
-635.595	-152.686	-0.072	-0.005
-634.580	-184.736	-0.312	0.005
-633.565	-111.521	-0.513	0.105
-632.551	352.984	0.051	-0.102
-631.536	118.899	0.075	-0.094
-630.522	31.348	0.201	-0.174
-629.507	-200.000	-0.009	0.258
-628.492	-36.525	-0.148	0.080
-627.478	800.000	-0.079	0.254
-626.463	45.642	0.145	0.135
-625.449	-200.000	-0.083	-0.491
-624.434	-177.812	0.055	0.001
-623.419	-86.942	0.206	-0.063
-622.405	280.302	0.145	0.260
-621.390	800.000	-0.019	0.082
-620.376	800.000	0.138	0.408
-619.361	266.595	-0.079	-0.139
-618.346	800.000	0.027	-0.113
-617.332	-80.209	0.052	0.018
-616.317	604.125	-0.049	0.122
-615.303	-17.755	0.158	0.100
-614.288	12.487	0.121	-0.094
-613.273	-94.876	0.156	-0.043
-612.259	716.239	0.126	-0.337
-611.244	242.325	-0.081	-0.137
-610.230	5.283	0.226	0.168
-609.215	-36.473	-0.124	-0.067
-608.201	800.000	-0.175	-0.490
-607.186	212.966	-0.021	0.034
-606.171	-53.806	0.176	0.081
-605.157	800.000	-0.007	-0.021
-604.142	-64.863	0.388	0.158
-603.128	-200.000	-0.032	-0.279
-602.113	800.000	-0.088	-0.245
-601.098	-106.986	0.294	0.065
-600.084	-103.037	-0.134	-0.032
-599.069	43.000	-0.106	-0.097
-598.055	-140.592	-0.139	-0.015
-597.040	-153.258	0.126	-0.009
-596.025	40.035	-0.077	0.070
-595.011	800.000	0.142	-0.503
-593.996	-30.493	-0.350	-0.199
-592.982	513.702	-0.051	0.120
-591.967	-132.445	0.271	0.035
-590.952	-200.000	0.004	-0.277
-589.938	-200.000	0.042	0.505
-588.923	-150.803	-0.366	0.028
-587.909	0.552	-0.167	-0.120
-586.894	800.000	0.093	-0.293
-585.879	-138.974	-0.446	-0.049
-584.865	-62.539	0.035	0.014
-583.850	-200.000	-0.011	0.189
-582.836	72.463	-0.268	0.280
-581.821	-19.747	0.124	-0.077
-580.806	800.000	-0.055	0.227
-579.792	7.168	-0.234	-0.176
-578.777	-187.292	0.187	0.003
-577.763	-200.000	-0.061	-0.466
-576.748	-109.653	0.188	-0.040
-575.733	17.777	-0.141	0.113
-574.719	-35.469	0.400	-0.218
-573.704	-39.870	-0.169	-0.088
-572.690	-44.431	-0.259	-0.130
-571.675	446.400	-0.108	0.239
-570.661	-156.727	0.258	-0.016
-569.646	-11.011	0.133	0.088
-568.631	-135.654	0.085	0.010
-567.617	131.135	-0.122	0.157
-566.602	800.000	-0.048	0.147
-565.588	-119.013	0.139	0.024
-564.573	340.180	0.044	0.087
-563.558	800.000	0.078	-0.286
-562.544	355.770	-0.073	-0.145
-561.529	-200.000	0.013	-0.165
-560.515	-200.000	-0.018	-0.228
-559.500	196.068	-0.072	-0.110
-558.485	-200.000	0.009	-0.203
-557.471	800.000	0.012	0.053
-556.456	775.909	0.076	-0.207
-555.442	233.684	0.186	-0.307
-554.427	-200.000	0.015	-0.252
-553.412	-69.308	-0.262	-0.101
-552.398	800.000	0.055	-0.179
-551.383	-98.615	-0.201	0.052
-550.369	-48.865	0.118	-0.057
-549.354	-90.856	0.028	0.008
-548.339	-51.443	-0.233	-0.109
-547.325	-147.639	-0.202	0.017
-546.310	404.719	0.089	-0.188
-545.296	78.767	-0.153	-0.164
-544.281	172.937	0.167	-0.242
-543.266	-110.428	-0.287	0.060
-542.252	476.191	0.160	0.364
-541.237	63.423	0.060	-0.060
-540.223	-142.735	0.309	-0.030
-539.208	-61.029	0.174	0.074
-538.193	-200.000	-0.041	-0.260
-537.179	133.491	0.138	0.180
-536.164	314.674	0.117	0.221
-535.150	-200.000	0.009	-0.269
-534.135	107.824	-0.079	-0.094
-533.121	134.973	0.114	-0.149
-532.106	800.000	-0.069	-0.234
-531.091	470.299	0.021	-0.047
-530.077	784.833	-0.021	-0.058
-529.062	351.980	-0.174	0.346
-528.048	40.945	-0.221	-0.200
-527.033	336.512	-0.158	0.308
-526.018	665.501	0.095	0.245
-525.004	-49.571	0.217	-0.104
-523.989	324.053	-0.030	0.057
-522.975	73.573	-0.147	0.154
-521.960	-166.150	0.067	0.003
-520.945	800.000	-0.027	0.094
-519.931	-143.257	-0.108	0.010
-518.916	-27.786	-0.065	-0.038
-517.902	13.016	-0.167	0.130
-516.887	162.630	0.126	0.178
-515.872	-105.804	0.193	-0.044
-514.858	800.000	-0.015	0.058
-513.843	611.264	-0.066	0.164
-512.829	800.000	0.098	-0.328
-511.814	-36.321	0.247	-0.134
-510.799	800.000	-0.017	-0.068
-509.785	422.103	-0.100	0.215
-508.770	229.962	0.109	0.179
-507.756	-125.334	-0.264	0.040
-506.741	67.978	0.098	-0.101
-505.726	794.911	0.080	-0.220
-504.712	-200.000	0.002	-0.114
-503.697	-101.623	0.214	0.052
-502.683	-200.000	-0.040	-0.201
-501.668	-50.125	-0.084	0.040
-500.653	-200.000	-0.001	-0.098
-499.639	-156.798	0.368	-0.023
-498.624	51.845	0.065	-0.062
-497.610	-59.236	-0.338	-0.146
-496.595	800.000	-0.050	-0.209
-495.581	202.187	0.160	-0.247
-494.566	800.000	0.032	0.094
-493.551	45.025	0.076	-0.070
-492.537	-29.193	-0.555	-0.318
-491.522	-22.724	0.213	0.129
-490.508	-47.062	0.271	0.133
-489.493	62.347	-0.125	-0.125
-488.478	-200.000	0.060	0.288
-487.464	-63.943	0.558	0.229
-486.449	24.918	-0.102	-0.084
-485.435	-50.707	-0.324	-0.153
-484.420	-200.000	-0.005	0.086
-483.405	-200.000	-0.004	-0.038
-482.391	82.668	0.177	0.193
-481.376	-153.687	0.325	-0.022
-480.362	39.163	-0.044	-0.040
-479.347	-200.000	-0.027	0.282
-478.332	-200.000	-0.005	0.106
-477.318	499.133	-0.032	-0.073
-476.303	-60.022	0.207	0.088
-475.289	375.781	0.108	0.221
-474.274	-138.258	-0.118	-0.013
-473.259	-27.326	0.144	-0.084
-472.245	-200.000	0.059	-0.484
-471.230	35.687	0.278	-0.245
-470.216	800.000	-0.079	0.278
-469.201	171.632	-0.171	0.245
-468.186	-200.000	-0.006	0.452
-467.172	13.848	-0.164	0.127
-466.157	97.531	0.150	-0.172
-465.143	800.000	-0.101	-0.306
-464.128	62.408	0.198	0.198
-463.113	-200.000	0.055	0.465
-462.099	73.780	0.097	-0.101
-461.084	87.619	-0.291	0.322
-460.070	116.850	0.186	-0.228
-459.055	-71.098	-0.152	0.057
-458.040	-200.000	0.008	-0.050
-457.026	296.702	-0.111	-0.203
-456.011	41.330	0.099	0.089
-454.997	-132.885	0.197	-0.025
-453.982	58.919	0.074	-0.073
-452.968	-165.057	-0.166	-0.007
-451.953	800.000	0.039	0.154
-450.938	-200.000	0.012	0.122
-449.924	-50.350	0.092	-0.043
-448.909	-75.762	-0.330	-0.117
-447.895	800.000	0.036	-0.110
-446.880	79.397	-0.140	0.150
-445.865	-47.950	-0.091	-0.044
-444.851	-39.550	0.108	-0.056
-443.836	-200.000	0.009	-0.193
-442.822	-163.133	0.132	-0.006
-441.807	-160.065	-0.335	0.018
-440.792	-138.292	0.199	0.022
-439.778	-200.000	0.010	0.146
-438.763	800.000	-0.035	0.149
-437.749	-26.059	0.278	-0.163
-436.734	-27.136	-0.049	0.029
-435.719	125.441	-0.201	-0.254
-434.705	236.800	-0.147	-0.242
-433.690	381.289	-0.150	-0.308
-432.676	-200.000	0.006	-0.031
-431.661	267.399	0.084	0.147
-430.646	219.768	-0.073	0.117
-429.632	200.418	0.078	-0.119
-428.617	-58.789	-0.229	0.099
-427.603	-200.000	-0.013	0.307
-426.588	-200.000	-0.026	-0.237
-425.573	81.501	-0.060	0.065
-424.559	-200.000	-0.037	0.498
-423.544	38.437	-0.119	0.106
-422.530	-200.000	0.005	0.139
-421.515	-152.010	-0.318	0.023
-420.500	-43.861	-0.136	-0.068
-419.486	-200.000	0.008	0.152
-418.471	-200.000	0.017	0.126
-417.457	800.000	-0.014	-0.039
-416.442	-108.516	-0.105	-0.023
-415.428	-141.159	0.041	-0.004
-414.413	40.673	0.081	0.073
-413.398	800.000	0.060	0.212
-412.384	259.593	0.168	-0.290
-411.369	-200.000	-0.009	0.143
-410.355	-200.000	-0.021	0.182
-409.340	476.267	-0.044	-0.100
-408.325	-10.369	-0.079	-0.052
-407.311	-145.787	0.462	0.041
-406.296	81.384	-0.144	-0.156
-405.282	-94.394	0.334	0.091
-404.267	-93.957	-0.137	-0.038
-403.252	-15.931	-0.158	0.101
-402.238	-3.143	-0.317	-0.221
-401.223	-123.113	-0.127	0.020
-400.209	-108.840	-0.299	0.064
-399.194	-6.475	0.162	0.110
-398.179	244.267	-0.035	-0.059
-397.165	45.192	-0.152	-0.140
-396.150	-200.000	0.014	-0.070
-395.136	-64.499	0.212	-0.086
-394.121	138.626	0.155	-0.203
-393.106	442.863	-0.043	-0.095
-392.092	-200.000	0.056	-0.257
-391.077	103.540	0.324	0.379
-390.063	-3.286	-0.346	0.240
-389.048	-50.740	0.205	0.096
-388.033	233.102	0.208	0.341
-387.019	52.174	0.409	0.389
-386.004	141.855	-0.145	-0.192
-384.990	698.738	0.032	0.083
-383.975	80.651	-0.209	0.224
-382.960	16.794	-0.200	-0.158
-381.946	-128.514	0.205	-0.029
-380.931	-102.128	0.111	0.027
-379.917	800.000	0.043	0.136
-378.902	-200.000	-0.053	0.269
-377.888	-200.000	-0.042	-0.282
-376.873	249.449	-0.119	0.200
-375.858	-200.000	-0.010	0.147
-374.844	325.923	-0.150	-0.287
-373.829	-98.705	0.185	0.047
-372.815	800.000	-0.043	-0.178
-371.800	800.000	-0.147	-0.413
-370.785	-67.910	0.263	0.102
-369.771	-132.019	0.286	0.037
-368.756	-200.000	0.004	0.079
-367.742	-80.801	-0.255	-0.085
-366.727	-170.214	-0.135	-0.005
-365.712	365.400	0.101	0.202
-364.698	649.759	0.094	-0.241
-363.683	18.977	-0.211	0.168
-362.669	18.454	-0.159	0.126
-361.654	-91.051	-0.127	0.036
-360.639	-84.798	0.291	0.091
-359.625	57.235	0.103	0.101
-358.610	735.398	-0.132	0.352
-357.596	228.619	-0.150	-0.244
-356.581	800.000	-0.037	-0.143
-355.566	-65.024	0.332	0.134
-354.552	93.439	-0.215	-0.243
-353.537	-200.000	0.031	0.579
-352.523	-74.533	-0.098	0.035
-351.508	-15.747	-0.415	0.263
-350.493	-78.077	0.302	-0.103
-349.479	800.000	-0.027	0.116
-348.464	-200.000	-0.021	0.156
-347.450	-113.970	0.325	-0.063
-346.435	-91.702	0.129	0.036
-345.420	644.214	0.166	0.422
-344.406	-200.000	-0.006	0.082
-343.391	75.666	0.335	0.352
-342.377	84.190	-0.040	0.043
-341.362	-200.000	0.009	-0.130
-340.348	-18.161	0.154	-0.096
-339.333	-121.943	0.052	0.008
-338.318	-130.116	0.420	0.057
-337.304	251.707	0.119	-0.202
-336.289	108.384	0.328	0.390
-335.275	15.299	0.383	-0.299
-334.260	-34.504	0.124	-0.068
-333.245	-138.941	0.286	0.031
-332.231	-200.000	0.022	0.248
-331.216	162.726	0.154	-0.215
-330.202	75.597	-0.107	0.112
-329.187	-200.000	0.013	-0.156
-328.172	-200.000	-0.072	0.347
-327.158	-97.489	-0.422	-0.109
-326.143	163.225	-0.168	0.235
-325.129	6.910	0.350	-0.259
-324.114	50.768	-0.157	-0.148
-323.099	-200.000	0.014	0.154
-322.085	-200.000	0.028	0.129
-321.070	-132.443	-0.270	0.035
-320.056	800.000	0.090	0.283
-319.041	-31.173	-0.186	0.104
-318.026	-114.147	-0.115	-0.022
-317.012	-200.000	-0.025	-0.159
-315.997	800.000	0.053	0.173
-314.983	-67.600	-0.164	0.064
-313.968	-76.787	0.170	-0.059
-312.953	-200.000	0.040	0.178
-311.939	-200.000	-0.052	-0.243
-310.924	-113.398	-0.131	-0.025
-309.910	38.338	0.212	-0.188
-308.895	147.625	0.111	0.149
-307.880	-66.234	-0.225	-0.089
-306.866	109.502	0.221	0.263
-305.851	54.023	-0.270	0.258
-304.837	-200.000	-0.046	0.249
-303.822	-167.072	0.304	-0.012
-302.807	-51.993	-0.304	-0.141
-301.793	-135.608	0.097	0.011
-300.778	-43.334	0.102	0.051
-299.764	27.376	0.126	-0.105
-298.749	-38.045	0.187	0.099
-297.735	-99.704	0.134	-0.033
-296.720	-200.000	0.081	0.710
-295.705	36.929	-0.062	0.054
-294.691	-177.632	-0.117	0.003
-293.676	164.886	-0.163	-0.229
-292.662	-166.108	-0.197	0.008
-291.647	15.708	-0.325	-0.254
-290.632	-111.569	0.364	-0.074
-289.618	145.711	-0.080	-0.107
-288.603	10.930	0.289	0.219
-287.589	60.960	0.210	-0.207
-286.574	800.000	-0.087	0.313
-285.559	-200.000	0.048	0.264
-284.545	-113.404	0.406	0.079
-283.530	63.442	-0.173	-0.172
-282.516	-81.468	-0.022	0.007
-281.501	-174.179	0.272	-0.008
-280.486	-126.139	-0.266	-0.040
-279.472	-106.896	0.231	0.051
-278.457	-93.155	-0.157	-0.043
-277.443	21.636	0.238	-0.193
-276.428	24.992	0.177	-0.146
-275.413	81.885	0.212	0.228
-274.399	-42.802	0.155	0.078
-273.384	-108.776	0.099	-0.021
-272.370	104.420	0.138	0.161
-271.355	-200.000	0.044	-0.442
-270.340	-13.138	-0.237	-0.153
-269.326	-39.303	0.016	-0.008
-268.311	467.950	0.068	-0.152
-267.297	496.982	0.133	0.304
-266.282	-105.521	-0.217	-0.049
-265.267	800.000	0.132	0.492
-264.253	495.031	-0.032	0.072
-263.238	-55.222	0.275	0.122
-262.224	376.982	0.204	0.413
-261.209	280.288	-0.096	-0.171
-260.195	-7.420	0.118	-0.079
-259.180	-200.000	-0.081	0.362
-258.165	66.594	-0.113	0.114
-257.151	176.474	-0.232	0.335
-256.136	-200.000	-0.065	-0.292
-255.122	-123.464	-0.395	0.062
-254.107	-200.000	-0.000	0.064
-253.092	254.673	0.034	-0.058
-252.078	63.636	0.066	-0.065
-251.063	194.693	-0.283	-0.426
-250.049	-3.050	-0.146	-0.101
-249.034	800.000	-0.064	-0.211
-248.019	10.713	-0.054	-0.041
-247.005	800.000	0.102	-0.292
-245.990	-101.409	-0.088	-0.021
-244.976	-2.687	-0.074	-0.051
-243.961	-92.954	0.318	-0.088
-242.946	548.073	0.069	-0.165
-241.932	800.000	0.021	-0.083
-240.917	-145.699	-0.223	-0.020
-239.903	-112.260	-0.246	-0.049
-238.888	-106.710	-0.071	-0.016
-237.873	-37.662	0.438	-0.231
-236.859	-114.676	0.435	0.083
-235.844	800.000	-0.078	0.307
-234.830	-21.188	-0.188	0.114
-233.815	-53.888	-0.447	0.202
-232.800	800.000	-0.102	0.301
-231.786	-159.298	0.184	0.010
-230.771	-44.657	-0.357	-0.177
-229.757	250.725	-0.114	-0.193
-228.742	-109.247	-0.267	-0.056
-227.727	26.973	0.067	-0.056
-226.713	-71.570	-0.153	-0.057
-225.698	83.034	0.041	0.044
-224.684	800.000	0.074	-0.262
-223.669	-1.515	0.332	0.232
-222.655	-200.000	0.033	-0.153
-221.640	-112.608	0.090	0.018
-220.625	386.156	0.049	-0.101
-219.611	800.000	-0.010	0.034
-218.596	259.484	0.015	0.025
-217.582	209.398	-0.062	-0.097
-216.567	-36.768	0.022	-0.012
-215.552	-134.098	-0.101	0.012
-214.538	385.071	0.098	0.201
-213.523	-119.259	-0.318	0.055
-212.509	800.000	-0.080	-0.286
-211.494	-75.305	-0.323	-0.114
-210.479	-8.271	0.233	-0.155
-209.465	-29.718	0.249	0.141
-208.450	710.149	-0.142	-0.373
-207.436	-93.934	-0.402	0.109
-206.421	-200.000	0.011	-0.091
-205.406	19.973	0.331	-0.264
-204.392	-88.445	0.287	0.085
-203.377	-200.000	0.041	-0.442
-202.363	146.125	0.191	-0.254
-201.348	-200.000	0.059	-0.279
-200.333	800.000	-0.065	0.271
-199.319	205.586	0.119	-0.184
-198.304	161.160	-0.132	-0.183
-197.290	800.000	-0.049	-0.162
-196.275	32.906	-0.268	-0.230
-195.260	35.019	-0.155	0.134
-194.246	82.333	0.130	-0.139
-193.231	-200.000	0.015	-0.186
-192.217	-19.622	0.060	0.036
-191.202	20.288	-0.021	0.017
-190.187	-200.000	0.012	-0.196
-189.173	72.404	0.149	0.154
-188.158	-117.213	0.342	0.062
-187.144	383.197	0.229	0.467
-186.129	-19.700	-0.215	0.132
-185.114	-130.269	-0.252	0.034
-184.100	1.181	-0.159	0.113
-183.085	145.485	-0.153	-0.203
-182.071	464.233	-0.141	-0.311
-181.056	-25.349	0.075	0.044
-180.042	-40.545	-0.255	-0.131
-179.027	-105.821	-0.154	-0.034
-178.012	-97.103	-0.304	-0.079
-176.998	600.408	0.118	0.291
-175.983	-72.382	0.170	0.062
-174.969	-88.210	-0.226	0.067
-173.954	80.068	0.081	-0.086
-172.939	-103.306	0.078	-0.018
-171.925	16.024	-0.134	0.104
-170.910	341.234	-0.116	0.224
-169.896	-117.054	-0.119	-0.022
-168.881	-200.000	-0.064	0.370
-167.866	44.520	0.090	-0.082
-166.852	-29.620	-0.323	0.182
-165.837	522.082	-0.119	0.277
-164.823	-200.000	0.001	-0.159
-163.808	800.000	0.091	0.354
-162.793	-115.966	-0.064	0.012
-161.779	649.208	-0.165	-0.416
-160.764	-200.000	-0.001	-0.154
-159.750	-77.296	-0.140	0.048
-158.735	-148.875	-0.171	-0.014
-157.720	753.733	-0.101	0.269
-156.706	207.676	0.098	-0.152
-155.691	112.886	0.109	-0.131
-154.677	315.725	0.066	0.123
-153.662	-77.869	-0.136	0.046
-152.647	-59.345	0.193	-0.082
-151.633	-107.298	0.192	0.042
-150.618	129.224	-0.023	0.029
-149.604	-100.131	0.166	-0.041
-148.589	-33.654	-0.233	0.127
-147.574	693.847	-0.103	-0.266
-146.560	800.000	0.027	0.076
-145.545	-29.376	-0.172	-0.097
-144.531	-184.896	-0.103	-0.002
-143.516	-22.048	-0.294	-0.176
-142.502	-47.378	-0.131	-0.063
-141.487	-70.743	0.402	0.150
-140.472	-42.342	0.228	0.115
-139.458	-111.149	0.158	0.032
-138.443	-41.975	-0.077	0.039
-137.429	-13.365	-0.174	-0.111
-136.414	-18.417	-0.042	-0.026
-135.399	292.450	0.055	0.099
-134.385	800.000	0.048	-0.206
-133.370	-200.000	-0.003	-0.127
-132.356	-200.000	-0.083	-0.389
-131.341	623.264	0.054	-0.134
-130.326	-112.509	0.051	0.010
-129.312	-123.088	-0.184	-0.029
-128.297	514.091	0.109	0.251
-127.283	210.594	-0.097	-0.150
-126.268	-14.769	-0.124	-0.079
-125.253	800.000	-0.007	0.021
-124.239	159.049	-0.159	-0.218
-123.224	-8.811	0.157	-0.104
-122.210	-200.000	-0.053	0.269
-121.195	-99.962	0.140	0.035
-120.180	-19.923	0.133	0.081
-119.166	-200.000	0.016	0.397
-118.151	-134.542	0.172	0.021
-117.137	-200.000	0.046	0.307
-116.122	33.269	0.057	-0.049
-115.107	800.000	0.084	-0.324
-114.093	-54.689	0.113	0.050
-113.078	800.000	-0.084	-0.331
-112.064	800.000	-0.113	0.430
-111.049	473.709	-0.058	0.128
-110.034	61.223	0.212	-0.208
-109.020	135.137	-0.057	-0.073
-108.005	-200.000	0.018	0.150
-106.991	152.236	-0.130	0.175
-105.976	23.338	0.121	0.098
-104.962	364.945	-0.059	-0.118
-103.947	800.000	-0.079	0.266
-102.932	-200.000	-0.026	-0.275
-101.918	427.781	0.052	-0.112
-100.903	-53.177	0.012	0.005
-99.889	-200.000	-0.031	0.276
-98.874	440.226	0.055	0.119
-97.859	136.677	-0.151	0.194
-96.845	-184.617	-0.074	0.001
-95.830	79.377	0.105	0.111
-94.816	46.224	-0.078	0.071
-93.801	-45.935	-0.103	0.050
-92.786	800.000	-0.023	0.089
-91.772	121.171	0.118	-0.144
-90.757	-200.000	0.004	0.273
-89.743	-200.000	-0.034	-0.526
-88.728	-200.000	-0.004	0.079
-87.713	800.000	0.046	0.133
-86.699	-167.868	-0.088	-0.003
-85.684	-200.000	-0.012	0.169
-84.670	-20.208	0.237	-0.144
-83.655	210.557	-0.125	0.193
-82.640	800.000	0.005	0.016
-81.626	50.462	0.403	0.375
-80.611	-76.047	0.190	0.066
-79.597	-76.592	0.245	0.085
-78.582	-200.000	0.033	0.332
-77.567	132.683	-0.043	0.054
-76.553	-200.000	-0.040	-0.202
-75.538	-141.159	0.367	0.037
-74.524	-98.101	-0.466	-0.118
-73.509	651.529	-0.025	0.062
-72.494	-99.366	0.431	0.107
-71.480	143.998	0.152	-0.200
-70.465	-200.000	-0.035	-0.213
-69.451	172.143	-0.371	0.525
-68.436	-50.781	-0.219	0.102
-67.422	800.000	-0.122	0.373
-66.407	-149.794	-0.157	0.012
-65.392	4.853	0.309	0.224
-64.378	-178.366	0.175	-0.004
-63.363	-59.651	-0.139	0.059
-62.349	180.455	0.072	0.104
-61.334	116.635	-0.854	-1.032
-60.319	86.540	0.281	0.305
-59.305	-200.000	-0.205	-0.928
-58.290	529.972	0.428	0.994
-57.276	-200.000	0.175	1.795
-56.261	-200.000	96.056	579.279
-55.246	562.032	1375.605	3274.974
-54.232	160.678	2550.426	3504.211
-53.217	111.684	2161.879	2567.734
-52.203	43.233	1707.211	1534.020
-51.188	36.093	1520.400	1317.516
-50.173	33.757	1493.230	1278.218
-49.159	52.643	1542.324	1449.907
-48.144	54.567	1559.734	1479.388
-47.130	36.294	1519.487	1317.892
-46.115	33.128	1504.782	1283.628
-45.100	33.010	1501.643	1280.102
-44.086	33.058	1499.343	1278.415
-43.071	32.949	1497.662	1276.193
-42.057	32.941	1496.162	1274.809
-41.042	32.941	1495.328	1274.050
-40.027	32.996	1493.386	1272.717
-39.013	32.826	1492.228	1270.531
-37.998	32.859	1490.816	1269.502
-36.984	32.883	1489.164	1268.208
-35.969	32.921	1488.210	1267.596
-34.954	32.909	1486.830	1266.295
-33.940	32.939	1485.915	1265.662
-32.925	32.945	1484.111	1264.119
-31.911	32.936	1482.939	1263.012
-30.896	32.874	1482.065	1261.803
-29.881	33.099	1479.808	1261.332
-28.867	33.008	1478.593	1259.639
-27.852	32.983	1476.864	1257.950
-26.838	33.037	1475.888	1257.423
-25.823	32.986	1474.301	1255.686
-24.809	33.025	1472.374	1254.251
-23.794	33.001	1471.041	1252.906
-22.779	33.036	1469.685	1251.934
-21.765	32.996	1468.245	1250.392
-20.750	32.932	1468.139	1249.833
-19.736	32.950	1466.598	1248.592
-18.721	32.948	1465.730	1247.789
-17.706	32.897	1464.403	1246.271
-16.692	32.887	1463.802	1245.642
-15.677	32.911	1462.160	1244.358
-14.663	32.813	1461.530	1243.125
-13.648	32.778	1461.212	1242.576
-12.633	32.866	1459.560	1241.702
-11.619	32.836	1458.817	1240.820
-10.604	32.961	1457.468	1240.449
-9.590	32.761	1457.510	1239.118
-8.575	32.902	1456.113	1238.806
-7.560	33.021	1454.999	1238.593
-6.546	32.956	1454.731	1237.883
-5.531	32.896	1453.720	1236.585
-4.517	32.873	1452.490	1235.338
-3.502	32.823	1451.815	1234.391
-2.487	32.833	1450.565	1233.340
-1.473	32.896	1449.009	1232.381
-0.458	32.803	1448.357	1231.172
0.556	33.455	1438.571	1220.372
1.571	30.501	1415.369	1181.831
2.586	27.378	1362.266	1118.239
3.600	26.108	1285.664	1047.896
4.615	24.646	1238.399	1001.098
5.629	21.053	1180.036	934.621
6.644	11.151	1092.638	815.952
7.659	3.323	1049.997	746.235
8.673	2.253	1044.407	737.041
9.688	2.147	1040.982	734.048
10.702	1.931	1039.688	732.035
11.717	1.949	1037.790	730.719
12.731	5.838	1042.290	752.508
13.746	15.635	1056.351	810.023
14.761	23.284	1066.000	854.406
15.775	24.977	1067.986	864.096
16.790	25.213	1067.636	864.874
17.804	25.125	1066.879	863.762
18.819	24.977	1065.784	862.087
19.834	25.237	1064.838	862.496
20.848	25.313	1064.887	862.820
21.863	25.268	1064.844	862.494
22.877	25.425	1063.823	862.344
23.892	25.156	1063.261	860.524
24.907	25.071	1062.794	859.661
25.921	25.192	1061.940	859.474
26.936	25.211	1060.888	858.638
27.950	25.227	1059.884	857.825
28.965	25.169	1058.896	856.672
29.980	25.121	1056.881	854.739
30.994	25.153	1055.483	853.683
32.009	25.265	1055.024	853.773
33.023	25.428	1054.493	854.042
34.038	25.203	1053.539	852.123
35.053	25.100	1053.142	851.237
36.067	25.400	1051.998	851.663
37.082	25.205	1051.455	850.222
38.096	25.288	1050.643	849.882
39.111	25.477	1049.978	850.166
40.126	25.545	1049.283	849.846
41.140	25.523	1047.531	848.251
42.155	25.189	1046.773	845.987
43.169	24.827	1045.612	843.266
44.184	24.847	1044.336	842.259
45.199	24.943	1043.247	841.755
46.213	24.807	1042.306	840.283
47.228	24.782	1041.706	839.608
48.242	25.011	1041.274	840.261
49.257	25.161	1039.991	839.851
50.271	25.188	1039.869	839.806
51.286	25.281	1038.912	839.395
52.301	25.308	1038.412	839.044
53.315	25.383	1037.410	838.506
54.330	25.424	1036.587	837.958
55.344	25.341	1035.866	836.917
56.359	25.301	1035.176	836.098
57.374	25.238	1034.345	835.060
58.388	25.069	1033.148	833.234
59.403	24.994	1032.748	832.489
60.417	24.988	1031.886	831.694
61.432	24.934	1030.988	830.644
62.447	24.874	1030.338	829.770
63.461	25.014	1029.737	829.859
64.476	24.984	1029.545	829.493
65.490	24.925	1028.358	828.191
66.505	24.963	1027.349	827.481
67.520	24.879	1026.779	826.561
68.534	25.022	1026.127	826.622
69.549	24.939	1024.695	825.012
70.563	24.677	1023.523	822.792
71.578	24.575	1022.932	821.772
72.593	24.596	1021.891	820.961
73.607	24.440	1020.869	819.351
74.622	24.395	1019.900	818.295
75.636	24.720	1019.566	819.444
76.651	24.829	1018.797	819.255
77.666	24.744	1017.787	817.979
78.680	24.546	1017.211	816.539
79.695	24.598	1016.709	816.304
80.709	24.681	1016.119	816.136
81.724	24.771	1015.429	815.920
82.739	24.692	1014.680	814.886
83.753	24.874	1013.433	814.638
84.768	25.139	1013.297	815.665
85.782	25.447	1012.412	816.278
86.797	25.523	1011.712	815.985
87.812	25.521	1010.714	815.101
88.826	25.311	1009.899	813.419
89.841	25.560	1008.706	813.516
90.855	25.612	1008.135	813.218
91.870	25.491	1007.692	812.240
92.884	25.501	1006.728	811.437
93.899	25.450	1005.660	810.272
94.914	25.296	1004.384	808.478
95.928	25.433	1004.447	809.079
96.943	25.454	1002.990	807.928
97.957	25.186	1001.955	805.815
98.972	24.843	1000.981	803.421
99.987	24.648	1000.016	801.704
101.001	24.838	999.420	802.005
102.016	25.125	999.490	803.278
103.030	25.214	998.304	802.652
104.045	25.213	996.863	801.416
105.060	25.014	995.994	799.760
106.074	24.820	994.932	797.972
107.089	24.866	994.018	797.371
108.103	25.195	993.971	798.726
109.118	25.169	992.753	797.565
110.133	25.008	991.416	795.704
111.147	25.025	990.496	794.972
112.162	24.809	989.791	793.375
113.176	24.654	988.323	791.442
114.191	24.877	987.770	791.917
115.206	24.936	987.054	791.534
116.220	24.681	985.947	789.452
117.235	24.590	984.702	787.984
118.249	24.579	984.289	787.531
119.264	24.669	983.558	787.277
120.279	24.541	982.790	786.025
121.293	24.530	981.740	785.071
122.308	24.706	981.244	785.376
123.322	24.631	980.557	784.428
124.337	24.650	979.423	783.534
125.352	24.617	977.789	782.013
126.366	24.084	976.425	778.526
127.381	23.848	974.832	776.156
128.395	24.438	975.001	778.798
129.410	25.051	974.425	780.940
130.424	25.156	974.124	781.087
131.439	25.311	972.636	780.499
132.454	25.244	971.952	779.588
133.468	25.167	971.366	778.716
134.483	25.165	970.145	777.661
135.497	25.147	969.681	777.142
136.512	25.545	969.034	778.276
137.527	25.260	968.801	776.785
138.541	25.419	967.676	776.502
139.556	25.520	966.593	776.002
140.570	25.412	966.225	775.174
141.585	25.530	965.284	774.858
142.600	25.501	964.678	774.177
143.614	25.372	963.787	772.840
144.629	25.460	963.279	772.742
145.643	25.725	962.321	773.042
146.658	25.592	961.454	771.709
147.673	25.443	960.107	769.922
148.687	25.137	959.567	768.109
149.702	25.233	958.158	767.323
150.716	25.194	957.062	766.211
151.731	24.996	956.528	764.869
152.746	25.321	955.470	765.343
153.760	25.317	955.259	765.089
154.775	25.632	954.499	765.752
155.789	25.621	953.918	765.173
156.804	25.599	952.430	763.818
157.819	25.584	951.606	763.024
158.833	25.633	950.706	762.442
159.848	25.681	950.302	762.255
160.862	25.757	949.529	761.890
161.877	25.583	948.801	760.503
162.892	25.395	948.096	759.076
163.906	25.506	947.198	758.760
164.921	25.616	946.037	758.226
165.935	25.359	945.102	756.326
166.950	25.592	943.994	756.354
167.964	25.598	943.077	755.576
168.979	25.540	942.089	754.475
169.994	25.473	941.077	753.315
171.008	25.352	939.875	751.781
172.023	25.537	939.465	752.160
173.037	25.677	938.733	752.095
174.052	25.556	937.309	750.381
175.067	25.316	936.555	748.708
176.081	25.307	935.420	747.698
177.096	25.394	935.058	747.705
178.110	25.458	934.052	747.101
179.125	25.232	933.412	745.582
180.140	24.970	932.084	743.371
181.154	24.858	931.610	742.461
182.169	25.065	931.625	743.265
183.183	25.313	931.105	743.813
184.198	25.523	930.793	744.368
185.213	25.535	929.882	743.622
186.227	25.423	929.461	742.758
187.242	25.682	928.518	743.009
188.256	25.594	927.939	742.117
189.271	25.622	926.753	741.218
190.286	25.632	926.552	741.031
191.300	25.532	925.593	739.787
192.315	24.994	924.053	736.283
193.329	24.262	922.213	731.748
194.344	23.781	921.486	729.132
195.359	24.390	921.881	731.879
196.373	25.191	922.167	735.326
197.388	25.695	921.587	736.865
198.402	25.263	921.395	734.877
199.417	25.410	920.442	734.649
200.432	25.444	920.147	734.489
201.446	25.378	919.273	733.459
202.461	25.052	918.398	731.366
203.475	25.028	918.227	731.066
204.490	24.763	916.621	728.643
205.504	23.417	914.902	721.735
206.519	23.935	914.263	723.274
207.534	24.919	914.783	727.622
208.548	24.957	914.284	727.314
209.563	25.365	914.169	728.816
210.577	25.319	913.664	728.161
211.592	25.147	912.467	726.446
212.607	25.581	912.293	728.000
213.621	25.705	911.906	728.130
214.636	25.653	910.975	727.113
215.650	25.628	910.622	726.664
216.665	25.599	910.247	726.185
217.680	25.593	909.697	725.656
218.694	25.705	909.246	725.685
219.709	25.456	908.106	723.708
220.723	25.006	907.188	721.103
221.738	25.332	906.652	721.922
222.753	25.492	906.056	722.028
223.767	25.290	905.861	720.996
224.782	25.334	905.045	720.460
225.796	25.571	904.507	720.917
226.811	25.839	903.501	721.126
227.826	25.356	902.411	718.261
228.840	24.585	900.700	713.755
229.855	24.369	900.620	712.767
230.869	24.671	900.151	713.536
231.884	24.407	898.820	711.367
232.899	24.320	899.018	711.115
233.913	25.301	898.756	714.752
234.928	25.500	898.460	715.244
235.942	25.241	897.819	713.644
236.957	25.253	897.544	713.407
237.972	25.096	896.208	711.659
238.986	24.949	895.466	710.425
240.001	25.074	894.970	710.463
241.015	25.136	893.918	709.813
242.030	25.183	893.514	709.616
243.045	25.338	893.488	710.142
244.059	25.267	893.306	709.656
245.074	25.504	892.771	710.102
246.088	25.455	891.757	709.040
247.103	25.212	890.475	707.002
248.117	25.307	889.818	706.792
249.132	25.692	890.206	708.551
250.147	26.084	889.832	709.734
251.161	26.080	889.636	709.499
252.176	26.286	889.138	709.850
253.190	26.337	888.426	709.419
254.205	26.351	887.890	708.982
255.220	26.687	887.219	709.699
256.234	26.541	886.952	708.851
257.249	26.275	886.134	707.097
258.263	26.321	885.395	706.622
259.278	26.120	885.314	705.710
260.293	26.391	884.460	706.025
261.307	26.375	884.001	705.535
262.322	26.364	883.353	704.911
263.336	26.274	882.607	703.904
264.351	25.793	881.017	700.701
265.366	24.746	878.890	694.884
266.380	24.256	878.490	692.599
267.395	25.140	878.737	696.167
268.409	25.808	879.253	699.109
269.424	25.891	878.127	698.475
270.439	26.091	877.575	698.748
271.453	26.098	877.416	698.587
272.468	26.080	876.832	697.989
273.482	26.270	876.337	698.266
274.497	26.442	875.872	698.498
275.512	26.144	874.602	696.277
276.526	25.763	873.117	693.565
277.541	25.816	872.847	693.493
278.555	26.404	872.146	695.135
279.570	26.100	871.642	693.504
280.585	25.823	871.360	692.153
281.599	25.956	870.566	691.973
282.614	26.110	870.368	692.344
283.628	25.592	869.552	689.651
284.643	25.292	868.475	687.586
285.657	25.603	868.507	688.741
286.672	25.519	867.490	687.552
287.687	24.959	866.833	684.829
288.701	25.291	866.960	686.138
289.716	25.871	866.444	687.886
290.730	25.526	865.300	685.601
291.745	25.490	864.611	684.856
292.760	25.125	864.091	682.994
293.774	25.064	863.467	682.209
294.789	25.960	864.009	685.987
295.803	26.566	864.001	688.223
296.818	26.669	863.430	688.099
297.833	26.889	862.759	688.341
298.847	26.538	861.524	685.965
299.862	26.133	860.945	683.909
300.876	26.306	860.504	684.153
301.891	26.597	860.343	685.066
302.906	26.585	859.730	684.469
303.920	26.363	858.326	682.452
304.935	26.291	857.337	681.334
305.949	26.538	857.654	682.458
306.964	26.665	857.006	682.359
307.979	26.407	856.575	680.985
308.993	26.348	855.875	680.146
310.008	26.527	855.870	680.757
311.022	26.879	855.216	681.497
312.037	26.783	854.448	680.467
313.052	26.455	853.945	678.776
314.066	26.352	853.034	677.603
315.081	25.702	851.515	673.906
316.095	24.908	850.665	670.204
317.110	25.253	851.089	671.767
318.125	26.392	850.704	675.663
319.139	26.105	849.604	673.661
320.154	24.826	847.936	667.510
321.168	24.309	847.341	665.054
322.183	25.093	847.218	667.821
323.197	25.846	848.097	671.261
324.212	26.023	847.761	671.594
325.227	26.274	847.175	672.004
326.241	26.421	846.783	672.180
327.256	26.414	846.070	671.528
328.270	26.214	845.447	670.235
329.285	26.106	844.814	669.272
330.300	25.895	844.209	667.952
331.314	25.816	843.302	666.882
332.329	25.875	842.650	666.525
333.343	26.292	842.312	667.740
334.358	26.588	842.276	668.746
335.373	26.688	841.400	668.362
336.387	26.697	840.742	667.813
337.402	26.825	840.878	668.333
338.416	26.946	840.367	668.315
339.431	26.992	839.902	668.055
340.446	26.913	839.103	667.071
341.460	27.208	838.842	667.887
342.475	27.064	838.258	666.833
343.489	26.780	837.641	665.241
344.504	26.932	836.953	665.195
345.519	27.132	836.721	665.682
346.533	27.493	835.984	666.357
347.548	27.356	835.973	665.792
348.562	27.473	835.238	665.571
349.577	27.406	834.846	664.959
350.592	27.254	834.221	663.846
351.606	27.237	833.821	663.406
352.621	27.134	833.376	662.620
353.635	27.235	832.439	662.183
354.650	27.229	832.233	661.938
355.665	26.746	831.230	659.327
356.679	25.883	829.516	654.774
357.694	25.620	828.980	653.338
358.708	26.272	829.197	655.818
359.723	26.184	828.883	655.191
360.738	26.544	828.179	655.882
361.752	26.964	828.195	657.358
362.767	26.903	828.177	657.067
363.781	27.312	827.950	658.306
364.796	27.514	827.677	658.762
365.810	27.681	827.061	658.816
366.825	27.754	826.974	658.955
367.840	27.717	826.362	658.274
368.854	27.592	825.719	657.253
369.869	27.096	824.785	654.665
370.883	27.043	824.007	653.799
371.898	27.086	823.505	653.497
372.913	27.061	822.829	652.811
373.927	27.025	822.267	652.181
374.942	27.130	821.757	652.096
375.956	27.274	821.007	651.958
376.971	27.349	820.678	651.907
377.986	27.483	820.756	652.393
379.000	27.603	820.006	652.169
380.015	27.620	819.562	651.817
381.029	27.504	818.694	650.653
382.044	27.474	818.201	650.098
383.059	27.436	818.210	649.914
384.073	27.653	817.066	649.718
385.088	27.763	816.636	649.712
386.102	27.663	815.976	648.773
387.117	27.427	815.462	647.469
388.132	27.543	814.535	647.089
389.146	27.359	813.849	645.831
390.161	26.717	813.308	643.068
391.175	26.875	812.780	643.155
392.190	27.197	812.852	644.296
393.205	27.431	812.256	644.596
394.219	26.307	810.674	639.310
395.234	24.734	808.346	631.864
396.248	23.841	807.381	627.900
397.263	25.059	808.010	632.637
398.278	26.750	809.689	639.870
399.292	27.229	809.700	641.511
400.307	26.930	808.998	639.845
401.321	27.059	808.233	639.639
402.336	26.853	808.112	638.760
403.350	27.196	807.990	639.816
404.365	27.840	807.561	641.682
405.380	27.972	807.849	642.320
406.394	28.193	807.722	642.937
407.409	28.381	807.016	642.977
408.423	28.441	806.463	642.691
409.438	28.188	806.058	641.424
410.453	28.294	805.750	641.496
411.467	28.295	805.339	641.114
412.482	28.328	804.610	640.590
413.496	28.347	803.951	640.078
414.511	28.434	803.634	640.074
415.526	28.462	803.453	639.969
416.540	28.554	802.702	639.636
417.555	28.331	802.556	638.683
418.569	28.208	801.567	637.414
419.584	27.938	801.387	636.273
420.599	28.011	800.861	636.053
421.613	111.142	1283.946	1456.266
422.628	95.937	1354.325	1456.384
