DTS Sentinel unit serial number:	SN413079Multiplexer serial number:	ORYXHardware model number:	OX4-SRSoftware version number:	ORYX F/W v4.00 Oryx Data Collector v3.7.2.0data status	okinstallation	princeton_trtdifferential loss correction	single-endedforward channel	channel 3reverse channel	N/Adate	2019/09/10time	22:46:10forward acquisition time	60.00reverse acquisition time	0.00gamma	496.2192k internal	0.2331k external	0.2331temperature offset calibration	0.9917default loss term (dB/km)	0.3790temperature slope calibration	1.0000multiplexer offset coefficient	1.0000multiplexer slope coefficient	1.0000fibre end	0.00T internal ref (°C)	30.19T ext. ref 1 (°C)	-0.32T ext. ref 2 (°C)	23.58length (m)	temperature (°C)	Stokes	anti-Stokes-747.200	40.972	0.439	-0.399
-746.185	-39.734	0.357	0.188
-745.171	-114.384	0.099	-0.019
-744.156	797.110	-0.035	0.096
-743.142	401.820	-0.126	-0.267
-742.127	800.000	0.052	0.171
-741.112	-157.380	0.250	0.015
-740.098	-200.000	-0.009	-0.049
-739.083	139.823	-0.132	-0.176
-738.069	104.405	-0.410	0.486
-737.054	-32.553	-0.258	-0.145
-736.039	-28.235	-0.306	-0.178
-735.025	800.000	-0.028	0.095
-734.010	-200.000	-0.037	-0.404
-732.996	-33.887	-0.105	-0.058
-731.981	-150.500	-0.092	-0.007
-730.966	490.928	0.185	0.427
-729.952	-200.000	-0.004	-0.021
-728.937	-104.238	-0.275	0.064
-727.923	-123.663	-0.222	0.035
-726.908	481.388	0.087	-0.198
-725.894	52.145	-0.223	-0.214
-724.879	671.351	-0.164	-0.426
-723.864	800.000	0.042	0.135
-722.850	457.729	0.050	-0.111
-721.835	800.000	0.009	0.038
-720.821	-67.434	-0.335	0.132
-719.806	800.000	-0.057	-0.202
-718.791	711.872	-0.033	0.089
-717.777	800.000	-0.052	-0.172
-716.762	261.868	0.150	-0.261
-715.748	657.706	-0.133	-0.344
-714.733	447.751	0.030	-0.065
-713.718	169.770	0.091	-0.130
-712.704	800.000	0.084	-0.249
-711.689	712.255	0.035	-0.094
-710.675	122.960	-0.155	-0.195
-709.660	800.000	-0.103	0.299
-708.645	75.325	-0.187	-0.198
-707.631	-65.982	-0.106	-0.042
-706.616	-45.024	0.184	-0.092
-705.602	550.424	-0.033	-0.079
-704.587	-91.685	-0.062	0.018
-703.572	399.316	-0.096	-0.201
-702.558	-142.680	-0.101	-0.010
-701.543	-17.770	-0.094	-0.060
-700.529	156.479	-0.282	0.392
-699.514	308.722	-0.182	0.342
-698.499	-116.177	-0.106	0.020
-697.485	-119.162	0.239	0.042
-696.470	-200.000	0.018	-0.088
-695.456	-200.000	0.012	-0.263
-694.441	800.000	0.134	-0.511
-693.426	228.387	0.073	-0.119
-692.412	200.880	0.109	-0.168
-691.397	145.871	-0.142	-0.192
-690.383	21.306	0.102	0.084
-689.368	800.000	-0.052	0.185
-688.354	-95.983	0.321	-0.086
-687.339	800.000	0.060	-0.194
-686.324	101.779	0.115	-0.134
-685.310	25.135	-0.063	-0.052
-684.295	-200.000	-0.003	-0.125
-683.281	-22.950	-0.065	-0.039
-682.266	43.586	-0.133	-0.122
-681.251	-5.590	-0.182	-0.125
-680.237	800.000	-0.056	-0.206
-679.222	344.418	-0.187	-0.368
-678.208	-29.991	0.222	0.127
-677.193	429.444	0.089	-0.192
-676.178	800.000	-0.161	0.454
-675.164	-68.966	-0.115	0.045
-674.149	82.373	0.094	-0.103
-673.135	-48.780	-0.071	0.034
-672.120	-160.439	-0.192	-0.010
-671.105	-200.000	0.010	-0.068
-670.091	-28.705	-0.211	0.122
-669.076	-33.203	0.143	-0.079
-668.062	364.936	0.122	0.247
-667.047	41.284	0.144	-0.131
-666.032	-200.000	0.005	-0.291
-665.018	-200.000	0.015	-0.265
-664.003	17.666	-0.235	-0.188
-662.989	-200.000	0.026	-0.405
-661.974	71.257	-0.215	-0.224
-660.959	349.693	-0.169	0.335
-659.945	538.673	0.117	0.279
-658.930	217.264	0.128	-0.204
-657.916	-200.000	-0.044	-0.307
-656.901	180.426	0.164	0.242
-655.886	5.442	0.222	-0.165
-654.872	800.000	-0.076	0.262
-653.857	800.000	0.036	-0.133
-652.843	-90.128	0.325	-0.095
-651.828	-148.790	-0.378	0.031
-650.814	-73.090	0.045	0.017
-649.799	117.779	0.137	0.169
-648.784	65.600	-0.267	-0.271
-647.770	-200.000	-0.021	0.242
-646.755	-19.992	0.141	-0.087
-645.741	299.348	-0.113	0.208
-644.726	-64.146	-0.057	-0.023
-643.711	237.492	0.154	-0.255
-642.697	566.686	0.172	-0.417
-641.682	-200.000	-0.046	-0.324
-640.668	85.877	0.202	-0.223
-639.653	-200.000	0.028	-0.158
-638.638	508.986	-0.094	0.219
-637.624	321.399	0.197	-0.375
-636.609	102.388	-0.099	-0.116
-635.595	-81.202	0.252	-0.083
-634.580	-152.729	-0.484	-0.035
-633.565	-181.812	0.519	0.010
-632.551	157.939	-0.062	0.086
-631.536	-200.000	-0.015	0.137
-630.522	571.353	0.097	0.236
-629.507	-0.657	-0.086	0.061
-628.492	440.633	0.183	0.401
-627.478	-103.981	0.196	0.046
-626.463	454.668	0.156	0.346
-625.449	-142.056	-0.097	0.010
-624.434	25.229	-0.259	0.215
-623.419	-53.079	0.213	0.098
-622.405	-93.827	-0.100	0.028
-621.390	-33.028	-0.192	0.107
-620.376	102.549	-0.076	0.089
-619.361	154.778	0.077	-0.106
-618.346	176.494	-0.202	0.293
-617.332	-51.803	0.524	0.244
-616.317	800.000	-0.066	0.249
-615.303	214.409	-0.097	-0.154
-614.288	-29.897	0.154	-0.088
-613.273	47.539	-0.100	0.093
-612.259	-92.448	-0.135	-0.038
-611.244	64.474	-0.247	-0.249
-610.230	23.268	-0.161	-0.132
-609.215	30.719	-0.194	0.166
-608.201	-200.000	0.054	0.244
-607.186	-29.663	-0.165	0.094
-606.171	-190.426	0.316	0.003
-605.157	52.405	0.243	-0.232
-604.142	22.426	0.190	0.156
-603.128	-30.201	-0.458	0.261
-602.113	-63.402	-0.051	-0.021
-601.098	-169.863	-0.207	0.007
-600.084	-65.858	-0.183	0.073
-599.069	-147.229	0.261	-0.022
-598.055	146.660	-0.136	0.183
-597.040	-112.550	0.271	-0.054
-596.025	15.899	-0.222	-0.175
-595.011	-67.950	-0.115	-0.045
-593.996	-200.000	-0.043	0.236
-592.982	107.453	-0.082	-0.097
-591.967	174.880	0.064	0.093
-590.952	288.374	0.157	-0.285
-589.938	-72.107	0.226	-0.084
-588.923	584.350	0.094	0.230
-587.909	175.759	-0.120	0.174
-586.894	135.208	0.009	0.012
-585.879	-200.000	0.014	0.438
-584.865	82.145	0.133	-0.144
-583.850	58.187	-0.066	0.065
-582.836	800.000	0.031	-0.103
-581.821	15.777	-0.257	0.202
-580.806	-24.120	-0.259	-0.155
-579.792	-142.856	0.274	-0.027
-578.777	-71.478	-0.323	-0.121
-577.763	-200.000	0.068	-0.358
-576.748	152.095	-0.163	-0.222
-575.733	118.455	-0.266	0.328
-574.719	59.592	-0.177	0.175
-573.704	-32.480	-0.125	0.069
-572.690	-67.171	0.334	0.131
-571.675	800.000	0.035	0.131
-570.661	264.721	0.146	0.254
-569.646	-131.234	-0.078	-0.010
-568.631	7.999	-0.163	0.122
-567.617	-83.479	-0.345	0.110
-566.602	481.785	0.103	0.234
-565.588	-6.086	0.029	-0.020
-564.573	-12.602	-0.207	-0.135
-563.558	-200.000	-0.048	0.250
-562.544	6.069	-0.054	0.040
-561.529	800.000	-0.068	-0.290
-560.515	-82.977	-0.103	-0.033
-559.500	-5.681	0.108	0.074
-558.485	-200.000	-0.030	0.185
-557.471	-53.647	-0.247	0.113
-556.456	297.991	-0.151	0.277
-555.442	146.597	0.153	0.206
-554.427	800.000	-0.041	0.155
-553.412	-200.000	-0.066	-0.323
-552.398	287.079	0.184	0.331
-551.383	-52.056	0.279	0.129
-550.369	-79.009	0.389	0.132
-549.354	338.404	-0.104	-0.203
-548.339	-130.153	-0.237	-0.032
-547.325	317.319	0.048	0.090
-546.310	269.397	-0.021	0.037
-545.296	249.581	0.100	-0.170
-544.281	-200.000	-0.020	0.264
-543.266	147.845	0.170	0.229
-542.252	-148.051	-0.229	-0.019
-541.237	100.583	0.158	-0.183
-540.223	800.000	0.033	0.094
-539.208	-36.840	-0.206	0.110
-538.193	-172.285	-0.103	0.003
-537.179	130.457	0.206	-0.264
-536.164	800.000	-0.060	-0.228
-535.150	547.098	-0.117	0.280
-534.135	44.412	0.103	0.095
-533.121	-10.981	-0.363	-0.239
-532.106	-47.757	0.342	-0.166
-531.091	800.000	-0.188	-0.568
-530.077	-200.000	0.033	-0.287
-529.062	-200.000	0.007	-0.291
-528.048	-24.834	-0.213	0.126
-527.033	-200.000	-0.026	-0.190
-526.018	-96.067	-0.079	0.021
-525.004	-69.716	-0.230	-0.088
-523.989	216.912	0.186	0.295
-522.975	-1.793	-0.198	0.139
-521.960	28.607	0.106	0.089
-520.945	240.266	0.128	0.214
-519.931	-54.634	-0.422	-0.190
-518.916	-2.677	0.081	0.057
-517.902	-105.762	-0.296	-0.067
-516.887	-89.134	-0.162	0.048
-515.872	-120.628	-0.190	-0.032
-514.858	-123.414	-0.148	0.023
-513.843	251.340	-0.135	0.229
-512.829	22.586	0.095	0.078
-511.814	112.603	0.075	0.091
-510.799	258.492	-0.097	0.166
-509.785	-33.173	0.076	0.042
-508.770	-145.377	-0.068	0.006
-507.756	-76.533	0.194	-0.068
-506.741	61.374	0.275	-0.273
-505.726	-200.000	0.043	0.232
-504.712	-165.225	-0.159	0.007
-503.697	163.289	0.298	-0.418
-502.683	136.896	-0.055	0.072
-501.668	-200.000	-0.000	-0.029
-500.653	287.281	0.019	-0.034
-499.639	800.000	0.085	-0.340
-498.624	-152.388	0.120	-0.009
-497.610	-115.609	-0.285	0.053
-496.595	123.242	0.161	0.202
-495.581	-22.761	-0.098	0.059
-494.566	133.189	-0.055	-0.071
-493.551	329.331	0.141	0.269
-492.537	-97.664	-0.128	0.033
-491.522	-128.595	-0.163	-0.023
-490.508	184.883	-0.126	-0.186
-489.493	-178.969	-0.318	0.007
-488.478	-145.750	0.220	-0.020
-487.464	350.141	0.127	0.250
-486.449	-30.357	-0.194	0.110
-485.435	108.053	0.138	-0.164
-484.420	-200.000	-0.001	-0.270
-483.405	202.728	-0.117	0.179
-482.391	59.273	-0.033	-0.032
-481.376	310.514	-0.123	0.229
-480.362	-200.000	-0.045	-0.207
-479.347	44.713	0.197	-0.180
-478.332	-200.000	0.037	-0.452
-477.318	-65.699	0.140	-0.056
-476.303	800.000	-0.093	-0.268
-475.289	-38.065	0.237	-0.125
-474.274	-84.413	-0.140	0.044
-473.259	187.854	-0.070	0.105
-472.245	-200.000	-0.015	-0.287
-471.230	207.997	0.121	0.188
-470.216	11.441	-0.218	0.166
-469.201	-156.907	0.272	-0.017
-468.186	-69.849	0.111	-0.042
-467.172	-87.505	-0.336	-0.101
-466.157	33.126	0.242	-0.209
-465.143	-200.000	0.066	0.326
-464.128	-200.000	-0.006	0.387
-463.113	264.633	0.169	0.293
-462.099	800.000	-0.065	0.184
-461.084	-200.000	-0.056	-0.252
-460.070	-18.485	0.205	0.127
-459.055	105.142	0.131	-0.154
-458.040	-14.918	0.172	-0.110
-457.026	39.056	0.209	0.186
-456.011	-98.699	-0.129	0.033
-454.997	-108.031	0.427	0.092
-453.982	226.049	0.176	0.284
-452.968	-121.468	0.046	0.008
-451.953	115.502	-0.090	-0.109
-450.938	-136.957	0.175	-0.020
-449.924	3.980	-0.116	0.084
-448.909	-22.040	-0.170	0.102
-447.895	622.685	0.123	-0.309
-446.880	262.605	0.105	-0.182
-445.865	-93.273	0.252	0.070
-444.851	-39.353	0.017	0.009
-443.836	-70.544	0.189	0.071
-442.822	800.000	-0.138	0.380
-441.807	-98.503	0.041	0.010
-440.792	-64.455	0.024	0.010
-439.778	10.801	0.204	-0.155
-438.763	205.811	-0.063	-0.097
-437.749	354.014	-0.085	-0.169
-436.734	800.000	0.074	-0.289
-435.719	-200.000	-0.018	-0.286
-434.705	29.098	-0.195	-0.165
-433.690	179.423	-0.126	0.183
-432.676	-77.075	-0.219	-0.076
-431.661	-75.476	-0.207	0.073
-430.646	353.576	-0.070	0.138
-429.632	-31.240	0.053	-0.029
-428.617	213.106	0.043	0.068
-427.603	-57.575	-0.188	0.082
-426.588	-107.321	0.307	0.067
-425.573	395.431	0.124	0.256
-424.559	-23.595	0.150	0.090
-423.544	-200.000	-0.004	0.237
-422.530	24.715	-0.136	0.112
-421.515	30.610	0.166	0.141
-420.500	251.225	-0.057	0.097
-419.486	-107.597	0.372	-0.081
-418.471	335.028	-0.069	-0.134
-417.457	152.007	0.150	0.204
-416.442	65.665	-0.114	-0.115
-415.428	-28.631	0.167	-0.096
-414.413	280.129	0.193	-0.342
-413.398	16.780	0.148	-0.116
-412.384	800.000	0.064	-0.192
-411.369	-200.000	0.009	0.079
-410.355	-200.000	0.031	0.376
-409.340	691.153	-0.057	0.148
-408.325	800.000	-0.023	0.069
-407.311	-29.877	-0.334	-0.189
-406.296	-24.898	0.044	-0.026
-405.282	442.006	-0.027	-0.059
-404.267	-122.210	0.174	-0.028
-403.252	-81.691	-0.176	0.057
-402.238	96.907	-0.154	-0.176
-401.223	32.280	0.156	-0.134
-400.209	-200.000	0.018	-0.089
-399.194	-10.878	0.104	0.068
-398.179	58.969	-0.074	0.072
-397.165	-130.581	-0.129	-0.017
-396.150	374.683	0.135	-0.273
-395.136	-46.027	-0.117	0.057
-394.121	791.495	-0.059	-0.161
-393.106	-200.000	-0.021	-0.122
-392.092	-200.000	0.001	-0.142
-391.077	-38.827	0.268	0.140
-390.063	-108.543	0.241	-0.051
-389.048	800.000	0.047	-0.149
-388.033	260.255	0.154	-0.263
-387.019	-130.105	-0.286	0.039
-386.004	-115.941	0.286	-0.053
-384.990	-64.241	-0.434	0.175
-383.975	62.707	-0.116	-0.115
-382.960	301.491	0.171	0.313
-381.946	511.144	0.083	-0.191
-380.931	337.081	-0.029	-0.057
-379.917	800.000	0.111	0.409
-378.902	-8.030	0.315	-0.211
-377.888	-86.029	0.101	-0.031
-376.873	-76.346	0.339	-0.118
-375.858	-200.000	-0.000	0.116
-374.844	734.713	-0.149	-0.395
-373.829	-22.338	-0.203	0.122
-372.815	102.422	-0.174	-0.202
-371.800	-109.761	-0.227	-0.047
-370.785	-6.058	0.202	-0.137
-369.771	-157.805	-0.315	0.019
-368.756	-200.000	0.003	0.148
-367.742	5.619	-0.238	-0.174
-366.727	-87.337	0.304	0.092
-365.712	-97.420	-0.395	-0.102
-364.698	-58.480	0.213	-0.092
-363.683	140.979	-0.041	-0.054
-362.669	-200.000	-0.069	0.387
-361.654	-70.178	-0.274	0.103
-360.639	550.351	-0.052	0.124
-359.625	800.000	-0.062	0.262
-358.610	723.066	0.135	0.356
-357.596	-104.649	0.197	-0.045
-356.581	-40.901	0.164	0.084
-355.566	-200.000	-0.016	-0.090
-354.552	437.360	0.123	0.266
-353.537	-110.633	-0.415	0.085
-352.523	89.977	-0.185	-0.204
-351.508	-200.000	0.010	0.095
-350.493	6.349	-0.275	-0.202
-349.479	-171.190	-0.172	-0.006
-348.464	-35.726	0.151	-0.081
-347.450	-85.355	-0.062	0.019
-346.435	-200.000	0.105	0.460
-345.420	-104.648	-0.162	0.037
-344.406	13.857	-0.238	0.183
-343.391	233.514	0.230	-0.375
-342.377	50.090	-0.223	-0.208
-341.362	800.000	0.092	-0.266
-340.348	119.904	0.135	0.166
-339.333	-200.000	-0.010	-0.166
-338.318	-64.777	0.054	-0.022
-337.304	-81.809	-0.103	-0.033
-336.289	-200.000	-0.011	0.365
-335.275	265.180	0.110	0.190
-334.260	245.292	-0.227	-0.378
-333.245	34.757	0.052	0.045
-332.231	50.218	0.191	-0.179
-331.216	-200.000	0.069	-0.337
-330.202	87.802	0.158	-0.173
-329.187	-23.672	0.310	0.184
-328.172	25.275	0.174	0.143
-327.158	137.884	-0.192	0.249
-326.143	154.913	-0.203	0.277
-325.129	164.601	-0.201	0.280
-324.114	667.750	-0.082	0.209
-323.099	-42.075	-0.043	-0.022
-322.085	566.252	-0.044	-0.106
-321.070	-7.631	-0.017	-0.011
-320.056	5.378	-0.101	0.073
-319.041	-100.108	-0.278	0.069
-318.026	92.220	0.249	0.277
-317.012	-22.266	0.228	-0.137
-315.997	67.122	-0.103	0.104
-314.983	-200.000	0.048	0.253
-313.968	-200.000	-0.019	-0.483
-312.953	-35.852	0.110	0.059
-311.939	800.000	-0.025	-0.105
-310.924	-45.182	-0.154	-0.076
-309.910	-108.792	0.154	-0.033
-308.895	9.379	-0.113	-0.085
-307.880	-200.000	0.050	0.456
-306.866	289.574	-0.165	-0.297
-305.851	196.428	-0.100	0.151
-304.837	279.008	0.070	-0.124
-303.822	107.362	-0.222	-0.261
-302.807	72.613	0.147	-0.151
-301.793	-7.031	-0.094	-0.063
-300.778	-101.987	-0.251	-0.060
-299.764	62.660	-0.092	0.090
-298.749	-46.589	0.122	0.059
-297.735	190.534	0.089	0.133
-296.720	800.000	-0.043	0.163
-295.705	39.254	0.369	-0.327
-294.691	-141.975	0.402	0.040
-293.676	142.148	-0.178	0.234
-292.662	800.000	0.103	-0.333
-291.647	20.784	-0.031	-0.025
-290.632	800.000	-0.082	-0.306
-289.618	800.000	-0.060	0.216
-288.603	-34.594	-0.182	-0.098
-287.589	322.305	-0.031	0.059
-286.574	91.535	-0.269	0.299
-285.559	103.559	-0.079	-0.092
-284.545	62.433	0.215	-0.212
-283.530	657.945	-0.096	-0.245
-282.516	-200.000	0.029	0.255
-281.501	-109.993	0.155	-0.032
-280.486	349.679	0.123	-0.240
-279.472	800.000	0.092	-0.290
-278.457	357.227	-0.101	-0.199
-277.443	-200.000	0.055	-0.334
-276.428	-14.332	-0.095	-0.061
-275.413	-80.065	-0.118	-0.039
-274.399	32.818	-0.230	0.197
-273.384	-54.373	0.048	0.022
-272.370	-200.000	0.063	0.373
-271.355	-200.000	0.063	0.449
-270.340	800.000	-0.071	0.198
-269.326	5.846	-0.152	-0.111
-268.311	293.110	0.126	0.227
-267.297	-25.462	-0.317	-0.185
-266.282	63.793	-0.297	-0.295
-265.267	-181.183	-0.364	0.007
-264.253	476.422	0.141	-0.314
-263.238	-191.674	0.154	0.002
-262.224	-73.091	-0.401	-0.145
-261.209	-37.236	0.225	0.119
-260.195	104.101	0.207	-0.241
-259.180	-23.112	0.140	-0.083
-258.165	-101.890	-0.018	-0.004
-257.151	77.407	0.155	-0.163
-256.136	-17.929	-0.087	0.054
-255.122	680.156	0.085	0.219
-254.107	-107.832	0.397	0.085
-253.092	-200.000	-0.013	-0.295
-252.078	-26.927	-0.118	-0.068
-251.063	800.000	-0.057	0.168
-250.049	-84.356	0.025	-0.008
-249.034	139.207	0.090	-0.117
-248.019	-182.921	-0.211	0.004
-247.005	-15.714	-0.198	0.125
-245.990	-161.537	0.119	-0.006
-244.976	-200.000	-0.022	-0.322
-243.961	77.214	0.162	-0.170
-242.946	-200.000	-0.041	-0.432
-241.932	243.569	-0.033	-0.054
-240.917	273.586	0.074	-0.130
-239.903	3.590	0.247	0.178
-238.888	91.077	-0.131	-0.145
-237.873	74.629	0.234	0.243
-236.859	-86.975	-0.369	-0.111
-235.844	-128.680	0.250	-0.035
-234.830	800.000	-0.091	0.266
-233.815	303.079	-0.173	-0.316
-232.800	-17.080	-0.179	-0.111
-231.786	231.586	-0.025	0.040
-230.771	414.521	0.215	-0.452
-229.757	800.000	0.085	-0.284
-228.742	-200.000	0.021	0.099
-227.727	-140.109	0.293	0.030
-226.713	-132.281	0.204	0.026
-225.698	76.906	0.100	-0.104
-224.684	-3.630	0.098	0.068
-223.669	-190.339	-0.236	0.003
-222.655	-175.932	-0.148	0.004
-221.640	176.070	0.146	0.209
-220.625	748.182	0.081	0.215
-219.611	800.000	0.100	-0.295
-218.596	-29.866	0.148	-0.083
-217.582	-74.826	0.107	0.038
-216.567	-43.052	0.352	-0.176
-215.552	-103.304	-0.331	0.077
-214.538	65.675	-0.093	0.093
-213.523	89.260	-0.071	0.078
-212.509	-200.000	-0.038	-0.360
-211.494	-200.000	0.003	-0.103
-210.479	56.492	0.329	0.315
-209.465	-200.000	0.014	-0.105
-208.450	174.006	0.172	-0.245
-207.436	-36.075	-0.153	-0.081
-206.421	298.407	-0.131	-0.237
-205.406	28.052	-0.116	-0.097
-204.392	-48.795	0.256	0.121
-203.377	-36.781	-0.112	-0.059
-202.363	47.559	0.105	-0.096
-201.348	-200.000	0.026	0.279
-200.333	-164.645	-0.207	0.009
-199.319	-200.000	0.021	-0.303
-198.304	-18.998	-0.063	0.038
-197.290	-200.000	0.012	0.140
-196.275	181.761	0.075	0.109
-195.260	800.000	-0.066	0.216
-194.246	800.000	-0.084	-0.277
-193.231	-200.000	-0.010	-0.316
-192.217	-108.016	-0.350	0.075
-191.202	-102.625	0.318	-0.075
-190.187	800.000	0.030	-0.094
-189.173	-50.395	0.127	0.059
-188.158	82.592	-0.040	-0.043
-187.144	44.970	0.325	0.295
-186.129	-149.797	0.126	-0.010
-185.114	28.236	-0.383	0.318
-184.100	-87.949	0.130	0.039
-183.085	-125.166	-0.238	-0.036
-182.071	191.499	-0.132	-0.195
-181.056	369.110	0.157	0.313
-180.042	-108.902	0.199	-0.042
-179.027	-11.514	-0.218	-0.141
-178.012	800.000	-0.021	-0.062
-176.998	61.944	0.274	0.269
-175.983	800.000	-0.132	0.423
-174.969	-200.000	-0.031	0.173
-173.954	-0.785	0.240	0.167
-172.939	-51.946	-0.174	0.080
-171.925	268.279	0.130	0.225
-170.910	-200.000	0.058	-0.288
-169.896	16.722	-0.200	0.156
-168.881	670.752	0.102	0.260
-167.866	-59.741	0.157	-0.066
-166.852	-18.515	-0.238	-0.146
-165.837	-123.708	0.109	-0.017
-164.823	278.430	-0.127	0.223
-163.808	-113.797	-0.140	0.027
-162.793	-143.521	-0.227	-0.021
-161.779	202.113	0.177	-0.269
-160.764	76.019	-0.191	0.198
-159.750	203.106	0.071	-0.108
-158.735	48.962	0.109	-0.101
-157.720	7.353	-0.220	-0.162
-156.706	800.000	0.057	0.175
-155.691	66.984	0.090	0.090
-154.677	143.663	0.201	-0.263
-153.662	47.195	0.323	-0.296
-152.647	-105.503	0.153	-0.034
-151.633	239.519	0.162	0.265
-150.618	800.000	0.030	0.091
-149.604	800.000	0.126	0.364
-148.589	800.000	-0.052	0.169
-147.574	272.921	-0.093	-0.161
-146.560	200.811	-0.105	-0.159
-145.545	688.313	-0.075	-0.194
-144.531	-71.494	-0.192	-0.071
-143.516	-36.810	-0.218	-0.115
-142.502	-82.802	-0.064	-0.020
-141.487	738.950	-0.074	0.194
-140.472	545.070	0.014	0.032
-139.458	-200.000	0.389	0.001
-138.443	87.167	0.143	-0.156
-137.429	-200.000	0.057	0.301
-136.414	113.622	-0.161	-0.193
-135.399	-51.543	-0.154	0.071
-134.385	-12.660	-0.073	-0.047
-133.370	-200.000	0.004	-0.034
-132.356	-200.000	0.052	0.343
-131.341	150.543	0.092	0.123
-130.326	758.043	-0.103	-0.275
-129.312	3.602	0.183	0.131
-128.297	-41.052	-0.241	0.122
-127.283	-95.677	0.338	0.089
-126.268	143.275	-0.110	-0.144
-125.253	-86.547	0.121	0.037
-124.239	-200.000	0.016	0.241
-123.224	-85.852	-0.318	-0.097
-122.210	64.136	-0.064	-0.063
-121.195	-97.114	0.208	-0.053
-120.180	-200.000	-0.031	0.186
-119.166	-200.000	-0.053	-0.265
-118.151	178.538	-0.085	-0.121
-117.137	-200.000	0.029	0.333
-116.122	238.746	-0.067	-0.109
-115.107	-200.000	-0.018	-0.154
-114.093	139.306	-0.161	-0.208
-113.078	115.190	-0.030	-0.036
-112.064	271.370	0.077	0.134
-111.049	-200.000	0.018	0.121
-110.034	31.401	0.152	0.128
-109.020	114.668	-0.223	-0.267
-108.005	-40.595	0.084	-0.043
-106.991	781.334	0.138	-0.372
-105.976	120.727	0.151	0.185
-104.962	-200.000	0.063	0.456
-103.947	10.875	0.169	0.127
-102.932	-200.000	-0.066	-0.331
-101.918	-132.590	-0.196	0.025
-100.903	-64.070	0.175	0.070
-99.889	54.995	0.228	0.216
-98.874	-8.982	0.311	-0.204
-97.859	444.241	-0.010	0.022
-96.845	491.164	0.042	0.094
-95.830	-200.000	-0.056	0.425
-94.816	-65.391	-0.012	0.005
-93.801	-103.595	0.067	0.015
-92.786	-200.000	0.010	0.067
-91.772	-190.788	-0.240	-0.002
-90.757	16.385	0.107	0.083
-89.743	-88.495	-0.290	-0.085
-88.728	88.489	-0.116	0.126
-87.713	-136.439	0.252	-0.029
-86.699	-200.000	0.027	0.274
-85.684	-42.999	-0.223	-0.111
-84.670	-141.604	0.144	0.014
-83.655	407.429	-0.196	-0.406
-82.640	14.406	-0.152	-0.116
-81.626	56.381	-0.183	0.174
-80.611	305.933	0.055	0.100
-79.597	-200.000	0.014	-0.075
-78.582	-200.000	-0.010	-0.446
-77.567	-200.000	0.002	-0.272
-76.553	-118.922	0.305	0.053
-75.538	-120.250	0.568	0.095
-74.524	179.169	-0.156	0.224
-73.509	350.356	0.125	0.243
-72.494	-200.000	-0.032	-0.153
-71.480	-200.000	-0.051	0.225
-70.465	-91.071	0.198	0.056
-69.451	-160.407	0.180	-0.009
-68.436	208.786	0.040	0.062
-67.422	-23.018	0.105	0.062
-66.407	-103.408	0.241	-0.056
-65.392	33.508	0.138	0.117
-64.378	-155.936	0.293	0.018
-63.363	173.092	-0.233	0.329
-62.349	198.261	-0.083	-0.125
-61.334	105.640	-0.837	-0.970
-60.319	351.536	0.235	0.456
-59.305	214.378	-0.511	-0.792
-58.290	800.000	0.378	1.251
-57.276	429.890	0.794	1.682
-56.261	-200.000	104.017	616.870
-55.246	523.333	1479.999	3407.497
-54.232	180.724	2673.068	3845.255
-53.217	113.515	2171.625	2583.161
-52.203	40.916	1694.197	1497.884
-51.188	33.387	1503.677	1278.790
-50.173	30.986	1477.166	1240.241
-49.159	51.526	1532.374	1426.431
-48.144	52.412	1548.633	1447.519
-47.130	33.467	1506.007	1281.106
-46.115	30.470	1490.479	1247.758
-45.100	30.255	1486.739	1243.137
-44.086	30.230	1484.774	1241.277
-43.071	30.143	1482.929	1239.099
-42.057	30.070	1481.310	1237.209
-41.042	30.087	1480.201	1236.350
-40.027	30.177	1478.330	1235.338
-39.013	30.045	1476.876	1233.194
-37.998	30.130	1475.802	1232.815
-36.984	30.191	1474.220	1231.850
-35.969	30.154	1472.710	1230.293
-34.954	30.184	1471.298	1229.263
-33.940	30.132	1470.301	1228.035
-32.925	30.165	1469.138	1227.239
-31.911	30.198	1468.161	1226.590
-30.896	30.321	1466.240	1225.751
-29.881	30.331	1465.208	1224.900
-28.867	30.238	1464.039	1223.267
-27.852	30.240	1462.492	1221.937
-26.838	30.202	1460.919	1220.322
-25.823	30.218	1459.370	1219.089
-24.809	30.308	1457.626	1218.171
-23.794	30.338	1455.988	1216.949
-22.779	30.244	1455.460	1215.848
-21.765	30.239	1454.572	1215.020
-20.750	30.326	1453.278	1214.465
-19.736	30.121	1452.645	1212.542
-18.721	30.098	1451.614	1211.486
-17.706	30.212	1450.125	1210.939
-16.692	30.295	1448.957	1210.460
-15.677	30.242	1447.897	1209.176
-14.663	30.157	1447.083	1207.894
-13.648	30.175	1446.122	1207.161
-12.633	30.152	1445.315	1206.292
-11.619	30.177	1444.307	1205.567
-10.604	30.113	1443.624	1204.534
-9.590	30.136	1442.387	1203.601
-8.575	30.085	1441.952	1202.859
-7.560	30.154	1440.800	1202.296
-6.546	30.169	1439.717	1201.442
-5.531	30.112	1439.396	1200.761
-4.517	30.150	1438.278	1200.022
-3.502	30.065	1436.984	1198.345
-2.487	30.229	1435.733	1198.317
-1.473	30.173	1434.601	1196.960
-0.458	30.137	1433.592	1195.838
0.556	27.794	1424.115	1184.501
1.571	24.716	1400.061	1144.719
2.586	21.269	1340.066	1074.404
3.600	19.610	1259.674	1000.264
4.615	18.631	1214.691	958.986
5.629	16.005	1160.427	902.028
6.644	7.696	1077.125	795.755
7.659	0.713	1037.628	732.742
8.673	-0.254	1032.498	724.387
9.688	-0.179	1028.740	722.047
10.702	-0.503	1027.223	719.365
11.717	-0.353	1024.885	718.382
12.731	2.537	1028.429	734.678
13.746	11.403	1040.770	786.313
14.761	18.044	1049.044	824.646
15.775	19.445	1050.452	832.444
16.790	19.582	1049.691	832.428
17.804	19.463	1048.924	831.176
18.819	19.147	1048.114	828.938
19.834	19.275	1047.586	829.064
20.848	19.465	1047.212	829.605
21.863	19.391	1047.015	829.019
22.877	19.411	1046.127	828.338
23.892	19.431	1045.325	827.727
24.907	19.203	1044.610	825.995
25.921	19.398	1044.027	826.396
26.936	19.300	1043.231	825.223
27.950	19.439	1041.320	824.305
28.965	19.279	1040.859	823.102
29.980	19.221	1039.119	821.378
30.994	19.111	1037.979	819.878
32.009	19.335	1037.141	820.208
33.023	19.517	1035.767	819.914
34.038	19.349	1034.997	818.437
35.053	19.288	1034.283	817.508
36.067	19.375	1033.560	817.277
37.082	19.364	1032.738	816.503
38.096	19.431	1032.319	816.416
39.111	19.565	1031.566	816.382
40.126	19.718	1030.570	816.246
41.140	19.606	1029.177	814.543
42.155	19.321	1027.889	812.107
43.169	19.128	1026.436	809.981
44.184	19.137	1025.478	809.197
45.199	19.080	1024.749	808.282
46.213	19.131	1023.212	807.237
47.228	19.006	1022.206	805.787
48.242	19.223	1021.291	806.007
49.257	19.274	1020.301	805.396
50.271	19.347	1019.549	805.069
51.286	19.336	1018.918	804.449
52.301	19.383	1018.162	803.998
53.315	19.415	1017.153	803.282
54.330	19.476	1016.174	802.719
55.344	19.237	1015.678	801.146
56.359	19.500	1014.227	801.151
57.374	19.428	1013.687	800.322
58.388	19.258	1012.847	798.801
59.403	19.295	1011.845	798.110
60.417	19.276	1011.507	797.682
61.432	19.117	1010.406	796.010
62.447	19.068	1009.985	795.383
63.461	19.234	1009.092	795.375
64.476	19.361	1008.056	795.074
65.490	19.342	1007.008	794.086
66.505	19.297	1006.257	793.220
67.520	19.146	1006.028	792.271
68.534	19.318	1004.988	792.173
69.549	19.231	1004.039	790.957
70.563	18.965	1002.621	788.551
71.578	18.837	1001.886	787.317
72.593	18.933	1001.044	787.022
73.607	18.741	999.979	785.238
74.622	18.922	998.617	784.928
75.636	19.098	998.269	785.385
76.651	19.175	997.205	784.831
77.666	19.079	996.315	783.625
78.680	19.015	995.272	782.444
79.695	18.977	995.123	782.084
80.709	19.036	994.658	781.920
81.724	19.155	993.505	781.485
82.739	19.097	992.524	780.378
83.753	19.066	992.020	779.771
84.768	19.441	990.825	780.460
85.782	19.539	990.385	780.488
86.797	19.664	989.496	780.282
87.812	19.708	988.644	779.740
88.826	19.578	987.857	778.464
89.841	19.532	986.890	777.426
90.855	19.680	986.144	777.439
91.870	19.637	985.484	776.654
92.884	19.726	984.656	776.334
93.899	19.540	983.303	774.364
94.914	19.284	982.837	772.782
95.928	19.563	982.021	773.322
96.943	19.506	981.350	772.468
97.957	19.197	980.586	770.418
98.972	19.186	978.612	768.747
99.987	19.044	977.389	767.085
101.001	18.905	977.475	766.466
102.016	19.269	976.608	767.339
103.030	19.393	975.907	767.271
104.045	19.335	974.673	765.979
105.060	19.127	973.118	763.765
106.074	19.018	971.911	762.265
107.089	19.083	971.426	762.106
108.103	19.415	971.119	763.266
109.118	19.548	970.113	763.000
110.133	19.295	968.648	760.661
111.147	19.299	968.076	760.162
112.162	19.261	966.459	758.659
113.176	18.971	965.796	756.794
114.191	18.991	964.687	755.945
115.206	19.206	963.712	756.058
116.220	18.874	962.813	753.832
117.235	18.677	961.592	751.945
118.249	18.777	961.238	752.040
119.264	19.003	959.914	751.924
120.279	18.947	958.634	750.613
121.293	18.912	958.379	750.194
122.308	19.037	957.744	750.175
123.322	18.955	956.884	749.080
124.337	19.103	955.458	748.541
125.352	18.996	954.333	747.126
126.366	18.432	952.550	743.219
127.381	18.308	951.137	741.512
128.395	18.761	951.164	743.433
129.410	19.358	950.226	745.213
130.424	19.580	949.618	745.629
131.439	19.449	948.608	744.205
132.454	19.432	947.562	743.244
133.468	19.505	946.454	742.626
134.483	19.296	945.992	741.297
135.497	19.316	945.655	741.054
136.512	19.550	944.688	741.236
137.527	19.729	944.216	741.568
138.541	19.514	943.372	739.916
139.556	19.606	942.396	739.482
140.570	19.495	941.762	738.444
141.585	19.587	940.739	737.968
142.600	19.635	939.789	737.362
143.614	19.557	938.760	736.156
144.629	19.632	938.280	736.034
145.643	19.970	937.170	736.536
146.658	19.714	936.685	735.005
147.673	19.617	935.304	733.442
148.687	19.520	934.297	732.175
149.702	19.621	932.798	731.365
150.716	19.460	932.252	730.189
151.731	19.477	931.010	729.227
152.746	19.557	930.345	728.979
153.760	19.634	929.910	728.897
154.775	19.597	929.572	728.413
155.789	19.823	928.450	728.417
156.804	19.774	927.285	727.235
157.819	19.691	926.334	726.078
158.833	19.734	925.563	725.586
159.848	19.792	924.794	725.165
160.862	19.938	923.738	724.885
161.877	19.723	923.092	723.411
162.892	19.654	922.385	722.506
163.906	19.846	921.630	722.654
164.921	19.825	920.790	721.842
165.935	19.777	919.954	720.924
166.950	19.796	918.480	719.785
167.964	19.961	917.648	719.755
168.979	19.842	916.410	718.228
169.994	19.764	915.497	717.124
171.008	19.601	914.686	715.749
172.023	19.750	913.950	715.728
173.037	19.835	913.374	715.562
174.052	19.394	912.342	712.868
175.067	19.406	911.409	712.126
176.081	19.492	910.622	711.805
177.096	19.671	910.084	712.057
178.110	19.726	908.824	711.235
179.125	19.532	907.490	709.331
180.140	19.295	906.696	707.677
181.154	19.220	906.126	706.860
182.169	19.315	905.766	706.907
183.183	19.489	905.111	707.044
184.198	19.816	904.649	707.959
185.213	19.619	904.353	706.860
186.227	19.621	903.769	706.348
187.242	19.658	902.970	705.816
188.256	19.792	902.427	705.872
189.271	19.743	901.500	704.886
190.286	19.905	900.562	704.751
191.300	19.667	900.148	703.397
192.315	19.218	898.824	700.474
193.329	18.690	897.241	697.035
194.344	18.293	896.084	694.461
195.359	18.903	896.227	696.986
196.373	19.671	896.662	700.376
197.388	19.866	896.176	700.727
198.402	19.609	895.569	699.150
199.417	19.550	894.950	698.364
200.432	19.646	894.270	698.159
201.446	19.448	893.664	696.824
202.461	19.192	892.878	695.119
203.475	19.176	892.441	694.652
204.490	18.738	890.664	691.442
205.504	17.790	888.680	686.030
206.519	18.342	888.817	688.297
207.534	19.132	889.112	691.641
208.548	19.035	888.852	690.986
209.563	19.562	888.390	692.680
210.577	19.635	887.152	691.946
211.592	19.384	886.619	690.465
212.607	19.690	886.784	691.755
213.621	19.833	885.904	691.582
214.636	19.771	885.092	690.638
215.650	19.846	884.869	690.703
216.665	19.936	883.574	689.990
217.680	19.819	883.731	689.587
218.694	19.948	883.045	689.502
219.709	19.595	881.477	686.811
220.723	19.095	880.970	684.370
221.738	19.452	880.766	685.569
222.753	19.823	879.660	686.119
223.767	19.458	879.709	684.649
224.782	19.818	878.053	684.724
225.796	19.829	877.882	684.574
226.811	19.876	877.391	684.316
227.826	19.640	876.307	682.478
228.840	18.806	874.718	677.891
229.855	18.816	874.296	677.543
230.869	19.104	873.623	678.097
231.884	18.815	872.501	676.028
232.899	18.826	871.680	675.375
233.913	19.562	872.429	678.790
234.928	19.821	872.010	679.423
235.942	19.677	871.423	678.342
236.957	19.653	870.747	677.660
237.972	19.464	869.375	675.791
238.986	19.492	869.057	675.596
240.001	19.364	868.462	674.571
241.015	19.497	867.430	674.229
242.030	19.411	867.186	673.644
243.045	19.621	866.798	674.103
244.059	19.603	865.977	673.333
245.074	19.706	865.673	673.439
246.088	19.801	864.681	672.980
247.103	19.568	863.594	671.168
248.117	19.445	862.763	669.986
249.132	19.914	863.008	671.937
250.147	20.273	862.600	672.954
251.161	20.123	862.078	671.905
252.176	20.377	861.571	672.435
253.190	20.529	860.742	672.317
254.205	20.344	860.958	671.710
255.220	20.564	860.247	671.944
256.234	20.643	859.238	671.402
257.249	20.571	858.437	670.438
258.263	20.312	857.950	669.001
259.278	20.394	857.503	668.908
260.293	20.376	857.119	668.480
261.307	20.477	856.590	668.400
262.322	20.412	855.488	667.229
263.336	20.337	854.617	666.202
264.351	19.857	853.077	663.107
265.366	18.642	851.317	657.028
266.380	18.358	850.382	655.162
267.395	19.169	850.870	658.584
268.409	20.045	850.880	661.883
269.424	20.092	850.069	661.372
270.439	20.225	849.665	661.506
271.453	20.381	848.844	661.401
272.468	20.278	848.402	660.608
273.482	20.462	848.076	660.997
274.497	20.698	847.427	661.327
275.512	20.407	846.363	659.335
276.526	19.834	845.067	656.094
277.541	20.106	844.650	656.743
278.555	20.421	844.198	657.525
279.570	20.232	843.299	656.054
280.585	19.984	842.682	654.578
281.599	20.072	841.903	654.249
282.614	20.199	842.043	654.776
283.628	19.808	840.650	652.164
284.643	19.625	839.723	650.694
285.657	19.954	839.656	651.826
286.672	19.720	839.080	650.438
287.687	19.373	837.926	648.182
288.701	19.856	837.560	649.657
289.716	20.099	837.509	650.472
290.730	19.641	836.544	647.947
291.745	19.593	836.058	647.335
292.760	19.377	835.025	645.671
293.774	19.277	834.330	644.699
294.789	20.142	834.867	648.295
295.803	20.857	834.741	650.811
296.818	20.801	834.552	650.397
297.833	20.913	833.872	650.227
298.847	20.723	832.486	648.383
299.862	20.395	831.825	646.588
300.876	20.553	831.083	646.541
301.891	20.884	831.005	647.656
302.906	20.806	830.272	646.736
303.920	20.410	829.016	644.231
304.935	20.140	828.480	642.758
305.949	20.513	828.235	643.892
306.964	20.868	827.377	644.484
307.979	20.701	826.503	643.127
308.993	20.535	826.242	642.253
310.008	20.901	826.346	643.629
311.022	20.944	825.697	643.228
312.037	20.807	825.341	642.389
313.052	20.709	824.307	641.165
314.066	20.440	824.012	639.889
315.081	20.021	822.300	636.961
316.095	19.424	821.196	633.855
317.110	19.759	821.473	635.245
318.125	20.651	821.388	638.397
319.139	20.059	821.061	635.917
320.154	19.232	818.861	631.125
321.168	18.759	817.640	628.400
322.183	19.469	817.678	630.971
323.197	20.230	818.363	634.226
324.212	20.422	818.353	634.864
325.227	20.553	817.856	634.903
326.241	20.715	817.107	634.855
327.256	20.816	816.580	634.758
328.270	20.623	815.835	633.419
329.285	20.402	815.745	632.488
330.300	20.309	814.758	631.331
331.314	20.193	814.122	630.358
332.329	20.296	813.333	630.067
333.343	20.621	812.574	630.600
334.358	20.667	812.514	630.665
335.373	20.721	811.911	630.336
336.387	20.845	811.099	630.099
337.402	20.966	811.248	630.596
338.416	21.188	810.586	630.829
339.431	21.035	810.157	629.889
340.446	21.083	809.229	629.284
341.460	21.254	809.558	630.098
342.475	21.283	808.206	629.095
343.489	20.956	807.685	627.458
344.504	20.978	807.222	627.121
345.519	21.174	807.207	627.761
346.533	21.413	806.835	628.274
347.548	21.467	806.282	627.983
348.562	21.552	805.675	627.758
349.577	21.741	804.874	627.757
350.592	21.539	804.512	626.696
351.606	21.342	804.435	625.875
352.621	21.531	803.828	626.023
353.635	21.491	802.681	624.932
354.650	21.217	802.585	623.820
355.665	21.061	801.652	622.486
356.679	19.997	799.919	617.293
357.694	19.894	799.477	616.532
358.708	20.596	799.380	618.901
359.723	20.539	799.015	618.360
360.738	20.739	798.632	618.722
361.752	21.099	798.364	619.738
362.767	21.237	797.922	619.831
363.781	21.478	797.843	620.569
364.796	21.599	797.895	620.984
365.810	21.843	797.112	621.183
366.825	21.717	797.056	620.639
367.840	21.717	796.609	620.235
368.854	21.512	796.180	619.121
369.869	21.177	795.296	617.194
370.883	21.098	794.326	616.108
371.898	21.320	793.948	616.545
372.913	21.226	793.403	615.735
373.927	21.089	792.352	614.383
374.942	21.237	792.335	614.835
375.956	21.470	791.539	614.984
376.971	21.441	791.452	614.758
377.986	21.632	790.456	614.601
379.000	21.661	790.253	614.492
380.015	21.715	790.002	614.431
381.029	21.636	789.152	613.438
382.044	21.564	788.195	612.389
383.059	21.792	787.744	612.782
384.073	21.825	787.439	612.604
385.088	21.821	787.242	612.382
386.102	21.786	786.633	611.735
387.117	21.445	786.406	610.313
388.132	21.518	785.544	609.844
389.146	21.366	784.693	608.601
390.161	20.787	784.039	606.026
391.175	20.907	783.624	606.069
392.190	21.381	783.495	607.563
393.205	21.453	782.991	607.368
394.219	20.531	781.195	602.725
395.234	19.058	779.368	596.162
396.248	18.389	778.481	593.116
397.263	19.447	779.769	597.713
398.278	21.173	780.465	604.172
399.292	21.539	780.377	605.316
400.307	21.321	779.621	603.923
401.321	21.351	778.989	603.485
402.336	21.285	779.040	603.241
403.350	21.506	778.752	603.728
404.365	22.015	778.264	605.051
405.380	22.229	778.134	605.633
406.394	22.387	777.498	605.628
407.409	22.486	777.145	605.641
408.423	22.441	777.103	605.398
409.438	22.488	776.128	604.747
410.453	22.392	776.121	604.359
411.467	22.478	775.424	604.059
412.482	22.393	774.941	603.338
413.496	22.415	774.657	603.136
414.511	22.521	774.477	603.307
415.526	22.430	774.030	602.595
416.540	22.413	773.553	602.111
417.555	22.458	772.945	601.737
418.569	22.142	772.136	599.975
419.584	21.852	772.042	598.860
420.599	22.136	771.478	599.340
421.613	158.598	1361.256	1798.550
422.628	136.809	1447.180	1798.612
