DTS Sentinel unit serial number:	SN413079Multiplexer serial number:	ORYXHardware model number:	OX4-SRSoftware version number:	ORYX F/W v4.00 Oryx Data Collector v3.7.2.0data status	okinstallation	princeton_trtdifferential loss correction	single-endedforward channel	channel 3reverse channel	N/Adate	2019/09/11time	05:38:10forward acquisition time	60.00reverse acquisition time	0.00gamma	496.2192k internal	0.2331k external	0.2331temperature offset calibration	0.9908default loss term (dB/km)	0.3790temperature slope calibration	1.0000multiplexer offset coefficient	1.0000multiplexer slope coefficient	1.0000fibre end	0.00T internal ref (°C)	29.42T ext. ref 1 (°C)	-0.27T ext. ref 2 (°C)	23.37length (m)	temperature (°C)	Stokes	anti-Stokes-747.200	-200.000	-0.028	-0.183
-746.185	800.000	0.031	0.118
-745.171	-125.166	0.136	-0.021
-744.156	121.583	-0.191	0.239
-743.142	779.613	-0.108	0.297
-742.127	800.000	-0.035	-0.128
-741.112	260.080	0.070	0.122
-740.098	166.986	-0.126	0.180
-739.083	-200.000	0.044	0.220
-738.069	131.124	-0.187	0.241
-737.054	11.631	-0.189	0.146
-736.039	-185.385	-0.411	-0.006
-735.025	-30.586	-0.280	0.160
-734.010	-200.000	-0.097	-0.480
-732.996	288.835	-0.169	-0.308
-731.981	-22.086	-0.184	-0.112
-730.966	217.855	0.065	0.104
-729.952	-76.893	-0.086	-0.030
-728.937	105.464	0.153	0.181
-727.923	7.787	-0.233	-0.175
-726.908	-151.969	-0.076	0.006
-725.894	800.000	-0.035	-0.150
-724.879	-200.000	0.061	-0.359
-723.864	10.263	-0.290	-0.222
-722.850	-200.000	0.014	-0.136
-721.835	-42.241	0.237	0.122
-720.821	209.034	0.094	-0.148
-719.806	283.503	-0.070	-0.127
-718.791	-7.462	0.051	-0.035
-717.777	800.000	-0.063	-0.266
-716.762	191.636	-0.070	-0.106
-715.748	-101.667	0.115	-0.028
-714.733	-200.000	0.013	-0.146
-713.718	-26.911	-0.270	-0.159
-712.704	94.344	-0.256	-0.292
-711.689	262.411	0.041	0.071
-710.675	-38.873	0.356	0.188
-709.660	800.000	0.001	-0.004
-708.645	206.044	-0.102	-0.160
-707.631	72.061	-0.152	0.159
-706.616	-134.467	-0.071	0.009
-705.602	-85.515	0.389	0.122
-704.587	150.959	0.152	0.207
-703.572	-3.316	0.140	-0.098
-702.558	-12.535	-0.034	0.022
-701.543	41.709	-0.188	0.171
-700.529	-200.000	-0.032	-0.248
-699.514	762.007	-0.140	0.382
-698.499	-200.000	-0.029	-0.264
-697.485	253.061	0.091	-0.155
-696.470	-102.825	0.167	-0.040
-695.456	800.000	-0.088	-0.303
-694.441	295.775	-0.087	0.159
-693.426	-128.718	-0.413	0.059
-692.412	-53.766	-0.254	-0.116
-691.397	-163.370	-0.248	0.012
-690.383	5.607	0.112	0.083
-689.368	195.915	-0.054	-0.082
-688.354	49.517	0.177	-0.167
-687.339	-14.428	-0.242	0.157
-686.324	-200.000	0.008	0.059
-685.310	-14.768	0.196	-0.126
-684.295	-74.860	0.172	0.062
-683.281	279.228	0.101	0.180
-682.266	-138.045	-0.185	-0.021
-681.251	-3.764	0.254	0.177
-680.237	95.870	-0.194	-0.223
-679.222	-74.459	0.095	-0.035
-678.208	69.110	-0.107	-0.111
-677.193	-200.000	-0.028	0.195
-676.178	-200.000	0.017	0.146
-675.164	-200.000	-0.041	-0.366
-674.149	-66.964	-0.133	0.053
-673.135	-200.000	-0.001	-0.198
-672.120	72.107	0.139	0.145
-671.105	72.073	-0.040	-0.042
-670.091	85.494	0.239	0.263
-669.076	-81.671	-0.304	0.100
-668.062	119.215	-0.349	-0.433
-667.047	77.447	0.275	-0.294
-666.032	271.679	0.072	0.128
-665.018	-75.631	-0.258	0.092
-664.003	800.000	0.067	-0.188
-662.989	-130.119	-0.269	0.037
-661.974	800.000	-0.148	0.493
-660.959	145.375	0.231	-0.310
-659.945	-121.584	0.165	0.028
-658.930	-167.153	0.032	-0.001
-657.916	160.214	-0.351	-0.491
-656.901	302.822	0.087	-0.161
-655.886	800.000	0.030	-0.104
-654.872	197.794	0.121	0.186
-653.857	541.979	0.063	0.151
-652.843	-1.290	-0.120	-0.085
-651.828	101.894	0.188	-0.220
-650.814	335.471	0.107	0.209
-649.799	63.488	-0.265	0.267
-648.784	140.631	0.090	0.119
-647.770	-183.371	-0.284	0.005
-646.755	-9.925	-0.169	-0.113
-645.741	220.258	0.115	-0.184
-644.726	641.056	-0.056	0.144
-643.711	240.843	0.100	-0.168
-642.697	800.000	0.035	-0.118
-641.682	-72.766	-0.297	-0.110
-640.668	-200.000	0.033	-0.148
-639.653	-19.491	-0.136	0.084
-638.638	-66.846	-0.181	-0.072
-637.624	800.000	0.060	0.193
-636.609	-159.055	-0.389	-0.022
-635.595	200.619	0.171	0.264
-634.580	-55.789	0.226	0.101
-633.565	32.410	0.192	-0.166
-632.551	-124.208	-0.344	0.054
-631.536	47.536	0.063	-0.059
-630.522	617.953	-0.015	0.039
-629.507	800.000	-0.108	0.300
-628.492	-20.850	-0.220	0.135
-627.478	100.562	0.051	0.059
-626.463	56.549	-0.291	-0.284
-625.449	-27.520	0.315	-0.184
-624.434	278.014	0.063	0.113
-623.419	-104.889	-0.306	0.070
-622.405	-27.054	-0.290	0.169
-621.390	-161.769	-0.292	-0.015
-620.376	-9.885	0.201	0.134
-619.361	-1.357	-0.224	0.158
-618.346	116.656	0.203	-0.250
-617.332	800.000	-0.072	-0.233
-616.317	-126.402	0.271	0.040
-615.303	-96.179	0.426	0.113
-614.288	800.000	-0.047	-0.145
-613.273	86.838	0.232	-0.256
-612.259	103.111	-0.147	0.173
-611.244	-200.000	0.007	0.116
-610.230	98.155	0.069	-0.079
-609.215	-68.528	0.006	-0.002
-608.201	-200.000	0.028	0.164
-607.186	-14.034	0.211	0.136
-606.171	18.629	0.227	0.182
-605.157	239.019	-0.040	0.067
-604.142	-103.325	-0.252	-0.059
-603.128	275.511	0.157	-0.278
-602.113	-200.000	-0.015	0.248
-601.098	-43.048	0.123	-0.062
-600.084	35.500	-0.233	-0.205
-599.069	65.329	0.108	-0.109
-598.055	10.565	0.180	-0.137
-597.040	110.906	0.162	0.196
-596.025	723.756	-0.153	0.409
-595.011	-200.000	0.013	0.253
-593.996	91.269	-0.116	0.130
-592.982	34.327	0.154	-0.135
-591.967	1.348	-0.120	0.086
-590.952	-200.000	0.007	-0.042
-589.938	-14.443	-0.161	0.104
-588.923	-75.284	0.240	0.086
-587.909	-34.707	-0.302	0.165
-586.894	-200.000	-0.005	0.131
-585.879	-200.000	0.081	-0.437
-584.865	-25.028	-0.183	0.108
-583.850	33.150	0.069	-0.059
-582.836	-200.000	-0.042	0.379
-581.821	-200.000	0.001	0.066
-580.806	101.303	-0.055	-0.064
-579.792	-200.000	-0.031	0.143
-578.777	-200.000	0.043	-0.320
-577.763	-72.310	0.222	-0.082
-576.748	-36.266	-0.393	-0.212
-575.733	800.000	0.022	0.079
-574.719	-200.000	0.193	0.000
-573.704	134.124	-0.217	-0.282
-572.690	-200.000	-0.001	0.161
-571.675	-57.115	0.098	0.043
-570.661	800.000	-0.065	-0.204
-569.646	254.069	0.105	-0.179
-568.631	-88.906	-0.270	0.080
-567.617	324.846	-0.285	0.544
-566.602	-69.728	-0.074	-0.028
-565.588	327.733	0.071	-0.137
-564.573	-149.102	-0.247	0.020
-563.558	800.000	0.006	-0.020
-562.544	-75.663	-0.289	-0.103
-561.529	-149.604	-0.239	0.019
-560.515	-38.353	-0.137	-0.072
-559.500	-98.761	-0.223	-0.057
-558.485	263.737	0.209	-0.363
-557.471	125.339	0.070	-0.088
-556.456	-200.000	0.000	-0.143
-555.442	-180.974	-0.171	0.003
-554.427	-200.000	-0.001	0.118
-553.412	-68.053	-0.292	0.114
-552.398	343.980	-0.098	-0.192
-551.383	800.000	-0.051	-0.180
-550.369	-200.000	-0.044	-0.208
-549.354	800.000	0.022	0.075
-548.339	334.304	-0.139	0.269
-547.325	800.000	0.072	-0.273
-546.310	14.740	0.141	-0.110
-545.296	-165.409	0.207	0.009
-544.281	109.427	-0.061	0.073
-543.266	77.437	0.054	0.058
-542.252	-115.411	-0.456	0.086
-541.237	325.935	-0.125	-0.238
-540.223	269.803	-0.029	-0.050
-539.208	64.110	0.128	0.129
-538.193	533.610	0.066	-0.157
-537.179	-1.108	-0.350	-0.247
-536.164	-97.639	0.237	-0.061
-535.150	800.000	0.076	-0.240
-534.135	147.535	0.236	0.318
-533.121	166.471	0.084	0.118
-532.106	-200.000	0.016	-0.137
-531.091	-120.261	-0.109	0.019
-530.077	115.705	0.407	-0.497
-529.062	208.767	-0.131	-0.205
-528.048	81.060	-0.052	-0.056
-527.033	-24.409	0.250	0.149
-526.018	-173.599	-0.270	-0.008
-525.004	-2.209	-0.072	-0.050
-523.989	551.287	-0.105	0.252
-522.975	-15.922	0.212	0.135
-521.960	246.209	-0.107	0.180
-520.945	245.117	-0.075	0.126
-519.931	-135.064	-0.346	-0.042
-518.916	300.191	0.174	-0.321
-517.902	86.440	0.169	0.186
-516.887	787.397	-0.019	0.051
-515.872	-35.812	-0.106	0.057
-514.858	235.911	0.046	0.076
-513.843	153.197	-0.116	0.158
-512.829	-91.783	-0.245	0.069
-511.814	-200.000	0.014	0.113
-510.799	332.178	-0.059	-0.114
-509.785	-70.478	-0.350	-0.132
-508.770	-95.304	-0.095	0.025
-507.756	146.620	0.093	-0.125
-506.741	417.197	0.096	-0.204
-505.726	800.000	0.016	-0.045
-504.712	-101.478	0.242	-0.059
-503.697	-200.000	0.008	0.143
-502.683	186.061	-0.007	-0.011
-501.668	445.829	-0.126	0.275
-500.653	217.171	0.111	0.177
-499.639	-110.456	-0.302	0.063
-498.624	800.000	-0.071	-0.217
-497.610	800.000	-0.018	-0.053
-496.595	-94.407	0.080	-0.022
-495.581	-56.594	-0.247	-0.109
-494.566	-200.000	-0.003	-0.174
-493.551	-93.575	0.221	0.061
-492.537	-200.000	0.034	-0.173
-491.522	-117.542	-0.235	-0.042
-490.508	-186.715	0.181	0.003
-489.493	-28.794	0.248	0.142
-488.478	-200.000	-0.011	0.064
-487.464	-200.000	-0.020	-0.400
-486.449	252.573	-0.091	-0.155
-485.435	39.227	0.131	0.117
-484.420	-28.338	0.151	-0.087
-483.405	-200.000	0.040	-0.189
-482.391	154.270	0.083	-0.114
-481.376	-83.866	0.299	-0.095
-480.362	800.000	-0.162	0.455
-479.347	64.179	0.052	0.052
-478.332	724.545	-0.059	-0.157
-477.318	67.537	0.234	-0.238
-476.303	288.021	-0.257	0.463
-475.289	-146.560	0.095	0.008
-474.274	0.194	-0.311	-0.221
-473.259	-66.274	0.507	-0.201
-472.245	-111.672	-0.052	-0.011
-471.230	344.645	-0.124	-0.243
-470.216	-57.946	0.135	0.059
-469.201	-13.993	0.234	0.150
-468.186	-100.727	-0.123	0.030
-467.172	26.944	-0.259	-0.217
-466.157	15.050	0.174	0.136
-465.143	-122.573	0.419	-0.068
-464.128	197.393	0.136	0.206
-463.113	-81.783	0.495	-0.161
-462.099	-162.524	0.353	0.017
-461.084	-200.000	-0.054	0.349
-460.070	9.274	0.143	0.107
-459.055	-122.572	0.106	0.017
-458.040	800.000	-0.106	-0.325
-457.026	-200.000	-0.031	0.254
-456.011	521.847	-0.015	0.036
-454.997	564.451	-0.199	-0.480
-453.982	-200.000	0.030	0.179
-452.968	206.573	0.097	0.150
-451.953	158.076	-0.051	0.070
-450.938	20.055	-0.078	0.063
-449.924	-113.093	-0.268	0.053
-448.909	-88.348	0.237	0.070
-447.895	236.050	-0.102	0.168
-446.880	-4.157	-0.030	0.021
-445.865	216.001	0.136	-0.215
-444.851	113.709	-0.131	-0.158
-443.836	-200.000	-0.013	0.091
-442.822	-2.897	-0.224	0.155
-441.807	-200.000	-0.030	-0.454
-440.792	416.958	0.080	0.169
-439.778	103.906	0.300	0.350
-438.763	-125.006	0.218	0.033
-437.749	-200.000	-0.085	0.397
-436.734	-171.281	0.428	0.014
-435.719	75.157	0.036	-0.037
-434.705	-200.000	-0.015	0.529
-433.690	-142.965	-0.248	0.024
-432.676	-15.927	0.140	0.089
-431.661	-199.798	0.113	-0.001
-430.646	195.492	-0.133	-0.201
-429.632	800.000	0.039	-0.116
-428.617	1.736	-0.215	-0.154
-427.603	-200.000	-0.015	-0.131
-426.588	-200.000	-0.022	-0.265
-425.573	647.424	0.115	-0.291
-424.559	-86.477	-0.230	0.070
-423.544	-55.877	-0.161	0.072
-422.530	-116.333	-0.191	0.035
-421.515	-10.880	-0.255	-0.167
-420.500	-96.671	0.182	-0.048
-419.486	-16.502	0.350	-0.221
-418.471	-87.700	-0.231	-0.069
-417.457	-159.630	0.159	0.009
-416.442	-35.069	-0.323	-0.175
-415.428	304.897	0.118	-0.218
-414.413	-132.106	0.446	-0.058
-413.398	-157.785	-0.133	-0.008
-412.384	-25.279	-0.162	-0.095
-411.369	-42.691	0.205	0.104
-410.355	-32.694	-0.274	-0.151
-409.340	800.000	0.047	0.180
-408.325	-35.976	-0.139	0.075
-407.311	-28.503	0.258	-0.148
-406.296	-200.000	-0.019	0.288
-405.282	800.000	-0.184	0.528
-404.267	-72.342	0.312	0.115
-403.252	17.197	0.202	0.159
-402.238	5.640	0.221	0.162
-401.223	186.001	0.137	0.203
-400.209	-58.013	-0.193	0.084
-399.194	332.283	0.021	-0.040
-398.179	387.000	-0.054	-0.110
-397.165	85.899	-0.039	0.043
-396.150	-200.000	0.003	0.282
-395.136	184.434	0.189	0.277
-394.121	-120.160	0.021	-0.003
-393.106	800.000	-0.044	0.124
-392.092	-132.551	-0.344	0.044
-391.077	414.900	0.037	-0.078
-390.063	156.080	-0.040	-0.055
-389.048	576.603	-0.012	-0.030
-388.033	-88.918	-0.092	-0.027
-387.019	800.000	-0.040	0.109
-386.004	8.689	0.271	0.203
-384.990	-41.658	0.117	-0.060
-383.975	-100.033	0.340	-0.084
-382.960	-114.346	-0.142	-0.027
-381.946	-101.996	0.054	-0.013
-380.931	-200.000	-0.012	-0.100
-379.917	147.163	0.137	0.183
-378.902	-162.936	0.144	-0.007
-377.888	-87.141	0.093	0.028
-376.873	-200.000	0.009	-0.226
-375.858	749.108	0.124	0.332
-374.844	-200.000	-0.041	0.357
-373.829	-143.340	0.129	0.012
-372.815	800.000	-0.074	-0.220
-371.800	-200.000	0.053	-0.376
-370.785	-200.000	0.031	0.141
-369.771	433.355	-0.069	-0.150
-368.756	46.851	-0.153	0.141
-367.742	177.169	-0.228	-0.330
-366.727	-12.096	-0.169	-0.110
-365.712	-200.000	0.067	-0.348
-364.698	-131.460	0.535	0.070
-363.683	800.000	0.075	-0.215
-362.669	327.194	-0.016	-0.031
-361.654	800.000	-0.049	0.212
-360.639	-127.614	0.389	-0.056
-359.625	-45.741	0.132	0.065
-358.610	62.256	0.071	0.070
-357.596	-200.000	0.032	0.210
-356.581	-200.000	0.039	-0.312
-355.566	754.562	0.055	-0.147
-354.552	-139.891	0.108	0.011
-353.537	440.840	-0.117	0.254
-352.523	10.496	-0.058	-0.043
-351.508	800.000	-0.021	-0.073
-350.493	800.000	0.055	-0.189
-349.479	-157.190	-0.344	0.021
-348.464	245.096	0.154	0.257
-347.450	-184.096	-0.256	0.004
-346.435	-118.836	-0.082	-0.014
-345.420	100.505	0.038	-0.044
-344.406	-200.000	-0.024	-0.120
-343.391	-162.300	0.049	0.002
-342.377	-7.992	0.336	-0.224
-341.362	213.643	0.138	-0.216
-340.348	-63.361	0.152	0.062
-339.333	67.098	0.090	0.091
-338.318	499.485	0.054	-0.122
-337.304	26.496	0.160	-0.133
-336.289	-112.624	0.512	0.101
-335.275	123.433	-0.050	-0.063
-334.260	33.586	0.034	0.029
-333.245	-129.276	-0.240	0.033
-332.231	-200.000	-0.029	-0.128
-331.216	-61.237	0.163	0.068
-330.202	-200.000	-0.036	0.250
-329.187	383.568	-0.045	-0.093
-328.172	-90.012	0.311	0.090
-327.158	444.601	0.051	-0.110
-326.143	591.860	-0.089	-0.217
-325.129	-0.349	0.250	0.176
-324.114	-91.364	0.223	0.063
-323.099	-65.755	-0.419	-0.166
-322.085	-200.000	-0.016	0.134
-321.070	800.000	0.045	0.141
-320.056	-108.684	0.099	-0.021
-319.041	403.326	-0.100	-0.208
-318.026	-166.834	-0.058	-0.002
-317.012	-200.000	0.042	-0.190
-315.997	116.115	-0.225	0.272
-314.983	563.661	-0.070	0.167
-313.968	-200.000	-0.020	0.226
-312.953	800.000	0.027	0.077
-311.939	213.944	-0.082	0.129
-310.924	-67.390	0.234	-0.091
-309.910	-130.223	-0.183	0.025
-308.895	-88.329	0.231	0.068
-307.880	-109.595	0.215	0.045
-306.866	-162.456	-0.244	0.012
-305.851	-96.445	-0.190	0.050
-304.837	1.416	0.407	-0.290
-303.822	-200.000	-0.014	0.086
-302.807	-139.132	-0.371	0.040
-301.793	-138.409	0.068	-0.007
-300.778	-107.692	0.252	-0.055
-299.764	39.266	-0.225	-0.199
-298.749	490.071	-0.044	-0.099
-297.735	-99.964	0.031	0.008
-296.720	-200.000	-0.006	0.103
-295.705	109.423	0.248	-0.294
-294.691	90.819	-0.126	-0.140
-293.676	-135.290	0.214	-0.025
-292.662	-78.730	0.174	0.059
-291.647	-46.093	-0.083	0.041
-290.632	727.743	-0.051	-0.135
-289.618	-200.000	-0.059	-0.273
-288.603	89.053	-0.144	0.159
-287.589	-149.049	-0.185	0.015
-286.574	-158.515	-0.339	0.019
-285.559	259.861	-0.036	0.061
-284.545	-123.660	-0.138	0.022
-283.530	-170.012	0.316	0.011
-282.516	77.949	0.093	0.098
-281.501	584.448	-0.114	0.278
-280.486	-40.628	0.203	0.104
-279.472	800.000	0.109	-0.302
-278.457	-200.000	-0.011	-0.179
-277.443	336.287	0.099	-0.190
-276.428	-46.702	-0.432	0.209
-275.413	800.000	-0.066	-0.192
-274.399	800.000	0.093	0.302
-273.384	-191.123	-0.157	-0.002
-272.370	-166.927	0.232	0.009
-271.355	-200.000	0.031	-0.286
-270.340	800.000	-0.022	-0.088
-269.326	-200.000	0.015	0.066
-268.311	395.926	-0.097	-0.201
-267.297	77.392	-0.115	0.120
-266.282	-111.641	0.117	0.024
-265.267	68.154	-0.162	0.163
-264.253	-72.569	0.195	0.071
-263.238	670.906	0.060	-0.155
-262.224	54.013	0.147	-0.140
-261.209	-200.000	0.022	0.337
-260.195	-103.792	-0.491	0.113
-259.180	-32.368	0.042	0.023
-258.165	-133.844	-0.288	-0.035
-257.151	800.000	0.035	0.116
-256.136	800.000	0.084	0.284
-255.122	77.130	-0.296	0.310
-254.107	-99.636	0.194	-0.048
-253.092	575.786	-0.082	0.197
-252.078	20.751	-0.081	0.064
-251.063	-200.000	-0.001	0.230
-250.049	-105.030	-0.153	0.034
-249.034	159.110	0.170	0.234
-248.019	-200.000	0.037	-0.172
-247.005	702.636	-0.066	0.170
-245.990	-200.000	-0.002	-0.073
-244.976	-200.000	0.000	-0.193
-243.961	295.237	-0.032	-0.059
-242.946	412.148	-0.095	0.199
-241.932	-108.730	-0.238	0.050
-240.917	800.000	0.081	-0.232
-239.903	572.887	-0.077	-0.186
-238.888	-30.715	0.159	0.089
-237.873	10.415	0.036	-0.027
-236.859	116.614	-0.266	0.322
-235.844	-100.802	0.232	-0.056
-234.830	-200.000	0.016	-0.237
-233.815	340.066	0.047	-0.090
-232.800	-163.444	0.212	0.010
-231.786	-35.963	0.167	-0.089
-230.771	95.126	-0.125	-0.140
-229.757	40.668	-0.140	-0.125
-228.742	39.132	0.134	-0.118
-227.727	-54.223	-0.136	0.061
-226.713	-200.000	-0.004	-0.053
-225.698	-127.371	0.345	-0.050
-224.684	134.806	-0.053	0.068
-223.669	437.112	0.106	0.228
-222.655	-107.629	0.447	0.096
-221.640	-43.275	0.119	0.059
-220.625	472.681	-0.062	-0.137
-219.611	-24.566	0.271	0.159
-218.596	-94.868	-0.116	-0.031
-217.582	-200.000	-0.240	-0.001
-216.567	-96.139	-0.105	-0.028
-215.552	-70.313	-0.232	-0.087
-214.538	150.091	-0.113	-0.150
-213.523	800.000	-0.083	-0.267
-212.509	-200.000	-0.057	-0.441
-211.494	-72.329	0.155	-0.056
-210.479	72.049	-0.189	-0.194
-209.465	353.995	0.199	0.389
-208.450	-11.417	0.087	-0.056
-207.436	92.232	-0.255	-0.283
-206.421	-117.954	-0.129	0.023
-205.406	-200.000	0.016	-0.245
-204.392	65.410	-0.408	-0.407
-203.377	44.607	0.282	-0.255
-202.363	11.567	-0.224	0.169
-201.348	-68.607	-0.228	0.087
-200.333	-20.390	0.229	-0.139
-199.319	301.945	0.051	-0.093
-198.304	9.344	-0.157	-0.117
-197.290	-200.000	0.031	0.211
-196.275	33.751	0.103	0.088
-195.260	-200.000	0.061	0.381
-194.246	-186.163	0.163	-0.002
-193.231	2.863	0.230	-0.164
-192.217	-125.849	-0.115	-0.017
-191.202	-9.893	-0.179	-0.118
-190.187	106.312	-0.183	0.214
-189.173	-86.437	-0.101	0.031
-188.158	496.913	0.023	-0.052
-187.144	217.564	-0.114	0.178
-186.129	261.699	-0.057	0.097
-185.114	124.794	-0.215	0.266
-184.100	-9.325	0.094	-0.062
-183.085	70.194	-0.186	-0.189
-182.071	144.538	-0.175	0.230
-181.056	130.658	0.186	-0.235
-180.042	464.885	0.075	0.164
-179.027	-121.837	0.147	-0.024
-178.012	-151.912	-0.094	-0.007
-176.998	-200.000	-0.057	0.532
-175.983	577.522	-0.121	0.291
-174.969	77.119	-0.310	0.324
-173.954	-200.000	-0.007	-0.147
-172.939	11.215	-0.019	0.014
-171.925	62.483	0.118	-0.116
-170.910	-29.258	0.082	-0.046
-169.896	93.828	0.132	-0.147
-168.881	-101.809	-0.318	-0.076
-167.866	37.678	-0.128	0.111
-166.852	-140.281	0.153	-0.016
-165.837	-200.000	-0.004	0.200
-164.823	-102.989	-0.184	-0.043
-163.808	44.064	0.182	0.164
-162.793	-28.691	-0.086	-0.049
-161.779	-200.000	0.200	0.001
-160.764	-3.701	0.203	0.139
-159.750	446.037	-0.115	-0.248
-158.735	-54.979	0.163	0.072
-157.720	233.533	0.090	-0.146
-156.706	800.000	0.110	0.349
-155.691	1.728	0.200	-0.142
-154.677	-87.896	0.108	0.032
-153.662	800.000	-0.087	-0.264
-152.647	66.536	0.259	0.259
-151.633	-19.074	-0.119	-0.072
-150.618	-200.000	0.020	0.269
-149.604	-23.427	-0.197	0.116
-148.589	800.000	0.105	-0.386
-147.574	800.000	0.106	-0.342
-146.560	-20.711	0.233	0.140
-145.545	138.148	0.123	-0.159
-144.531	-200.000	0.004	-0.090
-143.516	-167.751	-0.214	0.008
-142.502	-133.372	-0.279	-0.034
-141.487	-60.307	0.403	0.169
-140.472	-200.000	-0.033	0.151
-139.458	-51.467	-0.153	-0.070
-138.443	-78.425	0.070	-0.024
-137.429	128.232	0.097	-0.121
-136.414	-175.646	0.355	0.009
-135.399	-102.025	0.264	0.063
-134.385	146.026	0.241	0.318
-133.370	800.000	-0.015	0.061
-132.356	-20.869	-0.168	0.101
-131.341	466.501	0.072	-0.158
-130.326	23.305	0.118	-0.095
-129.312	264.368	0.045	-0.077
-128.297	-200.000	0.040	0.398
-127.283	800.000	0.053	0.154
-126.268	409.484	0.012	-0.024
-125.253	800.000	0.119	-0.426
-124.239	245.596	0.178	0.295
-123.224	-98.292	0.113	-0.029
-122.210	800.000	0.120	-0.444
-121.195	24.391	-0.218	0.177
-120.180	-21.213	0.063	-0.038
-119.166	-45.528	-0.335	-0.163
-118.151	800.000	-0.176	-0.536
-117.137	-200.000	0.009	-0.180
-116.122	16.785	-0.266	0.207
-115.107	800.000	0.127	0.400
-114.093	800.000	-0.060	-0.163
-113.078	270.511	0.144	-0.249
-112.064	75.293	0.120	0.124
-111.049	-200.000	-0.002	0.131
-110.034	-120.126	0.175	-0.029
-109.020	528.048	0.042	0.097
-108.005	-131.763	0.235	0.030
-106.991	77.675	0.178	-0.186
-105.976	-11.472	-0.457	0.295
-104.962	-164.683	0.559	0.025
-103.947	351.367	-0.220	0.427
-102.932	-200.000	0.030	-0.185
-101.918	-200.000	-0.011	0.186
-100.903	78.072	0.022	0.023
-99.889	-68.956	-0.144	0.055
-98.874	-160.813	-0.283	0.015
-97.859	-78.243	0.313	-0.106
-96.845	-200.000	0.014	0.260
-95.830	-36.839	0.060	0.031
-94.816	800.000	0.046	0.155
-93.801	355.638	-0.108	0.211
-92.786	-200.000	0.045	-0.261
-91.772	-0.233	0.093	-0.065
-90.757	-23.794	-0.176	0.104
-89.743	-41.565	-0.315	-0.159
-88.728	-26.916	-0.139	0.080
-87.713	767.193	-0.104	-0.277
-86.699	-153.088	0.195	-0.013
-85.684	-102.594	-0.345	0.081
-84.670	-54.015	0.168	-0.075
-83.655	-77.906	0.457	-0.155
-82.640	-10.972	-0.204	0.132
-81.626	-200.000	0.044	-0.308
-80.611	-47.464	0.304	-0.145
-79.597	-71.804	0.300	-0.110
-78.582	-200.000	0.058	0.273
-77.567	-22.072	0.099	0.059
-76.553	512.199	-0.059	0.135
-75.538	124.265	-0.267	0.329
-74.524	786.903	0.145	0.391
-73.509	540.481	0.103	0.241
-72.494	800.000	-0.045	-0.161
-71.480	-200.000	-0.015	0.251
-70.465	-158.646	-0.103	0.006
-69.451	-200.000	-0.040	-0.235
-68.436	190.331	0.064	-0.094
-67.422	800.000	-0.044	-0.154
-66.407	-109.523	0.205	-0.042
-65.392	74.846	-0.279	-0.288
-64.378	-167.116	-0.161	0.006
-63.363	-83.691	-0.220	-0.069
-62.349	800.000	-0.022	-0.093
-61.334	54.062	-0.867	-0.817
-60.319	74.883	0.465	0.480
-59.305	800.000	-0.330	-1.128
-58.290	315.098	0.607	1.120
-57.276	164.532	1.027	1.419
-56.261	-200.000	105.739	614.003
-55.246	506.725	1509.833	3430.339
-54.232	176.273	2702.403	3845.553
-53.217	110.366	2187.087	2574.263
-52.203	40.128	1705.929	1502.262
-51.188	32.531	1516.810	1284.113
-50.173	30.228	1489.658	1245.630
-49.159	51.439	1545.507	1438.054
-48.144	51.734	1562.077	1455.432
-47.130	32.754	1517.932	1286.380
-46.115	29.671	1503.163	1252.949
-45.100	29.642	1499.054	1249.280
-44.086	29.460	1497.525	1246.723
-43.071	29.416	1495.227	1244.462
-42.057	29.468	1493.149	1243.034
-41.042	29.378	1492.689	1241.994
-40.027	29.439	1491.178	1241.099
-39.013	29.441	1489.188	1239.409
-37.998	29.368	1488.263	1238.101
-36.984	29.399	1486.983	1237.194
-35.969	29.279	1485.848	1235.398
-34.954	29.376	1483.903	1234.381
-33.940	29.304	1482.995	1233.092
-32.925	29.404	1481.170	1232.193
-31.911	29.426	1479.616	1230.997
-30.896	29.495	1478.455	1230.446
-29.881	29.578	1477.279	1229.969
-28.867	29.617	1475.938	1229.064
-27.852	29.494	1474.854	1227.296
-26.838	29.457	1473.762	1226.090
-25.823	29.445	1472.254	1224.708
-24.809	29.472	1470.346	1223.249
-23.794	29.408	1468.856	1221.539
-22.779	29.363	1468.393	1220.810
-21.765	29.533	1466.486	1220.301
-20.750	29.532	1465.990	1219.833
-19.736	29.420	1464.367	1217.694
-18.721	29.475	1463.196	1217.033
-17.706	29.422	1462.186	1215.797
-16.692	29.452	1460.722	1214.731
-15.677	29.458	1459.928	1214.059
-14.663	29.404	1459.177	1213.030
-13.648	29.464	1458.441	1212.765
-12.633	29.362	1457.952	1211.642
-11.619	29.408	1456.507	1210.695
-10.604	29.382	1455.588	1209.714
-9.590	29.303	1455.058	1208.703
-8.575	29.395	1454.032	1208.408
-7.560	29.397	1452.962	1207.481
-6.546	29.447	1451.764	1206.765
-5.531	29.394	1451.400	1206.072
-4.517	29.312	1450.827	1205.008
-3.502	29.429	1449.275	1204.439
-2.487	29.455	1447.662	1203.216
-1.473	29.442	1447.172	1202.678
-0.458	29.453	1446.225	1201.918
0.556	26.971	1436.376	1190.369
1.571	24.114	1411.116	1150.898
2.586	20.820	1353.253	1083.157
3.600	19.302	1272.590	1009.616
4.615	18.377	1227.257	968.339
5.629	16.189	1173.292	913.837
6.644	8.346	1088.971	808.518
7.659	1.160	1049.269	743.814
8.673	-0.093	1043.626	733.635
9.688	-0.297	1040.423	730.324
10.702	-0.412	1038.748	728.527
11.717	-0.287	1036.548	727.524
12.731	3.037	1040.364	746.298
13.746	11.856	1052.804	798.324
14.761	18.632	1061.873	838.352
15.775	20.637	1063.329	849.224
16.790	20.938	1063.212	850.526
17.804	20.729	1062.638	848.973
18.819	20.585	1061.902	847.609
19.834	20.654	1060.659	846.876
20.848	20.724	1060.640	847.127
21.863	20.879	1060.039	847.324
22.877	20.744	1059.689	846.316
23.892	20.829	1058.678	845.846
24.907	20.634	1058.447	844.636
25.921	20.717	1057.616	844.304
26.936	20.747	1056.977	843.863
27.950	20.796	1055.506	842.851
28.965	20.705	1054.278	841.356
29.980	20.707	1052.597	839.950
30.994	20.532	1051.253	837.962
32.009	20.871	1049.794	838.357
33.023	20.858	1049.621	838.078
34.038	20.632	1048.877	836.324
35.053	20.625	1047.648	835.240
36.067	20.813	1046.896	835.465
37.082	20.736	1046.462	834.679
38.096	20.745	1045.187	833.631
39.111	21.027	1044.344	834.233
40.126	21.119	1043.305	833.768
41.140	20.988	1041.827	831.890
42.155	20.712	1040.703	829.604
43.169	20.437	1039.655	827.383
44.184	20.513	1038.039	826.385
45.199	20.537	1037.342	825.870
46.213	20.500	1036.078	824.616
47.228	20.262	1035.848	823.229
48.242	20.478	1035.028	823.531
49.257	20.678	1033.766	823.402
50.271	20.671	1033.094	822.759
51.286	20.900	1031.929	822.841
52.301	20.890	1031.621	822.472
53.315	20.865	1030.683	821.535
54.330	20.848	1029.847	820.719
55.344	20.733	1029.332	819.690
56.359	20.825	1028.531	819.412
57.374	20.847	1027.654	818.748
58.388	20.733	1026.319	817.077
59.403	20.587	1025.829	815.930
60.417	20.505	1025.258	815.019
61.432	20.343	1024.263	813.394
62.447	20.376	1023.392	812.788
63.461	20.575	1023.060	813.382
64.476	20.614	1022.359	812.935
65.490	20.571	1021.403	811.901
66.505	20.464	1020.282	810.439
67.520	20.527	1019.898	810.359
68.534	20.631	1019.014	810.069
69.549	20.535	1017.922	808.680
70.563	20.186	1016.503	805.859
71.578	20.077	1016.202	805.046
72.593	20.289	1014.973	804.981
73.607	20.088	1013.745	803.008
74.622	20.108	1012.969	802.413
75.636	20.462	1011.751	803.016
76.651	20.558	1011.265	802.999
77.666	20.369	1010.490	801.440
78.680	20.285	1009.701	800.357
79.695	20.326	1008.783	799.749
80.709	20.355	1008.564	799.636
81.724	20.556	1007.819	799.900
82.739	20.417	1006.518	798.159
83.753	20.468	1005.532	797.542
84.768	20.645	1005.070	797.917
85.782	20.935	1004.319	798.575
86.797	21.074	1003.873	798.789
87.812	21.136	1003.226	798.488
88.826	20.870	1002.243	796.417
89.841	20.924	1001.531	796.027
90.855	21.012	1000.418	795.477
91.870	21.000	999.801	794.857
92.884	21.202	998.739	794.864
93.899	20.754	998.325	792.427
94.914	20.785	996.925	791.385
95.928	20.858	996.499	791.310
96.943	20.946	995.483	790.832
97.957	20.773	994.183	788.944
98.972	20.450	992.831	786.341
99.987	20.342	991.909	785.051
101.001	20.420	991.373	784.910
102.016	20.679	990.890	785.630
103.030	20.819	990.000	785.484
104.045	20.624	988.897	783.661
105.060	20.682	987.181	782.493
106.074	20.451	986.267	780.661
107.089	20.541	985.494	780.386
108.103	20.797	985.594	781.544
109.118	20.892	984.437	780.983
110.133	20.548	983.369	778.527
111.147	20.552	982.253	777.590
112.162	20.501	981.290	776.534
113.176	20.244	979.612	773.990
114.191	20.424	979.328	774.500
115.206	20.490	978.474	774.050
116.220	20.042	977.602	771.299
117.235	20.034	976.227	770.109
118.249	20.179	975.664	770.239
119.264	20.400	974.529	770.257
120.279	20.067	974.239	768.482
121.293	20.142	972.904	767.694
122.308	20.332	972.495	768.146
123.322	20.357	971.593	767.476
124.337	20.306	970.182	766.069
125.352	20.199	968.583	764.267
126.366	19.819	967.266	761.487
127.381	19.514	965.915	759.012
128.395	20.009	965.797	761.028
129.410	20.610	965.406	763.294
130.424	20.802	964.206	763.118
131.439	20.614	963.807	761.912
132.454	20.806	962.012	761.265
133.468	20.817	960.701	760.206
134.483	20.697	960.386	759.369
135.497	20.663	959.736	758.637
136.512	20.801	959.344	758.863
137.527	21.045	958.445	759.145
138.541	20.924	957.690	757.957
139.556	21.050	956.716	757.665
140.570	21.035	955.499	756.567
141.585	21.022	955.184	756.197
142.600	20.953	954.458	755.254
143.614	20.971	953.201	754.272
144.629	20.840	953.063	753.529
145.643	21.211	951.835	754.093
146.658	21.141	950.636	752.775
147.673	21.081	949.048	751.191
148.687	20.729	948.943	749.528
149.702	20.784	947.630	748.662
150.716	20.671	946.811	747.464
151.731	20.641	945.754	746.434
152.746	20.736	944.775	746.002
153.760	21.032	944.168	746.723
154.775	21.111	943.803	746.705
155.789	21.198	942.785	746.208
156.804	21.032	941.762	744.621
157.819	20.940	940.796	743.402
158.833	21.032	939.952	743.060
159.848	21.142	939.005	742.714
160.862	21.393	938.194	743.072
161.877	21.122	937.514	741.320
162.892	21.100	936.447	740.315
163.906	21.151	935.994	740.109
164.921	21.044	935.064	738.854
165.935	21.033	934.151	738.019
166.950	21.076	933.026	737.248
167.964	21.280	931.975	737.216
168.979	21.044	930.952	735.345
169.994	21.005	929.959	734.332
171.008	20.880	928.963	732.954
172.023	21.045	928.348	733.097
173.037	21.118	927.657	732.793
174.052	21.005	926.247	731.140
175.067	20.876	925.350	729.827
176.081	20.884	924.441	729.082
177.096	20.812	924.153	728.488
178.110	20.989	922.613	727.948
179.125	20.672	921.902	726.000
180.140	20.533	920.864	724.539
181.154	20.494	920.426	723.967
182.169	20.569	919.900	723.804
183.183	20.717	919.762	724.245
184.198	21.031	919.048	724.924
185.213	21.061	918.250	724.355
186.227	20.963	917.538	723.322
187.242	21.023	917.357	723.367
188.256	21.114	916.700	723.160
189.271	20.917	916.098	721.805
190.286	21.173	914.288	721.373
191.300	20.909	914.004	719.994
192.315	20.594	912.390	717.360
193.329	19.888	910.974	713.274
194.344	19.535	910.113	711.083
195.359	20.034	910.541	713.410
196.373	20.881	910.415	716.736
197.388	21.141	910.193	717.565
198.402	20.941	909.425	716.074
199.417	21.108	908.805	716.209
200.432	20.964	908.680	715.458
201.446	20.892	907.845	714.441
202.461	20.609	906.592	712.231
203.475	20.412	906.375	711.194
204.490	20.203	904.544	708.840
205.504	19.011	903.083	702.765
206.519	19.484	902.949	704.531
207.534	20.456	903.304	708.710
208.548	20.573	902.461	708.463
209.563	20.918	902.248	709.640
210.577	21.010	901.527	709.383
211.592	20.635	901.086	707.448
212.607	21.104	900.704	708.994
213.621	21.275	900.096	709.147
214.636	21.142	899.334	707.944
215.650	21.152	898.807	707.506
216.665	21.090	898.241	706.746
217.680	21.068	898.128	706.507
218.694	21.231	897.160	706.340
219.709	20.817	896.206	703.854
220.723	20.619	894.574	701.714
221.738	20.746	894.798	702.337
222.753	20.907	894.071	702.354
223.767	20.868	893.316	701.542
224.782	20.906	892.881	701.291
225.796	21.260	892.029	701.984
226.811	21.310	891.521	701.724
227.826	20.849	890.189	698.764
228.840	20.000	888.980	694.348
229.855	20.033	888.132	693.757
230.869	20.327	887.817	694.629
231.884	19.956	886.933	692.389
232.899	20.034	886.659	692.429
233.913	20.960	886.328	695.805
234.928	21.019	885.954	695.687
235.942	20.737	885.929	694.479
236.957	20.922	884.908	694.354
237.972	20.527	883.942	691.965
238.986	20.606	883.188	691.625
240.001	20.694	882.759	691.580
241.015	20.698	882.162	691.066
242.030	20.664	881.633	690.455
243.045	20.935	880.908	690.899
244.059	20.920	880.564	690.511
245.074	21.124	879.727	690.599
246.088	21.165	879.163	690.257
247.103	20.742	878.322	687.867
248.117	20.747	877.550	687.219
249.132	21.159	877.770	688.960
250.147	21.778	877.160	690.860
251.161	21.604	877.177	690.124
252.176	21.829	876.370	690.314
253.190	21.851	875.492	689.649
254.205	21.616	875.704	688.831
255.220	21.932	875.211	689.623
256.234	22.036	873.715	688.791
257.249	21.835	873.392	687.687
258.263	21.643	872.845	686.445
259.278	21.661	872.202	685.949
260.293	21.914	871.712	686.493
261.307	21.877	871.223	685.901
262.322	21.769	870.195	684.610
263.336	21.733	869.642	683.974
264.351	21.215	868.098	680.679
265.366	20.027	866.264	674.558
266.380	19.725	865.327	672.592
267.395	20.585	865.851	676.288
268.409	21.407	865.817	679.396
269.424	21.364	865.093	678.604
270.439	21.377	864.952	678.483
271.453	21.633	864.279	678.889
272.468	21.657	863.326	678.170
273.482	21.850	862.810	678.451
274.497	22.080	862.150	678.761
275.512	21.878	861.177	677.158
276.526	21.172	859.937	673.401
277.541	21.242	859.625	673.365
278.555	21.765	859.361	675.112
279.570	21.620	858.219	673.600
280.585	21.205	857.955	671.738
281.599	21.587	856.976	672.377
282.614	21.737	856.677	672.660
283.628	21.085	855.954	669.530
284.643	20.740	854.838	667.278
285.657	21.324	854.784	669.415
286.672	20.934	854.770	667.851
287.687	20.691	852.865	665.372
288.701	20.925	853.342	666.579
289.716	21.323	852.953	667.740
290.730	20.977	851.769	665.433
291.745	20.686	851.713	664.221
292.760	20.774	850.438	663.502
293.774	20.725	849.653	662.644
294.789	21.614	850.133	666.345
295.803	21.977	850.240	667.752
296.818	22.184	849.922	668.229
297.833	22.128	849.421	667.564
298.847	21.953	848.275	665.938
299.862	21.729	846.990	664.022
300.876	21.754	846.779	663.893
301.891	22.110	846.460	664.934
302.906	22.188	845.804	664.653
303.920	21.763	844.894	662.272
304.935	21.638	844.308	661.285
305.949	21.960	844.016	662.214
306.964	22.082	843.446	662.165
307.979	22.002	842.566	661.116
308.993	21.823	842.397	660.248
310.008	22.118	841.903	660.913
311.022	22.095	841.837	660.718
312.037	22.096	841.073	660.062
313.052	21.912	840.302	658.711
314.066	21.861	839.321	657.690
315.081	21.235	837.862	654.145
316.095	20.459	836.818	650.370
317.110	20.958	837.126	652.419
318.125	21.853	837.145	655.723
319.139	21.336	836.628	653.329
320.154	20.434	834.353	648.129
321.168	20.031	833.567	645.960
322.183	20.597	833.524	647.980
323.197	21.398	834.343	651.544
324.212	21.647	834.071	652.203
325.227	21.882	833.625	652.667
326.241	22.076	832.936	652.793
327.256	21.974	832.205	651.785
328.270	21.854	831.766	650.937
329.285	21.727	830.823	649.672
330.300	21.625	830.170	648.727
331.314	21.186	829.899	646.831
332.329	21.495	828.885	647.124
333.343	21.819	828.597	648.041
334.358	22.092	828.300	648.760
335.373	22.157	827.465	648.288
336.387	22.001	827.151	647.410
337.402	22.361	826.422	648.108
338.416	22.584	826.287	648.766
339.431	22.419	825.959	647.842
340.446	22.312	825.487	647.021
341.460	22.561	825.079	647.559
342.475	22.632	823.811	646.767
343.489	22.336	823.617	645.474
344.504	22.297	823.400	645.101
345.519	22.614	822.541	645.533
346.533	22.953	822.186	646.438
347.548	22.825	821.984	645.754
348.562	22.842	821.204	645.146
349.577	22.896	821.132	645.229
350.592	22.785	820.310	644.120
351.606	22.682	819.972	643.424
352.621	22.717	819.316	642.982
353.635	22.722	818.818	642.550
354.650	22.757	817.870	641.876
355.665	22.235	817.281	639.460
356.679	21.231	815.433	634.312
357.694	21.012	815.254	633.322
358.708	21.930	814.976	636.381
359.723	21.886	814.110	635.487
360.738	22.042	814.198	636.068
361.752	22.294	814.219	636.941
362.767	22.353	813.949	636.885
363.781	22.746	813.867	638.186
364.796	23.021	813.616	638.928
365.810	23.061	812.949	638.493
366.825	23.251	812.581	638.832
367.840	23.107	812.440	638.145
368.854	22.926	811.639	636.807
369.869	22.598	810.769	634.886
370.883	22.429	810.208	633.783
371.898	22.486	809.664	633.506
372.913	22.486	808.604	632.622
373.927	22.471	808.117	632.131
374.942	22.673	807.459	632.285
375.956	22.677	807.492	632.269
376.971	22.712	807.050	631.992
377.986	22.912	806.363	632.112
379.000	23.078	805.836	632.237
380.015	23.277	805.051	632.276
381.029	22.928	804.467	630.516
382.044	22.977	804.163	630.397
383.059	23.081	803.679	630.334
384.073	23.034	802.911	629.507
385.088	23.091	802.847	629.606
386.102	22.982	802.446	628.847
387.117	22.894	801.512	627.747
388.132	22.847	801.102	627.201
389.146	22.648	800.445	625.926
390.161	22.140	799.244	623.130
391.175	22.174	799.040	623.037
392.190	22.801	798.876	625.076
393.205	22.748	798.787	624.761
394.219	21.815	796.944	619.968
395.234	20.233	794.808	612.669
396.248	19.598	793.364	609.263
397.263	20.660	794.343	613.711
398.278	22.411	795.569	620.783
399.292	22.813	795.714	622.257
400.307	22.576	795.197	620.961
401.321	22.465	794.628	620.072
402.336	22.484	794.386	619.898
403.350	22.832	794.022	620.781
404.365	23.192	793.718	621.755
405.380	23.475	793.811	622.766
406.394	23.763	793.392	623.391
407.409	23.817	793.104	623.300
408.423	23.777	792.342	622.506
409.438	23.571	791.844	621.339
410.453	23.606	791.685	621.282
411.467	23.786	791.241	621.507
412.482	23.853	790.532	621.130
413.496	23.826	790.003	620.565
414.511	23.861	789.646	620.352
415.526	23.791	789.435	619.889
416.540	23.744	789.158	619.451
417.555	23.805	788.505	619.096
418.569	23.574	787.569	617.502
419.584	23.620	786.568	616.823
420.599	23.650	786.344	616.698
421.613	157.318	1365.308	1799.358
422.628	136.085	1449.657	1799.442
