DTS Sentinel unit serial number:	SN413079Multiplexer serial number:	ORYXHardware model number:	OX4-SRSoftware version number:	ORYX F/W v4.00 Oryx Data Collector v3.7.2.0data status	okinstallation	princeton_trtdifferential loss correction	single-endedforward channel	channel 3reverse channel	N/Adate	2019/09/11time	10:38:11forward acquisition time	60.00reverse acquisition time	0.00gamma	496.2192k internal	0.2297k external	0.2297temperature offset calibration	0.9939default loss term (dB/km)	0.3790temperature slope calibration	1.0000multiplexer offset coefficient	1.0000multiplexer slope coefficient	1.0000fibre end	0.00T internal ref (°C)	36.61T ext. ref 1 (°C)	0.16T ext. ref 2 (°C)	34.05length (m)	temperature (°C)	Stokes	anti-Stokes-747.200	-118.341	0.610	-0.111
-746.185	454.757	0.069	0.156
-745.171	800.000	0.067	0.213
-744.156	800.000	0.037	0.151
-743.142	-42.491	0.146	-0.076
-742.127	355.721	0.082	0.166
-741.112	-200.000	-0.006	0.040
-740.098	217.392	-0.075	0.123
-739.083	-88.491	-0.180	0.055
-738.069	606.349	0.126	0.320
-737.054	-200.000	-0.373	-0.000
-736.039	-58.719	-0.375	-0.166
-735.025	-45.653	-0.267	-0.135
-734.010	-33.125	-0.159	-0.090
-732.996	-0.873	-0.284	-0.206
-731.981	295.115	-0.111	0.207
-730.966	800.000	0.040	-0.148
-729.952	800.000	-0.038	-0.157
-728.937	-181.698	0.327	0.006
-727.923	800.000	0.099	-0.322
-726.908	61.780	-0.339	0.345
-725.894	800.000	0.094	0.334
-724.879	37.837	0.078	-0.071
-723.864	72.726	0.128	-0.137
-722.850	-104.589	0.112	0.026
-721.835	-200.000	0.024	0.214
-720.821	-200.000	0.031	0.302
-719.806	59.289	-0.151	0.152
-718.791	-114.673	0.302	-0.059
-717.777	-200.000	0.040	-0.237
-716.762	76.283	-0.126	0.136
-715.748	51.366	0.269	-0.261
-714.733	161.856	-0.143	-0.204
-713.718	-107.521	-0.274	0.061
-712.704	-77.518	0.142	0.050
-711.689	-28.596	-0.093	0.055
-710.675	415.969	-0.020	0.043
-709.660	-40.415	-0.335	-0.178
-708.645	-72.757	-0.309	0.116
-707.631	-72.836	-0.212	-0.080
-706.616	9.718	-0.226	-0.175
-705.602	91.165	0.077	0.088
-704.587	-62.100	-0.341	0.145
-703.572	-200.000	0.027	0.318
-702.558	429.456	-0.253	0.558
-701.543	-200.000	0.027	-0.122
-700.529	386.725	-0.149	0.313
-699.514	10.551	-0.275	-0.214
-698.499	-75.552	0.045	0.016
-697.485	21.706	-0.138	-0.115
-696.470	-22.095	-0.078	0.049
-695.456	290.883	0.069	-0.127
-694.441	-152.401	-0.185	0.014
-693.426	-77.974	-0.117	-0.041
-692.412	334.324	0.236	-0.465
-691.397	170.522	0.220	-0.321
-690.383	-80.017	-0.052	0.018
-689.368	800.000	0.013	0.046
-688.354	-200.000	-0.046	-0.277
-687.339	-200.000	0.012	0.097
-686.324	800.000	-0.081	-0.254
-685.310	-200.000	-0.079	0.425
-684.295	69.948	-0.112	-0.117
-683.281	-45.467	0.267	-0.135
-682.266	-11.304	-0.075	-0.050
-681.251	-200.000	-0.025	0.419
-680.237	-126.584	0.280	-0.042
-679.222	-119.005	0.107	0.019
-678.208	-125.713	-0.197	0.030
-677.193	66.841	0.089	0.093
-676.178	-81.365	-0.257	0.086
-675.164	-200.000	-0.022	-0.250
-674.149	-200.000	0.071	0.353
-673.135	230.344	0.074	0.123
-672.120	-148.215	-0.336	-0.028
-671.105	800.000	-0.064	-0.189
-670.091	-18.433	-0.143	0.091
-669.076	-99.906	0.092	0.023
-668.062	-125.884	0.164	0.025
-667.047	-78.305	0.279	-0.097
-666.032	800.000	0.077	0.300
-665.018	-112.955	0.072	0.014
-664.003	-148.124	-0.354	0.030
-662.989	800.000	-0.075	-0.294
-661.974	74.715	0.056	-0.060
-660.959	-79.406	-0.097	-0.033
-659.945	632.859	-0.099	-0.255
-658.930	31.732	-0.101	-0.088
-657.916	152.383	0.084	0.116
-656.901	-200.000	0.024	0.195
-655.886	-200.000	-0.082	-0.441
-654.872	-66.029	-0.171	-0.070
-653.857	134.328	0.162	0.214
-652.843	187.602	-0.071	-0.108
-651.828	800.000	-0.053	-0.181
-650.814	-44.083	0.323	-0.165
-649.799	204.504	-0.110	-0.173
-648.784	-200.000	0.053	-0.284
-647.770	73.903	-0.284	-0.304
-646.755	35.238	-0.251	-0.224
-645.741	2.424	-0.321	0.236
-644.726	512.712	-0.055	0.129
-643.711	274.488	-0.169	0.305
-642.697	-114.686	-0.081	0.016
-641.682	800.000	-0.053	0.223
-640.668	193.681	0.147	0.227
-639.653	-200.000	-0.013	0.217
-638.638	-112.870	-0.086	-0.017
-637.624	97.603	-0.081	-0.095
-636.609	-125.139	-0.274	0.043
-635.595	295.154	-0.147	0.273
-634.580	142.724	0.050	-0.068
-633.565	-43.495	-0.175	0.090
-632.551	-89.531	0.240	-0.072
-631.536	-137.636	0.457	0.052
-630.522	52.406	-0.090	0.087
-629.507	-95.366	0.245	0.067
-628.492	41.308	-0.089	-0.081
-627.478	93.954	-0.206	0.238
-626.463	-7.950	-0.140	-0.096
-625.449	418.661	-0.085	0.186
-624.434	-49.481	-0.313	-0.151
-623.419	-147.155	0.420	-0.036
-622.405	-70.304	0.377	-0.145
-621.390	532.691	-0.081	0.194
-620.376	320.226	0.129	-0.248
-619.361	-63.299	-0.152	0.064
-618.346	-200.000	0.043	-0.278
-617.332	235.567	-0.047	0.080
-616.317	-38.797	0.132	0.071
-615.303	117.052	0.177	-0.221
-614.288	500.559	0.070	0.165
-613.273	-98.420	-0.404	-0.105
-612.259	-170.243	0.221	-0.008
-611.244	82.315	-0.043	-0.047
-610.230	204.802	-0.154	-0.243
-609.215	272.991	0.063	0.113
-608.201	178.103	-0.305	0.452
-607.186	800.000	0.081	0.261
-606.171	622.288	-0.050	-0.128
-605.157	-200.000	-0.056	0.270
-604.142	-15.454	0.108	0.070
-603.128	800.000	-0.084	0.274
-602.113	800.000	0.045	0.191
-601.098	-35.482	0.177	0.098
-600.084	-134.723	0.010	0.001
-599.069	470.448	-0.161	0.368
-598.055	331.717	0.040	0.078
-597.040	103.132	0.242	-0.288
-596.025	441.333	0.125	-0.278
-595.011	110.143	-0.086	-0.105
-593.996	-69.088	0.188	-0.073
-592.982	-148.554	-0.121	-0.010
-591.967	-83.581	-0.347	-0.113
-590.952	-119.066	-0.111	0.020
-589.938	710.163	-0.124	0.333
-588.923	-8.177	0.098	0.067
-587.909	-84.024	0.449	-0.145
-586.894	288.410	-0.131	-0.240
-585.879	92.529	-0.192	0.220
-584.865	170.624	-0.164	0.238
-583.850	15.877	0.127	0.101
-582.836	530.920	0.076	-0.183
-581.821	-83.682	0.104	0.034
-580.806	-200.000	-0.006	-0.342
-579.792	-200.000	0.007	-0.043
-578.777	171.482	0.045	-0.065
-577.763	283.093	0.171	0.311
-576.748	-200.000	-0.025	-0.145
-575.733	-200.000	0.022	0.121
-574.719	100.487	-0.158	-0.186
-573.704	-116.602	0.037	0.007
-572.690	-38.545	-0.320	-0.172
-571.675	32.001	-0.202	0.176
-570.661	-72.739	-0.139	0.052
-569.646	800.000	0.089	-0.324
-568.631	-200.000	0.005	0.083
-567.617	-64.366	0.218	-0.090
-566.602	-200.000	0.003	-0.225
-565.588	177.200	-0.188	-0.278
-564.573	-84.431	0.240	0.077
-563.558	-109.406	-0.270	-0.058
-562.544	-85.008	0.387	-0.123
-561.529	-151.947	0.219	0.016
-560.515	800.000	0.090	0.312
-559.500	-175.706	0.198	-0.005
-558.485	-45.281	0.297	-0.150
-557.471	-63.097	-0.042	-0.017
-556.456	-200.000	0.008	0.095
-555.442	-51.592	0.095	-0.045
-554.427	-129.717	0.131	0.018
-553.412	90.565	-0.133	-0.151
-552.398	800.000	0.089	-0.277
-551.383	33.136	-0.113	0.099
-550.369	-18.127	-0.339	-0.215
-549.354	439.918	0.048	-0.106
-548.339	-200.000	-0.041	-0.186
-547.325	130.063	-0.118	0.153
-546.310	734.394	-0.098	-0.266
-545.296	48.872	-0.073	-0.070
-544.281	355.320	-0.095	0.192
-543.266	-33.053	-0.154	-0.087
-542.252	109.408	0.060	-0.072
-541.237	-200.000	-0.025	0.123
-540.223	-107.729	0.365	0.081
-539.208	642.527	-0.150	-0.388
-538.193	74.784	0.095	0.102
-537.179	65.633	-0.194	0.199
-536.164	-20.834	0.152	-0.094
-535.150	-200.000	-0.004	-0.200
-534.135	-200.000	-0.005	0.108
-533.121	277.543	-0.106	-0.190
-532.106	-156.632	0.200	-0.013
-531.091	-88.626	0.250	-0.075
-530.077	723.704	0.048	-0.131
-529.062	-57.963	-0.275	0.122
-528.048	40.898	-0.163	-0.149
-527.033	800.000	0.032	-0.092
-526.018	-200.000	0.029	-0.411
-525.004	37.223	0.194	-0.174
-523.989	88.154	-0.136	-0.153
-522.975	-120.506	-0.213	0.037
-521.960	29.580	-0.232	0.199
-520.945	-16.695	0.200	-0.128
-519.931	-200.000	0.004	-0.188
-518.916	-165.797	0.080	0.003
-517.902	-20.518	0.336	0.209
-516.887	285.800	-0.123	0.224
-515.872	183.386	-0.111	0.167
-514.858	-69.420	-0.162	0.063
-513.843	-200.000	0.011	0.328
-512.829	800.000	-0.029	-0.122
-511.814	800.000	0.044	-0.131
-510.799	5.969	-0.104	0.078
-509.785	-70.271	-0.136	-0.052
-508.770	-200.000	-0.020	0.217
-507.756	800.000	-0.057	0.228
-506.741	-41.168	-0.206	0.108
-505.726	141.474	0.156	-0.209
-504.712	144.255	0.222	0.300
-503.697	203.582	-0.152	-0.238
-502.683	-36.917	-0.149	0.081
-501.668	31.709	-0.192	0.167
-500.653	-42.755	0.257	-0.132
-499.639	-43.692	-0.318	-0.162
-498.624	94.521	0.078	-0.089
-497.610	800.000	0.134	-0.445
-496.595	-106.948	-0.338	-0.076
-495.581	-54.850	-0.189	-0.086
-494.566	223.560	0.051	-0.084
-493.551	-3.364	-0.123	-0.087
-492.537	-200.000	0.042	-0.249
-491.522	800.000	0.041	-0.122
-490.508	-144.920	-0.359	0.033
-489.493	194.272	0.029	-0.044
-488.478	-137.825	-0.214	-0.024
-487.464	278.910	0.148	-0.266
-486.449	143.429	-0.077	-0.103
-485.435	-200.000	0.033	0.348
-484.420	800.000	0.030	0.088
-483.405	-28.440	-0.278	0.162
-482.391	305.131	0.074	-0.139
-481.376	-113.454	-0.127	-0.025
-480.362	156.032	0.083	-0.116
-479.347	-30.039	0.106	0.061
-478.332	15.042	0.350	0.277
-477.318	-200.000	0.009	0.157
-476.303	193.412	0.194	-0.297
-475.289	184.720	0.196	-0.294
-474.274	-55.011	-0.268	-0.122
-473.259	572.670	0.063	-0.156
-472.245	-191.478	-0.300	0.003
-471.230	-69.741	-0.077	-0.030
-470.216	-177.410	-0.170	0.004
-469.201	-200.000	0.025	-0.191
-468.186	800.000	0.010	-0.030
-467.172	-78.202	-0.325	0.113
-466.157	-2.717	-0.072	0.051
-465.143	800.000	0.053	-0.171
-464.128	210.990	0.150	0.238
-463.113	-200.000	-0.015	-0.493
-462.099	550.734	-0.076	0.185
-461.084	-97.819	-0.112	0.029
-460.070	-200.000	0.011	-0.095
-459.055	-152.989	0.307	0.022
-458.040	-173.277	-0.133	0.004
-457.026	-71.658	0.177	0.067
-456.011	45.220	-0.243	-0.227
-454.997	143.247	0.062	0.083
-453.982	30.535	0.168	0.145
-452.968	15.951	0.109	-0.087
-451.953	-141.404	-0.082	0.008
-450.938	-50.771	-0.350	-0.166
-449.924	800.000	0.063	0.212
-448.909	-200.000	0.005	0.161
-447.895	375.593	-0.165	-0.341
-446.880	-27.161	0.191	0.113
-445.865	226.460	-0.045	-0.074
-444.851	204.151	0.255	-0.398
-443.836	303.576	-0.152	-0.285
-442.822	-28.238	-0.119	0.070
-441.807	173.647	-0.104	-0.151
-440.792	-119.268	0.136	-0.024
-439.778	-85.985	0.270	0.084
-438.763	800.000	-0.009	-0.041
-437.749	800.000	-0.021	0.088
-436.734	82.250	0.133	0.146
-435.719	15.716	0.216	0.171
-434.705	5.409	0.202	-0.150
-433.690	-28.954	0.058	0.033
-432.676	134.751	0.328	0.430
-431.661	70.287	-0.130	0.135
-430.646	295.216	0.086	0.159
-429.632	-200.000	0.017	-0.214
-428.617	433.376	0.091	0.200
-427.603	800.000	0.123	-0.407
-426.588	31.107	-0.070	-0.060
-425.573	-113.083	0.129	-0.026
-424.559	192.364	-0.125	-0.190
-423.544	-200.000	-0.003	-0.314
-422.530	103.430	-0.102	-0.120
-421.515	-200.000	-0.000	-0.018
-420.500	-15.011	0.107	0.069
-419.486	-106.349	-0.246	0.056
-418.471	-200.000	-0.061	-0.335
-417.457	-133.522	-0.421	-0.053
-416.442	-200.000	-0.022	0.174
-415.428	-200.000	-0.003	0.553
-414.413	800.000	-0.085	0.249
-413.398	26.643	-0.230	0.194
-412.384	27.746	0.228	-0.194
-411.369	511.392	0.032	0.075
-410.355	17.927	-0.293	-0.235
-409.340	800.000	-0.047	-0.146
-408.325	-0.903	0.436	0.311
-407.311	51.007	0.066	0.063
-406.296	359.439	0.075	0.152
-405.282	133.307	-0.284	0.370
-404.267	13.354	-0.353	0.276
-403.252	-69.978	0.383	0.147
-402.238	-76.826	0.086	0.030
-401.223	484.184	-0.076	-0.174
-400.209	-200.000	-0.015	0.246
-399.194	800.000	0.019	0.052
-398.179	434.717	-0.116	0.253
-397.165	800.000	-0.098	0.316
-396.150	-147.880	0.179	0.015
-395.136	-82.678	0.272	0.089
-394.121	-26.584	-0.030	0.018
-393.106	-200.000	-0.025	-0.131
-392.092	-85.832	-0.270	0.084
-391.077	-77.051	0.220	0.077
-390.063	32.231	0.212	0.184
-389.048	-75.668	-0.233	-0.083
-388.033	126.703	-0.207	0.264
-387.019	-157.812	0.078	0.005
-386.004	-176.392	0.185	-0.005
-384.990	343.903	-0.079	0.157
-383.975	-200.000	-0.019	-0.173
-382.960	361.512	-0.113	0.229
-381.946	-19.367	0.078	0.048
-380.931	-185.857	0.342	0.005
-379.917	-105.159	-0.131	0.030
-378.902	-200.000	-0.007	0.281
-377.888	-29.702	0.094	-0.054
-376.873	701.315	-0.024	0.064
-375.858	-90.587	0.115	0.034
-374.844	2.043	-0.032	0.023
-373.829	-129.045	0.392	0.055
-372.815	325.928	0.175	-0.337
-371.800	123.723	-0.077	0.097
-370.785	-47.796	0.181	0.088
-369.771	353.297	-0.036	-0.071
-368.756	-200.000	0.018	0.205
-367.742	800.000	0.066	0.243
-366.727	-52.580	-0.124	-0.058
-365.712	800.000	0.107	-0.314
-364.698	113.895	0.094	-0.115
-363.683	-44.922	-0.227	0.114
-362.669	51.814	-0.192	0.184
-361.654	-200.000	-0.010	-0.318
-360.639	-200.000	0.046	0.251
-359.625	-112.183	0.059	-0.012
-358.610	22.597	0.079	0.065
-357.596	-26.074	0.100	-0.059
-356.581	-141.757	0.178	-0.018
-355.566	326.209	0.086	-0.166
-354.552	301.377	-0.058	0.108
-353.537	-148.818	-0.176	0.014
-352.523	-66.615	0.033	-0.013
-351.508	546.321	0.129	0.310
-350.493	-157.975	0.116	0.007
-349.479	480.895	0.069	-0.157
-348.464	738.196	-0.037	0.101
-347.450	75.061	-0.210	0.223
-346.435	-200.000	0.034	0.220
-345.420	405.756	-0.084	0.177
-344.406	-200.000	0.000	0.035
-343.391	-200.000	-0.001	-0.298
-342.377	64.543	-0.010	0.010
-341.362	-88.828	-0.315	0.094
-340.348	800.000	0.092	0.285
-339.333	-35.033	0.235	-0.129
-338.318	-82.515	-0.188	-0.061
-337.304	-3.160	0.171	-0.120
-336.289	-200.000	-0.053	0.292
-335.275	476.164	0.249	-0.564
-334.260	284.292	0.151	-0.274
-333.245	657.960	0.098	0.254
-332.231	-81.729	-0.235	0.077
-331.216	298.569	0.070	0.129
-330.202	283.743	0.142	0.257
-329.187	-78.591	0.188	-0.064
-328.172	232.006	0.163	-0.268
-327.158	-98.855	-0.214	-0.055
-326.143	-49.226	-0.143	0.069
-325.129	785.026	-0.037	0.103
-324.114	205.186	-0.021	0.033
-323.099	-200.000	0.017	0.243
-322.085	-32.838	0.233	-0.130
-321.070	-162.600	0.167	-0.008
-320.056	152.044	-0.051	-0.070
-319.041	-46.663	0.223	0.110
-318.026	-13.082	-0.496	-0.324
-317.012	-92.498	0.106	-0.030
-315.997	419.545	-0.060	-0.128
-314.983	18.427	-0.097	0.077
-313.968	268.617	-0.065	0.114
-312.953	-130.171	0.266	-0.036
-311.939	-121.692	-0.292	-0.049
-310.924	242.397	0.062	0.105
-309.910	198.778	-0.166	0.255
-308.895	18.872	0.125	0.101
-307.880	404.416	-0.162	-0.342
-306.866	-200.000	0.016	0.344
-305.851	-120.522	0.236	0.040
-304.837	800.000	-0.022	-0.072
-303.822	704.685	0.060	0.158
-302.807	-115.649	-0.321	0.060
-301.793	-5.491	0.289	0.199
-300.778	313.408	-0.081	0.153
-299.764	-54.108	0.289	0.132
-298.749	-71.564	-0.226	0.085
-297.735	-200.000	0.025	0.225
-296.720	-200.000	-0.023	0.121
-295.705	276.489	0.052	-0.093
-294.691	56.798	-0.206	0.201
-293.676	331.783	-0.191	0.370
-292.662	-200.000	-0.039	0.205
-291.647	-31.519	0.275	-0.155
-290.632	448.942	-0.179	-0.395
-289.618	-42.374	0.441	0.226
-288.603	-128.764	0.128	0.018
-287.589	-71.262	0.466	-0.175
-286.574	-200.000	0.019	-0.120
-285.559	800.000	-0.015	0.056
-284.545	-162.306	-0.168	-0.008
-283.530	-140.632	0.175	-0.018
-282.516	-200.000	0.017	0.100
-281.501	303.495	-0.113	0.210
-280.486	-181.441	0.464	0.009
-279.472	-200.000	-0.001	-0.134
-278.457	491.892	-0.039	0.090
-277.443	467.100	-0.077	-0.173
-276.428	-200.000	0.013	0.174
-275.413	47.383	0.137	0.128
-274.399	61.592	0.150	0.150
-273.384	46.318	-0.147	-0.137
-272.370	-47.686	0.020	-0.010
-271.355	381.345	0.035	-0.073
-270.340	51.005	-0.160	0.152
-269.326	-200.000	0.053	0.422
-268.311	-71.419	-0.060	0.023
-267.297	-96.856	-0.321	-0.085
-266.282	-200.000	-0.000	0.244
-265.267	-55.058	0.242	0.109
-264.253	-130.858	-0.260	-0.035
-263.238	-144.641	-0.150	0.014
-262.224	-200.000	0.044	-0.253
-261.209	-200.000	-0.023	-0.149
-260.195	-40.838	0.379	-0.197
-259.180	-8.947	0.096	-0.064
-258.165	-46.786	0.135	-0.066
-257.151	-129.152	-0.251	0.035
-256.136	364.902	-0.055	-0.111
-255.122	-200.000	-0.024	0.306
-254.107	210.061	-0.194	0.305
-253.092	-36.827	0.184	-0.099
-252.078	-41.672	0.058	-0.030
-251.063	-60.317	0.028	-0.012
-250.049	-124.680	0.229	-0.036
-249.034	-200.000	0.004	0.300
-248.019	4.465	-0.159	-0.117
-247.005	172.028	-0.205	-0.295
-245.990	-90.448	0.199	0.058
-244.976	501.323	0.036	0.083
-243.961	-77.012	-0.281	0.098
-242.946	-200.000	-0.039	-0.341
-241.932	119.473	0.097	-0.120
-240.917	480.996	-0.104	0.237
-239.903	-90.044	-0.153	-0.045
-238.888	83.213	-0.163	-0.177
-237.873	-148.808	0.120	0.010
-236.859	519.202	0.142	0.334
-235.844	-200.000	0.010	0.158
-234.830	68.153	-0.071	0.073
-233.815	122.665	0.157	0.196
-232.800	-81.738	-0.023	-0.007
-231.786	-200.000	-0.053	-0.232
-230.771	-84.293	0.259	-0.082
-229.757	-78.920	-0.134	0.046
-228.742	50.670	0.166	-0.157
-227.727	-200.000	-0.087	-0.565
-226.713	704.511	0.108	-0.284
-225.698	-95.690	0.164	0.044
-224.684	-200.000	-0.026	-0.128
-223.669	800.000	-0.046	0.155
-222.655	-108.573	0.118	0.025
-221.640	21.620	-0.117	-0.095
-220.625	224.822	-0.180	0.291
-219.611	-129.961	0.297	0.041
-218.596	800.000	0.009	0.028
-217.582	-200.000	0.015	-0.283
-216.567	-29.351	0.254	0.146
-215.552	-61.396	-0.037	-0.015
-214.538	-126.423	0.292	-0.044
-213.523	800.000	0.082	0.248
-212.509	-75.581	-0.044	0.016
-211.494	-156.317	-0.086	0.005
-210.479	-43.947	0.171	-0.086
-209.465	270.810	-0.054	-0.094
-208.450	-45.283	-0.142	-0.071
-207.436	-112.717	-0.200	-0.040
-206.421	-21.200	-0.157	0.096
-205.406	243.264	-0.111	-0.186
-204.392	-38.875	0.107	-0.056
-203.377	-23.714	0.100	-0.060
-202.363	-154.110	0.176	0.012
-201.348	-44.975	-0.077	0.038
-200.333	-200.000	0.013	-0.172
-199.319	78.914	-0.045	0.048
-198.304	89.974	-0.355	-0.397
-197.290	-200.000	-0.045	-0.223
-196.275	-41.661	0.158	-0.081
-195.260	51.476	-0.067	0.064
-194.246	-130.677	-0.175	0.024
-193.231	-67.281	0.189	0.074
-192.217	-118.740	0.294	0.052
-191.202	52.701	-0.124	-0.118
-190.187	568.087	-0.069	0.167
-189.173	37.461	-0.137	-0.122
-188.158	-30.343	0.046	-0.026
-187.144	78.158	-0.332	0.354
-186.129	-200.000	0.048	-0.272
-185.114	-113.889	-0.227	0.044
-184.100	-23.769	-0.075	-0.045
-183.085	180.064	0.181	0.265
-182.071	-82.904	-0.244	0.079
-181.056	-142.735	0.197	-0.019
-180.042	-150.526	0.276	0.021
-179.027	25.784	-0.201	-0.167
-178.012	-68.812	0.243	-0.094
-176.998	-52.115	-0.059	-0.027
-175.983	349.461	0.092	-0.181
-174.969	800.000	-0.059	0.236
-173.954	247.595	0.095	-0.160
-172.939	106.115	-0.177	-0.209
-171.925	800.000	0.082	-0.346
-170.910	-200.000	-0.020	-0.180
-169.896	-58.556	-0.145	-0.063
-168.881	-7.235	-0.127	-0.086
-167.866	800.000	-0.036	-0.114
-166.852	164.107	0.143	0.201
-165.837	-64.963	0.118	-0.048
-164.823	-200.000	-0.061	-0.426
-163.808	-103.433	0.174	-0.041
-162.793	7.983	0.192	0.144
-161.779	-52.401	-0.391	0.181
-160.764	68.214	0.199	-0.203
-159.750	-173.464	0.101	0.003
-158.735	800.000	0.157	-0.485
-157.720	85.853	-0.109	0.120
-156.706	-183.507	-0.279	0.005
-155.691	-138.818	-0.215	0.023
-154.677	-20.773	-0.235	0.144
-153.662	-112.761	0.172	0.034
-152.647	-162.774	0.233	-0.011
-151.633	36.088	0.017	0.015
-150.618	307.105	-0.122	-0.226
-149.604	800.000	-0.075	0.275
-148.589	-19.967	-0.037	0.023
-147.574	-96.070	0.204	0.054
-146.560	-200.000	-0.035	-0.189
-145.545	234.588	-0.045	-0.075
-144.531	-48.844	-0.252	0.120
-143.516	-200.000	0.029	-0.421
-142.502	-200.000	-0.007	0.051
-141.487	-58.941	-0.204	-0.088
-140.472	8.549	-0.261	-0.196
-139.458	-160.655	-0.180	0.010
-138.443	-200.000	-0.034	0.264
-137.429	200.114	0.083	0.127
-136.414	-25.306	-0.184	-0.108
-135.399	331.751	0.076	-0.146
-134.385	105.403	0.152	-0.178
-133.370	-200.000	0.002	-0.074
-132.356	-28.656	0.146	-0.084
-131.341	-39.948	0.167	-0.087
-130.326	183.184	-0.068	-0.100
-129.312	-123.958	0.231	-0.036
-128.297	-200.000	0.000	0.253
-127.283	-200.000	-0.013	0.254
-126.268	-85.798	0.504	-0.156
-125.253	-200.000	-0.001	-0.154
-124.239	-128.832	0.276	0.039
-123.224	259.117	-0.029	0.051
-122.210	800.000	0.069	0.228
-121.195	800.000	-0.021	0.060
-120.180	-134.008	0.130	-0.016
-119.166	800.000	0.022	0.093
-118.151	-144.340	0.241	0.022
-117.137	-41.393	0.072	0.037
-116.122	-200.000	-0.003	0.144
-115.107	800.000	0.035	0.112
-114.093	-200.000	0.029	-0.256
-113.078	-200.000	0.047	-0.231
-112.064	369.399	-0.019	0.038
-111.049	-200.000	-0.016	0.110
-110.034	-58.661	0.056	0.024
-109.020	-25.280	0.162	0.096
-108.005	499.968	-0.180	0.413
-106.991	-49.023	0.229	-0.109
-105.976	-8.093	0.099	-0.066
-104.962	-72.075	0.345	-0.127
-103.947	-130.365	0.146	0.020
-102.932	-65.185	0.426	0.171
-101.918	-110.719	-0.380	0.078
-100.903	-200.000	0.010	0.390
-99.889	-67.234	-0.085	0.033
-98.874	140.139	-0.195	-0.256
-97.859	-121.794	-0.105	0.017
-96.845	108.084	0.021	0.025
-95.830	57.180	0.037	-0.036
-94.816	-23.089	-0.268	0.161
-93.801	-89.332	0.258	-0.076
-92.786	282.450	0.124	0.221
-91.772	563.682	-0.132	-0.317
-90.757	51.568	0.143	0.135
-89.743	-68.279	-0.152	-0.059
-88.728	344.020	0.102	-0.199
-87.713	672.619	-0.093	0.240
-86.699	36.001	0.124	-0.109
-85.684	53.771	0.215	-0.206
-84.670	-34.222	-0.160	0.088
-83.655	188.209	0.067	-0.099
-82.640	-60.917	0.060	0.025
-81.626	61.961	-0.407	0.404
-80.611	138.457	-0.215	-0.280
-79.597	-84.310	-0.324	-0.102
-78.582	-24.067	0.161	0.095
-77.567	46.888	0.231	0.214
-76.553	112.285	0.176	0.212
-75.538	13.408	-0.228	-0.176
-74.524	800.000	-0.042	-0.162
-73.509	-200.000	0.013	0.068
-72.494	89.003	-0.218	0.242
-71.480	-95.164	-0.125	0.034
-70.465	123.639	-0.107	0.134
-69.451	800.000	0.016	-0.055
-68.436	-200.000	0.025	-0.382
-67.422	18.347	0.238	-0.189
-66.407	-41.882	0.164	-0.083
-65.392	-42.446	-0.146	-0.074
-64.378	-124.257	0.120	0.019
-63.363	588.200	0.149	0.364
-62.349	-200.000	-0.053	0.232
-61.334	81.689	-0.905	-0.973
-60.319	82.379	0.313	0.337
-59.305	800.000	-0.119	-0.499
-58.290	450.635	0.472	1.036
-57.276	227.857	0.833	1.348
-56.261	-200.000	87.728	499.526
-55.246	534.646	1377.827	3246.699
-54.232	182.938	2613.199	3834.211
-53.217	114.914	2252.300	2730.774
-52.203	46.157	1778.844	1637.570
-51.188	39.615	1584.902	1412.307
-50.173	37.217	1557.071	1370.551
-49.159	54.148	1601.744	1531.374
-48.144	57.831	1621.378	1576.455
-47.130	40.226	1579.985	1412.066
-46.115	36.871	1564.905	1374.771
-45.100	36.734	1561.268	1370.553
-44.086	36.689	1559.665	1368.771
-43.071	36.637	1557.203	1366.189
-42.057	36.601	1555.914	1364.750
-41.042	36.577	1554.674	1363.440
-40.027	36.626	1553.173	1362.416
-39.013	36.575	1551.771	1360.769
-37.998	36.557	1550.379	1359.370
-36.984	36.694	1548.949	1359.025
-35.969	36.634	1547.610	1357.377
-34.954	36.680	1545.983	1356.220
-33.940	36.578	1544.888	1354.490
-32.925	36.676	1543.210	1353.649
-31.911	36.616	1541.931	1352.051
-30.896	36.653	1540.432	1350.943
-29.881	36.694	1539.201	1350.099
-28.867	36.587	1538.392	1348.584
-27.852	36.711	1536.172	1347.449
-26.838	36.574	1535.015	1345.432
-25.823	36.716	1532.973	1344.573
-24.809	36.734	1530.807	1342.748
-23.794	36.597	1530.511	1341.479
-22.779	36.599	1529.284	1340.367
-21.765	36.721	1527.700	1339.770
-20.750	36.716	1526.742	1338.841
-19.736	36.713	1525.042	1337.276
-18.721	36.688	1524.222	1336.336
-17.706	36.661	1522.898	1334.931
-16.692	36.529	1522.154	1333.318
-15.677	36.557	1521.095	1332.528
-14.663	36.530	1520.130	1331.446
-13.648	36.656	1518.675	1330.985
-12.633	36.505	1518.022	1329.323
-11.619	36.518	1517.357	1328.778
-10.604	36.569	1516.162	1328.023
-9.590	36.493	1515.499	1326.874
-8.575	36.565	1514.616	1326.543
-7.560	36.541	1513.582	1325.417
-6.546	36.501	1512.729	1324.341
-5.531	36.625	1511.529	1324.090
-4.517	36.511	1510.303	1322.183
-3.502	36.474	1509.906	1321.529
-2.487	36.513	1508.739	1320.722
-1.473	36.546	1507.253	1319.596
-0.458	36.524	1506.025	1318.316
0.556	34.968	1496.911	1309.683
1.571	32.602	1470.258	1270.318
2.586	29.584	1407.591	1196.550
3.600	28.176	1323.339	1116.247
4.615	26.606	1275.760	1066.777
5.629	21.801	1215.540	989.289
6.644	10.320	1122.483	853.302
7.659	1.625	1076.723	774.337
8.673	0.335	1071.045	763.652
9.688	0.128	1067.864	760.272
10.702	0.080	1066.225	758.797
11.717	0.098	1063.909	757.173
12.731	3.829	1069.709	780.084
13.746	14.493	1085.608	845.971
14.761	21.548	1093.865	888.270
15.775	22.151	1093.632	891.058
16.790	22.179	1093.507	891.017
17.804	22.068	1092.279	889.378
18.819	21.784	1091.882	887.541
19.834	21.950	1091.073	887.640
20.848	21.995	1090.213	887.091
21.863	21.995	1090.154	886.963
22.877	22.016	1089.623	886.562
23.892	21.926	1089.371	885.820
24.907	21.843	1088.291	884.447
25.921	21.968	1087.602	884.436
26.936	22.014	1086.893	884.018
27.950	21.904	1085.210	882.014
28.965	21.920	1084.513	881.454
29.980	21.860	1082.516	879.452
30.994	21.849	1081.300	878.331
32.009	21.974	1080.356	878.108
33.023	22.174	1079.895	878.658
34.038	21.919	1078.844	876.450
35.053	21.712	1078.406	874.985
36.067	21.924	1077.440	875.180
37.082	21.980	1076.499	874.617
38.096	22.067	1075.272	873.978
39.111	22.299	1075.001	874.830
40.126	22.321	1074.032	874.078
41.140	22.221	1072.702	872.418
42.155	21.850	1071.266	869.334
43.169	21.660	1069.962	867.262
44.184	21.608	1069.300	866.391
45.199	21.717	1068.245	865.999
46.213	21.571	1066.962	864.162
47.228	21.536	1066.231	863.316
48.242	21.794	1064.822	863.374
49.257	21.698	1064.614	862.655
50.271	21.827	1063.949	862.674
51.286	22.040	1062.979	862.857
52.301	22.041	1062.566	862.452
53.315	22.039	1061.683	861.647
54.330	21.954	1060.724	860.375
55.344	21.982	1059.872	859.745
56.359	21.971	1058.712	858.676
57.374	22.031	1058.020	858.333
58.388	21.722	1057.285	856.152
59.403	21.875	1056.256	855.990
60.417	21.718	1055.689	854.688
61.432	21.608	1054.025	852.729
62.447	21.580	1054.112	852.587
63.461	21.846	1053.406	853.234
64.476	21.779	1052.662	852.234
65.490	21.832	1051.594	851.549
66.505	21.548	1051.183	849.761
67.520	21.719	1049.837	849.428
68.534	21.763	1049.337	849.161
69.549	21.624	1048.165	847.467
70.563	21.327	1046.934	844.957
71.578	21.130	1046.445	843.539
72.593	21.270	1045.120	843.070
73.607	21.143	1043.963	841.451
74.622	21.218	1043.069	841.016
75.636	21.378	1042.625	841.353
76.651	21.557	1041.719	841.409
77.666	21.364	1040.881	839.730
78.680	21.331	1039.532	838.410
79.695	21.375	1039.350	838.400
80.709	21.484	1038.667	838.296
81.724	21.474	1038.174	837.779
82.739	21.555	1036.713	836.911
83.753	21.549	1036.220	836.411
84.768	21.893	1035.497	837.394
85.782	22.103	1034.763	837.732
86.797	22.234	1033.916	837.593
87.812	22.285	1033.207	837.188
88.826	22.131	1032.126	835.504
89.841	22.045	1031.280	834.339
90.855	22.250	1030.288	834.433
91.870	22.202	1029.752	833.699
92.884	22.090	1028.981	832.471
93.899	22.065	1028.054	831.530
94.914	21.928	1026.858	829.842
95.928	22.125	1025.926	829.943
96.943	22.228	1025.179	829.751
97.957	21.818	1024.283	827.022
98.972	21.651	1022.994	825.120
99.987	21.448	1022.069	823.347
101.001	21.512	1021.170	822.852
102.016	21.881	1020.616	824.061
103.030	21.870	1019.797	823.280
104.045	21.703	1019.027	821.802
105.060	21.737	1016.896	820.167
106.074	21.516	1016.101	818.421
107.089	21.703	1015.380	818.641
108.103	21.809	1015.945	819.521
109.118	22.011	1014.394	819.142
110.133	21.738	1012.998	816.668
111.147	21.621	1012.212	815.414
112.162	21.508	1011.181	813.989
113.176	21.439	1009.602	812.323
114.191	21.356	1009.197	811.540
115.206	21.590	1007.995	811.589
116.220	21.341	1006.609	809.246
117.235	21.116	1005.964	807.616
118.249	21.266	1005.326	807.727
119.264	21.496	1004.409	807.982
120.279	21.252	1003.748	806.251
121.293	21.213	1002.713	805.169
122.308	21.437	1002.262	805.766
123.322	21.435	1001.263	804.886
124.337	21.334	999.868	803.227
125.352	21.290	998.523	801.872
126.366	20.889	997.046	798.780
127.381	20.508	995.821	795.983
128.395	21.060	995.377	798.081
129.410	21.770	995.100	801.037
130.424	21.823	994.842	801.000
131.439	21.863	993.667	800.167
132.454	21.756	992.672	798.808
133.468	21.934	991.492	798.594
134.483	21.894	990.847	797.826
135.497	21.906	990.009	797.133
136.512	22.114	989.354	797.478
137.527	22.023	988.970	796.684
138.541	22.037	988.247	796.098
139.556	22.187	987.327	795.964
140.570	22.233	986.170	795.170
141.585	22.051	985.640	793.851
142.600	22.160	984.474	793.331
143.614	22.041	983.667	792.076
144.629	22.022	983.475	791.764
145.643	22.337	982.375	792.227
146.658	22.310	980.943	790.882
147.673	22.118	979.980	789.171
148.687	22.053	978.728	787.802
149.702	21.986	977.877	786.745
150.716	21.975	976.860	785.812
151.731	21.910	975.600	784.437
152.746	21.922	974.823	783.796
153.760	22.097	974.625	784.347
154.775	22.233	973.688	784.132
155.789	22.320	972.817	783.747
156.804	22.246	971.880	782.596
157.819	22.277	970.590	781.627
158.833	22.146	970.272	780.716
159.848	22.285	969.635	780.753
160.862	22.490	968.110	780.367
161.877	22.143	967.447	778.224
162.892	22.220	966.570	777.792
163.906	22.251	965.783	777.226
164.921	22.349	964.679	776.699
165.935	22.047	963.901	774.673
166.950	22.175	962.866	774.339
167.964	22.246	961.748	773.684
168.979	22.196	961.263	773.004
169.994	22.148	959.627	771.410
171.008	21.987	958.655	769.856
172.023	22.167	958.070	770.106
173.037	22.395	957.072	770.231
174.052	22.127	955.898	768.047
175.067	21.944	955.036	766.488
176.081	21.950	954.305	765.862
177.096	21.987	953.537	765.336
178.110	21.958	953.032	764.738
179.125	21.828	951.658	763.001
180.140	21.553	949.973	760.387
181.154	21.591	949.555	760.151
182.169	21.521	949.581	759.800
183.183	22.059	948.753	761.407
184.198	22.238	948.594	761.988
185.213	22.197	947.475	760.840
186.227	22.019	947.244	759.817
187.242	22.059	946.841	759.601
188.256	22.302	945.842	759.784
189.271	22.132	944.957	758.269
190.286	22.435	944.201	758.903
191.300	22.205	943.351	757.162
192.315	21.439	942.257	752.920
193.329	20.938	940.388	749.208
194.344	20.567	939.620	746.939
195.359	21.183	939.503	749.422
196.373	21.952	939.881	752.959
197.388	22.035	939.745	753.139
198.402	22.008	938.745	752.155
199.417	21.878	938.660	751.462
200.432	22.077	937.797	751.558
201.446	22.046	936.853	750.604
202.461	21.579	936.266	748.070
203.475	21.639	936.174	748.185
204.490	21.294	934.258	745.117
205.504	20.319	931.555	738.747
206.519	20.587	932.242	740.370
207.534	21.580	932.452	744.698
208.548	21.709	931.568	744.476
209.563	22.012	931.617	745.733
210.577	22.105	930.414	745.098
211.592	21.725	929.945	743.046
212.607	22.146	929.500	744.408
213.621	22.230	929.209	744.467
214.636	22.146	928.380	743.381
215.650	22.288	927.725	743.392
216.665	22.120	927.381	742.338
217.680	22.253	926.404	742.055
218.694	22.282	926.599	742.268
219.709	22.095	925.160	740.259
220.723	21.640	924.306	737.595
221.738	21.935	923.397	738.047
222.753	22.116	922.911	738.352
223.767	22.039	922.128	737.338
224.782	21.933	921.742	736.517
225.796	22.191	921.530	737.367
226.811	22.209	920.841	736.825
227.826	22.075	919.066	734.777
228.840	21.147	917.936	729.932
229.855	21.204	916.909	729.288
230.869	21.397	916.779	729.928
231.884	21.161	915.610	727.949
232.899	21.079	915.480	727.439
233.913	21.955	915.497	731.038
234.928	22.074	914.597	730.752
235.942	21.786	914.461	729.379
236.957	21.974	913.558	729.374
237.972	21.731	912.597	727.535
238.986	21.559	911.727	726.062
240.001	21.853	911.420	726.972
241.015	21.730	910.719	725.839
242.030	21.968	909.907	726.112
243.045	22.013	909.323	725.770
244.059	22.064	909.083	725.724
245.074	22.188	908.895	726.021
246.088	22.130	907.859	724.889
247.103	21.865	906.842	722.924
248.117	21.710	906.249	721.748
249.132	22.339	906.035	724.103
250.147	22.565	906.174	725.079
251.161	22.757	905.407	725.190
252.176	22.822	905.278	725.289
253.190	22.863	904.137	724.481
254.205	22.931	903.763	724.395
255.220	23.116	903.174	724.616
256.234	23.121	902.301	723.873
257.249	22.963	901.767	722.736
258.263	22.855	901.010	721.621
259.278	22.782	900.467	720.824
260.293	22.902	899.891	720.789
261.307	23.034	899.401	720.874
262.322	22.686	899.062	719.119
263.336	22.606	898.235	718.068
264.351	22.248	897.098	715.636
265.366	21.133	894.724	709.154
266.380	20.784	893.581	706.767
267.395	21.660	894.027	710.615
268.409	22.471	894.124	713.917
269.424	22.414	893.416	713.058
270.439	22.487	893.224	713.137
271.453	22.821	892.184	713.593
272.468	22.665	891.506	712.358
273.482	22.996	890.937	713.175
274.497	23.104	890.816	713.452
275.512	22.924	889.575	711.671
276.526	22.339	888.123	708.094
277.541	22.475	888.183	708.625
278.555	22.776	887.648	709.343
279.570	22.599	887.107	708.139
280.585	22.380	886.260	706.521
281.599	22.547	885.604	706.607
282.614	22.687	884.982	706.608
283.628	22.256	883.839	703.909
284.643	21.769	883.611	701.716
285.657	22.194	883.473	703.244
286.672	22.241	882.323	702.454
287.687	21.638	881.311	699.178
288.701	21.970	881.408	700.519
289.716	22.490	880.920	702.144
290.730	22.202	879.781	700.027
291.745	22.020	879.495	699.014
292.760	21.871	878.152	697.290
293.774	21.775	877.628	696.431
294.789	22.441	878.824	699.970
295.803	23.178	878.778	702.796
296.818	23.226	877.958	702.268
297.833	23.387	877.402	702.401
298.847	23.213	876.149	700.647
299.862	22.681	875.533	697.990
300.876	22.926	875.132	698.577
301.891	23.148	874.549	698.924
302.906	23.222	873.896	698.634
303.920	22.912	872.582	696.299
304.935	22.742	871.844	694.980
305.949	23.131	871.685	696.324
306.964	23.220	871.329	696.328
307.979	23.020	870.638	694.927
308.993	22.875	870.406	694.108
310.008	23.182	870.020	694.947
311.022	23.247	869.796	694.961
312.037	23.398	868.776	694.677
313.052	23.016	867.975	692.479
314.066	23.036	867.097	691.795
315.081	22.393	865.393	687.862
316.095	21.516	864.727	683.847
317.110	22.051	864.864	685.984
318.125	22.887	864.957	689.262
319.139	22.496	863.972	686.891
320.154	21.372	862.442	681.239
321.168	20.833	861.657	678.460
322.183	21.656	861.492	681.470
323.197	22.483	861.562	684.685
324.212	22.661	861.727	685.445
325.227	22.777	861.263	685.467
326.241	23.071	860.624	686.038
327.256	23.011	859.477	684.832
328.270	22.864	859.357	684.104
329.285	22.768	858.707	683.156
330.300	22.641	857.680	681.786
331.314	22.513	856.955	680.657
332.329	22.502	856.540	680.225
333.343	22.902	856.017	681.291
334.358	23.092	855.750	681.750
335.373	23.185	854.924	681.391
336.387	23.266	854.536	681.332
337.402	23.255	854.369	681.096
338.416	23.647	853.769	682.067
339.431	23.483	853.232	680.947
340.446	23.540	852.578	680.582
341.460	23.743	852.257	681.044
342.475	23.774	851.361	680.386
343.489	23.536	850.677	678.869
344.504	23.360	850.059	677.643
345.519	23.716	849.921	678.835
346.533	23.915	849.712	679.368
347.548	24.076	848.959	679.318
348.562	24.041	848.181	678.502
349.577	23.969	848.140	678.136
350.592	23.895	847.502	677.283
351.606	23.804	846.842	676.351
352.621	23.714	846.954	676.035
353.635	23.699	845.858	675.046
354.650	23.696	845.315	674.541
355.665	23.387	844.387	672.570
356.679	22.303	842.675	667.036
357.694	22.181	842.092	666.056
358.708	22.785	842.246	668.405
359.723	22.825	841.492	667.898
360.738	23.067	841.331	668.627
361.752	23.330	841.452	669.660
362.767	23.667	840.510	670.122
363.781	23.797	840.751	670.746
364.796	24.205	840.238	671.816
365.810	24.169	840.167	671.563
366.825	24.207	839.725	671.295
367.840	24.203	839.408	670.966
368.854	24.040	838.830	669.834
369.869	23.740	837.768	667.796
370.883	23.443	837.344	666.284
371.898	23.762	836.151	666.471
372.913	23.598	835.617	665.375
373.927	23.612	835.088	664.944
374.942	23.602	834.614	664.470
375.956	23.760	834.372	664.813
376.971	23.917	833.658	664.771
377.986	23.947	833.403	664.620
379.000	24.232	832.602	664.988
380.015	24.257	832.474	664.921
381.029	23.980	831.765	663.262
382.044	23.930	831.058	662.453
383.059	24.183	830.583	662.958
384.073	24.079	830.092	662.121
385.088	24.034	829.628	661.524
386.102	24.085	829.296	661.391
387.117	23.998	828.274	660.192
388.132	23.897	827.425	659.084
389.146	23.759	827.136	658.286
390.161	23.273	825.999	655.523
391.175	23.384	825.240	655.273
392.190	23.932	825.234	657.235
393.205	23.955	824.792	656.909
394.219	22.947	823.548	652.142
395.234	21.161	821.291	643.718
396.248	20.622	820.035	640.693
397.263	21.583	820.965	644.904
398.278	23.349	822.308	652.410
399.292	23.881	822.209	654.232
400.307	23.616	821.185	652.385
401.321	23.566	820.620	651.695
402.336	23.531	820.559	651.460
403.350	23.758	820.633	652.295
404.365	24.530	819.864	654.459
405.380	24.423	820.162	654.245
406.394	24.762	820.014	655.313
407.409	25.012	819.691	655.910
408.423	24.800	819.195	654.679
409.438	24.778	818.425	653.927
410.453	24.684	818.480	653.568
411.467	24.820	817.744	653.420
412.482	24.903	816.783	652.896
413.496	24.773	816.192	651.892
414.511	24.877	816.361	652.348
415.526	24.989	815.589	652.083
416.540	24.923	815.428	651.657
417.555	24.872	814.609	650.760
418.569	24.573	813.948	649.085
419.584	24.626	813.058	648.511
420.599	24.513	813.233	648.183
421.613	150.899	1364.580	1787.417
422.628	131.190	1444.913	1787.552
