DTS Sentinel unit serial number:	SN413079Multiplexer serial number:	ORYXHardware model number:	OX4-SRSoftware version number:	ORYX F/W v4.00 Oryx Data Collector v3.7.2.0data status	okinstallation	princeton_trtdifferential loss correction	single-endedforward channel	channel 3reverse channel	N/Adate	2019/09/10time	20:10:10forward acquisition time	60.00reverse acquisition time	0.00gamma	496.2192k internal	0.2325k external	0.2325temperature offset calibration	0.9921default loss term (dB/km)	0.3790temperature slope calibration	1.0000multiplexer offset coefficient	1.0000multiplexer slope coefficient	1.0000fibre end	0.00T internal ref (°C)	32.44T ext. ref 1 (°C)	-0.31T ext. ref 2 (°C)	25.32length (m)	temperature (°C)	Stokes	anti-Stokes-747.200	-172.854	-0.331	0.010
-746.185	-103.225	-0.331	0.079
-745.171	-78.991	-0.034	0.012
-744.156	45.087	-0.126	0.117
-743.142	-200.000	-0.005	-0.236
-742.127	-200.000	-0.033	0.180
-741.112	-9.834	-0.033	-0.022
-740.098	-86.809	-0.312	0.096
-739.083	12.377	0.348	-0.270
-738.069	-200.000	-0.003	-0.317
-737.054	-160.729	-0.269	0.014
-736.039	-70.237	-0.150	-0.058
-735.025	-168.366	0.291	0.011
-734.010	-6.470	-0.273	-0.188
-732.996	638.228	0.085	-0.219
-731.981	83.087	0.352	-0.386
-730.966	-26.075	-0.239	-0.142
-729.952	96.333	-0.200	-0.230
-728.937	-182.074	-0.251	0.005
-727.923	202.613	-0.131	-0.203
-726.908	249.808	-0.022	-0.037
-725.894	-200.000	0.005	0.053
-724.879	-200.000	0.049	-0.240
-723.864	601.759	0.076	-0.192
-722.850	-32.782	-0.253	-0.142
-721.835	-57.236	-0.068	0.030
-720.821	305.859	-0.110	-0.205
-719.806	-11.389	-0.139	-0.092
-718.791	137.552	-0.029	0.038
-717.777	800.000	0.084	-0.262
-716.762	-118.160	-0.354	0.064
-715.748	-110.112	0.286	-0.060
-714.733	800.000	0.023	0.076
-713.718	-15.804	-0.353	0.227
-712.704	800.000	0.075	-0.282
-711.689	-149.404	-0.368	0.029
-710.675	-200.000	0.013	0.175
-709.660	-164.288	-0.243	0.011
-708.645	800.000	-0.040	0.113
-707.631	311.236	0.089	0.168
-706.616	275.079	-0.116	-0.207
-705.602	-121.567	-0.242	-0.041
-704.587	-144.349	-0.407	0.038
-703.572	113.415	-0.055	-0.068
-702.558	-200.000	-0.001	0.312
-701.543	5.499	0.199	-0.148
-700.529	62.782	-0.127	0.128
-699.514	-31.979	0.239	-0.135
-698.499	663.002	-0.081	0.209
-697.485	175.144	-0.268	0.391
-696.470	-45.988	-0.118	0.059
-695.456	623.144	-0.011	0.027
-694.441	-200.000	0.000	0.167
-693.426	262.560	-0.134	-0.233
-692.412	-13.745	0.141	-0.092
-691.397	-126.945	-0.225	0.033
-690.383	800.000	0.056	0.168
-689.368	-200.000	-0.076	0.368
-688.354	-162.724	0.208	0.010
-687.339	-200.000	-0.009	0.090
-686.324	26.801	0.063	-0.053
-685.310	-189.583	0.347	-0.004
-684.295	-200.000	-0.040	0.452
-683.281	201.389	0.104	0.161
-682.266	174.055	-0.043	0.062
-681.251	800.000	0.104	-0.329
-680.237	-200.000	-0.006	0.163
-679.222	5.797	0.253	0.188
-678.208	800.000	-0.043	-0.146
-677.193	-78.901	-0.393	0.135
-676.178	-63.578	-0.123	0.051
-675.164	421.174	-0.109	-0.235
-674.149	800.000	-0.071	-0.212
-673.135	-200.000	-0.025	0.226
-672.120	-18.596	-0.252	-0.158
-671.105	-78.533	-0.137	-0.047
-670.091	-50.928	0.182	0.086
-669.076	-119.087	-0.393	-0.069
-668.062	56.143	0.337	-0.329
-667.047	-200.000	-0.019	0.260
-666.032	800.000	-0.064	-0.192
-665.018	-183.151	-0.282	0.005
-664.003	46.442	0.089	0.083
-662.989	-9.300	-0.139	-0.093
-661.974	-39.552	-0.216	-0.114
-660.959	-38.436	-0.181	-0.096
-659.945	-200.000	-0.004	-0.206
-658.930	800.000	-0.090	-0.299
-657.916	-35.652	0.219	-0.120
-656.901	-200.000	-0.063	-0.288
-655.886	475.491	-0.063	-0.144
-654.872	197.123	0.237	-0.363
-653.857	582.360	-0.127	0.313
-652.843	63.078	-0.251	-0.252
-651.828	-123.942	0.126	-0.020
-650.814	-107.799	-0.061	0.013
-649.799	95.044	-0.255	0.292
-648.784	161.581	-0.149	0.210
-647.770	800.000	-0.027	0.106
-646.755	115.903	0.149	0.184
-645.741	7.487	-0.151	-0.113
-644.726	153.442	0.172	-0.237
-643.711	-200.000	-0.042	0.193
-642.697	21.305	0.058	-0.047
-641.682	71.633	-0.283	-0.295
-640.668	-146.507	0.172	0.015
-639.653	181.448	0.118	0.175
-638.638	206.588	0.056	-0.088
-637.624	-65.599	0.201	0.081
-636.609	-156.801	0.178	-0.011
-635.595	80.638	0.139	-0.150
-634.580	481.682	-0.131	-0.298
-633.565	-200.000	0.017	-0.112
-632.551	-200.000	0.047	0.325
-631.536	-9.210	-0.190	-0.128
-630.522	-154.908	0.300	0.020
-629.507	24.411	-0.324	-0.269
-628.492	-29.712	-0.155	0.089
-627.478	-101.993	-0.039	0.009
-626.463	-47.495	-0.336	-0.164
-625.449	800.000	0.051	0.191
-624.434	-75.789	0.202	-0.072
-623.419	-106.637	-0.145	-0.032
-622.405	302.715	-0.143	-0.266
-621.390	9.559	0.231	0.176
-620.376	-101.931	-0.156	-0.038
-619.361	-12.268	-0.267	0.175
-618.346	-75.697	-0.178	0.063
-617.332	200.353	-0.178	-0.275
-616.317	81.049	0.125	-0.135
-615.303	94.502	0.126	-0.144
-614.288	-75.857	0.302	0.107
-613.273	55.053	-0.319	-0.309
-612.259	-107.122	-0.211	0.047
-611.244	70.921	0.192	-0.199
-610.230	-200.000	0.019	-0.223
-609.215	800.000	0.067	0.267
-608.201	-200.000	0.036	0.207
-607.186	37.103	-0.238	-0.211
-606.171	-200.000	-0.026	-0.352
-605.157	436.435	0.217	-0.474
-604.142	-200.000	-0.017	-0.095
-603.128	-166.293	-0.129	-0.005
-602.113	-54.653	-0.208	0.094
-601.098	-97.923	0.202	-0.052
-600.084	-200.000	-0.015	-0.182
-599.069	99.565	-0.065	-0.075
-598.055	111.194	0.130	-0.157
-597.040	-46.231	0.058	0.029
-596.025	-10.521	0.018	-0.012
-595.011	-61.594	0.532	-0.224
-593.996	-200.000	0.007	0.048
-592.982	-76.686	-0.394	-0.139
-591.967	800.000	-0.076	-0.256
-590.952	-58.941	-0.220	0.095
-589.938	-87.412	-0.274	-0.083
-588.923	58.113	-0.126	-0.124
-587.909	88.646	-0.152	-0.170
-586.894	-2.865	0.059	0.041
-585.879	-51.716	0.262	0.122
-584.865	-109.906	-0.155	-0.033
-583.850	-44.105	0.039	0.019
-582.836	308.833	0.058	0.108
-581.821	155.449	-0.055	-0.076
-580.806	-12.988	-0.216	-0.141
-579.792	-200.000	-0.075	-0.382
-578.777	800.000	-0.034	0.127
-577.763	303.063	0.048	-0.089
-576.748	513.751	-0.106	-0.248
-575.733	-200.000	-0.023	0.130
-574.719	-200.000	0.040	-0.273
-573.704	-200.000	0.000	-0.063
-572.690	-157.569	-0.145	-0.009
-571.675	-200.000	0.006	-0.095
-570.661	800.000	-0.096	-0.346
-569.646	-200.000	0.027	0.199
-568.631	280.165	-0.115	0.206
-567.617	-32.840	0.148	0.083
-566.602	60.011	0.099	-0.098
-565.588	-42.575	0.155	-0.079
-564.573	-152.165	0.210	-0.015
-563.558	-12.700	-0.021	-0.014
-562.544	92.920	0.079	0.089
-561.529	-57.953	-0.268	0.117
-560.515	-12.010	0.200	0.131
-559.500	-32.335	0.092	0.052
-558.485	-75.929	0.289	-0.102
-557.471	488.690	-0.125	-0.287
-556.456	-61.328	-0.162	0.068
-555.442	800.000	0.085	0.298
-554.427	-45.977	-0.221	-0.109
-553.412	573.349	0.056	0.138
-552.398	-27.247	0.375	0.218
-551.383	-41.289	-0.220	-0.114
-550.369	244.593	-0.023	-0.038
-549.354	-163.017	-0.129	-0.006
-548.339	0.198	-0.147	-0.105
-547.325	-200.000	0.015	-0.174
-546.310	-94.407	-0.212	0.058
-545.296	16.020	-0.397	-0.313
-544.281	3.890	-0.233	-0.171
-543.266	800.000	-0.041	-0.158
-542.252	-47.406	-0.210	-0.102
-541.237	331.107	0.067	0.129
-540.223	-133.551	-0.224	-0.028
-539.208	-200.000	0.009	0.062
-538.193	-200.000	-0.021	-0.138
-537.179	800.000	-0.077	-0.237
-536.164	-81.114	0.166	0.055
-535.150	-74.702	0.357	-0.128
-534.135	-77.215	-0.265	0.092
-533.121	-1.353	-0.254	-0.179
-532.106	-73.693	-0.282	-0.103
-531.091	-200.000	-0.007	0.124
-530.077	-200.000	0.058	-0.455
-529.062	800.000	0.093	-0.387
-528.048	-65.267	0.166	-0.067
-527.033	-200.000	0.010	-0.217
-526.018	-41.222	0.191	-0.099
-525.004	72.235	0.095	0.099
-523.989	-0.011	-0.053	-0.038
-522.975	-144.910	-0.244	-0.022
-521.960	800.000	-0.030	-0.097
-520.945	800.000	-0.063	0.253
-519.931	800.000	-0.012	0.043
-518.916	16.643	-0.107	0.085
-517.902	152.994	0.119	-0.163
-516.887	19.184	-0.182	-0.146
-515.872	-200.000	-0.055	-0.434
-514.858	62.447	0.068	-0.068
-513.843	-69.435	-0.206	0.079
-512.829	694.300	0.009	-0.025
-511.814	-45.145	-0.024	-0.012
-510.799	-101.989	0.229	-0.055
-509.785	-200.000	0.006	-0.062
-508.770	800.000	0.031	-0.104
-507.756	13.094	0.217	0.168
-506.741	-28.007	0.159	0.092
-505.726	63.028	0.336	-0.337
-504.712	-131.572	-0.081	0.011
-503.697	200.407	0.200	0.307
-502.683	-37.303	-0.230	0.123
-501.668	-53.773	0.186	0.085
-500.653	-94.772	-0.224	0.061
-499.639	-24.595	-0.095	-0.057
-498.624	140.795	-0.271	0.358
-497.610	214.459	-0.232	-0.367
-496.595	275.095	-0.137	0.242
-495.581	209.485	-0.146	0.229
-494.566	-21.544	0.259	-0.158
-493.551	-114.738	-0.152	-0.029
-492.537	-1.177	0.178	-0.126
-491.522	-7.441	-0.169	-0.114
-490.508	634.675	-0.093	0.236
-489.493	75.647	0.007	-0.007
-488.478	109.832	0.199	-0.239
-487.464	114.611	-0.152	0.185
-486.449	-200.000	-0.027	0.215
-485.435	-109.197	0.293	0.062
-484.420	-106.483	0.111	-0.025
-483.405	78.355	0.131	0.139
-482.391	132.837	-0.075	0.096
-481.376	-200.000	0.010	-0.125
-480.362	36.938	-0.094	-0.083
-479.347	-172.472	-0.324	0.010
-478.332	-131.560	-0.110	-0.014
-477.318	96.634	0.290	0.332
-476.303	84.863	-0.203	-0.222
-475.289	-200.000	-0.039	-0.207
-474.274	-145.670	0.282	0.025
-473.259	-120.449	-0.060	-0.010
-472.245	166.044	-0.182	0.257
-471.230	-200.000	0.046	0.000
-470.216	-200.000	-0.025	-0.161
-469.201	-115.001	-0.199	0.038
-468.186	579.921	-0.169	0.413
-467.172	-10.777	0.185	0.122
-466.157	800.000	0.051	0.197
-465.143	110.672	-0.256	0.307
-464.128	-97.511	-0.337	-0.087
-463.113	-48.877	0.231	0.111
-462.099	-4.879	-0.077	0.053
-461.084	-83.575	-0.129	0.041
-460.070	-140.759	-0.247	0.025
-459.055	10.509	-0.174	-0.133
-458.040	178.667	-0.078	-0.114
-457.026	369.732	0.051	-0.103
-456.011	-132.833	-0.160	0.020
-454.997	-12.434	0.226	0.147
-453.982	-109.123	-0.247	0.052
-452.968	-200.000	0.049	0.297
-451.953	-200.000	0.010	-0.435
-450.938	-82.567	-0.031	-0.010
-449.924	335.181	-0.034	-0.066
-448.909	95.261	-0.202	-0.230
-447.895	-14.679	-0.125	0.080
-446.880	40.474	-0.114	0.103
-445.865	-121.418	0.249	-0.041
-444.851	-111.819	0.236	0.048
-443.836	-75.512	-0.207	0.073
-442.822	-92.733	-0.181	-0.051
-441.807	-134.195	0.137	0.017
-440.792	-101.092	-0.091	0.022
-439.778	-200.000	0.064	-0.321
-438.763	181.201	0.129	-0.189
-437.749	-148.207	-0.190	-0.016
-436.734	-150.821	0.049	-0.004
-435.719	-200.000	0.011	-0.192
-434.705	-107.738	-0.041	0.009
-433.690	-101.355	0.128	0.031
-432.676	110.333	0.173	-0.207
-431.661	-22.660	0.116	0.070
-430.646	-34.252	-0.177	0.097
-429.632	-200.000	-0.082	-0.382
-428.617	-120.890	0.315	-0.053
-427.603	31.402	0.265	-0.226
-426.588	-65.752	0.261	0.104
-425.573	335.241	0.095	0.183
-424.559	-106.472	-0.257	-0.057
-423.544	7.731	0.188	0.140
-422.530	-200.000	0.036	-0.304
-421.515	-200.000	-0.018	-0.296
-420.500	-14.523	-0.168	-0.108
-419.486	-112.513	0.243	-0.048
-418.471	-19.561	-0.130	0.080
-417.457	-141.000	-0.056	-0.006
-416.442	102.160	0.117	0.136
-415.428	-64.119	-0.279	-0.113
-414.413	-121.660	0.485	-0.080
-413.398	-30.353	-0.339	0.192
-412.384	32.519	-0.147	0.127
-411.369	800.000	-0.018	0.052
-410.355	42.993	0.167	0.152
-409.340	-47.224	0.294	-0.143
-408.325	-200.000	0.213	-0.000
-407.311	600.032	-0.060	0.149
-406.296	598.921	-0.118	0.292
-405.282	64.085	0.124	-0.124
-404.267	81.376	0.264	0.284
-403.252	-9.529	-0.104	0.069
-402.238	-200.000	0.070	0.483
-401.223	-49.310	-0.294	-0.140
-400.209	7.101	0.127	0.095
-399.194	133.380	-0.049	0.063
-398.179	-132.580	0.192	-0.025
-397.165	81.379	-0.287	-0.309
-396.150	0.854	-0.052	0.037
-395.136	-200.000	0.078	0.413
-394.121	800.000	-0.130	0.420
-393.106	529.745	-0.116	0.272
-392.092	-137.420	-0.272	-0.031
-391.077	455.417	-0.075	-0.166
-390.063	23.928	-0.025	-0.021
-389.048	-200.000	-0.022	0.186
-388.033	-37.963	-0.154	0.082
-387.019	104.805	-0.099	-0.117
-386.004	800.000	-0.041	-0.114
-384.990	396.557	-0.114	0.238
-383.975	94.568	0.214	0.242
-382.960	-138.409	0.281	0.031
-381.946	-41.582	0.052	0.026
-380.931	-134.633	-0.208	-0.025
-379.917	58.252	-0.027	0.026
-378.902	707.835	-0.043	0.114
-377.888	-94.621	-0.135	0.037
-376.873	170.639	-0.132	0.188
-375.858	-200.000	0.025	0.449
-374.844	-150.344	-0.131	0.010
-373.829	-102.016	-0.223	0.054
-372.815	253.369	-0.100	-0.170
-371.800	800.000	-0.087	-0.376
-370.785	-200.000	-0.017	0.246
-369.771	289.593	-0.119	0.214
-368.756	800.000	0.015	0.054
-367.742	43.863	0.093	0.085
-366.727	-200.000	0.040	0.305
-365.712	-50.900	-0.274	0.128
-364.698	-200.000	0.031	-0.218
-363.683	-3.722	0.227	-0.156
-362.669	64.957	0.304	0.305
-361.654	21.491	-0.203	-0.164
-360.639	130.791	0.188	0.240
-359.625	-184.031	0.091	0.002
-358.610	-200.000	-0.028	-0.215
-357.596	42.905	-0.256	0.232
-356.581	-200.000	-0.021	0.286
-355.566	439.947	-0.072	0.156
-354.552	89.820	-0.089	-0.099
-353.537	800.000	0.052	0.192
-352.523	0.682	-0.124	0.088
-351.508	102.754	0.045	0.053
-350.493	-118.066	0.393	-0.070
-349.479	-200.000	0.004	-0.102
-348.464	568.336	-0.076	0.183
-347.450	-71.289	0.022	0.008
-346.435	261.122	0.140	0.240
-345.420	-200.000	0.020	0.170
-344.406	112.750	0.222	-0.267
-343.391	-100.321	-0.265	0.065
-342.377	-60.967	0.150	0.063
-341.362	-200.000	0.003	0.184
-340.348	-26.940	0.138	-0.080
-339.333	124.289	-0.162	-0.203
-338.318	-88.865	-0.171	0.050
-337.304	-16.128	-0.297	-0.187
-336.289	12.593	0.054	-0.041
-335.275	-200.000	0.002	0.046
-334.260	5.233	0.216	-0.158
-333.245	-200.000	0.003	-0.241
-332.231	-160.671	-0.016	0.001
-331.216	41.069	0.122	-0.109
-330.202	106.652	0.163	0.192
-329.187	-146.730	-0.226	-0.019
-328.172	-68.293	0.442	0.171
-327.158	-104.522	-0.160	-0.037
-326.143	585.901	-0.084	0.205
-325.129	-200.000	0.025	0.450
-324.114	72.266	-0.174	-0.180
-323.099	-200.000	-0.064	-0.323
-322.085	-111.262	-0.310	-0.063
-321.070	-169.874	-0.128	-0.005
-320.056	-117.095	-0.346	-0.063
-319.041	-49.423	0.183	0.087
-318.026	34.639	0.228	0.198
-317.012	-94.871	-0.118	0.032
-315.997	-200.000	0.026	-0.179
-314.983	546.919	0.123	-0.291
-313.968	696.591	0.031	-0.080
-312.953	-200.000	-0.036	0.409
-311.939	-8.094	0.082	-0.055
-310.924	-153.612	-0.143	0.010
-309.910	800.000	0.119	0.331
-308.895	800.000	-0.037	-0.110
-307.880	-124.499	-0.157	0.024
-306.866	187.168	0.090	-0.133
-305.851	298.347	-0.126	-0.229
-304.837	-124.623	0.207	0.032
-303.822	-82.799	-0.130	-0.042
-302.807	800.000	0.072	-0.235
-301.793	-40.715	0.228	-0.117
-300.778	195.796	0.145	0.219
-299.764	-81.220	0.228	-0.075
-298.749	294.621	-0.033	-0.060
-297.735	-165.631	0.146	-0.006
-296.720	800.000	-0.048	0.155
-295.705	-0.561	0.043	0.030
-294.691	800.000	-0.105	0.290
-293.676	800.000	0.071	0.294
-292.662	-132.738	0.103	0.013
-291.647	168.511	-0.077	0.109
-290.632	-112.340	0.259	-0.051
-289.618	-200.000	-0.010	0.121
-288.603	372.593	0.088	0.178
-287.589	-54.180	0.187	-0.084
-286.574	800.000	-0.061	0.239
-285.559	-42.708	0.084	-0.042
-284.545	800.000	-0.047	-0.151
-283.530	-42.795	-0.103	-0.052
-282.516	-200.000	0.011	-0.053
-281.501	-10.908	-0.326	0.214
-280.486	-6.820	0.123	0.083
-279.472	-133.370	-0.138	0.017
-278.457	23.171	0.371	0.302
-277.443	-34.191	0.098	-0.054
-276.428	800.000	-0.104	0.296
-275.413	-82.776	-0.105	-0.034
-274.399	212.157	0.079	-0.124
-273.384	-126.420	-0.273	0.040
-272.370	800.000	0.151	0.418
-271.355	800.000	0.041	0.124
-270.340	183.221	0.102	-0.149
-269.326	-194.232	0.390	-0.003
-268.311	45.100	0.159	-0.145
-267.297	-200.000	-0.059	-0.296
-266.282	67.969	-0.160	-0.162
-265.267	-200.000	0.016	-0.103
-264.253	573.736	-0.138	0.333
-263.238	78.542	0.097	0.102
-262.224	-124.401	-0.190	0.029
-261.209	-140.612	0.260	-0.027
-260.195	-111.996	0.352	-0.070
-259.180	-200.000	-0.063	0.274
-258.165	538.581	-0.039	0.091
-257.151	-143.200	-0.103	-0.010
-256.136	179.509	0.052	-0.075
-255.122	57.305	0.178	-0.172
-254.107	-66.467	0.065	0.025
-253.092	800.000	-0.092	0.290
-252.078	290.094	-0.078	-0.140
-251.063	800.000	0.091	0.366
-250.049	-76.620	0.182	-0.063
-249.034	-104.665	0.077	0.018
-248.019	510.583	0.032	0.074
-247.005	113.130	-0.089	0.106
-245.990	800.000	0.040	-0.124
-244.976	-200.000	0.013	0.097
-243.961	-200.000	-0.053	0.237
-242.946	-200.000	0.035	-0.280
-241.932	221.189	0.098	-0.156
-240.917	-41.341	0.219	0.112
-239.903	106.944	-0.265	-0.311
-238.888	379.468	0.074	0.150
-237.873	238.376	0.221	-0.363
-236.859	197.016	-0.024	0.036
-235.844	55.060	0.243	-0.232
-234.830	35.823	0.094	-0.082
-233.815	318.597	0.049	0.092
-232.800	250.332	0.098	0.165
-231.786	-200.000	0.059	0.371
-230.771	-97.313	0.277	-0.072
-229.757	-137.519	0.093	0.010
-228.742	-66.242	-0.056	0.022
-227.727	-16.585	0.378	-0.237
-226.713	9.654	0.144	0.108
-225.698	-65.038	0.255	-0.102
-224.684	-200.000	0.019	0.215
-223.669	58.082	-0.153	0.148
-222.655	35.653	-0.112	0.098
-221.640	98.931	-0.035	-0.040
-220.625	395.920	-0.091	-0.187
-219.611	-35.406	-0.011	0.006
-218.596	313.100	0.018	0.034
-217.582	-98.810	0.200	-0.050
-216.567	-57.590	-0.565	-0.245
-215.552	75.398	0.154	0.161
-214.538	-17.806	0.187	0.116
-213.523	-200.000	0.011	0.056
-212.509	30.131	0.204	0.172
-211.494	-41.915	-0.020	0.010
-210.479	-0.882	-0.238	0.167
-209.465	-200.000	-0.065	-0.414
-208.450	-156.768	0.475	-0.029
-207.436	-38.004	-0.225	-0.118
-206.421	705.587	-0.162	0.423
-205.406	-5.666	-0.146	0.099
-204.392	-60.084	0.048	0.020
-203.377	685.258	0.005	-0.014
-202.363	800.000	-0.075	0.316
-201.348	800.000	-0.027	0.077
-200.333	-1.255	0.180	-0.125
-199.319	152.525	0.129	0.174
-198.304	536.867	0.120	-0.281
-197.290	-3.853	0.130	-0.089
-196.275	-10.101	0.043	0.028
-195.260	-200.000	0.005	-0.176
-194.246	45.506	-0.156	0.142
-193.231	-200.000	0.004	0.201
-192.217	-194.007	-0.149	-0.001
-191.202	69.064	-0.025	0.026
-190.187	800.000	0.080	-0.249
-189.173	117.087	-0.017	-0.020
-188.158	-37.854	-0.228	-0.120
-187.144	316.948	-0.026	-0.048
-186.129	144.571	-0.130	-0.172
-185.114	-9.475	0.121	0.080
-184.100	800.000	-0.126	-0.465
-183.085	24.931	0.097	-0.079
-182.071	-200.000	-0.013	-0.071
-181.056	-61.879	-0.328	0.135
-180.042	6.207	-0.142	-0.104
-179.027	-21.369	-0.113	0.068
-178.012	29.730	0.195	-0.163
-176.998	-62.004	0.051	-0.021
-175.983	13.425	0.173	0.132
-174.969	145.185	-0.166	-0.219
-173.954	156.620	0.108	0.147
-172.939	12.039	-0.103	0.078
-171.925	-200.000	-0.025	0.145
-170.910	-114.942	0.115	0.022
-169.896	-83.910	0.077	-0.024
-168.881	-130.516	0.192	0.026
-167.866	-200.000	0.026	0.237
-166.852	-139.329	-0.110	-0.012
-165.837	-4.980	0.312	-0.212
-164.823	-200.000	-0.004	-0.100
-163.808	-200.000	0.048	-0.290
-162.793	-200.000	-0.017	0.111
-161.779	-184.412	0.048	-0.001
-160.764	-41.673	0.135	0.068
-159.750	-160.581	0.270	0.014
-158.735	-45.104	0.301	-0.148
-157.720	-103.123	0.241	-0.056
-156.706	-99.748	-0.100	0.025
-155.691	25.218	0.259	0.212
-154.677	-200.000	0.516	0.002
-153.662	193.656	0.094	0.140
-152.647	800.000	0.035	0.121
-151.633	-100.093	-0.422	0.104
-150.618	-200.000	0.003	-0.522
-149.604	68.153	-0.253	-0.256
-148.589	-200.000	-0.067	0.296
-147.574	-69.118	0.280	-0.106
-146.560	287.108	-0.080	-0.143
-145.545	-88.684	0.350	-0.103
-144.531	218.469	-0.327	0.515
-143.516	-77.488	-0.230	0.079
-142.502	-53.178	0.161	0.073
-141.487	-44.432	-0.218	0.107
-140.472	-200.000	-0.025	-0.166
-139.458	19.093	0.084	0.067
-138.443	800.000	0.030	0.087
-137.429	-200.000	-0.035	0.245
-136.414	105.415	-0.220	-0.256
-135.399	-17.247	0.281	-0.175
-134.385	242.321	-0.262	-0.432
-133.370	-48.450	0.484	-0.229
-132.356	-141.509	0.295	0.029
-131.341	-32.492	-0.246	-0.135
-130.326	112.034	-0.036	0.043
-129.312	800.000	-0.140	0.493
-128.297	15.335	0.249	0.193
-127.283	115.833	-0.201	0.243
-126.268	-73.362	-0.279	0.100
-125.253	-160.512	0.313	-0.016
-124.239	342.418	-0.137	-0.265
-123.224	-72.134	0.330	-0.121
-122.210	800.000	-0.072	0.287
-121.195	-200.000	-0.027	0.298
-120.180	-15.283	-0.146	0.092
-119.166	-26.893	0.077	-0.044
-118.151	-157.935	0.295	-0.017
-117.137	386.940	0.055	-0.112
-116.122	-48.146	-0.103	-0.049
-115.107	125.346	0.067	0.083
-114.093	269.739	0.225	0.389
-113.078	-89.634	-0.189	-0.055
-112.064	800.000	-0.066	0.206
-111.049	113.632	-0.072	-0.086
-110.034	84.646	0.093	0.100
-109.020	15.082	-0.164	0.127
-108.005	-79.532	-0.283	-0.094
-106.991	165.578	-0.130	-0.181
-105.976	701.981	-0.059	-0.153
-104.962	-82.155	0.374	-0.120
-103.947	230.520	0.093	-0.149
-102.932	-45.250	-0.229	-0.112
-101.918	-170.347	-0.190	0.007
-100.903	800.000	-0.024	-0.081
-99.889	186.301	0.084	-0.122
-98.874	380.383	-0.099	-0.199
-97.859	70.692	-0.018	-0.018
-96.845	-200.000	-0.005	0.203
-95.830	-200.000	0.004	-0.493
-94.816	-200.000	-0.006	-0.113
-93.801	-200.000	0.038	-0.175
-92.786	198.720	-0.097	-0.146
-91.772	210.703	0.100	-0.155
-90.757	-15.381	-0.100	0.063
-89.743	32.538	0.118	-0.101
-88.728	81.756	-0.096	-0.103
-87.713	26.501	-0.199	0.164
-86.699	12.289	-0.065	-0.049
-85.684	800.000	-0.099	-0.271
-84.670	32.308	0.133	0.113
-83.655	800.000	-0.036	0.134
-82.640	-18.347	-0.123	0.075
-81.626	-53.251	0.279	0.126
-80.611	-200.000	-0.063	0.311
-79.597	-200.000	0.023	0.107
-78.582	-186.663	0.158	0.002
-77.567	366.093	0.087	0.173
-76.553	-135.460	0.267	-0.031
-75.538	800.000	-0.060	-0.173
-74.524	800.000	-0.077	-0.247
-73.509	-151.598	0.182	0.013
-72.494	-200.000	0.049	-0.361
-71.480	800.000	-0.105	0.311
-70.465	-90.379	0.066	-0.019
-69.451	374.611	-0.079	0.158
-68.436	328.661	0.082	0.154
-67.422	-200.000	-0.018	-0.154
-66.407	-53.788	-0.176	0.079
-65.392	-33.925	0.487	0.263
-64.378	-6.096	-0.162	0.109
-63.363	-200.000	-0.006	0.122
-62.349	48.033	-0.022	-0.020
-61.334	53.588	-1.051	-0.991
-60.319	8.272	0.600	0.443
-59.305	648.380	-0.414	-1.039
-58.290	118.174	0.785	0.951
-57.276	109.071	1.153	1.354
-56.261	-200.000	98.940	598.082
-55.246	601.382	1412.813	3447.610
-54.232	189.750	2606.740	3840.455
-53.217	115.592	2176.151	2613.035
-52.203	43.023	1713.680	1535.074
-51.188	35.677	1527.383	1318.006
-50.173	33.189	1501.181	1278.553
-49.159	51.906	1551.560	1450.584
-48.144	53.649	1568.884	1478.718
-47.130	35.718	1527.747	1318.395
-46.115	32.685	1512.251	1284.339
-45.100	32.458	1509.001	1279.986
-44.086	32.608	1507.039	1279.291
-43.071	32.392	1505.800	1276.721
-42.057	32.442	1503.942	1275.438
-41.042	32.482	1502.250	1274.217
-40.027	32.472	1500.798	1272.870
-39.013	32.335	1499.659	1270.928
-37.998	32.408	1498.206	1270.138
-36.984	32.521	1497.054	1269.874
-35.969	32.505	1495.450	1268.356
-34.954	32.426	1494.722	1267.153
-33.940	32.492	1492.851	1265.964
-32.925	32.511	1491.262	1264.692
-31.911	32.583	1489.969	1264.029
-30.896	32.544	1489.123	1263.000
-29.881	32.506	1487.552	1261.364
-28.867	32.479	1485.796	1259.642
-27.852	32.420	1485.194	1258.688
-26.838	32.542	1483.206	1257.770
-25.823	32.459	1481.763	1255.943
-24.809	32.457	1480.073	1254.444
-23.794	32.434	1478.770	1253.139
-22.779	32.483	1477.941	1252.711
-21.765	32.516	1476.408	1251.584
-20.750	32.462	1475.912	1250.754
-19.736	32.471	1474.412	1249.490
-18.721	32.327	1473.684	1247.866
-17.706	32.369	1472.404	1247.013
-16.692	32.507	1471.016	1246.700
-15.677	32.468	1470.060	1245.583
-14.663	32.369	1468.973	1243.958
-13.648	32.388	1468.117	1243.311
-12.633	32.458	1467.000	1242.780
-11.619	32.430	1465.899	1241.612
-10.604	32.355	1465.346	1240.600
-9.590	32.476	1464.564	1240.688
-8.575	32.367	1463.448	1238.974
-7.560	32.355	1462.844	1238.334
-6.546	32.360	1462.461	1237.993
-5.531	32.317	1461.146	1236.545
-4.517	32.333	1460.249	1235.847
-3.502	32.357	1459.120	1234.999
-2.487	32.422	1457.842	1234.293
-1.473	32.403	1456.441	1232.934
-0.458	32.409	1455.390	1232.032
0.556	30.061	1445.573	1219.926
1.571	26.868	1418.299	1176.138
2.586	23.002	1355.961	1100.327
3.600	21.261	1273.053	1022.776
4.615	19.910	1228.622	979.350
5.629	17.185	1173.266	920.399
6.644	8.431	1087.987	809.260
7.659	1.016	1046.466	742.085
8.673	-0.181	1040.964	732.281
9.688	-0.278	1037.745	729.480
10.702	-0.326	1036.251	728.131
11.717	-0.474	1034.348	726.015
12.731	2.741	1037.143	743.513
13.746	11.793	1050.165	797.044
14.761	18.062	1058.358	833.875
15.775	18.838	1057.819	837.162
16.790	18.544	1057.732	835.585
17.804	18.441	1056.183	833.785
18.819	18.096	1056.045	831.923
19.834	18.213	1054.998	831.595
20.848	18.369	1054.160	831.618
21.863	18.310	1053.641	830.848
22.877	18.246	1053.836	830.617
23.892	18.170	1053.179	829.661
24.907	18.120	1052.455	828.772
25.921	18.264	1051.147	828.368
26.936	18.160	1050.719	827.452
27.950	18.213	1049.427	826.616
28.965	18.190	1048.753	825.904
29.980	18.082	1046.306	823.383
30.994	18.072	1045.032	822.258
32.009	18.265	1043.889	822.217
33.023	18.367	1043.106	822.015
34.038	18.130	1041.829	819.798
35.053	18.043	1041.249	818.853
36.067	18.346	1040.661	819.771
37.082	18.239	1039.651	818.390
38.096	18.345	1039.369	818.604
39.111	18.559	1038.090	818.546
40.126	18.579	1037.130	817.809
41.140	18.510	1035.895	816.437
42.155	18.189	1034.893	814.048
43.169	17.897	1033.506	811.493
44.184	18.033	1032.303	811.125
45.199	18.186	1031.235	810.941
46.213	18.028	1030.079	809.209
47.228	17.960	1029.661	808.488
48.242	17.991	1028.610	807.739
49.257	18.014	1027.767	807.113
50.271	18.227	1026.716	807.220
51.286	18.345	1025.750	806.947
52.301	18.230	1024.846	805.622
53.315	18.283	1023.949	805.096
54.330	18.254	1023.506	804.540
55.344	18.199	1022.181	803.170
56.359	18.254	1021.160	802.555
57.374	18.202	1021.172	802.250
58.388	18.212	1019.485	800.898
59.403	18.067	1018.821	799.626
60.417	18.246	1018.144	799.862
61.432	17.975	1017.385	797.929
62.447	18.063	1016.739	797.764
63.461	18.115	1015.904	797.278
64.476	18.120	1015.132	796.625
65.490	18.272	1013.795	796.213
66.505	18.128	1012.947	794.810
67.520	18.196	1012.002	794.315
68.534	18.145	1011.448	793.572
69.549	18.138	1010.291	792.561
70.563	17.958	1009.017	790.655
71.578	17.747	1008.487	789.196
72.593	17.932	1007.215	788.985
73.607	17.884	1006.186	787.887
74.622	17.762	1005.421	786.658
75.636	17.893	1004.776	786.687
76.651	18.080	1004.121	786.966
77.666	18.007	1003.346	785.954
78.680	17.840	1002.296	784.294
79.695	17.834	1002.068	784.015
80.709	18.000	1001.032	783.901
81.724	18.112	1000.316	783.781
82.739	17.991	999.499	782.517
83.753	17.965	998.311	781.401
84.768	18.073	998.204	781.743
85.782	18.395	997.047	782.237
86.797	18.564	996.180	782.259
87.812	18.363	995.509	780.744
88.826	18.362	994.150	779.606
89.841	18.410	993.281	779.077
90.855	18.521	992.601	778.979
91.870	18.458	991.831	778.017
92.884	18.403	991.170	777.182
93.899	18.318	990.550	776.238
94.914	18.291	989.156	774.957
95.928	18.350	988.733	774.825
96.943	18.452	987.743	774.440
97.957	18.225	986.455	772.336
98.972	18.019	985.148	770.318
99.987	17.830	984.320	768.752
101.001	17.845	983.724	768.286
102.016	18.200	983.124	769.347
103.030	18.304	982.069	768.918
104.045	18.216	980.819	767.475
105.060	18.071	979.590	765.799
106.074	17.878	978.341	763.891
107.089	17.933	977.884	763.712
108.103	18.201	977.808	764.781
109.118	18.399	976.631	764.678
110.133	18.176	975.694	762.884
111.147	18.234	974.674	762.274
112.162	18.077	973.847	760.863
113.176	18.032	972.000	759.152
114.191	17.926	971.710	758.387
115.206	18.088	970.276	757.922
116.220	17.878	968.990	755.919
117.235	17.681	968.610	754.681
118.249	17.869	967.825	754.836
119.264	17.946	966.426	754.019
120.279	17.728	965.946	752.617
121.293	17.788	964.946	752.034
122.308	17.922	964.532	752.236
123.322	17.975	963.710	751.759
124.337	17.973	962.428	750.686
125.352	17.970	960.892	749.406
126.366	17.613	959.224	746.477
127.381	17.343	957.531	743.912
128.395	17.816	957.278	745.720
129.410	18.249	956.971	747.303
130.424	18.541	955.480	747.348
131.439	18.389	954.874	746.143
132.454	18.233	954.165	744.847
133.468	18.308	953.096	744.272
134.483	18.234	951.902	742.952
135.497	18.282	951.343	742.658
136.512	18.577	950.327	743.077
137.527	18.432	950.138	742.235
138.541	18.587	949.013	741.964
139.556	18.514	948.484	741.169
140.570	18.523	947.418	740.307
141.585	18.316	946.876	738.927
142.600	18.485	945.807	738.755
143.614	18.324	945.044	737.399
144.629	18.541	944.341	737.719
145.643	18.712	943.207	737.501
146.658	18.585	942.377	736.242
147.673	18.537	941.211	735.060
148.687	18.483	940.050	733.858
149.702	18.384	939.301	732.787
150.716	18.412	937.850	731.708
151.731	18.334	937.461	731.009
152.746	18.314	937.094	730.572
153.760	18.487	936.410	730.710
154.775	18.716	935.408	730.841
155.789	18.755	934.416	730.164
156.804	18.721	933.032	728.875
157.819	18.668	932.358	728.060
158.833	18.490	931.684	726.715
159.848	18.752	931.110	727.314
160.862	18.603	930.085	725.815
161.877	18.533	929.066	724.660
162.892	18.487	928.251	723.766
163.906	18.781	927.398	724.277
164.921	18.712	926.718	723.393
165.935	18.720	925.338	722.285
166.950	18.732	924.540	721.650
167.964	18.774	923.242	720.748
168.979	18.729	922.138	719.633
169.994	18.580	921.238	718.242
171.008	18.438	920.874	717.302
172.023	18.652	919.638	717.170
173.037	18.735	918.634	716.672
174.052	18.539	917.596	714.981
175.067	18.292	916.991	713.415
176.081	18.534	916.189	713.735
177.096	18.605	915.230	713.220
178.110	18.591	914.441	712.484
179.125	18.323	913.493	710.572
180.140	18.181	912.361	709.037
181.154	18.208	911.398	708.341
182.169	18.294	910.979	708.309
183.183	18.404	910.724	708.503
184.198	18.690	910.250	709.251
185.213	18.727	909.308	708.610
186.227	18.580	908.843	707.576
187.242	18.586	908.326	707.136
188.256	18.746	907.322	706.952
189.271	18.668	906.486	705.915
190.286	18.798	905.499	705.620
191.300	18.496	905.126	704.026
192.315	18.275	903.648	701.909
193.329	17.757	902.346	698.711
194.344	17.391	901.466	696.471
195.359	17.782	901.145	697.761
196.373	18.500	901.848	701.182
197.388	18.659	901.315	701.356
198.402	18.523	900.507	700.108
199.417	18.495	899.707	699.310
200.432	18.546	899.239	699.092
201.446	18.217	898.482	697.104
202.461	17.883	897.798	695.150
203.475	18.163	896.781	695.440
204.490	17.653	895.648	692.429
205.504	16.618	894.136	686.997
206.519	17.163	893.479	688.642
207.534	17.996	894.192	692.511
208.548	18.101	893.500	692.338
209.563	18.581	892.945	693.790
210.577	18.514	892.142	692.832
211.592	18.280	891.256	691.141
212.607	18.631	891.470	692.659
213.621	18.681	890.446	692.006
214.636	18.668	889.486	691.144
215.650	18.710	888.969	690.851
216.665	18.666	888.742	690.439
217.680	18.806	887.862	690.253
218.694	18.789	887.553	689.884
219.709	18.436	886.496	687.588
220.723	18.188	885.252	685.569
221.738	18.351	885.258	686.166
222.753	18.558	884.587	686.411
223.767	18.606	883.450	685.660
224.782	18.564	883.046	685.119
225.796	18.720	882.113	684.957
226.811	18.904	881.497	685.153
227.826	18.405	880.420	682.268
228.840	17.825	878.702	678.569
229.855	17.826	878.390	678.271
230.869	18.061	877.974	678.826
231.884	17.768	876.685	676.608
232.899	17.765	876.439	676.343
233.913	18.467	876.716	679.281
234.928	18.670	875.977	679.452
235.942	18.626	875.352	678.732
236.957	18.649	874.747	678.297
237.972	18.433	873.415	676.353
238.986	18.300	872.928	675.388
240.001	18.469	871.814	675.134
241.015	18.505	871.656	675.093
242.030	18.438	870.932	674.210
243.045	18.380	870.691	673.734
244.059	18.765	869.885	674.562
245.074	18.891	869.155	674.431
246.088	18.772	868.628	673.497
247.103	18.372	867.470	670.973
248.117	18.352	866.771	670.292
249.132	18.808	866.681	671.948
250.147	19.164	866.141	672.861
251.161	19.279	865.517	672.768
252.176	19.218	865.248	672.260
253.190	19.239	864.137	671.421
254.205	19.329	863.802	671.450
255.220	19.460	863.373	671.567
256.234	19.576	862.523	671.299
257.249	19.449	861.922	670.276
258.263	19.252	861.604	669.205
259.278	19.206	860.760	668.313
260.293	19.404	860.008	668.439
261.307	19.483	859.836	668.551
262.322	19.219	858.883	666.726
263.336	19.133	857.921	665.592
264.351	18.633	856.561	662.548
265.366	17.596	854.860	657.174
266.380	17.331	853.485	655.038
267.395	18.130	854.414	658.772
268.409	18.840	854.598	661.592
269.424	19.025	853.585	661.459
270.439	19.159	853.228	661.638
271.453	19.149	852.931	661.310
272.468	19.433	851.462	661.203
273.482	19.369	851.626	661.028
274.497	19.467	851.101	660.936
275.512	19.341	849.738	659.338
276.526	18.820	848.360	656.219
277.541	18.974	847.823	656.335
278.555	19.316	847.629	657.431
279.570	18.974	846.832	655.451
280.585	18.733	846.184	653.974
281.599	18.921	845.537	654.131
282.614	19.120	845.257	654.613
283.628	18.847	844.016	652.559
284.643	18.580	842.955	650.669
285.657	18.858	843.137	651.805
286.672	18.710	842.414	650.626
287.687	18.339	841.427	648.403
288.701	18.653	841.342	649.468
289.716	18.939	840.814	650.084
290.730	18.722	839.895	648.498
291.745	18.676	838.919	647.513
292.760	18.472	837.792	645.819
293.774	18.405	837.678	645.419
294.789	19.047	838.492	648.411
295.803	19.724	837.887	650.434
296.818	19.771	837.849	650.521
297.833	19.854	837.170	650.248
298.847	19.552	836.040	648.180
299.862	19.390	834.752	646.516
300.876	19.599	834.498	647.046
301.891	19.785	834.063	647.347
302.906	19.705	833.390	646.471
303.920	19.287	832.178	643.911
304.935	19.259	831.144	642.951
305.949	19.581	831.233	644.164
306.964	19.753	830.608	644.262
307.979	19.555	829.791	642.835
308.993	19.610	829.662	642.884
310.008	19.862	829.154	643.371
311.022	19.906	828.765	643.175
312.037	19.762	828.231	642.167
313.052	19.607	827.953	641.322
314.066	19.582	826.512	640.056
315.081	19.002	825.468	637.044
316.095	18.340	824.330	633.660
317.110	18.716	824.552	635.163
318.125	19.573	824.907	638.552
319.139	19.229	823.620	636.231
320.154	18.186	822.189	631.223
321.168	18.110	821.093	630.042
322.183	18.481	821.373	631.570
323.197	19.160	821.487	634.104
324.212	19.489	820.825	634.746
325.227	19.558	820.823	634.941
326.241	19.735	820.285	635.121
327.256	19.728	819.458	634.398
328.270	19.681	818.966	633.789
329.285	19.508	818.381	632.647
330.300	19.364	817.658	631.503
331.314	19.204	817.078	630.413
332.329	19.262	816.630	630.226
333.343	19.531	815.755	630.476
334.358	19.731	815.550	630.993
335.373	19.795	814.865	630.639
336.387	19.783	814.395	630.177
337.402	19.908	813.800	630.116
338.416	20.266	813.146	630.854
339.431	20.130	812.543	629.839
340.446	20.083	811.892	629.108
341.460	20.210	811.473	629.186
342.475	20.271	811.051	629.025
343.489	19.920	810.068	626.938
344.504	19.908	809.800	626.630
345.519	20.220	809.281	627.302
346.533	20.228	809.007	627.062
347.548	20.336	809.076	627.450
348.562	20.405	808.690	627.346
349.577	20.458	807.964	626.918
350.592	20.426	807.147	626.112
351.606	20.109	807.265	625.006
352.621	20.420	806.387	625.392
353.635	20.261	805.774	624.289
354.650	20.290	805.018	623.752
355.665	19.978	804.533	622.201
356.679	18.969	802.734	617.134
357.694	19.063	802.051	616.891
358.708	19.627	801.951	618.782
359.723	19.778	801.307	618.768
360.738	19.689	801.125	618.258
361.752	20.056	801.152	619.535
362.767	20.194	800.585	619.533
363.781	20.313	800.375	619.744
364.796	20.605	800.089	620.509
365.810	20.584	799.818	620.168
366.825	20.769	799.085	620.202
367.840	20.755	798.997	620.031
368.854	20.594	798.245	618.818
369.869	20.316	797.276	617.024
370.883	20.075	796.811	615.755
371.898	20.252	796.173	615.835
372.913	20.102	795.513	614.737
373.927	20.014	794.890	613.891
374.942	20.194	794.305	614.022
375.956	20.371	793.855	614.244
376.971	20.443	793.141	613.894
377.986	20.446	792.878	613.646
379.000	20.630	792.465	613.922
380.015	20.640	791.905	613.470
381.029	20.479	791.275	612.359
382.044	20.472	790.637	611.786
383.059	20.701	790.057	612.090
384.073	20.720	789.829	611.927
385.088	20.718	789.262	611.425
386.102	20.797	788.796	611.287
387.117	20.598	788.221	610.089
388.132	20.581	787.561	609.465
389.146	20.447	786.972	608.487
390.161	20.029	785.942	606.174
391.175	19.997	785.633	605.771
392.190	20.330	785.587	606.846
393.205	20.561	784.886	607.058
394.219	19.567	783.682	602.604
395.234	18.257	781.959	596.660
396.248	17.738	780.818	593.930
397.263	18.673	781.574	597.711
398.278	20.242	782.438	603.785
399.292	20.640	782.393	605.081
400.307	20.318	781.881	603.513
401.321	20.116	781.949	602.811
402.336	20.371	780.972	602.890
403.350	20.674	780.785	603.741
404.365	20.735	780.935	604.018
405.380	20.989	780.464	604.478
406.394	21.275	780.278	605.274
407.409	21.438	779.685	605.325
408.423	21.269	779.120	604.246
409.438	21.195	778.760	603.659
410.453	21.174	778.611	603.417
411.467	21.359	777.870	603.428
412.482	21.267	777.635	602.876
413.496	21.400	776.578	602.460
414.511	21.360	776.421	602.149
415.526	21.307	776.077	601.647
416.540	21.376	775.823	601.631
417.555	21.352	775.076	600.919
418.569	21.086	774.174	599.251
419.584	20.975	773.924	598.623
420.599	21.142	773.116	598.519
421.613	157.156	1359.911	1793.785
422.628	135.594	1445.419	1793.887
