DTS Sentinel unit serial number:	SN413079Multiplexer serial number:	ORYXHardware model number:	OX4-SRSoftware version number:	ORYX F/W v4.00 Oryx Data Collector v3.7.2.0data status	okinstallation	princeton_trtdifferential loss correction	single-endedforward channel	channel 3reverse channel	N/Adate	2019/09/11time	03:06:11forward acquisition time	60.00reverse acquisition time	0.00gamma	496.2192k internal	0.2331k external	0.2331temperature offset calibration	0.9911default loss term (dB/km)	0.3790temperature slope calibration	1.0000multiplexer offset coefficient	1.0000multiplexer slope coefficient	1.0000fibre end	0.00T internal ref (°C)	29.31T ext. ref 1 (°C)	-0.31T ext. ref 2 (°C)	23.84length (m)	temperature (°C)	Stokes	anti-Stokes-747.200	-147.565	0.234	-0.020
-746.185	-161.743	-0.265	0.014
-745.171	14.051	0.121	0.094
-744.156	639.004	-0.045	0.115
-743.142	-200.000	-0.032	0.206
-742.127	18.966	-0.049	-0.039
-741.112	-169.435	-0.109	0.004
-740.098	-18.687	-0.249	0.156
-739.083	176.132	0.103	0.150
-738.069	103.217	-0.099	0.117
-737.054	77.399	0.091	0.097
-736.039	-76.935	-0.428	0.150
-735.025	-112.354	0.336	-0.068
-734.010	-2.960	-0.093	0.066
-732.996	-35.422	0.027	-0.015
-731.981	4.170	-0.221	-0.163
-730.966	-6.891	-0.031	0.021
-729.952	-200.000	-0.039	-0.234
-728.937	174.637	-0.170	0.248
-727.923	-103.886	-0.273	0.064
-726.908	800.000	-0.053	0.164
-725.894	-2.658	-0.229	0.161
-724.879	-65.019	-0.077	-0.031
-723.864	-186.428	-0.105	-0.002
-722.850	-200.000	0.011	-0.175
-721.835	-12.699	-0.140	0.091
-720.821	-128.067	-0.167	-0.024
-719.806	-131.608	0.202	0.027
-718.791	-14.421	-0.087	0.057
-717.777	41.087	-0.183	0.166
-716.762	94.483	-0.268	0.306
-715.748	141.425	-0.201	-0.268
-714.733	143.688	-0.044	-0.059
-713.718	32.891	-0.208	-0.181
-712.704	179.521	0.092	0.135
-711.689	-57.424	-0.187	-0.082
-710.675	-200.000	-0.006	0.092
-709.660	244.633	0.149	0.251
-708.645	-104.958	0.102	0.023
-707.631	-61.260	-0.186	-0.079
-706.616	-73.718	-0.223	0.082
-705.602	-200.000	0.039	-0.335
-704.587	-152.706	-0.112	-0.008
-703.572	-200.000	-0.008	-0.179
-702.558	-10.263	0.369	0.246
-701.543	201.548	0.139	0.215
-700.529	411.016	0.120	-0.257
-699.514	-130.570	-0.297	-0.040
-698.499	-200.000	0.001	-0.106
-697.485	-166.661	-0.165	-0.007
-696.470	-91.717	0.172	-0.049
-695.456	-200.000	0.015	0.281
-694.441	-5.650	-0.221	0.152
-693.426	208.590	0.201	-0.315
-692.412	-69.243	0.318	0.123
-691.397	-200.000	0.015	-0.173
-690.383	18.642	-0.212	0.171
-689.368	-101.470	-0.266	-0.065
-688.354	800.000	0.047	-0.144
-687.339	-109.640	0.166	0.035
-686.324	-121.538	0.201	-0.033
-685.310	-200.000	0.047	0.334
-684.295	240.707	0.170	-0.284
-683.281	278.510	-0.036	-0.064
-682.266	-87.492	0.089	-0.027
-681.251	-17.008	0.079	-0.050
-680.237	67.470	-0.223	0.229
-679.222	-200.000	-0.041	-0.298
-678.208	800.000	-0.086	-0.265
-677.193	800.000	0.059	-0.195
-676.178	-200.000	0.011	0.195
-675.164	-66.002	0.284	-0.114
-674.149	-10.596	0.423	0.281
-673.135	-27.989	0.133	0.077
-672.120	-93.430	-0.237	-0.066
-671.105	6.185	0.229	-0.170
-670.091	800.000	-0.083	-0.245
-669.076	-8.887	-0.186	0.125
-668.062	-69.535	-0.122	0.047
-667.047	-200.000	-0.033	-0.156
-666.032	-2.424	-0.305	0.214
-665.018	-102.759	-0.067	-0.016
-664.003	35.607	-0.222	-0.196
-662.989	-200.000	0.047	-0.264
-661.974	-200.000	-0.052	0.239
-660.959	279.046	0.160	-0.287
-659.945	208.278	0.148	0.233
-658.930	608.664	-0.151	-0.379
-657.916	-200.000	-0.011	-0.159
-656.901	-35.925	0.046	-0.025
-655.886	-75.306	0.091	0.033
-654.872	267.911	0.080	-0.141
-653.857	800.000	0.049	-0.182
-652.843	159.110	-0.124	-0.173
-651.828	800.000	0.079	0.231
-650.814	22.995	0.079	-0.065
-649.799	145.666	-0.021	-0.028
-648.784	-69.002	0.093	0.036
-647.770	557.543	-0.074	0.180
-646.755	800.000	-0.041	-0.180
-645.741	800.000	0.018	-0.059
-644.726	-200.000	0.022	-0.268
-643.711	-200.000	0.029	-0.528
-642.697	-34.314	-0.416	-0.229
-641.682	-200.000	0.104	0.000
-640.668	-92.691	0.231	-0.065
-639.653	159.938	-0.232	-0.323
-638.638	-118.855	-0.080	0.014
-637.624	211.722	0.048	-0.076
-636.609	166.307	-0.097	-0.138
-635.595	-100.126	-0.037	0.009
-634.580	-200.000	-0.016	-0.183
-633.565	-33.282	-0.088	0.049
-632.551	800.000	-0.068	0.195
-631.536	-182.838	-0.197	-0.004
-630.522	-99.520	-0.118	0.030
-629.507	-131.228	0.165	0.022
-628.492	9.482	0.109	-0.082
-627.478	7.657	0.201	0.151
-626.463	-123.343	-0.264	0.042
-625.449	389.516	0.086	0.178
-624.434	60.135	0.218	0.216
-623.419	552.661	-0.095	-0.228
-622.405	30.667	0.058	0.050
-621.390	417.092	0.064	-0.137
-620.376	-62.213	-0.241	0.101
-619.361	137.789	-0.038	-0.050
-618.346	775.828	-0.094	-0.258
-617.332	-14.961	-0.234	-0.150
-616.317	-19.211	0.092	-0.057
-615.303	-147.646	0.104	-0.009
-614.288	-78.714	-0.101	0.035
-613.273	-75.691	-0.162	0.058
-612.259	8.546	-0.203	-0.153
-611.244	-84.650	0.085	0.027
-610.230	-200.000	-0.057	-0.275
-609.215	-200.000	-0.023	-0.473
-608.201	-30.005	0.121	0.069
-607.186	-39.537	0.421	-0.220
-606.171	269.813	-0.087	-0.153
-605.157	84.235	-0.193	-0.211
-604.142	-146.611	0.250	0.022
-603.128	-164.876	-0.115	-0.005
-602.113	-140.538	0.219	-0.023
-601.098	-200.000	0.001	0.024
-600.084	98.923	-0.118	-0.136
-599.069	-126.789	0.058	0.009
-598.055	-200.000	-0.037	0.213
-597.040	297.483	0.120	0.220
-596.025	-94.205	-0.249	-0.068
-595.011	360.181	0.217	-0.435
-593.996	-200.000	-0.060	-0.335
-592.982	-200.000	0.038	0.236
-591.967	121.020	0.039	0.048
-590.952	-117.706	0.178	0.032
-589.938	245.870	-0.065	0.109
-588.923	-107.861	-0.294	0.064
-587.909	-200.000	-0.013	0.346
-586.894	-200.000	0.004	0.187
-585.879	30.013	0.113	0.096
-584.865	-200.000	0.000	-0.080
-583.850	394.578	0.093	0.193
-582.836	-117.208	-0.302	-0.055
-581.821	-18.831	0.130	-0.081
-580.806	-51.536	-0.163	-0.076
-579.792	-200.000	-0.031	0.142
-578.777	800.000	0.066	-0.220
-577.763	698.611	-0.034	0.089
-576.748	49.879	0.135	0.127
-575.733	413.337	-0.030	-0.064
-574.719	-57.350	0.145	-0.064
-573.704	72.006	-0.201	-0.209
-572.690	3.925	-0.228	0.166
-571.675	-200.000	0.049	0.434
-570.661	-43.929	-0.261	0.131
-569.646	-200.000	0.015	0.382
-568.631	34.598	0.080	-0.070
-567.617	-31.807	-0.221	-0.124
-566.602	60.620	0.243	-0.241
-565.588	548.774	-0.017	-0.042
-564.573	-37.164	-0.209	-0.112
-563.558	-200.000	-0.009	0.267
-562.544	-200.000	0.020	0.254
-561.529	-200.000	0.020	0.346
-560.515	160.079	-0.309	0.431
-559.500	92.060	-0.131	-0.147
-558.485	-200.000	0.066	-0.395
-557.471	565.370	-0.059	0.143
-556.456	-200.000	-0.019	-0.191
-555.442	15.065	0.131	0.103
-554.427	-42.538	0.471	-0.240
-553.412	800.000	-0.094	-0.296
-552.398	-70.924	0.034	0.013
-551.383	107.639	0.091	0.108
-550.369	554.046	-0.110	0.265
-549.354	-60.436	0.254	0.108
-548.339	-38.644	0.320	0.169
-547.325	-106.788	-0.543	-0.120
-546.310	-34.394	0.224	-0.123
-545.296	12.259	-0.360	-0.277
-544.281	-91.253	0.131	-0.037
-543.266	-47.450	-0.246	-0.120
-542.252	205.922	-0.226	0.350
-541.237	-133.642	0.186	0.023
-540.223	223.637	0.103	0.165
-539.208	-85.441	0.079	0.025
-538.193	-91.861	-0.419	0.119
-537.179	35.025	0.056	-0.049
-536.164	-200.000	0.031	-0.250
-535.150	-116.137	-0.420	-0.078
-534.135	-200.000	0.025	-0.161
-533.121	2.144	0.105	0.076
-532.106	248.375	0.019	0.032
-531.091	330.084	0.183	0.351
-530.077	63.352	0.196	0.196
-529.062	628.332	-0.079	0.200
-528.048	-66.756	-0.172	-0.068
-527.033	53.326	-0.219	-0.210
-526.018	-57.794	0.337	0.147
-525.004	504.248	-0.087	-0.200
-523.989	-200.000	-0.014	0.233
-522.975	-122.462	-0.163	-0.026
-521.960	-33.498	0.295	0.163
-520.945	-76.691	0.163	-0.057
-519.931	232.341	-0.145	0.238
-518.916	800.000	-0.013	0.053
-517.902	149.951	0.201	0.272
-516.887	-92.029	0.172	0.049
-515.872	-159.431	0.400	0.022
-514.858	116.539	-0.198	-0.242
-513.843	56.235	-0.151	-0.147
-512.829	-7.645	0.079	0.053
-511.814	-134.841	-0.404	0.049
-510.799	38.249	-0.056	0.049
-509.785	800.000	-0.006	0.026
-508.770	406.106	-0.040	-0.085
-507.756	175.996	-0.285	0.412
-506.741	261.046	0.148	-0.255
-505.726	266.044	-0.107	0.186
-504.712	489.223	0.217	-0.494
-503.697	-200.000	0.021	-0.161
-502.683	-109.509	-0.119	-0.025
-501.668	-32.207	0.112	-0.062
-500.653	-93.909	-0.426	0.117
-499.639	-200.000	-0.005	0.230
-498.624	-93.065	0.356	-0.099
-497.610	146.514	0.220	0.295
-496.595	523.804	0.039	0.091
-495.581	-148.463	-0.481	-0.039
-494.566	285.612	0.050	-0.089
-493.551	357.286	0.108	0.215
-492.537	-85.115	0.131	0.041
-491.522	239.187	0.285	-0.472
-490.508	-13.781	0.204	0.132
-489.493	214.600	0.189	0.298
-488.478	-200.000	0.009	0.203
-487.464	89.927	0.104	0.115
-486.449	31.391	0.121	-0.104
-485.435	-130.354	0.131	0.018
-484.420	-80.371	-0.251	-0.084
-483.405	-126.969	-0.293	0.043
-482.391	-40.937	0.164	-0.085
-481.376	-200.000	0.024	-0.223
-480.362	165.135	0.194	-0.272
-479.347	-103.130	0.106	0.025
-478.332	-90.090	0.129	0.037
-477.318	-200.000	-0.036	-0.423
-476.303	145.264	0.113	0.150
-475.289	-78.710	0.127	0.043
-474.274	-200.000	-0.276	0.001
-473.259	-200.000	-0.045	-0.354
-472.245	138.769	0.047	0.061
-471.230	-149.848	-0.078	0.006
-470.216	80.261	-0.125	-0.134
-469.201	800.000	0.079	0.283
-468.186	-200.000	0.006	-0.226
-467.172	35.233	-0.145	0.127
-466.157	-33.097	-0.223	0.123
-465.143	-200.000	0.001	0.127
-464.128	10.018	-0.185	0.140
-463.113	-30.328	-0.166	-0.094
-462.099	182.868	0.159	-0.234
-461.084	-19.322	-0.260	-0.160
-460.070	318.776	0.039	-0.073
-459.055	70.158	-0.270	-0.277
-458.040	-200.000	0.010	-0.128
-457.026	20.199	-0.145	0.117
-456.011	-26.670	0.188	-0.109
-454.997	-48.359	-0.071	0.034
-453.982	-110.255	0.279	-0.058
-452.968	-164.707	-0.115	-0.005
-451.953	653.934	0.035	0.090
-450.938	-69.259	-0.200	0.077
-449.924	408.816	0.145	-0.305
-448.909	-102.488	0.035	-0.008
-447.895	-150.761	-0.083	-0.006
-446.880	-22.579	-0.151	0.091
-445.865	61.438	0.329	0.326
-444.851	393.718	-0.327	-0.678
-443.836	80.580	-0.064	0.068
-442.822	268.999	0.069	0.121
-441.807	-200.000	0.076	0.389
-440.792	-200.000	0.034	0.162
-439.778	-200.000	0.030	-0.179
-438.763	544.850	-0.018	0.043
-437.749	99.282	-0.219	0.252
-436.734	612.725	0.156	-0.388
-435.719	101.789	0.061	-0.071
-434.705	-70.789	0.320	-0.120
-433.690	-200.000	-0.042	0.320
-432.676	564.611	-0.069	0.167
-431.661	47.385	0.315	-0.292
-430.646	-54.564	0.194	-0.087
-429.632	80.437	0.217	-0.233
-428.617	206.226	0.148	-0.228
-427.603	-200.000	-0.034	0.280
-426.588	800.000	0.127	0.452
-425.573	-6.108	-0.278	-0.188
-424.559	800.000	0.051	-0.199
-423.544	-139.576	0.123	-0.013
-422.530	-32.507	-0.385	0.213
-421.515	17.283	0.110	-0.087
-420.500	7.643	-0.095	0.071
-419.486	2.207	0.220	-0.158
-418.471	800.000	-0.085	-0.300
-417.457	49.884	-0.254	0.238
-416.442	-131.920	-0.316	0.041
-415.428	800.000	0.058	0.236
-414.413	333.012	-0.101	0.194
-413.398	-44.491	-0.057	-0.029
-412.384	641.844	0.183	0.464
-411.369	242.298	0.214	0.355
-410.355	551.567	-0.128	0.305
-409.340	48.466	0.187	-0.174
-408.325	204.288	-0.126	0.194
-407.311	710.484	-0.080	-0.211
-406.296	-200.000	-0.012	0.133
-405.282	164.436	0.187	0.261
-404.267	800.000	-0.084	0.329
-403.252	25.497	-0.410	-0.339
-402.238	166.305	-0.262	0.369
-401.223	800.000	0.036	-0.155
-400.209	-155.749	-0.159	0.010
-399.194	-200.000	0.021	0.184
-398.179	-70.034	0.203	-0.077
-397.165	-102.570	-0.072	-0.017
-396.150	-93.961	0.157	0.043
-395.136	-94.025	0.307	-0.084
-394.121	-19.652	0.059	-0.036
-393.106	-200.000	0.032	0.160
-392.092	148.564	0.285	-0.383
-391.077	373.232	-0.097	0.196
-390.063	-200.000	-0.018	-0.116
-389.048	-122.426	0.175	0.028
-388.033	-31.242	-0.141	-0.079
-387.019	45.269	-0.048	-0.044
-386.004	-200.000	-0.013	-0.088
-384.990	-73.346	-0.177	-0.064
-383.975	-5.183	-0.118	0.081
-382.960	251.675	0.046	0.078
-381.946	800.000	0.066	0.212
-380.931	-200.000	-0.021	0.189
-379.917	-200.000	-0.121	-0.001
-378.902	-123.997	-0.234	-0.037
-377.888	-169.415	0.188	0.007
-376.873	-81.503	-0.195	0.064
-375.858	-200.000	-0.010	-0.127
-374.844	-102.435	0.464	0.110
-373.829	-29.691	-0.203	-0.115
-372.815	83.055	0.220	-0.237
-371.800	642.072	0.083	-0.210
-370.785	-70.755	0.092	0.034
-369.771	-83.946	0.281	-0.089
-368.756	-200.000	-0.001	-0.567
-367.742	-22.140	-0.199	0.120
-366.727	6.324	0.389	0.286
-365.712	-200.000	-0.053	0.497
-364.698	-200.000	-0.034	-0.315
-363.683	-156.811	0.175	0.011
-362.669	295.842	-0.072	-0.131
-361.654	-200.000	0.061	0.266
-360.639	-155.524	-0.104	0.007
-359.625	-123.323	0.155	-0.025
-358.610	37.711	-0.171	0.150
-357.596	289.915	-0.151	0.272
-356.581	62.630	-0.171	-0.170
-355.566	-200.000	-0.046	-0.326
-354.552	-64.996	-0.299	-0.120
-353.537	-9.692	0.195	0.129
-352.523	800.000	-0.014	0.045
-351.508	-86.574	0.307	0.093
-350.493	58.650	-0.026	-0.025
-349.479	-151.514	0.226	0.017
-348.464	162.838	-0.120	-0.167
-347.450	1.917	-0.142	0.102
-346.435	100.546	0.153	-0.176
-345.420	6.074	-0.040	-0.029
-344.406	-116.493	-0.084	-0.015
-343.391	-200.000	0.031	-0.309
-342.377	-37.273	-0.162	0.086
-341.362	800.000	0.003	-0.008
-340.348	-84.623	0.105	0.033
-339.333	-171.916	0.266	-0.009
-338.318	800.000	0.077	0.228
-337.304	-200.000	-0.045	0.394
-336.289	-27.077	0.180	0.104
-335.275	-62.753	-0.249	0.102
-334.260	-143.821	-0.114	0.011
-333.245	-23.953	0.148	0.087
-332.231	-200.000	-0.065	0.285
-331.216	800.000	0.055	-0.183
-330.202	800.000	-0.062	0.198
-329.187	-48.756	0.204	0.097
-328.172	28.250	-0.219	-0.183
-327.158	-200.000	-0.040	-0.192
-326.143	466.105	0.065	-0.144
-325.129	-16.405	0.049	-0.031
-324.114	-156.125	0.052	0.003
-323.099	144.616	-0.245	0.324
-322.085	337.009	-0.108	0.208
-321.070	73.088	-0.202	-0.209
-320.056	800.000	0.063	-0.188
-319.041	-108.018	0.053	0.011
-318.026	643.822	-0.049	0.124
-317.012	43.499	-0.011	-0.010
-315.997	271.785	-0.126	0.220
-314.983	800.000	-0.037	-0.149
-313.968	-55.325	-0.047	-0.021
-312.953	-55.434	0.270	-0.120
-311.939	-168.568	-0.304	-0.011
-310.924	800.000	-0.090	0.263
-309.910	217.919	-0.121	0.191
-308.895	-112.967	-0.404	0.079
-307.880	325.826	0.078	0.148
-306.866	54.544	0.242	0.231
-305.851	-47.957	-0.271	-0.130
-304.837	45.000	-0.120	0.109
-303.822	-45.003	-0.218	-0.107
-302.807	38.726	-0.178	-0.157
-301.793	-143.341	0.257	-0.024
-300.778	625.524	0.041	-0.102
-299.764	-90.247	0.110	0.032
-298.749	68.086	0.036	0.036
-297.735	-68.818	0.247	0.094
-296.720	-173.779	0.480	0.014
-295.705	149.260	0.057	0.077
-294.691	800.000	-0.009	-0.034
-293.676	207.556	0.167	0.258
-292.662	451.217	0.104	0.227
-291.647	-200.000	0.011	0.072
-290.632	-148.067	-0.173	-0.014
-289.618	-180.930	0.180	-0.004
-288.603	94.930	-0.093	0.104
-287.589	-66.912	0.340	0.133
-286.574	629.986	0.042	-0.106
-285.559	800.000	-0.026	0.085
-284.545	800.000	0.037	-0.109
-283.530	206.938	0.204	-0.314
-282.516	-33.282	-0.192	-0.105
-281.501	31.176	0.140	-0.119
-280.486	-3.809	0.207	-0.142
-279.472	237.632	0.062	-0.102
-278.457	81.061	-0.096	0.102
-277.443	-72.174	0.368	0.135
-276.428	-168.603	-0.118	-0.004
-275.413	-173.951	0.546	-0.016
-274.399	-119.654	-0.251	-0.043
-273.384	-200.000	-0.011	0.130
-272.370	800.000	-0.064	-0.216
-271.355	-200.000	0.028	0.142
-270.340	265.462	0.088	0.151
-269.326	800.000	-0.096	0.279
-268.311	486.159	0.085	-0.191
-267.297	-157.121	0.221	0.013
-266.282	800.000	0.056	0.172
-265.267	-147.782	0.256	0.021
-264.253	609.503	0.088	-0.217
-263.238	800.000	0.116	0.444
-262.224	38.936	0.204	-0.180
-261.209	-130.879	-0.381	0.050
-260.195	-66.119	0.174	-0.068
-259.180	252.771	0.073	0.123
-258.165	-200.000	0.065	0.310
-257.151	-69.597	0.254	-0.096
-256.136	285.350	-0.090	-0.160
-255.122	-8.317	-0.082	-0.054
-254.107	155.659	0.120	-0.163
-253.092	102.821	-0.238	-0.274
-252.078	-200.000	0.009	-0.062
-251.063	115.552	-0.324	0.391
-250.049	-50.310	0.258	-0.120
-249.034	3.479	0.243	0.175
-248.019	-45.011	-0.204	-0.100
-247.005	-73.858	-0.097	0.035
-245.990	133.549	0.114	0.146
-244.976	459.483	-0.121	0.265
-243.961	86.092	-0.004	-0.004
-242.946	-124.211	0.194	-0.030
-241.932	222.743	0.115	0.183
-240.917	760.199	0.095	0.254
-239.903	-200.000	-0.066	-0.397
-238.888	-139.084	0.056	-0.006
-237.873	800.000	-0.070	-0.294
-236.859	46.723	0.134	-0.123
-235.844	3.510	-0.438	-0.315
-234.830	616.894	-0.122	-0.302
-233.815	16.637	-0.197	-0.154
-232.800	-115.229	-0.316	0.059
-231.786	-200.000	-0.015	0.073
-230.771	-200.000	-0.002	0.384
-229.757	250.587	-0.156	0.261
-228.742	-200.000	-0.081	-0.581
-227.727	151.817	0.145	-0.196
-226.713	-67.610	0.085	-0.033
-225.698	-88.356	-0.247	-0.073
-224.684	11.377	-0.162	0.123
-223.669	571.481	0.060	-0.144
-222.655	-123.343	-0.129	0.020
-221.640	53.633	-0.193	-0.183
-220.625	33.725	0.103	0.089
-219.611	-64.267	-0.051	0.020
-218.596	-153.342	0.098	-0.007
-217.582	800.000	-0.075	-0.206
-216.567	432.356	0.104	0.222
-215.552	-185.487	0.129	0.002
-214.538	19.680	0.323	-0.257
-213.523	-200.000	0.037	-0.175
-212.509	188.166	-0.170	-0.251
-211.494	104.005	-0.133	-0.154
-210.479	-91.821	0.057	0.016
-209.465	-200.000	0.030	0.323
-208.450	-147.649	-0.427	-0.035
-207.436	-151.621	-0.126	-0.009
-206.421	-132.877	-0.101	-0.013
-205.406	800.000	0.098	0.268
-204.392	-50.488	-0.377	0.175
-203.377	-56.902	-0.251	-0.109
-202.363	-200.000	-0.036	0.261
-201.348	-57.307	-0.027	-0.012
-200.333	59.986	0.143	-0.140
-199.319	55.373	-0.126	0.120
-198.304	200.074	-0.106	0.160
-197.290	-200.000	-0.033	0.158
-196.275	4.577	-0.126	-0.091
-195.260	-132.158	0.305	-0.039
-194.246	-151.388	0.296	-0.022
-193.231	800.000	0.093	0.327
-192.217	-136.562	-0.368	-0.042
-191.202	-190.803	0.215	0.002
-190.187	74.176	0.160	0.166
-189.173	62.551	0.252	-0.248
-188.158	-200.000	-0.019	-0.304
-187.144	23.967	0.199	0.161
-186.129	81.514	-0.285	-0.303
-185.114	-52.879	0.212	-0.096
-184.100	102.584	-0.021	-0.024
-183.085	-28.391	-0.099	-0.056
-182.071	222.359	0.235	-0.373
-181.056	-123.875	-0.129	-0.020
-180.042	800.000	0.022	0.060
-179.027	800.000	0.041	0.158
-178.012	-69.592	-0.447	-0.168
-176.998	-25.630	-0.130	-0.076
-175.983	370.565	0.043	0.086
-174.969	-111.884	-0.132	0.026
-173.954	-179.088	-0.187	0.004
-172.939	-158.893	0.378	-0.021
-171.925	1.731	0.138	0.098
-170.910	-91.784	0.084	0.024
-169.896	-200.000	0.015	-0.183
-168.881	9.292	-0.219	0.163
-167.866	331.167	-0.119	0.226
-166.852	-118.347	0.081	-0.014
-165.837	800.000	0.025	0.097
-164.823	-67.484	0.110	-0.043
-163.808	586.567	0.060	-0.146
-162.793	800.000	-0.064	-0.176
-161.779	-26.917	0.177	-0.101
-160.764	4.008	0.206	-0.148
-159.750	478.418	0.175	0.389
-158.735	-167.927	-0.342	-0.013
-157.720	-133.335	0.102	-0.013
-156.706	635.603	-0.151	0.376
-155.691	-13.182	0.168	-0.107
-154.677	25.795	0.218	-0.178
-153.662	63.521	-0.097	-0.096
-152.647	-139.661	0.312	0.033
-151.633	-200.000	-0.048	-0.296
-150.618	-102.961	-0.121	-0.028
-149.604	-111.107	0.419	0.084
-148.589	-127.324	-0.318	-0.046
-147.574	-138.046	-0.383	0.042
-146.560	183.601	-0.068	-0.099
-145.545	244.846	-0.108	-0.178
-144.531	561.680	0.090	0.213
-143.516	800.000	0.077	0.233
-142.502	-162.054	0.021	0.001
-141.487	-200.000	-0.075	0.348
-140.472	352.271	0.160	-0.312
-139.458	2.169	0.157	-0.112
-138.443	800.000	-0.097	-0.332
-137.429	-148.819	0.447	0.036
-136.414	764.331	0.127	-0.339
-135.399	-200.000	0.059	0.277
-134.385	-35.589	-0.389	-0.207
-133.370	-200.000	-0.028	-0.269
-132.356	25.257	-0.160	-0.130
-131.341	-200.000	0.001	0.126
-130.326	-200.000	-0.014	-0.113
-129.312	99.216	0.069	-0.078
-128.297	-126.523	0.126	-0.018
-127.283	-200.000	-0.008	-0.191
-126.268	-127.362	0.365	-0.052
-125.253	131.481	0.037	-0.046
-124.239	800.000	-0.066	0.205
-123.224	-86.463	0.149	-0.045
-122.210	-86.143	-0.108	-0.033
-121.195	77.805	-0.229	0.240
-120.180	293.957	0.232	0.415
-119.166	7.266	-0.335	-0.246
-118.151	-112.086	-0.174	-0.034
-117.137	-200.000	0.013	-0.173
-116.122	277.906	0.015	0.026
-115.107	-200.000	-0.013	-0.172
-114.093	57.946	0.061	0.059
-113.078	-200.000	-0.036	-0.301
-112.064	-63.048	0.149	-0.060
-111.049	-139.482	-0.284	-0.030
-110.034	-109.610	-0.400	0.083
-109.020	62.895	0.125	-0.123
-108.005	-68.648	-0.492	0.187
-106.991	635.339	0.064	-0.160
-105.976	39.164	-0.021	-0.018
-104.962	800.000	0.098	0.309
-103.947	-46.132	-0.093	-0.045
-102.932	48.332	-0.097	0.089
-101.918	-120.173	0.165	-0.028
-100.903	395.208	0.026	-0.053
-99.889	-45.357	0.259	0.126
-98.874	35.012	-0.265	-0.228
-97.859	209.872	-0.040	-0.062
-96.845	-102.545	0.443	-0.104
-95.830	227.235	-0.147	-0.234
-94.816	-160.073	-0.238	0.013
-93.801	207.220	-0.149	-0.228
-92.786	-85.098	-0.158	0.048
-91.772	-100.443	-0.212	0.052
-90.757	-58.675	-0.087	0.037
-89.743	128.290	-0.148	-0.185
-88.728	-200.000	0.059	-0.329
-87.713	800.000	0.053	-0.151
-86.699	-77.648	-0.138	0.047
-85.684	446.952	-0.076	-0.163
-84.670	-2.433	-0.209	-0.144
-83.655	63.311	0.177	0.174
-82.640	59.195	-0.225	-0.218
-81.626	64.374	0.049	0.048
-80.611	-200.000	-0.009	0.041
-79.597	116.100	0.191	0.230
-78.582	800.000	-0.017	-0.061
-77.567	-120.373	-0.389	-0.065
-76.553	-6.747	0.101	-0.067
-75.538	243.333	0.052	0.086
-74.524	48.829	-0.148	0.136
-73.509	262.721	0.200	0.340
-72.494	11.326	-0.143	0.108
-71.480	327.557	-0.079	0.148
-70.465	-200.000	-0.017	-0.341
-69.451	-200.000	-0.037	0.194
-68.436	-34.398	0.138	-0.074
-67.422	-169.470	-0.236	0.008
-66.407	800.000	-0.079	0.229
-65.392	23.646	-0.102	-0.082
-64.378	479.964	0.050	-0.110
-63.363	709.367	-0.035	-0.090
-62.349	800.000	-0.169	0.463
-61.334	193.085	-0.661	-0.979
-60.319	168.422	0.422	0.590
-59.305	800.000	-0.363	-1.143
-58.290	238.090	0.702	1.142
-57.276	800.000	0.448	1.425
-56.261	-200.000	106.547	615.311
-55.246	509.314	1510.720	3438.982
-54.232	176.262	2702.868	3845.428
-53.217	109.997	2185.471	2568.700
-52.203	39.985	1705.531	1500.565
-51.188	32.579	1516.423	1283.884
-50.173	30.079	1489.807	1244.533
-49.159	51.140	1546.157	1436.382
-48.144	51.166	1562.481	1451.668
-47.130	32.685	1517.976	1285.716
-46.115	29.656	1503.327	1252.762
-45.100	29.398	1500.120	1248.296
-44.086	29.333	1497.916	1245.973
-43.071	29.289	1495.274	1243.427
-42.057	29.286	1494.234	1242.491
-41.042	29.290	1492.675	1241.174
-40.027	29.302	1491.173	1239.958
-39.013	29.245	1489.957	1238.512
-37.998	29.275	1488.247	1237.243
-36.984	29.268	1486.990	1236.102
-35.969	29.303	1485.830	1235.326
-34.954	29.276	1484.528	1234.009
-33.940	29.269	1482.429	1232.174
-32.925	29.304	1481.449	1231.543
-31.911	29.369	1480.137	1230.837
-30.896	29.397	1479.065	1230.083
-29.881	29.457	1477.844	1229.417
-28.867	29.462	1476.070	1227.929
-27.852	29.385	1475.271	1226.704
-26.838	29.410	1473.611	1225.442
-25.823	29.449	1472.082	1224.375
-24.809	29.413	1470.350	1222.651
-23.794	29.275	1469.369	1220.869
-22.779	29.261	1468.480	1219.992
-21.765	29.430	1466.715	1219.595
-20.750	29.468	1465.616	1218.886
-19.736	29.290	1465.095	1217.228
-18.721	29.301	1463.345	1215.797
-17.706	29.330	1462.618	1215.333
-16.692	29.335	1461.417	1214.322
-15.677	29.291	1460.524	1213.245
-14.663	29.319	1459.176	1212.259
-13.648	29.319	1458.389	1211.557
-12.633	29.241	1457.628	1210.361
-11.619	29.273	1456.715	1209.767
-10.604	29.139	1456.104	1208.332
-9.590	29.278	1455.076	1208.342
-8.575	29.274	1454.500	1207.792
-7.560	29.320	1453.080	1206.863
-6.546	29.221	1452.716	1205.866
-5.531	29.201	1451.539	1204.710
-4.517	29.321	1450.266	1204.389
-3.502	29.265	1449.603	1203.424
-2.487	29.286	1448.130	1202.293
-1.473	29.267	1447.550	1201.641
-0.458	29.274	1446.248	1200.556
0.556	26.893	1436.994	1189.754
1.571	24.296	1411.522	1151.809
2.586	21.081	1352.929	1083.958
3.600	19.679	1272.507	1011.235
4.615	18.481	1228.474	969.384
5.629	16.385	1172.707	913.972
6.644	8.048	1089.409	806.914
7.659	1.060	1048.794	742.605
8.673	-0.048	1043.134	733.130
9.688	-0.321	1039.614	729.265
10.702	-0.490	1038.284	727.444
11.717	-0.360	1036.191	726.545
12.731	3.055	1039.946	745.696
13.746	11.942	1052.458	798.066
14.761	18.549	1061.361	837.107
15.775	20.303	1062.498	846.493
16.790	20.489	1062.540	847.358
17.804	20.336	1061.929	846.053
18.819	20.214	1060.871	844.538
19.834	20.314	1059.811	844.106
20.848	20.358	1059.861	844.287
21.863	20.481	1059.518	844.538
22.877	20.399	1059.058	843.695
23.892	20.355	1058.582	843.028
24.907	20.125	1057.997	841.372
25.921	20.357	1056.871	841.528
26.936	20.268	1056.140	840.442
27.950	20.333	1054.698	839.531
28.965	20.365	1053.427	838.600
29.980	20.223	1052.160	836.834
30.994	20.245	1050.772	835.762
32.009	20.430	1049.609	835.653
33.023	20.464	1049.072	835.313
34.038	20.209	1047.818	833.018
35.053	20.215	1047.055	832.367
36.067	20.504	1046.187	832.990
37.082	20.277	1045.819	831.535
38.096	20.488	1044.400	831.341
39.111	20.557	1044.063	831.332
40.126	20.831	1042.772	831.537
41.140	20.648	1041.322	829.432
42.155	20.364	1039.985	826.941
43.169	20.153	1038.695	824.841
44.184	20.230	1037.827	824.444
45.199	20.206	1037.035	823.628
46.213	19.979	1036.182	821.801
47.228	19.968	1035.129	820.841
48.242	20.139	1033.889	820.595
49.257	20.263	1033.060	820.451
50.271	20.313	1032.318	820.024
51.286	20.481	1031.888	820.403
52.301	20.481	1030.931	819.571
53.315	20.406	1029.998	818.401
54.330	20.490	1029.230	818.116
55.344	20.388	1028.785	817.211
56.359	20.495	1026.978	816.207
57.374	20.225	1026.677	814.625
58.388	20.213	1025.545	813.600
59.403	20.287	1024.715	813.214
60.417	20.232	1023.890	812.229
61.432	20.107	1022.866	810.760
62.447	20.160	1022.408	810.574
63.461	20.300	1021.660	810.563
64.476	20.257	1021.362	810.054
65.490	20.303	1020.082	809.182
66.505	20.182	1019.204	807.852
67.520	20.231	1017.928	806.995
68.534	20.235	1017.180	806.351
69.549	20.130	1016.250	805.055
70.563	19.857	1015.189	802.877
71.578	19.795	1014.302	801.816
72.593	19.915	1013.251	801.470
73.607	19.644	1012.406	799.479
74.622	19.659	1011.510	798.768
75.636	19.994	1010.711	799.612
76.651	20.217	1009.975	799.990
77.666	19.860	1009.198	797.656
78.680	19.861	1007.852	796.528
79.695	19.922	1007.440	796.411
80.709	20.040	1006.871	796.436
81.724	20.078	1006.159	795.973
82.739	20.135	1005.164	795.381
83.753	20.022	1004.389	794.177
84.768	20.246	1004.142	794.939
85.782	20.468	1003.356	795.262
86.797	20.668	1002.378	795.329
87.812	20.693	1001.450	794.638
88.826	20.461	1000.564	792.806
89.841	20.476	999.605	792.043
90.855	20.624	999.004	792.174
91.870	20.628	998.100	791.402
92.884	20.602	997.274	790.559
93.899	20.487	996.446	789.313
94.914	20.436	995.133	787.971
95.928	20.465	994.840	787.801
96.943	20.610	993.817	787.580
97.957	20.209	992.884	784.956
98.972	20.163	991.903	783.903
99.987	20.045	990.255	781.998
101.001	20.126	989.708	781.861
102.016	20.479	988.697	782.582
103.030	20.361	988.186	781.577
104.045	20.316	986.746	780.169
105.060	20.104	985.710	778.328
106.074	20.063	984.269	776.939
107.089	19.977	984.049	776.308
108.103	20.371	983.654	777.694
109.118	20.504	982.395	777.224
110.133	20.123	981.810	774.989
111.147	20.180	980.518	774.157
112.162	20.124	979.197	772.793
113.176	19.905	977.891	770.723
114.191	19.909	977.583	770.428
115.206	20.089	976.480	770.290
116.220	19.853	975.344	768.280
117.235	19.748	974.228	766.866
118.249	19.805	973.644	766.592
119.264	19.830	972.782	765.956
120.279	19.777	972.065	765.090
121.293	19.808	970.718	764.099
122.308	19.856	970.571	764.127
123.322	19.879	969.608	763.400
124.337	20.002	967.957	762.576
125.352	19.856	966.971	761.090
126.366	19.440	965.024	757.662
127.381	19.078	963.721	754.987
128.395	19.748	963.633	757.789
129.410	20.285	963.277	759.791
130.424	20.292	962.566	759.196
131.439	20.353	961.359	758.442
132.454	20.169	960.186	756.648
133.468	20.288	959.576	756.616
134.483	20.268	958.090	755.291
135.497	20.250	957.963	755.046
136.512	20.362	957.179	754.848
137.527	20.599	956.453	755.240
138.541	20.485	955.399	753.848
139.556	20.450	954.981	753.297
140.570	20.451	953.934	752.409
141.585	20.533	952.794	751.800
142.600	20.538	952.193	751.282
143.614	20.401	951.439	750.029
144.629	20.502	950.467	749.632
145.643	20.823	949.962	750.549
146.658	20.600	948.897	748.683
147.673	20.551	947.280	747.127
148.687	20.531	946.098	746.046
149.702	20.413	945.214	744.775
150.716	20.349	944.278	743.697
151.731	20.248	943.670	742.720
152.746	20.386	943.109	742.805
153.760	20.647	942.004	742.983
154.775	20.640	941.823	742.745
155.789	20.779	940.623	742.326
156.804	20.714	939.559	741.141
157.819	20.662	938.655	740.144
158.833	20.697	937.916	739.646
159.848	20.693	937.482	739.219
160.862	20.796	936.319	738.674
161.877	20.744	935.173	737.482
162.892	20.616	934.721	736.519
163.906	20.761	934.077	736.559
164.921	20.792	932.953	735.742
165.935	20.779	931.755	734.678
166.950	20.784	930.559	733.691
167.964	20.772	930.059	733.177
168.979	20.682	928.630	731.607
169.994	20.527	927.826	730.259
171.008	20.479	926.894	729.260
172.023	20.629	926.111	729.210
173.037	20.856	925.264	729.430
174.052	20.555	924.103	727.191
175.067	20.417	922.891	725.596
176.081	20.562	922.156	725.557
177.096	20.539	921.644	724.996
178.110	20.540	920.765	724.243
179.125	20.380	919.228	722.304
180.140	20.154	918.474	720.707
181.154	20.171	918.104	720.427
182.169	20.200	917.483	719.994
183.183	20.423	917.212	720.643
184.198	20.524	916.963	720.802
185.213	20.477	916.140	719.900
186.227	20.600	915.242	719.639
187.242	20.620	914.620	719.167
188.256	20.742	913.835	718.990
189.271	20.660	912.734	717.722
190.286	20.656	912.515	717.472
191.300	20.704	911.281	716.636
192.315	20.185	910.021	713.445
193.329	19.487	908.808	709.564
194.344	19.126	907.785	707.220
195.359	19.683	908.087	709.682
196.373	20.566	908.144	713.284
197.388	20.619	908.146	713.441
198.402	20.649	907.144	712.713
199.417	20.569	906.460	711.785
200.432	20.576	906.176	711.528
201.446	20.488	905.190	710.330
202.461	20.067	904.078	707.678
203.475	20.135	904.080	707.894
204.490	19.712	902.324	704.734
205.504	18.701	900.514	699.141
206.519	19.019	900.280	700.191
207.534	20.063	900.576	704.608
208.548	20.201	899.742	704.453
209.563	20.494	899.964	705.753
210.577	20.454	899.207	704.935
211.592	20.350	898.189	703.654
212.607	20.626	898.227	704.741
213.621	20.682	897.708	704.497
214.636	20.758	896.505	703.798
215.650	20.848	896.495	704.094
216.665	20.714	895.610	702.794
217.680	20.728	895.163	702.436
218.694	20.977	894.565	702.909
219.709	20.546	893.598	700.353
220.723	20.092	892.749	697.796
221.738	20.327	892.043	698.128
222.753	20.584	891.807	698.917
223.767	20.586	890.933	698.177
224.782	20.556	890.169	697.395
225.796	20.836	889.562	697.979
226.811	20.978	889.179	698.187
227.826	20.496	887.784	695.104
228.840	19.670	886.327	690.599
229.855	19.627	885.934	690.062
230.869	19.870	885.493	690.627
231.884	19.715	884.356	689.062
232.899	19.795	883.622	688.749
233.913	20.470	884.173	691.806
234.928	20.602	883.724	691.919
235.942	20.419	882.702	690.330
236.957	20.536	882.182	690.325
237.972	20.376	880.896	688.623
238.986	20.213	880.380	687.513
240.001	20.256	880.050	687.365
241.015	20.350	879.406	687.172
242.030	20.439	878.360	686.648
243.045	20.401	878.465	686.517
244.059	20.468	877.915	686.294
245.074	20.742	877.260	686.800
246.088	20.754	876.139	685.910
247.103	20.255	875.306	683.233
248.117	20.446	874.545	683.329
249.132	20.861	874.728	685.046
250.147	21.241	874.286	686.129
251.161	21.185	873.634	685.337
252.176	21.374	873.141	685.634
253.190	21.292	872.640	684.856
254.205	21.398	872.069	684.763
255.220	21.655	871.440	685.212
256.234	21.529	870.889	684.227
257.249	21.463	870.430	683.549
258.263	21.419	869.434	682.533
259.278	21.291	869.246	681.824
260.293	21.454	868.483	681.804
261.307	21.553	867.899	681.669
262.322	21.337	867.484	680.443
263.336	21.345	866.266	679.459
264.351	20.835	864.827	676.290
265.366	19.696	863.007	670.390
266.380	19.194	862.623	668.085
267.395	20.238	862.692	672.130
268.409	21.031	862.303	674.836
269.424	21.105	861.744	674.626
270.439	21.190	861.505	674.706
271.453	21.196	861.001	674.275
272.468	21.248	860.154	673.752
273.482	21.457	859.880	674.285
274.497	21.554	859.959	674.660
275.512	21.395	858.435	672.795
276.526	20.776	856.967	669.206
277.541	20.811	856.895	669.224
278.555	21.328	856.605	670.923
279.570	21.153	855.651	669.448
280.585	20.927	854.757	667.821
281.599	20.912	854.513	667.515
282.614	21.165	853.836	667.894
283.628	20.629	852.591	664.815
284.643	20.450	852.087	663.678
285.657	20.824	851.685	664.735
286.672	20.771	850.914	663.870
287.687	20.294	850.180	661.421
288.701	20.608	850.041	662.453
289.716	21.056	849.589	663.747
290.730	20.568	848.683	661.125
291.745	20.551	848.523	660.879
292.760	20.313	847.168	658.858
293.774	20.190	846.941	658.159
294.789	21.129	847.394	662.016
295.803	21.847	847.001	664.372
296.818	21.768	846.576	663.679
297.833	21.968	846.193	664.076
298.847	21.706	844.788	661.927
299.862	21.195	844.119	659.412
300.876	21.488	843.743	660.167
301.891	21.740	843.047	660.515
302.906	21.861	842.555	660.526
303.920	21.311	841.578	657.631
304.935	21.217	840.933	656.717
305.949	21.647	840.510	657.946
306.964	21.786	839.836	657.879
307.979	21.498	839.184	656.230
308.993	21.327	839.045	655.422
310.008	21.716	839.168	656.921
311.022	21.917	838.152	656.819
312.037	21.828	837.564	655.967
313.052	21.494	837.066	654.269
314.066	21.521	836.275	653.695
315.081	20.919	834.540	650.036
316.095	20.303	833.482	646.860
317.110	20.700	833.705	648.455
318.125	21.450	834.063	651.471
319.139	21.074	832.968	649.158
320.154	19.921	831.559	643.716
321.168	19.603	830.122	641.366
322.183	20.179	830.645	643.856
323.197	21.124	830.837	647.454
324.212	21.364	830.791	648.250
325.227	21.384	830.389	647.956
326.241	21.565	830.120	648.356
327.256	21.470	829.364	647.359
328.270	21.414	828.676	646.558
329.285	21.293	828.153	645.643
330.300	21.176	827.053	644.297
331.314	20.976	825.949	642.646
332.329	21.040	825.733	642.654
333.343	21.379	825.492	643.660
334.358	21.635	825.157	644.281
335.373	21.522	824.695	643.449
336.387	21.871	823.862	644.024
337.402	21.954	823.740	644.177
338.416	21.976	823.445	643.970
339.431	22.086	822.395	643.494
340.446	22.000	821.985	642.800
341.460	22.181	822.007	643.427
342.475	22.151	821.075	642.528
343.489	22.002	819.981	641.073
344.504	21.878	819.877	640.479
345.519	22.128	819.349	640.923
346.533	22.338	819.539	641.781
347.548	22.462	818.764	641.568
348.562	22.432	818.083	640.869
349.577	22.515	817.465	640.631
350.592	22.371	816.908	639.613
351.606	22.405	816.577	639.421
352.621	22.580	815.952	639.512
353.635	22.204	815.807	637.976
354.650	22.219	814.775	637.167
355.665	21.917	813.680	635.163
356.679	20.789	812.245	629.907
357.694	20.770	811.790	629.430
358.708	21.471	811.786	631.906
359.723	21.235	811.158	630.509
360.738	21.620	811.058	631.763
361.752	21.999	811.065	633.081
362.767	22.146	810.346	632.992
363.781	22.388	810.296	633.770
364.796	22.670	810.065	634.546
365.810	22.721	809.491	634.226
366.825	22.713	809.242	633.946
367.840	22.691	808.821	633.478
368.854	22.710	808.095	632.923
369.869	22.256	807.274	630.597
370.883	22.177	806.398	629.574
371.898	22.253	806.102	629.559
372.913	22.102	805.330	628.359
373.927	22.092	804.910	627.943
374.942	22.116	804.404	627.576
375.956	22.323	803.696	627.706
376.971	22.611	803.042	628.169
377.986	22.554	803.211	628.041
379.000	22.712	802.427	627.934
380.015	22.703	801.864	627.406
381.029	22.616	801.104	626.447
382.044	22.563	800.414	625.662
383.059	22.636	800.043	625.578
384.073	22.731	799.478	625.418
385.088	22.741	799.411	625.346
386.102	22.765	798.824	624.914
387.117	22.539	798.151	623.533
388.132	22.352	797.882	622.607
389.146	22.402	796.639	621.761
390.161	21.721	796.061	618.848
391.175	21.766	795.950	618.865
392.190	22.264	796.198	620.763
393.205	22.342	795.134	620.155
394.219	21.465	793.018	615.363
395.234	19.923	791.279	608.543
396.248	19.356	790.126	605.613
397.263	20.302	791.111	609.639
398.278	22.043	792.486	616.764
399.292	22.271	792.575	617.579
400.307	22.249	791.490	616.604
401.321	22.073	790.957	615.516
402.336	22.161	790.941	615.756
403.350	22.491	790.736	616.699
404.365	22.851	790.718	617.889
405.380	23.124	790.301	618.465
406.394	23.285	790.172	618.871
407.409	23.516	789.628	619.197
408.423	23.383	789.166	618.315
409.438	23.266	788.606	617.415
410.453	23.413	788.156	617.520
411.467	23.414	787.722	617.128
412.482	23.418	787.159	616.645
413.496	23.310	786.696	615.854
414.511	23.466	786.267	616.006
415.526	23.363	786.129	615.485
416.540	23.403	785.687	615.223
417.555	23.305	785.125	614.388
418.569	23.160	784.305	613.191
419.584	23.008	783.869	612.271
420.599	23.084	783.218	611.969
421.613	157.835	1364.060	1799.266
422.628	136.467	1448.681	1799.337
