DTS Sentinel unit serial number:	SN413079Multiplexer serial number:	ORYXHardware model number:	OX4-SRSoftware version number:	ORYX F/W v4.00 Oryx Data Collector v3.7.2.0data status	okinstallation	princeton_trtdifferential loss correction	single-endedforward channel	channel 3reverse channel	N/Adate	2019/09/11time	20:34:11forward acquisition time	60.00reverse acquisition time	0.00gamma	496.2192k internal	0.2305k external	0.2305temperature offset calibration	1.0026default loss term (dB/km)	0.3790temperature slope calibration	1.0000multiplexer offset coefficient	1.0000multiplexer slope coefficient	1.0000fibre end	0.00T internal ref (°C)	37.50T ext. ref 1 (°C)	1.51T ext. ref 2 (°C)	30.82length (m)	temperature (°C)	Stokes	anti-Stokes-747.200	0.991	0.497	0.363
-746.185	10.989	-0.202	0.157
-745.171	-200.000	-0.039	-0.209
-744.156	117.567	0.218	0.273
-743.142	-71.150	-0.088	-0.034
-742.127	392.996	0.084	0.177
-741.112	-200.000	0.011	-0.199
-740.098	-26.209	-0.324	-0.194
-739.083	33.413	-0.300	0.265
-738.069	119.090	-0.182	0.229
-737.054	-84.930	0.219	-0.070
-736.039	800.000	-0.093	0.314
-735.025	-200.000	-0.021	0.105
-734.010	31.393	-0.078	0.068
-732.996	9.781	-0.240	-0.185
-731.981	800.000	0.065	-0.187
-730.966	-74.563	-0.180	-0.066
-729.952	42.599	-0.159	0.147
-728.937	481.184	-0.050	0.115
-727.923	-61.214	0.102	0.044
-726.908	172.204	-0.137	-0.200
-725.894	419.439	0.076	0.165
-724.879	775.591	-0.199	0.553
-723.864	-113.105	0.179	0.036
-722.850	265.390	0.092	0.163
-721.835	70.343	-0.138	-0.145
-720.821	-110.488	0.353	-0.074
-719.806	-136.040	0.327	0.039
-718.791	800.000	0.019	-0.059
-717.777	344.544	-0.074	-0.148
-716.762	3.668	0.339	-0.251
-715.748	37.629	0.097	0.087
-714.733	800.000	0.031	0.134
-713.718	7.815	-0.044	-0.033
-712.704	-107.062	0.316	0.071
-711.689	-73.011	0.176	-0.066
-710.675	-39.446	-0.159	0.085
-709.660	-110.986	0.230	-0.048
-708.645	-33.957	0.104	0.058
-707.631	591.142	-0.062	0.156
-706.616	-50.664	0.209	0.100
-705.602	-26.219	0.329	-0.197
-704.587	-127.467	-0.042	0.006
-703.572	66.220	0.221	0.228
-702.558	187.438	-0.024	-0.037
-701.543	36.548	-0.316	-0.283
-700.529	-200.000	0.025	0.303
-699.514	-185.898	-0.154	0.002
-698.499	186.374	-0.196	0.297
-697.485	-200.000	0.000	0.232
-696.470	-41.379	-0.200	-0.105
-695.456	-200.000	-0.014	0.071
-694.441	92.772	0.207	-0.238
-693.426	88.777	-0.160	0.180
-692.412	61.857	0.061	0.062
-691.397	-136.021	0.096	-0.011
-690.383	800.000	-0.164	-0.520
-689.368	502.536	0.129	0.304
-688.354	-143.137	-0.367	0.036
-687.339	453.815	-0.122	0.275
-686.324	-101.352	-0.242	0.060
-685.310	800.000	0.065	-0.254
-684.295	-64.766	-0.088	0.036
-683.281	800.000	-0.035	0.138
-682.266	16.133	-0.269	0.216
-681.251	89.411	-0.262	-0.297
-680.237	67.774	-0.235	-0.244
-679.222	-200.000	0.003	-0.194
-678.208	800.000	0.054	0.161
-677.193	-13.901	0.392	-0.257
-676.178	-100.372	-0.270	-0.068
-675.164	30.361	-0.060	-0.052
-674.149	-1.263	0.049	-0.035
-673.135	-33.426	-0.102	0.057
-672.120	31.486	0.095	-0.083
-671.105	-200.000	0.019	-0.283
-670.091	-200.000	-0.015	0.162
-669.076	158.338	0.187	-0.263
-668.062	-136.536	-0.402	-0.047
-667.047	203.129	-0.230	-0.361
-666.032	-158.854	-0.215	-0.012
-665.018	800.000	0.060	-0.254
-664.003	-40.437	-0.239	0.126
-662.989	-200.000	0.046	0.235
-661.974	-109.601	-0.064	-0.014
-660.959	-27.896	0.195	0.115
-659.945	-2.207	0.170	-0.121
-658.930	47.389	0.151	0.142
-657.916	-155.237	0.181	-0.012
-656.901	800.000	-0.072	0.208
-655.886	-35.341	-0.191	-0.105
-654.872	-96.923	-0.045	-0.012
-653.857	699.742	0.082	-0.219
-652.843	225.926	-0.030	0.049
-651.828	12.618	0.126	-0.099
-650.814	107.125	0.206	-0.248
-649.799	-107.114	-0.291	0.065
-648.784	-123.369	-0.228	0.037
-647.770	48.056	-0.181	0.172
-646.755	800.000	-0.066	-0.253
-645.741	-49.037	0.095	-0.046
-644.726	-200.000	-0.008	-0.384
-643.711	-200.000	-0.020	-0.233
-642.697	-200.000	0.026	-0.140
-641.682	800.000	-0.004	0.016
-640.668	-84.761	-0.396	-0.126
-639.653	311.672	-0.060	-0.114
-638.638	-200.000	-0.005	-0.075
-637.624	-200.000	-0.281	0.000
-636.609	720.673	-0.033	-0.088
-635.595	117.586	0.237	0.296
-634.580	800.000	-0.045	-0.127
-633.565	108.290	-0.163	-0.197
-632.551	-118.542	0.205	0.037
-631.536	-105.895	0.257	-0.059
-630.522	-116.061	0.139	-0.026
-629.507	513.047	-0.091	-0.216
-628.492	-200.000	0.021	0.124
-627.478	800.000	0.090	-0.360
-626.463	-200.000	0.021	-0.105
-625.449	-63.188	-0.189	-0.079
-624.434	-80.923	-0.232	0.078
-623.419	197.617	0.102	-0.158
-622.405	-1.185	0.329	0.235
-621.390	800.000	0.026	0.108
-620.376	29.748	-0.061	-0.053
-619.361	-108.143	-0.060	-0.013
-618.346	131.753	-0.194	0.252
-617.332	-61.147	0.019	-0.008
-616.317	792.600	-0.103	-0.288
-615.303	-107.182	-0.197	-0.044
-614.288	-200.000	-0.019	0.111
-613.273	93.529	-0.065	0.075
-612.259	74.554	-0.051	-0.055
-611.244	-158.491	0.023	0.001
-610.230	84.880	0.104	0.115
-609.215	-35.740	-0.176	-0.097
-608.201	-200.000	0.006	-0.360
-607.186	48.991	0.090	0.086
-606.171	45.736	-0.192	0.180
-605.157	800.000	0.071	0.279
-604.142	406.993	-0.027	0.057
-603.128	-111.956	0.112	0.023
-602.113	-103.514	-0.124	0.030
-601.098	-83.294	-0.036	0.012
-600.084	-78.814	-0.189	0.065
-599.069	-101.645	-0.204	0.050
-598.055	601.736	-0.109	0.273
-597.040	-44.327	-0.293	-0.149
-596.025	-200.000	-0.018	-0.351
-595.011	78.738	-0.057	0.061
-593.996	-141.739	0.067	0.007
-592.982	-113.328	0.102	0.020
-591.967	-81.592	-0.100	-0.033
-590.952	-70.673	-0.061	-0.023
-589.938	-200.000	-0.001	-0.071
-588.923	-5.813	0.356	0.247
-587.909	64.440	-0.280	-0.285
-586.894	-29.631	-0.191	-0.110
-585.879	22.153	-0.250	-0.206
-584.865	-107.736	0.137	0.030
-583.850	415.659	0.154	0.332
-582.836	800.000	-0.068	-0.242
-581.821	-85.326	-0.293	-0.092
-580.806	117.774	-0.173	-0.215
-579.792	-25.871	-0.102	-0.061
-578.777	-200.000	-0.007	-0.096
-577.763	44.171	-0.095	0.088
-576.748	-16.129	-0.141	-0.090
-575.733	-200.000	-0.000	-0.215
-574.719	79.599	0.238	0.258
-573.704	800.000	-0.039	-0.138
-572.690	103.101	-0.075	-0.089
-571.675	800.000	-0.022	-0.064
-570.661	-19.862	0.229	0.143
-569.646	800.000	-0.036	-0.149
-568.631	-99.552	0.433	0.110
-567.617	-109.144	0.251	-0.054
-566.602	-200.000	0.027	-0.255
-565.588	322.279	-0.160	0.308
-564.573	-82.279	0.194	-0.064
-563.558	-132.600	-0.331	-0.043
-562.544	-200.000	-0.049	0.231
-561.529	150.100	0.108	-0.148
-560.515	606.807	-0.131	0.331
-559.500	-86.856	0.490	-0.151
-558.485	-200.000	-0.032	-0.317
-557.471	52.937	-0.157	0.152
-556.456	-200.000	0.038	0.406
-555.442	800.000	0.060	0.224
-554.427	142.486	0.093	0.125
-553.412	800.000	0.057	0.172
-552.398	-200.000	-0.073	0.329
-551.383	4.763	0.087	-0.065
-550.369	-71.226	-0.123	0.047
-549.354	800.000	0.109	-0.318
-548.339	-60.627	0.165	0.071
-547.325	-78.379	0.105	0.036
-546.310	-96.683	-0.068	-0.018
-545.296	316.090	0.103	-0.196
-544.281	-1.899	-0.152	0.108
-543.266	6.573	0.243	-0.182
-542.252	-60.127	0.332	0.143
-541.237	-66.369	0.232	0.093
-540.223	22.588	0.291	0.241
-539.208	50.034	-0.249	0.238
-538.193	-155.696	0.190	-0.012
-537.179	-200.000	0.094	-0.443
-536.164	-44.240	-0.188	-0.095
-535.150	-110.599	-0.140	0.029
-534.135	57.535	-0.291	0.287
-533.121	86.165	0.189	-0.210
-532.106	-21.102	0.053	-0.032
-531.091	-200.000	-0.001	-0.113
-530.077	-200.000	-0.258	0.001
-529.062	-200.000	-0.060	-0.441
-528.048	101.196	-0.074	-0.087
-527.033	576.521	0.115	0.283
-526.018	800.000	-0.096	-0.342
-525.004	186.578	-0.075	0.113
-523.989	90.031	0.141	-0.159
-522.975	63.861	0.190	-0.193
-521.960	405.765	0.097	-0.207
-520.945	271.557	-0.160	-0.284
-519.931	462.172	-0.105	0.236
-518.916	59.192	0.276	0.274
-517.902	301.514	0.064	-0.119
-516.887	-67.813	0.114	-0.045
-515.872	4.523	-0.152	-0.112
-514.858	29.160	-0.082	-0.070
-513.843	14.655	0.091	-0.071
-512.829	222.008	0.148	-0.241
-511.814	800.000	-0.045	0.192
-510.799	588.848	-0.101	0.251
-509.785	800.000	0.051	0.196
-508.770	173.459	-0.116	-0.169
-507.756	-115.055	0.169	-0.032
-506.741	800.000	-0.045	0.181
-505.726	20.930	0.127	-0.104
-504.712	-85.225	0.169	-0.053
-503.697	25.022	-0.168	-0.140
-502.683	-83.928	-0.023	-0.007
-501.668	-109.126	-0.269	0.058
-500.653	-200.000	-0.037	0.220
-499.639	-191.492	-0.105	0.001
-498.624	-152.550	-0.299	-0.022
-497.610	-124.055	-0.296	-0.047
-496.595	24.623	-0.106	-0.089
-495.581	-100.519	0.242	0.060
-494.566	800.000	0.074	-0.264
-493.551	-19.565	0.326	-0.204
-492.537	-25.712	-0.463	0.275
-491.522	4.500	0.170	-0.126
-490.508	-111.920	-0.191	-0.039
-489.493	-200.000	0.002	-0.294
-488.478	800.000	0.051	0.164
-487.464	-200.000	-0.055	0.487
-486.449	86.435	0.165	0.184
-485.435	135.768	-0.226	-0.297
-484.420	800.000	-0.023	0.075
-483.405	-111.045	-0.233	0.048
-482.391	225.998	0.205	0.334
-481.376	397.865	-0.039	-0.082
-480.362	24.049	0.047	0.039
-479.347	-120.547	-0.283	-0.048
-478.332	-5.141	-0.399	-0.276
-477.318	75.208	-0.129	-0.137
-476.303	-159.212	0.164	0.009
-475.289	-79.771	0.104	-0.035
-474.274	27.591	-0.070	0.060
-473.259	-39.857	0.189	0.099
-472.245	364.473	0.142	0.288
-471.230	-200.000	-0.004	-0.068
-470.216	72.744	-0.083	0.088
-469.201	-96.915	-0.435	0.115
-468.186	-200.000	0.002	0.070
-467.172	-132.633	0.308	0.040
-466.157	-147.260	0.113	-0.010
-465.143	-7.869	-0.203	0.138
-464.128	-68.323	-0.144	0.056
-463.113	98.851	-0.218	0.253
-462.099	75.650	-0.156	0.166
-461.084	-172.480	-0.099	0.003
-460.070	261.257	-0.059	0.104
-459.055	-178.461	-0.319	0.007
-458.040	-18.713	0.249	0.156
-457.026	-200.000	0.012	0.404
-456.011	-111.480	-0.458	-0.094
-454.997	-200.000	0.051	0.238
-453.982	-127.449	-0.303	0.044
-452.968	423.354	0.126	-0.273
-451.953	22.651	-0.082	0.067
-450.938	800.000	-0.033	-0.144
-449.924	-102.207	0.324	-0.078
-448.909	228.026	0.209	-0.342
-447.895	-90.502	-0.115	0.034
-446.880	-200.000	0.467	-0.002
-445.865	-88.524	-0.192	-0.058
-444.851	344.027	0.124	-0.244
-443.836	-92.859	-0.376	-0.106
-442.822	-112.805	-0.135	0.027
-441.807	172.589	-0.116	-0.168
-440.792	-200.000	-0.025	-0.297
-439.778	800.000	-0.121	-0.381
-438.763	452.918	-0.120	0.268
-437.749	800.000	0.092	0.262
-436.734	-24.316	-0.069	-0.041
-435.719	-66.700	-0.347	0.138
-434.705	38.523	-0.133	0.119
-433.690	-164.066	0.163	-0.008
-432.676	493.348	0.128	0.294
-431.661	-200.000	0.006	0.184
-430.646	-77.187	0.259	0.091
-429.632	69.997	0.191	-0.198
-428.617	13.950	0.156	-0.122
-427.603	-200.000	0.004	-0.163
-426.588	-51.704	-0.357	-0.167
-425.573	-160.626	-0.198	-0.011
-424.559	212.479	0.169	-0.268
-423.544	462.015	-0.071	0.160
-422.530	-106.300	-0.125	0.028
-421.515	-200.000	-0.092	0.508
-420.500	-112.473	0.151	-0.030
-419.486	311.792	0.119	-0.224
-418.471	-200.000	-0.003	0.068
-417.457	305.077	0.136	-0.253
-416.442	-200.000	-0.064	0.403
-415.428	-89.395	-0.374	0.111
-414.413	-200.000	0.016	0.167
-413.398	-200.000	-0.027	0.162
-412.384	-161.922	-0.339	0.017
-411.369	-89.570	-0.045	0.013
-410.355	342.705	0.092	-0.181
-409.340	-99.315	-0.135	0.034
-408.325	5.408	0.181	-0.134
-407.311	-72.640	0.343	-0.127
-406.296	-59.171	0.090	-0.039
-405.282	91.400	-0.225	0.254
-404.267	800.000	-0.073	-0.252
-403.252	-159.247	0.277	-0.016
-402.238	-153.559	0.440	-0.031
-401.223	-78.576	0.092	-0.032
-400.209	-92.528	0.151	-0.043
-399.194	324.616	-0.092	-0.176
-398.179	277.048	0.163	-0.291
-397.165	-119.197	-0.229	-0.040
-396.150	-165.242	-0.238	0.011
-395.136	40.278	0.185	-0.167
-394.121	234.456	0.068	-0.113
-393.106	-62.089	0.141	0.059
-392.092	-144.792	0.313	-0.029
-391.077	415.759	0.089	0.190
-390.063	800.000	-0.097	-0.325
-389.048	-24.653	0.117	0.070
-388.033	-114.686	0.454	-0.087
-387.019	730.732	-0.064	0.172
-386.004	-200.000	-0.002	-0.317
-384.990	800.000	0.049	0.200
-383.975	-144.452	0.267	-0.025
-382.960	800.000	-0.013	0.049
-381.946	49.772	0.070	-0.066
-380.931	-64.259	-0.243	-0.099
-379.917	-5.587	0.218	0.150
-378.902	438.099	-0.086	0.188
-377.888	-200.000	0.010	0.290
-376.873	637.542	-0.072	-0.185
-375.858	-70.770	-0.017	0.007
-374.844	800.000	-0.042	0.165
-373.829	152.580	-0.111	0.153
-372.815	-200.000	-0.021	-0.150
-371.800	93.896	-0.216	-0.246
-370.785	800.000	0.073	-0.241
-369.771	-33.961	-0.203	0.112
-368.756	257.476	0.249	0.429
-367.742	-200.000	0.032	-0.156
-366.727	-200.000	-0.046	-0.249
-365.712	97.585	-0.078	0.090
-364.698	-8.532	0.180	-0.121
-363.683	-9.447	-0.150	0.100
-362.669	-101.743	0.152	-0.037
-361.654	35.524	-0.142	0.125
-360.639	339.515	0.049	-0.095
-359.625	238.952	-0.081	0.135
-358.610	46.192	0.085	-0.079
-357.596	747.416	-0.103	0.278
-356.581	-174.896	-0.397	-0.011
-355.566	459.474	0.154	-0.344
-354.552	179.825	0.140	-0.205
-353.537	-14.680	-0.169	-0.109
-352.523	241.349	0.073	0.122
-351.508	-200.000	-0.013	-0.232
-350.493	7.107	0.330	0.247
-349.479	-58.988	-0.257	0.111
-348.464	89.154	-0.034	-0.038
-347.450	106.203	0.233	-0.276
-346.435	-193.619	-0.387	-0.003
-345.420	-200.000	0.000	-0.223
-344.406	-96.347	0.188	-0.050
-343.391	31.981	0.160	0.138
-342.377	301.081	-0.158	-0.292
-341.362	275.208	-0.095	-0.168
-340.348	-112.939	0.374	-0.074
-339.333	-88.217	0.256	0.077
-338.318	-70.368	0.096	0.037
-337.304	-39.032	-0.286	-0.151
-336.289	-155.450	-0.159	-0.010
-335.275	-39.379	0.050	0.026
-334.260	-3.653	0.162	0.113
-333.245	-42.166	-0.169	0.087
-332.231	-83.784	-0.078	0.025
-331.216	94.058	-0.014	-0.016
-330.202	586.510	-0.090	0.223
-329.187	395.324	-0.040	0.083
-328.172	-79.436	0.432	0.146
-327.158	-200.000	-0.024	-0.269
-326.143	521.763	-0.087	0.204
-325.129	800.000	0.033	0.112
-324.114	41.584	-0.050	0.045
-323.099	249.345	-0.058	-0.098
-322.085	-79.568	0.251	0.085
-321.070	188.073	0.079	0.118
-320.056	21.540	0.151	-0.123
-319.041	-85.804	0.305	-0.095
-318.026	-133.718	-0.133	0.017
-317.012	-82.052	0.020	0.007
-315.997	-200.000	0.013	-0.076
-314.983	-22.506	0.168	0.102
-313.968	1.245	0.109	0.079
-312.953	-200.000	-0.014	-0.064
-311.939	249.206	0.083	0.140
-310.924	-50.513	-0.377	-0.178
-309.910	192.635	0.112	0.170
-308.895	245.375	-0.033	-0.056
-307.880	6.345	0.160	-0.119
-306.866	-171.892	-0.483	0.016
-305.851	20.990	0.092	-0.074
-304.837	207.453	0.021	0.033
-303.822	519.266	0.077	-0.180
-302.807	-200.000	-0.010	0.243
-301.793	325.406	0.054	0.104
-300.778	-36.645	0.167	0.090
-299.764	-200.000	0.011	-0.261
-298.749	597.334	-0.122	-0.302
-297.735	-124.361	0.127	0.020
-296.720	458.642	-0.033	0.074
-295.705	163.697	-0.064	-0.090
-294.691	-166.581	-0.160	-0.007
-293.676	-157.550	0.029	0.002
-292.662	-97.739	0.378	0.098
-291.647	-200.000	0.047	0.284
-290.632	230.035	-0.152	0.248
-289.618	-55.990	-0.361	-0.161
-288.603	25.660	0.255	-0.213
-287.589	800.000	-0.061	-0.229
-286.574	99.491	-0.171	-0.198
-285.559	-200.000	0.007	0.391
-284.545	-200.000	0.011	0.136
-283.530	800.000	0.041	0.128
-282.516	-63.702	0.135	0.055
-281.501	-76.370	-0.116	-0.041
-280.486	-121.665	-0.334	0.055
-279.472	-129.197	-0.381	0.053
-278.457	800.000	-0.025	0.087
-277.443	-76.616	0.151	-0.053
-276.428	-200.000	-0.018	-0.242
-275.413	-142.157	0.059	-0.006
-274.399	-13.841	-0.434	0.281
-273.384	109.665	0.191	-0.229
-272.370	1.313	-0.316	0.227
-271.355	69.452	0.209	0.215
-270.340	-144.164	0.330	0.031
-269.326	-200.000	-0.003	0.437
-268.311	-32.781	-0.373	0.207
-267.297	-57.984	-0.134	-0.058
-266.282	103.617	-0.234	-0.275
-265.267	728.370	0.102	0.272
-264.253	-200.000	-0.008	0.085
-263.238	118.023	0.158	0.195
-262.224	-34.130	-0.194	-0.106
-261.209	-102.296	-0.255	-0.061
-260.195	76.617	-0.136	0.144
-259.180	-200.000	-0.027	-0.293
-258.165	-66.584	0.308	0.122
-257.151	102.035	0.192	-0.224
-256.136	11.423	-0.165	0.126
-255.122	-130.385	-0.227	-0.031
-254.107	-9.054	0.297	0.199
-253.092	148.070	-0.017	-0.023
-252.078	800.000	-0.028	0.110
-251.063	-178.069	-0.203	-0.005
-250.049	31.046	0.236	0.202
-249.034	-200.000	-0.041	0.269
-248.019	272.690	-0.131	-0.232
-247.005	479.932	-0.013	-0.030
-245.990	800.000	-0.093	0.389
-244.976	-69.599	-0.085	0.033
-243.961	17.737	-0.156	0.124
-242.946	628.620	-0.036	0.091
-241.932	800.000	0.043	-0.152
-240.917	-50.864	-0.387	-0.182
-239.903	-18.164	0.375	-0.234
-238.888	-200.000	0.067	0.294
-237.873	72.537	-0.147	0.153
-236.859	-91.589	0.308	-0.088
-235.844	-27.340	-0.219	-0.127
-234.830	19.510	0.151	0.121
-233.815	120.395	0.015	0.018
-232.800	133.004	-0.125	-0.161
-231.786	16.160	0.309	-0.243
-230.771	-114.584	-0.083	0.016
-229.757	-55.432	-0.050	-0.022
-228.742	-33.287	-0.234	-0.129
-227.727	193.376	0.140	0.212
-226.713	46.315	-0.117	0.108
-225.698	-19.383	-0.228	-0.141
-224.684	15.866	0.138	-0.108
-223.669	146.091	0.057	-0.076
-222.655	-130.225	0.575	0.078
-221.640	-30.564	-0.168	0.095
-220.625	-112.716	0.173	-0.034
-219.611	262.933	0.084	0.146
-218.596	-46.404	-0.341	-0.167
-217.582	-200.000	0.001	-0.197
-216.567	44.959	0.155	-0.143
-215.552	406.553	-0.066	0.139
-214.538	-74.303	0.362	0.130
-213.523	-115.930	-0.399	0.074
-212.509	-200.000	0.058	0.321
-211.494	-200.000	-0.003	0.203
-210.479	800.000	0.066	0.218
-209.465	95.833	-0.047	-0.054
-208.450	-9.024	0.142	-0.095
-207.436	-200.000	0.009	0.128
-206.421	800.000	-0.039	-0.137
-205.406	-4.071	-0.103	-0.071
-204.392	-162.923	0.356	-0.017
-203.377	-200.000	0.002	0.042
-202.363	-1.781	0.167	0.117
-201.348	800.000	-0.029	0.124
-200.333	-200.000	0.030	0.230
-199.319	19.745	0.475	-0.381
-198.304	-200.000	0.260	-0.000
-197.290	105.956	0.218	0.257
-196.275	36.366	0.229	-0.201
-195.260	-131.688	0.221	-0.029
-194.246	800.000	0.053	-0.154
-193.231	-133.962	0.222	-0.027
-192.217	-200.000	0.036	0.341
-191.202	10.274	0.076	0.058
-190.187	-200.000	-0.044	0.337
-189.173	-173.079	0.112	0.003
-188.158	-151.763	0.078	-0.006
-187.144	106.902	0.105	0.124
-186.129	-63.359	-0.170	0.070
-185.114	-130.473	0.103	-0.014
-184.100	475.324	0.071	-0.160
-183.085	-200.000	0.020	-0.387
-182.071	-200.000	-0.288	-0.001
-181.056	-146.281	0.180	0.016
-180.042	-166.435	0.240	0.010
-179.027	-119.805	0.119	-0.020
-178.012	800.000	0.069	-0.250
-176.998	373.926	-0.055	0.112
-175.983	26.548	-0.219	0.183
-174.969	3.883	-0.260	0.189
-173.954	-4.885	0.127	-0.087
-172.939	121.004	0.061	-0.076
-171.925	-53.682	0.157	0.071
-170.910	-75.737	0.255	-0.090
-169.896	800.000	0.046	-0.173
-168.881	-200.000	0.007	-0.231
-167.866	-137.689	0.123	0.014
-166.852	-23.982	0.115	0.068
-165.837	113.426	0.218	0.263
-164.823	116.044	0.324	0.395
-163.808	3.273	0.057	-0.042
-162.793	-39.949	0.332	0.173
-161.779	-200.000	0.002	0.013
-160.764	197.640	-0.127	0.192
-159.750	108.170	-0.148	-0.175
-158.735	38.891	-0.280	-0.249
-157.720	-72.043	-0.300	-0.111
-156.706	-22.424	0.322	0.194
-155.691	611.396	-0.093	0.231
-154.677	92.824	0.062	-0.070
-153.662	800.000	0.040	-0.124
-152.647	535.388	-0.039	-0.091
-151.633	655.666	0.096	-0.245
-150.618	-130.093	-0.112	0.015
-149.604	227.041	-0.057	0.092
-148.589	800.000	0.106	0.345
-147.574	117.134	-0.282	0.344
-146.560	-83.576	0.311	0.099
-145.545	302.542	0.201	-0.370
-144.531	238.694	-0.102	-0.168
-143.516	54.317	-0.286	-0.274
-142.502	800.000	0.041	-0.135
-141.487	-83.107	0.241	-0.077
-140.472	42.617	0.395	-0.358
-139.458	-175.556	0.172	-0.005
-138.443	-81.761	0.211	-0.069
-137.429	76.186	0.131	-0.138
-136.414	-7.516	0.167	-0.112
-135.399	751.541	0.080	-0.214
-134.385	-200.000	0.005	-0.285
-133.370	-162.843	0.218	-0.011
-132.356	-129.869	-0.264	-0.036
-131.341	-54.764	-0.212	-0.095
-130.326	-200.000	0.012	-0.058
-129.312	-122.574	0.115	-0.019
-128.297	82.993	0.118	-0.128
-127.283	-112.017	-0.162	-0.032
-126.268	106.000	-0.013	0.015
-125.253	76.614	-0.198	-0.208
-124.239	-166.239	0.269	0.011
-123.224	-10.897	-0.113	0.074
-122.210	-129.780	0.382	-0.052
-121.195	-200.000	0.017	0.370
-120.180	-200.000	-0.043	-0.379
-119.166	800.000	-0.053	-0.176
-118.151	79.827	-0.111	-0.118
-117.137	-126.016	0.317	0.047
-116.122	253.177	-0.036	0.061
-115.107	-200.000	-0.035	0.151
-114.093	800.000	-0.048	-0.186
-113.078	160.550	-0.168	-0.233
-112.064	-102.659	0.361	0.085
-111.049	-61.480	0.207	0.086
-110.034	800.000	-0.092	0.349
-109.020	-63.427	-0.268	-0.110
-108.005	-200.000	-0.045	-0.228
-106.991	-42.748	-0.265	0.134
-105.976	24.824	-0.022	0.018
-104.962	-17.983	0.025	-0.015
-103.947	587.315	0.080	0.195
-102.932	800.000	0.055	0.153
-101.918	301.041	-0.067	-0.123
-100.903	354.989	-0.046	0.091
-99.889	-126.376	0.425	0.063
-98.874	-20.315	0.132	0.080
-97.859	67.978	-0.078	-0.079
-96.845	-131.525	-0.166	-0.022
-95.830	-200.000	0.070	-0.379
-94.816	800.000	0.109	0.412
-93.801	79.676	-0.255	0.272
-92.786	-152.339	0.076	0.005
-91.772	155.835	-0.080	-0.110
-90.757	93.536	-0.157	0.177
-89.743	605.120	0.131	-0.325
-88.728	-105.175	-0.113	0.026
-87.713	-200.000	-0.093	0.452
-86.699	30.965	0.062	-0.053
-85.684	298.221	0.054	-0.099
-84.670	19.376	0.104	-0.083
-83.655	27.568	-0.135	-0.113
-82.640	577.502	0.128	0.311
-81.626	359.972	0.143	-0.283
-80.611	-99.419	0.130	-0.033
-79.597	458.561	0.118	0.260
-78.582	-14.083	-0.089	0.057
-77.567	-200.000	-0.012	-0.163
-76.553	-121.416	0.194	0.032
-75.538	-90.225	-0.170	0.049
-74.524	379.800	-0.105	-0.214
-73.509	-27.921	0.158	-0.091
-72.494	800.000	-0.007	-0.028
-71.480	455.925	0.046	-0.100
-70.465	-161.403	0.149	0.008
-69.451	41.572	0.047	-0.042
-68.436	-29.751	0.356	0.202
-67.422	-166.011	0.143	-0.006
-66.407	800.000	-0.057	0.166
-65.392	-93.395	-0.187	0.051
-64.378	97.128	0.035	-0.040
-63.363	241.839	-0.072	0.119
-62.349	-116.930	0.239	-0.043
-61.334	392.282	-0.610	-1.257
-60.319	800.000	0.156	0.659
-59.305	800.000	-0.204	-0.646
-58.290	745.127	0.370	0.986
-57.276	800.000	0.646	1.811
-56.261	-200.000	88.049	493.426
-55.246	477.737	1363.542	3057.058
-54.232	150.933	2575.527	3469.906
-53.217	112.332	2200.879	2637.205
-52.203	47.284	1735.470	1601.249
-51.188	40.572	1543.697	1377.839
-50.173	38.068	1515.672	1335.667
-49.159	54.495	1563.014	1491.954
-48.144	58.450	1582.203	1537.739
-47.130	40.999	1539.138	1376.506
-46.115	37.684	1524.471	1340.565
-45.100	37.594	1520.694	1336.567
-44.086	37.637	1518.299	1334.707
-43.071	37.470	1516.338	1331.785
-42.057	37.349	1515.720	1330.359
-41.042	37.504	1513.620	1329.527
-40.027	37.446	1512.622	1328.197
-39.013	37.426	1510.831	1326.437
-37.998	37.423	1509.883	1325.534
-36.984	37.397	1508.842	1324.390
-35.969	37.495	1506.520	1322.967
-34.954	37.491	1505.868	1322.312
-33.940	37.544	1504.248	1321.199
-32.925	37.568	1502.909	1320.133
-31.911	37.473	1501.730	1318.402
-30.896	37.565	1500.147	1317.581
-29.881	37.553	1498.987	1316.428
-28.867	37.692	1497.443	1315.962
-27.852	37.537	1495.803	1313.423
-26.838	37.555	1494.147	1312.035
-25.823	37.507	1492.755	1310.438
-24.809	37.458	1491.201	1308.690
-23.794	37.531	1489.725	1307.832
-22.779	37.524	1488.639	1306.780
-21.765	37.557	1487.710	1306.139
-20.750	37.595	1486.200	1305.015
-19.736	37.531	1485.613	1304.017
-18.721	37.481	1484.387	1302.555
-17.706	37.547	1482.921	1301.659
-16.692	37.589	1481.867	1300.966
-15.677	37.439	1481.091	1299.224
-14.663	37.501	1480.194	1298.801
-13.648	37.461	1479.031	1297.465
-12.633	37.511	1477.589	1296.481
-11.619	37.350	1477.133	1294.956
-10.604	37.461	1475.682	1294.370
-9.590	37.507	1474.870	1293.916
-8.575	37.465	1473.997	1292.818
-7.560	37.493	1473.707	1292.699
-6.546	37.632	1472.166	1292.219
-5.531	37.393	1471.812	1290.272
-4.517	37.394	1470.450	1289.032
-3.502	37.469	1469.174	1288.361
-2.487	37.460	1468.440	1287.606
-1.473	37.366	1467.966	1286.516
-0.458	37.392	1466.114	1285.014
0.556	37.098	1456.384	1273.097
1.571	33.787	1428.937	1227.629
2.586	29.774	1366.716	1149.191
3.600	27.963	1283.189	1068.284
4.615	26.383	1236.276	1020.233
5.629	22.279	1178.596	950.420
6.644	11.521	1089.210	824.242
7.659	2.961	1044.522	748.781
8.673	1.682	1039.300	738.766
9.688	1.475	1035.928	735.301
10.702	1.375	1034.314	733.606
11.717	1.528	1032.166	732.758
12.731	5.008	1037.171	753.073
13.746	15.383	1051.266	813.805
14.761	22.821	1061.000	857.538
15.775	24.194	1062.009	864.949
16.790	24.545	1061.256	865.961
17.804	24.282	1060.721	864.172
18.819	24.017	1060.028	862.249
19.834	24.079	1059.445	861.998
20.848	24.199	1059.058	862.188
21.863	24.326	1058.710	862.445
22.877	24.268	1057.942	861.461
23.892	24.243	1057.450	860.863
24.907	24.208	1056.465	859.816
25.921	24.279	1056.092	859.778
26.936	24.200	1055.236	858.625
27.950	24.152	1054.008	857.320
28.965	24.301	1052.802	856.979
29.980	23.994	1051.467	854.343
30.994	24.038	1050.104	853.372
32.009	24.303	1049.428	854.018
33.023	24.368	1049.148	854.022
34.038	24.148	1048.091	852.036
35.053	24.149	1047.341	851.357
36.067	24.422	1046.316	851.751
37.082	24.258	1045.668	850.366
38.096	24.302	1045.261	850.169
39.111	24.437	1044.369	850.010
40.126	24.608	1043.470	850.017
41.140	24.539	1042.264	848.631
42.155	24.225	1040.633	845.739
43.169	23.891	1039.585	843.228
44.184	23.893	1038.313	842.130
45.199	23.945	1037.515	841.655
46.213	23.924	1036.425	840.600
47.228	23.955	1035.286	839.745
48.242	23.927	1034.849	839.185
49.257	24.147	1034.087	839.528
50.271	24.189	1033.248	838.973
51.286	24.314	1032.533	838.905
52.301	24.335	1031.979	838.480
53.315	24.424	1031.062	838.078
54.330	24.342	1030.259	836.970
55.344	24.197	1029.419	835.532
56.359	24.213	1028.605	834.872
57.374	24.219	1027.833	834.201
58.388	23.950	1027.050	832.232
59.403	23.922	1026.170	831.315
60.417	24.162	1025.465	831.788
61.432	24.006	1024.297	830.043
62.447	23.839	1023.999	828.949
63.461	24.013	1023.530	829.306
64.476	24.172	1022.694	829.294
65.490	24.057	1021.240	827.510
66.505	23.877	1020.916	826.335
67.520	23.994	1019.949	826.026
68.534	24.014	1019.723	825.860
69.549	23.962	1018.300	824.394
70.563	23.638	1017.037	821.799
71.578	23.455	1016.792	820.683
72.593	23.411	1015.928	819.707
73.607	23.353	1014.693	818.372
74.622	23.247	1013.897	817.166
75.636	23.679	1013.344	818.641
76.651	23.811	1012.892	818.813
77.666	23.827	1011.415	817.620
78.680	23.624	1011.013	816.289
79.695	23.663	1010.280	815.804
80.709	23.690	1009.915	815.562
81.724	23.865	1009.026	815.573
82.739	23.911	1007.793	814.718
83.753	23.932	1006.916	814.030
84.768	24.129	1006.397	814.439
85.782	24.567	1005.764	815.857
86.797	24.700	1004.903	815.693
87.812	24.514	1004.344	814.321
88.826	24.413	1003.666	813.235
89.841	24.440	1002.278	812.161
90.855	24.506	1001.905	812.090
91.870	24.455	1001.268	811.269
92.884	24.575	999.847	810.590
93.899	24.353	999.181	808.971
94.914	24.237	998.518	807.837
95.928	24.445	997.585	807.953
96.943	24.503	997.107	807.759
97.957	24.034	996.010	804.675
98.972	23.921	994.571	802.933
99.987	23.737	993.673	801.306
101.001	24.003	992.624	801.590
102.016	24.141	992.498	802.038
103.030	24.115	991.627	801.145
104.045	23.968	990.807	799.750
105.060	23.956	989.574	798.633
106.074	23.908	987.715	796.847
107.089	23.898	987.575	796.618
108.103	24.135	987.154	797.269
109.118	24.373	985.961	797.298
110.133	23.960	985.278	794.830
111.147	23.981	983.791	793.655
112.162	23.787	982.834	791.948
113.176	23.562	981.868	790.099
114.191	23.843	980.994	790.576
115.206	23.789	980.365	789.758
116.220	23.695	978.715	787.941
117.235	23.482	978.074	786.410
118.249	23.610	977.508	786.455
119.264	23.678	976.545	785.910
120.279	23.507	975.640	784.356
121.293	23.529	974.730	783.655
122.308	23.545	974.575	783.529
123.322	23.675	973.603	783.250
124.337	23.736	972.276	782.385
125.352	23.525	971.204	780.523
126.366	23.312	969.176	777.892
127.381	22.807	968.332	774.929
128.395	23.247	968.359	776.812
129.410	23.950	967.903	779.458
130.424	24.287	967.059	780.185
131.439	24.221	966.140	779.084
132.454	24.107	964.949	777.558
133.468	24.054	964.541	776.928
134.483	24.005	964.110	776.301
135.497	24.260	962.904	776.370
136.512	24.217	962.918	776.127
137.527	24.458	961.663	776.095
138.541	24.374	960.671	774.861
139.556	24.351	960.098	774.229
140.570	24.406	959.210	773.684
141.585	24.393	958.290	772.818
142.600	24.520	957.207	772.426
143.614	24.325	956.719	771.118
144.629	24.467	956.267	771.300
145.643	24.686	955.397	771.476
146.658	24.554	954.492	770.109
147.673	24.337	953.170	768.039
148.687	24.432	951.950	767.397
149.702	24.193	951.394	765.851
150.716	24.222	950.049	764.829
151.731	24.104	949.004	763.411
152.746	24.214	948.601	763.491
153.760	24.273	948.196	763.351
154.775	24.502	947.587	763.770
155.789	24.657	946.427	763.434
156.804	24.445	945.685	761.863
157.819	24.548	944.495	761.274
158.833	24.563	943.821	760.725
159.848	24.531	943.304	760.109
160.862	24.703	942.402	760.045
161.877	24.471	941.609	758.354
162.892	24.418	940.806	757.413
163.906	24.634	939.940	757.563
164.921	24.513	939.110	756.317
165.935	24.386	937.965	754.790
166.950	24.560	936.710	754.450
167.964	24.464	936.241	753.598
168.979	24.477	935.408	752.917
169.994	24.461	933.820	751.504
171.008	24.482	932.656	750.588
172.023	24.504	932.366	750.382
173.037	24.668	931.657	750.433
174.052	24.435	930.393	748.372
175.067	24.195	929.591	746.656
176.081	24.231	928.895	746.182
177.096	24.341	927.989	745.845
178.110	24.323	926.791	744.744
179.125	24.156	925.895	743.262
180.140	23.718	924.921	740.586
181.154	23.746	924.356	740.184
182.169	23.943	924.229	740.840
183.183	24.180	923.576	741.237
184.198	24.437	923.512	742.189
185.213	24.643	922.160	741.893
186.227	24.325	921.736	740.166
187.242	24.439	921.554	740.427
188.256	24.534	920.481	739.893
189.271	24.439	919.817	738.900
190.286	24.603	919.273	739.075
191.300	24.434	918.288	737.522
192.315	23.973	916.725	734.298
193.329	23.191	915.336	729.898
194.344	22.918	914.101	727.723
195.359	23.387	914.464	729.878
196.373	24.099	915.109	733.262
197.388	24.259	914.620	733.464
198.402	24.392	913.945	733.405
199.417	24.277	913.511	732.520
200.432	24.303	912.985	732.138
201.446	24.295	912.179	731.394
202.461	23.923	911.819	729.518
203.475	24.080	910.781	729.264
204.490	23.677	908.942	726.079
205.504	22.333	907.734	719.558
206.519	22.790	907.262	720.990
207.534	23.860	907.543	725.516
208.548	24.019	906.993	725.664
209.563	24.319	907.091	726.897
210.577	24.427	906.042	726.433
211.592	24.161	905.030	724.475
212.607	24.405	905.191	725.532
213.621	24.668	904.502	725.987
214.636	24.553	903.395	724.565
215.650	24.687	903.402	725.053
216.665	24.636	902.813	724.309
217.680	24.572	902.476	723.712
218.694	24.781	901.652	723.836
219.709	24.233	901.055	721.076
220.723	23.998	899.805	719.060
221.738	24.139	899.617	719.417
222.753	24.322	899.038	719.629
223.767	24.380	898.063	719.017
224.782	24.278	897.690	718.243
225.796	24.649	896.821	718.979
226.811	24.818	896.234	719.123
227.826	24.434	895.429	716.872
228.840	23.632	893.818	712.303
229.855	23.461	893.430	711.243
230.869	23.659	892.760	711.441
231.884	23.362	891.939	709.536
232.899	23.364	891.533	709.158
233.913	24.171	891.381	712.201
234.928	24.447	891.350	713.215
235.942	24.246	890.530	711.696
236.957	24.196	890.132	711.113
237.972	24.014	888.560	709.071
238.986	23.844	888.118	707.980
240.001	24.033	887.772	708.393
241.015	23.969	887.003	707.461
242.030	24.214	886.285	707.797
243.045	24.241	885.772	707.432
244.059	24.192	885.602	707.041
245.074	24.441	884.965	707.457
246.088	24.508	884.384	707.196
247.103	24.045	883.344	704.471
248.117	23.999	882.969	703.927
249.132	24.480	882.980	705.774
250.147	24.885	882.559	706.975
251.161	25.336	881.176	707.585
252.176	25.315	881.085	707.364
253.190	25.322	880.505	706.865
254.205	25.335	880.095	706.521
255.220	25.443	879.864	706.702
256.234	25.365	879.481	706.022
257.249	25.263	878.862	705.063
258.263	25.227	877.508	703.771
259.278	25.215	877.203	703.419
260.293	25.234	876.953	703.231
261.307	25.315	876.456	703.088
262.322	25.343	875.436	702.317
263.336	24.954	875.325	700.645
264.351	24.746	873.689	698.459
265.366	23.547	871.366	691.869
266.380	23.228	870.407	689.805
267.395	23.874	871.032	692.754
268.409	24.728	871.322	696.251
269.424	24.888	870.446	696.112
270.439	24.971	870.379	696.318
271.453	25.041	869.720	696.002
272.468	25.026	869.381	695.610
273.482	25.198	868.858	695.798
274.497	25.458	868.167	696.191
275.512	25.152	866.755	693.812
276.526	24.636	865.652	690.876
277.541	24.717	865.369	690.900
278.555	25.095	865.415	692.339
279.570	24.851	864.889	690.913
280.585	24.752	863.746	689.556
281.599	24.748	863.063	688.937
282.614	25.052	862.751	689.797
283.628	24.635	861.594	687.206
284.643	24.025	861.583	684.793
285.657	24.464	861.298	686.191
286.672	24.505	860.111	685.341
287.687	23.913	859.562	682.572
288.701	24.333	859.041	683.711
289.716	24.727	858.611	684.815
290.730	24.476	857.790	683.142
291.745	24.267	857.036	681.682
292.760	24.203	856.061	680.599
293.774	24.056	855.120	679.232
294.789	24.848	856.729	683.474
295.803	25.570	856.323	685.844
296.818	25.563	855.873	685.399
297.833	25.846	855.111	685.803
298.847	25.432	854.168	683.413
299.862	25.053	853.380	681.281
300.876	25.179	853.102	681.478
301.891	25.620	852.314	682.463
302.906	25.708	851.900	682.402
303.920	25.323	850.799	680.003
304.935	25.229	850.185	679.097
305.949	25.603	849.781	680.128
306.964	25.594	849.649	679.927
307.979	25.290	848.579	677.863
308.993	25.251	848.430	677.539
310.008	25.586	848.133	678.505
311.022	25.654	848.075	678.655
312.037	25.530	847.123	677.364
313.052	25.441	846.423	676.411
314.066	25.257	845.668	675.056
315.081	24.625	844.085	671.360
316.095	23.928	842.807	667.669
317.110	24.394	842.866	669.405
318.125	25.216	843.188	672.684
319.139	24.852	842.400	670.633
320.154	23.684	840.517	664.703
321.168	23.202	839.549	662.078
322.183	23.905	839.630	664.711
323.197	24.792	840.480	668.643
324.212	24.991	840.113	669.034
325.227	25.155	839.785	669.325
326.241	25.260	839.611	669.521
327.256	25.349	838.639	669.019
328.270	25.044	838.065	667.366
329.285	25.090	837.359	666.916
330.300	25.092	836.406	666.105
331.314	24.788	835.778	664.415
332.329	24.753	835.333	663.874
333.343	25.224	834.912	665.228
334.358	25.449	834.638	665.785
335.373	25.418	833.988	665.092
336.387	25.406	833.529	664.623
337.402	25.840	832.953	665.706
338.416	25.901	832.675	665.651
339.431	25.979	831.958	665.308
340.446	25.783	831.562	664.209
341.460	26.013	831.188	664.701
342.475	26.190	830.571	664.800
343.489	25.882	829.613	662.843
344.504	25.807	829.514	662.428
345.519	25.963	829.584	663.000
346.533	26.344	828.680	663.618
347.548	26.316	828.551	663.351
348.562	26.313	827.768	662.656
349.577	26.101	827.362	661.492
350.592	26.196	826.586	661.163
351.606	26.042	826.358	660.358
352.621	26.131	825.791	660.171
353.635	25.883	825.357	658.861
354.650	26.038	824.677	658.826
355.665	25.797	823.894	657.262
356.679	24.702	821.995	651.699
357.694	24.547	821.357	650.572
358.708	25.289	821.185	653.078
359.723	25.139	820.775	652.150
360.738	25.438	820.661	653.089
361.752	25.861	820.587	654.510
362.767	25.866	820.081	654.064
363.781	26.162	820.204	655.179
364.796	26.356	820.184	655.809
365.810	26.459	819.710	655.748
366.825	26.662	818.831	655.720
367.840	26.494	819.015	655.202
368.854	26.287	818.443	653.936
369.869	26.101	817.268	652.270
370.883	25.796	816.662	650.626
371.898	26.067	815.900	650.940
372.913	25.978	814.900	649.762
373.927	26.106	814.531	649.871
374.942	26.095	814.122	649.449
375.956	26.199	813.796	649.503
376.971	26.261	813.276	649.253
377.986	26.347	812.613	648.976
379.000	26.529	812.064	649.132
380.015	26.576	811.594	648.871
381.029	26.366	811.086	647.655
382.044	26.239	810.598	646.750
383.059	26.500	810.175	647.293
384.073	26.602	809.440	647.012
385.088	26.467	809.260	646.326
386.102	26.525	808.710	646.040
387.117	26.415	807.741	644.816
388.132	26.259	807.060	643.658
389.146	26.028	806.365	642.226
390.161	25.473	805.463	639.475
391.175	25.745	805.134	640.125
392.190	26.038	805.367	641.295
393.205	26.170	804.682	641.163
394.219	25.215	803.221	636.555
395.234	23.628	800.988	629.107
396.248	22.852	799.736	625.323
397.263	23.796	800.818	629.457
398.278	25.840	801.864	637.467
399.292	26.240	801.837	638.802
400.307	25.786	801.449	636.834
401.321	25.891	800.752	636.592
402.336	26.073	800.557	637.023
403.350	26.091	800.418	636.921
404.365	26.548	800.252	638.344
405.380	26.855	799.983	639.155
406.394	27.188	799.926	640.225
407.409	27.321	799.588	640.367
408.423	27.356	798.912	639.893
409.438	27.187	798.107	638.597
410.453	27.155	798.093	638.418
411.467	27.316	797.287	638.282
412.482	27.074	797.230	637.330
413.496	27.236	796.135	636.966
414.511	27.256	796.048	636.909
415.526	27.206	796.158	636.766
416.540	27.206	795.404	636.106
417.555	27.374	794.463	635.885
418.569	27.030	793.687	634.005
419.584	26.793	793.552	633.014
420.599	27.049	792.867	633.306
421.613	103.299	1273.801	1421.943
422.628	88.640	1343.909	1422.058
