DTS Sentinel unit serial number:	SN413079Multiplexer serial number:	ORYXHardware model number:	OX4-SRSoftware version number:	ORYX F/W v4.00 Oryx Data Collector v3.7.2.0data status	okinstallation	princeton_trtdifferential loss correction	single-endedforward channel	channel 3reverse channel	N/Adate	2019/09/11time	22:22:11forward acquisition time	60.00reverse acquisition time	0.00gamma	496.2192k internal	0.2313k external	0.2313temperature offset calibration	1.0050default loss term (dB/km)	0.3790temperature slope calibration	1.0000multiplexer offset coefficient	1.0000multiplexer slope coefficient	1.0000fibre end	0.00T internal ref (°C)	35.19T ext. ref 1 (°C)	1.77T ext. ref 2 (°C)	29.09length (m)	temperature (°C)	Stokes	anti-Stokes-747.200	-58.494	-0.325	0.143
-746.185	17.702	0.107	0.086
-745.171	401.707	0.073	-0.156
-744.156	-116.478	-0.270	-0.050
-743.142	-200.000	0.012	-0.119
-742.127	-20.856	0.127	-0.079
-741.112	800.000	-0.026	-0.113
-740.098	-200.000	-0.050	0.320
-739.083	84.760	-0.082	-0.091
-738.069	-200.000	0.014	0.362
-737.054	226.488	-0.130	0.214
-736.039	108.330	-0.097	0.118
-735.025	-194.405	0.210	0.002
-734.010	174.649	-0.149	0.218
-732.996	-200.000	0.022	0.267
-731.981	-32.291	0.185	-0.105
-730.966	-154.476	0.102	-0.007
-729.952	-200.000	-0.056	-0.330
-728.937	-164.972	-0.221	-0.010
-727.923	-46.696	0.051	0.025
-726.908	800.000	-0.096	-0.276
-725.894	41.084	-0.106	0.097
-724.879	46.304	-0.183	-0.172
-723.864	35.145	-0.227	-0.202
-722.850	-176.489	-0.320	-0.008
-721.835	800.000	0.025	-0.089
-720.821	800.000	0.025	0.088
-719.806	55.785	-0.189	-0.186
-718.791	-4.149	0.177	-0.124
-717.777	-85.678	-0.119	-0.038
-716.762	-200.000	-0.044	0.333
-715.748	24.080	-0.149	-0.125
-714.733	800.000	0.084	-0.244
-713.718	89.050	-0.196	0.221
-712.704	-200.000	-0.014	0.145
-711.689	-200.000	0.031	-0.216
-710.675	-171.439	0.222	0.007
-709.660	-200.000	0.007	-0.058
-708.645	800.000	0.059	0.226
-707.631	8.105	0.391	0.298
-706.616	-200.000	0.020	0.247
-705.602	674.550	0.030	-0.079
-704.587	42.350	0.151	-0.139
-703.572	-200.000	0.017	0.090
-702.558	-200.000	0.018	0.099
-701.543	-73.593	-0.106	-0.039
-700.529	648.030	0.123	-0.319
-699.514	-200.000	-0.012	-0.181
-698.499	-200.000	0.019	0.085
-697.485	-127.877	0.216	-0.031
-696.470	-110.437	-0.380	-0.080
-695.456	-154.565	0.177	0.012
-694.441	-200.000	-0.050	0.261
-693.426	174.278	0.014	-0.021
-692.412	-137.943	0.243	-0.028
-691.397	-125.251	-0.128	-0.020
-690.383	-122.986	-0.121	-0.020
-689.368	229.245	-0.012	-0.020
-688.354	-89.874	-0.196	0.058
-687.339	-12.103	-0.267	0.177
-686.324	297.051	-0.018	-0.034
-685.310	101.680	0.045	0.053
-684.295	714.780	0.123	-0.330
-683.281	207.813	-0.199	-0.314
-682.266	-3.912	-0.378	-0.265
-681.251	-66.365	0.350	-0.141
-680.237	312.979	0.185	-0.352
-679.222	-200.000	0.020	-0.138
-678.208	-22.378	0.125	-0.077
-677.193	-67.601	-0.015	-0.006
-676.178	33.328	-0.358	-0.314
-675.164	149.552	0.100	-0.137
-674.149	800.000	0.009	0.030
-673.135	-48.857	0.372	-0.180
-672.120	776.451	-0.028	0.077
-671.105	231.320	0.093	0.155
-670.091	23.439	0.072	0.060
-669.076	489.069	0.007	-0.017
-668.062	148.127	-0.147	0.200
-667.047	-63.152	-0.152	-0.063
-666.032	-7.345	0.147	-0.101
-665.018	-70.343	-0.091	-0.035
-664.003	142.660	0.236	0.317
-662.989	-200.000	-0.032	-0.211
-661.974	-71.032	0.168	-0.064
-660.959	-200.000	0.005	0.133
-659.945	371.540	0.125	-0.257
-658.930	-61.808	0.154	-0.065
-657.916	-70.068	0.034	-0.013
-656.901	800.000	-0.020	0.060
-655.886	-160.423	-0.067	0.004
-654.872	800.000	-0.130	0.398
-653.857	-126.837	-0.258	0.038
-652.843	-64.137	-0.178	0.073
-651.828	800.000	0.084	-0.253
-650.814	-27.733	-0.180	-0.106
-649.799	63.711	0.110	0.112
-648.784	143.172	-0.088	-0.118
-647.770	-200.000	-0.042	0.229
-646.755	85.377	0.208	-0.231
-645.741	441.621	-0.151	0.334
-644.726	13.199	-0.264	-0.206
-643.711	249.921	-0.075	-0.128
-642.697	-105.105	0.131	0.030
-641.682	-96.852	0.174	-0.046
-640.668	-62.536	-0.207	-0.087
-639.653	-54.993	-0.270	-0.123
-638.638	146.049	-0.160	-0.217
-637.624	45.092	-0.152	-0.141
-636.609	53.797	0.043	-0.041
-635.595	528.063	-0.151	0.359
-634.580	-17.540	0.011	-0.007
-633.565	-129.265	0.491	-0.069
-632.551	-200.000	-0.033	0.236
-631.536	85.812	-0.314	0.349
-630.522	184.597	-0.195	-0.292
-629.507	167.427	-0.082	-0.118
-628.492	-100.880	0.537	0.133
-627.478	-72.490	0.087	0.033
-626.463	-191.446	0.441	-0.004
-625.449	-37.719	-0.211	0.113
-624.434	226.242	0.086	-0.140
-623.419	175.705	-0.352	0.515
-622.405	-34.906	-0.369	-0.203
-621.390	-153.974	-0.204	-0.014
-620.376	-2.286	0.180	-0.127
-619.361	800.000	-0.032	0.112
-618.346	800.000	0.152	-0.422
-617.332	34.582	0.112	-0.098
-616.317	59.771	-0.200	0.199
-615.303	100.439	-0.188	0.220
-614.288	299.267	0.033	-0.061
-613.273	800.000	0.065	0.190
-612.259	-147.051	-0.373	-0.032
-611.244	800.000	-0.057	-0.225
-610.230	-180.993	0.156	-0.003
-609.215	-93.906	-0.269	0.075
-608.201	-41.426	0.106	-0.055
-607.186	580.677	0.046	0.114
-606.171	193.746	-0.292	-0.446
-605.157	115.572	-0.139	-0.172
-604.142	-9.708	0.153	0.103
-603.128	379.961	-0.045	0.094
-602.113	800.000	0.051	0.190
-601.098	133.756	0.143	0.187
-600.084	241.493	-0.159	-0.268
-599.069	82.416	0.198	-0.216
-598.055	-17.760	-0.199	0.126
-597.040	-82.098	-0.125	0.041
-596.025	-95.968	0.238	0.064
-595.011	405.503	0.097	-0.205
-593.996	-93.921	-0.247	-0.068
-592.982	-106.004	-0.085	-0.019
-591.967	135.822	-0.215	0.283
-590.952	-158.969	0.398	-0.023
-589.938	617.982	0.184	-0.467
-588.923	583.512	-0.069	0.170
-587.909	-57.598	-0.391	-0.173
-586.894	73.759	-0.108	-0.114
-585.879	-200.000	0.034	0.249
-584.865	-200.000	0.082	0.000
-583.850	239.194	-0.254	-0.426
-582.836	102.173	0.286	0.336
-581.821	126.290	-0.055	-0.070
-580.806	114.282	-0.136	-0.167
-579.792	-172.256	0.364	-0.012
-578.777	3.143	-0.109	-0.080
-577.763	-200.000	-0.006	0.377
-576.748	800.000	-0.043	-0.161
-575.733	800.000	0.043	0.146
-574.719	122.041	0.089	-0.111
-573.704	-27.005	-0.494	-0.290
-572.690	-109.863	-0.108	0.023
-571.675	-163.981	0.018	0.001
-570.661	-32.069	0.248	-0.140
-569.646	-45.542	-0.170	0.085
-568.631	-200.000	-0.002	0.412
-567.617	215.729	0.152	0.243
-566.602	-200.000	-0.002	-0.259
-565.588	100.744	-0.209	0.245
-564.573	-102.603	0.642	-0.154
-563.558	800.000	-0.021	-0.087
-562.544	265.339	0.056	0.098
-561.529	-200.000	-0.060	-0.521
-560.515	-14.502	0.193	-0.125
-559.500	-104.979	0.239	0.055
-558.485	-23.387	-0.287	0.174
-557.471	-200.000	0.053	0.265
-556.456	-96.666	-0.338	0.090
-555.442	-200.000	0.000	-0.233
-554.427	167.813	0.064	-0.091
-553.412	74.167	0.289	0.305
-552.398	800.000	0.056	0.226
-551.383	188.748	-0.013	0.020
-550.369	-145.707	0.131	0.012
-549.354	-78.030	0.056	0.020
-548.339	-46.893	0.105	0.052
-547.325	-27.595	0.109	-0.064
-546.310	525.729	-0.165	-0.391
-545.296	-32.552	-0.052	0.029
-544.281	-156.717	-0.123	0.008
-543.266	-141.951	-0.110	0.011
-542.252	407.422	-0.093	-0.198
-541.237	152.875	-0.089	-0.122
-540.223	316.834	-0.086	0.164
-539.208	-110.134	-0.155	0.033
-538.193	800.000	0.043	-0.157
-537.179	653.335	-0.156	-0.402
-536.164	-200.000	-0.040	0.205
-535.150	-90.416	0.090	-0.026
-534.135	800.000	-0.028	-0.088
-533.121	-146.779	-0.058	0.005
-532.106	16.767	0.091	-0.072
-531.091	-48.513	-0.229	0.111
-530.077	-144.571	-0.293	-0.027
-529.062	-167.900	-0.151	-0.006
-528.048	618.987	-0.027	0.069
-527.033	800.000	-0.049	0.186
-526.018	-72.805	-0.160	-0.059
-525.004	-73.015	-0.250	0.092
-523.989	-19.342	-0.238	-0.149
-522.975	78.813	-0.281	0.303
-521.960	-200.000	-0.009	0.083
-520.945	153.094	-0.054	0.074
-519.931	46.241	0.113	-0.105
-518.916	716.770	0.032	0.085
-517.902	-89.793	-0.056	-0.016
-516.887	-116.242	0.260	-0.049
-515.872	6.426	0.046	0.034
-514.858	-74.900	0.283	-0.102
-513.843	800.000	-0.033	0.113
-512.829	-120.015	0.276	-0.047
-511.814	-200.000	-0.046	-0.216
-510.799	-200.000	-0.012	-0.055
-509.785	-67.611	0.348	-0.137
-508.770	15.722	-0.290	-0.229
-507.756	-32.015	0.035	-0.020
-506.741	148.752	0.165	-0.224
-505.726	-122.389	-0.240	0.039
-504.712	124.162	0.014	-0.017
-503.697	800.000	0.083	-0.255
-502.683	219.199	0.179	-0.287
-501.668	-108.333	-0.390	-0.084
-500.653	492.079	-0.160	0.369
-499.639	52.327	-0.277	0.265
-498.624	8.018	-0.093	-0.070
-497.610	-167.953	0.360	-0.014
-496.595	424.184	-0.071	-0.154
-495.581	71.482	0.267	-0.278
-494.566	-133.382	-0.307	0.039
-493.551	-118.447	-0.294	-0.052
-492.537	-60.862	0.178	-0.076
-491.522	-36.302	0.246	0.133
-490.508	74.377	-0.026	0.027
-489.493	-32.744	-0.145	-0.081
-488.478	-80.763	0.177	-0.059
-487.464	-42.880	-0.235	-0.120
-486.449	50.647	-0.129	0.123
-485.435	-158.621	-0.296	-0.017
-484.420	-200.000	-0.025	0.413
-483.405	118.352	-0.241	-0.299
-482.391	-78.235	-0.171	0.059
-481.376	-76.232	-0.079	-0.028
-480.362	152.721	0.099	0.136
-479.347	-12.833	0.266	-0.174
-478.332	-9.862	0.404	-0.270
-477.318	589.729	0.097	0.239
-476.303	-200.000	-0.021	-0.132
-475.289	-60.347	-0.313	0.134
-474.274	-105.616	0.558	-0.127
-473.259	800.000	-0.018	-0.052
-472.245	-161.647	0.339	-0.017
-471.230	-24.706	0.365	0.218
-470.216	-66.150	0.183	-0.073
-469.201	28.560	0.175	-0.148
-468.186	-43.367	0.161	-0.082
-467.172	108.296	0.032	0.039
-466.157	-13.690	-0.027	-0.017
-465.143	12.677	-0.245	0.189
-464.128	4.402	-0.121	0.089
-463.113	-65.963	-0.351	-0.141
-462.099	562.669	-0.076	-0.185
-461.084	-200.000	0.018	-0.158
-460.070	489.293	0.090	-0.205
-459.055	-41.544	-0.233	-0.120
-458.040	-98.932	-0.407	0.104
-457.026	156.387	0.330	-0.456
-456.011	-200.000	-0.023	0.387
-454.997	-152.288	0.355	-0.026
-453.982	-200.000	0.055	0.254
-452.968	800.000	0.032	-0.101
-451.953	84.628	-0.277	-0.304
-450.938	-74.329	-0.167	0.060
-449.924	415.489	-0.182	0.390
-448.909	354.003	-0.074	0.147
-447.895	-119.063	0.241	0.042
-446.880	-59.631	-0.211	0.091
-445.865	443.656	-0.115	-0.252
-444.851	291.682	-0.209	-0.381
-443.836	-66.538	0.055	0.022
-442.822	70.940	0.252	0.262
-441.807	-200.000	0.017	0.487
-440.792	-66.122	0.251	0.100
-439.778	109.127	-0.189	-0.227
-438.763	84.330	0.356	-0.390
-437.749	68.541	0.206	-0.212
-436.734	-52.059	-0.389	-0.181
-435.719	-109.989	0.230	0.048
-434.705	-46.539	-0.142	0.070
-433.690	-110.431	-0.198	-0.041
-432.676	666.125	-0.047	0.121
-431.661	498.451	-0.154	0.356
-430.646	-20.065	-0.312	0.193
-429.632	800.000	-0.071	0.225
-428.617	8.420	0.227	0.171
-427.603	800.000	-0.059	0.188
-426.588	252.741	0.159	-0.271
-425.573	217.273	0.078	-0.124
-424.559	-13.432	-0.329	-0.214
-423.544	-157.467	0.220	-0.013
-422.530	-85.587	-0.096	0.030
-421.515	800.000	0.006	-0.017
-420.500	-35.180	-0.263	0.143
-419.486	69.725	-0.010	-0.010
-418.471	800.000	-0.043	-0.189
-417.457	800.000	-0.057	0.238
-416.442	-24.522	0.194	0.116
-415.428	-200.000	0.028	0.232
-414.413	-9.146	0.105	-0.070
-413.398	-43.391	0.438	0.222
-412.384	-200.000	0.012	-0.147
-411.369	-131.917	-0.141	-0.018
-410.355	-200.000	-0.037	-0.307
-409.340	71.124	-0.050	0.051
-408.325	177.308	0.075	-0.109
-407.311	0.343	-0.257	0.184
-406.296	-100.713	-0.235	-0.058
-405.282	27.626	-0.261	-0.220
-404.267	800.000	0.077	-0.237
-403.252	-146.960	0.255	0.022
-402.238	800.000	0.047	0.196
-401.223	-200.000	-0.042	0.267
-400.209	800.000	0.013	0.057
-399.194	-200.000	0.246	0.000
-398.179	6.185	0.121	0.090
-397.165	167.042	0.069	0.098
-396.150	-200.000	-0.025	-0.215
-395.136	-24.432	-0.236	0.141
-394.121	-200.000	-0.018	0.140
-393.106	-200.000	0.066	0.406
-392.092	-3.601	0.199	0.138
-391.077	-200.000	0.023	0.170
-390.063	274.638	-0.059	0.104
-389.048	228.137	0.063	0.102
-388.033	-129.131	-0.249	0.035
-387.019	-200.000	0.294	-0.001
-386.004	-95.686	0.408	-0.109
-384.990	-51.559	-0.334	-0.156
-383.975	-48.423	0.134	0.065
-382.960	-185.643	-0.213	0.003
-381.946	-118.253	-0.188	0.033
-380.931	-200.000	-0.039	0.210
-379.917	-25.733	-0.141	0.083
-378.902	-49.082	0.186	-0.089
-377.888	42.490	-0.336	-0.305
-376.873	15.440	-0.162	0.127
-375.858	419.161	0.119	0.255
-374.844	347.616	0.060	-0.119
-373.829	24.792	0.178	-0.147
-372.815	-26.684	0.155	-0.091
-371.800	-123.508	-0.140	-0.022
-370.785	15.118	0.230	0.180
-369.771	-200.000	-0.020	-0.276
-368.756	-120.768	-0.226	-0.038
-367.742	-200.000	0.016	-0.180
-366.727	446.350	-0.187	0.411
-365.712	-41.035	0.198	-0.102
-364.698	-200.000	0.012	0.060
-363.683	-200.000	-0.005	-0.079
-362.669	-102.656	0.066	-0.016
-361.654	236.407	-0.120	0.198
-360.639	-79.323	-0.292	-0.099
-359.625	-41.829	0.200	-0.103
-358.610	260.140	0.097	-0.167
-357.596	88.144	0.074	-0.082
-356.581	246.430	0.035	-0.059
-355.566	255.250	-0.059	-0.101
-354.552	800.000	0.060	-0.209
-353.537	153.758	0.153	-0.209
-352.523	800.000	-0.123	0.420
-351.508	-102.046	0.226	0.054
-350.493	-200.000	0.033	-0.410
-349.479	-21.647	-0.127	-0.077
-348.464	-72.565	0.228	0.084
-347.450	-130.693	0.036	-0.005
-346.435	-200.000	-0.002	-0.256
-345.420	67.052	0.084	-0.086
-344.406	-47.860	0.302	-0.146
-343.391	-200.000	0.009	0.059
-342.377	491.570	-0.111	-0.254
-341.362	-200.000	-0.010	-0.147
-340.348	-0.462	0.120	0.085
-339.333	800.000	0.068	0.218
-338.318	554.726	-0.038	0.091
-337.304	-200.000	0.028	0.260
-336.289	90.247	0.066	-0.073
-335.275	-200.000	0.048	-0.368
-334.260	125.264	0.237	-0.298
-333.245	-75.147	-0.194	-0.069
-332.231	-131.743	0.250	0.033
-331.216	-104.242	0.361	-0.084
-330.202	-200.000	-0.001	0.096
-329.187	-168.798	-0.163	-0.006
-328.172	-200.000	-0.066	-0.323
-327.158	-192.865	-0.107	0.001
-326.143	-200.000	-0.032	-0.204
-325.129	-80.813	0.314	-0.104
-324.114	800.000	0.173	0.636
-323.099	-141.480	-0.332	0.033
-322.085	720.992	-0.137	-0.364
-321.070	-57.122	-0.103	0.045
-320.056	-31.563	-0.394	0.221
-319.041	-200.000	0.024	0.314
-318.026	-90.563	-0.118	-0.034
-317.012	316.203	0.117	-0.221
-315.997	88.523	-0.300	-0.333
-314.983	800.000	-0.034	0.111
-313.968	287.352	-0.102	0.184
-312.953	-133.700	-0.378	0.047
-311.939	800.000	0.062	-0.258
-310.924	800.000	0.042	-0.148
-309.910	123.705	0.195	0.244
-308.895	474.788	0.119	0.269
-307.880	339.844	0.073	-0.142
-306.866	115.972	0.139	0.170
-305.851	800.000	0.010	0.035
-304.837	26.411	0.019	-0.016
-303.822	800.000	-0.140	-0.408
-302.807	76.759	0.183	0.193
-301.793	-110.358	0.549	0.114
-300.778	214.290	0.196	0.309
-299.764	-10.457	-0.161	-0.106
-298.749	-181.790	-0.197	-0.004
-297.735	-127.577	0.252	-0.036
-296.720	-86.456	-0.232	-0.071
-295.705	-200.000	0.106	0.464
-294.691	561.554	0.056	-0.136
-293.676	-17.909	-0.137	-0.086
-292.662	-39.789	-0.149	0.078
-291.647	-47.269	0.370	0.180
-290.632	-158.689	0.175	-0.010
-289.618	326.288	0.044	-0.084
-288.603	-59.133	0.159	-0.068
-287.589	-116.712	0.179	-0.033
-286.574	-200.000	0.020	-0.184
-285.559	-200.000	0.036	0.279
-284.545	-200.000	0.028	0.250
-283.530	-55.880	-0.217	0.096
-282.516	-22.134	-0.112	-0.068
-281.501	-9.862	-0.268	0.177
-280.486	-200.000	-0.030	0.184
-279.472	776.588	-0.166	-0.452
-278.457	800.000	0.041	0.165
-277.443	108.575	-0.187	0.222
-276.428	-200.000	0.002	0.041
-275.413	800.000	0.051	-0.160
-274.399	169.032	-0.136	0.193
-273.384	704.939	-0.056	-0.146
-272.370	-94.358	0.234	-0.064
-271.355	-96.240	-0.145	0.038
-270.340	800.000	-0.069	0.287
-269.326	203.707	-0.176	0.272
-268.311	-200.000	0.034	-0.220
-267.297	697.029	0.048	-0.126
-266.282	248.304	0.045	-0.076
-265.267	176.342	-0.075	0.109
-264.253	-98.470	-0.163	-0.042
-263.238	-200.000	0.058	-0.503
-262.224	496.823	-0.157	0.360
-261.209	-74.824	-0.257	0.092
-260.195	7.520	0.248	-0.185
-259.180	-32.053	-0.155	-0.086
-258.165	-18.450	-0.241	-0.150
-257.151	-200.000	0.004	-0.062
-256.136	800.000	0.092	0.355
-255.122	-136.035	0.451	-0.053
-254.107	-143.708	-0.141	-0.013
-253.092	4.276	0.248	0.181
-252.078	800.000	0.107	0.306
-251.063	24.110	0.291	0.239
-250.049	251.538	0.123	0.208
-249.034	-55.361	0.201	-0.090
-248.019	-160.100	0.237	-0.013
-247.005	-200.000	-0.012	0.277
-245.990	800.000	0.056	-0.183
-244.976	684.089	-0.041	-0.105
-243.961	34.164	0.216	-0.188
-242.946	-120.175	0.410	0.070
-241.932	-200.000	-0.054	-0.293
-240.917	26.350	0.221	0.184
-239.903	-102.284	0.141	-0.034
-238.888	-200.000	0.029	-0.181
-237.873	-157.184	0.203	0.012
-236.859	319.395	-0.143	0.270
-235.844	-100.050	-0.097	-0.024
-234.830	-45.103	-0.073	-0.036
-233.815	-110.046	0.266	-0.055
-232.800	800.000	-0.072	0.259
-231.786	-200.000	-0.073	-0.395
-230.771	-81.463	0.200	-0.066
-229.757	-200.000	0.003	-0.164
-228.742	201.480	0.149	-0.228
-227.727	-89.586	0.077	0.022
-226.713	82.835	-0.166	-0.180
-225.698	-200.000	-0.003	-0.069
-224.684	617.340	-0.124	-0.310
-223.669	800.000	-0.083	0.249
-222.655	-175.340	-0.308	0.008
-221.640	-200.000	-0.010	-0.085
-220.625	-25.957	0.182	-0.107
-219.611	-200.000	-0.058	0.369
-218.596	800.000	-0.003	0.011
-217.582	32.976	0.217	0.187
-216.567	473.593	0.094	0.211
-215.552	-110.944	0.172	-0.035
-214.538	-166.928	-0.496	-0.020
-213.523	-140.209	0.214	0.022
-212.509	-200.000	-0.055	0.292
-211.494	-110.272	0.195	-0.040
-210.479	-40.710	-0.068	-0.035
-209.465	-42.730	-0.096	0.049
-208.450	-200.000	0.025	0.232
-207.436	-131.154	0.084	-0.011
-206.421	-17.077	0.092	0.058
-205.406	-116.488	-0.203	0.037
-204.392	-59.204	-0.154	-0.066
-203.377	-200.000	-0.005	0.218
-202.363	289.350	-0.081	0.145
-201.348	-200.000	0.004	0.064
-200.333	-47.363	0.208	-0.100
-199.319	-71.174	0.127	-0.048
-198.304	306.454	-0.057	-0.106
-197.290	42.933	0.162	-0.147
-196.275	0.740	-0.014	-0.010
-195.260	-104.859	-0.141	-0.032
-194.246	422.892	-0.102	-0.218
-193.231	800.000	0.064	0.277
-192.217	344.762	0.109	0.212
-191.202	329.188	0.024	-0.045
-190.187	365.321	0.069	-0.137
-189.173	-200.000	0.000	0.154
-188.158	-200.000	-0.024	-0.214
-187.144	12.466	0.383	0.293
-186.129	-31.183	0.214	-0.119
-185.114	-111.238	-0.291	0.059
-184.100	-57.705	0.131	0.057
-183.085	465.871	-0.010	-0.022
-182.071	-163.383	0.220	-0.010
-181.056	-200.000	0.014	0.379
-180.042	-196.827	-0.198	0.001
-179.027	123.037	0.070	-0.087
-178.012	-96.351	0.152	-0.040
-176.998	-200.000	-0.030	0.137
-175.983	377.304	0.183	0.372
-174.969	-117.387	-0.228	-0.041
-173.954	-69.737	0.082	-0.031
-172.939	-200.000	-0.023	-0.197
-171.925	97.734	-0.194	0.222
-170.910	65.800	0.030	0.030
-169.896	163.964	-0.081	0.113
-168.881	284.865	-0.128	0.229
-167.866	-54.164	-0.282	-0.127
-166.852	-58.312	-0.089	-0.038
-165.837	-116.059	-0.455	0.084
-164.823	-4.684	0.311	-0.213
-163.808	504.365	-0.089	0.204
-162.793	293.698	-0.064	0.115
-161.779	-15.309	0.122	-0.077
-160.764	-164.432	0.238	0.011
-159.750	-52.525	-0.043	-0.020
-158.735	-200.000	0.026	-0.117
-157.720	197.976	0.015	-0.022
-156.706	78.476	0.083	-0.088
-155.691	208.333	0.112	0.174
-154.677	-53.722	-0.193	-0.087
-153.662	93.595	0.032	-0.036
-152.647	-200.000	0.033	0.171
-151.633	88.435	0.191	-0.210
-150.618	-118.363	0.349	-0.061
-149.604	-200.000	0.007	0.052
-148.589	-200.000	-0.010	0.053
-147.574	-41.351	-0.210	-0.107
-146.560	800.000	0.027	0.087
-145.545	-200.000	-0.000	-0.035
-144.531	427.797	0.140	0.299
-143.516	281.073	-0.147	0.261
-142.502	75.491	-0.172	0.180
-141.487	-200.000	0.017	0.174
-140.472	-11.350	-0.084	-0.054
-139.458	-168.428	-0.376	-0.014
-138.443	-99.539	-0.081	0.020
-137.429	-200.000	0.045	0.295
-136.414	50.840	-0.151	-0.142
-135.399	386.676	-0.073	0.150
-134.385	-11.933	0.118	-0.077
-133.370	201.537	-0.246	0.375
-132.356	-74.655	-0.202	0.072
-131.341	493.507	0.018	-0.040
-130.326	470.492	0.069	-0.154
-129.312	-200.000	0.007	0.198
-128.297	-108.194	0.041	-0.009
-127.283	-200.000	-0.010	0.197
-126.268	-179.139	0.184	-0.004
-125.253	-179.279	-0.184	-0.004
-124.239	148.773	0.081	0.109
-123.224	800.000	-0.010	0.038
-122.210	-81.494	0.290	-0.095
-121.195	-200.000	-0.040	0.418
-120.180	474.860	-0.099	-0.222
-119.166	188.861	-0.154	-0.229
-118.151	56.809	0.307	-0.296
-117.137	328.300	-0.126	-0.240
-116.122	42.860	0.163	0.147
-115.107	51.852	0.204	0.192
-114.093	-99.913	-0.215	0.053
-113.078	133.575	0.188	-0.241
-112.064	-200.000	0.023	0.120
-111.049	-118.971	0.732	0.127
-110.034	85.166	0.148	0.161
-109.020	-66.769	-0.216	-0.084
-108.005	800.000	0.116	0.364
-106.991	-200.000	0.025	0.166
-105.976	704.556	0.120	-0.313
-104.962	-133.022	-0.069	-0.009
-103.947	313.869	-0.071	-0.132
-102.932	91.461	0.130	-0.144
-101.918	800.000	0.073	-0.261
-100.903	-200.000	0.017	-0.281
-99.889	-77.632	0.224	0.077
-98.874	800.000	-0.061	0.245
-97.859	39.824	-0.169	0.150
-96.845	247.317	-0.133	0.222
-95.830	114.063	0.224	0.269
-94.816	-95.742	-0.051	0.014
-93.801	-67.877	0.281	0.108
-92.786	-92.426	0.267	-0.074
-91.772	-168.716	0.077	0.003
-90.757	326.603	-0.033	0.062
-89.743	-200.000	-0.057	0.324
-88.728	-90.819	-0.386	0.110
-87.713	800.000	-0.109	0.419
-86.699	133.470	-0.123	0.157
-85.684	213.280	0.058	-0.091
-84.670	-200.000	0.002	-0.067
-83.655	-110.023	-0.028	0.006
-82.640	262.596	0.073	0.126
-81.626	-119.160	0.189	-0.033
-80.611	-200.000	0.020	0.138
-79.597	-121.677	-0.166	-0.027
-78.582	-122.864	-0.152	0.024
-77.567	48.432	0.052	0.048
-76.553	-112.755	-0.369	-0.072
-75.538	800.000	-0.052	0.202
-74.524	36.356	0.356	0.310
-73.509	15.989	0.140	0.109
-72.494	-126.039	-0.076	-0.011
-71.480	595.293	-0.080	0.196
-70.465	-91.984	-0.125	-0.035
-69.451	-174.194	-0.323	0.009
-68.436	300.752	-0.018	-0.032
-67.422	363.542	-0.074	-0.148
-66.407	-86.584	0.179	0.054
-65.392	-34.801	-0.348	0.188
-64.378	-93.629	0.196	0.053
-63.363	81.074	0.249	0.266
-62.349	-128.447	0.104	0.015
-61.334	79.870	-0.674	-0.715
-60.319	12.043	0.533	0.405
-59.305	334.310	-0.466	-0.890
-58.290	455.582	0.456	0.998
-57.276	711.798	0.675	1.765
-56.261	-200.000	96.668	584.839
-55.246	569.013	1373.781	3296.532
-54.232	153.960	2578.937	3490.538
-53.217	115.737	2178.933	2630.781
-52.203	45.794	1717.915	1567.835
-51.188	38.342	1529.259	1344.616
-50.173	35.851	1501.769	1303.542
-49.159	56.007	1553.209	1487.451
-48.144	59.888	1571.739	1531.810
-47.130	38.747	1527.045	1345.232
-46.115	35.393	1510.820	1308.070
-45.100	35.321	1507.554	1304.702
-44.086	35.220	1506.293	1302.870
-43.071	35.154	1504.362	1300.704
-42.057	35.038	1503.267	1298.913
-41.042	35.216	1501.792	1298.792
-40.027	35.139	1499.973	1296.652
-39.013	35.134	1498.641	1295.413
-37.998	35.226	1497.009	1294.571
-36.984	35.264	1495.824	1293.749
-35.969	35.279	1494.811	1292.926
-34.954	35.140	1493.607	1290.894
-33.940	35.169	1491.788	1289.471
-32.925	35.252	1490.207	1288.607
-31.911	35.244	1489.198	1287.632
-30.896	35.266	1487.874	1286.583
-29.881	35.217	1486.717	1285.201
-28.867	35.135	1485.673	1283.699
-27.852	35.233	1483.743	1282.638
-26.838	35.257	1482.309	1281.509
-25.823	35.245	1480.572	1279.873
-24.809	35.232	1478.972	1278.356
-23.794	35.175	1478.219	1277.273
-22.779	35.270	1476.718	1276.561
-21.765	35.227	1475.195	1274.903
-20.750	35.221	1474.389	1274.118
-19.736	35.313	1473.101	1273.565
-18.721	35.210	1472.073	1271.941
-17.706	35.125	1471.057	1270.453
-16.692	35.271	1469.565	1270.076
-15.677	35.115	1468.920	1268.435
-14.663	35.085	1467.950	1267.351
-13.648	35.164	1467.413	1267.360
-12.633	35.069	1466.480	1265.875
-11.619	35.181	1465.200	1265.458
-10.604	35.108	1464.372	1264.210
-9.590	35.177	1463.936	1264.239
-8.575	35.197	1462.674	1263.235
-7.560	35.164	1462.007	1262.388
-6.546	35.148	1461.269	1261.595
-5.531	35.096	1460.750	1260.759
-4.517	35.155	1459.538	1260.049
-3.502	35.103	1458.357	1258.640
-2.487	35.120	1457.488	1257.946
-1.473	35.070	1456.168	1256.432
-0.458	35.167	1454.684	1255.736
0.556	35.297	1445.495	1244.334
1.571	32.344	1418.922	1202.506
2.586	28.966	1357.813	1129.908
3.600	27.236	1276.017	1051.750
4.615	25.736	1229.453	1004.916
5.629	21.999	1172.090	938.017
6.644	11.471	1085.323	816.133
7.659	3.170	1041.257	742.977
8.673	2.017	1035.409	733.202
9.688	1.749	1032.333	729.675
10.702	1.631	1030.630	727.843
11.717	1.683	1028.927	726.826
12.731	5.348	1033.557	747.582
13.746	15.618	1048.000	807.547
14.761	23.153	1057.438	851.141
15.775	24.728	1058.432	859.443
16.790	24.858	1058.147	859.761
17.804	24.712	1057.626	858.557
18.819	24.511	1056.069	856.255
19.834	24.520	1056.208	856.335
20.848	24.746	1055.201	856.528
21.863	24.809	1055.147	856.707
22.877	24.783	1054.459	855.951
23.892	24.697	1053.781	854.913
24.907	24.698	1053.092	854.285
25.921	24.724	1052.130	853.549
26.936	24.711	1051.889	853.216
27.950	24.697	1050.456	851.912
28.965	24.709	1049.362	851.007
29.980	24.508	1047.796	848.706
30.994	24.534	1047.017	848.125
32.009	24.692	1046.243	848.172
33.023	24.947	1045.777	848.929
34.038	24.584	1044.539	846.130
35.053	24.492	1044.045	845.220
36.067	24.609	1043.544	845.289
37.082	24.651	1042.754	844.776
38.096	24.893	1042.181	845.380
39.111	24.893	1040.958	844.312
40.126	24.965	1040.265	844.017
41.140	24.951	1038.856	842.730
42.155	24.701	1037.290	840.212
43.169	24.378	1036.129	837.680
44.184	24.429	1035.100	837.017
45.199	24.359	1034.529	836.150
46.213	24.288	1033.541	834.946
47.228	24.294	1032.807	834.307
48.242	24.548	1031.854	834.648
49.257	24.607	1031.054	834.204
50.271	24.596	1030.359	833.519
51.286	24.673	1029.873	833.411
52.301	24.695	1029.165	832.867
53.315	24.786	1028.466	832.649
54.330	24.843	1027.748	832.258
55.344	24.543	1027.405	830.514
56.359	24.602	1026.419	829.915
57.374	24.730	1025.114	829.381
58.388	24.480	1024.557	827.700
59.403	24.625	1022.972	827.015
60.417	24.498	1022.723	826.154
61.432	24.278	1021.977	824.462
62.447	24.374	1021.108	824.130
63.461	24.358	1021.014	823.908
64.476	24.592	1019.604	823.775
65.490	24.407	1018.694	822.115
66.505	24.263	1018.385	821.131
67.520	24.306	1017.353	820.422
68.534	24.464	1016.751	820.591
69.549	24.288	1015.593	818.779
70.563	24.133	1014.542	817.145
71.578	24.026	1013.731	815.928
72.593	24.007	1012.977	815.164
73.607	23.910	1011.565	813.510
74.622	23.841	1010.832	812.536
75.636	24.089	1010.255	813.132
76.651	24.337	1009.633	813.693
77.666	24.149	1008.725	812.030
78.680	24.112	1007.721	810.984
79.695	24.104	1007.353	810.576
80.709	24.222	1006.898	810.678
81.724	24.256	1006.301	810.277
82.739	24.432	1004.881	809.861
83.753	24.305	1004.073	808.564
84.768	24.517	1003.752	809.194
85.782	24.846	1003.123	810.105
86.797	25.113	1002.150	810.455
87.812	24.990	1001.809	809.551
88.826	24.864	1000.814	808.109
89.841	24.978	999.867	807.785
90.855	25.013	999.214	807.343
91.870	25.059	998.280	806.726
92.884	25.045	997.536	805.990
93.899	24.879	996.786	804.565
94.914	24.753	995.820	803.149
95.928	24.737	995.512	802.760
96.943	24.857	994.265	802.218
97.957	24.553	993.251	799.971
98.972	24.342	991.907	797.873
99.987	24.265	991.253	796.933
101.001	24.318	990.318	796.345
102.016	24.611	990.213	797.500
103.030	24.669	989.119	796.807
104.045	24.583	988.380	795.758
105.060	24.468	986.957	794.029
106.074	24.258	985.371	791.751
107.089	24.464	984.732	792.079
108.103	24.579	984.647	792.454
109.118	24.873	983.804	793.007
110.133	24.540	982.488	790.401
111.147	24.402	981.736	789.116
112.162	24.240	980.556	787.382
113.176	24.146	979.217	785.825
114.191	24.149	978.904	785.515
115.206	24.351	977.947	785.570
116.220	24.117	976.863	783.599
117.235	23.968	975.646	781.900
118.249	24.050	975.481	782.056
119.264	24.226	974.502	781.974
120.279	24.086	973.543	780.521
121.293	24.104	972.648	779.814
122.308	24.159	972.143	779.583
123.322	24.183	971.202	778.862
124.337	23.965	970.605	777.364
125.352	24.038	969.046	776.366
126.366	23.577	967.258	772.855
127.381	23.324	966.019	770.699
128.395	23.869	965.810	772.834
129.410	24.393	965.938	775.145
130.424	24.491	965.270	774.963
131.439	24.636	963.933	774.453
132.454	24.610	962.551	773.158
133.468	24.681	961.684	772.701
134.483	24.545	961.458	771.864
135.497	24.561	960.505	771.100
136.512	24.819	960.158	771.865
137.527	24.972	959.514	771.940
138.541	24.791	958.787	770.508
139.556	24.940	957.650	770.166
140.570	24.800	957.094	769.047
141.585	24.882	956.047	768.489
142.600	24.772	955.362	767.403
143.614	24.687	954.438	766.227
144.629	25.135	953.408	767.250
145.643	25.182	953.339	767.328
146.658	25.028	952.239	765.714
147.673	24.811	950.681	763.471
148.687	24.641	949.944	762.083
149.702	24.577	949.059	761.036
150.716	24.694	947.718	760.391
151.731	24.517	946.691	758.747
152.746	24.775	945.937	759.172
153.760	24.928	945.603	759.482
154.775	24.995	944.948	759.175
155.789	24.940	944.074	758.174
156.804	25.015	942.722	757.338
157.819	24.799	942.224	755.959
158.833	24.884	941.619	755.765
159.848	24.969	940.869	755.453
160.862	25.234	939.854	755.689
161.877	25.115	938.649	754.153
162.892	24.854	938.157	752.593
163.906	25.102	937.210	752.808
164.921	25.017	936.210	751.581
165.935	25.037	934.827	750.488
166.950	24.931	934.348	749.593
167.964	24.983	933.702	749.225
168.979	24.922	932.650	748.061
169.994	24.746	931.503	746.339
171.008	24.712	930.683	745.475
172.023	24.894	929.875	745.520
173.037	25.098	929.174	745.741
174.052	25.005	927.904	744.270
175.067	24.640	927.352	742.246
176.081	24.594	926.363	741.198
177.096	24.716	925.619	741.043
178.110	24.867	924.282	740.533
179.125	24.542	923.515	738.508
180.140	24.427	922.429	737.100
181.154	24.250	922.018	735.974
182.169	24.450	921.811	736.569
183.183	24.761	920.964	737.112
184.198	24.992	920.920	737.960
185.213	25.037	919.798	737.182
186.227	24.867	919.302	736.021
187.242	24.937	919.007	736.008
188.256	24.923	918.716	735.650
189.271	24.984	917.437	734.811
190.286	25.008	916.936	734.442
191.300	24.810	915.933	732.763
192.315	24.511	914.327	730.193
193.329	23.609	912.734	725.171
194.344	23.186	912.173	722.936
195.359	23.723	912.439	725.277
196.373	24.725	912.417	729.283
197.388	24.878	912.087	729.577
198.402	24.891	911.543	729.130
199.417	24.804	910.865	728.169
200.432	24.870	910.566	728.133
201.446	24.587	909.968	726.442
202.461	24.417	909.252	725.114
203.475	24.424	908.842	724.753
204.490	24.174	906.781	722.030
205.504	22.905	904.790	715.249
206.519	23.208	905.014	716.587
207.534	24.321	905.120	721.113
208.548	24.421	904.837	721.226
209.563	24.763	904.837	722.547
210.577	24.733	903.867	721.585
211.592	24.703	902.674	720.447
212.607	24.906	902.616	721.155
213.621	25.084	902.359	721.602
214.636	24.914	901.640	720.283
215.650	24.936	901.253	719.998
216.665	24.966	900.358	719.337
217.680	25.096	899.869	719.405
218.694	25.068	899.452	718.898
219.709	24.845	898.660	717.306
220.723	24.340	897.751	714.494
221.738	24.550	897.365	714.963
222.753	24.874	896.635	715.615
223.767	24.776	895.795	714.491
224.782	24.786	895.488	714.222
225.796	25.054	894.411	714.367
226.811	25.147	894.314	714.601
227.826	24.775	893.028	712.028
228.840	23.929	891.378	707.285
229.855	23.914	891.105	706.949
230.869	24.250	890.640	707.849
231.884	23.845	889.719	705.449
232.899	23.848	889.110	704.915
233.913	24.583	889.458	708.043
234.928	24.850	888.822	708.533
235.942	24.504	888.573	706.900
236.957	24.744	887.562	706.982
237.972	24.541	886.154	704.999
238.986	24.312	886.135	704.016
240.001	24.396	885.656	703.903
241.015	24.278	884.829	702.719
242.030	24.652	883.757	703.281
243.045	24.727	883.368	703.202
244.059	24.651	883.594	703.019
245.074	24.876	882.704	703.135
246.088	24.880	881.895	702.444
247.103	24.575	881.026	700.494
248.117	24.652	880.229	700.099
249.132	25.097	880.549	702.037
250.147	25.511	879.882	703.062
251.161	25.600	879.679	703.184
252.176	25.696	879.286	703.181
253.190	25.497	878.910	702.043
254.205	25.726	878.384	702.454
255.220	25.876	877.912	702.601
256.234	25.946	877.029	702.103
257.249	25.943	876.154	701.329
258.263	25.616	875.664	699.605
259.278	25.559	875.327	699.051
260.293	25.646	875.086	699.133
261.307	25.742	874.033	698.604
262.322	25.745	873.591	698.201
263.336	25.628	872.744	697.007
264.351	25.112	871.390	693.867
265.366	24.130	869.205	688.273
266.380	23.520	868.675	685.437
267.395	24.503	868.960	689.400
268.409	25.371	868.954	692.683
269.424	25.197	868.425	691.530
270.439	25.372	867.873	691.703
271.453	25.496	867.361	691.710
272.468	25.421	867.021	691.089
273.482	25.662	866.470	691.516
274.497	25.810	866.136	691.756
275.512	25.643	865.132	690.252
276.526	25.014	863.745	686.676
277.541	25.212	863.283	687.004
278.555	25.454	863.323	687.902
279.570	25.398	862.849	687.249
280.585	25.198	861.855	685.632
281.599	25.160	861.697	685.303
282.614	25.398	861.040	685.626
283.628	24.962	859.358	682.565
284.643	24.661	858.840	680.949
285.657	25.095	858.674	682.409
286.672	24.871	857.961	680.927
287.687	24.388	857.158	678.397
288.701	24.744	857.151	679.683
289.716	25.234	856.637	681.077
290.730	24.935	855.680	679.123
291.745	24.666	855.071	677.559
292.760	24.611	854.199	676.598
293.774	24.559	853.537	675.818
294.789	25.402	854.227	679.496
295.803	26.146	854.086	682.133
296.818	25.978	854.007	681.378
297.833	26.198	853.288	681.574
298.847	25.895	852.234	679.531
299.862	25.602	851.010	677.391
300.876	25.705	850.876	677.611
301.891	25.983	850.487	678.286
302.906	26.162	849.738	678.302
303.920	25.813	848.619	676.040
304.935	25.633	848.083	674.878
305.949	25.861	848.307	675.852
306.964	26.171	847.479	676.294
307.979	25.834	846.645	674.307
308.993	25.655	846.677	673.602
310.008	26.190	846.128	675.106
311.022	26.199	845.900	674.900
312.037	26.008	845.477	673.787
313.052	25.842	844.303	672.175
314.066	25.771	843.529	671.232
315.081	25.069	841.958	667.312
316.095	24.343	840.187	663.150
317.110	24.746	841.244	665.424
318.125	25.709	841.289	668.982
319.139	25.312	840.451	666.784
320.154	24.148	838.474	660.839
321.168	23.688	837.726	658.489
322.183	24.282	837.921	660.786
323.197	25.224	838.528	664.696
324.212	25.532	838.345	665.633
325.227	25.613	837.827	665.461
326.241	25.996	837.220	666.337
327.256	25.711	836.963	665.021
328.270	25.677	835.780	663.897
329.285	25.628	835.341	663.307
330.300	25.207	834.880	661.330
331.314	25.099	833.889	660.091
332.329	25.356	833.190	660.422
333.343	25.774	832.894	661.668
334.358	25.910	832.389	661.706
335.373	25.907	832.083	661.394
336.387	25.943	831.734	661.189
337.402	26.106	831.345	661.418
338.416	26.314	830.821	661.704
339.431	26.372	830.206	661.371
340.446	26.413	829.680	661.044
341.460	26.521	829.570	661.291
342.475	26.534	828.526	660.450
343.489	26.218	827.866	658.709
344.504	26.328	827.702	658.924
345.519	26.479	827.292	659.087
346.533	26.715	826.895	659.574
347.548	26.850	826.430	659.634
348.562	26.839	826.178	659.334
349.577	26.647	825.631	658.142
350.592	26.635	825.036	657.567
351.606	26.578	824.434	656.822
352.621	26.656	824.054	656.742
353.635	26.520	823.619	655.845
354.650	26.376	823.356	655.057
355.665	26.272	821.678	653.288
356.679	25.126	820.385	648.063
357.694	24.955	820.016	647.097
358.708	25.595	819.716	649.112
359.723	25.635	819.157	648.755
360.738	25.836	818.898	649.219
361.752	26.238	818.760	650.499
362.767	26.428	818.465	650.891
363.781	26.521	818.470	651.171
364.796	26.998	818.460	652.823
365.810	27.048	818.222	652.754
366.825	27.069	817.493	652.192
367.840	27.096	817.369	652.132
368.854	26.870	816.617	650.663
369.869	26.492	815.574	648.420
370.883	26.351	814.767	647.218
371.898	26.575	813.958	647.316
372.913	26.392	813.851	646.521
373.927	26.423	812.870	645.796
374.942	26.511	812.347	645.636
375.956	26.664	811.967	645.822
376.971	26.860	811.186	645.844
377.986	26.804	811.211	645.606
379.000	27.044	810.846	646.113
380.015	27.161	810.224	645.976
381.029	26.819	809.335	643.993
382.044	26.809	809.290	643.865
383.059	26.852	808.748	643.531
384.073	27.105	807.989	643.766
385.088	27.099	807.537	643.329
386.102	26.878	807.257	642.264
387.117	26.890	805.925	641.191
388.132	26.848	805.186	640.399
389.146	26.558	804.635	638.881
390.161	25.989	803.750	636.113
391.175	25.994	803.833	636.142
392.190	26.533	803.872	638.016
393.205	26.639	803.250	637.841
394.219	25.693	801.435	633.018
395.234	24.009	799.219	625.300
396.248	23.225	798.200	621.696
397.263	24.317	799.154	626.219
398.278	26.134	800.385	633.512
399.292	26.481	800.352	634.648
400.307	26.172	799.740	633.023
401.321	26.258	799.235	632.867
402.336	26.152	799.101	632.335
403.350	26.585	798.723	633.495
404.365	27.158	798.474	635.245
405.380	27.278	798.494	635.624
406.394	27.535	798.357	636.357
407.409	27.808	797.511	636.577
408.423	27.717	797.579	636.258
409.438	27.617	797.070	635.449
410.453	27.725	796.231	635.097
411.467	27.804	795.761	634.943
412.482	27.690	795.353	634.165
413.496	27.563	795.312	633.636
414.511	27.910	794.412	634.066
415.526	27.820	794.300	633.608
416.540	27.759	793.937	633.049
417.555	27.876	792.918	632.588
418.569	27.473	792.404	630.727
419.584	27.461	791.624	630.008
420.599	27.554	791.158	629.902
421.613	107.831	1279.776	1442.501
422.628	92.668	1350.980	1442.604
