DTS Sentinel unit serial number:	SN413079Multiplexer serial number:	ORYXHardware model number:	OX4-SRSoftware version number:	ORYX F/W v4.00 Oryx Data Collector v3.7.2.0data status	okinstallation	princeton_trtdifferential loss correction	single-endedforward channel	channel 3reverse channel	N/Adate	2019/09/11time	11:58:10forward acquisition time	60.00reverse acquisition time	0.00gamma	496.2192k internal	0.2292k external	0.2292temperature offset calibration	0.9937default loss term (dB/km)	0.3790temperature slope calibration	1.0000multiplexer offset coefficient	1.0000multiplexer slope coefficient	1.0000fibre end	0.00T internal ref (°C)	39.19T ext. ref 1 (°C)	0.23T ext. ref 2 (°C)	36.92length (m)	temperature (°C)	Stokes	anti-Stokes-747.200	-26.226	0.126	0.076
-746.185	-179.501	0.042	-0.001
-745.171	-97.592	0.243	-0.064
-744.156	-200.000	0.007	0.105
-743.142	509.464	0.023	-0.055
-742.127	-200.000	0.005	0.218
-741.112	-111.526	0.077	-0.016
-740.098	800.000	0.098	0.346
-739.083	332.854	0.111	-0.219
-738.069	-107.057	-0.122	-0.027
-737.054	396.722	-0.124	0.264
-736.039	-42.501	-0.303	0.158
-735.025	185.570	0.096	0.146
-734.010	-2.852	-0.200	0.143
-732.996	12.391	-0.244	-0.193
-731.981	-200.000	0.001	-0.443
-730.966	-113.762	-0.046	0.009
-729.952	800.000	-0.116	-0.330
-728.937	-58.162	-0.313	-0.139
-727.923	-135.750	0.330	0.040
-726.908	-72.077	-0.012	0.005
-725.894	-200.000	0.201	-0.000
-724.879	-61.431	0.302	0.130
-723.864	800.000	0.047	-0.137
-722.850	29.141	0.389	-0.337
-721.835	49.294	-0.193	-0.185
-720.821	800.000	-0.052	-0.205
-719.806	-200.000	-0.026	-0.367
-718.791	-200.000	0.011	-0.349
-717.777	-77.451	0.222	-0.079
-716.762	-0.461	-0.167	0.121
-715.748	800.000	0.021	0.079
-714.733	800.000	0.094	0.267
-713.718	-96.753	-0.229	0.061
-712.704	-200.000	0.027	0.176
-711.689	-162.136	0.446	-0.023
-710.675	-36.465	0.217	0.119
-709.660	-103.613	-0.469	0.113
-708.645	-67.401	0.063	0.025
-707.631	-64.406	-0.469	0.195
-706.616	486.373	0.191	-0.445
-705.602	-200.000	-0.067	-0.376
-704.587	176.012	0.173	0.256
-703.572	-129.239	0.326	0.046
-702.558	800.000	0.116	-0.394
-701.543	800.000	0.060	-0.181
-700.529	-200.000	-0.011	-0.050
-699.514	-200.000	-0.023	-0.155
-698.499	-159.205	-0.083	0.005
-697.485	-174.147	-0.161	-0.005
-696.470	80.764	0.214	-0.236
-695.456	-67.048	0.130	0.052
-694.441	-173.941	0.299	-0.009
-693.426	-200.000	-0.040	-0.240
-692.412	-200.000	0.089	-0.464
-691.397	-135.019	-0.168	0.021
-690.383	-133.001	-0.257	-0.033
-689.368	-22.847	-0.332	-0.204
-688.354	-34.851	0.157	0.088
-687.339	210.749	0.102	-0.164
-686.324	548.102	-0.036	0.088
-685.310	144.151	0.144	-0.196
-684.295	-0.660	-0.182	-0.132
-683.281	-46.019	-0.058	-0.029
-682.266	-200.000	-0.065	-0.400
-681.251	-11.585	-0.097	0.065
-680.237	-23.395	-0.179	-0.110
-679.222	71.535	0.373	0.395
-678.208	144.103	0.138	0.188
-677.193	124.560	0.281	-0.361
-676.178	-70.506	-0.309	-0.119
-675.164	-143.198	0.204	-0.020
-674.149	-200.000	-0.020	0.134
-673.135	30.606	-0.075	0.066
-672.120	-45.325	-0.095	-0.048
-671.105	-120.854	0.101	0.017
-670.091	-200.000	-0.022	0.253
-669.076	324.948	0.088	0.172
-668.062	215.580	-0.180	0.291
-667.047	-15.635	-0.250	-0.163
-666.032	-74.548	-0.242	0.089
-665.018	-131.423	0.237	0.032
-664.003	800.000	-0.020	0.062
-662.989	-115.520	0.108	-0.021
-661.974	192.141	-0.040	0.061
-660.959	-35.651	-0.089	-0.049
-659.945	-98.733	0.387	-0.101
-658.930	64.520	0.196	-0.201
-657.916	78.525	-0.030	0.032
-656.901	800.000	0.053	0.178
-655.886	-68.961	0.206	0.081
-654.872	-40.366	0.239	-0.127
-653.857	306.210	0.073	0.139
-652.843	-104.756	-0.275	0.064
-651.828	257.037	0.153	0.268
-650.814	-200.000	0.023	0.297
-649.799	4.717	-0.223	0.167
-648.784	-58.644	-0.294	-0.130
-647.770	-200.000	-0.009	0.148
-646.755	-156.252	0.195	-0.013
-645.741	-25.973	0.103	0.062
-644.726	279.419	0.232	-0.422
-643.711	-72.011	0.144	0.054
-642.697	124.390	-0.061	0.079
-641.682	75.625	-0.054	0.058
-640.668	-109.131	0.155	-0.034
-639.653	59.000	0.073	0.073
-638.638	-192.264	-0.209	0.002
-637.624	-7.583	0.208	-0.143
-636.609	800.000	-0.037	-0.135
-635.595	409.913	-0.150	0.324
-634.580	-200.000	0.058	0.300
-633.565	-126.599	0.211	0.032
-632.551	-200.000	-0.051	0.403
-631.536	-200.000	0.088	-0.471
-630.522	-79.956	-0.188	-0.064
-629.507	-200.000	-0.034	-0.293
-628.492	56.417	0.279	-0.276
-627.478	800.000	0.059	-0.252
-626.463	-19.355	-0.077	-0.049
-625.449	-200.000	-0.030	0.351
-624.434	-173.108	-0.395	-0.012
-623.419	414.241	0.104	0.226
-622.405	28.062	0.521	0.448
-621.390	-200.000	0.012	-0.098
-620.376	-99.312	-0.108	-0.028
-619.361	41.546	-0.195	-0.180
-618.346	396.559	0.067	0.143
-617.332	800.000	-0.101	-0.309
-616.317	-9.171	-0.119	-0.081
-615.303	120.614	0.229	0.290
-614.288	57.267	0.186	-0.185
-613.273	-93.559	0.001	0.000
-612.259	148.308	-0.104	0.142
-611.244	-195.519	-0.055	-0.000
-610.230	208.301	0.223	0.355
-609.215	-98.200	-0.147	-0.038
-608.201	-77.553	-0.227	-0.080
-607.186	-156.518	0.148	0.009
-606.171	800.000	0.047	-0.156
-605.157	32.903	0.111	0.098
-604.142	-180.409	0.080	-0.002
-603.128	-200.000	-0.014	-0.309
-602.113	-99.141	-0.364	-0.094
-601.098	-26.370	0.120	0.072
-600.084	-89.931	0.260	-0.077
-599.069	292.569	-0.155	-0.288
-598.055	-200.000	-0.051	-0.289
-597.040	31.846	-0.188	-0.164
-596.025	688.714	-0.079	-0.211
-595.011	-200.000	0.062	-0.304
-593.996	800.000	0.062	0.189
-592.982	49.064	0.224	0.214
-591.967	-200.000	-0.021	-0.199
-590.952	296.412	0.136	0.254
-589.938	34.318	0.068	0.060
-588.923	-200.000	-0.053	-0.248
-587.909	-200.000	0.019	-0.099
-586.894	-30.353	-0.045	-0.026
-585.879	800.000	-0.047	0.140
-584.865	800.000	0.076	-0.280
-583.850	-200.000	0.026	-0.159
-582.836	-200.000	-0.033	-0.194
-581.821	-154.723	0.113	0.008
-580.806	800.000	0.063	0.210
-579.792	56.705	0.258	0.256
-578.777	-59.871	-0.177	0.077
-577.763	800.000	0.036	0.100
-576.748	800.000	-0.106	0.321
-575.733	-121.687	-0.433	0.073
-574.719	800.000	-0.072	-0.233
-573.704	-200.000	0.051	-0.241
-572.690	-55.977	-0.094	0.042
-571.675	69.336	-0.149	-0.155
-570.661	249.698	0.110	-0.190
-569.646	-197.718	-0.398	0.002
-568.631	-102.010	0.272	0.067
-567.617	-200.000	0.018	-0.256
-566.602	694.764	0.234	-0.623
-565.588	165.364	0.035	0.050
-564.573	239.035	-0.156	0.264
-563.558	-78.944	-0.352	-0.122
-562.544	-73.628	0.131	0.048
-561.529	800.000	-0.055	0.165
-560.515	-88.612	-0.295	0.089
-559.500	-141.198	0.165	0.017
-558.485	433.439	-0.132	0.290
-557.471	-127.387	-0.122	0.018
-556.456	-134.231	-0.027	-0.003
-555.442	-150.773	0.076	-0.006
-554.427	6.868	0.199	0.151
-553.412	-92.247	-0.275	-0.079
-552.398	800.000	-0.058	0.175
-551.383	87.713	0.017	-0.019
-550.369	330.516	0.126	-0.247
-549.354	-48.171	0.114	0.056
-548.339	-119.880	-0.198	-0.035
-547.325	-62.706	-0.087	0.037
-546.310	144.447	0.082	-0.111
-545.296	-108.685	0.166	-0.036
-544.281	-17.273	0.176	0.113
-543.266	-61.036	-0.134	0.058
-542.252	-65.150	-0.099	0.041
-541.237	800.000	-0.022	0.084
-540.223	800.000	0.081	-0.284
-539.208	-200.000	0.029	-0.263
-538.193	800.000	-0.006	-0.019
-537.179	-88.330	0.345	-0.105
-536.164	-119.936	0.044	-0.008
-535.150	25.415	0.180	0.152
-534.135	800.000	0.040	0.129
-533.121	800.000	0.082	0.281
-532.106	-127.472	-0.029	-0.004
-531.091	-200.000	-0.272	0.001
-530.077	-200.000	0.039	0.242
-529.062	-36.219	-0.205	0.113
-528.048	-200.000	0.009	0.151
-527.033	119.031	0.181	0.228
-526.018	-200.000	0.002	0.324
-525.004	800.000	-0.035	0.116
-523.989	800.000	0.042	-0.134
-522.975	-200.000	-0.223	-0.001
-521.960	-55.079	0.119	-0.054
-520.945	-132.420	0.331	-0.043
-519.931	-200.000	0.086	0.382
-518.916	-52.002	0.319	0.150
-517.902	87.683	-0.344	0.386
-516.887	296.374	-0.179	-0.333
-515.872	145.386	-0.108	-0.147
-514.858	658.851	0.042	-0.111
-513.843	-12.994	-0.022	-0.014
-512.829	800.000	-0.067	0.192
-511.814	74.482	-0.202	-0.216
-510.799	-87.867	-0.242	0.074
-509.785	2.258	-0.099	-0.072
-508.770	-61.590	0.152	0.065
-507.756	75.968	-0.088	0.094
-506.741	-76.692	0.143	-0.051
-505.726	-116.463	-0.161	-0.030
-504.712	-200.000	0.027	-0.240
-503.697	800.000	0.055	-0.234
-502.683	312.673	0.094	-0.179
-501.668	11.156	-0.171	0.133
-500.653	-85.451	-0.261	0.082
-499.639	-93.243	0.022	0.006
-498.624	-200.000	-0.012	-0.141
-497.610	800.000	0.043	-0.133
-496.595	-34.858	0.009	0.005
-495.581	-163.644	0.128	0.006
-494.566	43.450	-0.150	0.139
-493.551	-200.000	-0.003	-0.168
-492.537	-200.000	-0.073	0.499
-491.522	-200.000	-0.020	0.251
-490.508	27.423	0.127	-0.108
-489.493	800.000	-0.028	0.086
-488.478	290.520	0.030	-0.056
-487.464	-136.727	-0.042	0.005
-486.449	-90.588	0.206	0.060
-485.435	-200.000	0.021	-0.142
-484.420	-193.826	0.307	0.003
-483.405	-200.000	0.076	0.346
-482.391	-200.000	-0.004	0.115
-481.376	-83.029	0.212	-0.069
-480.362	140.072	-0.146	0.196
-479.347	800.000	-0.088	0.315
-478.332	20.469	-0.210	-0.172
-477.318	-163.062	-0.098	0.005
-476.303	18.366	-0.126	-0.102
-475.289	-29.322	-0.224	0.130
-474.274	-70.217	-0.342	0.131
-473.259	308.810	0.047	0.089
-472.245	800.000	0.053	-0.160
-471.230	227.167	0.121	-0.200
-470.216	800.000	0.087	0.385
-469.201	-200.000	-0.028	0.170
-468.186	-200.000	-0.046	-0.218
-467.172	800.000	0.049	-0.181
-466.157	-118.481	0.368	0.066
-465.143	-157.466	-0.053	-0.003
-464.128	-200.000	0.014	-0.197
-463.113	-200.000	-0.017	-0.166
-462.099	-200.000	-0.065	0.355
-461.084	25.669	-0.282	0.238
-460.070	112.617	0.056	0.069
-459.055	-200.000	-0.017	0.082
-458.040	25.230	0.176	0.148
-457.026	-116.513	-0.180	0.034
-456.011	-200.000	0.113	-0.593
-454.997	84.292	-0.146	0.162
-453.982	800.000	0.140	0.424
-452.968	-200.000	0.012	0.134
-451.953	539.446	-0.124	0.298
-450.938	195.796	0.032	0.049
-449.924	387.105	-0.133	0.277
-448.909	-109.807	-0.130	0.028
-447.895	-87.270	-0.021	0.006
-446.880	-111.703	0.393	-0.080
-445.865	76.087	-0.185	-0.198
-444.851	800.000	0.062	0.181
-443.836	199.546	0.094	0.146
-442.822	4.031	0.135	0.100
-441.807	-200.000	0.045	-0.516
-440.792	66.321	-0.020	-0.020
-439.778	14.387	0.171	-0.135
-438.763	-200.000	-0.073	-0.433
-437.749	800.000	-0.099	-0.327
-436.734	-144.252	0.196	-0.019
-435.719	-200.000	-0.049	0.280
-434.705	170.390	0.108	0.156
-433.690	359.982	0.193	0.390
-432.676	-200.000	-0.010	0.157
-431.661	-177.565	0.110	-0.003
-430.646	-200.000	-0.023	0.368
-429.632	-63.538	-0.132	-0.055
-428.617	800.000	-0.037	-0.146
-427.603	-145.337	-0.110	0.010
-426.588	-138.903	-0.212	0.023
-425.573	-29.794	-0.163	-0.094
-424.559	29.908	-0.338	0.291
-423.544	-26.895	0.373	0.220
-422.530	800.000	-0.037	0.142
-421.515	800.000	-0.095	0.293
-420.500	-186.608	0.157	0.002
-419.486	-38.721	0.240	-0.128
-418.471	-128.612	0.120	-0.017
-417.457	-71.671	-0.114	-0.043
-416.442	800.000	-0.094	-0.265
-415.428	705.117	-0.046	-0.122
-414.413	228.746	0.210	0.345
-413.398	-200.000	-0.009	0.106
-412.384	-134.853	-0.524	-0.064
-411.369	105.194	0.116	0.138
-410.355	-200.000	0.059	0.333
-409.340	-110.803	-0.140	0.029
-408.325	-100.530	-0.217	-0.054
-407.311	451.546	0.105	-0.235
-406.296	-136.804	0.167	-0.019
-405.282	800.000	0.053	-0.222
-404.267	54.641	0.249	0.243
-403.252	571.603	0.139	0.342
-402.238	-78.509	-0.145	0.050
-401.223	-54.818	-0.307	-0.140
-400.209	371.839	-0.073	0.151
-399.194	99.139	-0.113	0.132
-398.179	-90.488	-0.151	0.044
-397.165	-24.061	0.295	0.178
-396.150	-150.800	0.313	-0.024
-395.136	-11.193	0.080	-0.053
-394.121	800.000	-0.072	-0.264
-393.106	-64.687	-0.114	-0.047
-392.092	34.469	-0.061	0.054
-391.077	-200.000	0.004	0.299
-390.063	378.248	0.141	-0.292
-389.048	259.360	-0.111	-0.194
-388.033	590.728	-0.055	-0.138
-387.019	-200.000	0.004	0.028
-386.004	-46.000	0.203	-0.101
-384.990	-155.487	-0.097	0.006
-383.975	800.000	0.070	-0.224
-382.960	-3.087	-0.085	0.060
-381.946	154.650	0.048	0.066
-380.931	-17.070	-0.249	-0.159
-379.917	256.547	0.097	0.169
-378.902	-160.225	0.151	0.008
-377.888	-200.000	0.015	0.173
-376.873	-94.129	-0.131	-0.036
-375.858	188.356	-0.122	-0.184
-374.844	-200.000	-0.016	-0.130
-373.829	800.000	-0.088	0.312
-372.815	742.804	0.075	0.203
-371.800	149.257	-0.100	-0.136
-370.785	-200.000	0.007	0.263
-369.771	800.000	-0.040	-0.128
-368.756	271.460	0.113	-0.202
-367.742	800.000	0.079	-0.261
-366.727	-55.261	-0.248	-0.112
-365.712	242.007	-0.160	-0.269
-364.698	412.223	0.082	-0.175
-363.683	-27.262	0.320	0.188
-362.669	800.000	0.069	0.296
-361.654	631.584	-0.088	-0.223
-360.639	800.000	-0.028	-0.085
-359.625	98.438	0.054	0.063
-358.610	-91.320	0.106	0.030
-357.596	-200.000	0.015	-0.195
-356.581	4.267	-0.093	-0.069
-355.566	-200.000	-0.013	0.134
-354.552	145.987	0.082	0.111
-353.537	800.000	0.070	-0.214
-352.523	-81.167	-0.276	0.092
-351.508	29.207	0.135	-0.115
-350.493	-82.471	0.391	0.128
-349.479	96.834	-0.283	0.327
-348.464	-96.131	-0.108	0.029
-347.450	295.569	0.067	0.123
-346.435	-109.989	0.022	0.005
-345.420	-51.052	0.033	-0.016
-344.406	-200.000	-0.096	0.000
-343.391	8.323	0.262	-0.199
-342.377	-38.039	-0.107	-0.057
-341.362	-105.683	0.436	0.100
-340.348	-200.000	-0.001	-0.074
-339.333	732.781	0.080	0.215
-338.318	-103.135	-0.165	-0.039
-337.304	-200.000	0.041	0.209
-336.289	15.737	0.206	0.163
-335.275	172.542	-0.160	0.231
-334.260	-200.000	0.032	0.229
-333.245	-63.065	-0.236	-0.098
-332.231	142.022	0.189	0.252
-331.216	379.558	0.117	-0.241
-330.202	26.612	-0.156	-0.131
-329.187	744.064	0.147	-0.399
-328.172	237.708	-0.149	-0.249
-327.158	-186.310	-0.318	0.005
-326.143	800.000	0.042	-0.145
-325.129	-4.361	0.223	-0.156
-324.114	149.468	0.135	0.184
-323.099	-45.346	0.265	0.132
-322.085	49.220	-0.221	-0.209
-321.070	53.377	-0.196	0.189
-320.056	-90.686	0.125	-0.036
-319.041	-33.499	-0.182	-0.101
-318.026	-133.737	-0.106	0.013
-317.012	-33.523	0.238	0.133
-315.997	-43.320	-0.213	0.108
-314.983	417.611	-0.108	-0.232
-313.968	252.856	-0.146	-0.251
-312.953	800.000	0.153	-0.463
-311.939	-118.232	-0.197	0.035
-310.924	-75.747	0.247	-0.088
-309.910	-60.151	0.129	-0.055
-308.895	-84.821	-0.156	-0.049
-307.880	359.199	-0.019	0.039
-306.866	-127.070	0.199	0.029
-305.851	-148.615	0.210	-0.017
-304.837	-134.225	0.128	-0.016
-303.822	419.845	-0.164	-0.354
-302.807	-42.578	0.052	-0.027
-301.793	66.298	0.050	-0.051
-300.778	-200.000	-0.040	-0.193
-299.764	1.066	-0.273	-0.197
-298.749	-200.000	-0.024	-0.283
-297.735	41.953	0.140	-0.128
-296.720	-133.344	0.075	0.010
-295.705	336.730	0.120	-0.234
-294.691	-75.174	-0.270	0.097
-293.676	-200.000	-0.014	-0.186
-292.662	159.499	-0.085	-0.119
-291.647	-200.000	-0.028	-0.199
-290.632	-163.764	0.192	0.009
-289.618	-134.556	0.224	0.028
-288.603	125.128	-0.178	0.226
-287.589	-200.000	0.015	-0.093
-286.574	-143.995	-0.515	0.049
-285.559	-200.000	-0.013	0.150
-284.545	-110.588	-0.245	0.051
-283.530	-84.579	0.194	-0.061
-282.516	34.343	0.149	0.131
-281.501	-132.054	0.157	-0.021
-280.486	221.840	-0.219	0.354
-279.472	-200.000	0.005	-0.219
-278.457	-200.000	0.016	-0.229
-277.443	293.360	0.095	0.174
-276.428	-107.050	-0.116	0.026
-275.413	-63.937	0.050	0.020
-274.399	18.548	0.230	-0.185
-273.384	-200.000	-0.005	-0.135
-272.370	89.209	-0.063	0.071
-271.355	24.244	-0.102	0.084
-270.340	77.122	0.241	0.258
-269.326	-116.350	-0.260	-0.048
-268.311	22.980	0.107	0.088
-267.297	-81.936	0.240	0.079
-266.282	-70.577	-0.137	0.052
-265.267	9.576	-0.226	0.172
-264.253	38.432	-0.229	0.205
-263.238	-13.118	0.162	0.106
-262.224	800.000	0.079	-0.251
-261.209	495.537	-0.137	-0.316
-260.195	-132.703	-0.146	-0.019
-259.180	671.790	0.073	-0.189
-258.165	177.157	-0.150	-0.219
-257.151	-149.082	-0.383	-0.031
-256.136	800.000	0.067	-0.289
-255.122	-200.000	-0.072	-0.371
-254.107	93.182	-0.102	-0.116
-253.092	800.000	0.037	0.148
-252.078	-24.455	0.331	0.198
-251.063	-143.087	0.074	-0.007
-250.049	19.937	-0.171	-0.138
-249.034	501.342	0.067	0.155
-248.019	800.000	0.013	-0.048
-247.005	800.000	-0.053	-0.207
-245.990	194.942	0.240	-0.365
-244.976	-200.000	-0.037	0.274
-243.961	-39.378	0.228	0.120
-242.946	-200.000	0.028	-0.306
-241.932	800.000	-0.042	-0.156
-240.917	-200.000	0.004	-0.267
-239.903	-199.008	-0.359	0.002
-238.888	83.135	-0.258	0.282
-237.873	101.820	-0.205	-0.240
-236.859	-90.177	0.154	-0.045
-235.844	-128.396	-0.082	0.012
-234.830	-12.503	-0.159	-0.104
-233.815	68.024	0.091	0.093
-232.800	-33.906	-0.272	0.150
-231.786	-174.476	0.200	-0.006
-230.771	-200.000	-0.057	0.290
-229.757	35.372	-0.077	-0.068
-228.742	-46.752	-0.194	-0.095
-227.727	506.353	-0.132	0.306
-226.713	-34.659	-0.085	-0.046
-225.698	14.883	-0.189	-0.148
-224.684	136.326	0.122	0.159
-223.669	2.071	0.229	0.166
-222.655	-126.683	0.093	-0.014
-221.640	-200.000	0.011	0.325
-220.625	-47.286	-0.088	0.043
-219.611	-200.000	0.007	-0.247
-218.596	15.505	0.223	0.176
-217.582	14.500	0.234	-0.183
-216.567	-200.000	-0.016	-0.163
-215.552	96.735	0.183	-0.210
-214.538	-138.820	-0.146	0.016
-213.523	-80.621	0.207	0.069
-212.509	492.157	0.149	-0.342
-211.494	-4.615	0.457	-0.316
-210.479	10.359	-0.123	-0.093
-209.465	-134.589	-0.464	-0.057
-208.450	37.407	-0.062	0.055
-207.436	-200.000	-0.028	0.131
-206.421	-65.312	-0.197	-0.079
-205.406	800.000	-0.040	-0.121
-204.392	1.383	-0.281	-0.202
-203.377	-129.832	-0.187	-0.026
-202.363	-200.000	0.044	0.280
-201.348	70.860	-0.263	0.273
-200.333	-73.872	0.222	0.081
-199.319	254.252	0.151	0.259
-198.304	-60.749	-0.281	0.119
-197.290	37.170	0.017	-0.015
-196.275	-200.000	-0.009	-0.118
-195.260	-46.265	0.115	-0.057
-194.246	31.277	-0.074	-0.064
-193.231	7.697	0.254	0.190
-192.217	800.000	-0.090	0.275
-191.202	569.079	-0.039	-0.095
-190.187	71.360	0.134	0.139
-189.173	703.636	-0.012	0.033
-188.158	72.618	0.180	-0.188
-187.144	-7.610	-0.268	0.181
-186.129	-200.000	-0.049	0.242
-185.114	-22.753	-0.139	0.084
-184.100	-133.924	0.385	-0.048
-183.085	202.278	0.136	0.210
-182.071	-9.318	0.326	-0.218
-181.056	-10.493	-0.084	0.056
-180.042	557.182	0.136	-0.329
-179.027	365.716	0.101	-0.204
-178.012	44.499	0.093	0.086
-176.998	314.675	-0.047	-0.090
-175.983	800.000	0.085	0.265
-174.969	-37.581	0.149	0.079
-173.954	47.652	0.114	-0.106
-172.939	-87.477	-0.296	-0.090
-171.925	39.319	0.332	0.297
-170.910	-0.019	0.057	-0.041
-169.896	12.067	0.029	0.022
-168.881	13.465	0.299	0.232
-167.866	94.866	0.087	0.099
-166.852	44.767	-0.150	-0.138
-165.837	-132.847	0.106	0.014
-164.823	-41.019	0.268	-0.138
-163.808	344.430	0.071	-0.139
-162.793	241.127	-0.075	0.125
-161.779	-44.940	0.147	-0.073
-160.764	-200.000	0.058	0.368
-159.750	-103.209	-0.234	-0.055
-158.735	-200.000	0.001	-0.229
-157.720	544.670	0.100	0.238
-156.706	88.145	-0.140	-0.155
-155.691	-63.987	0.133	0.054
-154.677	-116.106	-0.092	-0.017
-153.662	-122.304	-0.099	0.016
-152.647	28.731	-0.094	-0.080
-151.633	461.685	0.094	0.210
-150.618	28.958	0.261	-0.222
-149.604	283.151	0.061	0.110
-148.589	-172.631	-0.202	-0.006
-147.574	205.666	-0.021	-0.033
-146.560	-84.156	0.191	0.061
-145.545	54.079	-0.076	-0.073
-144.531	311.118	-0.154	-0.288
-143.516	-200.000	-0.021	0.130
-142.502	49.231	0.146	-0.137
-141.487	177.867	0.048	-0.070
-140.472	492.300	-0.050	0.116
-139.458	175.106	-0.043	0.062
-138.443	43.659	0.129	-0.118
-137.429	185.725	0.122	-0.182
-136.414	800.000	0.041	-0.160
-135.399	12.363	0.080	-0.061
-134.385	-182.957	0.267	0.005
-133.370	800.000	-0.058	0.207
-132.356	-200.000	-0.057	-0.251
-131.341	17.218	0.297	0.236
-130.326	800.000	0.088	-0.274
-129.312	-131.385	0.330	-0.044
-128.297	-77.431	0.140	-0.049
-127.283	-87.007	0.141	0.043
-126.268	28.184	0.120	-0.101
-125.253	-33.580	-0.335	-0.185
-124.239	-200.000	-0.011	0.168
-123.224	19.692	0.103	0.083
-122.210	-130.914	-0.209	-0.028
-121.195	-90.864	0.281	0.081
-120.180	45.209	-0.236	0.218
-119.166	-200.000	-0.008	-0.108
-118.151	177.575	-0.073	-0.106
-117.137	800.000	-0.065	0.259
-116.122	274.589	0.083	-0.147
-115.107	113.627	-0.204	-0.248
-114.093	-19.746	0.094	-0.058
-113.078	201.935	-0.104	-0.160
-112.064	-89.003	-0.349	-0.103
-111.049	0.267	0.228	0.163
-110.034	-200.000	0.020	0.352
-109.020	320.103	-0.145	0.276
-108.005	86.776	0.320	0.353
-106.991	-200.000	-0.111	0.597
-105.976	-116.277	-0.044	-0.008
-104.962	-178.787	-0.224	-0.005
-103.947	-28.312	0.077	-0.045
-102.932	-200.000	0.034	-0.213
-101.918	168.112	0.161	0.229
-100.903	-106.641	-0.140	-0.031
-99.889	-100.785	0.422	0.104
-98.874	82.677	-0.092	-0.100
-97.859	-59.953	-0.273	0.117
-96.845	168.082	0.066	-0.094
-95.830	-200.000	-0.028	-0.452
-94.816	116.077	-0.071	0.087
-93.801	271.418	0.122	-0.215
-92.786	800.000	0.107	-0.463
-91.772	800.000	-0.033	-0.123
-90.757	-200.000	-0.025	-0.226
-89.743	-200.000	0.025	0.285
-88.728	-93.437	-0.040	0.011
-87.713	301.416	-0.022	0.040
-86.699	-137.954	-0.171	-0.019
-85.684	9.107	-0.219	-0.165
-84.670	164.783	0.285	-0.401
-83.655	-200.000	0.085	-0.388
-82.640	509.382	-0.096	-0.222
-81.626	27.750	-0.168	-0.141
-80.611	60.446	-0.276	0.273
-79.597	-200.000	0.020	0.421
-78.582	-94.388	0.104	0.028
-77.567	800.000	0.019	-0.071
-76.553	-148.428	0.168	0.014
-75.538	372.658	0.051	-0.103
-74.524	-200.000	0.049	-0.284
-73.509	-200.000	0.035	0.223
-72.494	-66.717	-0.404	-0.160
-71.480	-39.781	-0.191	-0.100
-70.465	161.221	-0.135	0.189
-69.451	279.791	-0.066	0.118
-68.436	-102.483	0.387	-0.092
-67.422	-76.669	0.215	-0.075
-66.407	800.000	0.153	0.431
-65.392	-69.426	0.221	0.084
-64.378	346.530	0.067	-0.131
-63.363	800.000	-0.060	0.175
-62.349	-70.923	0.305	0.115
-61.334	81.333	-0.731	-0.787
-60.319	30.125	0.478	0.406
-59.305	-200.000	0.003	-0.625
-58.290	179.161	0.506	0.738
-57.276	644.033	0.516	1.311
-56.261	-200.000	78.037	492.921
-55.246	564.974	1364.269	3294.982
-54.232	179.483	2608.632	3805.065
-53.217	122.657	2273.963	2833.737
-52.203	49.537	1797.659	1686.125
-51.188	42.439	1597.977	1447.822
-50.173	39.842	1568.657	1402.779
-49.159	55.879	1606.036	1551.527
-48.144	61.012	1625.902	1607.464
-47.130	43.045	1589.607	1444.355
-46.115	39.514	1575.899	1406.692
-45.100	39.317	1571.904	1401.668
-44.086	39.272	1570.386	1399.941
-43.071	39.184	1568.070	1397.191
-42.057	39.108	1566.660	1395.342
-41.042	39.125	1564.805	1393.756
-40.027	39.162	1563.322	1392.642
-39.013	39.178	1561.386	1390.971
-37.998	39.155	1560.341	1389.823
-36.984	39.161	1559.102	1388.705
-35.969	39.188	1557.629	1387.532
-34.954	39.229	1556.366	1386.639
-33.940	39.164	1555.023	1384.931
-32.925	39.160	1553.691	1383.661
-31.911	39.156	1552.764	1382.755
-30.896	39.180	1551.199	1381.476
-29.881	39.284	1549.498	1380.635
-28.867	39.272	1547.748	1378.935
-27.852	39.258	1547.008	1378.124
-26.838	39.340	1545.335	1377.152
-25.823	39.288	1543.851	1375.414
-24.809	39.236	1542.018	1373.361
-23.794	39.265	1540.708	1372.341
-22.779	39.380	1539.089	1371.646
-21.765	39.186	1538.825	1370.003
-20.750	39.226	1537.615	1369.153
-19.736	39.327	1535.427	1367.853
-18.721	39.253	1535.029	1366.926
-17.706	39.152	1533.608	1364.906
-16.692	39.204	1532.784	1364.484
-15.677	39.128	1531.893	1363.108
-14.663	39.020	1530.801	1361.331
-13.648	39.128	1529.561	1360.925
-12.633	39.151	1528.637	1360.207
-11.619	39.119	1527.626	1359.032
-10.604	39.166	1526.529	1358.329
-9.590	39.019	1526.013	1356.801
-8.575	39.104	1524.480	1355.965
-7.560	39.191	1523.715	1355.833
-6.546	39.177	1522.253	1354.382
-5.531	39.167	1521.480	1353.572
-4.517	39.052	1520.933	1352.240
-3.502	39.145	1520.030	1352.024
-2.487	39.125	1518.877	1350.805
-1.473	39.140	1517.651	1349.767
-0.458	39.131	1516.430	1348.567
0.556	37.534	1507.911	1340.586
1.571	35.286	1481.064	1301.363
2.586	32.220	1417.451	1225.404
3.600	30.544	1331.927	1141.085
4.615	28.916	1282.837	1089.293
5.629	23.880	1222.519	1009.475
6.644	11.461	1127.064	865.148
7.659	1.860	1078.678	779.045
8.673	0.526	1072.418	767.671
9.688	0.203	1069.640	763.976
10.702	0.060	1067.913	761.950
11.717	0.123	1066.022	760.854
12.731	4.238	1072.022	785.959
13.746	15.630	1089.028	856.728
14.761	22.702	1097.495	899.512
15.775	22.571	1096.706	898.122
16.790	22.324	1095.300	895.632
17.804	22.163	1094.542	894.112
18.819	21.936	1093.685	892.182
19.834	22.011	1092.917	891.857
20.848	22.206	1092.348	892.301
21.863	22.216	1092.479	892.380
22.877	22.044	1091.929	890.978
23.892	22.143	1091.237	890.837
24.907	22.018	1090.298	889.359
25.921	22.038	1089.648	888.854
26.936	22.036	1088.904	888.156
27.950	22.010	1087.042	886.426
28.965	22.114	1085.941	885.979
29.980	21.960	1084.142	883.657
30.994	21.889	1083.330	882.561
32.009	22.008	1082.435	882.348
33.023	22.171	1081.867	882.629
34.038	21.994	1081.263	881.167
35.053	21.920	1079.686	879.436
36.067	22.002	1079.514	879.627
37.082	22.081	1078.566	879.172
38.096	22.036	1077.854	878.288
39.111	22.245	1076.712	878.327
40.126	22.255	1076.209	877.886
41.140	22.284	1074.703	876.725
42.155	21.996	1073.650	874.352
43.169	21.662	1072.077	871.333
44.184	21.794	1071.250	871.243
45.199	21.824	1070.275	870.521
46.213	21.718	1069.200	869.044
47.228	21.654	1068.404	868.002
48.242	21.950	1067.693	868.815
49.257	21.973	1066.570	867.934
50.271	22.048	1065.859	867.653
51.286	22.061	1065.668	867.482
52.301	22.135	1064.650	866.944
53.315	22.234	1063.899	866.741
54.330	22.163	1063.080	865.650
55.344	22.104	1062.599	864.888
56.359	22.046	1061.343	863.506
57.374	22.061	1060.598	862.899
58.388	21.877	1059.464	860.996
59.403	21.903	1058.812	860.519
60.417	21.903	1057.803	859.620
61.432	21.856	1056.533	858.285
62.447	21.759	1056.517	857.720
63.461	21.913	1055.653	857.697
64.476	22.025	1054.626	857.332
65.490	21.867	1053.980	855.959
66.505	21.778	1052.589	854.323
67.520	21.838	1052.125	854.159
68.534	21.932	1051.333	853.900
69.549	21.655	1051.043	852.239
70.563	21.388	1049.059	849.261
71.578	21.340	1048.446	848.454
72.593	21.385	1047.778	848.060
73.607	21.294	1046.527	846.530
74.622	21.345	1045.370	845.764
75.636	21.505	1045.396	846.486
76.651	21.761	1044.158	846.644
77.666	21.700	1043.390	845.654
78.680	21.420	1042.380	843.411
79.695	21.416	1042.020	843.022
80.709	21.689	1041.281	843.665
81.724	21.700	1040.400	842.933
82.739	21.699	1039.510	842.130
83.753	21.710	1038.560	841.340
84.768	21.955	1038.322	842.247
85.782	22.333	1037.387	843.226
86.797	22.485	1036.761	843.373
87.812	22.341	1035.646	841.699
88.826	22.145	1035.141	840.278
89.841	22.198	1033.937	839.480
90.855	22.291	1033.299	839.330
91.870	22.396	1032.425	839.050
92.884	22.359	1031.761	838.257
93.899	22.178	1030.829	836.567
94.914	22.207	1029.272	835.364
95.928	22.193	1029.271	835.224
96.943	22.355	1028.320	835.150
97.957	21.835	1027.083	831.602
98.972	21.826	1025.376	830.104
99.987	21.477	1024.769	827.889
101.001	21.649	1024.115	828.100
102.016	22.029	1023.544	829.361
103.030	21.991	1022.388	828.173
104.045	21.962	1021.420	827.177
105.060	21.811	1020.107	825.329
106.074	21.638	1019.287	823.783
107.089	21.822	1017.900	823.453
108.103	21.962	1017.997	824.115
109.118	22.189	1017.097	824.380
110.133	21.927	1015.585	821.853
111.147	21.708	1014.833	820.144
112.162	21.784	1013.509	819.357
113.176	21.648	1012.183	817.579
114.191	21.674	1011.641	817.193
115.206	21.754	1010.766	816.783
116.220	21.450	1009.642	814.388
117.235	21.286	1008.624	812.734
118.249	21.401	1007.872	812.589
119.264	21.507	1007.178	812.452
120.279	21.420	1006.474	811.406
121.293	21.435	1005.480	810.603
122.308	21.395	1005.084	810.026
123.322	21.585	1003.958	809.925
124.337	21.558	1002.903	808.878
125.352	21.272	1001.569	806.413
126.366	21.048	1000.009	804.052
127.381	20.781	998.318	801.393
128.395	21.096	998.604	803.002
129.410	21.859	998.066	806.004
130.424	22.030	997.294	806.095
131.439	22.035	995.938	804.949
132.454	21.955	995.211	803.924
133.468	22.034	994.525	803.663
134.483	21.904	993.637	802.279
135.497	22.057	992.830	802.257
136.512	22.219	992.049	802.291
137.527	22.260	991.615	802.057
138.541	22.346	990.393	801.389
139.556	22.275	989.950	800.639
140.570	22.166	989.309	799.552
141.585	22.259	988.288	799.078
142.600	22.408	987.106	798.728
143.614	22.302	986.447	797.646
144.629	22.303	985.944	797.169
145.643	22.618	984.758	797.567
146.658	22.380	984.092	795.881
147.673	22.336	982.602	794.410
148.687	22.192	981.534	792.824
149.702	22.199	980.584	792.017
150.716	21.967	979.541	790.063
151.731	22.032	978.399	789.361
152.746	22.068	977.729	788.914
153.760	22.148	977.227	788.796
154.775	22.266	976.574	788.732
155.789	22.463	975.634	788.784
156.804	22.313	974.713	787.298
157.819	22.376	973.292	786.362
158.833	22.386	972.814	785.953
159.848	22.431	972.123	785.525
160.862	22.482	971.298	785.017
161.877	22.368	970.147	783.507
162.892	22.270	969.275	782.298
163.906	22.362	968.292	781.846
164.921	22.302	967.247	780.664
165.935	22.273	966.297	779.704
166.950	22.300	965.049	778.747
167.964	22.392	963.727	778.014
168.979	22.339	963.445	777.484
169.994	22.221	962.165	775.864
171.008	22.075	961.146	774.329
172.023	22.188	960.559	774.285
173.037	22.382	959.902	774.542
174.052	22.379	958.297	773.164
175.067	22.086	957.235	770.954
176.081	21.988	956.697	770.023
177.096	22.148	956.030	770.119
178.110	22.149	955.348	769.506
179.125	21.928	954.373	767.684
180.140	21.717	952.829	765.454
181.154	21.720	952.123	764.833
182.169	21.787	952.370	765.254
183.183	22.055	951.724	765.839
184.198	22.317	951.091	766.404
185.213	22.301	950.514	765.801
186.227	22.064	949.974	764.266
187.242	22.276	949.199	764.495
188.256	22.310	949.020	764.431
189.271	22.414	947.208	763.354
190.286	22.371	947.103	763.016
191.300	22.246	945.974	761.501
192.315	21.875	944.282	758.465
193.329	21.135	942.831	754.039
194.344	20.694	941.577	751.065
195.359	21.338	941.602	753.795
196.373	21.976	942.637	757.311
197.388	22.370	942.075	758.492
198.402	22.176	941.558	757.171
199.417	22.117	940.884	756.309
200.432	22.256	940.232	756.316
201.446	22.109	939.464	755.000
202.461	21.839	938.610	753.090
203.475	21.809	938.048	752.441
204.490	21.419	936.660	749.590
205.504	20.346	934.201	742.965
206.519	20.677	934.191	744.306
207.534	21.743	934.530	749.070
208.548	21.759	934.383	748.956
209.563	22.104	933.761	749.865
210.577	22.107	933.205	749.366
211.592	21.940	932.384	747.927
212.607	22.356	932.038	749.356
213.621	22.604	931.343	749.785
214.636	22.327	930.953	748.228
215.650	22.372	930.356	747.872
216.665	22.411	929.667	747.419
217.680	22.273	929.240	746.421
218.694	22.430	928.796	746.664
219.709	22.086	927.776	744.321
220.723	21.833	926.534	742.187
221.738	21.976	926.352	742.584
222.753	22.244	925.655	743.092
223.767	22.200	924.969	742.289
224.782	22.293	924.145	741.953
225.796	22.421	923.437	741.859
226.811	22.409	923.527	741.817
227.826	22.165	921.617	739.191
228.840	21.432	920.064	734.799
229.855	21.219	919.634	733.497
230.869	21.591	919.259	734.695
231.884	21.217	918.421	732.392
232.899	21.234	917.846	731.938
233.913	21.959	918.096	735.113
234.928	22.235	917.590	735.796
235.942	22.003	916.921	734.227
236.957	22.115	916.120	733.988
237.972	21.877	915.148	732.150
238.986	21.801	914.547	731.287
240.001	21.920	913.750	731.083
241.015	21.988	912.969	730.673
242.030	21.956	912.538	730.130
243.045	22.159	912.206	730.647
244.059	22.161	911.882	730.331
245.074	22.481	910.794	730.721
246.088	22.389	910.430	729.984
247.103	21.966	909.037	727.049
248.117	21.985	908.791	726.867
249.132	22.500	908.738	728.893
250.147	22.848	908.199	729.836
251.161	22.782	908.210	729.505
252.176	23.077	907.672	730.226
253.190	23.116	906.987	729.774
254.205	23.006	906.334	728.730
255.220	23.228	905.778	729.133
256.234	23.142	905.410	728.418
257.249	23.148	904.679	727.789
258.263	22.895	904.260	726.348
259.278	23.003	903.202	725.879
260.293	22.911	903.189	725.425
261.307	23.217	902.481	726.047
262.322	23.083	901.639	724.755
263.336	22.872	901.090	723.386
264.351	22.405	899.759	720.346
265.366	21.370	897.483	714.230
266.380	20.984	896.276	711.632
267.395	21.930	896.502	715.610
268.409	22.542	897.342	718.714
269.424	22.598	896.833	718.471
270.439	22.657	896.272	718.196
271.453	22.948	895.114	718.391
272.468	22.894	894.372	717.511
273.482	23.076	894.244	718.083
274.497	23.134	893.760	717.869
275.512	22.960	893.094	716.565
276.526	22.418	891.441	712.978
277.541	22.544	890.791	712.907
278.555	22.968	890.565	714.376
279.570	22.770	890.068	713.116
280.585	22.589	888.939	711.415
281.599	22.530	888.878	711.065
282.614	22.811	888.225	711.614
283.628	22.376	887.109	708.904
284.643	21.989	886.782	707.023
285.657	22.504	885.935	708.359
286.672	22.304	885.190	706.897
287.687	21.770	884.346	704.014
288.701	22.203	884.018	705.431
289.716	22.594	884.292	707.153
290.730	22.343	883.233	705.239
291.745	22.109	882.500	703.652
292.760	22.096	881.428	702.684
293.774	21.855	880.743	701.112
294.789	22.702	881.307	704.885
295.803	23.362	881.534	707.644
296.818	23.352	881.211	707.279
297.833	23.669	880.253	707.714
298.847	23.267	879.314	705.293
299.862	22.915	878.267	702.994
300.876	23.126	877.848	703.434
301.891	23.380	877.666	704.234
302.906	23.339	877.236	703.666
303.920	23.105	875.640	701.396
304.935	22.910	875.103	700.132
305.949	23.417	874.560	701.642
306.964	23.446	874.248	701.441
307.979	23.263	873.263	699.867
308.993	22.993	873.129	698.630
310.008	23.478	872.789	700.215
311.022	23.680	872.410	700.644
312.037	23.318	872.040	698.855
313.052	23.125	871.596	697.680
314.066	23.129	870.400	696.673
315.081	22.468	868.950	692.852
316.095	21.694	867.710	688.760
317.110	22.235	867.824	690.919
318.125	23.159	868.009	694.631
319.139	22.662	867.026	691.838
320.154	21.585	865.501	686.337
321.168	21.173	864.122	683.570
322.183	21.735	864.197	685.767
323.197	22.542	864.963	689.475
324.212	22.942	864.365	690.502
325.227	23.028	864.331	690.751
326.241	23.253	863.687	691.052
327.256	23.145	862.810	689.869
328.270	23.116	862.476	689.427
329.285	22.815	861.872	687.712
330.300	22.830	860.598	686.692
331.314	22.787	859.769	685.803
332.329	22.768	859.256	685.257
333.343	23.095	858.950	686.225
334.358	23.354	858.989	687.196
335.373	23.245	858.447	686.280
336.387	23.335	857.695	685.969
337.402	23.647	857.014	686.571
338.416	23.782	856.790	686.851
339.431	23.644	856.746	686.220
340.446	23.608	855.779	685.246
341.460	23.981	855.341	686.277
342.475	23.935	854.616	685.457
343.489	23.641	853.827	683.629
344.504	23.508	853.306	682.638
345.519	23.903	853.149	683.973
346.533	24.046	852.970	684.318
347.548	24.179	852.331	684.257
348.562	24.265	851.921	684.196
349.577	24.059	851.249	682.805
350.592	24.006	850.548	681.981
351.606	23.979	849.825	681.239
352.621	23.997	849.614	681.078
353.635	23.920	848.970	680.208
354.650	23.863	848.572	679.611
355.665	23.457	847.740	677.331
356.679	22.534	846.211	672.530
357.694	22.381	845.204	671.086
358.708	22.984	845.261	673.371
359.723	23.053	844.396	672.885
360.738	23.150	844.407	673.204
361.752	23.726	844.051	675.050
362.767	23.668	844.091	674.800
363.781	24.066	843.759	675.987
364.796	24.203	843.658	676.367
365.810	24.245	843.939	676.692
366.825	24.369	843.237	676.538
367.840	24.407	842.711	676.202
368.854	24.337	841.885	675.215
369.869	23.826	841.095	672.589
370.883	23.730	840.184	671.436
371.898	23.969	839.453	671.695
372.913	23.681	839.050	670.225
373.927	23.743	838.152	669.685
374.942	23.725	837.968	669.410
375.956	24.053	837.322	670.069
376.971	24.243	836.337	669.936
377.986	24.100	836.589	669.540
379.000	24.279	835.842	669.554
380.015	24.512	834.830	669.558
381.029	24.177	834.791	668.214
382.044	24.206	834.011	667.637
383.059	24.397	833.642	667.998
384.073	24.363	833.155	667.423
385.088	24.414	832.494	667.025
386.102	24.293	832.197	666.277
387.117	24.275	831.148	665.308
388.132	24.025	830.793	664.034
389.146	24.143	829.658	663.506
390.161	23.414	828.775	660.028
391.175	23.552	828.486	660.255
392.190	24.027	828.946	662.330
393.205	23.926	828.275	661.359
394.219	23.137	826.524	656.975
395.234	21.481	824.024	648.794
396.248	20.490	823.545	644.682
397.263	21.723	823.996	649.554
398.278	23.571	825.375	657.437
399.292	24.114	825.383	659.396
400.307	23.788	824.451	657.388
401.321	23.672	824.009	656.547
402.336	23.780	823.792	656.718
403.350	23.960	823.596	657.167
404.365	24.475	823.641	659.046
405.380	24.714	823.744	659.953
406.394	24.941	823.320	660.392
407.409	25.085	822.710	660.377
408.423	25.106	821.812	659.672
409.438	24.837	821.569	658.431
410.453	25.111	821.281	659.148
411.467	25.034	820.704	658.344
412.482	25.235	819.639	658.170
413.496	24.985	819.748	657.283
414.511	25.101	819.217	657.221
415.526	25.146	818.846	657.033
416.540	25.001	818.396	656.081
417.555	24.970	818.576	656.054
418.569	24.857	816.977	654.302
419.584	24.783	816.547	653.628
420.599	24.710	816.186	653.015
421.613	145.483	1358.303	1757.200
422.628	126.475	1437.323	1757.335
