DTS Sentinel unit serial number:	SN413079Multiplexer serial number:	ORYXHardware model number:	OX4-SRSoftware version number:	ORYX F/W v4.00 Oryx Data Collector v3.7.2.0data status	okinstallation	princeton_trtdifferential loss correction	single-endedforward channel	channel 3reverse channel	N/Adate	2019/09/11time	07:50:11forward acquisition time	60.00reverse acquisition time	0.00gamma	496.2192k internal	0.2321k external	0.2321temperature offset calibration	0.9910default loss term (dB/km)	0.3790temperature slope calibration	1.0000multiplexer offset coefficient	1.0000multiplexer slope coefficient	1.0000fibre end	0.00T internal ref (°C)	31.77T ext. ref 1 (°C)	0.17T ext. ref 2 (°C)	28.50length (m)	temperature (°C)	Stokes	anti-Stokes-747.200	-84.809	0.139	-0.044
-746.185	364.522	0.216	0.439
-745.171	392.379	-0.202	0.423
-744.156	-93.678	-0.294	0.082
-743.142	-11.997	0.217	-0.143
-742.127	415.667	-0.020	0.044
-741.112	800.000	0.071	-0.303
-740.098	37.172	-0.263	0.235
-739.083	-176.006	0.218	-0.006
-738.069	-200.000	0.024	0.280
-737.054	75.930	0.207	-0.221
-736.039	-166.753	-0.112	-0.005
-735.025	-200.000	0.004	0.351
-734.010	-200.000	-0.047	0.251
-732.996	800.000	0.069	-0.224
-731.981	-200.000	-0.045	-0.364
-730.966	-148.375	0.169	-0.014
-729.952	-200.000	0.021	0.207
-728.937	-200.000	0.020	-0.407
-727.923	-136.200	-0.147	-0.017
-726.908	-137.672	-0.299	-0.034
-725.894	-161.032	-0.335	-0.018
-724.879	-69.890	-0.294	0.113
-723.864	-200.000	0.000	0.228
-722.850	-39.757	0.180	0.095
-721.835	-96.533	-0.170	-0.045
-720.821	800.000	-0.051	-0.147
-719.806	60.142	-0.137	0.137
-718.791	11.206	0.072	0.055
-717.777	113.293	0.142	-0.173
-716.762	-200.000	0.001	-0.342
-715.748	-150.647	-0.259	0.020
-714.733	-120.553	0.225	-0.038
-713.718	269.694	-0.028	0.050
-712.704	441.669	-0.125	-0.276
-711.689	-58.661	-0.146	0.064
-710.675	-200.000	-0.012	-0.193
-709.660	-200.000	-0.015	-0.104
-708.645	119.251	0.066	-0.082
-707.631	-90.591	0.380	-0.111
-706.616	195.500	0.067	-0.103
-705.602	-200.000	-0.027	0.132
-704.587	-34.633	-0.160	-0.088
-703.572	602.874	0.034	-0.086
-702.558	-139.377	0.217	0.024
-701.543	79.930	0.260	0.282
-700.529	-176.192	-0.299	-0.008
-699.514	800.000	-0.018	0.055
-698.499	738.497	-0.094	-0.255
-697.485	-115.737	0.101	-0.019
-696.470	-85.603	0.057	0.018
-695.456	-200.000	0.027	0.185
-694.441	-161.765	-0.305	0.016
-693.426	11.728	-0.268	-0.207
-692.412	-200.000	-0.038	0.225
-691.397	800.000	0.070	-0.205
-690.383	389.737	-0.146	-0.305
-689.368	44.048	-0.208	-0.192
-688.354	10.875	-0.092	-0.070
-687.339	219.166	0.068	0.110
-686.324	355.410	-0.077	0.154
-685.310	14.420	-0.240	-0.189
-684.295	-200.000	-0.003	-0.134
-683.281	-33.723	0.155	-0.086
-682.266	-116.335	-0.479	-0.089
-681.251	800.000	-0.020	-0.071
-680.237	-99.472	-0.096	0.024
-679.222	-5.382	-0.064	0.044
-678.208	-26.068	-0.095	0.056
-677.193	800.000	0.019	0.077
-676.178	-27.369	0.238	0.140
-675.164	101.281	0.062	0.073
-674.149	89.284	0.110	-0.124
-673.135	58.093	-0.125	-0.124
-672.120	54.218	0.123	0.119
-671.105	-46.610	0.072	-0.035
-670.091	-52.839	0.254	0.118
-669.076	-48.597	-0.259	-0.125
-668.062	800.000	0.075	-0.219
-667.047	10.223	0.181	-0.139
-666.032	-67.075	-0.187	-0.074
-665.018	-98.195	0.017	-0.004
-664.003	-199.341	-0.120	-0.001
-662.989	69.371	-0.090	-0.093
-661.974	-32.971	0.086	-0.048
-660.959	-200.000	-0.002	0.168
-659.945	50.834	-0.251	0.239
-658.930	-77.235	0.062	-0.022
-657.916	-127.769	0.547	0.079
-656.901	-92.417	0.355	0.101
-655.886	11.424	-0.135	0.105
-654.872	68.237	-0.109	-0.113
-653.857	-83.318	-0.229	0.074
-652.843	-200.000	-0.005	0.170
-651.828	-200.000	0.025	0.175
-650.814	22.305	-0.092	-0.076
-649.799	514.677	0.070	-0.165
-648.784	585.400	-0.107	0.266
-647.770	206.116	0.073	-0.114
-646.755	-188.202	-0.446	0.006
-645.741	123.543	-0.141	-0.178
-644.726	-200.000	0.005	0.040
-643.711	-89.281	0.269	-0.080
-642.697	345.636	-0.155	-0.307
-641.682	-200.000	0.026	-0.247
-640.668	-180.220	0.067	0.001
-639.653	174.957	0.055	0.080
-638.638	240.801	0.066	-0.110
-637.624	-200.000	0.026	-0.181
-636.609	-200.000	0.025	0.244
-635.595	800.000	-0.036	-0.111
-634.580	-101.332	-0.252	-0.062
-633.565	-54.459	0.312	0.142
-632.551	153.547	-0.157	-0.217
-631.536	-200.000	-0.001	-0.046
-630.522	-148.743	-0.130	0.011
-629.507	91.879	-0.197	-0.222
-628.492	800.000	-0.021	0.074
-627.478	107.210	0.161	0.192
-626.463	6.241	0.250	-0.186
-625.449	-132.241	-0.431	-0.056
-624.434	190.690	0.121	-0.183
-623.419	-36.858	-0.174	0.094
-622.405	112.975	-0.222	0.270
-621.390	623.872	-0.167	-0.423
-620.376	35.147	-0.196	-0.173
-619.361	-200.000	-0.024	-0.387
-618.346	62.922	-0.050	-0.050
-617.332	800.000	0.042	0.182
-616.317	800.000	0.013	-0.054
-615.303	100.047	0.144	0.168
-614.288	444.440	0.110	0.243
-613.273	-53.448	-0.207	-0.095
-612.259	357.093	-0.030	-0.059
-611.244	-54.166	0.214	-0.098
-610.230	43.132	-0.107	-0.099
-609.215	-60.465	-0.248	0.106
-608.201	-55.067	0.232	0.105
-607.186	800.000	0.061	-0.205
-606.171	-200.000	0.017	0.106
-605.157	-152.447	0.231	-0.017
-604.142	-200.000	0.003	0.266
-603.128	344.098	0.019	0.038
-602.113	392.495	0.076	-0.159
-601.098	285.403	0.098	0.177
-600.084	161.816	0.089	-0.125
-599.069	-72.883	0.424	-0.156
-598.055	380.176	-0.025	-0.050
-597.040	127.892	-0.126	0.161
-596.025	25.009	-0.157	0.131
-595.011	-78.401	-0.074	-0.026
-593.996	800.000	-0.016	-0.067
-592.982	800.000	0.120	0.368
-591.967	-66.188	-0.079	-0.032
-590.952	-43.757	-0.386	0.195
-589.938	-88.353	-0.194	-0.058
-588.923	-200.000	0.019	-0.215
-587.909	75.986	0.175	-0.186
-586.894	-86.549	0.066	0.020
-585.879	294.948	-0.248	0.455
-584.865	99.139	-0.257	0.299
-583.850	-200.000	0.029	0.336
-582.836	-106.283	-0.300	0.068
-581.821	199.621	-0.070	-0.108
-580.806	-200.000	-0.053	-0.333
-579.792	22.092	-0.244	0.200
-578.777	-127.655	-0.418	-0.061
-577.763	-200.000	0.024	-0.181
-576.748	-129.965	-0.273	-0.038
-575.733	-155.761	-0.396	0.025
-574.719	-108.255	-0.201	0.044
-573.704	-200.000	0.016	-0.180
-572.690	-200.000	0.021	-0.120
-571.675	-200.000	0.020	0.133
-570.661	3.286	0.064	0.047
-569.646	74.406	0.102	-0.108
-568.631	85.763	-0.211	0.233
-567.617	87.292	0.238	-0.264
-566.602	-3.105	0.125	0.088
-565.588	-200.000	0.004	-0.120
-564.573	-200.000	-0.001	-0.106
-563.558	25.203	-0.102	0.085
-562.544	-200.000	0.045	0.365
-561.529	-200.000	-0.016	-0.253
-560.515	-63.767	0.323	-0.133
-559.500	-163.062	0.203	-0.010
-558.485	-200.000	0.027	0.193
-557.471	-200.000	-0.022	0.116
-556.456	424.491	-0.062	0.134
-555.442	-17.217	-0.194	0.123
-554.427	-194.350	0.141	0.001
-553.412	25.544	0.171	0.142
-552.398	-132.239	-0.035	-0.004
-551.383	319.576	-0.140	0.266
-550.369	-200.000	-0.002	-0.143
-549.354	-126.128	-0.472	-0.071
-548.339	510.520	0.136	-0.318
-547.325	-39.166	-0.238	-0.125
-546.310	763.230	-0.101	0.275
-545.296	-1.769	0.176	0.124
-544.281	-200.000	-0.013	0.179
-543.266	247.557	0.129	-0.219
-542.252	-187.464	-0.070	-0.001
-541.237	-35.088	0.181	0.099
-540.223	-200.000	-0.012	-0.147
-539.208	-117.745	-0.236	-0.043
-538.193	369.877	-0.153	0.310
-537.179	800.000	0.087	0.252
-536.164	-200.000	0.053	0.356
-535.150	158.157	-0.198	0.275
-534.135	-122.398	-0.338	-0.055
-533.121	65.842	-0.216	0.219
-532.106	-176.740	0.402	-0.010
-531.091	800.000	-0.050	-0.188
-530.077	800.000	0.055	0.184
-529.062	-27.128	-0.142	-0.083
-528.048	-172.008	-0.120	-0.004
-527.033	-200.000	-0.007	0.195
-526.018	-142.452	-0.206	0.020
-525.004	-200.000	0.045	-0.512
-523.989	-200.000	0.027	-0.149
-522.975	-87.910	-0.163	0.049
-521.960	-200.000	0.038	0.283
-520.945	68.555	-0.115	0.118
-519.931	-89.736	-0.427	-0.125
-518.916	357.439	-0.078	0.155
-517.902	248.012	0.049	-0.084
-516.887	-135.397	0.157	0.019
-515.872	51.858	-0.082	-0.079
-514.858	-129.060	-0.286	-0.040
-513.843	421.671	0.071	-0.152
-512.829	-200.000	-0.006	-0.280
-511.814	-9.942	0.108	0.072
-510.799	-140.788	0.206	0.021
-509.785	-200.000	-0.007	0.258
-508.770	259.676	0.051	-0.089
-507.756	-14.410	-0.201	-0.129
-506.741	-109.714	-0.205	0.043
-505.726	-104.831	-0.283	-0.065
-504.712	56.636	-0.240	0.234
-503.697	43.914	0.142	-0.130
-502.683	265.750	-0.073	0.128
-501.668	91.036	0.162	-0.182
-500.653	41.549	0.257	0.233
-499.639	-123.118	-0.142	0.023
-498.624	112.773	-0.353	-0.428
-497.610	-67.239	-0.010	0.004
-496.595	-112.501	-0.137	-0.027
-495.581	800.000	-0.051	0.162
-494.566	-37.189	-0.098	0.053
-493.551	-125.011	-0.186	0.029
-492.537	-79.586	-0.319	0.108
-491.522	-200.000	0.025	0.117
-490.508	-200.000	-0.033	0.265
-489.493	-126.263	0.131	-0.020
-488.478	-37.302	-0.155	-0.083
-487.464	-48.642	-0.111	0.053
-486.449	6.567	0.059	0.044
-485.435	-17.015	0.202	0.128
-484.420	68.181	0.152	0.155
-483.405	86.831	-0.190	-0.210
-482.391	44.876	-0.142	-0.131
-481.376	56.306	0.269	0.262
-480.362	-30.302	0.043	0.024
-479.347	305.062	-0.088	0.164
-478.332	75.689	-0.173	-0.183
-477.318	690.185	0.095	0.250
-476.303	-200.000	0.004	0.111
-475.289	-200.000	0.005	-0.039
-474.274	-200.000	0.025	-0.388
-473.259	124.969	0.047	-0.059
-472.245	-49.651	-0.120	0.057
-471.230	-200.000	-0.035	0.199
-470.216	81.059	0.065	-0.070
-469.201	561.640	0.050	0.120
-468.186	388.106	0.102	-0.211
-467.172	61.594	-0.128	0.127
-466.157	243.523	-0.071	-0.119
-465.143	-64.722	-0.076	-0.031
-464.128	-103.913	0.311	0.073
-463.113	43.111	0.250	-0.228
-462.099	32.977	0.086	0.075
-461.084	441.649	0.067	-0.147
-460.070	-41.213	0.173	-0.089
-459.055	335.118	0.043	-0.083
-458.040	-200.000	-0.085	-0.424
-457.026	-21.791	0.272	-0.166
-456.011	406.621	0.030	-0.062
-454.997	-35.461	0.251	0.136
-453.982	-80.472	0.329	-0.110
-452.968	800.000	0.035	0.142
-451.953	148.239	0.201	-0.271
-450.938	-200.000	0.012	0.176
-449.924	546.924	0.117	0.280
-448.909	167.993	-0.187	-0.265
-447.895	-94.840	0.398	-0.108
-446.880	-56.458	-0.222	-0.098
-445.865	-122.315	0.193	-0.032
-444.851	24.955	0.025	-0.020
-443.836	92.858	-0.194	-0.219
-442.822	171.041	-0.129	0.185
-441.807	-94.492	0.310	0.084
-440.792	800.000	-0.077	-0.289
-439.778	-68.518	0.235	0.091
-438.763	-168.186	0.380	-0.015
-437.749	-36.565	0.152	-0.082
-436.734	800.000	0.085	0.235
-435.719	34.507	-0.154	-0.134
-434.705	-22.024	-0.197	-0.119
-433.690	-91.003	-0.266	0.076
-432.676	-24.550	0.103	0.061
-431.661	-32.995	-0.285	-0.158
-430.646	-200.000	-0.013	0.062
-429.632	800.000	0.054	0.230
-428.617	58.316	0.252	0.247
-427.603	-200.000	-0.010	0.408
-426.588	-192.370	0.390	0.004
-425.573	-86.673	0.136	-0.042
-424.559	-127.983	-0.472	-0.068
-423.544	623.878	-0.024	0.060
-422.530	-200.000	0.005	-0.114
-421.515	18.603	0.411	0.328
-420.500	92.170	0.250	-0.282
-419.486	16.067	0.175	0.138
-418.471	-82.621	0.234	0.076
-417.457	-86.965	-0.281	0.086
-416.442	-84.694	-0.088	-0.028
-415.428	77.345	0.131	0.139
-414.413	-17.687	-0.175	0.109
-413.398	161.705	-0.156	0.219
-412.384	-57.742	0.236	0.103
-411.369	48.633	-0.143	0.134
-410.355	-49.928	-0.030	-0.014
-409.340	91.385	-0.126	0.141
-408.325	-28.293	0.141	-0.081
-407.311	-173.881	0.143	-0.004
-406.296	-200.000	0.007	-0.052
-405.282	-45.490	-0.052	0.026
-404.267	460.946	-0.072	-0.160
-403.252	241.659	0.092	-0.154
-402.238	800.000	0.097	-0.326
-401.223	-59.269	-0.206	-0.088
-400.209	-56.727	0.129	0.057
-399.194	-130.690	0.316	-0.042
-398.179	-200.000	0.089	-0.408
-397.165	-200.000	-0.000	0.013
-396.150	-200.000	-0.003	-0.034
-395.136	-37.114	-0.196	0.104
-394.121	800.000	-0.054	-0.182
-393.106	-200.000	0.022	0.118
-392.092	-200.000	-0.033	-0.263
-391.077	-200.000	0.005	0.168
-390.063	158.802	0.236	0.327
-389.048	554.351	-0.210	0.505
-388.033	-80.330	0.148	-0.049
-387.019	800.000	-0.019	0.054
-386.004	728.925	0.079	0.210
-384.990	122.062	0.163	0.203
-383.975	96.676	-0.206	0.235
-382.960	-200.000	0.028	-0.237
-381.946	6.999	0.114	0.084
-380.931	-9.064	0.077	0.051
-379.917	750.850	0.063	0.169
-378.902	-200.000	0.016	-0.224
-377.888	87.055	0.245	-0.270
-376.873	-134.772	0.344	-0.042
-375.858	-133.365	-0.256	0.032
-374.844	300.395	-0.091	-0.168
-373.829	-185.096	-0.254	0.004
-372.815	-74.989	0.149	-0.053
-371.800	52.615	-0.286	-0.272
-370.785	60.154	-0.134	-0.132
-369.771	-47.604	-0.111	-0.053
-368.756	-200.000	-0.035	0.175
-367.742	-4.143	0.168	0.116
-366.727	274.233	-0.057	-0.100
-365.712	388.167	-0.139	0.285
-364.698	-200.000	0.035	-0.214
-363.683	-46.309	-0.251	-0.123
-362.669	-91.148	-0.157	-0.045
-361.654	-89.019	-0.110	-0.033
-360.639	-87.692	-0.220	-0.066
-359.625	-200.000	-0.007	0.274
-358.610	98.432	0.185	0.212
-357.596	-40.331	-0.245	0.127
-356.581	-143.449	0.338	0.032
-355.566	-72.541	0.119	0.044
-354.552	-182.145	0.250	0.005
-353.537	-200.000	-0.012	-0.243
-352.523	-114.989	0.154	0.029
-351.508	-104.708	-0.294	0.067
-350.493	-200.000	0.037	-0.303
-349.479	-139.158	-0.089	0.010
-348.464	-108.872	-0.264	0.056
-347.450	-176.371	0.168	-0.004
-346.435	-49.738	0.156	-0.074
-345.420	-200.000	0.009	0.155
-344.406	-200.000	0.026	-0.195
-343.391	-200.000	-0.010	-0.131
-342.377	514.023	0.115	0.266
-341.362	-104.498	0.319	0.073
-340.348	-71.660	0.222	-0.082
-339.333	-4.544	0.103	-0.070
-338.318	800.000	0.089	0.310
-337.304	17.255	-0.175	0.138
-336.289	-62.902	0.088	-0.036
-335.275	237.149	-0.156	0.257
-334.260	9.675	-0.262	-0.197
-333.245	46.672	-0.271	-0.250
-332.231	58.838	-0.143	-0.140
-331.216	-102.731	0.021	-0.005
-330.202	101.080	-0.044	-0.050
-329.187	-29.767	0.332	0.188
-328.172	-200.000	0.006	-0.132
-327.158	134.821	-0.090	-0.116
-326.143	247.454	0.123	-0.207
-325.129	-200.000	-0.005	-0.086
-324.114	800.000	-0.064	-0.185
-323.099	800.000	-0.060	0.172
-322.085	-65.698	-0.205	0.082
-321.070	75.544	0.201	0.211
-320.056	-61.830	0.051	-0.021
-319.041	800.000	0.034	0.113
-318.026	411.752	-0.205	0.432
-317.012	8.328	-0.181	-0.135
-315.997	33.180	0.292	-0.252
-314.983	-119.702	0.206	-0.035
-313.968	-200.000	-0.037	0.182
-312.953	-49.032	0.160	0.076
-311.939	-37.954	-0.159	0.084
-310.924	10.374	0.166	0.125
-309.910	46.384	0.279	-0.257
-308.895	87.024	-0.304	-0.333
-307.880	800.000	-0.023	0.088
-306.866	52.618	-0.182	0.172
-305.851	654.390	-0.024	0.061
-304.837	472.178	-0.158	-0.354
-303.822	-25.850	0.282	-0.165
-302.807	61.507	0.198	0.196
-301.793	-6.334	0.319	-0.216
-300.778	98.250	-0.037	0.042
-299.764	-200.000	0.032	0.242
-298.749	-200.000	-0.048	0.356
-297.735	800.000	-0.084	0.270
-296.720	800.000	-0.070	-0.301
-295.705	74.284	-0.146	0.152
-294.691	97.928	-0.041	-0.046
-293.676	-106.007	-0.059	-0.013
-292.662	68.994	0.048	-0.049
-291.647	167.816	0.058	-0.081
-290.632	-164.385	0.171	-0.008
-289.618	173.817	0.215	-0.308
-288.603	36.287	0.090	-0.078
-287.589	-200.000	0.056	-0.389
-286.574	285.088	0.083	-0.148
-285.559	40.413	0.060	0.054
-284.545	-200.000	0.007	0.061
-283.530	17.967	-0.081	-0.064
-282.516	-112.785	0.252	-0.050
-281.501	-200.000	-0.018	-0.320
-280.486	-174.995	0.210	-0.006
-279.472	-102.012	-0.425	0.102
-278.457	354.664	0.075	0.147
-277.443	-200.000	0.007	0.499
-276.428	-200.000	-0.035	-0.196
-275.413	293.682	0.050	-0.091
-274.399	310.170	0.061	0.113
-273.384	-13.204	0.045	-0.029
-272.370	-26.399	0.116	0.067
-271.355	69.657	0.327	0.334
-270.340	-96.493	0.237	-0.062
-269.326	394.109	0.121	-0.250
-268.311	-200.000	0.041	0.323
-267.297	-46.521	-0.089	0.044
-266.282	-27.834	-0.122	-0.070
-265.267	-200.000	0.021	0.263
-264.253	-36.983	0.107	0.057
-263.238	-75.041	0.298	-0.106
-262.224	-132.531	0.431	0.055
-261.209	683.982	0.061	-0.159
-260.195	-200.000	0.004	-0.105
-259.180	-164.778	-0.072	0.003
-258.165	-111.384	0.255	-0.052
-257.151	234.883	0.156	-0.255
-256.136	-99.956	-0.435	-0.108
-255.122	-74.202	-0.116	0.042
-254.107	-5.670	-0.163	-0.111
-253.092	-20.368	-0.325	-0.198
-252.078	6.952	-0.219	0.162
-251.063	79.715	0.087	-0.092
-250.049	-63.136	0.192	0.079
-249.034	799.722	0.090	0.246
-248.019	43.087	0.201	0.182
-247.005	-200.000	-0.017	0.097
-245.990	-165.859	0.241	-0.010
-244.976	28.841	0.148	-0.124
-243.961	-62.442	0.022	0.009
-242.946	91.335	-0.282	-0.313
-241.932	-70.840	0.307	0.115
-240.917	71.992	-0.236	0.243
-239.903	163.993	0.161	0.224
-238.888	-30.058	0.257	0.145
-237.873	-123.714	0.184	-0.029
-236.859	-200.000	0.007	-0.147
-235.844	-200.000	0.001	0.233
-234.830	-89.964	0.171	-0.049
-233.815	-2.190	-0.056	0.039
-232.800	-200.000	0.030	0.195
-231.786	-200.000	-0.019	-0.458
-230.771	800.000	-0.057	-0.167
-229.757	301.413	0.137	0.251
-228.742	-50.915	0.179	0.083
-227.727	-63.359	-0.228	-0.093
-226.713	-121.773	-0.193	0.032
-225.698	18.252	-0.014	0.011
-224.684	-200.000	0.007	0.079
-223.669	-17.627	-0.160	0.099
-222.655	-27.715	0.152	0.087
-221.640	51.148	0.208	0.195
-220.625	-97.466	0.257	0.066
-219.611	-200.000	-0.031	-0.429
-218.596	68.358	0.470	0.477
-217.582	200.621	-0.148	0.225
-216.567	-200.000	0.031	0.539
-215.552	311.638	0.030	0.055
-214.538	-140.597	-0.225	0.023
-213.523	-51.310	0.226	-0.105
-212.509	31.216	0.149	-0.127
-211.494	-140.222	-0.277	0.029
-210.479	-69.839	-0.169	0.064
-209.465	159.193	-0.179	0.247
-208.450	-200.000	-0.007	-0.204
-207.436	-85.604	0.124	0.038
-206.421	0.837	0.029	-0.021
-205.406	137.149	-0.098	0.127
-204.392	82.608	0.214	-0.230
-203.377	24.431	-0.138	0.113
-202.363	-168.970	-0.359	0.013
-201.348	-200.000	0.013	0.126
-200.333	441.986	-0.133	-0.289
-199.319	-83.736	-0.274	0.087
-198.304	800.000	0.045	-0.150
-197.290	-37.746	-0.095	0.050
-196.275	-27.547	-0.201	-0.116
-195.260	-134.187	-0.330	-0.040
-194.246	-33.551	0.284	-0.155
-193.231	-20.384	-0.114	-0.070
-192.217	67.288	0.250	0.252
-191.202	-26.033	0.372	0.216
-190.187	-200.000	-0.401	0.002
-189.173	-200.000	0.007	0.297
-188.158	217.890	-0.037	0.058
-187.144	-200.000	-0.025	-0.353
-186.129	-41.075	-0.178	-0.091
-185.114	-138.670	0.048	0.005
-184.100	239.688	0.133	-0.219
-183.085	-14.308	0.071	-0.045
-182.071	-151.564	-0.431	-0.032
-181.056	-200.000	-0.017	-0.073
-180.042	290.285	-0.067	0.120
-179.027	-155.429	0.107	-0.007
-178.012	-200.000	0.001	-0.215
-176.998	-200.000	-0.037	-0.166
-175.983	79.965	0.078	0.083
-174.969	-49.575	0.034	0.016
-173.954	-178.685	0.200	0.005
-172.939	390.327	0.089	-0.182
-171.925	-51.114	0.079	-0.036
-170.910	-38.773	-0.270	0.141
-169.896	496.873	-0.023	-0.053
-168.881	800.000	-0.159	-0.624
-167.866	-166.543	0.254	-0.010
-166.852	-94.516	0.066	0.018
-165.837	-62.586	0.247	0.101
-164.823	-200.000	-0.049	-0.263
-163.808	800.000	-0.058	0.169
-162.793	90.964	0.104	-0.115
-161.779	29.443	0.119	0.100
-160.764	-81.714	0.178	0.058
-159.750	-200.000	-0.006	0.160
-158.735	-200.000	-0.037	-0.304
-157.720	-106.896	0.184	-0.040
-156.706	-101.713	-0.236	0.057
-155.691	-100.267	0.267	-0.065
-154.677	800.000	-0.095	-0.314
-153.662	21.700	-0.266	-0.214
-152.647	187.626	-0.083	-0.122
-151.633	-104.014	-0.172	0.040
-150.618	-200.000	-0.011	-0.059
-149.604	-200.000	-0.016	0.153
-148.589	-200.000	0.053	-0.429
-147.574	-200.000	-0.003	-0.155
-146.560	-200.000	-0.006	-0.238
-145.545	-200.000	-0.020	0.198
-144.531	170.927	0.016	0.023
-143.516	-42.429	-0.061	0.031
-142.502	-200.000	0.004	0.090
-141.487	-99.429	0.206	-0.051
-140.472	-170.744	0.239	0.008
-139.458	-115.199	0.167	0.031
-138.443	800.000	-0.073	0.199
-137.429	-200.000	-0.011	0.298
-136.414	-99.031	-0.511	-0.128
-135.399	-200.000	-0.010	-0.123
-134.385	-95.639	0.072	-0.019
-133.370	800.000	0.067	0.212
-132.356	220.929	0.131	-0.207
-131.341	-119.110	0.144	-0.025
-130.326	-69.956	-0.258	0.097
-129.312	208.788	0.160	-0.247
-128.297	1.379	0.061	0.043
-127.283	-179.137	0.265	-0.006
-126.268	-200.000	0.002	-0.109
-125.253	103.814	0.108	-0.125
-124.239	-200.000	0.068	0.406
-123.224	-200.000	-0.016	-0.083
-122.210	388.944	0.052	-0.106
-121.195	-200.000	0.003	0.121
-120.180	-103.334	0.105	-0.025
-119.166	-200.000	0.005	-0.176
-118.151	374.605	-0.091	0.183
-117.137	-80.349	0.166	0.055
-116.122	527.067	0.139	-0.322
-115.107	-25.032	-0.234	-0.137
-114.093	-136.276	0.087	-0.010
-113.078	-141.697	-0.245	-0.024
-112.064	398.926	-0.251	0.519
-111.049	800.000	0.047	-0.171
-110.034	34.373	-0.164	0.141
-109.020	-200.000	0.023	0.105
-108.005	91.739	0.145	-0.161
-106.991	-82.494	-0.151	-0.048
-105.976	-14.716	0.153	-0.097
-104.962	-200.000	0.000	0.015
-103.947	718.137	0.051	0.135
-102.932	226.127	0.066	-0.106
-101.918	800.000	-0.026	0.083
-100.903	-200.000	0.014	-0.077
-99.889	653.034	0.112	0.284
-98.874	800.000	-0.049	-0.162
-97.859	55.892	0.197	0.188
-96.845	-200.000	0.005	-0.048
-95.830	352.995	0.194	0.380
-94.816	-5.415	0.243	0.164
-93.801	-32.837	0.203	-0.111
-92.786	-6.955	0.023	0.016
-91.772	39.072	0.275	0.242
-90.757	131.519	-0.074	-0.093
-89.743	-75.990	0.146	0.051
-88.728	-19.344	-0.073	0.045
-87.713	-200.000	-0.013	0.078
-86.699	318.122	0.041	0.077
-85.684	101.185	0.171	-0.196
-84.670	108.550	0.256	-0.301
-83.655	2.558	-0.152	0.108
-82.640	-45.440	0.430	0.210
-81.626	-200.000	0.032	0.373
-80.611	50.306	-0.008	0.007
-79.597	607.685	-0.094	0.232
-78.582	-72.237	0.294	0.107
-77.567	-85.277	0.109	-0.033
-76.553	52.296	0.098	-0.092
-75.538	800.000	0.019	-0.070
-74.524	35.382	-0.108	0.094
-73.509	-99.903	0.199	-0.049
-72.494	-108.797	0.227	-0.048
-71.480	718.276	-0.080	-0.209
-70.465	-78.513	-0.171	0.057
-69.451	800.000	-0.058	0.160
-68.436	403.888	0.130	0.269
-67.422	4.408	-0.168	0.121
-66.407	-38.227	-0.191	-0.100
-65.392	34.386	0.217	-0.186
-64.378	-76.830	0.117	0.040
-63.363	-200.000	0.034	-0.185
-62.349	128.125	0.148	0.186
-61.334	137.507	-0.815	-1.049
-60.319	32.233	0.421	0.358
-59.305	450.979	-0.371	-0.806
-58.290	671.314	0.458	1.166
-57.276	210.615	0.847	1.309
-56.261	-200.000	100.461	638.480
-55.246	622.690	1447.172	3584.712
-54.232	181.393	2656.694	3843.316
-53.217	117.219	2202.090	2662.202
-52.203	42.752	1728.627	1548.656
-51.188	34.929	1541.359	1326.835
-50.173	32.504	1515.131	1287.651
-49.159	53.750	1566.159	1479.076
-48.144	55.011	1583.372	1504.015
-47.130	35.174	1541.040	1328.054
-46.115	32.070	1525.558	1293.312
-45.100	31.901	1522.285	1289.329
-44.086	31.796	1520.829	1287.320
-43.071	31.759	1518.639	1285.165
-42.057	31.774	1517.047	1283.872
-41.042	31.789	1515.716	1282.791
-40.027	31.884	1513.738	1281.718
-39.013	31.719	1512.771	1279.718
-37.998	31.743	1511.810	1279.019
-36.984	31.744	1510.442	1277.820
-35.969	31.836	1508.804	1277.013
-34.954	31.777	1507.498	1275.449
-33.940	31.724	1506.156	1273.905
-32.925	31.819	1504.081	1272.749
-31.911	31.810	1503.245	1271.928
-30.896	31.831	1501.963	1270.932
-29.881	31.921	1500.381	1270.153
-28.867	31.878	1498.595	1268.299
-27.852	31.810	1497.790	1267.108
-26.838	31.770	1496.212	1265.452
-25.823	31.724	1494.987	1264.060
-24.809	31.782	1493.204	1262.891
-23.794	31.786	1491.605	1261.515
-22.779	31.735	1490.714	1260.371
-21.765	31.778	1489.220	1259.345
-20.750	31.826	1488.296	1258.833
-19.736	31.785	1487.526	1257.856
-18.721	31.794	1486.059	1256.628
-17.706	31.774	1485.266	1255.773
-16.692	31.763	1484.258	1254.796
-15.677	31.809	1482.857	1253.874
-14.663	31.764	1482.155	1252.926
-13.648	31.688	1481.390	1251.724
-12.633	31.829	1479.926	1251.376
-11.619	31.676	1479.547	1249.988
-10.604	31.707	1478.303	1249.090
-9.590	31.824	1477.162	1248.857
-8.575	31.730	1476.828	1247.901
-7.560	31.692	1475.733	1246.671
-6.546	31.760	1474.621	1246.138
-5.531	31.666	1473.918	1244.865
-4.517	31.636	1473.090	1243.921
-3.502	31.628	1472.343	1243.186
-2.487	31.683	1470.809	1242.206
-1.473	31.617	1469.559	1240.663
-0.458	31.631	1468.505	1239.819
0.556	29.490	1459.270	1230.842
1.571	27.164	1433.265	1193.543
2.586	24.255	1374.031	1125.775
3.600	22.868	1292.867	1050.934
4.615	21.497	1247.715	1006.261
5.629	18.692	1191.317	945.266
6.644	9.702	1104.474	830.185
7.659	1.938	1061.779	759.468
8.673	0.489	1055.744	747.910
9.688	0.155	1052.458	743.866
10.702	0.039	1051.251	742.370
11.717	-0.022	1049.454	740.736
12.731	3.657	1053.367	761.601
13.746	12.919	1066.389	817.020
14.761	19.542	1075.065	856.562
15.775	21.047	1076.553	865.145
16.790	21.155	1076.769	865.776
17.804	21.147	1075.194	864.392
18.819	21.112	1074.422	863.526
19.834	21.023	1074.188	862.821
20.848	21.166	1073.448	862.856
21.863	21.130	1073.408	862.568
22.877	21.060	1073.278	862.041
23.892	21.022	1072.305	860.997
24.907	21.052	1071.092	860.094
25.921	21.098	1070.917	860.103
26.936	21.111	1069.803	859.196
27.950	20.991	1069.013	857.898
28.965	20.993	1067.440	856.570
29.980	21.061	1065.414	855.203
30.994	20.996	1064.165	853.801
32.009	21.101	1063.653	853.831
33.023	21.358	1062.961	854.458
34.038	21.090	1061.471	851.877
35.053	20.891	1061.250	850.650
36.067	21.210	1060.124	851.227
37.082	21.214	1058.883	850.174
38.096	21.171	1058.564	849.636
39.111	21.314	1057.738	849.592
40.126	21.490	1056.593	849.450
41.140	21.247	1055.868	847.618
42.155	21.108	1054.056	845.412
43.169	20.824	1052.903	843.038
44.184	20.833	1051.483	841.871
45.199	20.839	1050.793	841.273
46.213	20.652	1049.991	839.651
47.228	20.720	1049.083	839.180
48.242	20.851	1047.996	838.869
49.257	21.017	1047.329	839.059
50.271	21.053	1046.277	838.315
51.286	21.199	1045.719	838.493
52.301	21.199	1045.195	837.999
53.315	21.234	1044.289	837.367
54.330	21.058	1043.486	835.806
55.344	20.948	1042.994	834.811
56.359	21.205	1041.648	834.888
57.374	21.121	1041.143	834.008
58.388	20.842	1040.222	831.863
59.403	20.906	1039.025	831.139
60.417	20.930	1038.557	830.805
61.432	20.725	1037.687	829.063
62.447	20.758	1037.146	828.712
63.461	20.986	1036.385	829.118
64.476	20.884	1035.632	827.953
65.490	21.072	1034.240	827.662
66.505	20.921	1033.303	826.120
67.520	20.781	1032.831	825.007
68.534	20.947	1032.022	825.076
69.549	20.743	1031.030	823.244
70.563	20.533	1030.107	821.440
71.578	20.418	1028.737	819.734
72.593	20.524	1028.119	819.671
73.607	20.334	1026.827	817.672
74.622	20.356	1025.882	816.950
75.636	20.591	1025.398	817.598
76.651	20.772	1024.966	818.030
77.666	20.615	1023.931	816.395
78.680	20.664	1022.839	815.682
79.695	20.518	1023.003	815.055
80.709	20.674	1021.870	814.814
81.724	20.759	1021.336	814.711
82.739	20.729	1020.258	813.642
83.753	20.745	1019.416	812.970
84.768	20.980	1018.524	813.282
85.782	21.183	1018.459	814.108
86.797	21.416	1017.512	814.362
87.812	21.307	1016.789	813.204
88.826	21.247	1015.674	811.964
89.841	21.258	1014.352	810.885
90.855	21.399	1013.841	811.059
91.870	21.258	1013.506	810.066
92.884	21.446	1012.238	809.850
93.899	21.334	1010.752	808.074
94.914	21.202	1010.332	807.055
95.928	21.282	1009.780	806.913
96.943	21.342	1008.937	806.445
97.957	20.954	1007.982	803.819
98.972	20.883	1006.266	802.056
99.987	20.678	1005.326	800.292
101.001	20.822	1004.798	800.461
102.016	21.019	1004.446	801.016
103.030	21.037	1003.458	800.241
104.045	21.042	1002.116	799.121
105.060	20.819	1001.041	797.173
106.074	20.722	999.461	795.399
107.089	20.776	999.059	795.257
108.103	21.103	998.700	796.394
109.118	21.160	997.511	795.635
110.133	20.904	996.568	793.649
111.147	20.974	995.683	793.190
112.162	20.890	994.224	791.576
113.176	20.582	993.332	789.398
114.191	20.756	992.352	789.338
115.206	20.837	991.814	789.207
116.220	20.496	990.196	786.308
117.235	20.493	989.534	785.697
118.249	20.499	988.993	785.225
119.264	20.652	987.879	784.965
120.279	20.396	987.458	783.404
121.293	20.423	986.384	782.608
122.308	20.597	986.036	783.045
123.322	20.687	984.237	781.949
124.337	20.529	983.549	780.627
125.352	20.505	982.195	779.372
126.366	20.266	980.280	776.717
127.381	19.819	978.979	773.615
128.395	20.338	978.559	775.534
129.410	20.892	978.921	778.232
130.424	21.041	978.086	778.161
131.439	21.068	977.094	777.424
132.454	21.088	975.307	776.022
133.468	21.135	974.803	775.760
134.483	20.971	974.136	774.436
135.497	21.008	973.608	774.110
136.512	21.200	973.081	774.475
137.527	21.284	971.844	773.794
138.541	21.312	971.269	773.392
139.556	21.286	970.465	772.567
140.570	21.322	969.674	772.027
141.585	21.340	968.372	771.003
142.600	21.442	968.113	771.176
143.614	21.330	966.724	769.510
144.629	21.265	966.567	769.030
145.643	21.623	965.559	769.737
146.658	21.354	964.773	767.858
147.673	21.353	963.537	766.801
148.687	21.237	962.357	765.287
149.702	21.188	960.924	763.867
150.716	20.989	960.368	762.487
151.731	21.204	958.865	762.164
152.746	21.196	958.342	761.645
153.760	21.348	957.782	761.796
154.775	21.469	957.118	761.729
155.789	21.514	956.159	761.094
156.804	21.399	955.173	759.742
157.819	21.350	954.134	758.635
158.833	21.431	953.577	758.474
159.848	21.559	953.050	758.545
160.862	21.603	952.192	757.983
161.877	21.342	951.241	756.030
162.892	21.274	950.456	755.045
163.906	21.440	949.983	755.321
164.921	21.390	948.694	754.013
165.935	21.546	947.175	753.411
166.950	21.447	946.806	752.627
167.964	21.386	945.990	751.647
168.979	21.472	944.567	750.818
169.994	21.403	943.355	749.493
171.008	21.303	942.403	748.245
172.023	21.446	942.102	748.551
173.037	21.497	941.318	748.081
174.052	21.266	940.135	746.087
175.067	21.177	938.882	744.647
176.081	21.110	938.074	743.655
177.096	21.234	937.612	743.749
178.110	21.130	936.903	742.680
179.125	21.073	935.785	741.485
180.140	20.805	934.564	739.314
181.154	20.770	933.785	738.485
182.169	20.815	933.649	738.502
183.183	21.250	932.877	739.668
184.198	21.389	932.669	740.029
185.213	21.313	931.900	739.030
186.227	21.241	931.347	738.221
187.242	21.377	930.862	738.348
188.256	21.371	930.267	737.786
189.271	21.412	929.272	737.102
190.286	21.411	928.620	736.517
191.300	21.464	927.339	735.658
192.315	20.992	926.037	732.577
193.329	20.118	924.589	727.699
194.344	19.737	923.749	725.375
195.359	20.390	924.174	728.386
196.373	20.968	924.510	731.010
197.388	21.374	923.839	732.113
198.402	21.428	922.622	731.312
199.417	21.157	922.328	729.880
200.432	21.247	921.656	729.660
201.446	21.062	921.480	728.684
202.461	20.969	920.079	727.126
203.475	21.067	919.606	727.096
204.490	20.489	918.495	723.745
205.504	19.342	916.577	717.398
206.519	19.959	916.214	719.619
207.534	20.798	916.654	723.385
208.548	20.928	916.068	723.400
209.563	21.186	916.246	724.547
210.577	21.269	914.954	723.803
211.592	20.972	914.186	721.904
212.607	21.354	914.540	723.700
213.621	21.523	913.752	723.712
214.636	21.437	913.020	722.713
215.650	21.585	912.462	722.821
216.665	21.352	911.763	721.241
217.680	21.468	911.214	721.220
218.694	21.553	910.379	720.845
219.709	21.164	909.643	718.597
220.723	20.793	908.698	716.263
221.738	21.035	908.430	716.981
222.753	21.205	907.915	717.212
223.767	21.365	907.010	717.090
224.782	21.204	906.537	715.992
225.796	21.544	905.628	716.602
226.811	21.553	905.288	716.308
227.826	21.181	903.796	713.542
228.840	20.464	902.361	709.422
229.855	20.258	902.058	708.277
230.869	20.680	901.581	709.564
231.884	20.273	900.578	707.051
232.899	20.495	900.091	707.511
233.913	21.104	900.464	710.222
234.928	21.312	899.874	710.541
235.942	21.135	899.065	709.120
236.957	21.268	898.510	709.157
237.972	21.038	897.316	707.222
238.986	20.798	896.443	705.498
240.001	21.043	896.047	706.117
241.015	21.017	895.370	705.414
242.030	21.120	895.206	705.640
243.045	21.232	894.346	705.349
244.059	21.210	894.496	705.319
245.074	21.425	893.609	705.424
246.088	21.358	892.997	704.608
247.103	20.908	891.830	701.811
248.117	20.955	891.390	701.594
249.132	21.598	891.340	704.077
250.147	22.068	890.893	705.553
251.161	22.089	890.048	704.907
252.176	22.108	889.978	704.864
253.190	22.135	889.108	704.221
254.205	22.190	888.671	704.034
255.220	22.259	888.531	704.135
256.234	22.348	887.659	703.736
257.249	22.277	887.061	702.917
258.263	22.120	886.305	701.628
259.278	22.047	885.707	700.803
260.293	22.129	885.640	701.014
261.307	22.250	884.823	700.789
262.322	22.117	883.822	699.403
263.336	22.019	883.318	698.553
264.351	21.591	881.642	695.467
265.366	20.397	879.791	689.207
266.380	20.047	878.586	686.815
267.395	20.840	879.563	690.664
268.409	21.752	879.221	693.949
269.424	21.528	878.805	692.672
270.439	21.739	878.315	693.058
271.453	21.958	877.688	693.370
272.468	21.999	876.861	692.815
273.482	22.212	876.372	693.207
274.497	22.320	876.031	693.304
275.512	21.994	874.977	691.125
276.526	21.468	874.037	688.251
277.541	21.750	873.450	688.836
278.555	22.109	872.978	689.814
279.570	21.956	872.318	688.631
280.585	21.723	871.763	687.219
281.599	21.736	871.300	686.843
282.614	21.917	870.557	686.906
283.628	21.394	869.936	684.309
284.643	21.259	868.424	682.533
285.657	21.587	868.618	683.904
286.672	21.379	867.920	682.484
287.687	20.916	866.792	679.729
288.701	21.198	866.864	680.826
289.716	21.745	866.667	682.744
290.730	21.294	865.566	680.059
291.745	21.226	864.919	679.225
292.760	20.989	863.643	677.245
293.774	21.044	863.243	677.082
294.789	21.946	864.018	681.134
295.803	22.496	863.827	683.055
296.818	22.463	863.293	682.446
297.833	22.443	863.177	682.217
298.847	22.316	861.376	680.241
299.862	21.943	860.785	678.275
300.876	22.159	860.317	678.679
301.891	22.465	860.043	679.585
302.906	22.446	859.362	678.912
303.920	22.046	858.522	676.647
304.935	22.115	857.301	675.890
305.949	22.156	857.395	676.064
306.964	22.523	856.508	676.716
307.979	22.286	855.717	675.120
308.993	22.284	855.920	675.214
310.008	22.659	855.147	675.982
311.022	22.773	854.806	676.089
312.037	22.393	854.372	674.228
313.052	22.244	853.942	673.261
314.066	22.150	852.808	671.946
315.081	21.570	851.391	668.557
316.095	20.816	850.461	664.890
317.110	21.304	850.408	666.651
318.125	22.219	850.823	670.410
319.139	21.590	849.911	667.233
320.154	20.695	848.047	662.309
321.168	20.207	846.832	659.446
322.183	20.933	846.926	662.221
323.197	21.709	847.547	665.596
324.212	21.867	847.559	666.144
325.227	22.154	846.937	666.687
326.241	22.290	846.413	666.732
327.256	22.252	845.505	665.812
328.270	22.209	845.038	665.225
329.285	22.105	844.263	664.163
330.300	21.966	843.693	663.130
331.314	21.674	842.892	661.340
332.329	21.684	842.157	660.740
333.343	22.115	841.914	662.117
334.358	22.403	841.604	662.897
335.373	22.385	840.981	662.281
336.387	22.509	840.481	662.295
337.402	22.598	840.036	662.222
338.416	22.844	839.747	662.856
339.431	22.832	838.964	662.136
340.446	22.781	838.781	661.742
341.460	22.894	838.277	661.709
342.475	22.881	837.297	660.830
343.489	22.736	837.043	660.027
344.504	22.632	836.463	659.123
345.519	22.928	836.145	659.921
346.533	23.140	835.546	660.179
347.548	23.223	834.975	659.981
348.562	23.150	834.733	659.458
349.577	23.164	834.326	659.130
350.592	23.171	833.516	658.457
351.606	23.087	833.049	657.717
352.621	22.956	832.869	657.032
353.635	22.953	832.339	656.542
354.650	22.958	831.613	655.930
355.665	22.497	830.559	653.333
356.679	21.494	829.129	648.435
357.694	21.468	828.576	647.849
358.708	22.054	828.498	649.900
359.723	22.071	827.666	649.252
360.738	22.233	827.506	649.667
361.752	22.679	827.531	651.278
362.767	22.717	827.231	651.123
363.781	23.066	826.959	652.140
364.796	23.403	826.674	653.098
365.810	23.442	826.181	652.794
366.825	23.245	826.417	652.200
367.840	23.434	825.489	652.105
368.854	23.387	824.683	651.236
369.869	22.899	823.883	648.755
370.883	22.764	823.014	647.518
371.898	22.955	822.149	647.479
372.913	22.772	821.892	646.552
373.927	22.863	821.232	646.306
374.942	23.038	820.439	646.265
375.956	23.093	820.235	646.247
376.971	23.203	819.881	646.313
377.986	23.207	819.743	646.162
379.000	23.477	818.760	646.315
380.015	23.437	818.476	645.889
381.029	23.332	817.703	644.837
382.044	23.195	817.343	643.999
383.059	23.366	816.797	644.135
384.073	23.428	815.965	643.647
385.088	23.338	815.743	643.088
386.102	23.380	815.230	642.777
387.117	23.324	814.415	641.875
388.132	23.244	813.653	640.930
389.146	23.054	813.105	639.754
390.161	22.427	812.192	636.710
391.175	22.526	812.070	636.918
392.190	23.044	811.966	638.650
393.205	23.253	811.156	638.711
394.219	22.130	810.092	633.769
395.234	20.537	807.417	625.890
396.248	19.991	806.104	622.854
397.263	20.925	807.191	626.998
398.278	22.710	808.728	634.565
399.292	23.131	808.579	635.907
400.307	22.805	807.726	634.008
401.321	22.940	807.007	633.873
402.336	22.772	807.224	633.385
403.350	23.006	807.178	634.131
404.365	23.605	806.732	635.873
405.380	23.918	806.461	636.723
406.394	24.112	806.165	637.125
407.409	24.387	805.499	637.527
408.423	24.218	805.047	636.510
409.438	23.943	804.895	635.350
410.453	24.034	804.594	635.379
411.467	24.165	803.993	635.317
412.482	24.117	803.367	634.597
413.496	24.016	802.641	633.608
414.511	24.072	802.549	633.678
415.526	24.177	802.355	633.841
416.540	23.967	802.130	632.862
417.555	24.041	801.386	632.480
418.569	23.712	800.918	630.885
419.584	23.831	799.774	630.351
420.599	23.849	799.602	630.225
421.613	155.270	1365.322	1796.402
422.628	134.678	1447.751	1796.495
