DTS Sentinel unit serial number:	SN413079Multiplexer serial number:	ORYXHardware model number:	OX4-SRSoftware version number:	ORYX F/W v4.00 Oryx Data Collector v3.7.2.0data status	okinstallation	princeton_trtdifferential loss correction	single-endedforward channel	channel 3reverse channel	N/Adate	2019/09/11time	19:26:11forward acquisition time	60.00reverse acquisition time	0.00gamma	496.2192k internal	0.2295k external	0.2295temperature offset calibration	1.0013default loss term (dB/km)	0.3790temperature slope calibration	1.0000multiplexer offset coefficient	1.0000multiplexer slope coefficient	1.0000fibre end	0.00T internal ref (°C)	40.67T ext. ref 1 (°C)	1.33T ext. ref 2 (°C)	33.06length (m)	temperature (°C)	Stokes	anti-Stokes-747.200	800.000	0.026	-0.083
-746.185	164.229	0.143	0.206
-745.171	429.912	-0.139	0.308
-744.156	60.027	-0.229	-0.231
-743.142	316.914	0.083	-0.161
-742.127	0.366	0.125	0.091
-741.112	-17.093	-0.104	-0.067
-740.098	409.391	-0.156	-0.337
-739.083	-52.156	-0.275	0.131
-738.069	81.488	-0.230	-0.254
-737.054	503.594	0.070	-0.166
-736.039	-41.525	-0.038	-0.020
-735.025	103.741	-0.217	0.260
-734.010	-200.000	0.021	-0.209
-732.996	12.956	0.208	0.165
-731.981	571.383	0.015	0.037
-730.966	-200.000	0.031	-0.149
-729.952	90.706	0.197	-0.225
-728.937	-91.557	-0.115	0.034
-727.923	-14.967	-0.177	0.116
-726.908	295.459	0.147	-0.274
-725.894	-200.000	-0.065	-0.322
-724.879	-200.000	-0.012	0.228
-723.864	-83.173	-0.352	0.116
-722.850	70.194	-0.294	-0.310
-721.835	-93.685	-0.361	0.102
-720.821	-71.951	0.098	-0.037
-719.806	14.963	0.249	-0.199
-718.791	359.911	-0.214	-0.438
-717.777	3.175	-0.416	-0.309
-716.762	511.699	-0.118	-0.280
-715.748	258.196	-0.105	-0.185
-714.733	59.027	0.189	-0.190
-713.718	-200.000	-0.013	-0.138
-712.704	84.942	0.091	-0.101
-711.689	201.604	0.125	-0.197
-710.675	64.229	0.121	-0.125
-709.660	-114.460	-0.078	0.015
-708.645	-94.082	0.208	-0.058
-707.631	24.535	0.187	0.158
-706.616	40.457	0.076	0.070
-705.602	-103.070	0.205	-0.050
-704.587	-27.475	0.273	-0.162
-703.572	-4.257	-0.272	0.192
-702.558	-81.799	-0.110	-0.037
-701.543	-76.803	0.354	0.126
-700.529	87.194	-0.071	-0.080
-699.514	126.405	-0.080	-0.103
-698.499	2.115	0.024	0.018
-697.485	-38.197	-0.223	-0.121
-696.470	-92.348	-0.244	0.070
-695.456	800.000	0.040	-0.165
-694.441	591.972	-0.117	0.295
-693.426	800.000	-0.071	0.310
-692.412	-48.315	-0.144	0.071
-691.397	-200.000	-0.011	0.114
-690.383	573.430	0.140	0.348
-689.368	-153.147	0.093	-0.007
-688.354	-25.551	0.135	-0.081
-687.339	-200.000	-0.028	0.153
-686.324	-26.994	-0.239	0.142
-685.310	169.105	0.079	0.115
-684.295	-200.000	-0.015	0.383
-683.281	441.377	-0.076	0.169
-682.266	469.522	-0.139	-0.318
-681.251	-22.789	-0.410	-0.253
-680.237	800.000	0.070	-0.201
-679.222	-200.000	-0.017	-0.310
-678.208	368.799	0.114	-0.234
-677.193	-113.598	-0.197	0.039
-676.178	185.047	0.170	0.257
-675.164	-200.000	0.065	0.449
-674.149	800.000	-0.031	0.090
-673.135	-200.000	0.098	-0.508
-672.120	-82.539	-0.359	-0.119
-671.105	-107.846	-0.323	-0.072
-670.091	-57.405	0.264	0.118
-669.076	46.820	-0.333	0.315
-668.062	7.745	-0.115	0.088
-667.047	-91.018	-0.379	-0.111
-666.032	253.120	-0.135	-0.235
-665.018	54.171	-0.286	0.281
-664.003	-52.330	0.372	0.176
-662.989	-116.634	0.309	-0.058
-661.974	6.975	-0.241	-0.183
-660.959	-200.000	0.014	0.158
-659.945	-76.691	-0.301	0.108
-658.930	25.483	0.140	-0.119
-657.916	-200.000	0.014	-0.066
-656.901	189.617	0.053	-0.081
-655.886	-200.000	0.022	-0.307
-654.872	-56.551	-0.265	0.120
-653.857	-131.824	-0.367	-0.049
-652.843	488.225	0.173	0.402
-651.828	-200.000	0.039	-0.427
-650.814	-110.553	0.416	-0.088
-649.799	-200.000	0.043	-0.289
-648.784	503.279	-0.057	-0.134
-647.770	-56.649	0.286	-0.129
-646.755	41.783	0.186	0.172
-645.741	-200.000	0.007	-0.103
-644.726	115.870	-0.084	-0.105
-643.711	-200.000	0.021	0.160
-642.697	-6.925	-0.124	0.086
-641.682	-200.000	-0.008	-0.040
-640.668	-4.688	-0.112	0.078
-639.653	-200.000	-0.036	-0.163
-638.638	-67.732	0.210	0.083
-637.624	-86.989	0.176	0.055
-636.609	-124.970	-0.145	-0.023
-635.595	90.769	0.150	-0.172
-634.580	-200.000	-0.017	-0.293
-633.565	13.881	-0.270	-0.213
-632.551	-200.000	0.016	-0.315
-631.536	-134.767	-0.188	-0.023
-630.522	75.535	0.252	0.271
-629.507	-36.219	0.121	0.067
-628.492	-6.230	-0.336	-0.234
-627.478	-112.448	-0.325	-0.066
-626.463	7.504	0.120	0.091
-625.449	-19.992	-0.318	0.200
-624.434	-89.958	-0.262	-0.078
-623.419	182.873	-0.284	-0.427
-622.405	-200.000	-0.034	-0.187
-621.390	-168.050	-0.212	0.008
-620.376	57.943	0.156	0.156
-619.361	-200.000	0.029	-0.323
-618.346	54.226	0.059	0.058
-617.332	129.810	-0.235	0.305
-616.317	20.690	0.336	0.276
-615.303	-200.000	-0.001	0.035
-614.288	-156.484	0.491	-0.031
-613.273	-60.185	0.129	0.056
-612.259	-200.000	-0.024	0.126
-611.244	163.725	-0.050	-0.071
-610.230	-78.498	-0.126	-0.044
-609.215	545.185	-0.086	0.208
-608.201	800.000	-0.065	0.208
-607.186	-58.199	-0.086	0.038
-606.171	-45.201	-0.067	0.034
-605.157	-186.986	0.302	0.004
-604.142	-92.173	0.135	-0.039
-603.128	-8.560	0.109	-0.075
-602.113	-200.000	0.008	0.139
-601.098	90.945	-0.109	0.124
-600.084	-119.540	0.215	-0.038
-599.069	4.303	-0.156	-0.116
-598.055	-200.000	0.015	0.284
-597.040	-200.000	-0.032	-0.291
-596.025	-54.306	-0.196	0.090
-595.011	110.488	0.151	0.185
-593.996	-157.538	0.150	-0.009
-592.982	-83.648	-0.282	-0.091
-591.967	-11.880	-0.079	-0.052
-590.952	-84.596	-0.055	0.018
-589.938	800.000	-0.024	0.087
-588.923	-81.640	-0.301	0.100
-587.909	800.000	-0.063	-0.224
-586.894	-98.729	-0.050	-0.013
-585.879	308.784	0.077	-0.146
-584.865	12.341	-0.194	-0.152
-583.850	-200.000	-0.004	0.163
-582.836	661.693	0.063	-0.166
-581.821	-10.318	-0.175	0.118
-580.806	-19.267	-0.267	0.168
-579.792	672.287	-0.035	-0.093
-578.777	79.664	0.100	0.109
-577.763	-85.908	0.125	-0.039
-576.748	-200.000	-0.447	-0.001
-575.733	-96.936	-0.304	-0.081
-574.719	-18.085	0.174	-0.111
-573.704	185.603	0.270	0.408
-572.690	4.208	0.243	-0.180
-571.675	-200.000	-0.001	-0.037
-570.661	-200.000	0.013	0.147
-569.646	-117.306	0.079	-0.014
-568.631	128.934	0.121	0.156
-567.617	-46.870	-0.140	-0.069
-566.602	31.677	0.249	0.217
-565.588	63.213	0.220	0.224
-564.573	-149.607	-0.029	0.002
-563.558	302.125	-0.118	-0.221
-562.544	-200.000	-0.031	-0.171
-561.529	7.155	-0.216	-0.164
-560.515	-195.971	-0.071	-0.001
-559.500	-200.000	0.011	-0.126
-558.485	-80.344	0.359	-0.122
-557.471	-67.422	0.313	-0.125
-556.456	232.166	0.044	-0.073
-555.442	-200.000	-0.049	0.222
-554.427	-200.000	-0.032	0.146
-553.412	61.543	0.012	-0.012
-552.398	800.000	-0.008	-0.028
-551.383	-163.450	0.103	-0.005
-550.369	40.373	-0.494	0.451
-549.354	437.241	0.107	0.237
-548.339	72.053	0.105	-0.111
-547.325	-26.432	-0.205	-0.122
-546.310	800.000	0.017	0.056
-545.296	-200.000	0.015	-0.249
-544.281	11.663	0.140	-0.109
-543.266	-200.000	-0.058	-0.425
-542.252	-19.501	0.209	-0.131
-541.237	170.861	0.190	0.276
-540.223	448.043	-0.123	-0.275
-539.208	-45.045	0.260	0.131
-538.193	-98.324	-0.222	-0.058
-537.179	548.588	-0.138	-0.335
-536.164	-129.794	0.087	0.012
-535.150	136.359	0.039	-0.051
-534.135	19.670	-0.109	-0.089
-533.121	-200.000	-0.021	0.156
-532.106	107.229	-0.094	-0.113
-531.091	-77.587	-0.212	-0.075
-530.077	800.000	0.077	-0.330
-529.062	-111.654	-0.279	0.057
-528.048	-128.870	0.284	-0.040
-527.033	55.500	0.216	0.212
-526.018	800.000	0.182	0.648
-525.004	334.250	0.175	0.344
-523.989	253.091	0.048	-0.083
-522.975	501.031	-0.086	-0.202
-521.960	-74.154	-0.282	0.103
-520.945	-200.000	-0.046	-0.341
-519.931	-188.355	0.180	-0.002
-518.916	5.579	-0.280	0.210
-517.902	15.600	-0.225	0.179
-516.887	169.579	0.184	-0.267
-515.872	58.802	-0.051	0.051
-514.858	644.482	0.068	0.176
-513.843	-200.000	-0.008	0.160
-512.829	293.366	0.057	0.106
-511.814	-200.000	0.005	0.029
-510.799	-137.538	-0.271	-0.031
-509.785	-85.903	0.223	0.070
-508.770	386.581	0.084	0.175
-507.756	-94.953	-0.239	-0.066
-506.741	-200.000	-0.001	0.077
-505.726	4.631	-0.360	0.268
-504.712	-200.000	-0.005	0.143
-503.697	-89.870	0.108	0.032
-502.683	338.760	0.154	0.304
-501.668	99.100	-0.222	0.259
-500.653	0.641	-0.252	-0.183
-499.639	721.079	0.043	-0.116
-498.624	-200.000	0.019	-0.122
-497.610	-22.205	0.303	0.186
-496.595	592.364	-0.068	0.171
-495.581	-167.555	0.318	0.013
-494.566	-174.425	0.029	-0.001
-493.551	-126.502	-0.202	-0.030
-492.537	-200.000	-0.001	-0.070
-491.522	-65.066	0.195	0.080
-490.508	88.551	-0.190	-0.214
-489.493	-185.238	0.118	-0.002
-488.478	181.545	0.271	0.403
-487.464	-200.000	-0.045	-0.430
-486.449	-6.604	0.410	0.282
-485.435	-200.000	-0.030	0.154
-484.420	455.905	-0.020	-0.044
-483.405	-200.000	0.019	-0.116
-482.391	-200.000	-0.000	-0.101
-481.376	-200.000	0.020	0.124
-480.362	800.000	-0.069	0.238
-479.347	800.000	-0.106	-0.317
-478.332	-128.629	-0.294	0.042
-477.318	-118.649	0.260	-0.046
-476.303	235.533	-0.060	-0.101
-475.289	-93.359	0.259	-0.073
-474.274	35.034	-0.226	0.200
-473.259	154.162	0.047	0.065
-472.245	-76.612	0.155	0.055
-471.230	408.259	-0.126	-0.270
-470.216	-65.455	0.194	-0.079
-469.201	290.563	0.066	-0.121
-468.186	800.000	-0.114	-0.335
-467.172	632.864	0.084	-0.216
-466.157	58.288	0.076	0.076
-465.143	-114.545	0.294	0.057
-464.128	-200.000	-0.038	-0.236
-463.113	138.210	0.055	-0.073
-462.099	-157.327	0.383	0.023
-461.084	264.895	-0.032	0.056
-460.070	-26.257	0.196	0.116
-459.055	12.631	-0.330	-0.257
-458.040	55.915	0.100	-0.098
-457.026	-200.000	0.028	0.446
-456.011	800.000	0.039	-0.172
-454.997	9.133	0.224	0.171
-453.982	116.583	0.137	0.170
-452.968	-9.008	0.263	0.178
-451.953	-64.226	-0.430	-0.177
-450.938	296.320	-0.041	0.076
-449.924	463.642	-0.025	0.057
-448.909	-5.956	0.223	-0.154
-447.895	514.859	-0.094	-0.222
-446.880	378.607	0.057	0.117
-445.865	-200.000	0.058	0.380
-444.851	-200.000	0.040	0.267
-443.836	-55.027	0.069	-0.031
-442.822	800.000	-0.010	-0.043
-441.807	41.405	-0.403	-0.368
-440.792	-75.430	0.289	0.104
-439.778	-78.071	-0.024	0.008
-438.763	211.685	0.184	0.293
-437.749	800.000	0.065	0.187
-436.734	800.000	0.070	-0.235
-435.719	-181.703	0.073	-0.001
-434.705	353.157	-0.142	0.285
-433.690	611.516	-0.059	0.150
-432.676	68.866	-0.403	-0.418
-431.661	-200.000	-0.005	-0.125
-430.646	121.977	0.138	0.174
-429.632	495.254	-0.039	-0.091
-428.617	97.885	-0.020	0.023
-427.603	-77.772	0.193	-0.067
-426.588	162.273	0.110	0.156
-425.573	-55.740	0.268	0.121
-424.559	-62.681	-0.342	-0.143
-423.544	-132.606	0.202	0.026
-422.530	-64.010	-0.136	0.056
-421.515	-111.568	0.357	-0.073
-420.500	800.000	-0.033	0.140
-419.486	389.964	0.154	0.322
-418.471	-94.131	0.180	-0.050
-417.457	-0.261	0.221	0.159
-416.442	-6.777	0.075	0.051
-415.428	-200.000	0.005	0.349
-414.413	132.286	-0.213	-0.277
-413.398	-148.318	-0.459	-0.038
-412.384	-200.000	-0.005	-0.087
-411.369	-200.000	-0.006	0.300
-410.355	-103.288	-0.112	0.027
-409.340	184.958	0.117	0.176
-408.325	214.216	-0.139	0.221
-407.311	32.309	0.052	0.045
-406.296	-64.343	0.207	-0.085
-405.282	731.125	0.077	0.207
-404.267	-34.123	0.118	0.065
-403.252	-200.000	-0.020	-0.257
-402.238	-100.578	-0.199	-0.049
-401.223	-166.192	0.158	0.007
-400.209	83.285	-0.128	0.140
-399.194	18.540	0.307	0.247
-398.179	-200.000	-0.068	-0.396
-397.165	800.000	-0.112	-0.384
-396.150	405.723	-0.047	-0.100
-395.136	-200.000	0.007	-0.141
-394.121	263.343	0.046	-0.081
-393.106	-93.312	-0.400	0.112
-392.092	-200.000	-0.003	-0.124
-391.077	-52.678	-0.102	-0.048
-390.063	52.135	-0.093	0.089
-389.048	5.336	-0.102	0.076
-388.033	230.376	0.216	-0.357
-387.019	167.938	0.096	-0.137
-386.004	-155.859	-0.479	-0.031
-384.990	10.324	-0.085	0.065
-383.975	-73.547	-0.225	0.083
-382.960	210.208	0.103	0.162
-381.946	-96.723	-0.075	-0.020
-380.931	-98.910	-0.296	0.076
-379.917	-70.939	0.130	0.050
-378.902	137.870	-0.035	0.047
-377.888	-7.848	0.123	-0.083
-376.873	-113.701	-0.161	-0.032
-375.858	-35.216	-0.406	-0.222
-374.844	35.434	0.404	0.357
-373.829	-34.189	0.276	0.153
-372.815	105.423	0.189	-0.225
-371.800	261.861	-0.177	-0.310
-370.785	-116.345	-0.374	0.070
-369.771	-181.122	0.240	0.005
-368.756	-76.791	-0.249	0.088
-367.742	633.526	0.133	-0.340
-366.727	-200.000	-0.003	0.125
-365.712	66.905	0.224	0.230
-364.698	-181.860	0.443	0.009
-363.683	-32.908	-0.109	-0.061
-362.669	-24.777	-0.063	-0.037
-361.654	-131.580	0.242	-0.032
-360.639	-56.267	0.158	0.071
-359.625	281.662	-0.134	0.242
-358.610	-200.000	-0.001	0.075
-357.596	800.000	-0.072	-0.305
-356.581	-200.000	0.029	0.178
-355.566	-200.000	-0.022	-0.115
-354.552	-34.673	-0.224	-0.124
-353.537	159.891	-0.168	0.236
-352.523	257.263	0.163	0.283
-351.508	-15.565	-0.567	0.364
-350.493	800.000	-0.052	-0.163
-349.479	199.097	0.082	0.126
-348.464	217.969	-0.042	0.067
-347.450	20.556	0.191	-0.156
-346.435	26.858	-0.322	0.272
-345.420	-113.930	-0.086	0.017
-344.406	6.288	-0.133	0.100
-343.391	71.262	0.087	-0.090
-342.377	-193.788	0.413	-0.004
-341.362	800.000	-0.056	-0.229
-340.348	-200.000	-0.050	-0.258
-339.333	-141.492	-0.185	0.019
-338.318	-191.646	0.247	-0.002
-337.304	168.761	0.157	0.225
-336.289	52.162	0.199	-0.191
-335.275	-19.414	-0.380	-0.237
-334.260	225.350	0.102	0.166
-333.245	-200.000	0.038	-0.196
-332.231	236.243	-0.195	0.324
-331.216	-171.895	0.224	0.007
-330.202	800.000	-0.055	-0.236
-329.187	-140.147	0.481	0.051
-328.172	800.000	0.047	-0.149
-327.158	-20.531	0.235	-0.145
-326.143	-200.000	-0.009	-0.165
-325.129	-200.000	0.016	0.216
-324.114	-145.631	0.270	-0.024
-323.099	-142.578	-0.246	0.024
-322.085	13.283	-0.093	-0.073
-321.070	-31.701	-0.120	-0.068
-320.056	123.810	-0.111	-0.140
-319.041	-62.331	-0.306	0.128
-318.026	600.921	-0.120	-0.300
-317.012	-1.241	-0.184	-0.130
-315.997	95.589	-0.157	-0.180
-314.983	-124.004	-0.322	-0.051
-313.968	294.311	0.180	-0.331
-312.953	649.093	0.084	0.216
-311.939	-123.256	0.180	-0.029
-310.924	279.067	0.189	-0.340
-309.910	-200.000	0.001	-0.387
-308.895	-20.623	0.165	0.102
-307.880	-33.484	-0.155	0.086
-306.866	-55.403	0.213	0.096
-305.851	106.626	0.107	-0.127
-304.837	-57.879	0.135	-0.059
-303.822	800.000	0.008	-0.029
-302.807	73.700	-0.139	-0.146
-301.793	181.537	-0.213	-0.315
-300.778	-130.306	0.119	0.016
-299.764	134.454	-0.102	-0.132
-298.749	30.370	-0.094	0.080
-297.735	43.466	-0.152	0.139
-296.720	-84.951	0.240	0.075
-295.705	22.903	0.247	-0.204
-294.691	-140.402	0.184	0.019
-293.676	287.985	-0.188	0.341
-292.662	800.000	-0.038	0.128
-291.647	87.784	-0.083	0.093
-290.632	-200.000	0.043	0.338
-289.618	-200.000	0.011	0.053
-288.603	638.775	0.079	0.201
-287.589	-200.000	0.014	-0.424
-286.574	5.101	0.128	0.094
-285.559	-15.628	-0.357	0.229
-284.545	-86.557	-0.394	-0.121
-283.530	-43.859	-0.345	-0.174
-282.516	-200.000	-0.011	0.087
-281.501	-94.278	-0.022	0.006
-280.486	55.341	0.084	-0.082
-279.472	-92.656	0.146	0.041
-278.457	800.000	0.046	-0.127
-277.443	-94.133	-0.107	-0.029
-276.428	-21.809	0.140	0.085
-275.413	345.136	0.189	0.373
-274.399	-112.458	0.177	0.036
-273.384	160.751	-0.054	-0.076
-272.370	349.974	0.089	0.176
-271.355	-64.384	-0.395	0.161
-270.340	-113.452	0.138	-0.027
-269.326	-40.370	-0.052	-0.027
-268.311	-200.000	0.016	-0.337
-267.297	800.000	0.125	-0.443
-266.282	-86.055	-0.134	-0.042
-265.267	9.902	0.168	-0.128
-264.253	286.318	-0.153	0.277
-263.238	-60.719	0.620	-0.264
-262.224	15.661	-0.180	-0.142
-261.209	86.189	0.211	0.233
-260.195	-16.241	0.185	0.118
-259.180	45.257	-0.161	-0.149
-258.165	293.875	0.166	0.304
-257.151	101.320	0.222	0.260
-256.136	-27.230	-0.091	0.053
-255.122	-200.000	-0.016	-0.227
-254.107	-64.094	0.331	0.135
-253.092	65.026	-0.130	0.132
-252.078	707.149	-0.077	0.205
-251.063	170.383	0.056	0.080
-250.049	-200.000	0.016	-0.254
-249.034	-101.954	-0.241	-0.058
-248.019	800.000	0.042	0.166
-247.005	-200.000	-0.064	0.380
-245.990	716.280	0.008	-0.020
-244.976	-105.212	-0.232	-0.053
-243.961	-35.430	-0.120	0.065
-242.946	-156.086	-0.132	0.008
-241.932	-132.750	-0.215	0.028
-240.917	555.490	-0.072	0.174
-239.903	61.808	-0.050	-0.050
-238.888	184.633	-0.074	0.110
-237.873	-97.293	-0.392	0.102
-236.859	-81.829	0.173	-0.057
-235.844	22.954	-0.244	0.201
-234.830	273.565	-0.095	0.168
-233.815	-93.955	-0.186	-0.051
-232.800	788.757	-0.060	-0.165
-231.786	-80.424	0.176	0.059
-230.771	-72.950	-0.330	-0.121
-229.757	724.166	0.115	-0.307
-228.742	-200.000	-0.003	-0.345
-227.727	-140.287	0.342	-0.036
-226.713	755.779	-0.075	-0.202
-225.698	420.153	-0.051	-0.110
-224.684	-21.211	0.214	0.131
-223.669	-84.899	-0.177	-0.056
-222.655	800.000	-0.054	0.151
-221.640	-200.000	-0.019	-0.121
-220.625	-96.891	0.141	0.037
-219.611	-200.000	-0.017	-0.077
-218.596	-200.000	0.018	-0.159
-217.582	71.321	0.128	0.133
-216.567	41.658	0.083	-0.076
-215.552	8.993	0.153	0.115
-214.538	-111.509	0.098	0.020
-213.523	-143.297	0.118	-0.011
-212.509	579.797	-0.058	0.143
-211.494	8.915	0.138	0.105
-210.479	31.377	-0.046	0.040
-209.465	-48.277	0.313	0.151
-208.450	-200.000	0.025	-0.239
-207.436	-200.000	0.000	-0.008
-206.421	99.200	-0.209	0.241
-205.406	35.200	-0.332	-0.291
-204.392	346.460	-0.174	-0.342
-203.377	128.595	0.301	-0.384
-202.363	-200.000	-0.016	-0.181
-201.348	800.000	-0.092	0.344
-200.333	-200.000	-0.038	0.231
-199.319	66.450	-0.152	-0.155
-198.304	-116.070	-0.249	-0.046
-197.290	-200.000	-0.005	-0.095
-196.275	326.869	0.069	0.132
-195.260	-100.579	0.128	0.032
-194.246	-121.588	0.138	-0.023
-193.231	328.074	0.149	-0.287
-192.217	211.867	0.127	-0.201
-191.202	-17.582	-0.138	-0.087
-190.187	-192.164	-0.180	-0.002
-189.173	16.258	0.117	-0.092
-188.158	91.457	-0.213	-0.239
-187.144	-92.291	-0.173	-0.049
-186.129	56.321	0.276	0.268
-185.114	41.994	-0.217	0.197
-184.100	-200.000	-0.064	-0.330
-183.085	45.389	0.131	-0.121
-182.071	-184.505	-0.196	0.003
-181.056	15.746	-0.232	0.182
-180.042	-32.535	0.133	-0.074
-179.027	-135.615	-0.417	-0.049
-178.012	-200.000	-0.012	-0.075
-176.998	9.774	0.172	-0.130
-175.983	8.919	-0.116	-0.087
-174.969	44.331	0.170	0.156
-173.954	-38.557	-0.130	0.069
-172.939	800.000	0.010	0.033
-171.925	409.311	-0.074	0.157
-170.910	-200.000	-0.013	-0.077
-169.896	-173.482	-0.317	0.010
-168.881	-13.351	0.231	0.150
-167.866	477.358	0.236	0.534
-166.852	140.585	-0.161	0.213
-165.837	-129.643	-0.222	-0.031
-164.823	42.949	-0.078	-0.071
-163.808	462.844	-0.211	-0.471
-162.793	-20.787	0.376	0.230
-161.779	-104.519	0.301	-0.069
-160.764	800.000	0.101	0.364
-159.750	-143.798	-0.128	-0.012
-158.735	-53.634	0.323	-0.147
-157.720	-105.791	0.194	0.044
-156.706	-200.000	0.037	0.339
-155.691	40.404	0.267	0.240
-154.677	650.303	0.038	0.098
-153.662	161.022	0.100	-0.139
-152.647	50.808	-0.065	-0.061
-151.633	504.457	0.080	-0.186
-150.618	25.452	-0.111	-0.092
-149.604	800.000	0.144	0.456
-148.589	307.197	-0.070	0.130
-147.574	116.415	0.046	-0.056
-146.560	390.453	0.143	0.296
-145.545	135.962	-0.168	0.218
-144.531	-47.246	-0.131	0.064
-143.516	-106.031	0.249	-0.056
-142.502	95.608	0.295	-0.336
-141.487	-200.000	0.048	0.242
-140.472	-133.310	0.055	0.007
-139.458	800.000	0.069	0.244
-138.443	-101.790	-0.130	-0.032
-137.429	-200.000	-0.013	-0.236
-136.414	-121.859	0.280	0.046
-135.399	-200.000	-0.053	0.336
-134.385	-96.128	-0.057	0.015
-133.370	125.903	-0.070	0.088
-132.356	-131.465	0.265	0.035
-131.341	800.000	0.107	0.346
-130.326	-200.000	-0.054	-0.379
-129.312	349.092	0.187	0.367
-128.297	-148.465	0.430	0.035
-127.283	94.762	0.270	0.307
-126.268	-80.157	-0.362	-0.121
-125.253	167.577	-0.151	0.214
-124.239	-200.000	-0.052	0.235
-123.224	22.458	-0.244	-0.199
-122.210	77.461	-0.204	-0.216
-121.195	-200.000	0.046	-0.587
-120.180	800.000	0.064	-0.256
-119.166	-134.258	-0.360	-0.044
-118.151	-111.893	-0.182	0.037
-117.137	-31.712	-0.149	0.083
-116.122	40.295	-0.291	0.261
-115.107	800.000	-0.067	-0.221
-114.093	633.435	-0.117	0.296
-113.078	-175.305	0.078	0.002
-112.064	21.538	-0.157	-0.127
-111.049	-139.811	-0.023	-0.002
-110.034	-79.519	-0.188	-0.063
-109.020	-200.000	0.029	0.152
-108.005	-38.810	0.116	-0.061
-106.991	-103.567	0.123	0.029
-105.976	50.782	0.163	0.154
-104.962	-61.539	0.050	-0.021
-103.947	-123.294	-0.338	0.054
-102.932	125.664	0.191	0.241
-101.918	-50.378	0.272	0.128
-100.903	660.140	0.029	-0.075
-99.889	-156.774	0.323	0.020
-98.874	232.328	0.137	-0.224
-97.859	-40.891	0.224	-0.115
-96.845	303.559	0.091	0.167
-95.830	-32.692	0.071	-0.039
-94.816	-92.726	-0.262	0.073
-93.801	311.261	0.167	0.311
-92.786	-105.616	0.045	0.010
-91.772	13.433	0.111	0.086
-90.757	-134.483	-0.221	-0.027
-89.743	800.000	0.050	-0.150
-88.728	-200.000	0.088	0.522
-87.713	263.771	0.109	0.189
-86.699	-26.221	0.045	-0.026
-85.684	97.362	0.213	0.244
-84.670	137.423	0.147	0.192
-83.655	634.689	-0.052	-0.131
-82.640	773.102	0.102	-0.278
-81.626	13.462	-0.339	0.262
-80.611	81.025	-0.105	0.113
-79.597	800.000	-0.091	0.351
-78.582	-13.427	-0.055	0.035
-77.567	-134.158	0.363	-0.045
-76.553	80.568	-0.076	0.081
-75.538	113.940	0.162	-0.197
-74.524	-200.000	-0.018	-0.602
-73.509	-23.075	-0.124	-0.074
-72.494	-200.000	-0.002	-0.130
-71.480	73.510	0.233	0.243
-70.465	208.230	-0.088	0.137
-69.451	372.771	-0.220	0.445
-68.436	-200.000	0.007	0.062
-67.422	-23.209	0.059	0.036
-66.407	-136.681	0.085	-0.010
-65.392	-70.314	0.267	-0.101
-64.378	-151.318	0.149	-0.011
-63.363	60.195	0.257	0.253
-62.349	800.000	0.160	0.557
-61.334	13.820	-0.665	-0.514
-60.319	33.938	0.458	0.397
-59.305	-200.000	-0.041	-0.960
-58.290	296.219	0.412	0.752
-57.276	538.013	0.634	1.499
-56.261	-200.000	77.942	501.514
-55.246	519.875	1315.212	3066.765
-54.232	151.272	2535.344	3433.155
-53.217	114.848	2226.120	2700.974
-52.203	50.745	1762.557	1660.247
-51.188	43.957	1564.591	1426.168
-50.173	41.314	1534.939	1380.801
-49.159	57.184	1573.217	1526.637
-48.144	63.021	1593.699	1587.314
-47.130	44.397	1556.031	1421.215
-46.115	40.983	1541.359	1384.053
-45.100	40.793	1537.924	1379.596
-44.086	40.685	1535.895	1376.972
-43.071	40.626	1533.812	1374.641
-42.057	40.599	1531.766	1372.563
-41.042	40.544	1530.648	1371.126
-40.027	40.682	1528.480	1370.084
-39.013	40.586	1526.969	1368.010
-37.998	40.553	1526.345	1367.169
-36.984	40.735	1524.485	1366.706
-35.969	40.663	1523.687	1365.436
-34.954	40.691	1522.077	1364.132
-33.940	40.626	1520.279	1362.023
-32.925	40.579	1519.125	1360.612
-31.911	40.743	1517.405	1360.144
-30.896	40.782	1516.076	1359.166
-29.881	40.681	1515.474	1357.879
-28.867	40.699	1513.546	1356.220
-27.852	40.736	1512.356	1355.354
-26.838	40.866	1510.629	1354.636
-25.823	40.836	1509.006	1352.923
-24.809	40.752	1507.574	1351.015
-23.794	40.722	1506.008	1349.354
-22.779	40.730	1504.675	1348.161
-21.765	40.649	1503.744	1346.724
-20.750	40.697	1502.560	1345.936
-19.736	40.723	1501.477	1345.087
-18.721	40.753	1499.704	1343.650
-17.706	40.666	1499.142	1342.503
-16.692	40.785	1497.638	1341.905
-15.677	40.648	1496.820	1340.198
-14.663	40.602	1495.586	1338.724
-13.648	40.563	1494.893	1337.794
-12.633	40.632	1493.929	1337.343
-11.619	40.582	1493.075	1336.187
-10.604	40.613	1492.190	1335.551
-9.590	40.621	1491.011	1334.499
-8.575	40.626	1490.513	1334.030
-7.560	40.656	1489.163	1332.970
-6.546	40.710	1488.559	1332.742
-5.531	40.584	1487.875	1331.226
-4.517	40.521	1486.940	1329.915
-3.502	40.629	1485.866	1329.628
-2.487	40.676	1484.443	1328.614
-1.473	40.579	1483.681	1327.230
-0.458	40.653	1482.058	1326.221
0.556	40.016	1471.796	1313.099
1.571	36.157	1443.711	1262.717
2.586	31.484	1379.148	1176.823
3.600	29.214	1294.075	1090.713
4.615	27.383	1245.624	1039.338
5.629	22.791	1187.353	965.570
6.644	11.662	1097.343	835.706
7.659	2.894	1050.965	757.229
8.673	1.563	1045.003	746.338
9.688	1.324	1041.811	742.825
10.702	1.216	1040.490	741.291
11.717	1.198	1038.696	739.856
12.731	4.839	1043.500	761.029
13.746	15.227	1057.864	822.672
14.761	22.585	1067.924	866.747
15.775	23.885	1068.588	873.599
16.790	24.119	1067.929	874.133
17.804	23.858	1067.114	872.109
18.819	23.589	1066.801	870.457
19.834	23.904	1065.502	870.863
20.848	23.928	1065.153	870.616
21.863	23.984	1065.176	870.832
22.877	23.963	1064.646	870.221
23.892	23.938	1063.792	869.324
24.907	23.704	1063.506	867.868
25.921	23.881	1062.411	867.760
26.936	23.914	1061.526	867.124
27.950	23.815	1060.711	865.898
28.965	23.804	1059.469	864.753
29.980	23.680	1058.041	862.910
30.994	23.651	1056.709	861.609
32.009	23.908	1055.959	862.165
33.023	24.084	1054.811	862.003
34.038	23.809	1054.348	860.218
35.053	23.696	1053.517	858.919
36.067	23.844	1052.708	858.898
37.082	23.786	1051.934	857.909
38.096	23.921	1051.157	857.850
39.111	24.044	1050.482	857.817
40.126	24.268	1049.502	858.022
41.140	24.253	1047.940	856.594
42.155	23.706	1047.479	853.512
43.169	23.484	1045.884	851.074
44.184	23.548	1044.996	850.583
45.199	23.620	1044.221	850.221
46.213	23.300	1043.691	848.181
47.228	23.472	1042.169	847.693
48.242	23.630	1041.532	847.853
49.257	23.873	1040.572	848.155
50.271	23.865	1039.701	847.332
51.286	23.979	1039.289	847.464
52.301	24.051	1038.625	847.191
53.315	24.012	1037.818	846.276
54.330	23.932	1037.010	845.159
55.344	23.853	1036.104	843.973
56.359	23.794	1035.460	843.093
57.374	23.804	1034.786	842.518
58.388	23.658	1033.662	840.836
59.403	23.579	1033.018	839.865
60.417	23.744	1032.341	840.017
61.432	23.560	1031.214	838.157
62.447	23.371	1031.288	837.252
63.461	23.640	1030.219	837.580
64.476	23.625	1029.456	836.815
65.490	23.785	1028.154	836.436
66.505	23.608	1027.385	834.902
67.520	23.563	1026.591	833.970
68.534	23.652	1025.581	833.498
69.549	23.527	1025.116	832.458
70.563	23.198	1023.932	829.882
71.578	23.105	1022.979	828.599
72.593	23.159	1022.391	828.303
73.607	23.017	1021.111	826.525
74.622	22.977	1020.320	825.626
75.636	23.277	1019.705	826.455
76.651	23.546	1018.708	826.830
77.666	23.424	1017.519	825.225
78.680	23.318	1017.333	824.505
79.695	23.254	1016.770	823.679
80.709	23.395	1016.397	823.959
81.724	23.517	1015.243	823.519
82.739	23.551	1014.339	822.869
83.753	23.491	1013.731	822.025
84.768	23.661	1013.546	822.592
85.782	24.045	1012.359	823.331
86.797	24.173	1011.912	823.486
87.812	24.211	1010.995	822.842
88.826	24.092	1009.914	821.339
89.841	24.055	1009.111	820.444
90.855	24.084	1008.457	819.974
91.870	24.124	1007.776	819.532
92.884	24.087	1006.723	818.431
93.899	23.978	1006.184	817.421
94.914	23.968	1004.946	816.296
95.928	23.945	1004.347	815.632
96.943	24.089	1003.556	815.580
97.957	23.833	1002.241	813.265
98.972	23.509	1001.468	811.088
99.987	23.334	1000.409	809.359
101.001	23.459	999.273	808.936
102.016	23.650	999.327	809.778
103.030	23.791	998.643	809.795
104.045	23.757	996.923	808.176
105.060	23.644	995.648	806.555
106.074	23.374	994.892	804.647
107.089	23.385	994.323	804.164
108.103	23.769	994.143	805.692
109.118	23.970	993.013	805.614
110.133	23.504	992.062	802.664
111.147	23.631	990.822	802.161
112.162	23.602	989.465	800.864
113.176	23.344	988.017	798.457
114.191	23.537	987.192	798.587
115.206	23.547	986.856	798.290
116.220	23.196	985.847	795.824
117.235	23.046	984.625	794.097
118.249	23.134	984.382	794.227
119.264	23.243	983.166	793.660
120.279	23.217	982.367	792.829
121.293	23.129	981.929	792.014
122.308	23.267	981.070	791.868
123.322	23.282	980.280	791.225
124.337	23.179	979.193	789.819
125.352	23.182	977.750	788.600
126.366	22.723	976.446	785.432
127.381	22.473	974.530	782.713
128.395	22.953	974.686	784.902
129.410	23.524	974.674	787.360
130.424	23.792	973.675	787.669
131.439	23.878	972.708	787.199
132.454	23.657	971.508	785.180
133.468	23.820	970.681	785.162
134.483	23.686	970.134	784.059
135.497	23.619	969.675	783.325
136.512	24.023	968.849	784.366
137.527	24.046	968.076	783.774
138.541	24.119	966.992	783.145
139.556	24.017	966.491	782.223
140.570	24.094	965.581	781.758
141.585	23.997	965.089	780.864
142.600	24.138	964.347	780.811
143.614	24.028	963.371	779.469
144.629	24.128	962.694	779.290
145.643	24.335	962.135	779.674
146.658	24.282	960.691	778.207
147.673	24.115	958.958	776.005
148.687	24.012	958.251	774.917
149.702	23.850	957.370	773.430
150.716	23.777	956.578	772.403
151.731	23.715	955.724	771.378
152.746	23.689	954.894	770.524
153.760	23.985	954.415	771.355
154.775	24.137	953.372	771.100
155.789	24.176	952.416	770.427
156.804	24.132	951.716	769.603
157.819	24.070	950.690	768.437
158.833	24.195	949.731	768.137
159.848	24.232	949.461	768.008
160.862	24.300	948.774	767.675
161.877	24.045	947.702	765.645
162.892	24.077	946.322	764.601
163.906	24.207	945.798	764.666
164.921	24.235	944.914	764.003
165.935	23.994	943.927	762.107
166.950	24.058	942.990	761.559
167.964	24.212	941.904	761.271
168.979	24.105	940.770	759.829
169.994	23.983	939.942	758.576
171.008	23.962	938.837	757.527
172.023	24.060	938.207	757.367
173.037	24.169	937.619	757.290
174.052	24.171	936.352	756.207
175.067	24.035	934.972	754.447
176.081	23.903	934.574	753.502
177.096	23.886	933.748	752.696
178.110	23.908	933.004	752.126
179.125	23.681	931.999	750.289
180.140	23.460	930.997	748.483
181.154	23.541	930.312	748.208
182.169	23.516	930.006	747.789
183.183	23.812	929.793	748.800
184.198	24.115	929.246	749.567
185.213	23.936	928.365	748.039
186.227	23.965	927.513	747.406
187.242	24.062	926.965	747.308
188.256	24.152	926.550	747.284
189.271	24.034	925.792	746.112
190.286	24.216	924.800	746.010
191.300	24.107	923.944	744.795
192.315	23.453	922.559	740.882
193.329	22.725	920.930	736.469
194.344	22.394	919.977	734.265
195.359	22.943	920.522	736.925
196.373	23.712	920.935	740.397
197.388	24.077	920.059	741.144
198.402	23.866	919.881	740.058
199.417	23.951	919.134	739.745
200.432	24.058	918.427	739.555
201.446	23.969	917.716	738.547
202.461	23.520	917.268	736.258
203.475	23.792	916.499	736.706
204.490	23.299	915.018	733.409
205.504	22.202	913.136	727.301
206.519	22.421	912.769	727.848
207.534	23.370	913.288	732.119
208.548	23.534	912.938	732.450
209.563	23.927	912.548	733.697
210.577	23.783	912.082	732.664
211.592	23.708	911.037	731.449
212.607	23.939	910.818	732.159
213.621	24.164	910.429	732.709
214.636	24.134	909.755	731.976
215.650	24.095	909.445	731.503
216.665	24.096	908.555	730.728
217.680	24.094	908.272	730.428
218.694	24.280	907.501	730.504
219.709	23.976	906.501	728.388
220.723	23.610	905.564	726.073
221.738	23.833	905.252	726.673
222.753	23.849	904.850	726.350
223.767	23.965	904.049	726.117
224.782	24.035	903.026	725.518
225.796	24.187	902.962	726.020
226.811	24.224	902.584	725.805
227.826	23.880	901.098	723.144
228.840	23.129	899.337	718.618
229.855	22.941	898.854	717.404
230.869	23.384	898.078	718.519
231.884	22.830	897.901	716.067
232.899	22.930	897.067	715.743
233.913	23.706	897.224	718.948
234.928	23.987	896.997	719.839
235.942	23.683	896.470	718.125
236.957	23.806	896.173	718.320
237.972	23.602	894.065	715.743
238.986	23.495	893.459	714.766
240.001	23.640	892.979	714.902
241.015	23.717	892.427	714.705
242.030	23.753	891.627	714.149
243.045	23.892	891.527	714.564
244.059	23.865	890.892	713.881
245.074	23.992	890.964	714.386
246.088	23.950	889.911	713.313
247.103	23.878	888.504	711.832
248.117	23.743	888.079	710.887
249.132	24.244	888.288	712.996
250.147	24.567	888.250	714.196
251.161	24.727	887.464	714.137
252.176	24.868	886.887	714.175
253.190	24.818	886.217	713.370
254.205	24.879	885.914	713.308
255.220	24.997	886.037	713.813
256.234	24.942	885.330	712.964
257.249	24.925	884.142	711.875
258.263	24.659	883.506	710.241
259.278	24.738	882.771	709.903
260.293	24.786	882.417	709.746
261.307	24.927	882.169	710.045
262.322	24.816	881.061	708.650
263.336	24.713	880.692	707.884
264.351	24.232	879.149	704.679
265.366	23.138	877.358	698.860
266.380	22.873	876.110	696.759
267.395	23.738	876.471	700.397
268.409	24.388	876.753	703.122
269.424	24.342	875.963	702.246
270.439	24.312	875.789	701.927
271.453	24.632	875.019	702.505
272.468	24.636	874.662	702.174
273.482	24.851	873.926	702.363
274.497	24.936	873.633	702.400
275.512	24.654	872.414	700.254
276.526	24.238	871.037	697.457
277.541	24.305	871.143	697.745
278.555	24.756	870.649	699.050
279.570	24.550	869.788	697.492
280.585	24.278	869.118	695.830
281.599	24.488	868.604	696.176
282.614	24.602	868.011	696.085
283.628	24.225	866.795	693.580
284.643	23.811	866.255	691.476
285.657	24.241	866.431	693.229
286.672	24.220	865.410	692.269
287.687	23.686	864.214	689.180
288.701	23.849	864.662	690.108
289.716	24.311	864.377	691.613
290.730	23.914	863.479	689.295
291.745	24.033	862.396	688.827
292.760	23.607	861.748	686.604
293.774	23.441	861.418	685.637
294.789	24.416	861.556	689.455
295.803	25.125	861.560	692.137
296.818	25.167	861.376	692.087
297.833	25.134	860.639	691.308
298.847	25.055	859.676	690.171
299.862	24.738	858.332	687.811
300.876	24.734	858.316	687.718
301.891	25.013	857.776	688.299
302.906	25.224	857.223	688.606
303.920	24.778	856.035	685.878
304.935	24.709	855.346	685.001
305.949	25.031	855.614	686.390
306.964	25.229	854.643	686.308
307.979	24.932	853.787	684.424
308.993	24.851	853.391	683.738
310.008	25.306	853.424	685.440
311.022	25.330	853.199	685.293
312.037	25.120	852.401	683.787
313.052	24.855	851.564	682.047
314.066	24.924	850.622	681.494
315.081	24.229	849.561	677.944
316.095	23.419	848.204	673.724
317.110	23.845	848.753	675.717
318.125	24.794	848.688	679.211
319.139	24.582	847.061	677.047
320.154	23.438	845.431	671.354
321.168	22.908	844.884	668.854
322.183	23.374	845.364	670.938
323.197	24.279	845.616	674.506
324.212	24.596	845.352	675.433
325.227	24.755	844.773	675.513
326.241	24.866	844.698	675.813
327.256	24.825	843.791	674.870
328.270	24.798	842.904	673.999
329.285	24.692	842.417	673.154
330.300	24.574	841.914	672.247
331.314	24.352	840.890	670.535
332.329	24.428	840.255	670.253
333.343	24.737	840.463	671.522
334.358	25.055	840.070	672.343
335.373	24.975	839.144	671.240
336.387	25.000	838.612	670.851
337.402	25.166	838.521	671.340
338.416	25.455	837.884	671.851
339.431	25.537	836.845	671.264
340.446	25.540	836.453	670.903
341.460	25.650	836.384	671.196
342.475	25.697	835.682	670.750
343.489	25.322	835.123	668.845
344.504	25.413	834.352	668.506
345.519	25.613	834.341	669.182
346.533	25.730	833.819	669.141
347.548	25.871	833.448	669.306
348.562	26.060	832.789	669.419
349.577	25.816	832.290	668.054
350.592	25.925	831.917	668.099
351.606	25.685	831.249	666.615
352.621	25.786	830.861	666.620
353.635	25.714	830.322	665.861
354.650	25.659	829.521	664.957
355.665	25.330	828.571	662.922
356.679	24.401	827.110	658.270
357.694	24.053	826.731	656.628
358.708	24.713	826.778	659.039
359.723	24.657	825.764	657.967
360.738	24.952	825.698	658.940
361.752	25.309	825.749	660.237
362.767	25.498	825.631	660.780
363.781	25.863	825.303	661.799
364.796	26.115	824.848	662.301
365.810	26.178	824.659	662.320
366.825	26.200	824.249	662.012
367.840	26.250	823.914	661.869
368.854	26.078	823.250	660.649
369.869	25.555	822.481	658.058
370.883	25.389	821.751	656.808
371.898	25.534	821.174	656.821
372.913	25.347	820.559	655.586
373.927	25.435	820.187	655.552
374.942	25.503	819.429	655.138
375.956	25.718	818.899	655.439
376.971	25.851	818.596	655.620
377.986	25.857	818.177	655.248
379.000	26.251	817.103	655.762
380.015	26.151	816.636	654.966
381.029	25.971	816.212	653.914
382.044	25.976	815.254	653.109
383.059	26.051	815.029	653.141
384.073	26.260	814.664	653.548
385.088	26.212	813.996	652.780
386.102	26.271	813.385	652.447
387.117	26.028	812.560	650.850
388.132	25.838	811.957	649.625
389.146	25.656	811.358	648.433
390.161	25.186	810.736	646.183
391.175	25.096	810.346	645.491
392.190	25.661	810.616	647.686
393.205	25.878	809.755	647.720
394.219	24.858	808.032	642.623
395.234	23.248	806.062	635.227
396.248	22.458	804.818	631.361
397.263	23.420	805.624	635.389
398.278	25.360	807.093	643.447
399.292	25.826	806.725	644.768
400.307	25.566	805.896	643.116
401.321	25.248	806.143	642.121
402.336	25.378	805.711	642.185
403.350	25.770	805.333	643.225
404.365	26.216	804.974	644.476
405.380	26.566	804.885	645.594
406.394	26.673	805.057	646.056
407.409	26.948	804.485	646.519
408.423	26.909	804.123	646.034
409.438	26.730	803.322	644.696
410.453	26.807	802.675	644.394
411.467	26.822	802.671	644.388
412.482	26.741	801.883	643.408
413.496	26.790	801.366	643.114
414.511	26.853	801.273	643.203
415.526	26.901	800.774	642.918
416.540	26.840	800.427	642.365
417.555	26.833	799.756	641.746
418.569	26.527	799.244	640.193
419.584	26.458	798.507	639.303
420.599	26.567	797.938	639.177
421.613	96.474	1264.392	1385.112
422.628	82.646	1332.365	1385.250
