DTS Sentinel unit serial number:	SN413079Multiplexer serial number:	ORYXHardware model number:	OX4-SRSoftware version number:	ORYX F/W v4.00 Oryx Data Collector v3.7.2.0data status	okinstallation	princeton_trtdifferential loss correction	single-endedforward channel	channel 3reverse channel	N/Adate	2019/09/11time	04:58:11forward acquisition time	60.00reverse acquisition time	0.00gamma	496.2192k internal	0.2330k external	0.2330temperature offset calibration	0.9909default loss term (dB/km)	0.3790temperature slope calibration	1.0000multiplexer offset coefficient	1.0000multiplexer slope coefficient	1.0000fibre end	0.00T internal ref (°C)	29.47T ext. ref 1 (°C)	-0.27T ext. ref 2 (°C)	23.27length (m)	temperature (°C)	Stokes	anti-Stokes-747.200	-200.000	-0.063	-0.288
-746.185	-126.035	-0.372	-0.056
-745.171	511.256	0.126	-0.294
-744.156	309.979	0.203	0.382
-743.142	54.147	-0.255	-0.247
-742.127	-200.000	0.012	0.225
-741.112	-5.450	0.043	0.029
-740.098	-124.663	-0.242	0.038
-739.083	-119.438	-0.070	0.012
-738.069	13.145	-0.232	0.180
-737.054	-200.000	-0.046	-0.460
-736.039	-111.932	-0.334	-0.068
-735.025	-200.000	0.017	-0.108
-734.010	-31.351	-0.494	-0.280
-732.996	-200.000	0.038	-0.265
-731.981	-184.284	-0.187	-0.003
-730.966	-200.000	0.013	-0.072
-729.952	199.697	-0.125	-0.192
-728.937	401.263	-0.103	-0.217
-727.923	-77.615	-0.340	-0.118
-726.908	223.818	-0.122	0.198
-725.894	738.852	-0.097	-0.261
-724.879	38.011	0.093	-0.083
-723.864	243.563	0.116	0.195
-722.850	135.096	-0.184	0.241
-721.835	246.692	-0.156	-0.264
-720.821	-200.000	0.010	0.119
-719.806	75.554	-0.257	0.273
-718.791	-200.000	-0.042	0.283
-717.777	-11.528	0.082	0.054
-716.762	-74.899	0.292	0.105
-715.748	-130.846	-0.182	0.024
-714.733	-200.000	0.026	-0.138
-713.718	-134.883	-0.083	-0.010
-712.704	283.092	-0.031	-0.055
-711.689	0.202	-0.232	-0.167
-710.675	146.046	0.159	-0.215
-709.660	-40.769	-0.313	0.163
-708.645	73.211	-0.198	0.208
-707.631	100.684	-0.277	0.323
-706.616	800.000	-0.072	0.230
-705.602	69.831	-0.049	-0.051
-704.587	-200.000	-0.006	-0.305
-703.572	800.000	-0.059	-0.211
-702.558	800.000	-0.032	0.101
-701.543	292.821	0.278	0.510
-700.529	315.835	-0.152	0.289
-699.514	-22.735	-0.029	0.018
-698.499	-161.776	0.219	-0.011
-697.485	124.011	-0.076	0.097
-696.470	169.672	0.117	0.168
-695.456	-97.720	0.504	0.131
-694.441	-23.676	0.157	-0.095
-693.426	-200.000	0.020	0.115
-692.412	612.752	-0.149	-0.375
-691.397	245.183	-0.071	-0.120
-690.383	-200.000	-0.012	-0.098
-689.368	-200.000	0.011	-0.048
-688.354	-59.599	-0.230	-0.099
-687.339	-157.641	-0.089	-0.005
-686.324	186.254	-0.096	0.144
-685.310	-62.148	-0.272	-0.114
-684.295	-62.174	-0.158	0.066
-683.281	-182.933	0.189	-0.003
-682.266	-119.725	0.034	-0.006
-681.251	-200.000	0.050	-0.296
-680.237	124.686	-0.050	-0.063
-679.222	-200.000	0.021	-0.241
-678.208	-54.468	0.129	-0.059
-677.193	-106.952	-0.236	-0.052
-676.178	-98.958	0.295	0.075
-675.164	181.700	0.057	0.084
-674.149	291.023	-0.123	-0.225
-673.135	-149.353	-0.564	-0.045
-672.120	134.964	-0.099	0.129
-671.105	-149.277	-0.113	0.009
-670.091	-200.000	-0.036	-0.249
-669.076	800.000	0.007	0.030
-668.062	239.949	-0.168	0.281
-667.047	34.442	-0.106	0.093
-666.032	-68.062	0.379	0.148
-665.018	-200.000	-0.014	-0.077
-664.003	1.857	0.210	-0.152
-662.989	-197.810	-0.242	-0.001
-661.974	-159.124	-0.163	0.009
-660.959	75.869	0.336	-0.356
-659.945	-37.137	0.292	0.157
-658.930	-200.000	-0.004	-0.171
-657.916	117.385	-0.205	0.253
-656.901	530.197	-0.152	0.360
-655.886	66.127	-0.177	-0.180
-654.872	-75.580	-0.328	-0.117
-653.857	18.580	0.101	-0.081
-652.843	50.384	0.106	-0.101
-651.828	-200.000	-0.028	0.402
-650.814	558.974	0.044	-0.106
-649.799	252.681	-0.101	0.172
-648.784	800.000	-0.056	-0.155
-647.770	598.791	-0.107	0.267
-646.755	-10.247	-0.256	-0.170
-645.741	-74.290	0.177	0.064
-644.726	112.778	0.150	-0.182
-643.711	41.832	-0.164	-0.149
-642.697	37.240	-0.091	0.081
-641.682	800.000	0.114	0.349
-640.668	509.402	0.082	-0.190
-639.653	-200.000	0.071	-0.387
-638.638	-60.383	0.200	-0.085
-637.624	294.584	-0.089	-0.163
-636.609	-153.986	0.404	-0.028
-635.595	114.406	-0.172	-0.211
-634.580	-67.473	0.135	-0.053
-633.565	53.531	0.141	0.136
-632.551	-77.860	-0.239	0.083
-631.536	-9.100	0.127	-0.085
-630.522	444.001	-0.068	-0.150
-629.507	105.474	-0.126	0.149
-628.492	-71.957	0.353	0.131
-627.478	800.000	-0.058	0.210
-626.463	79.922	-0.105	0.113
-625.449	-30.028	-0.133	-0.076
-624.434	71.582	0.105	0.110
-623.419	-138.842	-0.259	0.028
-622.405	541.695	-0.154	0.367
-621.390	148.016	-0.157	0.212
-620.376	-40.690	-0.206	0.107
-619.361	-143.754	0.112	-0.011
-618.346	576.028	-0.154	-0.377
-617.332	492.959	0.052	-0.120
-616.317	-2.827	-0.244	-0.171
-615.303	239.155	-0.141	-0.235
-614.288	10.375	0.181	0.138
-613.273	-153.384	0.067	-0.005
-612.259	141.813	0.164	0.218
-611.244	-2.230	0.090	-0.064
-610.230	157.507	-0.133	0.184
-609.215	46.848	-0.133	-0.124
-608.201	800.000	-0.036	-0.131
-607.186	-200.000	-0.022	0.273
-606.171	800.000	0.022	-0.077
-605.157	-4.887	-0.102	0.070
-604.142	-149.476	-0.140	-0.011
-603.128	-1.778	0.174	0.123
-602.113	-177.958	-0.359	-0.009
-601.098	-139.127	0.397	-0.043
-600.084	-149.189	0.352	-0.028
-599.069	742.789	0.022	0.059
-598.055	740.910	-0.066	0.179
-597.040	-77.037	0.267	0.093
-596.025	482.198	-0.179	0.407
-595.011	5.090	-0.273	0.201
-593.996	-200.000	0.028	-0.362
-592.982	66.022	-0.100	0.102
-591.967	-95.417	-0.252	-0.068
-590.952	-58.257	0.184	-0.080
-589.938	-170.427	-0.119	0.004
-588.923	-199.985	0.158	0.001
-587.909	-91.400	-0.298	0.085
-586.894	-44.429	-0.061	0.030
-585.879	800.000	-0.039	0.119
-584.865	-200.000	-0.019	-0.173
-583.850	-200.000	-0.039	-0.323
-582.836	-137.313	0.132	0.015
-581.821	-66.977	-0.543	-0.215
-580.806	-42.567	0.302	0.154
-579.792	800.000	0.041	-0.168
-578.777	-47.341	-0.166	-0.081
-577.763	-181.843	-0.102	0.002
-576.748	33.088	0.193	-0.167
-575.733	44.859	0.073	-0.067
-574.719	-200.000	-0.017	0.078
-573.704	61.856	-0.231	-0.230
-572.690	149.553	0.189	0.256
-571.675	109.243	-0.089	-0.106
-570.661	9.095	-0.121	-0.091
-569.646	-50.832	-0.191	-0.090
-568.631	-102.446	0.392	-0.094
-567.617	110.429	-0.215	0.258
-566.602	-200.000	0.084	0.704
-565.588	44.546	0.082	-0.076
-564.573	-147.855	-0.314	-0.026
-563.558	-200.000	0.018	-0.106
-562.544	-91.689	-0.059	0.017
-561.529	-200.000	-0.087	-0.408
-560.515	-77.368	0.025	-0.009
-559.500	-200.000	-0.070	-0.491
-558.485	111.412	-0.063	0.076
-557.471	-62.336	-0.250	-0.104
-556.456	-200.000	-0.013	-0.221
-555.442	-59.697	-0.281	-0.120
-554.427	-48.835	0.084	0.040
-553.412	6.268	-0.077	-0.057
-552.398	-41.932	-0.164	-0.084
-551.383	510.201	-0.072	-0.166
-550.369	-127.989	0.031	-0.004
-549.354	-119.042	-0.089	0.016
-548.339	201.685	0.124	0.190
-547.325	619.639	-0.045	-0.114
-546.310	197.863	-0.077	-0.118
-545.296	-200.000	-0.043	0.225
-544.281	-200.000	0.012	-0.095
-543.266	28.994	-0.070	0.059
-542.252	-173.117	0.144	-0.004
-541.237	-13.371	-0.170	0.110
-540.223	120.618	-0.180	0.223
-539.208	-200.000	-0.001	-0.208
-538.193	-200.000	0.028	-0.208
-537.179	-128.015	-0.493	-0.071
-536.164	471.093	0.107	-0.240
-535.150	-121.009	-0.233	-0.039
-534.135	74.841	0.240	-0.252
-533.121	-148.884	-0.292	-0.024
-532.106	191.988	0.051	0.077
-531.091	800.000	0.097	-0.348
-530.077	68.766	-0.206	0.211
-529.062	-200.000	0.021	0.121
-528.048	-112.204	0.119	0.024
-527.033	358.517	0.127	-0.254
-526.018	-56.635	0.289	-0.128
-525.004	178.060	0.058	-0.085
-523.989	53.284	0.128	0.122
-522.975	15.479	0.261	0.205
-521.960	-93.900	-0.300	-0.082
-520.945	800.000	-0.151	-0.430
-519.931	97.301	0.292	-0.335
-518.916	-200.000	0.013	-0.220
-517.902	100.482	-0.148	-0.171
-516.887	68.056	0.188	-0.192
-515.872	-56.210	0.138	-0.061
-514.858	621.840	-0.101	0.254
-513.843	676.916	0.065	-0.168
-512.829	-21.024	0.249	0.152
-511.814	-197.331	-0.182	-0.001
-510.799	274.239	0.070	0.124
-509.785	-102.123	0.133	-0.032
-508.770	800.000	-0.072	-0.289
-507.756	-77.993	-0.417	0.143
-506.741	579.404	0.027	0.067
-505.726	72.800	0.114	-0.119
-504.712	185.236	0.137	-0.203
-503.697	-149.006	0.325	-0.026
-502.683	-8.135	-0.083	0.055
-501.668	-110.179	0.139	0.029
-500.653	112.098	-0.280	0.338
-499.639	-28.612	0.106	0.061
-498.624	-67.632	0.312	0.122
-497.610	163.960	-0.152	-0.213
-496.595	-39.723	0.058	-0.030
-495.581	-105.058	-0.083	0.019
-494.566	-183.580	0.129	-0.002
-493.551	306.270	0.041	-0.076
-492.537	258.387	0.012	-0.020
-491.522	-200.000	-0.033	-0.300
-490.508	-121.355	0.219	0.036
-489.493	748.294	-0.086	0.232
-488.478	-36.816	0.197	0.106
-487.464	785.859	0.094	0.258
-486.449	15.856	-0.162	0.127
-485.435	-200.000	0.054	-0.284
-484.420	-200.000	-0.009	-0.245
-483.405	487.560	0.066	-0.150
-482.391	25.999	0.263	0.218
-481.376	59.384	-0.124	-0.122
-480.362	-200.000	-0.004	-0.467
-479.347	-107.960	0.035	0.008
-478.332	267.000	-0.006	-0.011
-477.318	110.112	0.055	-0.066
-476.303	800.000	-0.066	0.287
-475.289	25.908	-0.228	0.189
-474.274	136.964	0.116	-0.152
-473.259	-86.712	-0.185	-0.056
-472.245	-178.404	0.063	-0.001
-471.230	-200.000	0.004	0.271
-470.216	361.106	0.007	0.014
-469.201	-116.376	-0.128	0.024
-468.186	-123.064	0.385	-0.062
-467.172	-110.094	0.201	-0.042
-466.157	88.197	0.065	0.072
-465.143	-200.000	0.047	-0.401
-464.128	89.610	0.131	-0.145
-463.113	-20.570	-0.093	-0.057
-462.099	800.000	-0.056	0.214
-461.084	-13.456	0.229	0.148
-460.070	-200.000	-0.034	-0.171
-459.055	-200.000	-0.055	0.304
-458.040	800.000	-0.056	0.190
-457.026	746.772	0.098	-0.262
-456.011	147.292	0.127	0.170
-454.997	-98.428	0.292	-0.074
-453.982	48.254	-0.224	0.209
-452.968	-200.000	-0.005	0.133
-451.953	16.055	-0.099	-0.078
-450.938	182.214	0.032	0.047
-449.924	800.000	-0.163	-0.457
-448.909	49.180	0.185	0.173
-447.895	160.813	-0.138	-0.192
-446.880	-113.106	-0.293	0.057
-445.865	-200.000	0.025	0.375
-444.851	-200.000	0.025	-0.138
-443.836	-200.000	0.030	-0.418
-442.822	-106.394	-0.258	-0.057
-441.807	-22.925	-0.156	0.094
-440.792	-133.357	0.114	-0.014
-439.778	-200.000	0.002	-0.029
-438.763	-121.883	-0.209	0.034
-437.749	20.074	0.176	-0.141
-436.734	-200.000	-0.006	-0.081
-435.719	-94.394	0.057	0.016
-434.705	-163.127	0.222	-0.011
-433.690	150.238	0.317	-0.428
-432.676	195.176	0.161	-0.243
-431.661	800.000	0.073	0.308
-430.646	406.352	-0.030	0.064
-429.632	-104.231	0.287	0.066
-428.617	-58.504	0.162	-0.070
-427.603	-41.018	0.090	-0.046
-426.588	174.910	-0.140	-0.201
-425.573	-200.000	-0.043	0.309
-424.559	-49.747	-0.117	0.055
-423.544	-52.712	-0.363	0.167
-422.530	-102.732	0.043	-0.010
-421.515	389.111	0.042	-0.086
-420.500	800.000	-0.095	-0.395
-419.486	61.516	0.239	-0.237
-418.471	-107.841	-0.297	0.064
-417.457	-200.000	0.024	-0.104
-416.442	101.940	0.168	0.195
-415.428	-62.433	0.085	0.035
-414.413	553.522	0.094	-0.225
-413.398	637.983	-0.082	-0.208
-412.384	-123.535	-0.156	0.025
-411.369	-42.561	-0.253	-0.128
-410.355	-45.679	-0.144	-0.071
-409.340	-153.053	0.388	-0.027
-408.325	120.750	0.097	0.119
-407.311	-200.000	0.057	0.301
-406.296	-33.402	0.137	0.076
-405.282	-125.135	0.336	-0.051
-404.267	49.676	-0.246	0.231
-403.252	-145.807	0.038	-0.003
-402.238	-123.002	-0.240	0.038
-401.223	-200.000	0.021	-0.316
-400.209	764.290	0.059	-0.160
-399.194	54.825	0.079	0.075
-398.179	-200.000	-0.006	0.218
-397.165	-200.000	0.033	0.152
-396.150	50.119	0.125	0.117
-395.136	-200.000	0.361	-0.000
-394.121	-169.656	-0.250	-0.009
-393.106	800.000	0.073	-0.289
-392.092	-142.675	0.228	0.022
-391.077	176.495	-0.165	0.239
-390.063	-200.000	-0.035	0.164
-389.048	-71.848	-0.138	0.051
-388.033	-110.909	0.191	-0.039
-387.019	91.731	-0.085	-0.095
-386.004	-121.177	-0.227	0.038
-384.990	-167.638	-0.161	-0.006
-383.975	-200.000	-0.056	-0.345
-382.960	-171.034	-0.180	-0.006
-381.946	-75.401	-0.151	0.053
-380.931	110.158	0.104	0.124
-379.917	-120.318	0.161	-0.027
-378.902	-200.000	-0.047	0.207
-377.888	-155.679	-0.332	0.021
-376.873	-11.546	-0.109	0.071
-375.858	11.452	-0.129	0.098
-374.844	-44.282	-0.129	0.064
-373.829	-97.275	0.251	0.065
-372.815	39.589	-0.039	-0.035
-371.800	-200.000	0.052	0.316
-370.785	-200.000	-0.002	-0.011
-369.771	112.530	0.126	0.151
-368.756	-200.000	0.027	0.361
-367.742	-167.395	0.103	-0.004
-366.727	-200.000	0.009	-0.286
-365.712	800.000	-0.055	-0.181
-364.698	18.676	-0.078	-0.062
-363.683	173.449	-0.246	0.352
-362.669	732.231	0.122	-0.323
-361.654	-118.444	-0.284	0.050
-360.639	-25.586	0.337	0.197
-359.625	41.425	-0.239	-0.214
-358.610	149.018	-0.175	0.234
-357.596	800.000	0.100	-0.317
-356.581	20.068	-0.255	-0.204
-355.566	282.003	0.187	-0.332
-354.552	-61.910	0.283	0.117
-353.537	-60.682	-0.311	-0.131
-352.523	42.094	-0.251	-0.226
-351.508	3.420	-0.080	-0.058
-350.493	62.333	-0.242	-0.239
-349.479	315.308	-0.078	0.145
-348.464	-200.000	-0.029	0.285
-347.450	745.615	-0.087	0.232
-346.435	64.738	0.090	0.090
-345.420	71.665	-0.215	0.222
-344.406	-66.348	0.161	-0.063
-343.391	42.429	-0.086	-0.078
-342.377	4.041	-0.286	-0.207
-341.362	800.000	-0.058	0.208
-340.348	-50.929	-0.070	0.033
-339.333	-38.869	-0.036	0.019
-338.318	-74.072	0.258	0.093
-337.304	-64.120	-0.172	-0.069
-336.289	-131.263	0.209	0.027
-335.275	-30.940	-0.194	0.108
-334.260	132.758	-0.135	-0.173
-333.245	-48.595	-0.171	-0.081
-332.231	-196.975	0.459	-0.003
-331.216	-200.000	0.001	-0.276
-330.202	-31.875	-0.220	0.122
-329.187	-64.262	-0.305	-0.123
-328.172	-200.000	-0.057	0.307
-327.158	-200.000	-0.071	-0.322
-326.143	-125.676	0.416	0.062
-325.129	-200.000	0.074	-0.398
-324.114	-200.000	0.030	0.318
-323.099	800.000	0.090	-0.296
-322.085	-200.000	0.008	0.083
-321.070	86.212	0.285	0.311
-320.056	-125.371	0.222	0.034
-319.041	-1.736	-0.015	0.010
-318.026	222.745	0.163	0.260
-317.012	-104.462	0.031	0.007
-315.997	-200.000	0.025	0.252
-314.983	37.437	-0.085	-0.075
-313.968	-119.836	-0.372	0.063
-312.953	-140.105	0.127	0.013
-311.939	800.000	0.013	0.054
-310.924	-96.596	-0.289	0.075
-309.910	-101.850	-0.218	0.052
-308.895	276.990	0.110	0.193
-307.880	-200.000	-0.005	-0.317
-306.866	-28.034	0.244	0.139
-305.851	-15.681	0.140	-0.088
-304.837	-97.609	-0.240	0.062
-303.822	-100.415	0.103	-0.025
-302.807	272.679	-0.057	-0.099
-301.793	12.231	-0.141	-0.108
-300.778	800.000	0.061	-0.206
-299.764	-18.888	0.194	0.120
-298.749	284.872	-0.114	0.203
-297.735	-112.490	-0.170	-0.034
-296.720	64.174	0.242	-0.241
-295.705	65.779	0.240	0.240
-294.691	800.000	0.038	0.144
-293.676	800.000	-0.037	0.152
-292.662	-9.655	-0.125	0.082
-291.647	31.108	0.109	-0.092
-290.632	494.145	-0.157	0.357
-289.618	501.716	-0.059	0.134
-288.603	1.472	0.346	0.246
-287.589	-104.786	0.130	-0.030
-286.574	-139.561	-0.356	-0.038
-285.559	-72.318	0.115	0.042
-284.545	-108.162	-0.398	0.085
-283.530	800.000	0.121	-0.414
-282.516	-56.156	0.287	-0.126
-281.501	71.956	-0.151	-0.156
-280.486	-200.000	0.036	0.160
-279.472	8.414	-0.056	-0.042
-278.457	-57.396	-0.224	0.097
-277.443	-92.154	-0.265	-0.074
-276.428	415.655	-0.078	-0.165
-275.413	50.061	-0.218	0.203
-274.399	490.081	0.085	-0.191
-273.384	24.678	0.057	-0.046
-272.370	-200.000	-0.003	0.027
-271.355	-15.176	0.231	-0.146
-270.340	203.572	0.088	0.135
-269.326	62.557	-0.082	-0.081
-268.311	-200.000	0.027	-0.396
-267.297	144.449	0.160	0.211
-266.282	-96.026	0.208	0.055
-265.267	21.881	-0.221	-0.178
-264.253	-200.000	0.046	-0.352
-263.238	155.101	0.132	0.179
-262.224	-105.507	-0.287	-0.064
-261.209	-200.000	0.089	0.501
-260.195	-63.036	0.187	-0.076
-259.180	-0.985	-0.057	-0.040
-258.165	6.409	0.105	0.077
-257.151	104.167	-0.062	-0.073
-256.136	-200.000	-0.007	0.247
-255.122	-200.000	0.017	0.179
-254.107	221.395	0.133	0.210
-253.092	284.538	0.143	0.255
-252.078	68.596	0.008	-0.008
-251.063	626.938	-0.142	-0.353
-250.049	-200.000	-0.007	-0.115
-249.034	65.603	0.242	-0.242
-248.019	38.243	-0.007	0.006
-247.005	-88.634	0.336	-0.099
-245.990	31.245	0.278	-0.236
-244.976	-16.158	-0.226	-0.142
-243.961	-58.102	-0.078	-0.034
-242.946	-63.241	0.190	-0.077
-241.932	-196.536	0.297	0.002
-240.917	-154.779	0.195	-0.013
-239.903	-108.767	-0.271	0.057
-238.888	158.784	-0.125	0.171
-237.873	-145.055	0.454	0.041
-236.859	28.103	0.242	-0.202
-235.844	-200.000	0.014	-0.172
-234.830	182.586	-0.157	0.229
-233.815	-79.385	0.256	-0.086
-232.800	-10.988	0.413	0.269
-231.786	-181.517	0.244	-0.005
-230.771	-200.000	0.037	-0.194
-229.757	800.000	-0.110	0.401
-228.742	-200.000	-0.053	0.415
-227.727	800.000	0.161	0.476
-226.713	-68.182	0.428	0.164
-225.698	-104.161	-0.103	-0.024
-224.684	-10.660	-0.184	-0.120
-223.669	-200.000	0.019	-0.174
-222.655	-32.587	-0.125	0.069
-221.640	162.799	0.026	-0.036
-220.625	337.152	0.123	-0.236
-219.611	-200.000	-0.002	0.097
-218.596	-101.697	0.022	-0.005
-217.582	-119.418	-0.197	0.034
-216.567	800.000	0.069	0.199
-215.552	232.575	-0.087	-0.141
-214.538	-134.881	-0.009	-0.001
-213.523	113.874	0.183	-0.220
-212.509	329.609	-0.031	0.059
-211.494	192.104	-0.149	0.221
-210.479	-74.249	-0.266	0.095
-209.465	-2.803	-0.103	0.071
-208.450	-98.787	-0.160	-0.040
-207.436	-128.716	-0.061	0.008
-206.421	93.540	-0.086	-0.096
-205.406	130.370	-0.138	0.174
-204.392	109.771	0.117	0.138
-203.377	29.043	-0.158	0.132
-202.363	249.324	0.013	-0.021
-201.348	800.000	0.030	0.094
-200.333	55.716	-0.052	0.050
-199.319	800.000	-0.033	0.121
-198.304	-200.000	-0.025	0.414
-197.290	800.000	0.071	0.302
-196.275	-51.087	-0.033	-0.015
-195.260	-8.942	-0.288	-0.190
-194.246	-69.608	-0.119	0.045
-193.231	-92.646	-0.087	0.024
-192.217	-46.939	0.107	0.052
-191.202	-85.932	-0.447	0.136
-190.187	800.000	-0.033	0.135
-189.173	-68.150	0.295	0.113
-188.158	34.427	0.224	-0.192
-187.144	100.460	-0.128	-0.146
-186.129	-200.000	0.067	-0.373
-185.114	-118.236	0.459	-0.080
-184.100	800.000	-0.061	0.200
-183.085	-92.699	0.220	-0.061
-182.071	-23.873	0.101	0.060
-181.056	-13.698	0.315	-0.200
-180.042	-186.399	0.368	0.005
-179.027	-200.000	-0.046	0.273
-178.012	782.585	0.049	0.131
-176.998	-82.314	0.046	0.015
-175.983	-200.000	-0.022	0.217
-174.969	-105.732	-0.031	0.007
-173.954	99.399	0.276	0.314
-172.939	800.000	-0.059	0.233
-171.925	225.882	-0.106	0.169
-170.910	270.880	0.082	0.142
-169.896	94.076	-0.084	0.094
-168.881	-127.802	-0.163	-0.023
-167.866	42.747	0.056	0.050
-166.852	800.000	0.088	-0.252
-165.837	-13.134	-0.080	-0.051
-164.823	800.000	-0.045	-0.140
-163.808	5.358	-0.331	0.240
-162.793	800.000	0.044	-0.125
-161.779	-61.012	0.231	0.096
-160.764	3.374	-0.238	-0.170
-159.750	800.000	-0.052	0.195
-158.735	800.000	-0.104	-0.296
-157.720	-77.278	-0.166	-0.057
-156.706	-168.969	0.428	0.016
-155.691	122.401	-0.138	0.170
-154.677	55.064	0.358	0.340
-153.662	-105.714	-0.288	-0.064
-152.647	-148.511	-0.114	-0.009
-151.633	-122.646	0.221	0.035
-150.618	-200.000	0.020	0.237
-149.604	-130.825	0.094	-0.012
-148.589	-117.813	-0.097	-0.017
-147.574	219.365	-0.110	-0.174
-146.560	-200.000	0.008	0.405
-145.545	127.614	-0.125	0.156
-144.531	-99.742	-0.267	-0.066
-143.516	316.194	-0.117	-0.218
-142.502	-200.000	-0.024	-0.130
-141.487	-48.034	0.274	-0.130
-140.472	159.272	-0.150	-0.205
-139.458	-106.191	-0.018	0.004
-138.443	103.476	-0.139	0.161
-137.429	-38.286	-0.244	0.127
-136.414	-164.749	0.153	-0.007
-135.399	800.000	-0.028	-0.077
-134.385	-61.176	0.216	0.090
-133.370	103.908	0.220	0.254
-132.356	-122.942	-0.162	0.026
-131.341	-183.685	-0.140	-0.002
-130.326	-200.000	-0.018	0.102
-129.312	744.231	0.058	0.155
-128.297	-65.183	-0.232	-0.092
-127.283	114.100	0.081	0.097
-126.268	410.597	-0.094	0.197
-125.253	19.770	0.048	0.038
-124.239	-37.976	0.032	0.017
-123.224	-200.000	0.002	0.021
-122.210	255.089	0.124	0.208
-121.195	97.930	0.146	0.165
-120.180	-115.116	-0.595	-0.111
-119.166	-56.565	0.500	0.218
-118.151	800.000	-0.056	0.198
-117.137	-95.457	0.384	-0.101
-116.122	7.713	0.095	-0.070
-115.107	229.255	0.045	0.073
-114.093	35.458	0.267	0.230
-113.078	-200.000	-0.006	-0.302
-112.064	-200.000	0.016	-0.202
-111.049	-51.004	0.207	0.095
-110.034	800.000	-0.030	-0.085
-109.020	-109.363	-0.178	0.037
-108.005	-78.045	0.337	-0.114
-106.991	3.561	-0.167	-0.119
-105.976	-60.886	-0.212	-0.088
-104.962	-57.002	0.108	0.047
-103.947	-81.463	-0.194	-0.063
-102.932	-200.000	-0.005	-0.045
-101.918	7.472	-0.046	0.033
-100.903	-200.000	-0.013	0.129
-99.889	-46.130	0.155	-0.075
-98.874	332.077	-0.121	-0.228
-97.859	-168.972	-0.272	0.010
-96.845	-11.122	0.186	0.120
-95.830	442.564	-0.092	0.199
-94.816	-132.735	-0.352	0.044
-93.801	800.000	-0.029	0.120
-92.786	-73.098	-0.389	0.140
-91.772	88.046	0.031	0.033
-90.757	13.752	0.116	-0.088
-89.743	-74.518	0.181	-0.064
-88.728	-32.444	-0.284	0.155
-87.713	10.547	0.037	-0.027
-86.699	379.419	-0.037	0.074
-85.684	-102.977	-0.131	0.030
-84.670	83.116	0.149	-0.159
-83.655	-9.323	0.030	-0.020
-82.640	93.251	0.126	0.140
-81.626	300.149	0.179	-0.324
-80.611	199.348	0.109	-0.164
-79.597	-200.000	0.004	0.319
-78.582	-145.237	0.244	0.022
-77.567	800.000	-0.071	0.226
-76.553	178.088	-0.132	0.189
-75.538	-200.000	0.016	0.234
-74.524	162.210	-0.270	0.371
-73.509	800.000	0.018	-0.056
-72.494	-64.744	0.309	0.123
-71.480	-200.000	-0.001	0.140
-70.465	-174.831	0.457	0.013
-69.451	260.559	-0.108	0.184
-68.436	-95.805	-0.028	-0.007
-67.422	-41.075	-0.348	0.176
-66.407	-103.158	-0.171	0.040
-65.392	593.959	0.101	0.245
-64.378	-200.000	-0.096	0.478
-63.363	83.710	-0.026	0.028
-62.349	415.322	-0.064	0.134
-61.334	328.356	-0.535	-1.007
-60.319	143.867	0.565	0.738
-59.305	170.025	-0.739	-1.036
-58.290	242.696	0.872	1.430
-57.276	475.077	0.664	1.469
-56.261	-200.000	105.746	613.417
-55.246	509.133	1508.412	3434.402
-54.232	176.028	2702.440	3843.932
-53.217	110.774	2186.736	2577.819
-52.203	40.108	1705.468	1501.956
-51.188	32.599	1515.750	1283.892
-50.173	30.200	1488.737	1244.882
-49.159	51.348	1544.427	1436.674
-48.144	51.581	1561.517	1454.108
-47.130	32.887	1516.495	1286.285
-46.115	29.745	1502.085	1252.757
-45.100	29.618	1498.512	1248.871
-44.086	29.503	1496.434	1246.314
-43.071	29.465	1494.038	1244.010
-42.057	29.344	1493.145	1242.405
-41.042	29.505	1491.693	1242.232
-40.027	29.531	1490.051	1240.987
-39.013	29.428	1488.369	1238.846
-37.998	29.367	1487.435	1237.613
-36.984	29.484	1486.099	1237.236
-35.969	29.508	1484.602	1236.101
-34.954	29.438	1483.119	1234.347
-33.940	29.351	1482.174	1232.929
-32.925	29.528	1479.951	1232.213
-31.911	29.507	1479.207	1231.408
-30.896	29.491	1477.897	1230.162
-29.881	29.640	1476.640	1230.056
-28.867	29.506	1475.233	1227.947
-27.852	29.482	1474.304	1226.962
-26.838	29.540	1472.256	1225.593
-25.823	29.513	1470.632	1224.014
-24.809	29.563	1469.411	1223.279
-23.794	29.500	1467.789	1221.470
-22.779	29.501	1466.791	1220.597
-21.765	29.555	1465.793	1220.071
-20.750	29.480	1464.703	1218.621
-19.736	29.579	1463.393	1218.133
-18.721	29.511	1462.127	1216.589
-17.706	29.447	1461.468	1215.570
-16.692	29.431	1460.475	1214.587
-15.677	29.552	1458.676	1213.842
-14.663	29.498	1458.078	1212.936
-13.648	29.512	1456.826	1211.940
-12.633	29.387	1456.836	1211.079
-11.619	29.391	1455.761	1210.162
-10.604	29.406	1454.945	1209.537
-9.590	29.443	1454.107	1209.035
-8.575	29.482	1453.128	1208.427
-7.560	29.359	1452.531	1207.078
-6.546	29.404	1451.344	1206.335
-5.531	29.387	1450.633	1205.587
-4.517	29.421	1449.460	1204.789
-3.502	29.369	1448.506	1203.610
-2.487	29.468	1447.161	1203.089
-1.473	29.370	1446.579	1201.915
-0.458	29.475	1445.046	1201.283
0.556	26.986	1436.178	1190.347
1.571	24.085	1411.016	1150.674
2.586	20.782	1352.772	1082.576
3.600	19.309	1271.838	1009.098
4.615	18.309	1227.407	968.112
5.629	16.135	1172.909	913.282
6.644	8.102	1089.325	807.575
7.659	1.130	1048.774	743.346
8.673	-0.109	1043.163	733.259
9.688	-0.235	1040.053	730.395
10.702	-0.348	1038.346	728.586
11.717	-0.387	1036.473	727.014
12.731	2.942	1039.551	745.279
13.746	11.806	1052.311	797.736
14.761	18.454	1061.339	837.091
15.775	20.361	1063.345	847.926
16.790	20.821	1062.571	849.475
17.804	20.695	1061.745	848.125
18.819	20.548	1061.071	846.795
19.834	20.456	1060.675	845.958
20.848	20.660	1059.915	846.267
21.863	20.658	1059.876	846.156
22.877	20.656	1059.638	845.879
23.892	20.741	1058.566	845.362
24.907	20.561	1057.831	843.825
25.921	20.668	1057.134	843.716
26.936	20.672	1056.182	842.900
27.950	20.498	1055.536	841.468
28.965	20.537	1054.026	840.378
29.980	20.486	1052.448	838.798
30.994	20.447	1050.752	837.184
32.009	20.721	1049.626	837.531
33.023	20.687	1049.294	837.029
34.038	20.529	1047.815	835.015
35.053	20.538	1046.894	834.252
36.067	20.748	1046.578	834.934
37.082	20.725	1045.402	833.814
38.096	20.681	1044.910	833.133
39.111	20.811	1044.275	833.176
40.126	21.088	1042.735	833.197
41.140	20.819	1042.017	831.264
42.155	20.683	1040.116	829.028
43.169	20.353	1038.718	826.268
44.184	20.353	1038.052	825.666
45.199	20.561	1036.572	825.407
46.213	20.291	1036.123	823.691
47.228	20.165	1034.866	822.022
48.242	20.518	1034.086	823.003
49.257	20.502	1033.390	822.299
50.271	20.604	1032.707	822.166
51.286	20.647	1032.484	822.120
52.301	20.663	1031.523	821.358
53.315	20.828	1030.456	821.213
54.330	20.581	1030.253	819.813
55.344	20.572	1029.175	818.839
56.359	20.787	1027.902	818.765
57.374	20.659	1027.185	817.523
58.388	20.632	1025.812	816.230
59.403	20.569	1025.174	815.355
60.417	20.392	1025.109	814.400
61.432	20.334	1023.979	813.159
62.447	20.396	1022.887	812.513
63.461	20.366	1022.955	812.351
64.476	20.459	1022.322	812.214
65.490	20.591	1020.991	811.702
66.505	20.532	1019.476	810.150
67.520	20.355	1019.461	809.238
68.534	20.566	1018.500	809.388
69.549	20.347	1017.516	807.514
70.563	20.134	1015.794	805.089
71.578	19.923	1015.891	804.113
72.593	20.152	1014.374	803.905
73.607	19.912	1013.653	802.147
74.622	19.950	1012.446	801.299
75.636	20.276	1011.502	801.986
76.651	20.313	1010.957	801.656
77.666	20.137	1010.567	800.464
78.680	20.135	1009.465	799.512
79.695	20.134	1009.210	799.233
80.709	20.179	1008.416	798.741
81.724	20.230	1007.410	798.106
82.739	20.321	1006.277	797.558
83.753	20.361	1005.014	796.671
84.768	20.554	1004.865	797.368
85.782	20.953	1003.948	798.396
86.797	21.148	1002.831	798.331
87.812	20.921	1002.342	796.830
88.826	20.738	1001.690	795.405
89.841	20.776	1000.736	794.751
90.855	20.944	999.886	794.772
91.870	20.938	998.936	793.922
92.884	20.901	998.149	793.055
93.899	20.848	997.463	792.200
94.914	20.774	996.154	790.752
95.928	20.750	995.634	790.165
96.943	20.818	994.678	789.643
97.957	20.607	993.430	787.627
98.972	20.364	992.216	785.496
99.987	20.255	991.180	784.114
101.001	20.224	991.238	783.951
102.016	20.640	990.656	785.298
103.030	20.637	989.399	784.217
104.045	20.608	987.902	782.832
105.060	20.432	986.928	781.198
106.074	20.225	985.731	779.252
107.089	20.420	984.494	779.081
108.103	20.757	984.629	780.629
109.118	20.823	983.622	780.056
110.133	20.388	982.698	777.308
111.147	20.561	981.218	776.844
112.162	20.360	980.519	775.324
113.176	20.230	978.832	773.343
114.191	20.390	978.370	773.622
115.206	20.448	977.205	772.888
116.220	20.117	976.136	770.507
117.235	19.881	975.607	768.969
118.249	19.986	975.250	769.088
119.264	20.090	973.856	768.381
120.279	20.144	972.684	767.627
121.293	20.125	972.383	767.237
122.308	20.135	971.475	766.499
123.322	20.204	970.801	766.202
124.337	20.052	969.694	764.591
125.352	20.147	968.207	763.767
126.366	19.796	966.033	760.443
127.381	19.423	965.160	758.049
128.395	19.791	965.225	759.650
129.410	20.514	964.675	762.323
130.424	20.709	963.291	762.017
131.439	20.630	962.257	760.784
132.454	20.609	961.084	759.698
133.468	20.624	960.027	758.863
134.483	20.462	959.799	757.910
135.497	20.482	959.237	757.483
136.512	20.661	958.348	757.494
137.527	20.844	957.411	757.484
138.541	20.762	956.690	756.488
139.556	20.886	956.107	756.498
140.570	20.868	954.817	755.335
141.585	20.820	953.917	754.348
142.600	20.792	953.552	753.870
143.614	20.903	952.326	753.314
144.629	20.860	952.102	752.886
145.643	21.153	951.281	753.434
146.658	20.920	950.490	751.738
147.673	20.731	948.804	749.523
148.687	20.663	947.927	748.469
149.702	20.610	946.615	747.142
150.716	20.601	945.696	746.310
151.731	20.487	945.068	745.259
152.746	20.631	944.026	744.989
153.760	20.992	943.168	745.790
154.775	20.890	942.811	745.009
155.789	21.062	941.318	744.496
156.804	21.055	940.869	744.043
157.819	20.842	940.233	742.569
158.833	21.046	938.815	742.250
159.848	20.935	938.667	741.595
160.862	20.979	937.991	741.181
161.877	20.953	936.439	739.780
162.892	20.908	935.312	738.635
163.906	21.094	934.957	739.078
164.921	20.972	934.036	737.765
165.935	20.985	932.403	736.464
166.950	20.964	931.738	735.786
167.964	20.902	931.059	734.925
168.979	20.934	929.616	733.856
169.994	20.803	928.972	732.733
171.008	20.690	927.965	731.397
172.023	21.041	927.262	732.253
173.037	21.135	926.251	731.784
174.052	20.936	924.992	729.891
175.067	20.918	923.734	728.757
176.081	20.689	923.254	727.357
177.096	20.861	922.480	727.402
178.110	20.847	921.597	726.582
179.125	20.639	920.760	724.992
180.140	20.364	919.479	722.773
181.154	20.477	918.930	722.749
182.169	20.500	918.871	722.734
183.183	20.651	918.490	722.998
184.198	21.074	917.741	724.100
185.213	20.871	917.113	722.698
186.227	20.915	916.259	722.143
187.242	20.965	915.993	722.080
188.256	21.029	915.106	721.578
189.271	21.072	913.846	720.700
190.286	21.120	913.616	720.653
191.300	20.986	912.491	719.148
192.315	20.406	911.303	715.759
193.329	19.846	909.498	711.973
194.344	19.462	908.325	709.415
195.359	20.040	908.739	712.051
196.373	20.788	909.305	715.506
197.388	20.837	909.142	715.518
198.402	20.750	907.967	714.174
199.417	20.768	907.015	713.435
200.432	20.933	906.820	713.894
201.446	20.563	906.290	711.897
202.461	20.439	905.089	710.384
203.475	20.555	904.504	710.336
204.490	20.103	903.156	707.371
205.504	18.900	901.265	700.925
206.519	19.520	901.139	703.290
207.534	20.491	901.665	707.596
208.548	20.375	900.941	706.493
209.563	20.853	900.799	708.265
210.577	20.811	900.377	707.699
211.592	20.571	899.259	705.781
212.607	21.019	899.069	707.389
213.621	21.043	898.553	707.018
214.636	20.962	897.514	705.809
215.650	21.199	896.985	706.291
216.665	20.812	896.961	704.641
217.680	20.966	896.548	704.879
218.694	21.011	896.086	704.635
219.709	20.699	895.314	702.708
220.723	20.407	894.012	700.444
221.738	20.782	893.399	701.412
222.753	20.947	892.528	701.329
223.767	20.869	892.380	700.838
224.782	20.854	891.366	699.922
225.796	21.077	890.758	700.277
226.811	21.159	889.991	699.939
227.826	20.686	889.202	697.362
228.840	20.014	887.379	693.184
229.855	19.860	886.837	692.082
230.869	20.165	886.365	692.871
231.884	19.851	885.154	690.610
232.899	19.861	885.344	690.738
233.913	20.685	885.458	694.054
234.928	20.900	884.715	694.268
235.942	20.870	884.157	693.649
236.957	20.728	883.755	692.705
237.972	20.552	882.413	690.892
238.986	20.471	881.588	689.865
240.001	20.548	881.277	689.866
241.015	20.490	880.756	689.165
242.030	20.620	880.094	689.102
243.045	20.686	879.876	689.131
244.059	20.835	879.471	689.343
245.074	21.011	878.755	689.419
246.088	20.917	878.005	688.398
247.103	20.595	876.507	685.893
248.117	20.589	876.201	685.568
249.132	21.176	876.275	687.877
250.147	21.447	876.208	688.832
251.161	21.578	875.505	688.736
252.176	21.662	874.919	688.542
253.190	21.704	874.220	688.099
254.205	21.761	873.419	687.629
255.220	22.013	873.451	688.583
256.234	21.858	872.577	687.224
257.249	21.785	871.861	686.313
258.263	21.641	871.377	685.307
259.278	21.583	870.795	684.565
260.293	21.659	870.444	684.526
261.307	21.800	869.861	684.556
262.322	21.655	868.980	683.237
263.336	21.512	868.456	682.207
264.351	21.039	866.729	678.951
265.366	20.009	864.725	673.318
266.380	19.490	864.015	670.687
267.395	20.457	864.476	674.744
268.409	21.346	864.313	678.006
269.424	21.312	863.546	677.214
270.439	21.278	863.866	677.275
271.453	21.500	862.888	677.307
272.468	21.547	862.058	676.775
273.482	21.723	861.532	676.984
274.497	21.750	861.447	676.962
275.512	21.723	860.019	675.674
276.526	20.980	858.850	671.835
277.541	21.220	858.471	672.403
278.555	21.656	858.381	673.952
279.570	21.389	857.707	672.336
280.585	21.216	856.733	670.848
281.599	21.245	856.271	670.538
282.614	21.413	855.790	670.748
283.628	21.048	854.581	668.343
284.643	20.679	854.178	666.554
285.657	21.072	854.125	667.960
286.672	21.040	852.932	666.845
287.687	20.543	852.055	664.202
288.701	20.817	852.274	665.359
289.716	21.281	851.448	666.426
290.730	20.995	850.644	664.649
291.745	20.834	850.263	663.678
292.760	20.566	849.168	661.747
293.774	20.488	848.718	661.040
294.789	21.263	849.463	664.512
295.803	22.009	848.905	666.851
296.818	22.097	848.413	666.737
297.833	22.250	847.727	666.721
298.847	21.748	846.849	664.069
299.862	21.447	845.789	662.041
300.876	21.719	845.673	662.918
301.891	21.934	845.291	663.374
302.906	22.116	844.400	663.303
303.920	21.729	843.377	660.984
304.935	21.477	842.596	659.362
305.949	21.779	842.851	660.642
306.964	22.167	841.686	661.129
307.979	21.794	841.230	659.311
308.993	21.742	840.513	658.496
310.008	22.041	840.846	659.822
311.022	22.267	840.011	659.956
312.037	22.093	839.539	658.873
313.052	21.886	838.694	657.379
314.066	21.732	838.362	656.484
315.081	21.036	836.838	652.628
316.095	20.331	835.876	649.183
317.110	20.985	836.012	651.676
318.125	21.604	836.250	654.117
319.139	21.295	834.906	651.856
320.154	20.151	833.392	646.354
321.168	19.786	832.198	644.012
322.183	20.494	832.292	646.664
323.197	21.344	832.831	650.190
324.212	21.652	832.267	650.835
325.227	21.829	831.982	651.213
326.241	21.911	831.664	651.208
327.256	21.903	830.739	650.398
328.270	21.633	830.505	649.156
329.285	21.622	829.850	648.547
330.300	21.443	829.168	647.294
331.314	21.125	828.295	645.379
332.329	21.379	827.245	645.442
333.343	21.688	827.502	646.727
334.358	21.763	827.616	647.036
335.373	21.888	826.316	646.421
336.387	22.034	825.590	646.332
337.402	22.057	825.894	646.600
338.416	22.462	825.055	647.373
339.431	22.287	824.481	646.223
340.446	22.280	824.116	645.856
341.460	22.533	823.747	646.436
342.475	22.543	822.937	645.783
343.489	22.359	822.090	644.387
344.504	22.274	821.914	643.878
345.519	22.505	821.648	644.460
346.533	22.752	821.121	644.894
347.548	22.726	820.639	644.363
348.562	22.751	820.028	643.917
349.577	22.611	820.179	643.466
350.592	22.712	819.406	643.172
351.606	22.695	818.690	642.492
352.621	22.626	818.559	642.080
353.635	22.509	817.995	641.155
354.650	22.456	817.546	640.551
355.665	22.170	816.066	638.299
356.679	21.118	814.792	633.429
357.694	21.071	814.336	632.849
358.708	21.737	814.150	635.063
359.723	21.679	813.253	634.095
360.738	21.904	813.036	634.684
361.752	22.234	813.188	635.940
362.767	22.307	812.690	635.758
363.781	22.846	812.316	637.355
364.796	22.987	812.400	637.876
365.810	23.003	811.708	637.332
366.825	23.074	811.476	637.351
367.840	23.197	811.145	637.476
368.854	22.923	810.622	636.021
369.869	22.431	809.894	633.626
370.883	22.347	809.203	632.728
371.898	22.433	808.574	632.486
372.913	22.407	807.686	631.643
373.927	22.403	807.154	631.157
374.942	22.437	806.584	630.780
375.956	22.702	806.254	631.412
376.971	22.807	805.333	631.011
377.986	22.868	805.200	631.070
379.000	22.937	805.012	631.112
380.015	22.885	804.859	630.751
381.029	22.872	803.744	629.774
382.044	22.701	803.040	628.557
383.059	22.982	802.336	628.950
384.073	22.958	802.215	628.717
385.088	22.961	801.372	628.011
386.102	22.990	800.942	627.720
387.117	23.012	799.834	626.875
388.132	22.802	799.721	625.987
389.146	22.532	799.488	624.790
390.161	22.228	797.826	622.362
391.175	22.183	797.819	622.140
392.190	22.545	797.910	623.437
393.205	22.689	797.384	623.481
394.219	21.659	795.820	618.566
395.234	20.244	793.370	611.622
396.248	19.452	792.540	608.139
397.263	20.554	793.417	612.643
398.278	22.452	794.584	620.182
399.292	22.662	794.783	621.023
400.307	22.431	793.974	619.524
401.321	22.363	793.680	618.997
402.336	22.386	793.150	618.613
403.350	22.864	792.709	619.891
404.365	23.176	792.974	621.139
405.380	23.382	792.880	621.733
406.394	23.696	792.410	622.411
407.409	23.842	791.876	622.447
408.423	23.641	791.624	621.492
409.438	23.686	790.785	620.936
410.453	23.761	790.013	620.536
411.467	23.850	789.648	620.504
412.482	23.752	789.415	619.923
413.496	23.672	789.181	619.407
414.511	23.725	788.782	619.224
415.526	23.839	788.244	619.145
416.540	23.736	788.011	618.549
417.555	23.593	787.498	617.590
418.569	23.324	786.929	616.157
419.584	23.261	786.248	615.349
420.599	23.435	786.028	615.725
421.613	157.100	1364.813	1797.724
422.628	135.889	1449.138	1797.824
