DTS Sentinel unit serial number:	SN413079Multiplexer serial number:	ORYXHardware model number:	OX4-SRSoftware version number:	ORYX F/W v4.00 Oryx Data Collector v3.7.2.0data status	okinstallation	princeton_trtdifferential loss correction	single-endedforward channel	channel 3reverse channel	N/Adate	2019/09/10time	22:14:11forward acquisition time	60.00reverse acquisition time	0.00gamma	496.2192k internal	0.2330k external	0.2330temperature offset calibration	0.9921default loss term (dB/km)	0.3790temperature slope calibration	1.0000multiplexer offset coefficient	1.0000multiplexer slope coefficient	1.0000fibre end	0.00T internal ref (°C)	30.55T ext. ref 1 (°C)	-0.32T ext. ref 2 (°C)	23.88length (m)	temperature (°C)	Stokes	anti-Stokes-747.200	-64.478	-0.333	0.136
-746.185	44.640	0.148	-0.137
-745.171	-127.021	-0.224	-0.033
-744.156	242.669	-0.130	0.219
-743.142	-200.000	-0.055	0.485
-742.127	394.450	-0.125	0.263
-741.112	-103.477	0.256	-0.061
-740.098	313.053	0.118	-0.223
-739.083	11.182	0.080	0.062
-738.069	50.078	0.096	-0.091
-737.054	-184.784	-0.020	-0.000
-736.039	-200.000	0.018	0.338
-735.025	-22.161	0.424	0.259
-734.010	-46.866	-0.288	0.142
-732.996	-95.024	-0.267	-0.073
-731.981	26.479	0.189	-0.159
-730.966	-162.394	-0.118	0.006
-729.952	800.000	-0.043	-0.178
-728.937	87.959	-0.146	-0.163
-727.923	629.137	0.019	-0.047
-726.908	-200.000	0.036	-0.208
-725.894	-29.165	-0.252	-0.145
-724.879	92.463	-0.039	0.044
-723.864	-200.000	0.016	-0.165
-722.850	-98.637	-0.258	-0.066
-721.835	-200.000	0.019	-0.427
-720.821	345.766	-0.160	-0.317
-719.806	282.318	-0.111	-0.200
-718.791	-200.000	-0.007	0.136
-717.777	756.849	-0.092	-0.250
-716.762	-79.194	0.019	-0.007
-715.748	-41.129	-0.230	0.120
-714.733	136.638	-0.074	0.097
-713.718	-153.565	0.304	-0.021
-712.704	-41.746	0.348	-0.180
-711.689	800.000	-0.055	-0.196
-710.675	-7.734	0.189	-0.128
-709.660	-53.340	0.100	0.046
-708.645	-41.838	0.085	-0.044
-707.631	-53.342	-0.124	0.057
-706.616	-142.818	-0.462	0.045
-705.602	-86.159	0.560	-0.174
-704.587	516.703	-0.089	-0.209
-703.572	-200.000	0.031	-0.378
-702.558	-9.744	0.246	0.165
-701.543	130.545	0.210	-0.271
-700.529	651.832	-0.081	0.208
-699.514	-200.000	-0.003	0.143
-698.499	703.733	0.074	-0.195
-697.485	-200.000	-0.069	-0.395
-696.470	329.273	0.079	-0.152
-695.456	11.739	0.144	-0.111
-694.441	-136.452	-0.337	-0.039
-693.426	319.248	0.045	0.086
-692.412	-82.612	0.206	0.067
-691.397	-6.501	-0.314	-0.215
-690.383	370.122	-0.100	0.203
-689.368	-64.388	0.134	0.055
-688.354	93.772	-0.035	0.039
-687.339	-119.702	0.066	0.011
-686.324	-106.301	-0.154	0.035
-685.310	610.818	0.007	-0.018
-684.295	-156.938	0.109	-0.007
-683.281	-186.721	0.100	0.001
-682.266	-37.855	0.206	0.110
-681.251	-66.168	0.245	-0.098
-680.237	64.166	-0.231	-0.233
-679.222	-200.000	0.033	-0.166
-678.208	-67.095	-0.292	-0.116
-677.193	518.132	-0.147	-0.346
-676.178	-3.096	-0.274	-0.192
-675.164	423.539	-0.108	0.234
-674.149	800.000	-0.056	0.176
-673.135	-67.154	0.195	0.077
-672.120	504.173	0.093	-0.215
-671.105	-181.981	-0.378	0.007
-670.091	-80.676	-0.323	-0.108
-669.076	124.174	-0.111	-0.140
-668.062	72.797	0.087	0.091
-667.047	-200.000	-0.012	-0.057
-666.032	-66.464	-0.315	0.126
-665.018	-200.000	-0.023	-0.157
-664.003	-200.000	0.022	0.272
-662.989	203.514	-0.057	0.089
-661.974	-200.000	0.003	-0.285
-660.959	168.547	-0.273	0.391
-659.945	800.000	-0.024	0.077
-658.930	800.000	-0.038	-0.137
-657.916	-142.525	-0.328	0.032
-656.901	-200.000	0.524	0.001
-655.886	7.928	0.066	-0.050
-654.872	-115.355	-0.313	-0.059
-653.857	-53.994	0.127	-0.058
-652.843	800.000	-0.067	-0.254
-651.828	12.298	0.140	-0.108
-650.814	37.280	0.036	-0.032
-649.799	-102.231	0.305	0.074
-648.784	-26.650	-0.057	-0.033
-647.770	363.348	-0.088	-0.178
-646.755	-21.216	0.092	-0.056
-645.741	-16.295	0.174	-0.111
-644.726	46.897	0.196	0.182
-643.711	-200.000	0.036	-0.550
-642.697	297.382	-0.092	0.170
-641.682	218.840	0.116	-0.186
-640.668	25.059	0.249	-0.207
-639.653	22.999	0.134	-0.110
-638.638	800.000	-0.045	-0.167
-637.624	-200.000	0.021	-0.204
-636.609	-138.100	0.055	-0.006
-635.595	40.897	0.151	0.137
-634.580	614.220	0.092	-0.231
-633.565	99.947	-0.066	-0.076
-632.551	80.006	-0.147	-0.159
-631.536	4.128	0.093	-0.068
-630.522	800.000	0.046	-0.173
-629.507	-181.924	-0.341	0.006
-628.492	456.282	0.121	0.270
-627.478	-200.000	-0.015	-0.126
-626.463	-53.938	-0.100	0.046
-625.449	-1.924	-0.165	-0.116
-624.434	27.586	-0.163	0.137
-623.419	175.713	0.084	-0.122
-622.405	-189.141	0.056	0.001
-621.390	45.559	-0.272	0.252
-620.376	214.370	0.112	-0.177
-619.361	-200.000	0.018	-0.249
-618.346	-200.000	0.000	-0.069
-617.332	117.505	0.074	-0.092
-616.317	-87.405	-0.217	-0.066
-615.303	213.892	-0.122	0.193
-614.288	800.000	0.102	0.437
-613.273	47.972	0.238	-0.222
-612.259	-58.104	0.150	-0.065
-611.244	-200.000	0.002	-0.119
-610.230	-90.931	-0.290	-0.084
-609.215	-10.379	-0.290	-0.193
-608.201	800.000	-0.058	0.211
-607.186	106.181	-0.209	0.248
-606.171	-128.871	-0.114	0.016
-605.157	12.150	0.040	-0.031
-604.142	199.469	0.249	-0.382
-603.128	57.298	-0.212	-0.207
-602.113	3.212	-0.252	-0.184
-601.098	760.675	0.040	-0.109
-600.084	-72.567	-0.282	0.104
-599.069	800.000	-0.089	-0.266
-598.055	-97.720	0.315	-0.082
-597.040	-179.641	0.244	0.005
-596.025	-200.000	0.010	0.411
-595.011	800.000	-0.066	0.183
-593.996	-105.126	-0.111	0.025
-592.982	-135.457	-0.265	0.032
-591.967	-200.000	-0.000	0.293
-590.952	257.994	0.214	0.369
-589.938	-125.065	0.211	-0.032
-588.923	-0.394	-0.122	-0.087
-587.909	708.972	-0.065	-0.173
-586.894	-81.643	0.179	0.059
-585.879	-200.000	-0.008	-0.116
-584.865	159.996	-0.170	-0.237
-583.850	-109.373	0.115	0.024
-582.836	800.000	0.072	0.269
-581.821	-113.168	-0.342	-0.067
-580.806	-21.890	-0.066	-0.040
-579.792	-57.256	-0.282	-0.124
-578.777	257.988	-0.035	-0.060
-577.763	-54.860	-0.085	0.038
-576.748	-200.000	0.002	-0.065
-575.733	-28.477	-0.252	-0.145
-574.719	-200.000	-0.051	-0.356
-573.704	379.935	0.066	0.136
-572.690	-79.387	-0.195	-0.066
-571.675	-31.262	0.133	-0.075
-570.661	92.062	-0.090	-0.102
-569.646	34.151	-0.111	-0.097
-568.631	-61.198	0.040	0.017
-567.617	800.000	-0.085	0.272
-566.602	457.518	0.056	-0.125
-565.588	800.000	0.122	-0.355
-564.573	800.000	-0.085	0.255
-563.558	-99.570	0.225	0.056
-562.544	-20.018	-0.163	-0.101
-561.529	57.637	-0.091	-0.089
-560.515	21.167	-0.158	0.128
-559.500	-88.194	0.269	0.081
-558.485	-153.163	0.274	-0.019
-557.471	-200.000	0.030	0.155
-556.456	-94.331	0.236	0.064
-555.442	-200.000	0.003	-0.239
-554.427	-96.648	-0.172	0.045
-553.412	69.384	-0.084	-0.086
-552.398	-107.697	0.172	0.038
-551.383	-138.564	0.210	0.023
-550.369	209.203	-0.042	-0.066
-549.354	40.617	0.128	0.116
-548.339	-141.215	0.027	0.003
-547.325	208.765	-0.155	0.243
-546.310	-63.953	0.084	-0.034
-545.296	-200.000	-0.039	-0.231
-544.281	-200.000	-0.055	-0.549
-543.266	-112.407	0.159	0.032
-542.252	-179.349	0.089	-0.002
-541.237	169.946	0.101	-0.144
-540.223	133.600	0.132	-0.170
-539.208	15.373	-0.180	-0.141
-538.193	183.180	-0.066	-0.097
-537.179	-200.000	0.012	-0.403
-536.164	-200.000	-0.479	-0.002
-535.150	-9.900	0.149	0.099
-534.135	-91.540	-0.264	0.075
-533.121	-200.000	0.098	0.000
-532.106	800.000	-0.101	0.376
-531.091	-46.573	0.134	0.065
-530.077	527.361	-0.186	0.438
-529.062	-87.822	0.030	-0.009
-528.048	-152.705	0.043	0.003
-527.033	-200.000	0.025	-0.362
-526.018	167.471	-0.135	-0.191
-525.004	20.316	0.162	0.131
-523.989	263.800	-0.077	-0.134
-522.975	531.693	-0.166	-0.391
-521.960	735.593	-0.104	-0.277
-520.945	-134.185	-0.195	0.024
-519.931	-90.088	0.219	0.064
-518.916	-9.047	-0.242	-0.162
-517.902	16.446	-0.198	-0.156
-516.887	136.392	0.064	0.084
-515.872	800.000	0.140	0.540
-514.858	508.670	-0.017	0.040
-513.843	65.343	-0.123	-0.124
-512.829	-56.438	-0.332	-0.147
-511.814	-132.799	0.306	0.039
-510.799	-200.000	0.022	0.111
-509.785	-88.274	0.277	0.083
-508.770	397.653	-0.046	0.096
-507.756	-107.234	-0.333	-0.073
-506.741	91.069	0.020	-0.022
-505.726	-52.599	0.213	0.098
-504.712	231.865	0.072	-0.118
-503.697	-31.620	0.549	0.308
-502.683	-53.084	-0.290	-0.133
-501.668	-104.481	0.205	0.047
-500.653	-200.000	0.014	-0.101
-499.639	-7.465	0.292	-0.197
-498.624	173.046	-0.057	-0.082
-497.610	-162.719	-0.210	-0.010
-496.595	260.283	-0.188	-0.323
-495.581	-187.966	0.228	0.003
-494.566	42.782	0.060	-0.055
-493.551	-200.000	0.010	-0.159
-492.537	-200.000	-0.046	-0.234
-491.522	-86.617	0.274	-0.084
-490.508	100.397	0.100	0.116
-489.493	119.010	0.034	-0.041
-488.478	50.809	-0.074	-0.070
-487.464	-103.009	-0.378	-0.089
-486.449	800.000	0.087	0.298
-485.435	800.000	-0.031	-0.130
-484.420	54.430	0.094	0.090
-483.405	135.965	-0.097	0.126
-482.391	169.568	-0.291	0.414
-481.376	-200.000	-0.032	0.328
-480.362	295.321	-0.148	-0.270
-479.347	-121.350	0.223	0.037
-478.332	-73.372	0.120	-0.044
-477.318	-2.006	0.193	0.135
-476.303	-124.172	-0.224	-0.035
-475.289	28.094	0.283	0.238
-474.274	-200.000	-0.011	-0.112
-473.259	-134.639	0.237	0.029
-472.245	651.684	-0.123	0.313
-471.230	510.973	-0.110	0.256
-470.216	800.000	-0.044	0.130
-469.201	-100.129	0.099	0.024
-468.186	234.350	0.168	0.275
-467.172	-101.144	0.200	0.049
-466.157	-76.615	-0.218	0.076
-465.143	63.459	0.144	0.144
-464.128	347.086	0.097	0.190
-463.113	800.000	-0.042	-0.123
-462.099	166.946	0.058	-0.082
-461.084	-30.908	0.265	-0.149
-460.070	62.658	0.136	0.136
-459.055	1.374	-0.133	0.096
-458.040	-28.724	0.228	0.131
-457.026	-93.928	-0.128	0.035
-456.011	800.000	-0.067	0.205
-454.997	73.237	-0.359	-0.374
-453.982	265.916	0.051	0.089
-452.968	148.089	0.026	0.036
-451.953	10.678	-0.272	0.206
-450.938	90.941	-0.267	-0.298
-449.924	-167.309	-0.165	-0.007
-448.909	414.494	-0.076	-0.162
-447.895	389.082	0.080	0.166
-446.880	-21.532	-0.171	-0.104
-445.865	182.919	-0.245	0.360
-444.851	-6.519	0.128	-0.087
-443.836	-200.000	-0.007	-0.063
-442.822	253.907	0.105	-0.178
-441.807	230.072	-0.034	0.055
-440.792	430.195	-0.053	0.115
-439.778	-47.652	0.408	0.197
-438.763	381.029	0.123	0.252
-437.749	-128.297	-0.135	-0.019
-436.734	445.240	-0.109	-0.239
-435.719	800.000	0.145	-0.447
-434.705	-157.758	-0.261	0.015
-433.690	-200.000	-0.032	0.326
-432.676	-200.000	-0.047	0.244
-431.661	528.574	0.168	-0.394
-430.646	-37.630	0.230	-0.122
-429.632	-106.850	-0.077	-0.017
-428.617	-70.871	0.136	-0.051
-427.603	-30.471	-0.135	-0.076
-426.588	-107.816	0.430	-0.093
-425.573	800.000	0.084	-0.273
-424.559	-48.121	0.343	-0.165
-423.544	73.006	0.163	0.170
-422.530	315.003	0.027	-0.050
-421.515	-51.506	0.047	0.022
-420.500	78.448	0.200	-0.212
-419.486	-27.051	0.450	0.261
-418.471	-7.326	0.204	-0.138
-417.457	-200.000	0.043	-0.223
-416.442	104.465	-0.226	0.264
-415.428	800.000	-0.018	-0.069
-414.413	-59.650	-0.206	-0.088
-413.398	86.023	0.115	0.126
-412.384	-200.000	0.001	0.228
-411.369	800.000	0.087	0.325
-410.355	54.644	0.387	0.371
-409.340	-200.000	0.059	-0.294
-408.325	42.167	-0.229	-0.206
-407.311	-30.765	0.353	-0.199
-406.296	446.751	0.110	-0.240
-405.282	800.000	-0.048	0.139
-404.267	-67.482	-0.047	0.018
-403.252	237.978	0.185	-0.306
-402.238	-200.000	0.019	0.223
-401.223	800.000	-0.101	-0.323
-400.209	-144.631	-0.132	-0.012
-399.194	-95.041	-0.126	-0.034
-398.179	161.724	-0.114	0.158
-397.165	800.000	0.131	0.408
-396.150	-20.687	-0.036	-0.022
-395.136	-28.730	-0.037	-0.021
-394.121	-200.000	0.017	0.222
-393.106	592.251	-0.154	0.377
-392.092	-200.000	-0.029	0.217
-391.077	-76.503	-0.105	0.037
-390.063	461.398	-0.186	0.411
-389.048	-141.974	-0.297	0.029
-388.033	-200.000	-0.028	-0.378
-387.019	269.557	-0.023	0.040
-386.004	63.402	0.027	0.027
-384.990	-200.000	-0.004	-0.269
-383.975	-186.483	-0.107	-0.002
-382.960	800.000	-0.063	0.259
-381.946	577.510	0.031	0.075
-380.931	-200.000	0.012	-0.147
-379.917	-51.625	-0.038	-0.018
-378.902	-103.590	0.360	-0.084
-377.888	-120.415	0.031	-0.005
-376.873	800.000	0.042	0.116
-375.858	-128.973	-0.360	-0.050
-374.844	-7.131	0.225	-0.151
-373.829	109.199	0.099	-0.118
-372.815	85.958	-0.136	0.148
-371.800	-22.235	-0.095	0.057
-370.785	-200.000	0.032	-0.566
-369.771	800.000	-0.038	-0.143
-368.756	-152.636	-0.248	0.018
-367.742	50.557	0.195	0.183
-366.727	-42.794	0.146	-0.074
-365.712	-80.516	0.302	-0.100
-364.698	299.080	0.207	0.377
-363.683	-30.323	-0.112	0.063
-362.669	795.489	0.065	-0.177
-361.654	85.489	-0.122	0.133
-360.639	492.702	0.226	-0.513
-359.625	132.423	-0.136	-0.174
-358.610	169.832	-0.130	0.184
-357.596	800.000	0.085	-0.363
-356.581	21.201	0.155	-0.125
-355.566	-144.892	-0.403	-0.037
-354.552	212.511	0.203	-0.317
-353.537	61.408	-0.154	0.152
-352.523	-129.998	-0.047	-0.006
-351.508	-200.000	0.003	-0.064
-350.493	-5.810	-0.406	0.276
-349.479	22.554	-0.059	0.048
-348.464	800.000	0.057	0.213
-347.450	800.000	0.044	-0.162
-346.435	800.000	-0.087	-0.240
-345.420	207.353	-0.130	0.200
-344.406	132.215	0.202	-0.258
-343.391	-125.802	-0.322	0.048
-342.377	-3.764	-0.239	-0.165
-341.362	-118.480	0.399	-0.070
-340.348	679.980	0.112	0.289
-339.333	-200.000	-0.024	0.184
-338.318	-51.167	-0.126	0.059
-337.304	-53.369	0.189	0.086
-336.289	313.906	-0.021	-0.039
-335.275	108.292	-0.290	0.343
-334.260	83.399	0.132	-0.143
-333.245	-143.557	0.264	0.025
-332.231	800.000	0.064	0.189
-331.216	-82.654	-0.059	-0.019
-330.202	-200.000	0.067	-0.405
-329.187	88.114	0.217	-0.238
-328.172	14.996	0.073	-0.056
-327.158	240.311	-0.092	-0.152
-326.143	-124.412	-0.112	0.017
-325.129	8.595	-0.198	-0.148
-324.114	37.622	-0.129	-0.113
-323.099	-17.847	-0.148	0.092
-322.085	363.651	0.140	-0.280
-321.070	277.841	-0.132	0.232
-320.056	63.025	-0.212	0.211
-319.041	626.167	-0.063	-0.159
-318.026	-200.000	0.005	0.320
-317.012	-76.893	-0.169	0.059
-315.997	-167.493	0.099	0.004
-314.983	-176.253	0.259	-0.007
-313.968	-200.000	0.022	0.257
-312.953	-30.115	0.075	0.042
-311.939	-43.279	0.108	0.054
-310.924	-125.164	0.218	0.033
-309.910	-46.098	-0.339	0.165
-308.895	122.707	0.081	0.100
-307.880	2.030	0.176	-0.126
-306.866	317.602	0.160	-0.300
-305.851	749.515	0.046	-0.124
-304.837	28.345	-0.178	0.149
-303.822	-96.653	-0.200	0.052
-302.807	30.893	0.175	0.149
-301.793	-200.000	-0.065	0.393
-300.778	-80.889	-0.166	0.054
-299.764	-200.000	0.015	-0.240
-298.749	800.000	0.074	-0.296
-297.735	-125.720	-0.126	0.019
-296.720	-129.243	-0.166	-0.023
-295.705	82.973	0.123	-0.132
-294.691	800.000	-0.046	0.175
-293.676	458.694	-0.075	0.164
-292.662	13.050	0.141	-0.108
-291.647	-200.000	0.023	0.360
-290.632	150.037	-0.033	0.044
-289.618	-167.768	-0.408	0.016
-288.603	-200.000	0.005	0.045
-287.589	800.000	-0.064	0.186
-286.574	-28.816	-0.070	0.040
-285.559	318.200	-0.185	-0.347
-284.545	-96.429	0.138	0.036
-283.530	742.582	0.098	-0.260
-282.516	-19.663	-0.250	0.153
-281.501	29.344	-0.095	-0.080
-280.486	81.054	-0.159	0.170
-279.472	-29.258	0.181	0.103
-278.457	53.076	-0.140	0.133
-277.443	50.739	0.144	-0.135
-276.428	1.815	0.194	-0.138
-275.413	-200.000	0.015	-0.351
-274.399	-40.040	-0.241	0.124
-273.384	800.000	-0.028	-0.092
-272.370	-66.168	-0.416	-0.164
-271.355	-64.692	-0.081	-0.032
-270.340	-179.138	-0.173	0.004
-269.326	145.677	0.071	-0.094
-268.311	-67.980	-0.186	-0.072
-267.297	78.747	0.145	-0.154
-266.282	-200.000	-0.055	0.339
-265.267	44.046	-0.202	0.183
-264.253	800.000	0.093	0.309
-263.238	683.402	0.123	-0.317
-262.224	-200.000	-0.074	0.453
-261.209	125.195	-0.303	0.378
-260.195	-155.123	0.363	-0.023
-259.180	283.965	-0.085	-0.150
-258.165	-200.000	0.032	-0.261
-257.151	398.831	0.100	-0.208
-256.136	55.526	0.135	0.130
-255.122	76.226	0.197	0.206
-254.107	-65.529	0.044	0.018
-253.092	-200.000	0.023	0.120
-252.078	505.859	0.051	-0.118
-251.063	-11.969	-0.119	0.077
-250.049	-11.307	0.365	0.237
-249.034	192.974	0.027	-0.040
-248.019	-101.324	-0.170	0.041
-247.005	-200.000	-0.005	-0.065
-245.990	269.310	-0.116	0.201
-244.976	-18.188	-0.055	0.034
-243.961	-200.000	-0.125	0.810
-242.946	800.000	-0.083	0.275
-241.932	43.640	-0.246	-0.222
-240.917	233.333	-0.115	0.187
-239.903	800.000	0.067	0.238
-238.888	-87.246	-0.134	-0.040
-237.873	-127.765	0.163	0.023
-236.859	177.140	0.035	-0.050
-235.844	247.629	0.025	0.042
-234.830	428.357	0.113	-0.241
-233.815	405.014	0.107	-0.223
-232.800	8.536	-0.177	0.132
-231.786	52.859	0.173	-0.163
-230.771	-154.571	0.069	-0.005
-229.757	-34.801	0.040	0.021
-228.742	-200.000	-0.014	0.291
-227.727	-200.000	0.064	0.288
-226.713	-187.558	0.356	0.005
-225.698	800.000	0.096	0.282
-224.684	-200.000	0.007	-0.108
-223.669	448.388	-0.130	-0.282
-222.655	82.408	0.136	-0.146
-221.640	346.578	-0.107	-0.208
-220.625	344.684	0.034	-0.066
-219.611	-47.842	0.063	0.030
-218.596	125.956	-0.066	0.083
-217.582	289.805	-0.132	0.235
-216.567	-108.811	0.299	0.063
-215.552	-59.653	0.210	-0.089
-214.538	-184.921	-0.072	-0.001
-213.523	249.825	-0.072	-0.120
-212.509	-26.317	0.119	-0.069
-211.494	-200.000	-0.023	-0.130
-210.479	800.000	0.065	-0.256
-209.465	40.657	-0.070	0.062
-208.450	-62.539	0.325	-0.133
-207.436	-82.059	-0.122	0.039
-206.421	504.898	-0.109	0.250
-205.406	344.986	-0.113	0.219
-204.392	197.638	-0.197	0.297
-203.377	-96.576	-0.266	0.069
-202.363	800.000	-0.067	0.231
-201.348	-64.229	-0.213	0.085
-200.333	84.290	0.206	0.222
-199.319	800.000	-0.081	0.278
-198.304	85.791	-0.243	0.263
-197.290	-167.078	0.214	0.009
-196.275	800.000	-0.050	-0.178
-195.260	443.596	0.080	-0.174
-194.246	89.777	0.140	0.155
-193.231	511.092	0.077	-0.176
-192.217	18.541	0.261	0.206
-191.202	-23.869	0.358	-0.211
-190.187	215.233	-0.170	-0.265
-189.173	139.080	0.023	-0.030
-188.158	29.534	-0.060	-0.051
-187.144	258.768	-0.135	-0.229
-186.129	176.579	-0.125	0.179
-185.114	84.275	0.038	-0.041
-184.100	800.000	-0.090	0.262
-183.085	-149.689	0.462	-0.036
-182.071	-129.494	0.064	0.009
-181.056	9.832	-0.141	0.105
-180.042	-136.482	-0.005	0.001
-179.027	-84.418	0.363	-0.113
-178.012	-90.244	0.158	0.045
-176.998	-122.645	0.272	-0.043
-175.983	800.000	0.041	0.154
-174.969	112.760	0.151	-0.180
-173.954	800.000	-0.083	0.305
-172.939	220.235	-0.139	0.219
-171.925	-200.000	0.085	0.439
-170.910	-59.802	-0.230	0.097
-169.896	800.000	-0.092	-0.351
-168.881	-83.465	0.195	0.062
-167.866	-200.000	-0.064	-0.395
-166.852	-23.360	-0.485	-0.287
-165.837	728.092	0.073	0.191
-164.823	-152.122	0.547	-0.039
-163.808	6.472	-0.252	0.184
-162.793	55.532	-0.004	-0.004
-161.779	-53.135	0.139	-0.063
-160.764	800.000	-0.016	0.057
-159.750	43.588	-0.192	-0.172
-158.735	-116.007	-0.241	-0.044
-157.720	800.000	0.075	0.299
-156.706	248.894	0.089	-0.148
-155.691	-79.901	0.284	-0.094
-154.677	-49.348	-0.085	0.040
-153.662	-200.000	-0.038	0.306
-152.647	77.848	-0.163	0.171
-151.633	800.000	-0.100	-0.380
-150.618	261.036	-0.100	-0.170
-149.604	-76.942	-0.283	-0.097
-148.589	-78.635	0.325	0.109
-147.574	-54.183	-0.111	-0.050
-146.560	82.803	0.084	0.090
-145.545	-65.542	0.286	0.113
-144.531	-200.000	-0.008	0.095
-143.516	58.837	-0.160	-0.154
-142.502	-16.077	0.036	0.022
-141.487	48.948	-0.143	-0.132
-140.472	-30.173	-0.185	0.103
-139.458	-200.000	-0.002	0.012
-138.443	-42.992	0.196	0.098
-137.429	145.758	-0.208	-0.274
-136.414	-49.151	0.017	0.008
-135.399	-104.588	-0.329	-0.075
-134.385	55.164	0.067	-0.063
-133.370	800.000	-0.075	-0.269
-132.356	-200.000	-0.014	0.128
-131.341	308.363	-0.054	0.100
-130.326	60.099	-0.155	0.151
-129.312	386.782	-0.066	0.135
-128.297	224.346	0.251	0.398
-127.283	800.000	0.063	0.185
-126.268	317.984	0.134	-0.249
-125.253	-127.713	0.375	-0.053
-124.239	185.896	0.076	0.111
-123.224	-123.307	0.438	-0.069
-122.210	75.343	0.189	-0.195
-121.195	-140.219	-0.300	-0.031
-120.180	12.908	0.013	0.010
-119.166	716.949	-0.160	0.417
-118.151	-200.000	0.035	0.388
-117.137	-200.000	0.058	-0.319
-116.122	-69.536	0.099	-0.037
-115.107	22.035	0.088	-0.070
-114.093	800.000	0.023	-0.094
-113.078	-200.000	0.077	0.384
-112.064	-133.607	-0.174	-0.021
-111.049	-37.286	0.310	-0.163
-110.034	272.862	-0.288	0.500
-109.020	-124.681	0.116	0.018
-108.005	-59.153	0.128	0.054
-106.991	-103.009	-0.188	0.044
-105.976	-200.000	-0.004	0.025
-104.962	-200.000	0.104	-0.528
-103.947	175.239	0.098	-0.140
-102.932	117.813	-0.261	-0.316
-101.918	-117.733	-0.269	0.047
-100.903	-55.794	0.272	0.119
-99.889	145.829	0.123	-0.162
-98.874	386.997	0.033	-0.066
-97.859	-50.840	-0.158	0.073
-96.845	-88.711	0.505	-0.147
-95.830	11.402	0.129	-0.097
-94.816	-200.000	0.034	0.183
-93.801	737.840	-0.083	0.220
-92.786	-12.624	-0.344	0.220
-91.772	341.081	0.079	0.152
-90.757	-74.840	0.235	0.083
-89.743	800.000	0.031	-0.126
-88.728	346.261	-0.173	0.333
-87.713	26.923	-0.332	0.273
-86.699	-105.314	0.074	0.017
-85.684	98.556	-0.260	0.294
-84.670	-200.000	0.028	0.186
-83.655	-77.768	0.253	0.086
-82.640	223.322	-0.075	0.119
-81.626	-102.034	0.284	-0.067
-80.611	70.961	0.207	0.210
-79.597	-51.100	0.234	-0.108
-78.582	-108.952	-0.207	-0.043
-77.567	-37.177	0.242	0.127
-76.553	-110.236	0.276	0.056
-75.538	-78.878	0.227	0.076
-74.524	-10.429	-0.030	-0.020
-73.509	408.673	-0.067	-0.140
-72.494	-100.723	0.367	-0.089
-71.480	800.000	0.128	-0.355
-70.465	-60.794	-0.244	0.101
-69.451	-200.000	0.026	0.126
-68.436	-43.872	0.254	-0.125
-67.422	-46.060	-0.278	0.134
-66.407	-159.065	-0.194	0.011
-65.392	-200.000	0.033	0.241
-64.378	240.771	-0.110	-0.180
-63.363	175.727	0.070	-0.099
-62.349	-200.000	0.025	0.259
-61.334	84.242	-0.970	-1.039
-60.319	-87.151	0.798	0.238
-59.305	-200.000	-0.203	-1.246
-58.290	244.080	0.613	1.009
-57.276	800.000	0.491	1.809
-56.261	-200.000	102.356	617.537
-55.246	531.416	1457.739	3378.654
-54.232	183.868	2651.930	3845.168
-53.217	113.717	2168.890	2582.655
-52.203	41.218	1694.608	1501.117
-51.188	33.753	1504.444	1282.421
-50.173	31.350	1477.807	1243.694
-49.159	52.439	1531.418	1432.232
-48.144	52.973	1549.522	1452.726
-47.130	33.999	1506.025	1285.227
-46.115	30.910	1490.827	1251.495
-45.100	30.682	1487.944	1247.495
-44.086	30.652	1485.743	1245.400
-43.071	30.546	1483.817	1243.027
-42.057	30.556	1482.168	1241.663
-41.042	30.546	1480.695	1240.317
-40.027	30.485	1479.544	1238.893
-39.013	30.461	1478.479	1237.796
-37.998	30.587	1476.174	1236.653
-36.984	30.424	1475.694	1235.117
-35.969	30.544	1473.651	1234.159
-34.954	30.516	1472.726	1233.148
-33.940	30.572	1470.820	1231.876
-32.925	30.598	1470.097	1231.388
-31.911	30.550	1468.874	1230.004
-30.896	30.573	1467.614	1229.046
-29.881	30.679	1465.907	1228.268
-28.867	30.605	1465.041	1227.004
-27.852	30.618	1463.302	1225.586
-26.838	30.669	1462.138	1224.904
-25.823	30.639	1460.227	1223.054
-24.809	30.622	1458.542	1221.483
-23.794	30.631	1456.691	1219.942
-22.779	30.564	1456.431	1219.240
-21.765	30.519	1455.604	1218.204
-20.750	30.603	1454.230	1217.554
-19.736	30.564	1453.086	1216.290
-18.721	30.537	1452.378	1215.473
-17.706	30.587	1450.605	1214.267
-16.692	30.691	1449.504	1213.980
-15.677	30.563	1448.925	1212.607
-14.663	30.572	1447.501	1211.427
-13.648	30.480	1447.468	1210.751
-12.633	30.504	1446.175	1209.783
-11.619	30.407	1445.727	1208.726
-10.604	30.546	1444.296	1208.383
-9.590	30.476	1443.771	1207.446
-8.575	30.548	1442.937	1207.166
-7.560	30.473	1441.899	1205.761
-6.546	30.399	1441.609	1204.989
-5.531	30.503	1440.737	1204.887
-4.517	30.431	1439.694	1203.503
-3.502	30.457	1438.486	1202.612
-2.487	30.423	1437.592	1201.601
-1.473	30.516	1436.199	1200.989
-0.458	30.528	1435.041	1200.046
0.556	28.183	1425.782	1188.423
1.571	25.270	1399.189	1147.555
2.586	21.725	1338.682	1076.107
3.600	20.107	1257.264	1001.227
4.615	18.953	1212.776	959.281
5.629	16.562	1157.505	902.735
6.644	7.910	1075.315	795.493
7.659	0.858	1034.778	731.435
8.673	-0.165	1029.167	722.482
9.688	-0.359	1026.269	719.458
10.702	-0.379	1024.506	718.058
11.717	-0.376	1022.379	716.519
12.731	2.676	1025.547	733.290
13.746	11.432	1038.189	784.507
14.761	18.144	1046.299	822.977
15.775	19.373	1047.220	829.545
16.790	19.378	1047.163	829.448
17.804	19.276	1045.797	827.801
18.819	18.930	1045.321	825.694
19.834	19.211	1044.536	826.345
20.848	19.198	1044.027	825.810
21.863	19.305	1043.542	825.865
22.877	19.253	1043.238	825.301
23.892	19.307	1042.507	824.909
24.907	19.152	1041.544	823.333
25.921	19.286	1040.656	823.201
26.936	19.198	1040.432	822.530
27.950	19.268	1039.118	821.752
28.965	19.240	1037.748	820.462
29.980	19.205	1036.130	818.944
30.994	19.044	1034.822	817.073
32.009	19.190	1034.107	817.130
33.023	19.368	1033.377	817.322
34.038	19.222	1031.815	815.324
35.053	19.055	1031.385	814.125
36.067	19.144	1031.181	814.312
37.082	19.377	1029.624	814.109
38.096	19.292	1029.202	813.300
39.111	19.400	1028.423	813.124
40.126	19.726	1027.239	813.649
41.140	19.394	1026.641	811.543
42.155	19.323	1024.646	809.559
43.169	18.986	1023.376	806.906
44.184	18.930	1023.058	806.321
45.199	19.038	1021.427	805.470
46.213	19.011	1020.149	804.265
47.228	18.979	1019.196	803.293
48.242	19.019	1018.427	802.803
49.257	19.163	1017.332	802.538
50.271	19.240	1016.620	802.262
51.286	19.270	1016.386	802.150
52.301	19.399	1015.076	801.641
53.315	19.302	1014.406	800.594
54.330	19.205	1013.629	799.457
55.344	19.221	1012.481	798.556
56.359	19.254	1011.650	797.982
57.374	19.362	1010.442	797.459
58.388	19.242	1009.669	796.223
59.403	19.109	1009.413	795.335
60.417	19.094	1008.378	794.381
61.432	18.971	1007.248	792.854
62.447	18.955	1006.868	792.412
63.461	19.131	1006.035	792.494
64.476	19.173	1005.066	791.857
65.490	19.185	1004.058	791.048
66.505	19.083	1003.411	789.998
67.520	18.973	1003.034	789.126
68.534	19.263	1001.458	789.146
69.549	19.058	1000.982	787.764
70.563	18.867	999.222	785.437
71.578	18.676	998.807	784.166
72.593	18.802	997.762	783.852
73.607	18.789	996.559	782.779
74.622	18.816	995.467	781.974
75.636	19.001	994.845	782.256
76.651	19.139	994.420	782.481
77.666	18.893	993.778	780.791
78.680	18.877	992.387	779.554
79.695	19.085	991.775	779.947
80.709	19.029	991.489	779.403
81.724	18.943	991.038	778.588
82.739	19.004	989.734	777.772
83.753	19.113	988.725	777.401
84.768	19.243	988.107	777.432
85.782	19.515	987.714	778.284
86.797	19.583	987.072	778.014
87.812	19.568	985.935	776.981
88.826	19.450	985.063	775.697
89.841	19.375	984.014	774.463
90.855	19.482	983.202	774.237
91.870	19.512	982.542	773.784
92.884	19.557	981.424	773.033
93.899	19.409	980.683	771.720
94.914	19.273	979.617	770.204
95.928	19.437	978.949	770.345
96.943	19.471	978.423	770.012
97.957	19.288	977.312	768.257
98.972	19.044	976.133	766.175
99.987	18.741	975.141	763.979
101.001	18.897	974.230	763.891
102.016	19.200	973.814	764.846
103.030	19.337	972.884	764.653
104.045	19.165	971.957	763.097
105.060	19.017	970.810	761.473
106.074	18.891	969.006	759.434
107.089	18.869	968.583	758.935
108.103	19.305	968.270	760.549
109.118	19.249	967.926	759.965
110.133	19.102	966.699	758.289
111.147	19.109	965.684	757.456
112.162	18.969	964.464	755.817
113.176	18.969	962.918	754.539
114.191	18.955	962.612	754.167
115.206	19.078	961.439	753.722
116.220	18.708	960.348	751.182
117.235	18.664	959.335	750.128
118.249	18.836	958.424	750.105
119.264	18.871	957.334	749.334
120.279	18.755	956.482	748.099
121.293	18.579	956.055	746.931
122.308	18.821	955.490	747.476
123.322	19.069	954.328	747.580
124.337	18.860	953.382	745.863
125.352	18.828	951.719	744.358
126.366	18.451	950.104	741.399
127.381	18.230	948.578	739.186
128.395	18.724	948.338	741.068
129.410	19.188	948.299	742.975
130.424	19.351	947.047	742.632
131.439	19.385	945.466	741.469
132.454	19.271	944.739	740.343
133.468	19.343	944.105	740.093
134.483	19.253	943.479	739.151
135.497	19.416	942.547	739.054
136.512	19.575	941.930	739.182
137.527	19.452	941.396	738.172
138.541	19.484	940.860	737.825
139.556	19.505	940.136	737.282
140.570	19.454	939.216	736.276
141.585	19.425	937.915	735.066
142.600	19.442	937.285	734.582
143.614	19.336	935.977	733.041
144.629	19.559	935.605	733.633
145.643	19.745	934.809	733.734
146.658	19.576	933.683	732.068
147.673	19.526	932.672	730.998
148.687	19.532	931.325	729.905
149.702	19.419	930.976	729.087
150.716	19.364	929.795	727.866
151.731	19.406	928.570	727.020
152.746	19.346	928.401	726.571
153.760	19.593	927.570	726.898
154.775	19.702	926.918	726.778
155.789	19.626	926.087	725.744
156.804	19.715	924.768	725.020
157.819	19.522	923.951	723.508
158.833	19.755	922.853	723.556
159.848	19.869	921.970	723.277
160.862	19.817	921.488	722.619
161.877	19.599	920.602	720.950
162.892	19.521	919.727	719.873
163.906	19.834	919.172	720.681
164.921	19.618	918.651	719.311
165.935	19.683	916.850	718.105
166.950	19.660	916.453	717.638
167.964	19.682	915.478	716.902
168.979	19.665	914.072	715.666
169.994	19.470	913.248	714.150
171.008	19.505	912.549	713.686
172.023	19.671	911.432	713.435
173.037	19.856	910.486	713.394
174.052	19.624	909.070	711.265
175.067	19.201	908.957	709.373
176.081	19.364	907.891	709.149
177.096	19.603	906.808	709.219
178.110	19.535	906.177	708.384
179.125	19.282	905.219	706.535
180.140	19.156	903.952	704.969
181.154	19.099	903.143	704.042
182.169	19.240	902.606	704.140
183.183	19.336	902.551	704.426
184.198	19.587	902.013	704.968
185.213	19.564	901.469	704.386
186.227	19.531	900.881	703.731
187.242	19.574	900.449	703.508
188.256	19.689	899.540	703.201
189.271	19.605	898.458	701.950
190.286	19.818	897.536	702.034
191.300	19.646	896.818	700.713
192.315	19.328	895.711	698.497
193.329	18.655	894.477	694.751
194.344	18.202	893.478	692.082
195.359	18.795	893.602	694.514
196.373	19.470	894.103	697.571
197.388	19.703	893.669	698.113
198.402	19.470	892.691	696.345
199.417	19.460	891.836	695.579
200.432	19.492	891.599	695.462
201.446	19.277	890.805	693.913
202.461	18.861	890.088	691.618
203.475	19.276	889.373	692.670
204.490	18.704	887.903	689.168
205.504	17.676	886.169	683.641
206.519	18.159	886.269	685.596
207.534	19.060	886.190	689.082
208.548	19.402	885.676	689.990
209.563	19.364	885.690	689.791
210.577	19.515	885.019	689.808
211.592	19.351	884.223	688.471
212.607	19.611	884.189	689.423
213.621	19.687	883.193	688.889
214.636	19.644	882.715	688.282
215.650	19.823	881.783	688.208
216.665	19.774	881.449	687.693
217.680	19.697	880.941	686.927
218.694	19.703	880.795	686.778
219.709	19.456	879.333	684.598
220.723	19.174	878.553	682.813
221.738	19.335	878.049	682.998
222.753	19.460	877.838	683.266
223.767	19.496	876.823	682.557
224.782	19.552	876.242	682.269
225.796	19.758	875.268	682.261
226.811	19.912	874.609	682.295
227.826	19.443	873.715	679.688
228.840	18.814	872.170	675.954
229.855	18.650	871.597	674.803
230.869	18.833	871.542	675.422
231.884	18.638	870.322	673.650
232.899	18.758	869.533	673.454
233.913	19.477	869.771	676.395
234.928	19.695	869.377	676.885
235.942	19.477	868.615	675.376
236.957	19.627	867.666	675.164
237.972	19.227	866.752	672.835
238.986	19.190	866.247	672.238
240.001	19.317	865.692	672.241
241.015	19.390	864.875	671.831
242.030	19.449	864.043	671.356
243.045	19.584	863.714	671.565
244.059	19.433	863.485	670.742
245.074	19.727	862.570	671.115
246.088	19.731	861.936	670.576
247.103	19.195	861.004	667.715
248.117	19.306	860.361	667.585
249.132	19.692	860.564	669.180
250.147	20.087	859.754	670.020
251.161	20.104	859.089	669.507
252.176	20.261	858.661	669.721
253.190	20.312	857.758	669.152
254.205	20.340	857.162	668.735
255.220	20.386	857.265	668.937
256.234	20.444	856.133	668.217
257.249	20.417	855.540	667.589
258.263	20.162	855.156	666.251
259.278	20.221	854.529	665.930
260.293	20.285	854.123	665.800
261.307	20.418	853.031	665.403
262.322	20.347	852.120	664.361
263.336	20.311	851.440	663.634
264.351	19.703	850.374	660.422
265.366	18.577	848.056	654.271
266.380	18.290	847.288	652.524
267.395	19.220	847.532	656.200
268.409	19.983	847.791	659.248
269.424	19.874	847.670	658.679
270.439	20.030	846.873	658.596
271.453	20.276	846.073	658.849
272.468	20.217	845.489	658.112
273.482	20.504	845.004	658.766
274.497	20.534	844.561	658.476
275.512	20.298	843.549	656.735
276.526	19.821	842.002	653.670
277.541	19.895	841.844	653.770
278.555	20.328	841.522	655.095
279.570	20.040	840.643	653.267
280.585	19.735	839.812	651.415
281.599	20.139	839.046	652.285
282.614	20.146	839.053	652.257
283.628	19.755	837.658	649.647
284.643	19.465	836.983	647.976
285.657	19.764	836.758	648.868
286.672	19.778	836.192	648.424
287.687	19.243	835.129	645.540
288.701	19.599	834.808	646.566
289.716	19.865	835.081	647.714
290.730	19.545	834.023	645.642
291.745	19.602	832.628	644.716
292.760	19.403	831.923	643.374
293.774	19.128	832.019	642.363
294.789	20.160	831.729	645.928
295.803	20.660	832.036	647.973
296.818	20.749	831.728	648.008
297.833	20.936	831.075	648.138
298.847	20.484	830.166	645.693
299.862	20.418	828.707	644.256
300.876	20.385	828.331	643.783
301.891	20.690	827.949	644.561
302.906	20.691	827.362	644.049
303.920	20.298	826.169	641.610
304.935	20.141	825.487	640.445
305.949	20.529	825.573	641.888
306.964	20.711	824.939	642.009
307.979	20.534	824.197	640.724
308.993	20.521	823.661	640.202
310.008	20.617	823.654	640.493
311.022	20.926	823.037	641.095
312.037	20.763	822.662	640.147
313.052	20.414	821.797	638.133
314.066	20.484	821.211	637.879
315.081	19.966	819.652	634.715
316.095	19.195	818.516	630.953
317.110	19.716	818.713	632.958
318.125	20.452	819.091	635.892
319.139	20.046	818.004	633.505
320.154	18.971	816.432	628.307
321.168	18.696	815.480	626.516
322.183	19.362	815.319	628.766
323.197	20.062	815.867	631.684
324.212	20.275	815.483	632.109
325.227	20.510	815.164	632.660
326.241	20.773	814.634	633.149
327.256	20.586	813.749	631.727
328.270	20.417	813.231	630.656
329.285	20.426	812.668	630.194
330.300	20.369	811.621	629.121
331.314	20.153	810.621	627.509
332.329	20.200	810.544	627.564
333.343	20.482	810.376	628.397
334.358	20.724	809.964	628.896
335.373	20.658	809.358	628.132
336.387	20.703	808.855	627.848
337.402	20.951	808.217	628.192
338.416	21.139	807.889	628.559
339.431	21.037	807.038	627.475
340.446	20.911	806.760	626.750
341.460	21.145	806.527	627.356
342.475	21.019	805.786	626.269
343.489	20.956	805.041	625.409
344.504	21.038	804.258	625.039
345.519	21.283	803.961	625.630
346.533	21.352	804.047	625.888
347.548	21.500	803.508	625.945
348.562	21.522	803.199	625.725
349.577	21.397	802.846	624.951
350.592	21.399	801.901	624.167
351.606	21.336	801.294	623.412
352.621	21.351	801.307	623.423
353.635	21.347	800.369	622.623
354.650	21.438	799.547	622.251
355.665	20.738	798.997	619.278
356.679	19.945	797.338	615.121
357.694	19.776	797.038	614.234
358.708	20.500	796.687	616.479
359.723	20.415	796.107	615.677
360.738	20.608	795.989	616.214
361.752	21.016	795.985	617.602
362.767	21.130	795.601	617.652
363.781	21.342	795.031	617.905
364.796	21.541	794.969	618.506
365.810	21.709	794.560	618.727
366.825	21.574	794.525	618.166
367.840	21.630	793.822	617.763
368.854	21.528	793.195	616.860
369.869	21.215	791.744	614.579
370.883	21.059	791.684	613.927
371.898	21.188	791.212	613.962
372.913	21.170	790.360	613.181
373.927	21.092	789.411	612.116
374.942	21.172	789.411	612.344
375.956	21.292	788.941	612.345
376.971	21.243	788.595	611.853
377.986	21.372	788.136	611.891
379.000	21.627	787.692	612.387
380.015	21.658	787.036	611.930
381.029	21.482	786.286	610.678
382.044	21.298	786.103	609.839
383.059	21.657	785.415	610.505
384.073	21.615	784.644	609.703
385.088	21.714	784.343	609.761
386.102	21.673	784.284	609.517
387.117	21.476	783.619	608.262
388.132	21.537	782.604	607.631
389.146	21.250	782.253	606.310
390.161	20.640	781.464	603.530
391.175	20.981	780.726	604.087
392.190	21.362	780.675	605.313
393.205	21.275	780.292	604.664
394.219	20.454	779.047	600.807
395.234	18.949	776.786	593.815
396.248	18.320	776.020	591.007
397.263	19.515	776.933	595.778
398.278	21.108	778.086	602.110
399.292	21.420	777.726	602.854
400.307	21.254	776.900	601.590
401.321	21.165	776.824	601.170
402.336	21.235	776.195	600.873
403.350	21.591	775.981	601.876
404.365	21.960	776.115	603.196
405.380	22.076	775.712	603.226
406.394	22.219	775.306	603.350
407.409	22.370	774.623	603.282
408.423	22.454	774.242	603.220
409.438	22.303	773.929	602.407
410.453	22.301	773.119	601.713
411.467	22.329	773.343	601.932
412.482	22.350	772.598	601.369
413.496	22.431	771.805	600.975
414.511	22.266	772.061	600.558
415.526	22.472	771.382	600.681
416.540	22.476	770.868	600.240
417.555	22.291	770.440	599.223
418.569	22.059	769.830	597.906
419.584	21.947	769.120	596.923
420.599	21.991	768.894	596.842
421.613	158.598	1361.296	1798.621
422.628	136.724	1447.600	1798.700
