DTS Sentinel unit serial number:	SN413079Multiplexer serial number:	ORYXHardware model number:	OX4-SRSoftware version number:	ORYX F/W v4.00 Oryx Data Collector v3.7.2.0data status	okinstallation	princeton_trtdifferential loss correction	single-endedforward channel	channel 3reverse channel	N/Adate	2019/09/10time	23:22:11forward acquisition time	60.00reverse acquisition time	0.00gamma	496.2192k internal	0.2331k external	0.2331temperature offset calibration	0.9918default loss term (dB/km)	0.3790temperature slope calibration	1.0000multiplexer offset coefficient	1.0000multiplexer slope coefficient	1.0000fibre end	0.00T internal ref (°C)	29.80T ext. ref 1 (°C)	-0.31T ext. ref 2 (°C)	23.20length (m)	temperature (°C)	Stokes	anti-Stokes-747.200	-90.023	-0.125	0.037
-746.185	800.000	-0.021	-0.086
-745.171	-200.000	-0.032	0.156
-744.156	146.315	-0.280	0.379
-743.142	-200.000	0.010	-0.200
-742.127	-62.309	-0.314	-0.131
-741.112	-133.834	-0.182	0.023
-740.098	36.128	-0.083	0.073
-739.083	-85.773	-0.471	0.147
-738.069	410.747	-0.083	-0.177
-737.054	-200.000	0.050	-0.257
-736.039	-104.397	-0.058	0.013
-735.025	-6.174	0.271	-0.186
-734.010	79.373	-0.354	-0.382
-732.996	-200.000	0.031	-0.378
-731.981	156.141	-0.102	-0.141
-730.966	-200.000	0.035	0.165
-729.952	-200.000	-0.062	-0.358
-728.937	-88.964	-0.392	0.117
-727.923	-18.502	-0.079	-0.050
-726.908	-185.061	0.146	-0.002
-725.894	-30.637	0.142	0.081
-724.879	48.009	0.174	0.164
-723.864	800.000	-0.030	-0.086
-722.850	-200.000	0.001	-0.108
-721.835	-200.000	-0.013	-0.076
-720.821	11.013	-0.375	-0.288
-719.806	-101.700	-0.358	-0.087
-718.791	-114.162	-0.317	0.062
-717.777	800.000	0.059	-0.177
-716.762	-3.825	0.118	-0.082
-715.748	-127.366	-0.150	0.022
-714.733	-200.000	-0.007	-0.153
-713.718	92.376	0.116	-0.132
-712.704	401.095	0.063	-0.132
-711.689	-59.733	-0.435	-0.188
-710.675	-150.588	-0.248	0.019
-709.660	800.000	-0.031	-0.092
-708.645	-138.306	-0.049	-0.005
-707.631	222.328	-0.177	-0.286
-706.616	-129.935	0.326	0.045
-705.602	548.743	0.105	0.253
-704.587	-1.127	-0.241	0.171
-703.572	167.651	-0.205	-0.292
-702.558	-36.884	-0.025	-0.013
-701.543	437.274	0.109	0.240
-700.529	-10.681	0.267	0.178
-699.514	167.635	-0.033	-0.047
-698.499	11.217	-0.073	-0.056
-697.485	800.000	-0.071	0.252
-696.470	342.589	-0.046	0.091
-695.456	-107.019	0.167	0.037
-694.441	-156.020	-0.087	-0.006
-693.426	487.559	0.117	-0.268
-692.412	-200.000	-0.004	0.141
-691.397	171.676	-0.065	-0.094
-690.383	-34.753	-0.235	-0.129
-689.368	800.000	-0.128	-0.411
-688.354	-111.114	0.210	0.043
-687.339	800.000	-0.037	0.151
-686.324	-200.000	-0.013	0.149
-685.310	-16.932	0.114	0.073
-684.295	-3.798	-0.184	0.128
-683.281	-193.715	0.093	-0.001
-682.266	-200.000	-0.021	-0.116
-681.251	-82.634	-0.160	0.052
-680.237	-54.170	-0.292	0.133
-679.222	-104.098	0.051	0.012
-678.208	-200.000	-0.004	-0.092
-677.193	-200.000	-0.003	-0.110
-676.178	-158.326	0.027	0.002
-675.164	286.392	0.151	0.274
-674.149	53.192	-0.359	0.345
-673.135	647.299	0.110	0.283
-672.120	-200.000	0.005	0.253
-671.105	143.261	-0.214	-0.285
-670.091	-5.559	-0.101	0.070
-669.076	-200.000	0.015	0.114
-668.062	800.000	0.025	-0.101
-667.047	75.007	0.031	0.032
-666.032	800.000	-0.093	0.324
-665.018	215.932	-0.231	0.369
-664.003	800.000	0.020	0.061
-662.989	-114.357	0.269	-0.052
-661.974	92.843	-0.066	-0.075
-660.959	255.103	-0.132	-0.227
-659.945	-200.000	0.005	0.105
-658.930	-200.000	0.027	-0.170
-657.916	85.302	0.246	-0.271
-656.901	-200.000	0.007	-0.234
-655.886	252.523	-0.101	-0.173
-654.872	-10.329	0.128	0.085
-653.857	-118.224	0.318	0.057
-652.843	281.469	0.285	-0.512
-651.828	-1.886	-0.035	0.025
-650.814	-92.152	-0.093	0.026
-649.799	374.707	0.120	-0.245
-648.784	19.311	-0.240	0.193
-647.770	248.303	-0.066	0.111
-646.755	290.285	-0.254	0.462
-645.741	-79.537	-0.372	-0.126
-644.726	-44.689	0.247	-0.123
-643.711	158.893	-0.109	-0.152
-642.697	-38.370	-0.112	0.059
-641.682	-91.415	0.143	0.041
-640.668	40.582	0.049	0.045
-639.653	168.167	-0.109	0.156
-638.638	-22.744	-0.414	0.251
-637.624	-87.241	0.059	0.018
-636.609	383.377	-0.084	0.174
-635.595	-32.357	-0.112	-0.062
-634.580	-200.000	0.009	0.264
-633.565	-200.000	-0.003	0.326
-632.551	-52.118	0.155	-0.072
-631.536	118.542	-0.110	0.137
-630.522	800.000	-0.045	0.161
-629.507	-37.436	-0.277	0.148
-628.492	-64.516	-0.113	-0.046
-627.478	-200.000	0.003	0.107
-626.463	-39.511	0.113	-0.059
-625.449	-17.816	0.175	-0.110
-624.434	-134.799	-0.441	-0.054
-623.419	-200.000	0.026	0.214
-622.405	-167.815	-0.209	0.008
-621.390	-115.926	-0.283	0.053
-620.376	14.725	0.101	0.079
-619.361	-31.787	0.136	0.076
-618.346	-69.324	0.298	-0.115
-617.332	40.907	0.251	0.227
-616.317	14.262	0.064	-0.050
-615.303	800.000	-0.042	0.135
-614.288	372.528	-0.043	-0.088
-613.273	399.862	0.164	-0.345
-612.259	-85.374	-0.542	-0.169
-611.244	-135.111	-0.283	-0.034
-610.230	144.630	0.121	0.162
-609.215	-185.121	0.280	-0.004
-608.201	-200.000	-0.373	-0.001
-607.186	641.554	-0.036	0.091
-606.171	201.150	0.051	-0.079
-605.157	-17.779	-0.177	0.111
-604.142	800.000	0.034	0.107
-603.128	39.578	0.074	-0.067
-602.113	-200.000	0.037	0.180
-601.098	-177.645	0.254	-0.006
-600.084	-200.000	0.005	0.051
-599.069	800.000	-0.043	-0.174
-598.055	-113.651	0.122	-0.024
-597.040	95.258	0.042	-0.048
-596.025	227.698	-0.023	0.037
-595.011	800.000	0.182	-0.507
-593.996	358.862	0.096	-0.193
-592.982	-20.491	0.215	0.132
-591.967	14.235	0.113	0.088
-590.952	-120.261	-0.047	0.008
-589.938	-158.079	0.094	-0.006
-588.923	800.000	-0.016	0.049
-587.909	304.504	0.032	-0.060
-586.894	-97.192	0.376	0.098
-585.879	-73.354	-0.259	0.095
-584.865	357.914	-0.021	0.041
-583.850	178.739	0.073	-0.107
-582.836	74.376	0.226	-0.237
-581.821	16.215	0.333	-0.263
-580.806	-75.161	-0.438	-0.157
-579.792	127.484	0.098	-0.124
-578.777	91.788	0.220	-0.248
-577.763	-39.886	0.270	0.141
-576.748	-50.476	0.195	0.092
-575.733	800.000	-0.084	0.347
-574.719	-163.393	-0.129	0.006
-573.704	246.637	-0.157	-0.265
-572.690	109.004	-0.225	-0.269
-571.675	96.687	-0.165	0.189
-570.661	47.682	0.107	-0.100
-569.646	-200.000	0.041	0.205
-568.631	31.963	-0.113	-0.097
-567.617	-200.000	-0.006	0.177
-566.602	82.985	-0.096	-0.105
-565.588	-200.000	-0.010	0.159
-564.573	-200.000	0.018	0.291
-563.558	-200.000	0.476	-0.002
-562.544	19.369	-0.270	-0.217
-561.529	-128.765	-0.154	-0.022
-560.515	-200.000	-0.001	0.032
-559.500	517.850	-0.097	-0.228
-558.485	401.638	0.038	-0.081
-557.471	287.867	0.081	-0.146
-556.456	324.030	0.197	-0.376
-555.442	408.018	-0.065	0.137
-554.427	261.654	-0.120	0.207
-553.412	-200.000	-0.053	-0.400
-552.398	-200.000	0.014	-0.251
-551.383	245.483	-0.086	0.144
-550.369	-115.161	0.483	0.091
-549.354	109.031	-0.055	-0.066
-548.339	53.339	-0.137	-0.131
-547.325	22.736	-0.429	-0.351
-546.310	800.000	0.051	0.159
-545.296	-32.682	0.038	0.021
-544.281	-180.575	0.256	0.005
-543.266	59.827	0.152	-0.150
-542.252	-150.599	0.221	0.017
-541.237	-164.510	0.253	-0.011
-540.223	-128.215	-0.289	0.041
-539.208	-134.294	-0.171	0.021
-538.193	-83.330	0.212	0.068
-537.179	80.240	0.227	0.244
-536.164	170.222	-0.064	0.092
-535.150	5.212	0.101	0.074
-534.135	-106.116	0.296	-0.066
-533.121	-73.969	0.122	0.044
-532.106	-200.000	-0.095	-0.504
-531.091	-72.383	-0.334	0.123
-530.077	-49.755	-0.090	0.043
-529.062	-200.000	-0.036	-0.238
-528.048	-39.635	0.067	-0.035
-527.033	800.000	0.032	-0.105
-526.018	286.575	-0.223	0.401
-525.004	-86.025	-0.230	-0.071
-523.989	-55.313	0.277	-0.124
-522.975	194.257	-0.170	0.257
-521.960	23.968	0.255	-0.210
-520.945	-200.000	0.009	-0.065
-519.931	52.128	0.363	0.346
-518.916	-200.000	-0.027	-0.318
-517.902	-162.641	0.183	0.009
-516.887	-19.910	-0.162	-0.100
-515.872	15.863	-0.098	-0.077
-514.858	-200.000	-0.053	0.432
-513.843	800.000	0.105	0.320
-512.829	-121.146	0.092	-0.015
-511.814	-109.241	-0.009	-0.002
-510.799	301.565	0.154	0.284
-509.785	464.543	-0.102	-0.227
-508.770	30.345	-0.105	0.089
-507.756	28.787	-0.188	0.158
-506.741	226.081	-0.214	-0.346
-505.726	366.411	0.046	0.092
-504.712	-200.000	-0.012	-0.068
-503.697	800.000	0.090	0.256
-502.683	734.530	0.161	0.429
-501.668	-65.739	-0.093	-0.037
-500.653	20.574	-0.171	-0.138
-499.639	188.312	0.032	0.047
-498.624	-55.616	0.139	0.062
-497.610	-121.628	-0.246	-0.041
-496.595	11.015	-0.032	0.024
-495.581	-79.420	-0.255	-0.086
-494.566	118.532	0.176	-0.217
-493.551	-54.550	0.120	-0.054
-492.537	113.923	-0.231	-0.279
-491.522	-80.869	-0.318	-0.105
-490.508	22.827	-0.178	0.146
-489.493	195.108	0.208	0.315
-488.478	-108.486	-0.105	0.022
-487.464	140.251	0.075	-0.098
-486.449	85.297	0.131	0.143
-485.435	-138.360	-0.200	-0.022
-484.420	-66.203	0.233	0.093
-483.405	180.135	-0.081	0.119
-482.391	800.000	0.067	-0.258
-481.376	-200.000	0.013	0.198
-480.362	21.319	-0.108	0.087
-479.347	-80.650	-0.167	-0.055
-478.332	-133.746	0.217	0.027
-477.318	216.119	-0.100	-0.159
-476.303	-200.000	-0.021	-0.233
-475.289	-76.238	0.315	0.111
-474.274	11.793	-0.181	-0.138
-473.259	-104.757	0.117	-0.027
-472.245	420.551	-0.054	-0.116
-471.230	800.000	0.102	-0.283
-470.216	56.195	-0.429	0.415
-469.201	623.507	-0.045	-0.113
-468.186	-35.498	-0.335	-0.181
-467.172	-200.000	0.021	0.278
-466.157	-200.000	0.063	0.428
-465.143	-200.000	-0.043	0.234
-464.128	213.252	-0.058	0.091
-463.113	59.258	-0.176	-0.173
-462.099	-82.497	-0.116	0.038
-461.084	19.461	0.088	0.070
-460.070	480.618	-0.162	0.367
-459.055	-200.000	-0.005	0.148
-458.040	29.260	-0.092	0.078
-457.026	-200.000	-0.007	-0.146
-456.011	-120.135	0.274	0.047
-454.997	-107.343	0.417	0.091
-453.982	800.000	-0.036	0.108
-452.968	23.281	0.178	0.146
-451.953	-25.109	-0.082	-0.049
-450.938	66.901	0.330	0.335
-449.924	-131.396	0.342	0.045
-448.909	-200.000	0.012	-0.068
-447.895	156.002	-0.061	0.084
-446.880	36.674	0.212	0.186
-445.865	-200.000	0.013	-0.087
-444.851	162.776	0.156	-0.218
-443.836	-72.476	0.143	-0.053
-442.822	-161.661	0.296	0.015
-441.807	465.684	0.057	-0.128
-440.792	3.965	0.094	-0.068
-439.778	40.879	-0.147	-0.132
-438.763	306.555	-0.139	-0.258
-437.749	-96.744	-0.180	-0.047
-436.734	106.359	0.171	-0.201
-435.719	800.000	0.075	0.303
-434.705	-122.163	0.129	-0.021
-433.690	-74.680	0.286	0.102
-432.676	641.284	-0.042	0.106
-431.661	800.000	0.019	-0.073
-430.646	265.250	-0.187	0.324
-429.632	19.809	0.267	-0.214
-428.617	3.752	0.144	0.105
-427.603	-200.000	-0.001	0.283
-426.588	-200.000	0.022	-0.156
-425.573	-200.000	-0.019	-0.321
-424.559	-22.744	-0.224	0.134
-423.544	-41.344	-0.115	-0.059
-422.530	236.057	-0.052	0.086
-421.515	-200.000	-0.035	0.203
-420.500	-68.873	-0.349	-0.134
-419.486	-159.592	0.243	-0.013
-418.471	-12.140	-0.142	0.093
-417.457	800.000	-0.013	-0.055
-416.442	-45.956	-0.308	0.151
-415.428	-137.311	-0.084	0.009
-414.413	-28.842	0.194	0.111
-413.398	-88.617	0.103	0.030
-412.384	800.000	0.106	-0.388
-411.369	423.714	0.040	-0.085
-410.355	222.742	-0.121	-0.193
-409.340	-200.000	-0.056	-0.297
-408.325	-200.000	-0.018	0.144
-407.311	491.796	0.084	0.191
-406.296	-3.263	0.142	0.099
-405.282	127.823	-0.068	-0.086
-404.267	-200.000	0.003	0.232
-403.252	76.220	0.123	0.130
-402.238	800.000	0.026	-0.077
-401.223	291.437	0.076	0.137
-400.209	-147.809	0.267	0.022
-399.194	-200.000	0.002	-0.110
-398.179	800.000	-0.035	-0.104
-397.165	-200.000	-0.019	0.152
-396.150	38.351	-0.400	-0.354
-395.136	-118.318	-0.232	0.041
-394.121	-38.226	-0.150	-0.079
-393.106	-7.125	-0.055	0.037
-392.092	800.000	0.066	-0.204
-391.077	440.620	-0.101	-0.220
-390.063	136.936	-0.168	0.217
-389.048	-200.000	-0.038	0.366
-388.033	800.000	-0.045	0.139
-387.019	-26.372	-0.057	0.033
-386.004	-50.857	-0.192	-0.090
-384.990	55.591	0.147	-0.141
-383.975	800.000	-0.051	0.181
-382.960	60.443	-0.284	-0.279
-381.946	84.490	0.150	-0.163
-380.931	50.635	-0.060	-0.057
-379.917	-142.550	-0.074	0.007
-378.902	-167.601	0.277	0.011
-377.888	179.602	-0.132	-0.192
-376.873	-102.532	0.227	0.054
-375.858	354.789	-0.206	-0.406
-374.844	170.612	0.267	-0.379
-373.829	102.265	0.139	-0.161
-372.815	728.889	0.028	-0.073
-371.800	39.940	-0.283	-0.252
-370.785	800.000	0.044	-0.139
-369.771	-41.035	0.232	0.119
-368.756	-28.752	0.373	-0.213
-367.742	268.338	0.170	-0.295
-366.727	139.651	0.113	-0.148
-365.712	115.101	-0.198	0.239
-364.698	26.742	-0.140	0.117
-363.683	800.000	-0.142	0.393
-362.669	119.754	-0.092	0.114
-361.654	800.000	0.015	-0.056
-360.639	-74.182	0.195	-0.070
-359.625	-159.497	-0.219	-0.012
-358.610	800.000	-0.127	0.416
-357.596	225.344	0.187	0.299
-356.581	-39.524	-0.221	-0.115
-355.566	-200.000	-0.023	-0.223
-354.552	800.000	-0.219	-0.728
-353.537	-133.697	-0.009	-0.001
-352.523	800.000	-0.047	0.158
-351.508	60.930	-0.209	0.205
-350.493	-131.637	-0.336	-0.044
-349.479	469.257	-0.081	0.179
-348.464	151.810	-0.250	0.338
-347.450	-108.345	0.420	-0.090
-346.435	-200.000	-0.019	-0.336
-345.420	-130.303	0.046	0.006
-344.406	363.883	0.098	0.195
-343.391	28.165	-0.153	0.128
-342.377	-125.590	-0.405	-0.061
-341.362	-39.062	-0.091	-0.048
-340.348	14.763	0.125	0.097
-339.333	-16.326	-0.376	0.236
-338.318	220.715	0.153	0.243
-337.304	-127.835	-0.126	0.018
-336.289	-121.072	-0.181	-0.030
-335.275	800.000	0.060	0.226
-334.260	127.527	0.129	-0.162
-333.245	-55.730	0.123	0.055
-332.231	-62.105	0.200	-0.083
-331.216	-63.038	0.206	-0.084
-330.202	-200.000	-0.005	-0.141
-329.187	-62.501	-0.160	-0.066
-328.172	202.377	0.061	-0.093
-327.158	-92.621	-0.411	-0.114
-326.143	86.685	0.323	-0.353
-325.129	474.553	0.033	0.074
-324.114	800.000	-0.020	0.077
-323.099	-200.000	-0.028	-0.300
-322.085	129.967	0.067	0.085
-321.070	-200.000	-0.003	-0.091
-320.056	800.000	0.068	-0.224
-319.041	164.682	-0.156	-0.218
-318.026	-136.839	-0.144	0.016
-317.012	84.424	-0.220	0.238
-315.997	258.995	-0.121	-0.207
-314.983	-97.917	0.055	-0.014
-313.968	-100.911	-0.253	0.061
-312.953	170.376	-0.152	0.215
-311.939	-200.000	-0.024	-0.212
-310.924	46.858	0.084	-0.077
-309.910	800.000	0.104	0.431
-308.895	13.980	0.089	-0.069
-307.880	800.000	-0.051	-0.187
-306.866	-200.000	-0.026	0.399
-305.851	-200.000	-0.026	0.400
-304.837	185.889	-0.144	0.212
-303.822	633.820	-0.025	0.062
-302.807	800.000	-0.055	0.233
-301.793	-200.000	0.007	-0.404
-300.778	-35.615	-0.188	0.101
-299.764	-140.682	0.093	-0.010
-298.749	-200.000	-0.024	-0.233
-297.735	132.020	0.100	0.128
-296.720	-200.000	-0.018	-0.080
-295.705	10.353	0.268	0.201
-294.691	195.622	0.023	-0.034
-293.676	136.547	-0.055	-0.071
-292.662	-31.562	-0.035	-0.019
-291.647	-200.000	-0.005	-0.089
-290.632	371.898	0.131	-0.263
-289.618	367.217	0.052	-0.105
-288.603	-71.035	-0.098	0.036
-287.589	58.765	0.229	0.223
-286.574	115.586	0.132	0.159
-285.559	-105.150	-0.147	0.033
-284.545	-38.913	0.029	-0.015
-283.530	3.346	0.213	0.154
-282.516	681.397	-0.023	-0.059
-281.501	-88.845	-0.205	0.060
-280.486	556.514	-0.085	-0.203
-279.472	25.482	0.042	-0.035
-278.457	-8.400	0.265	-0.176
-277.443	191.526	-0.228	-0.340
-276.428	-75.460	0.311	-0.110
-275.413	136.502	-0.042	0.055
-274.399	73.138	-0.187	-0.193
-273.384	60.462	0.085	-0.084
-272.370	368.048	0.202	-0.403
-271.355	410.981	0.140	-0.293
-270.340	800.000	0.110	0.373
-269.326	56.676	0.311	-0.299
-268.311	-169.469	0.113	0.004
-267.297	-116.555	0.012	-0.002
-266.282	-69.936	0.040	-0.015
-265.267	-108.679	0.297	0.063
-264.253	800.000	0.019	-0.083
-263.238	-137.276	-0.443	0.050
-262.224	-200.000	-0.051	0.228
-261.209	-41.445	0.230	-0.117
-260.195	523.566	0.101	0.234
-259.180	-200.000	-0.005	0.049
-258.165	-65.846	-0.022	0.009
-257.151	-200.000	-0.031	-0.310
-256.136	91.982	-0.235	-0.261
-255.122	167.442	0.017	-0.025
-254.107	-172.185	0.268	0.009
-253.092	-3.514	0.086	0.059
-252.078	-200.000	-0.060	0.597
-251.063	-200.000	0.024	-0.284
-250.049	-161.701	-0.281	-0.014
-249.034	-1.093	-0.140	0.098
-248.019	-116.672	0.262	0.048
-247.005	-66.517	0.195	-0.076
-245.990	-33.050	-0.328	0.179
-244.976	-200.000	-0.002	-0.174
-243.961	-200.000	0.001	0.504
-242.946	-200.000	0.031	-0.350
-241.932	800.000	-0.123	0.360
-240.917	350.083	0.134	0.262
-239.903	19.305	0.084	-0.067
-238.888	209.878	-0.084	0.130
-237.873	-49.983	0.381	0.178
-236.859	269.662	-0.125	0.216
-235.844	-196.327	-0.362	-0.002
-234.830	39.028	0.111	-0.098
-233.815	-126.842	-0.338	-0.049
-232.800	71.238	0.041	-0.042
-231.786	800.000	0.175	-0.526
-230.771	-200.000	-0.102	-0.564
-229.757	-38.728	0.174	-0.091
-228.742	-10.490	0.085	0.056
-227.727	-200.000	0.030	-0.191
-226.713	-105.924	-0.359	0.080
-225.698	-200.000	0.007	-0.033
-224.684	38.572	0.256	0.226
-223.669	-11.857	-0.241	0.156
-222.655	800.000	-0.124	0.427
-221.640	-74.301	-0.227	0.081
-220.625	-67.761	0.054	-0.021
-219.611	-155.982	0.421	0.026
-218.596	800.000	-0.063	0.198
-217.582	-98.888	0.234	-0.059
-216.567	-102.330	-0.301	0.071
-215.552	596.288	0.031	-0.077
-214.538	68.696	-0.080	-0.081
-213.523	-9.123	-0.297	-0.196
-212.509	-200.000	0.068	-0.315
-211.494	-200.000	-0.027	0.175
-210.479	-38.958	0.072	0.037
-209.465	-40.169	0.228	0.117
-208.450	-60.743	-0.110	0.046
-207.436	-48.689	-0.209	0.099
-206.421	42.732	-0.228	0.205
-205.406	52.854	0.128	0.120
-204.392	268.844	0.162	0.280
-203.377	-98.996	-0.362	-0.091
-202.363	151.930	-0.055	0.075
-201.348	-147.997	-0.477	-0.039
-200.333	407.709	-0.010	0.020
-199.319	66.793	-0.187	-0.188
-198.304	-11.263	0.126	0.082
-197.290	-54.239	-0.279	-0.125
-196.275	-72.754	0.146	-0.053
-195.260	-164.610	0.351	-0.016
-194.246	-26.141	-0.234	-0.136
-193.231	119.276	-0.140	0.171
-192.217	-45.564	0.362	-0.177
-191.202	-12.919	0.186	-0.119
-190.187	-126.446	-0.299	0.044
-189.173	299.552	-0.009	0.017
-188.158	-168.794	-0.114	0.004
-187.144	800.000	0.075	-0.256
-186.129	-81.559	0.143	0.046
-185.114	170.237	0.059	-0.083
-184.100	-82.995	0.146	0.046
-183.085	152.867	0.052	0.070
-182.071	24.470	0.190	0.155
-181.056	34.639	0.191	0.164
-180.042	77.826	-0.065	0.068
-179.027	-200.000	-0.332	0.001
-178.012	-70.502	-0.066	0.025
-176.998	-130.500	0.290	-0.039
-175.983	-87.919	0.075	0.022
-174.969	73.594	0.084	-0.087
-173.954	800.000	-0.028	0.091
-172.939	-200.000	0.056	-0.246
-171.925	484.096	0.112	0.251
-170.910	538.078	-0.074	0.172
-169.896	-117.904	0.365	0.064
-168.881	-75.544	-0.046	-0.016
-167.866	800.000	0.082	0.284
-166.852	800.000	-0.054	-0.170
-165.837	-8.865	-0.036	0.024
-164.823	-31.081	-0.253	-0.141
-163.808	-121.878	0.136	-0.022
-162.793	8.160	0.421	0.311
-161.779	-143.243	0.245	-0.023
-160.764	800.000	-0.126	-0.409
-159.750	73.193	0.375	-0.386
-158.735	-88.573	0.333	0.098
-157.720	800.000	-0.157	-0.431
-156.706	-105.301	0.121	0.027
-155.691	-38.609	0.100	0.052
-154.677	32.627	0.157	0.134
-153.662	-88.043	0.284	0.084
-152.647	-31.655	-0.133	-0.073
-151.633	-55.542	-0.233	0.103
-150.618	153.869	0.120	0.161
-149.604	-88.162	-0.253	-0.075
-148.589	-200.000	0.050	-0.229
-147.574	800.000	0.059	-0.167
-146.560	-158.606	-0.268	0.015
-145.545	80.414	-0.130	0.138
-144.531	304.371	-0.076	0.139
-143.516	140.633	-0.011	0.014
-142.502	-61.387	-0.236	-0.098
-141.487	-50.643	-0.147	-0.068
-140.472	-20.643	0.165	-0.099
-139.458	-103.250	-0.117	0.027
-138.443	-123.108	-0.225	-0.036
-137.429	-54.003	0.202	-0.090
-136.414	15.832	0.200	0.155
-135.399	460.967	-0.011	-0.024
-134.385	-34.240	0.050	0.027
-133.370	4.851	0.085	0.061
-132.356	20.926	0.110	0.087
-131.341	-200.000	-0.038	0.209
-130.326	-110.112	0.152	-0.031
-129.312	-116.862	-0.037	0.007
-128.297	193.164	0.051	0.076
-127.283	-186.081	0.099	0.001
-126.268	-130.997	-0.149	0.019
-125.253	649.291	0.084	-0.211
-124.239	-200.000	-0.156	-0.000
-123.224	336.096	-0.070	0.134
-122.210	677.418	-0.089	-0.227
-121.195	-92.341	0.331	0.091
-120.180	800.000	0.034	-0.132
-119.166	-112.485	-0.139	-0.027
-118.151	83.818	-0.208	0.223
-117.137	-200.000	0.016	-0.072
-116.122	-200.000	-0.030	-0.219
-115.107	-200.000	0.028	0.221
-114.093	-11.147	-0.222	-0.144
-113.078	-200.000	0.020	0.189
-112.064	-158.807	0.118	-0.007
-111.049	-200.000	0.012	0.512
-110.034	-82.200	-0.128	0.041
-109.020	-58.370	-0.315	0.134
-108.005	-200.000	0.014	-0.111
-106.991	224.230	-0.174	0.276
-105.976	800.000	0.159	0.495
-104.962	238.418	0.170	0.277
-103.947	-200.000	-0.021	-0.223
-102.932	800.000	0.094	-0.352
-101.918	-111.221	-0.069	-0.014
-100.903	-112.705	-0.337	-0.066
-99.889	-11.904	-0.119	0.076
-98.874	-46.109	0.085	-0.041
-97.859	-3.009	-0.254	0.174
-96.845	-43.637	0.238	0.118
-95.830	-30.075	0.243	-0.136
-94.816	30.614	-0.253	-0.212
-93.801	-124.453	-0.463	0.071
-92.786	52.425	0.164	-0.154
-91.772	-154.470	0.130	-0.009
-90.757	-170.409	-0.508	0.017
-89.743	276.874	-0.198	0.345
-88.728	-35.862	-0.281	-0.149
-87.713	-76.192	0.056	0.019
-86.699	42.765	-0.239	0.213
-85.684	-144.517	-0.265	0.024
-84.670	-200.000	-0.020	0.106
-83.655	-27.939	0.302	0.172
-82.640	800.000	-0.137	-0.560
-81.626	250.010	0.179	-0.297
-80.611	7.557	-0.468	0.344
-79.597	-29.475	0.227	0.127
-78.582	-200.000	-0.072	0.314
-77.567	17.666	0.074	-0.058
-76.553	-200.000	-0.054	0.323
-75.538	-91.534	-0.233	0.065
-74.524	61.770	0.260	-0.254
-73.509	400.060	-0.074	-0.151
-72.494	-111.126	-0.376	0.075
-71.480	-128.292	0.338	0.047
-70.465	-200.000	-0.034	0.277
-69.451	800.000	-0.041	-0.131
-68.436	118.044	-0.169	0.205
-67.422	91.173	0.180	0.198
-66.407	399.205	-0.087	-0.179
-65.392	-97.202	-0.340	-0.087
-64.378	-11.492	0.107	-0.069
-63.363	-200.000	-0.009	0.110
-62.349	54.585	0.237	0.223
-61.334	86.242	-0.782	-0.844
-60.319	1.645	0.838	0.591
-59.305	-200.000	0.203	-0.953
-58.290	566.112	0.652	1.551
-57.276	204.204	0.889	1.349
-56.261	-200.000	105.173	617.060
-55.246	519.032	1496.676	3434.065
-54.232	178.256	2689.120	3845.071
-53.217	112.074	2175.955	2575.771
-52.203	40.458	1696.337	1496.242
-51.188	32.899	1507.112	1278.337
-50.173	30.471	1480.280	1239.353
-49.159	51.678	1535.782	1430.546
-48.144	52.024	1552.359	1448.285
-47.130	33.121	1508.805	1281.069
-46.115	30.164	1493.245	1247.942
-45.100	29.985	1489.447	1243.514
-44.086	29.792	1488.651	1241.507
-43.071	29.789	1485.929	1239.169
-42.057	29.722	1484.676	1237.628
-41.042	29.742	1482.901	1236.232
-40.027	29.761	1481.693	1235.298
-39.013	29.768	1480.025	1233.909
-37.998	29.606	1479.158	1232.054
-36.984	29.769	1477.527	1231.733
-35.969	29.653	1476.672	1230.203
-34.954	29.772	1474.804	1229.383
-33.940	29.745	1473.352	1227.949
-32.925	29.833	1472.002	1227.359
-31.911	29.882	1470.454	1226.344
-30.896	29.844	1469.507	1225.253
-29.881	29.812	1468.395	1224.063
-28.867	29.835	1466.812	1222.847
-27.852	29.862	1465.914	1222.232
-26.838	29.899	1464.004	1220.835
-25.823	29.922	1462.353	1219.559
-24.809	29.860	1460.804	1217.813
-23.794	29.845	1459.457	1216.542
-22.779	29.891	1458.109	1215.670
-21.765	29.878	1457.363	1214.919
-20.750	29.870	1456.622	1214.201
-19.736	29.721	1455.912	1212.583
-18.721	29.799	1454.117	1211.546
-17.706	29.823	1452.971	1210.706
-16.692	29.797	1452.093	1209.755
-15.677	29.838	1451.251	1209.272
-14.663	29.818	1450.247	1208.256
-13.648	29.776	1449.112	1206.986
-12.633	29.759	1448.109	1205.995
-11.619	29.781	1447.463	1205.552
-10.604	29.733	1446.317	1204.237
-9.590	29.772	1445.679	1203.910
-8.575	29.795	1444.891	1203.359
-7.560	29.807	1443.749	1202.434
-6.546	29.822	1442.681	1201.594
-5.531	29.740	1442.416	1200.796
-4.517	29.610	1441.783	1199.377
-3.502	29.780	1440.326	1199.222
-2.487	29.774	1439.102	1198.117
-1.473	29.809	1437.894	1197.291
-0.458	29.719	1436.650	1195.626
0.556	27.492	1427.300	1184.985
1.571	24.477	1402.143	1144.692
2.586	20.893	1342.254	1073.661
3.600	19.245	1261.523	999.445
4.615	18.169	1216.377	957.571
5.629	15.589	1161.988	900.857
6.644	7.573	1079.023	796.409
7.659	0.825	1039.261	734.314
8.673	-0.234	1033.788	725.267
9.688	-0.208	1030.474	723.005
10.702	-0.371	1029.134	721.215
11.717	-0.426	1027.130	719.482
12.731	2.552	1030.203	735.895
13.746	11.114	1042.808	786.325
14.761	18.109	1051.490	826.745
15.775	19.673	1052.175	834.773
16.790	19.884	1052.053	835.619
17.804	19.535	1051.475	833.404
18.819	19.373	1050.568	831.830
19.834	19.506	1049.955	831.912
20.848	19.652	1049.161	831.909
21.863	19.502	1049.295	831.219
22.877	19.592	1048.751	831.150
23.892	19.638	1047.461	830.277
24.907	19.523	1046.798	829.123
25.921	19.537	1046.109	828.573
26.936	19.616	1045.681	828.538
27.950	19.540	1044.480	827.149
28.965	19.467	1043.250	825.751
29.980	19.390	1041.703	824.088
30.994	19.325	1040.162	822.484
32.009	19.547	1039.342	822.823
33.023	19.724	1038.862	823.212
34.038	19.612	1037.197	821.290
35.053	19.436	1036.814	820.074
36.067	19.666	1036.032	820.478
37.082	19.724	1035.117	819.954
38.096	19.586	1034.810	818.984
39.111	19.934	1033.667	819.653
40.126	19.969	1032.879	819.124
41.140	19.893	1031.489	817.589
42.155	19.611	1030.089	815.079
43.169	19.331	1028.892	812.738
44.184	19.454	1027.261	811.956
45.199	19.348	1026.482	810.774
46.213	19.198	1025.818	809.471
47.228	19.238	1024.297	808.388
48.242	19.490	1023.522	808.883
49.257	19.560	1022.386	808.243
50.271	19.639	1021.431	807.787
51.286	19.596	1021.197	807.328
52.301	19.785	1020.015	807.202
53.315	19.665	1019.300	806.006
54.330	19.655	1018.687	805.404
55.344	19.509	1018.011	804.121
56.359	19.603	1017.277	803.908
57.374	19.613	1016.161	802.997
58.388	19.537	1014.914	801.591
59.403	19.426	1013.960	800.252
60.417	19.522	1013.190	800.018
61.432	19.370	1012.650	798.815
62.447	19.487	1011.662	798.507
63.461	19.413	1011.159	797.696
64.476	19.529	1010.051	797.290
65.490	19.474	1009.090	796.208
66.505	19.447	1008.195	795.305
67.520	19.390	1007.890	794.731
68.534	19.573	1006.979	794.784
69.549	19.432	1005.957	793.261
70.563	19.122	1004.471	790.593
71.578	19.049	1003.711	789.589
72.593	19.087	1002.674	788.879
73.607	18.981	1001.981	787.781
74.622	18.939	1000.782	786.576
75.636	19.273	1000.361	787.702
76.651	19.350	999.393	787.221
77.666	19.063	998.808	785.381
78.680	19.092	997.654	784.535
79.695	19.091	997.289	784.174
80.709	19.262	996.493	784.259
81.724	19.180	995.772	783.249
82.739	19.312	994.396	782.694
83.753	19.277	993.799	781.995
84.768	19.501	992.941	782.271
85.782	19.795	992.141	782.899
86.797	19.897	991.026	782.414
87.812	19.866	990.205	781.553
88.826	19.802	989.879	780.938
89.841	19.649	989.082	779.553
90.855	19.767	988.583	779.623
91.870	19.852	987.719	779.253
92.884	19.805	986.426	777.951
93.899	19.718	985.393	776.681
94.914	19.629	984.196	775.268
95.928	19.739	984.054	775.581
96.943	19.704	982.908	774.451
97.957	19.522	981.943	772.808
98.972	19.453	980.650	771.415
99.987	19.255	979.275	769.380
101.001	19.130	979.095	768.612
102.016	19.480	978.715	769.806
103.030	19.498	977.381	768.770
104.045	19.548	976.254	768.038
105.060	19.266	974.986	765.720
106.074	19.152	973.917	764.307
107.089	19.257	973.524	764.394
108.103	19.654	973.036	765.704
109.118	19.782	971.658	765.121
110.133	19.465	971.078	763.192
111.147	19.437	970.287	762.382
112.162	19.440	968.713	761.088
113.176	19.044	967.729	758.506
114.191	19.400	966.252	758.844
115.206	19.477	965.888	758.832
116.220	19.008	964.793	755.843
117.235	18.982	963.806	754.889
118.249	19.127	963.210	754.992
119.264	18.997	962.634	753.906
120.279	19.202	961.039	753.483
121.293	18.987	960.532	752.082
122.308	19.243	959.498	752.323
123.322	19.232	958.917	751.754
124.337	19.264	957.702	750.874
125.352	19.101	956.369	749.051
126.366	18.661	954.843	745.877
127.381	18.368	953.022	743.119
128.395	18.961	953.036	745.635
129.410	19.526	952.573	747.657
130.424	19.725	951.844	747.879
131.439	19.600	950.543	746.250
132.454	19.517	949.476	744.990
133.468	19.423	948.902	744.066
134.483	19.498	947.930	743.560
135.497	19.606	946.877	743.135
136.512	19.758	946.492	743.420
137.527	19.781	945.933	743.013
138.541	19.773	945.073	742.240
139.556	19.846	943.977	741.626
140.570	19.819	943.178	740.815
141.585	19.751	942.333	739.795
142.600	19.746	941.494	739.052
143.614	19.607	940.565	737.663
144.629	19.846	940.009	738.182
145.643	20.104	939.586	738.885
146.658	19.990	938.186	737.234
147.673	19.793	936.818	735.255
148.687	19.710	936.041	734.228
149.702	19.868	934.891	733.929
150.716	19.691	933.866	732.311
151.731	19.628	933.038	731.329
152.746	19.819	931.917	731.196
153.760	19.826	931.441	730.785
154.775	19.955	931.299	731.154
155.789	20.028	929.739	730.175
156.804	20.019	928.803	729.337
157.819	19.768	928.046	727.621
158.833	19.959	927.031	727.561
159.848	19.993	926.714	727.393
160.862	20.253	925.384	727.375
161.877	19.950	925.074	725.796
162.892	19.926	923.941	724.745
163.906	19.845	923.746	724.189
164.921	19.931	922.535	723.534
165.935	20.043	921.188	722.881
166.950	20.123	919.963	722.186
167.964	20.087	919.167	721.347
168.979	20.000	918.033	720.035
169.994	19.898	917.081	718.801
171.008	19.718	916.618	717.625
172.023	19.906	916.114	717.949
173.037	20.100	914.792	717.651
174.052	19.863	913.432	715.539
175.067	19.566	912.828	713.777
176.081	19.715	912.106	713.763
177.096	19.715	911.395	713.145
178.110	19.975	909.748	712.864
179.125	19.699	908.818	710.939
180.140	19.344	908.055	708.820
181.154	19.386	907.780	708.715
182.169	19.619	906.558	708.652
183.183	19.677	906.907	709.102
184.198	19.840	906.366	709.282
185.213	19.883	905.417	708.655
186.227	19.866	904.580	707.866
187.242	19.809	904.532	707.535
188.256	19.944	903.745	707.405
189.271	20.039	902.572	706.813
190.286	20.037	902.119	706.389
191.300	19.943	900.787	704.899
192.315	19.493	899.501	702.000
193.329	18.920	898.207	698.603
194.344	18.518	897.294	696.199
195.359	19.061	897.731	698.680
196.373	19.810	897.923	701.808
197.388	20.012	897.325	702.099
198.402	19.778	896.984	700.819
199.417	19.635	896.093	699.482
200.432	19.831	895.385	699.661
201.446	19.713	894.198	698.196
202.461	19.462	893.667	696.705
203.475	19.358	893.346	695.975
204.490	18.970	891.932	693.247
205.504	17.970	890.025	687.680
206.519	18.393	890.219	689.472
207.534	19.442	890.123	693.556
208.548	19.462	889.628	693.189
209.563	19.909	889.239	694.621
210.577	19.892	888.615	694.001
211.592	19.556	888.034	692.140
212.607	19.835	887.964	693.141
213.621	20.006	887.225	693.189
214.636	20.040	886.075	692.366
215.650	19.967	885.930	691.899
216.665	19.928	884.969	690.930
217.680	19.872	884.908	690.598
218.694	20.060	884.153	690.697
219.709	19.692	883.082	688.335
220.723	19.491	882.194	686.783
221.738	19.721	881.553	687.135
222.753	19.815	881.127	687.116
223.767	19.753	880.247	686.122
224.782	19.915	879.366	686.019
225.796	20.077	879.182	686.458
226.811	20.223	878.485	686.427
227.826	19.706	877.271	683.377
228.840	18.893	875.934	679.062
229.855	19.007	875.082	678.795
230.869	19.065	875.363	679.179
231.884	18.884	873.975	677.330
232.899	18.965	873.408	677.150
233.913	19.708	873.834	680.344
234.928	19.983	873.223	680.890
235.942	19.837	872.793	679.921
236.957	19.900	872.107	679.575
237.972	19.660	870.986	677.701
238.986	19.605	870.362	676.938
240.001	19.649	869.814	676.624
241.015	19.651	868.786	675.774
242.030	19.653	868.495	675.493
243.045	19.866	867.454	675.455
244.059	19.959	867.254	675.605
245.074	20.030	866.966	675.596
246.088	19.974	865.902	674.491
247.103	19.605	864.878	672.195
248.117	19.600	864.463	671.796
249.132	20.212	864.238	673.942
250.147	20.303	864.137	674.154
251.161	20.423	863.481	674.050
252.176	20.568	862.688	673.933
253.190	20.516	862.015	673.145
254.205	20.762	861.157	673.367
255.220	20.766	861.188	673.347
256.234	20.694	860.865	672.757
257.249	20.700	859.851	671.930
258.263	20.567	858.791	670.527
259.278	20.667	858.183	670.380
260.293	20.626	858.092	670.093
261.307	20.714	857.367	669.804
262.322	20.655	856.395	668.758
263.336	20.399	855.747	667.211
264.351	20.059	854.067	664.539
265.366	18.872	852.307	658.563
266.380	18.539	851.473	656.585
267.395	19.350	852.032	660.065
268.409	20.324	851.798	663.552
269.424	20.242	851.083	662.623
270.439	20.393	851.053	663.115
271.453	20.497	850.025	662.655
272.468	20.633	849.200	662.469
273.482	20.708	849.010	662.547
274.497	20.708	848.579	662.153
275.512	20.476	847.562	660.419
276.526	19.990	846.128	657.399
277.541	20.240	845.834	658.060
278.555	20.583	845.266	658.862
279.570	20.356	844.736	657.532
280.585	20.184	843.421	655.798
281.599	20.281	843.087	655.849
282.614	20.276	843.180	655.841
283.628	20.076	841.634	653.826
284.643	19.686	840.675	651.555
285.657	20.170	840.493	653.178
286.672	19.943	840.189	652.030
287.687	19.658	838.817	649.837
288.701	19.831	839.045	650.607
289.716	20.151	838.635	651.434
290.730	19.839	837.742	649.512
291.745	19.799	836.892	648.644
292.760	19.538	836.320	647.164
293.774	19.445	836.026	646.533
294.789	20.368	836.293	650.138
295.803	21.049	836.118	652.495
296.818	21.011	835.311	651.663
297.833	21.205	834.694	651.850
298.847	20.751	834.297	649.788
299.862	20.525	832.712	647.653
300.876	20.659	832.479	647.916
301.891	21.025	831.830	648.713
302.906	20.942	831.363	647.984
303.920	20.693	829.917	645.874
304.935	20.431	829.326	644.386
305.949	20.866	829.471	646.054
306.964	20.944	828.942	645.876
307.979	20.818	828.224	644.791
308.993	20.567	828.030	643.653
310.008	21.202	827.262	645.347
311.022	21.177	826.792	644.834
312.037	21.003	826.107	643.598
313.052	20.870	825.566	642.630
314.066	20.909	824.626	641.985
315.081	20.248	823.476	638.601
316.095	19.486	822.544	635.021
317.110	20.042	822.848	637.243
318.125	20.768	823.074	640.032
319.139	20.343	821.941	637.532
320.154	19.334	820.428	632.604
321.168	18.988	819.091	630.247
322.183	19.675	818.983	632.624
323.197	20.415	819.680	635.819
324.212	20.583	819.459	636.204
325.227	20.782	818.804	636.369
326.241	21.011	818.564	636.963
327.256	20.911	817.748	635.906
328.270	20.686	817.272	634.657
329.285	20.638	816.847	634.097
330.300	20.564	815.874	633.016
331.314	20.302	815.219	631.500
332.329	20.455	814.397	631.361
333.343	20.788	813.945	632.164
334.358	20.990	813.315	632.355
335.373	21.039	813.086	632.298
336.387	21.086	812.573	632.012
337.402	21.293	812.565	632.698
338.416	21.395	811.832	632.441
339.431	21.256	811.304	631.470
340.446	21.227	810.733	630.867
341.460	21.529	810.234	631.513
342.475	21.543	809.144	630.659
343.489	21.256	809.051	629.495
344.504	21.169	808.398	628.619
345.519	21.512	808.212	629.651
346.533	21.667	807.432	629.548
347.548	21.784	807.301	629.811
348.562	21.750	806.884	629.305
349.577	21.612	806.612	628.542
350.592	21.764	805.403	628.090
351.606	21.780	805.244	627.969
352.621	21.844	804.614	627.650
353.635	21.568	804.235	626.312
354.650	21.432	804.006	625.592
355.665	21.260	802.653	623.867
356.679	20.212	801.390	619.092
357.694	20.078	800.294	617.713
358.708	20.844	800.281	620.377
359.723	20.633	800.153	619.474
360.738	20.967	799.524	620.118
361.752	21.374	799.584	621.559
362.767	21.318	799.217	621.020
363.781	21.641	799.139	622.052
364.796	21.920	798.960	622.847
365.810	21.869	798.339	622.127
366.825	21.881	798.301	622.086
367.840	22.072	797.446	622.040
368.854	21.829	796.995	620.771
369.869	21.536	796.240	619.093
370.883	21.442	795.613	618.218
371.898	21.449	794.865	617.607
372.913	21.277	794.595	616.738
373.927	21.259	793.826	616.021
374.942	21.440	792.920	615.903
375.956	21.696	792.827	616.677
376.971	21.657	792.228	616.019
377.986	21.830	791.680	616.145
379.000	21.999	791.474	616.525
380.015	21.820	791.139	615.579
381.029	21.863	790.182	614.930
382.044	21.694	789.846	614.025
383.059	21.891	789.469	614.366
384.073	21.985	789.019	614.292
385.088	21.935	788.152	613.388
386.102	21.925	787.893	613.096
387.117	21.809	787.148	612.056
388.132	21.883	786.370	611.657
389.146	21.703	785.486	610.286
390.161	21.188	784.838	607.938
391.175	20.978	784.814	607.135
392.190	21.478	785.261	609.166
393.205	21.683	783.971	608.827
394.219	20.774	782.641	604.583
395.234	19.219	780.320	597.351
396.248	18.665	779.947	595.092
397.263	19.741	780.449	599.150
398.278	21.286	781.500	605.261
399.292	21.719	781.664	606.837
400.307	21.503	780.644	605.243
401.321	21.508	779.943	604.664
402.336	21.666	779.790	605.037
403.350	22.044	779.581	606.128
404.365	22.189	779.504	606.513
405.380	22.394	779.490	607.157
406.394	22.423	779.369	607.108
407.409	22.616	778.647	607.157
408.423	22.699	778.146	606.998
409.438	22.534	777.557	605.918
410.453	22.558	777.274	605.725
411.467	22.660	776.771	605.632
412.482	22.695	776.265	605.304
413.496	22.592	775.829	604.555
414.511	22.606	775.175	604.041
415.526	22.647	775.155	604.111
416.540	22.681	774.725	603.840
417.555	22.470	774.442	602.844
418.569	22.214	773.353	601.066
419.584	22.190	772.969	600.633
420.599	22.295	772.383	600.483
421.613	158.593	1361.532	1798.593
422.628	136.832	1447.387	1798.691
