DTS Sentinel unit serial number:	SN413079Multiplexer serial number:	ORYXHardware model number:	OX4-SRSoftware version number:	ORYX F/W v4.00 Oryx Data Collector v3.7.2.0data status	okinstallation	princeton_trtdifferential loss correction	single-endedforward channel	channel 3reverse channel	N/Adate	2019/09/12time	03:22:11forward acquisition time	60.00reverse acquisition time	0.00gamma	496.2192k internal	0.2322k external	0.2322temperature offset calibration	1.0065default loss term (dB/km)	0.3790temperature slope calibration	1.0000multiplexer offset coefficient	1.0000multiplexer slope coefficient	1.0000fibre end	0.00T internal ref (°C)	32.25T ext. ref 1 (°C)	2.14T ext. ref 2 (°C)	26.62length (m)	temperature (°C)	Stokes	anti-Stokes-747.200	63.821	0.436	0.443
-746.185	146.062	-0.113	0.153
-745.171	68.313	0.198	-0.204
-744.156	183.279	-0.119	0.177
-743.142	-118.691	0.231	0.041
-742.127	-200.000	0.018	0.391
-741.112	141.505	-0.148	-0.198
-740.098	-200.000	-0.029	-0.354
-739.083	-9.174	0.043	-0.029
-738.069	-200.000	0.040	0.180
-737.054	-182.636	-0.319	0.006
-736.039	-49.282	-0.328	-0.158
-735.025	132.227	0.250	0.325
-734.010	-200.000	0.014	0.159
-732.996	-9.822	-0.138	-0.093
-731.981	800.000	0.092	-0.317
-730.966	116.605	0.204	-0.253
-729.952	-45.317	-0.160	-0.080
-728.937	88.154	-0.155	-0.173
-727.923	-10.091	-0.166	0.111
-726.908	-89.241	-0.073	0.022
-725.894	-125.834	-0.286	0.044
-724.879	-0.095	0.172	-0.124
-723.864	-200.000	0.003	-0.139
-722.850	-200.000	0.006	0.043
-721.835	-164.504	0.107	0.005
-720.821	-200.000	-0.003	0.136
-719.806	225.788	0.255	-0.417
-718.791	244.458	-0.197	-0.334
-717.777	-58.886	0.099	0.043
-716.762	-82.444	0.181	-0.059
-715.748	-71.804	-0.323	-0.122
-714.733	800.000	0.094	-0.394
-713.718	-79.624	0.160	0.054
-712.704	49.021	-0.092	-0.087
-711.689	-47.433	0.215	0.105
-710.675	-51.501	-0.232	-0.109
-709.660	-62.199	0.151	0.063
-708.645	169.749	0.091	-0.131
-707.631	282.704	0.150	-0.271
-706.616	103.046	0.239	0.282
-705.602	42.993	0.191	-0.176
-704.587	175.348	-0.051	-0.074
-703.572	-135.735	-0.191	-0.023
-702.558	-36.704	0.200	0.109
-701.543	-200.000	0.016	-0.191
-700.529	58.538	-0.168	0.166
-699.514	52.952	0.148	-0.143
-698.499	-121.932	-0.421	-0.070
-697.485	147.570	0.038	0.051
-696.470	-150.500	-0.028	-0.002
-695.456	-200.000	0.026	-0.263
-694.441	555.917	-0.018	0.043
-693.426	-200.000	-0.016	-0.159
-692.412	-127.546	-0.474	0.069
-691.397	-29.874	0.174	-0.100
-690.383	-157.053	-0.281	0.017
-689.368	415.278	0.131	0.281
-688.354	-119.901	-0.136	-0.024
-687.339	-200.000	0.018	0.345
-686.324	-10.758	-0.271	0.181
-685.310	-17.818	0.115	-0.073
-684.295	-75.066	0.106	0.038
-683.281	-34.585	0.123	0.068
-682.266	226.565	0.119	-0.194
-681.251	7.387	0.091	0.068
-680.237	-200.000	-0.057	-0.334
-679.222	-200.000	-0.008	-0.078
-678.208	-53.043	0.204	-0.094
-677.193	59.524	-0.128	0.127
-676.178	-69.726	-0.275	-0.106
-675.164	-99.949	-0.080	-0.020
-674.149	800.000	-0.034	0.112
-673.135	-41.308	0.205	-0.106
-672.120	-124.408	0.152	-0.024
-671.105	-200.000	-0.035	0.190
-670.091	95.887	0.057	-0.065
-669.076	74.757	0.101	-0.107
-668.062	-55.228	-0.230	0.104
-667.047	24.018	0.220	0.183
-666.032	-162.273	0.244	0.012
-665.018	-81.801	-0.288	0.095
-664.003	-65.160	-0.283	-0.115
-662.989	95.237	0.108	-0.123
-661.974	-30.281	-0.219	0.125
-660.959	-200.000	0.007	0.203
-659.945	139.310	-0.175	0.231
-658.930	-103.915	0.100	-0.023
-657.916	800.000	0.064	0.197
-656.901	-200.000	0.054	-0.355
-655.886	5.567	-0.133	0.099
-654.872	800.000	-0.087	-0.351
-653.857	800.000	-0.061	-0.202
-652.843	-46.987	0.143	0.070
-651.828	-200.000	-0.040	-0.278
-650.814	25.039	-0.033	-0.028
-649.799	800.000	0.060	0.232
-648.784	-3.678	-0.351	0.245
-647.770	-35.978	-0.079	0.043
-646.755	-41.103	0.204	0.106
-645.741	5.464	0.214	0.159
-644.726	272.292	-0.124	-0.219
-643.711	-200.000	0.010	0.065
-642.697	192.138	-0.024	-0.037
-641.682	224.590	-0.090	0.146
-640.668	171.142	-0.200	0.289
-639.653	140.399	0.092	-0.122
-638.638	196.039	0.123	0.189
-637.624	-135.826	-0.079	-0.009
-636.609	-200.000	0.014	-0.079
-635.595	-200.000	0.027	0.448
-634.580	800.000	0.053	0.222
-633.565	6.012	-0.316	-0.235
-632.551	-147.059	0.164	0.014
-631.536	-89.620	0.096	-0.028
-630.522	800.000	0.065	0.253
-629.507	-30.955	0.251	0.143
-628.492	7.766	0.143	-0.108
-627.478	-37.162	0.296	0.160
-626.463	800.000	-0.086	-0.275
-625.449	252.629	-0.037	-0.064
-624.434	-70.316	-0.372	0.142
-623.419	-90.493	0.274	-0.080
-622.405	-152.029	-0.259	0.019
-621.390	50.202	0.048	0.046
-620.376	800.000	-0.115	0.323
-619.361	-200.000	-0.260	0.000
-618.346	-63.802	-0.331	0.136
-617.332	-78.540	0.120	0.041
-616.317	-66.485	-0.308	-0.123
-615.303	800.000	0.092	0.294
-614.288	-200.000	0.065	0.289
-613.273	63.977	0.234	0.236
-612.259	-200.000	-0.008	-0.439
-611.244	163.862	-0.183	-0.258
-610.230	-19.683	-0.457	-0.284
-609.215	117.778	0.039	0.048
-608.201	-85.752	0.092	-0.029
-607.186	-200.000	0.032	-0.408
-606.171	94.779	0.170	-0.194
-605.157	-146.362	0.080	0.007
-604.142	800.000	-0.048	-0.171
-603.128	-10.610	-0.214	0.143
-602.113	800.000	0.036	-0.113
-601.098	-200.000	0.010	0.120
-600.084	-89.310	-0.270	0.080
-599.069	800.000	-0.108	0.392
-598.055	-79.525	-0.219	0.074
-597.040	150.393	0.086	0.118
-596.025	91.181	0.261	0.294
-595.011	338.371	-0.028	0.055
-593.996	800.000	-0.071	-0.203
-592.982	-86.629	-0.078	0.024
-591.967	120.024	-0.200	-0.249
-590.952	-13.399	-0.307	-0.200
-589.938	708.667	0.055	0.145
-588.923	6.631	-0.270	-0.202
-587.909	94.012	-0.179	-0.204
-586.894	-16.889	0.164	0.104
-585.879	165.031	-0.068	-0.096
-584.865	-176.106	0.311	0.008
-583.850	133.264	0.132	-0.171
-582.836	-85.995	-0.055	-0.017
-581.821	-46.738	0.269	0.132
-580.806	105.783	0.060	0.071
-579.792	27.360	0.203	0.171
-578.777	-42.795	-0.352	0.179
-577.763	-78.970	-0.195	0.067
-576.748	4.660	-0.172	-0.127
-575.733	800.000	0.099	0.349
-574.719	-114.663	0.157	0.030
-573.704	-81.489	0.144	0.048
-572.690	38.218	0.217	-0.194
-571.675	-41.691	0.150	-0.077
-570.661	-146.736	-0.214	-0.019
-569.646	84.971	0.089	-0.098
-568.631	197.778	-0.127	-0.194
-567.617	800.000	-0.032	-0.110
-566.602	745.197	-0.049	0.132
-565.588	-118.329	0.285	0.051
-564.573	88.082	-0.073	0.081
-563.558	70.682	0.159	-0.165
-562.544	-123.120	-0.055	0.009
-561.529	800.000	-0.023	0.075
-560.515	800.000	-0.041	0.179
-559.500	15.436	-0.300	-0.236
-558.485	60.212	0.043	0.042
-557.471	800.000	-0.063	-0.200
-556.456	800.000	0.061	-0.265
-555.442	119.475	0.123	0.152
-554.427	566.191	0.041	-0.101
-553.412	184.690	-0.098	-0.146
-552.398	-92.378	-0.124	0.035
-551.383	-145.706	-0.091	-0.008
-550.369	800.000	-0.053	0.233
-549.354	-200.000	-0.024	-0.314
-548.339	153.003	-0.131	-0.179
-547.325	173.710	0.179	0.260
-546.310	203.605	-0.093	0.144
-545.296	-200.000	0.076	-0.438
-544.281	21.815	-0.159	-0.130
-543.266	313.804	-0.073	-0.138
-542.252	-42.889	0.208	0.106
-541.237	-30.147	-0.250	0.142
-540.223	-200.000	0.004	-0.154
-539.208	271.114	-0.087	0.154
-538.193	800.000	-0.087	0.279
-537.179	-200.000	-0.017	-0.083
-536.164	36.072	-0.353	0.312
-535.150	339.127	0.110	-0.214
-534.135	-29.115	-0.013	-0.007
-533.121	-200.000	-0.011	0.071
-532.106	-200.000	0.012	0.075
-531.091	100.284	0.066	-0.076
-530.077	-92.311	0.257	-0.073
-529.062	-200.000	0.059	0.538
-528.048	-132.451	-0.328	0.042
-527.033	546.361	0.089	0.213
-526.018	482.218	-0.161	-0.366
-525.004	-85.325	0.103	0.032
-523.989	-200.000	0.022	-0.174
-522.975	-99.561	0.151	0.038
-521.960	536.082	-0.048	0.115
-520.945	288.538	0.097	-0.177
-519.931	-31.691	-0.190	-0.107
-518.916	-200.000	0.014	0.070
-517.902	-31.059	-0.057	0.032
-516.887	-62.280	-0.103	0.043
-515.872	-17.405	-0.317	0.200
-514.858	-173.569	0.345	0.010
-513.843	-61.767	0.050	-0.021
-512.829	-25.368	-0.027	-0.016
-511.814	76.567	-0.122	0.130
-510.799	-179.133	-0.603	-0.013
-509.785	-130.141	-0.259	-0.035
-508.770	107.956	-0.079	-0.095
-507.756	70.568	0.019	-0.020
-506.741	-200.000	0.023	0.238
-505.726	-159.909	0.080	0.004
-504.712	-46.706	0.308	-0.151
-503.697	-128.146	0.376	0.054
-502.683	-46.772	0.060	0.029
-501.668	-200.000	0.049	-0.250
-500.653	-181.457	-0.258	0.005
-499.639	41.883	-0.204	0.185
-498.624	55.568	-0.103	-0.100
-497.610	-64.414	0.239	0.097
-496.595	-84.287	0.213	-0.067
-495.581	-160.419	-0.228	-0.012
-494.566	323.132	-0.130	-0.248
-493.551	724.123	0.027	-0.071
-492.537	-23.588	-0.253	0.152
-491.522	76.225	0.029	0.031
-490.508	112.805	-0.091	-0.111
-489.493	-182.873	0.244	0.004
-488.478	-150.909	-0.318	0.024
-487.464	-96.962	-0.366	-0.096
-486.449	259.741	0.127	0.220
-485.435	23.949	0.217	0.179
-484.420	24.973	0.157	0.130
-483.405	-16.267	0.172	-0.109
-482.391	-200.000	0.018	0.112
-481.376	-46.824	-0.183	0.090
-480.362	-200.000	-0.054	-0.253
-479.347	800.000	0.060	-0.212
-478.332	-133.608	0.194	0.024
-477.318	236.448	0.099	0.164
-476.303	-98.889	0.212	0.054
-475.289	-45.311	0.264	0.131
-474.274	32.526	0.021	-0.018
-473.259	717.747	0.158	-0.420
-472.245	-83.097	-0.127	0.041
-471.230	20.253	-0.222	0.179
-470.216	73.613	0.214	-0.225
-469.201	800.000	-0.085	0.293
-468.186	-25.245	0.256	-0.152
-467.172	-200.000	0.018	0.104
-466.157	-135.531	-0.244	0.029
-465.143	-36.558	-0.081	-0.043
-464.128	498.521	-0.073	-0.168
-463.113	-200.000	0.014	-0.071
-462.099	120.620	0.127	-0.158
-461.084	756.703	0.075	0.203
-460.070	-128.006	0.162	-0.023
-459.055	-68.670	-0.349	-0.135
-458.040	-81.578	0.325	0.107
-457.026	318.337	-0.076	-0.144
-456.011	-8.014	0.222	0.149
-454.997	234.526	0.048	-0.078
-453.982	-165.034	0.083	0.004
-452.968	383.172	0.160	0.328
-451.953	800.000	-0.089	0.257
-450.938	-200.000	0.044	-0.250
-449.924	22.038	0.266	-0.217
-448.909	249.402	-0.035	0.059
-447.895	633.174	0.029	-0.073
-446.880	281.831	0.166	0.297
-445.865	-85.127	0.086	0.027
-444.851	-200.000	-0.021	0.216
-443.836	800.000	-0.073	-0.206
-442.822	21.738	-0.080	-0.065
-441.807	121.590	-0.143	0.178
-440.792	16.854	0.092	-0.073
-439.778	-48.028	-0.165	0.080
-438.763	-200.000	-0.007	0.148
-437.749	800.000	0.030	-0.128
-436.734	67.778	0.092	-0.094
-435.719	69.580	0.248	0.255
-434.705	37.961	0.085	-0.075
-433.690	-29.484	0.320	-0.183
-432.676	178.127	0.126	0.184
-431.661	49.966	0.200	0.189
-430.646	-88.919	-0.031	0.009
-429.632	42.244	-0.107	-0.097
-428.617	73.258	0.155	-0.162
-427.603	-165.524	0.259	-0.011
-426.588	213.085	-0.091	-0.143
-425.573	10.396	0.264	0.201
-424.559	-13.563	0.313	0.202
-423.544	-42.290	0.132	0.067
-422.530	-165.994	-0.430	-0.018
-421.515	-154.275	0.221	-0.015
-420.500	-50.570	-0.115	-0.054
-419.486	-108.330	0.134	-0.029
-418.471	-200.000	-0.001	-0.023
-417.457	800.000	0.074	0.224
-416.442	-85.668	0.058	-0.018
-415.428	-101.720	0.140	-0.034
-414.413	800.000	-0.082	-0.236
-413.398	-123.523	-0.209	-0.033
-412.384	-200.000	-0.029	-0.281
-411.369	-98.675	-0.116	0.030
-410.355	-60.352	0.125	-0.053
-409.340	-95.503	-0.092	-0.025
-408.325	-126.238	-0.333	0.050
-407.311	284.736	-0.038	-0.068
-406.296	-85.475	0.051	-0.016
-405.282	-108.539	-0.371	0.079
-404.267	-185.911	-0.096	0.001
-403.252	-32.405	-0.203	-0.113
-402.238	7.153	0.058	-0.043
-401.223	146.320	0.053	0.071
-400.209	800.000	0.035	-0.132
-399.194	-192.588	-0.064	-0.001
-398.179	34.043	0.209	-0.181
-397.165	-110.962	0.207	0.042
-396.150	-30.798	0.210	0.119
-395.136	-174.092	0.127	-0.004
-394.121	-200.000	-0.041	0.278
-393.106	604.216	-0.091	-0.226
-392.092	-56.864	-0.265	0.117
-391.077	72.640	-0.219	-0.228
-390.063	331.850	0.039	0.074
-389.048	-81.901	-0.206	-0.067
-388.033	-200.000	0.038	-0.233
-387.019	113.617	0.259	-0.314
-386.004	287.476	-0.100	-0.180
-384.990	380.699	-0.084	-0.172
-383.975	-200.000	-0.000	-0.003
-382.960	-200.000	0.016	-0.107
-381.946	-112.835	-0.315	0.062
-380.931	-51.747	-0.285	-0.132
-379.917	496.397	0.118	-0.270
-378.902	36.571	-0.211	-0.185
-377.888	-109.075	0.344	-0.073
-376.873	-200.000	0.004	0.059
-375.858	-46.042	0.415	0.204
-374.844	-74.838	0.294	0.105
-373.829	-200.000	0.013	-0.144
-372.815	-93.291	-0.217	-0.060
-371.800	-90.219	0.225	0.065
-370.785	287.014	-0.084	-0.150
-369.771	-200.000	-0.056	-0.305
-368.756	800.000	-0.053	-0.213
-367.742	13.418	0.078	0.060
-366.727	-54.697	-0.155	-0.070
-365.712	800.000	0.023	-0.081
-364.698	22.713	0.207	0.169
-363.683	-87.292	0.225	0.068
-362.669	-67.290	0.238	0.093
-361.654	255.989	-0.068	0.115
-360.639	-83.484	0.155	0.050
-359.625	-120.449	0.124	0.021
-358.610	800.000	-0.050	0.191
-357.596	-131.535	0.036	-0.005
-356.581	-127.870	-0.065	0.009
-355.566	-81.597	0.377	0.123
-354.552	328.878	-0.112	0.214
-353.537	241.963	-0.062	-0.103
-352.523	538.852	0.095	-0.225
-351.508	-200.000	0.025	-0.111
-350.493	41.083	-0.206	0.185
-349.479	-200.000	0.023	-0.298
-348.464	800.000	-0.021	-0.062
-347.450	-84.937	0.206	-0.064
-346.435	-40.634	0.221	-0.114
-345.420	-3.985	-0.176	0.121
-344.406	24.102	-0.264	0.217
-343.391	-200.000	0.013	-0.192
-342.377	-190.699	0.154	0.002
-341.362	-165.775	-0.282	0.012
-340.348	592.241	-0.088	-0.215
-339.333	38.497	0.168	-0.149
-338.318	-30.638	-0.148	-0.083
-337.304	-163.028	0.393	-0.019
-336.289	153.222	-0.205	-0.279
-335.275	-200.000	-0.074	-0.354
-334.260	-61.851	0.162	-0.067
-333.245	-17.730	-0.091	0.057
-332.231	89.705	0.212	0.236
-331.216	-187.779	-0.200	0.003
-330.202	135.916	0.106	-0.137
-329.187	-16.496	0.196	-0.123
-328.172	131.417	0.163	0.208
-327.158	800.000	0.010	0.030
-326.143	-40.891	0.204	0.105
-325.129	153.356	-0.191	-0.260
-324.114	-0.644	-0.133	-0.094
-323.099	-165.488	-0.098	0.004
-322.085	196.535	-0.135	0.204
-321.070	-152.605	-0.199	-0.014
-320.056	800.000	0.076	-0.211
-319.041	-90.455	0.170	-0.049
-318.026	45.063	-0.169	0.155
-317.012	-200.000	0.009	-0.046
-315.997	-40.906	-0.323	0.166
-314.983	-2.861	0.223	0.155
-313.968	-163.540	0.343	0.016
-312.953	-200.000	0.010	0.282
-311.939	-131.294	-0.159	0.021
-310.924	-28.378	-0.159	0.091
-309.910	-58.652	0.361	-0.155
-308.895	110.319	-0.030	-0.036
-307.880	107.205	0.149	-0.175
-306.866	97.107	-0.032	0.037
-305.851	80.510	-0.111	0.119
-304.837	442.483	0.094	-0.204
-303.822	-51.871	0.188	0.087
-302.807	74.935	-0.180	0.188
-301.793	92.351	0.108	-0.121
-300.778	-109.115	0.207	-0.044
-299.764	16.804	0.085	-0.066
-298.749	-70.590	-0.299	0.112
-297.735	-51.351	-0.118	-0.055
-296.720	90.498	0.163	-0.182
-295.705	-153.763	0.303	0.021
-294.691	503.562	-0.158	0.362
-293.676	-200.000	-0.017	0.185
-292.662	-82.498	-0.059	0.019
-291.647	-123.827	-0.444	-0.070
-290.632	375.910	0.059	-0.119
-289.618	800.000	-0.103	-0.318
-288.603	-41.541	-0.318	0.162
-287.589	56.824	0.165	0.159
-286.574	-88.449	0.055	0.016
-285.559	500.261	0.058	-0.133
-284.545	268.944	0.177	-0.309
-283.530	-200.000	-0.051	-0.310
-282.516	-81.109	0.062	-0.020
-281.501	800.000	-0.046	0.185
-280.486	-200.000	-0.038	0.460
-279.472	-166.653	-0.112	0.005
-278.457	-100.929	-0.188	-0.046
-277.443	-200.000	-0.022	-0.203
-276.428	110.402	0.151	0.180
-275.413	-17.662	-0.094	-0.058
-274.399	94.738	0.140	-0.158
-273.384	-114.911	0.216	-0.041
-272.370	800.000	-0.106	-0.400
-271.355	-200.000	0.050	-0.288
-270.340	193.641	0.123	-0.185
-269.326	-200.000	-0.037	-0.287
-268.311	-90.028	-0.459	-0.133
-267.297	800.000	0.070	-0.288
-266.282	-200.000	0.002	-0.370
-265.267	334.089	0.116	0.222
-264.253	129.525	0.125	0.159
-263.238	481.199	0.093	0.210
-262.224	-36.082	-0.088	0.047
-261.209	31.196	0.234	0.199
-260.195	410.673	0.065	0.137
-259.180	-120.954	0.470	0.078
-258.165	50.834	0.122	-0.115
-257.151	-145.254	0.159	0.014
-256.136	61.177	-0.109	0.107
-255.122	-118.615	-0.455	-0.080
-254.107	112.874	-0.235	0.282
-253.092	-57.541	0.224	-0.097
-252.078	800.000	0.009	-0.034
-251.063	-12.417	0.114	0.074
-250.049	25.998	0.152	0.126
-249.034	-5.020	0.407	0.278
-248.019	-200.000	-0.003	-0.156
-247.005	-118.466	0.398	-0.070
-245.990	-123.665	-0.101	-0.016
-244.976	121.371	0.321	0.396
-243.961	-89.621	-0.176	0.051
-242.946	-11.031	-0.093	-0.061
-241.932	-53.465	0.188	-0.085
-240.917	800.000	-0.037	0.158
-239.903	-194.418	-0.215	0.002
-238.888	800.000	-0.095	0.315
-237.873	-37.070	0.230	0.122
-236.859	41.763	0.178	0.160
-235.844	-68.140	-0.117	-0.045
-234.830	66.483	-0.277	-0.279
-233.815	84.710	-0.112	-0.121
-232.800	800.000	-0.028	-0.101
-231.786	-141.671	0.048	-0.005
-230.771	-33.390	-0.097	0.053
-229.757	413.110	-0.077	0.162
-228.742	82.383	-0.100	-0.108
-227.727	-83.271	0.222	0.071
-226.713	-80.761	0.103	-0.034
-225.698	48.094	0.210	0.194
-224.684	-200.000	0.006	-0.074
-223.669	25.009	0.157	-0.129
-222.655	346.240	0.093	-0.180
-221.640	-17.263	0.110	-0.068
-220.625	112.363	0.034	-0.041
-219.611	800.000	-0.042	0.129
-218.596	48.546	-0.138	-0.128
-217.582	12.823	-0.341	0.260
-216.567	12.582	-0.358	0.273
-215.552	235.956	-0.106	-0.173
-214.538	-74.560	-0.269	0.096
-213.523	-52.833	0.126	0.057
-212.509	-200.000	0.028	-0.153
-211.494	-68.040	0.137	0.053
-210.479	41.729	-0.306	-0.275
-209.465	-179.370	-0.180	0.004
-208.450	-83.382	0.353	0.112
-207.436	46.059	-0.179	0.164
-206.421	161.377	-0.068	0.094
-205.406	-83.200	0.246	-0.078
-204.392	800.000	0.037	0.160
-203.377	4.482	-0.085	-0.062
-202.363	-61.505	-0.116	0.048
-201.348	638.962	0.107	0.269
-200.333	398.000	-0.025	-0.051
-199.319	800.000	-0.057	0.231
-198.304	37.973	0.108	-0.095
-197.290	-105.711	0.540	-0.121
-196.275	215.167	-0.027	-0.042
-195.260	10.965	-0.192	0.145
-194.246	29.462	-0.125	0.105
-193.231	94.637	-0.160	-0.180
-192.217	-103.799	-0.223	0.052
-191.202	-82.692	0.186	0.060
-190.187	-200.000	-0.008	0.098
-189.173	-26.186	-0.147	0.085
-188.158	-31.769	-0.398	-0.220
-187.144	35.966	-0.232	-0.202
-186.129	166.319	0.103	-0.144
-185.114	-166.869	0.166	0.007
-184.100	-200.000	-0.012	-0.306
-183.085	14.273	-0.263	-0.203
-182.071	800.000	-0.102	0.333
-181.056	-84.677	0.063	0.020
-180.042	-125.570	0.392	-0.059
-179.027	70.163	-0.099	0.101
-178.012	-35.068	-0.077	0.042
-176.998	591.597	0.136	-0.333
-175.983	-104.848	-0.069	-0.016
-174.969	800.000	-0.137	-0.485
-173.954	60.680	-0.231	0.226
-172.939	-15.417	0.300	-0.189
-171.925	-20.478	0.095	0.057
-170.910	372.081	0.067	-0.135
-169.896	-18.997	-0.266	0.164
-168.881	154.786	0.149	0.202
-167.866	35.550	-0.336	0.291
-166.852	168.159	0.085	0.120
-165.837	800.000	-0.085	0.356
-164.823	341.137	-0.114	0.220
-163.808	315.316	-0.105	0.195
-162.793	-187.732	0.108	-0.001
-161.779	19.744	-0.147	0.117
-160.764	-200.000	0.042	0.197
-159.750	-18.065	-0.011	0.007
-158.735	800.000	0.026	0.086
-157.720	-200.000	0.039	0.245
-156.706	-200.000	0.009	-0.419
-155.691	-39.500	0.081	-0.042
-154.677	-32.641	-0.272	-0.150
-153.662	581.660	-0.105	0.254
-152.647	-183.678	0.206	-0.003
-151.633	179.816	-0.032	0.046
-150.618	27.483	-0.349	-0.289
-149.604	-78.108	0.147	0.050
-148.589	800.000	0.108	-0.309
-147.574	-9.172	0.172	-0.114
-146.560	134.923	0.261	0.334
-145.545	-96.069	0.270	0.071
-144.531	274.025	-0.206	-0.359
-143.516	188.085	0.261	-0.385
-142.502	61.145	-0.173	-0.170
-141.487	-200.000	0.027	0.195
-140.472	533.427	0.110	0.258
-139.458	271.150	0.159	-0.277
-138.443	-107.620	-0.124	0.027
-137.429	-81.179	-0.192	-0.062
-136.414	193.758	-0.069	-0.103
-135.399	-55.152	-0.251	0.112
-134.385	290.638	-0.065	0.117
-133.370	144.589	0.034	0.045
-132.356	-146.295	-0.136	-0.012
-131.341	-16.860	0.297	0.185
-130.326	-63.031	0.131	-0.053
-129.312	-200.000	-0.025	0.225
-128.297	208.756	0.047	-0.072
-127.283	10.227	-0.244	-0.183
-126.268	-59.644	0.486	0.205
-125.253	800.000	0.068	-0.200
-124.239	-107.998	0.287	-0.061
-123.224	-31.796	0.269	-0.149
-122.210	-200.000	-0.037	-0.174
-121.195	-200.000	0.013	-0.241
-120.180	800.000	0.077	-0.278
-119.166	426.738	-0.164	-0.348
-118.151	-74.270	-0.083	0.030
-117.137	282.926	-0.172	-0.304
-116.122	64.617	-0.087	-0.087
-115.107	-200.000	-0.023	0.204
-114.093	-73.899	0.301	-0.108
-113.078	-92.846	0.144	0.040
-112.064	314.785	0.076	-0.141
-111.049	800.000	0.070	-0.223
-110.034	800.000	0.075	0.236
-109.020	-200.000	0.002	0.126
-108.005	481.638	0.157	-0.351
-106.991	148.402	0.183	0.244
-105.976	22.041	0.087	0.070
-104.962	-200.000	-0.035	-0.225
-103.947	-13.230	0.177	-0.113
-102.932	168.737	0.199	0.280
-101.918	156.965	-0.217	0.296
-100.903	-140.480	-0.256	0.026
-99.889	-28.568	0.335	-0.190
-98.874	-59.066	0.196	0.083
-97.859	238.022	-0.118	-0.192
-96.845	-97.993	0.235	0.060
-95.830	-73.986	0.235	0.084
-94.816	87.220	-0.137	-0.149
-93.801	-200.000	-0.023	-0.311
-92.786	51.592	0.247	0.231
-91.772	-125.422	0.196	-0.029
-90.757	-200.000	-0.053	0.251
-89.743	-104.339	-0.160	-0.037
-88.728	-200.000	0.025	-0.151
-87.713	800.000	-0.098	-0.279
-86.699	-105.255	0.290	-0.065
-85.684	-200.000	0.016	-0.169
-84.670	6.344	0.265	0.194
-83.655	-200.000	-0.084	0.446
-82.640	438.393	-0.037	-0.079
-81.626	-200.000	0.001	-0.330
-80.611	163.633	0.127	-0.176
-79.597	257.703	-0.116	-0.197
-78.582	-34.434	0.357	-0.192
-77.567	-133.709	-0.104	-0.013
-76.553	178.731	0.205	-0.295
-75.538	-128.223	0.069	-0.010
-74.524	-185.143	0.300	-0.005
-73.509	69.676	0.092	0.093
-72.494	-200.000	-0.086	-0.388
-71.480	-122.065	0.145	-0.023
-70.465	63.109	-0.141	-0.139
-69.451	35.993	-0.111	-0.096
-68.436	112.738	0.119	-0.142
-67.422	567.749	0.113	0.269
-66.407	-24.460	-0.203	0.119
-65.392	-103.695	-0.105	0.024
-64.378	-200.000	0.017	0.100
-63.363	138.427	-0.169	0.218
-62.349	-200.000	0.055	0.350
-61.334	-21.176	-1.210	-0.727
-60.319	238.100	0.367	0.599
-59.305	800.000	-0.256	-0.966
-58.290	412.192	0.528	1.103
-57.276	709.127	0.699	1.817
-56.261	-200.000	95.530	594.461
-55.246	572.652	1361.929	3263.395
-54.232	163.407	2536.008	3505.864
-53.217	112.497	2154.741	2563.628
-52.203	42.875	1702.519	1525.545
-51.188	35.416	1516.459	1308.163
-50.173	33.067	1489.755	1269.318
-49.159	51.561	1538.646	1437.679
-48.144	53.633	1555.630	1467.641
-47.130	35.675	1516.082	1309.394
-46.115	32.507	1501.319	1275.179
-45.100	32.354	1498.207	1271.452
-44.086	32.268	1496.589	1269.445
-43.071	32.228	1494.422	1267.289
-42.057	32.319	1492.720	1266.409
-41.042	32.369	1491.178	1265.382
-40.027	32.255	1490.057	1263.614
-39.013	32.233	1488.180	1261.826
-37.998	32.181	1487.130	1260.538
-36.984	32.247	1486.110	1260.064
-35.969	32.280	1484.728	1259.063
-34.954	32.324	1483.443	1258.221
-33.940	32.332	1481.892	1256.912
-32.925	32.321	1480.170	1255.325
-31.911	32.335	1478.614	1254.048
-30.896	32.288	1477.720	1252.928
-29.881	32.309	1476.347	1251.856
-28.867	32.340	1474.789	1250.687
-27.852	32.214	1474.308	1249.392
-26.838	32.357	1472.195	1248.500
-25.823	32.289	1470.926	1246.923
-24.809	32.257	1469.201	1245.201
-23.794	32.274	1467.904	1244.167
-22.779	32.276	1466.544	1242.980
-21.765	32.209	1465.705	1241.776
-20.750	32.278	1464.322	1241.006
-19.736	32.284	1462.855	1239.754
-18.721	32.180	1462.355	1238.596
-17.706	32.214	1461.078	1237.689
-16.692	32.268	1459.835	1236.946
-15.677	32.199	1459.039	1235.763
-14.663	32.220	1457.683	1234.704
-13.648	32.280	1456.575	1234.116
-12.633	32.157	1455.845	1232.640
-11.619	32.247	1455.030	1232.488
-10.604	32.269	1453.557	1231.335
-9.590	32.186	1453.399	1230.610
-8.575	32.293	1452.195	1230.246
-7.560	32.215	1451.843	1229.383
-6.546	32.180	1450.331	1227.826
-5.531	32.210	1449.997	1227.689
-4.517	32.204	1448.986	1226.747
-3.502	32.141	1447.971	1225.430
-2.487	32.248	1446.793	1225.082
-1.473	32.170	1445.522	1223.451
-0.458	32.242	1444.408	1222.922
0.556	32.686	1434.450	1211.370
1.571	29.830	1410.196	1172.711
2.586	26.702	1357.356	1109.548
3.600	25.401	1279.171	1038.034
4.615	23.833	1231.367	990.423
5.629	20.575	1173.811	926.710
6.644	10.976	1087.179	810.625
7.659	3.236	1045.047	741.953
8.673	2.248	1039.327	733.088
9.688	2.141	1036.380	730.435
10.702	2.091	1034.478	728.788
11.717	2.080	1032.648	727.386
12.731	5.684	1037.036	747.632
13.746	15.550	1050.862	805.031
14.761	23.054	1061.369	849.194
15.775	25.100	1062.610	859.937
16.790	25.459	1061.869	860.982
17.804	25.216	1061.586	859.510
18.819	25.135	1060.567	858.221
19.834	25.010	1060.124	857.189
20.848	25.209	1059.897	857.882
21.863	25.383	1059.117	858.007
22.877	25.329	1059.177	857.723
23.892	25.350	1058.134	856.900
24.907	25.331	1057.354	856.103
25.921	25.362	1057.080	855.951
26.936	25.317	1055.627	854.486
27.950	25.329	1055.079	854.023
28.965	25.307	1053.584	852.633
29.980	25.137	1052.402	850.794
30.994	25.110	1050.575	849.117
32.009	25.297	1050.381	849.770
33.023	25.509	1049.668	850.121
34.038	25.274	1048.610	848.079
35.053	25.223	1047.843	847.142
36.067	25.361	1047.062	847.085
37.082	25.298	1046.327	846.118
38.096	25.237	1045.785	845.320
39.111	25.562	1045.230	846.325
40.126	25.637	1044.245	845.805
41.140	25.494	1043.074	844.109
42.155	25.203	1041.487	841.387
43.169	24.971	1040.509	839.437
44.184	24.823	1039.050	837.492
45.199	25.011	1038.243	837.646
46.213	24.919	1037.376	836.442
47.228	24.850	1036.524	835.359
48.242	25.171	1035.719	836.132
49.257	25.194	1035.209	835.756
50.271	25.073	1035.307	835.198
51.286	25.353	1034.405	835.698
52.301	25.423	1033.155	834.940
53.315	25.276	1032.712	833.826
54.330	25.415	1031.741	833.610
55.344	25.308	1030.630	832.142
56.359	25.357	1030.035	831.816
57.374	25.337	1028.970	830.792
58.388	25.280	1028.067	829.725
59.403	25.022	1027.850	828.283
60.417	25.091	1026.891	827.758
61.432	25.011	1026.038	826.628
62.447	24.937	1025.237	825.565
63.461	24.983	1025.074	825.575
64.476	25.043	1023.811	824.759
65.490	25.030	1022.967	823.949
66.505	25.096	1022.018	823.414
67.520	25.004	1021.685	822.648
68.534	25.160	1020.757	822.546
69.549	25.077	1019.497	821.079
70.563	24.626	1018.563	818.190
71.578	24.487	1017.875	816.926
72.593	24.476	1017.315	816.354
73.607	24.387	1016.271	815.038
74.622	24.577	1014.570	814.470
75.636	24.782	1014.485	815.264
76.651	24.838	1013.564	814.704
77.666	24.637	1013.335	813.537
78.680	24.651	1011.943	812.410
79.695	24.699	1011.517	812.211
80.709	24.745	1011.302	812.177
81.724	24.951	1010.405	812.321
82.739	24.913	1009.276	811.170
83.753	24.936	1008.587	810.647
84.768	25.222	1008.055	811.439
85.782	25.517	1007.309	812.103
86.797	25.693	1006.469	812.146
87.812	25.673	1005.510	811.209
88.826	25.481	1004.381	809.362
89.841	25.441	1003.997	808.803
90.855	25.578	1003.080	808.608
91.870	25.535	1002.344	807.753
92.884	25.579	1001.627	807.300
93.899	25.521	1000.124	805.757
94.914	25.449	999.676	805.002
95.928	25.476	999.407	804.835
96.943	25.536	998.185	804.047
97.957	25.096	997.371	801.353
98.972	25.058	995.792	799.845
99.987	24.915	994.849	798.377
101.001	25.097	994.143	798.552
102.016	25.235	993.588	798.650
103.030	25.391	992.788	798.631
104.045	25.298	991.855	797.395
105.060	25.019	990.852	795.284
106.074	25.014	989.400	794.021
107.089	24.935	988.862	793.170
108.103	25.140	989.026	794.142
109.118	25.321	988.035	794.074
110.133	25.155	986.291	791.870
111.147	25.031	985.664	790.752
112.162	24.898	984.422	789.097
113.176	24.716	983.102	787.166
114.191	24.881	982.603	787.424
115.206	24.957	981.927	787.146
116.220	24.722	980.821	785.160
117.235	24.524	980.007	783.571
118.249	24.762	979.280	783.962
119.264	24.775	978.580	783.389
120.279	24.780	977.485	782.465
121.293	24.560	977.249	781.245
122.308	24.633	976.172	780.633
123.322	24.800	975.535	780.785
124.337	24.785	974.208	779.589
125.352	24.535	973.504	777.868
126.366	24.213	971.900	775.118
127.381	23.835	970.454	772.252
128.395	24.313	970.499	774.296
129.410	25.165	969.779	777.351
130.424	25.198	969.382	777.105
131.439	25.316	968.153	776.559
132.454	25.091	967.251	774.797
133.468	25.266	966.251	774.683
134.483	25.139	965.559	773.509
135.497	25.109	965.227	773.046
136.512	25.352	964.403	773.367
137.527	25.474	963.546	773.135
138.541	25.469	962.815	772.459
139.556	25.492	961.933	771.782
140.570	25.520	961.337	771.353
141.585	25.528	960.745	770.846
142.600	25.605	959.797	770.346
143.614	25.614	958.347	769.154
144.629	25.541	958.177	768.637
145.643	25.802	957.405	769.062
146.658	25.744	956.299	767.860
147.673	25.630	954.896	766.180
148.687	25.442	953.949	764.552
149.702	25.238	953.652	763.381
150.716	25.249	952.320	762.291
151.731	25.207	951.391	761.303
152.746	25.356	950.302	760.993
153.760	25.476	950.023	761.214
154.775	25.713	949.538	761.760
155.789	25.683	948.492	760.726
156.804	25.713	947.534	760.017
157.819	25.599	946.452	758.604
158.833	25.538	945.803	757.759
159.848	25.799	944.882	758.052
160.862	25.838	944.314	757.695
161.877	25.703	943.192	756.161
162.892	25.603	942.544	755.152
163.906	25.569	941.337	753.976
164.921	25.575	940.813	753.514
165.935	25.573	939.422	752.326
166.950	25.652	938.716	752.023
167.964	25.767	938.085	751.931
168.979	25.597	937.056	750.331
169.994	25.406	935.890	748.534
171.008	25.365	934.824	747.447
172.023	25.611	934.195	747.899
173.037	25.648	934.111	747.920
174.052	25.485	932.668	746.023
175.067	25.247	931.556	744.080
176.081	25.222	931.004	743.469
177.096	25.248	930.350	742.991
178.110	25.404	929.335	742.759
179.125	25.243	928.243	741.154
180.140	25.082	926.790	739.267
181.154	25.064	926.649	739.014
182.169	25.032	926.212	738.466
183.183	25.300	925.812	739.185
184.198	25.561	925.720	740.124
185.213	25.581	925.001	739.564
186.227	25.500	924.130	738.470
187.242	25.593	923.628	738.386
188.256	25.735	923.061	738.451
189.271	25.619	922.388	737.370
190.286	25.866	921.337	737.474
191.300	25.623	920.007	735.351
192.315	25.153	918.945	732.520
193.329	24.251	917.489	727.614
194.344	23.814	916.639	725.093
195.359	24.502	916.928	728.065
196.373	25.363	917.027	731.588
197.388	25.603	917.229	732.662
198.402	25.452	916.566	731.455
199.417	25.409	915.873	730.658
200.432	25.433	915.478	730.379
201.446	25.357	914.681	729.370
202.461	25.129	913.695	727.592
203.475	25.123	913.116	727.043
204.490	24.876	911.635	724.798
205.504	23.591	909.705	718.006
206.519	23.994	909.724	719.588
207.534	24.834	910.148	723.255
208.548	25.158	909.261	723.795
209.563	25.450	909.526	725.118
210.577	25.446	908.508	724.228
211.592	25.185	907.942	722.662
212.607	25.596	907.719	724.073
213.621	25.730	907.218	724.150
214.636	25.675	905.926	722.836
215.650	25.765	905.420	722.729
216.665	25.578	905.236	721.768
217.680	25.705	904.950	721.982
218.694	25.876	904.372	722.145
219.709	25.400	903.590	719.549
220.723	25.091	902.269	717.197
221.738	25.405	901.814	718.028
222.753	25.430	902.006	718.218
223.767	25.300	900.746	716.630
224.782	25.535	899.998	716.912
225.796	25.659	899.378	716.848
226.811	25.674	899.266	716.755
227.826	25.377	897.866	714.392
228.840	24.591	896.110	709.811
229.855	24.523	895.539	709.027
230.869	24.856	895.309	710.103
231.884	24.516	894.609	708.136
232.899	24.362	894.180	707.122
233.913	25.176	894.482	710.525
234.928	25.383	894.260	711.107
235.942	25.345	893.209	710.060
236.957	25.373	892.572	709.599
237.972	25.114	891.437	707.614
238.986	25.018	891.145	706.938
240.001	25.073	890.649	706.700
241.015	25.217	889.151	706.016
242.030	25.260	888.646	705.722
243.045	25.319	888.350	705.657
244.059	25.468	888.083	705.968
245.074	25.774	887.362	706.531
246.088	25.772	886.929	706.115
247.103	25.085	885.859	702.513
248.117	25.353	885.328	703.079
249.132	25.747	885.525	704.713
250.147	26.059	885.557	705.900
251.161	26.186	884.899	705.807
252.176	26.329	884.492	705.980
253.190	26.527	883.443	705.850
254.205	26.358	883.059	704.825
255.220	26.624	882.774	705.570
256.234	26.500	882.261	704.616
257.249	26.478	881.596	703.934
258.263	26.234	881.027	702.471
259.278	26.453	880.128	702.541
260.293	26.470	879.856	702.330
261.307	26.440	879.400	701.785
262.322	26.378	878.555	700.808
263.336	26.346	877.907	700.106
264.351	25.746	876.254	696.405
265.366	24.547	874.538	690.350
266.380	24.395	873.309	688.730
267.395	25.229	873.902	692.360
268.409	26.010	874.135	695.495
269.424	25.922	873.606	694.673
270.439	26.060	873.164	694.791
271.453	26.193	872.680	694.859
272.468	26.299	871.612	694.351
273.482	26.384	871.381	694.435
274.497	26.541	871.215	694.843
275.512	26.094	870.543	692.528
276.526	25.713	868.879	689.687
277.541	25.982	867.784	689.785
278.555	26.251	868.026	690.943
279.570	26.058	867.583	689.792
280.585	25.922	866.752	688.553
281.599	26.115	866.067	688.682
282.614	26.146	865.840	688.560
283.628	25.750	864.271	685.744
284.643	25.308	863.776	683.606
285.657	25.828	863.727	685.489
286.672	25.639	863.435	684.476
287.687	25.173	862.131	681.613
288.701	25.512	862.307	682.979
289.716	25.919	861.868	684.114
290.730	25.632	860.434	681.830
291.745	25.332	859.996	680.285
292.760	25.299	858.808	679.159
293.774	25.030	859.020	678.250
294.789	26.178	859.185	682.663
295.803	26.774	859.150	684.826
296.818	26.853	858.489	684.539
297.833	26.911	857.838	684.177
298.847	26.544	857.090	682.135
299.862	26.078	856.396	679.770
300.876	26.340	855.817	680.237
301.891	26.654	855.648	681.222
302.906	26.929	854.734	681.466
303.920	26.361	854.170	678.826
304.935	26.307	853.243	677.825
305.949	26.546	853.522	678.885
306.964	26.910	852.178	679.118
307.979	26.472	851.649	676.997
308.993	26.499	850.940	676.475
310.008	26.787	851.131	677.643
311.022	26.925	850.778	677.819
312.037	26.665	850.030	676.190
313.052	26.445	849.442	674.843
314.066	26.418	848.538	673.963
315.081	25.706	846.906	669.959
316.095	25.062	845.799	666.630
317.110	25.486	846.132	668.412
318.125	26.391	846.095	671.687
319.139	26.032	845.078	669.487
320.154	24.718	843.841	663.574
321.168	24.330	842.663	661.152
322.183	24.981	842.775	663.594
323.197	25.835	843.613	667.359
324.212	26.415	842.886	668.872
325.227	26.382	842.360	668.275
326.241	26.476	842.501	668.675
327.256	26.344	842.144	667.842
328.270	26.397	840.877	666.975
329.285	26.317	840.130	666.030
330.300	26.210	839.603	665.158
331.314	25.952	838.839	663.544
332.329	25.835	838.179	662.533
333.343	26.275	838.001	663.951
334.358	26.542	837.802	664.718
335.373	26.658	837.090	664.518
336.387	26.519	836.836	663.748
337.402	26.866	836.821	664.951
338.416	27.206	836.000	665.483
339.431	27.196	835.245	664.788
340.446	26.999	834.720	663.590
341.460	27.255	834.604	664.375
342.475	27.179	833.618	663.251
343.489	27.007	833.083	662.142
344.504	26.947	832.909	661.724
345.519	27.290	832.225	662.374
346.533	27.489	831.922	662.798
347.548	27.461	831.606	662.386
348.562	27.438	831.259	661.967
349.577	27.331	830.425	660.857
350.592	27.405	829.560	660.378
351.606	27.359	829.297	659.944
352.621	27.444	829.010	659.963
353.635	27.294	828.334	658.823
354.650	27.210	827.926	658.137
355.665	26.861	826.793	655.915
356.679	25.859	825.263	651.025
357.694	25.734	824.865	650.205
358.708	26.308	824.811	652.174
359.723	26.231	824.202	651.359
360.738	26.546	823.804	652.120
361.752	26.924	823.942	653.535
362.767	27.069	823.751	653.847
363.781	27.394	823.114	654.450
364.796	27.607	823.476	655.448
365.810	27.806	822.774	655.547
366.825	27.872	822.264	655.317
367.840	27.734	822.094	654.629
368.854	27.655	821.394	653.730
369.869	27.204	820.650	651.465
370.883	26.970	819.720	649.831
371.898	27.020	819.296	649.617
372.913	27.061	818.658	649.201
373.927	27.036	817.884	648.439
374.942	27.278	817.276	648.765
375.956	27.311	816.773	648.424
376.971	27.449	816.174	648.382
377.986	27.560	815.991	648.576
379.000	27.762	815.462	648.818
380.015	27.857	814.900	648.648
381.029	27.604	814.402	647.295
382.044	27.405	813.878	646.116
383.059	27.669	813.374	646.596
384.073	27.686	812.818	646.157
385.088	27.767	812.254	645.939
386.102	27.700	811.791	645.278
387.117	27.465	811.008	643.765
388.132	27.514	810.731	643.663
389.146	27.205	809.677	641.677
390.161	26.774	808.952	639.526
391.175	26.802	808.531	639.237
392.190	27.276	808.850	641.103
393.205	27.518	807.777	641.048
394.219	26.248	806.411	635.444
395.234	24.718	804.129	628.219
396.248	23.919	803.384	624.774
397.263	24.895	804.077	628.688
398.278	26.891	805.390	636.671
399.292	27.311	805.331	638.041
400.307	26.936	804.631	636.116
401.321	26.863	804.288	635.531
402.336	27.156	803.519	635.894
403.350	27.362	803.268	636.359
404.365	27.705	803.515	637.697
405.380	28.026	803.260	638.560
406.394	28.316	802.959	639.277
407.409	28.626	802.489	639.927
408.423	28.399	802.294	638.924
409.438	28.374	801.553	638.192
410.453	28.303	801.233	637.631
411.467	28.386	801.038	637.708
412.482	28.292	800.531	636.923
413.496	28.396	799.661	636.534
414.511	28.364	799.542	636.274
415.526	28.571	798.939	636.456
416.540	28.432	798.973	635.942
417.555	28.338	798.252	634.987
418.569	28.056	797.659	633.484
419.584	28.005	796.971	632.704
420.599	28.195	796.599	633.009
421.613	111.258	1285.501	1457.919
422.628	95.880	1356.738	1457.995
