DTS Sentinel unit serial number:	SN413079Multiplexer serial number:	ORYXHardware model number:	OX4-SRSoftware version number:	ORYX F/W v4.00 Oryx Data Collector v3.7.2.0data status	okinstallation	princeton_trtdifferential loss correction	single-endedforward channel	channel 3reverse channel	N/Adate	2019/09/11time	23:42:10forward acquisition time	60.00reverse acquisition time	0.00gamma	496.2192k internal	0.2318k external	0.2318temperature offset calibration	1.0056default loss term (dB/km)	0.3790temperature slope calibration	1.0000multiplexer offset coefficient	1.0000multiplexer slope coefficient	1.0000fibre end	0.00T internal ref (°C)	34.06T ext. ref 1 (°C)	1.91T ext. ref 2 (°C)	28.00length (m)	temperature (°C)	Stokes	anti-Stokes-747.200	-55.092	-0.406	-0.185
-746.185	272.909	-0.205	0.367
-745.171	-200.000	-0.008	-0.231
-744.156	-121.833	-0.166	0.028
-743.142	-74.172	0.114	0.042
-742.127	-200.000	-0.017	0.105
-741.112	619.243	-0.124	0.315
-740.098	-60.265	0.321	0.138
-739.083	271.805	-0.043	0.077
-738.069	-62.754	-0.261	0.109
-737.054	800.000	-0.062	0.175
-736.039	-78.289	-0.379	0.132
-735.025	3.759	0.249	-0.184
-734.010	-97.653	-0.265	0.069
-732.996	-200.000	-0.024	0.280
-731.981	195.488	0.118	-0.182
-730.966	244.019	0.231	0.392
-729.952	-98.628	0.416	0.107
-728.937	606.094	-0.166	-0.418
-727.923	800.000	-0.109	-0.338
-726.908	-3.265	0.199	-0.140
-725.894	36.664	-0.322	-0.287
-724.879	-82.154	-0.345	-0.114
-723.864	-91.809	-0.046	0.013
-722.850	800.000	-0.019	0.054
-721.835	800.000	-0.119	0.357
-720.821	-149.245	0.140	-0.011
-719.806	-107.342	-0.115	0.026
-718.791	236.918	-0.174	-0.292
-717.777	96.718	0.158	-0.183
-716.762	-102.820	0.072	0.017
-715.748	363.304	0.108	-0.218
-714.733	96.897	0.345	-0.400
-713.718	221.471	-0.104	-0.170
-712.704	562.318	-0.159	-0.390
-711.689	-128.024	0.085	0.012
-710.675	-117.118	-0.157	0.029
-709.660	254.995	-0.178	0.309
-708.645	8.811	-0.290	-0.221
-707.631	86.551	0.273	-0.304
-706.616	11.318	-0.093	-0.072
-705.602	479.937	0.045	0.102
-704.587	-70.894	0.212	0.081
-703.572	138.021	-0.139	0.184
-702.558	282.706	-0.098	-0.178
-701.543	26.951	0.108	-0.091
-700.529	-58.530	0.316	-0.138
-699.514	-65.810	0.402	0.163
-698.499	124.492	-0.291	-0.369
-697.485	800.000	0.120	0.404
-696.470	753.800	-0.016	-0.044
-695.456	-75.098	0.240	0.087
-694.441	375.635	0.150	-0.308
-693.426	-200.000	-0.014	0.103
-692.412	-62.668	-0.111	0.047
-691.397	103.845	0.172	0.204
-690.383	-75.064	0.188	-0.068
-689.368	-89.438	-0.455	0.135
-688.354	-200.000	-0.010	-0.087
-687.339	200.354	0.060	0.094
-686.324	43.983	-0.117	-0.109
-685.310	35.629	0.128	0.113
-684.295	130.126	-0.123	-0.159
-683.281	-30.086	-0.192	-0.110
-682.266	-98.886	0.230	0.059
-681.251	-200.000	0.060	-0.330
-680.237	-200.000	0.004	-0.042
-679.222	508.477	0.137	0.320
-678.208	-16.596	-0.353	0.226
-677.193	475.006	0.076	-0.173
-676.178	-130.984	-0.270	0.036
-675.164	-14.063	0.107	-0.070
-674.149	-200.000	0.036	0.175
-673.135	191.389	0.089	-0.136
-672.120	7.571	-0.418	0.316
-671.105	48.382	-0.231	0.219
-670.091	652.229	-0.029	-0.074
-669.076	89.315	0.223	0.251
-668.062	-146.403	-0.279	0.025
-667.047	-200.000	-0.009	-0.411
-666.032	-128.118	0.395	0.057
-665.018	-200.000	0.000	0.245
-664.003	274.930	0.117	0.208
-662.989	-200.000	-0.025	-0.221
-661.974	-62.957	0.100	0.042
-660.959	38.048	-0.232	-0.208
-659.945	339.195	0.090	0.176
-658.930	-97.014	-0.119	0.031
-657.916	498.179	-0.192	0.447
-656.901	-200.000	0.054	-0.260
-655.886	800.000	0.083	-0.245
-654.872	-44.830	0.216	0.108
-653.857	-98.170	0.175	-0.045
-652.843	177.759	0.107	0.157
-651.828	800.000	0.043	-0.121
-650.814	-66.212	-0.075	-0.030
-649.799	161.955	0.050	-0.071
-648.784	-57.828	0.276	-0.122
-647.770	-200.000	-0.002	-0.076
-646.755	102.370	0.076	0.090
-645.741	101.900	0.069	0.081
-644.726	73.553	-0.210	0.222
-643.711	154.376	0.098	0.136
-642.697	295.004	0.033	0.061
-641.682	-200.000	0.058	-0.353
-640.668	533.060	0.055	0.130
-639.653	-19.994	-0.158	0.098
-638.638	800.000	0.082	0.285
-637.624	18.102	0.082	-0.066
-636.609	-3.883	0.231	-0.162
-635.595	-200.000	-0.010	-0.122
-634.580	212.970	-0.174	0.277
-633.565	26.894	0.118	-0.100
-632.551	-200.000	-0.024	-0.389
-631.536	99.988	0.166	0.194
-630.522	-24.880	-0.149	-0.089
-629.507	-200.000	0.070	-0.408
-628.492	138.473	0.155	0.205
-627.478	-158.587	0.409	-0.024
-626.463	125.677	-0.183	0.233
-625.449	-144.754	0.226	0.021
-624.434	-61.428	0.055	0.023
-623.419	187.534	0.043	-0.064
-622.405	-9.547	-0.142	0.095
-621.390	-111.834	0.325	-0.066
-620.376	-200.000	0.062	0.351
-619.361	75.398	0.196	0.208
-618.346	-115.270	0.199	-0.038
-617.332	370.191	-0.028	-0.058
-616.317	-200.000	0.012	0.179
-615.303	198.972	0.092	-0.142
-614.288	-60.619	0.182	-0.078
-613.273	106.924	-0.020	0.024
-612.259	-104.297	-0.041	-0.010
-611.244	95.425	-0.135	0.155
-610.230	62.158	-0.171	0.171
-609.215	-119.355	-0.350	-0.061
-608.201	-148.903	-0.278	-0.023
-607.186	119.577	-0.206	0.257
-606.171	-75.669	0.256	-0.092
-605.157	626.527	-0.011	-0.029
-604.142	-25.564	-0.262	-0.156
-603.128	38.120	-0.182	-0.163
-602.113	31.904	-0.339	-0.294
-601.098	-200.000	-0.000	0.073
-600.084	408.318	-0.154	0.328
-599.069	244.203	-0.158	-0.268
-598.055	-69.340	-0.180	0.069
-597.040	-200.000	-0.006	-0.079
-596.025	-200.000	0.031	-0.233
-595.011	-57.016	-0.059	0.026
-593.996	800.000	-0.108	0.382
-592.982	-104.894	0.232	-0.054
-591.967	218.183	-0.111	-0.178
-590.952	800.000	0.045	-0.157
-589.938	-200.000	-0.079	0.390
-588.923	188.437	-0.197	-0.297
-587.909	-200.000	0.009	-0.390
-586.894	189.372	-0.095	-0.144
-585.879	531.672	-0.132	0.313
-584.865	-200.000	0.028	0.194
-583.850	-200.000	0.001	0.019
-582.836	800.000	0.053	-0.187
-581.821	800.000	0.067	-0.257
-580.806	-108.617	-0.190	0.041
-579.792	-200.000	0.003	0.047
-578.777	92.460	0.128	0.146
-577.763	56.516	-0.114	0.112
-576.748	-200.000	-0.004	-0.072
-575.733	607.619	0.089	0.222
-574.719	-77.660	0.153	-0.053
-573.704	456.930	-0.055	0.123
-572.690	-48.686	0.144	0.069
-571.675	800.000	0.109	0.326
-570.661	76.193	0.143	0.152
-569.646	4.424	-0.189	-0.139
-568.631	60.339	0.333	0.331
-567.617	-200.000	-0.036	0.167
-566.602	178.974	-0.095	0.140
-565.588	2.291	0.118	-0.086
-564.573	-113.087	0.045	0.009
-563.558	218.602	-0.076	0.122
-562.544	375.833	0.126	-0.259
-561.529	800.000	-0.114	0.448
-560.515	783.550	-0.102	-0.280
-559.500	-1.830	0.152	-0.107
-558.485	52.529	-0.241	-0.232
-557.471	-200.000	0.010	0.290
-556.456	-200.000	-0.007	0.183
-555.442	178.609	-0.075	0.110
-554.427	-163.086	-0.152	0.007
-553.412	800.000	0.020	-0.065
-552.398	-8.084	0.167	0.113
-551.383	33.747	0.166	-0.145
-550.369	243.663	0.149	-0.252
-549.354	74.155	0.129	0.137
-548.339	51.319	0.274	-0.261
-547.325	65.232	-0.115	0.117
-546.310	558.486	0.038	0.092
-545.296	330.104	-0.174	-0.336
-544.281	-200.000	0.001	0.089
-543.266	-200.000	-0.010	-0.060
-542.252	-115.233	0.155	-0.029
-541.237	423.901	0.096	0.208
-540.223	-200.000	0.000	-0.178
-539.208	-106.531	0.180	0.040
-538.193	-119.470	-0.085	0.015
-537.179	-200.000	0.020	-0.162
-536.164	-161.790	-0.334	0.017
-535.150	800.000	0.053	-0.154
-534.135	46.710	-0.267	-0.249
-533.121	-122.966	0.423	0.068
-532.106	800.000	0.021	0.067
-531.091	-90.198	0.364	0.106
-530.077	-200.000	0.017	-0.184
-529.062	93.593	0.140	-0.159
-528.048	800.000	0.108	-0.412
-527.033	108.265	0.174	-0.209
-526.018	-198.933	-0.537	0.003
-525.004	102.902	-0.110	-0.129
-523.989	-46.496	0.206	0.101
-522.975	-73.851	0.129	-0.047
-521.960	-118.410	-0.073	-0.013
-520.945	641.793	0.178	-0.455
-519.931	607.891	-0.067	0.168
-518.916	42.426	-0.199	-0.182
-517.902	240.683	0.163	0.273
-516.887	-103.145	-0.157	0.037
-515.872	800.000	0.033	-0.114
-514.858	-200.000	-0.024	0.299
-513.843	375.247	-0.102	-0.209
-512.829	294.283	-0.058	0.105
-511.814	279.491	0.124	-0.221
-510.799	-129.097	0.195	-0.027
-509.785	484.727	-0.110	0.252
-508.770	-200.000	0.012	-0.115
-507.756	-4.475	0.181	-0.126
-506.741	47.897	0.059	-0.055
-505.726	-15.132	0.045	-0.029
-504.712	-103.616	-0.321	-0.076
-503.697	47.316	-0.137	-0.128
-502.683	28.879	-0.091	0.077
-501.668	-200.000	0.032	0.150
-500.653	130.057	-0.130	-0.166
-499.639	436.267	-0.082	-0.179
-498.624	-154.318	-0.068	0.005
-497.610	-93.409	0.435	-0.121
-496.595	-15.794	0.062	0.039
-495.581	-1.666	0.088	0.062
-494.566	13.609	0.106	0.082
-493.551	533.756	0.061	-0.145
-492.537	-54.208	0.141	-0.064
-491.522	-200.000	-0.032	-0.228
-490.508	-40.912	-0.371	0.192
-489.493	-200.000	0.045	0.531
-488.478	-153.264	-0.199	0.014
-487.464	8.068	-0.266	-0.200
-486.449	156.242	-0.144	0.198
-485.435	800.000	-0.037	0.102
-484.420	800.000	-0.035	-0.141
-483.405	-98.473	-0.185	-0.047
-482.391	800.000	-0.052	-0.214
-481.376	800.000	0.031	0.112
-480.362	110.783	0.067	0.081
-479.347	9.078	0.173	-0.131
-478.332	-142.595	0.043	-0.004
-477.318	6.089	0.231	0.172
-476.303	40.417	0.166	-0.150
-475.289	692.344	-0.027	0.071
-474.274	410.768	-0.177	0.376
-473.259	-200.000	-0.054	0.436
-472.245	46.326	-0.210	-0.195
-471.230	800.000	-0.030	0.092
-470.216	-121.759	-0.243	-0.040
-469.201	167.140	-0.072	0.102
-468.186	-119.347	0.380	0.066
-467.172	63.406	-0.127	0.128
-466.157	-200.000	-0.013	-0.394
-465.143	-108.693	0.190	-0.041
-464.128	51.444	0.055	-0.052
-463.113	569.928	-0.106	-0.257
-462.099	165.899	-0.087	0.123
-461.084	205.892	0.036	0.056
-460.070	-80.356	0.156	-0.052
-459.055	-50.196	-0.329	-0.156
-458.040	609.985	-0.088	-0.219
-457.026	69.545	0.214	-0.221
-456.011	800.000	-0.053	0.189
-454.997	-55.950	-0.337	0.151
-453.982	-55.565	-0.184	0.082
-452.968	96.944	-0.115	-0.132
-451.953	-200.000	0.083	0.366
-450.938	-76.013	-0.289	0.102
-449.924	-131.502	0.259	-0.034
-448.909	-22.349	-0.301	0.183
-447.895	410.397	-0.033	0.071
-446.880	25.567	0.156	-0.129
-445.865	-200.000	-0.020	0.120
-444.851	169.424	-0.135	-0.193
-443.836	800.000	-0.063	0.275
-442.822	-152.138	-0.162	-0.012
-441.807	-121.346	-0.284	0.047
-440.792	415.310	-0.058	0.124
-439.778	-200.000	-0.113	-0.000
-438.763	-127.028	-0.350	-0.051
-437.749	20.407	-0.097	0.078
-436.734	0.648	0.168	0.120
-435.719	-10.881	0.154	0.102
-434.705	-94.772	-0.211	-0.057
-433.690	-36.117	0.219	0.118
-432.676	-169.235	0.256	0.009
-431.661	-92.063	-0.211	0.060
-430.646	-143.309	-0.255	0.024
-429.632	-73.033	-0.097	0.035
-428.617	-200.000	0.007	0.254
-427.603	-123.138	0.016	0.003
-426.588	-68.225	-0.343	0.133
-425.573	800.000	-0.084	-0.322
-424.559	160.307	0.071	0.099
-423.544	610.823	-0.228	0.570
-422.530	800.000	0.042	0.178
-421.515	-93.442	-0.308	-0.085
-420.500	800.000	-0.128	-0.375
-419.486	-200.000	0.002	-0.089
-418.471	481.425	0.089	-0.201
-417.457	-105.965	-0.109	0.025
-416.442	800.000	0.030	-0.124
-415.428	47.435	-0.154	-0.144
-414.413	-41.067	0.113	-0.058
-413.398	-126.991	0.281	0.041
-412.384	-95.113	-0.227	-0.061
-411.369	206.979	0.212	0.331
-410.355	109.096	-0.052	-0.062
-409.340	-62.011	-0.249	0.104
-408.325	42.952	0.083	0.076
-407.311	45.906	0.448	0.414
-406.296	68.391	-0.131	-0.134
-405.282	-61.164	-0.355	-0.150
-404.267	17.678	0.181	-0.144
-403.252	-144.491	-0.216	0.020
-402.238	201.509	0.076	0.117
-401.223	142.128	0.156	-0.206
-400.209	-12.266	0.026	0.017
-399.194	-123.507	-0.173	0.027
-398.179	-145.679	0.161	0.014
-397.165	800.000	0.059	0.198
-396.150	-1.090	-0.062	0.044
-395.136	188.148	0.123	-0.184
-394.121	-77.567	-0.228	0.079
-393.106	348.615	0.049	-0.097
-392.092	-59.473	-0.300	0.129
-391.077	-115.039	-0.647	0.123
-390.063	-88.573	0.213	0.063
-389.048	-200.000	0.019	-0.109
-388.033	-15.703	-0.287	0.183
-387.019	-200.000	0.018	0.085
-386.004	-55.972	0.154	0.069
-384.990	-200.000	0.022	-0.230
-383.975	389.778	0.076	0.158
-382.960	66.682	0.271	-0.276
-381.946	10.541	-0.113	0.086
-380.931	196.588	0.139	0.211
-379.917	-171.062	-0.272	-0.009
-378.902	-142.611	-0.160	-0.016
-377.888	-53.283	0.240	0.110
-376.873	91.673	0.148	-0.167
-375.858	99.355	0.240	-0.276
-374.844	-125.228	0.097	-0.015
-373.829	182.882	0.172	-0.253
-372.815	-200.000	-0.047	0.233
-371.800	44.888	-0.073	0.067
-370.785	64.960	0.244	-0.246
-369.771	238.850	-0.169	0.281
-368.756	-61.460	-0.044	-0.018
-367.742	-118.471	0.232	0.041
-366.727	-100.396	0.373	-0.092
-365.712	-117.485	0.243	-0.044
-364.698	800.000	-0.066	-0.188
-363.683	-95.467	0.241	0.064
-362.669	-56.878	-0.224	-0.098
-361.654	165.469	0.146	0.206
-360.639	226.753	0.110	0.177
-359.625	-200.000	-0.049	0.266
-358.610	13.927	0.158	-0.123
-357.596	-126.013	-0.278	-0.042
-356.581	-15.023	-0.190	-0.122
-355.566	-42.280	0.166	-0.085
-354.552	421.649	-0.039	0.083
-353.537	-9.330	0.244	0.162
-352.523	-92.013	-0.365	-0.103
-351.508	22.300	0.086	-0.070
-350.493	647.230	0.086	-0.218
-349.479	-200.000	0.047	0.226
-348.464	-81.771	0.131	-0.043
-347.450	-105.709	-0.436	-0.098
-346.435	-164.644	-0.126	-0.006
-345.420	800.000	-0.061	-0.213
-344.406	-99.721	0.070	-0.017
-343.391	-0.486	0.199	-0.140
-342.377	-13.117	-0.327	0.211
-341.362	-155.691	0.297	0.019
-340.348	-200.000	0.017	-0.347
-339.333	-200.000	0.022	-0.140
-338.318	28.318	-0.238	0.200
-337.304	16.761	0.118	0.093
-336.289	-31.982	0.232	0.129
-335.275	800.000	0.086	-0.316
-334.260	-28.849	0.419	-0.240
-333.245	-117.765	-0.175	0.031
-332.231	800.000	-0.021	-0.081
-331.216	281.488	0.042	0.074
-330.202	-200.000	-0.006	0.267
-329.187	-119.417	-0.296	-0.051
-328.172	-200.000	-0.029	-0.259
-327.158	-153.312	0.231	-0.016
-326.143	-200.000	0.018	-0.280
-325.129	59.669	0.134	0.131
-324.114	225.892	-0.152	-0.245
-323.099	535.822	0.123	0.290
-322.085	-200.000	0.019	-0.145
-321.070	-90.533	0.100	0.029
-320.056	800.000	-0.037	-0.139
-319.041	128.280	-0.125	-0.158
-318.026	-89.782	0.113	-0.033
-317.012	-74.290	0.200	0.072
-315.997	800.000	-0.020	0.073
-314.983	-79.367	-0.103	0.035
-313.968	641.172	0.103	0.261
-312.953	800.000	0.084	0.257
-311.939	9.194	-0.213	0.160
-310.924	800.000	0.132	-0.389
-309.910	-125.276	0.207	0.032
-308.895	-100.000	-0.265	-0.066
-307.880	75.820	0.115	-0.120
-306.866	-164.769	-0.249	-0.011
-305.851	549.297	0.066	0.157
-304.837	252.211	0.053	-0.089
-303.822	-85.711	-0.037	0.011
-302.807	85.669	0.280	0.306
-301.793	-200.000	-0.003	-0.453
-300.778	-200.000	0.066	0.450
-299.764	-13.591	0.302	-0.194
-298.749	28.854	-0.287	-0.242
-297.735	102.402	-0.121	-0.140
-296.720	-17.127	-0.172	-0.108
-295.705	-83.085	-0.095	-0.030
-294.691	-200.000	0.019	0.237
-293.676	98.058	-0.129	-0.147
-292.662	-20.173	-0.123	-0.075
-291.647	691.823	0.092	0.240
-290.632	-38.742	0.294	-0.154
-289.618	586.772	0.041	-0.101
-288.603	-200.000	0.014	-0.176
-287.589	800.000	0.120	0.418
-286.574	-200.000	0.031	0.184
-285.559	22.944	0.256	-0.209
-284.545	484.020	0.089	-0.202
-283.530	800.000	-0.086	0.252
-282.516	210.567	-0.131	-0.205
-281.501	-47.744	0.139	-0.067
-280.486	3.116	-0.319	0.230
-279.472	800.000	0.065	-0.233
-278.457	-113.894	0.151	-0.029
-277.443	-165.373	0.275	0.012
-276.428	800.000	0.044	0.149
-275.413	-74.613	-0.286	-0.102
-274.399	88.889	0.340	0.375
-273.384	800.000	-0.051	0.166
-272.370	237.176	0.085	-0.140
-271.355	-200.000	-0.034	0.250
-270.340	-30.324	-0.123	0.070
-269.326	-120.325	0.204	0.035
-268.311	88.731	-0.029	0.032
-267.297	611.035	0.088	-0.218
-266.282	800.000	0.069	0.241
-265.267	-66.660	0.020	0.008
-264.253	137.103	0.094	0.123
-263.238	77.305	-0.250	0.265
-262.224	746.804	0.157	-0.421
-261.209	4.631	0.292	-0.213
-260.195	-0.980	-0.116	0.082
-259.180	77.858	0.088	0.093
-258.165	800.000	-0.031	0.110
-257.151	-71.761	-0.034	0.013
-256.136	-200.000	0.022	-0.151
-255.122	352.306	-0.071	-0.140
-254.107	77.209	0.211	0.223
-253.092	283.933	0.031	0.056
-252.078	-200.000	0.012	-0.058
-251.063	-185.478	-0.335	-0.005
-250.049	55.130	-0.022	-0.021
-249.034	246.634	-0.125	-0.209
-248.019	583.564	0.094	0.228
-247.005	66.736	0.146	-0.147
-245.990	87.966	0.110	-0.121
-244.976	268.133	-0.039	-0.069
-243.961	788.487	0.154	0.420
-242.946	-200.000	0.065	-0.305
-241.932	-200.000	-0.038	-0.288
-240.917	175.666	0.178	-0.256
-239.903	5.933	0.288	-0.212
-238.888	-79.984	-0.074	-0.025
-237.873	-48.552	-0.290	-0.138
-236.859	25.947	0.248	0.205
-235.844	-200.000	0.007	0.125
-234.830	142.616	-0.076	0.100
-233.815	-8.551	0.036	-0.024
-232.800	-192.278	-0.318	-0.003
-231.786	-17.559	-0.160	-0.100
-230.771	521.454	0.071	0.165
-229.757	-200.000	-0.047	-0.209
-228.742	-19.413	0.168	-0.103
-227.727	-200.000	-0.006	-0.336
-226.713	155.119	0.113	-0.154
-225.698	-67.047	0.308	-0.120
-224.684	518.416	-0.072	-0.168
-223.669	-160.398	-0.189	0.010
-222.655	294.009	-0.018	0.032
-221.640	-200.000	0.035	-0.159
-220.625	-200.000	0.035	0.170
-219.611	-24.861	0.093	0.055
-218.596	497.464	0.063	0.145
-217.582	-200.000	0.020	0.142
-216.567	-200.000	0.027	0.269
-215.552	800.000	-0.074	0.292
-214.538	-73.302	0.081	0.029
-213.523	-200.000	-0.007	0.236
-212.509	800.000	0.029	-0.121
-211.494	-200.000	0.001	-0.277
-210.479	-1.987	-0.151	0.105
-209.465	-200.000	-0.027	-0.199
-208.450	-46.163	0.366	0.179
-207.436	-91.030	-0.312	-0.089
-206.421	-81.696	-0.250	-0.081
-205.406	-89.625	0.196	-0.057
-204.392	41.065	-0.115	-0.103
-203.377	92.071	-0.110	0.122
-202.363	-200.000	0.006	-0.152
-201.348	-100.392	0.381	-0.093
-200.333	-19.975	0.184	0.112
-199.319	152.085	-0.260	0.352
-198.304	-200.000	-0.007	-0.096
-197.290	800.000	0.023	0.073
-196.275	-200.000	-0.055	-0.301
-195.260	800.000	0.032	0.113
-194.246	-4.111	-0.131	-0.090
-193.231	-200.000	0.080	-0.408
-192.217	25.518	0.090	0.075
-191.202	-114.508	-0.218	-0.041
-190.187	430.528	0.204	-0.437
-189.173	-63.401	0.167	0.068
-188.158	-200.000	0.006	0.029
-187.144	-3.354	-0.082	-0.056
-186.129	-117.797	0.063	0.011
-185.114	-13.312	-0.395	0.254
-184.100	-28.504	-0.145	0.083
-183.085	-8.781	0.224	0.149
-182.071	800.000	0.067	-0.213
-181.056	-200.000	0.056	-0.243
-180.042	130.040	-0.252	-0.319
-179.027	51.374	0.255	0.240
-178.012	-200.000	-0.008	0.397
-176.998	33.729	-0.159	0.137
-175.983	669.194	0.077	-0.198
-174.969	-86.085	-0.354	0.108
-173.954	-175.981	0.214	0.006
-172.939	-200.000	0.030	0.219
-171.925	80.690	-0.149	-0.159
-170.910	-59.615	-0.181	0.077
-169.896	679.680	0.086	-0.222
-168.881	79.548	-0.184	-0.196
-167.866	103.986	-0.162	0.188
-166.852	544.254	0.039	0.091
-165.837	800.000	0.072	-0.288
-164.823	86.364	-0.222	0.243
-163.808	327.639	-0.183	0.347
-162.793	-184.150	-0.173	-0.003
-161.779	-0.713	-0.228	-0.160
-160.764	-99.788	-0.201	-0.050
-159.750	-0.580	0.307	-0.216
-158.735	-30.519	0.095	0.053
-157.720	108.890	0.174	0.205
-156.706	104.458	-0.123	0.143
-155.691	416.688	0.043	0.091
-154.677	-200.000	0.054	0.300
-153.662	105.962	0.149	0.175
-152.647	-13.995	0.089	-0.057
-151.633	239.384	0.159	0.261
-150.618	46.722	0.051	0.047
-149.604	-76.154	-0.170	-0.059
-148.589	179.831	-0.196	-0.284
-147.574	64.690	0.225	-0.225
-146.560	-195.505	-0.365	0.003
-145.545	-134.518	0.399	0.048
-144.531	-83.134	0.248	-0.079
-143.516	611.388	-0.043	0.107
-142.502	-65.443	-0.067	0.027
-141.487	76.284	-0.101	0.106
-140.472	-200.000	-0.001	0.028
-139.458	-156.691	-0.371	0.023
-138.443	-200.000	0.006	0.104
-137.429	-150.387	0.104	-0.008
-136.414	-200.000	0.013	0.094
-135.399	-72.498	0.193	-0.070
-134.385	-143.202	-0.066	-0.006
-133.370	-147.048	0.361	-0.031
-132.356	164.138	0.281	0.392
-131.341	51.259	-0.320	0.300
-130.326	-78.215	0.149	0.051
-129.312	800.000	-0.108	0.426
-128.297	-96.567	-0.036	0.009
-127.283	-105.707	-0.100	-0.022
-126.268	473.263	-0.172	-0.383
-125.253	-89.675	-0.121	0.035
-124.239	277.272	-0.063	-0.111
-123.224	-103.962	0.241	0.055
-122.210	614.207	0.087	0.216
-121.195	155.294	0.175	-0.238
-120.180	-200.000	0.026	-0.346
-119.166	-103.559	0.143	-0.033
-118.151	-32.711	-0.236	0.130
-117.137	-127.862	-0.164	0.023
-116.122	323.673	0.101	0.190
-115.107	157.212	0.018	0.024
-114.093	800.000	-0.035	0.121
-113.078	-63.646	0.163	0.066
-112.064	-98.848	0.129	0.032
-111.049	28.550	-0.065	-0.055
-110.034	94.976	0.403	-0.453
-109.020	58.478	0.152	-0.148
-108.005	32.148	0.067	0.057
-106.991	-200.000	0.028	0.253
-105.976	169.964	-0.077	0.109
-104.962	-21.685	0.329	-0.198
-103.947	-200.000	-0.022	-0.218
-102.932	-200.000	0.111	-0.514
-101.918	800.000	-0.108	0.388
-100.903	-162.619	-0.309	-0.015
-99.889	800.000	0.097	-0.290
-98.874	-162.609	0.226	-0.011
-97.859	-30.346	-0.062	-0.035
-96.845	602.754	0.190	-0.467
-95.830	-200.000	0.027	-0.194
-94.816	-121.097	-0.231	0.038
-93.801	-151.256	0.173	-0.013
-92.786	-0.383	-0.154	0.108
-91.772	-158.798	-0.092	-0.005
-90.757	-66.734	-0.084	-0.033
-89.743	-56.118	0.287	-0.126
-88.728	-200.000	0.013	-0.327
-87.713	-107.864	0.372	-0.080
-86.699	800.000	0.082	-0.240
-85.684	-67.299	0.098	-0.038
-84.670	800.000	0.091	0.309
-83.655	-200.000	0.002	0.128
-82.640	-200.000	0.022	0.246
-81.626	702.163	0.106	-0.275
-80.611	-200.000	-0.045	0.226
-79.597	-48.453	0.296	-0.140
-78.582	-139.968	0.516	-0.054
-77.567	800.000	-0.036	0.102
-76.553	-65.465	0.143	-0.057
-75.538	72.854	-0.175	-0.180
-74.524	-200.000	-0.070	-0.348
-73.509	-95.228	0.415	0.110
-72.494	8.086	0.119	0.088
-71.480	-73.039	-0.302	0.109
-70.465	455.715	-0.026	0.056
-69.451	10.317	-0.207	-0.155
-68.436	-42.838	0.221	0.110
-67.422	213.692	-0.174	-0.272
-66.407	104.205	0.301	0.349
-65.392	727.035	0.165	-0.434
-64.378	-134.202	-0.356	-0.043
-63.363	-160.734	0.176	-0.009
-62.349	186.762	-0.109	-0.160
-61.334	16.137	-1.033	-0.802
-60.319	-142.959	0.309	0.029
-59.305	-200.000	0.065	-0.874
-58.290	154.788	0.782	1.059
-57.276	402.600	0.803	1.663
-56.261	-200.000	97.039	582.886
-55.246	543.724	1392.215	3273.848
-54.232	154.309	2586.121	3496.606
-53.217	111.919	2175.153	2588.041
-52.203	44.224	1712.611	1547.926
-51.188	37.171	1525.536	1330.650
-50.173	34.901	1498.082	1291.345
-49.159	54.067	1548.534	1466.851
-48.144	57.054	1567.613	1505.373
-47.130	37.463	1524.342	1331.394
-46.115	34.370	1508.726	1296.700
-45.100	34.135	1505.249	1292.065
-44.086	34.114	1503.394	1290.280
-43.071	34.109	1501.783	1288.812
-42.057	34.069	1500.382	1287.287
-41.042	34.112	1498.291	1285.735
-40.027	34.038	1496.826	1283.924
-39.013	34.062	1495.806	1283.164
-37.998	34.060	1494.603	1282.066
-36.984	34.055	1493.586	1281.111
-35.969	34.057	1491.878	1279.608
-34.954	34.040	1490.206	1278.008
-33.940	34.060	1489.058	1277.109
-32.925	33.972	1487.905	1275.479
-31.911	34.063	1486.489	1274.821
-30.896	34.128	1485.419	1274.292
-29.881	34.182	1483.813	1273.220
-28.867	34.120	1482.536	1271.658
-27.852	34.132	1480.964	1270.341
-26.838	34.222	1479.368	1269.525
-25.823	34.163	1478.281	1268.146
-24.809	34.108	1477.060	1266.682
-23.794	34.074	1475.223	1264.829
-22.779	34.002	1474.100	1263.340
-21.765	34.129	1472.834	1263.046
-20.750	34.125	1471.547	1261.868
-19.736	34.117	1470.744	1261.078
-18.721	34.117	1469.508	1259.967
-17.706	34.147	1468.525	1259.268
-16.692	34.205	1467.055	1258.342
-15.677	33.977	1466.671	1256.461
-14.663	33.983	1465.955	1255.836
-13.648	33.972	1465.202	1255.066
-12.633	33.981	1464.022	1254.068
-11.619	34.061	1462.897	1253.581
-10.604	34.013	1462.075	1252.508
-9.590	33.998	1461.207	1251.615
-8.575	33.983	1460.629	1250.972
-7.560	34.011	1460.013	1250.583
-6.546	34.039	1458.845	1249.718
-5.531	33.994	1457.932	1248.586
-4.517	34.048	1456.345	1247.533
-3.502	33.989	1456.303	1247.058
-2.487	34.067	1454.336	1245.836
-1.473	33.978	1454.247	1245.126
-0.458	34.093	1452.157	1244.040
0.556	34.356	1442.979	1232.872
1.571	31.437	1417.707	1192.589
2.586	28.031	1357.795	1121.238
3.600	26.423	1276.055	1044.367
4.615	25.207	1230.190	999.969
5.629	21.729	1173.289	935.109
6.644	11.466	1086.566	814.933
7.659	3.268	1043.040	742.799
8.673	2.184	1037.270	733.422
9.688	1.874	1033.898	729.490
10.702	1.760	1032.192	727.680
11.717	1.833	1030.359	726.669
12.731	5.561	1035.383	747.988
13.746	15.625	1049.027	806.283
14.761	23.285	1058.820	850.683
15.775	24.809	1060.084	858.950
16.790	25.049	1059.782	859.779
17.804	24.944	1058.819	858.417
18.819	24.789	1057.954	856.899
19.834	24.828	1057.427	856.583
20.848	24.966	1057.170	856.959
21.863	24.989	1057.006	856.863
22.877	25.049	1056.507	856.665
23.892	24.917	1055.657	855.270
24.907	24.840	1054.969	854.272
25.921	24.942	1054.086	853.965
26.936	24.808	1053.652	852.901
27.950	24.840	1052.397	851.964
28.965	24.895	1051.143	851.132
29.980	24.697	1049.925	849.131
30.994	24.719	1048.607	848.093
32.009	24.917	1048.376	848.770
33.023	25.062	1047.508	848.680
34.038	24.853	1046.382	846.705
35.053	24.750	1045.910	845.762
36.067	24.943	1045.126	845.963
37.082	24.890	1044.582	845.200
38.096	24.969	1043.515	844.631
39.111	24.998	1043.174	844.419
40.126	25.183	1042.203	844.431
41.140	25.193	1040.321	842.877
42.155	24.822	1039.547	840.430
43.169	24.590	1037.954	837.983
44.184	24.598	1036.866	837.069
45.199	24.597	1035.921	836.224
46.213	24.549	1035.115	835.275
47.228	24.578	1034.200	834.601
48.242	24.653	1033.607	834.395
49.257	24.900	1032.671	834.719
50.271	24.882	1032.096	834.096
51.286	25.031	1031.219	834.009
52.301	25.133	1030.363	833.718
53.315	25.051	1030.178	833.110
54.330	24.981	1029.257	831.968
55.344	24.798	1028.693	830.591
56.359	24.897	1027.973	830.392
57.374	24.879	1026.447	829.006
58.388	24.747	1026.040	827.990
59.403	24.713	1025.213	827.092
60.417	24.681	1024.659	826.423
61.432	24.546	1023.473	824.773
62.447	24.564	1022.683	824.146
63.461	24.681	1022.809	824.715
64.476	24.705	1021.550	823.734
65.490	24.720	1020.708	823.055
66.505	24.687	1019.663	821.988
67.520	24.638	1018.865	821.044
68.534	24.690	1018.351	820.795
69.549	24.614	1017.408	819.614
70.563	24.315	1016.042	817.074
71.578	24.161	1015.626	815.960
72.593	24.245	1014.627	815.472
73.607	24.092	1013.737	813.984
74.622	23.997	1012.815	812.740
75.636	24.435	1012.053	814.055
76.651	24.430	1011.575	813.573
77.666	24.385	1010.348	812.311
78.680	24.337	1009.439	811.288
79.695	24.264	1008.930	810.477
80.709	24.394	1008.557	810.696
81.724	24.530	1007.842	810.668
82.739	24.543	1007.040	810.008
83.753	24.529	1006.107	809.122
84.768	24.755	1005.752	809.789
85.782	25.107	1005.307	810.953
86.797	25.375	1004.211	811.207
87.812	25.218	1003.484	809.841
88.826	25.146	1002.355	808.532
89.841	25.018	1001.355	807.075
90.855	25.257	1000.817	807.649
91.870	25.129	1000.583	806.811
92.884	25.208	999.774	806.444
93.899	25.093	998.564	804.879
94.914	24.894	997.869	803.355
95.928	24.982	997.081	803.044
96.943	25.114	996.412	803.023
97.957	24.914	994.726	800.699
98.972	24.736	993.723	799.029
99.987	24.514	992.754	797.188
101.001	24.641	992.081	797.140
102.016	24.742	992.174	797.599
103.030	24.893	990.773	797.074
104.045	24.765	989.797	795.648
105.060	24.698	988.532	794.261
106.074	24.538	987.398	792.571
107.089	24.512	986.936	792.014
108.103	24.914	985.985	792.963
109.118	24.867	985.860	792.582
110.133	24.564	984.552	790.123
111.147	24.717	982.932	789.428
112.162	24.449	982.273	787.647
113.176	24.406	980.799	786.206
114.191	24.357	980.272	785.496
115.206	24.520	979.556	785.569
116.220	24.209	978.341	783.160
117.235	24.155	977.303	782.021
118.249	24.332	976.769	782.302
119.264	24.535	975.766	782.319
120.279	24.204	975.092	780.262
121.293	24.268	974.420	779.933
122.308	24.320	973.901	779.677
123.322	24.247	973.268	778.782
124.337	24.316	971.876	777.901
125.352	24.376	970.175	776.730
126.366	23.938	968.766	773.630
127.381	23.424	968.254	770.917
128.395	24.080	967.795	773.335
129.410	24.682	967.272	775.464
130.424	24.885	966.877	775.955
131.439	24.856	965.757	774.862
132.454	24.841	964.754	773.924
133.468	24.781	963.811	772.839
134.483	24.813	962.990	772.252
135.497	24.845	962.187	771.679
136.512	24.966	962.167	772.117
137.527	25.082	961.226	771.793
138.541	25.103	960.243	771.024
139.556	25.165	959.522	770.643
140.570	25.088	958.859	769.713
141.585	25.120	957.709	768.859
142.600	25.198	957.046	768.593
143.614	25.173	956.059	767.623
144.629	25.130	955.569	766.978
145.643	25.453	954.873	767.732
146.658	25.335	953.656	766.182
147.673	25.079	952.622	764.196
148.687	24.926	951.869	762.871
149.702	24.920	950.620	761.777
150.716	24.882	949.633	760.755
151.731	24.836	948.329	759.451
152.746	24.962	947.683	759.400
153.760	25.127	947.239	759.675
154.775	25.153	947.046	759.563
155.789	25.330	946.054	759.450
156.804	25.234	945.180	758.275
157.819	25.204	944.112	757.225
158.833	25.179	943.619	756.659
159.848	25.383	942.599	756.631
160.862	25.340	941.977	755.883
161.877	25.195	940.980	754.410
162.892	25.176	939.927	753.414
163.906	25.299	939.336	753.393
164.921	25.185	938.310	752.027
165.935	25.054	937.285	750.589
166.950	25.129	936.431	750.151
167.964	25.308	935.393	750.004
168.979	25.225	934.422	748.808
169.994	25.123	933.061	747.227
171.008	24.998	932.572	746.250
172.023	25.153	931.318	745.827
173.037	25.350	930.587	745.993
174.052	25.165	929.929	744.631
175.067	25.016	928.548	742.841
176.081	24.963	927.843	741.990
177.096	25.047	927.084	741.669
178.110	25.117	926.198	741.184
179.125	24.717	925.734	739.094
180.140	24.533	924.173	737.023
181.154	24.578	923.869	736.901
182.169	24.715	923.794	737.340
183.183	24.851	923.712	737.769
184.198	25.352	922.813	739.047
185.213	25.296	921.779	737.924
186.227	24.880	921.837	736.197
187.242	25.134	920.946	736.464
188.256	25.256	920.244	736.338
189.271	25.216	919.244	735.308
190.286	25.313	918.725	735.224
191.300	25.374	917.386	734.337
192.315	24.611	916.439	730.395
193.329	23.898	914.741	726.071
194.344	23.385	913.890	723.237
195.359	24.064	914.309	726.274
196.373	24.778	914.314	729.128
197.388	25.233	913.891	730.577
198.402	25.020	913.895	729.649
199.417	25.000	912.887	728.696
200.432	25.277	912.501	729.450
201.446	24.962	911.813	727.556
202.461	24.702	910.762	725.600
203.475	24.786	910.084	725.335
204.490	24.331	908.761	722.376
205.504	23.143	907.006	716.111
206.519	23.620	906.748	717.772
207.534	24.470	907.496	721.740
208.548	24.627	906.638	721.628
209.563	25.077	906.455	723.232
210.577	25.073	906.084	722.856
211.592	24.890	904.873	721.089
212.607	25.234	904.788	722.345
213.621	25.400	904.461	722.688
214.636	25.256	903.869	721.571
215.650	25.294	903.032	720.990
216.665	25.204	902.458	720.107
217.680	25.368	901.989	720.329
218.694	25.300	901.620	719.696
219.709	25.087	900.014	717.499
220.723	24.665	899.464	715.309
221.738	24.896	899.048	715.840
222.753	25.095	898.581	716.200
223.767	25.034	897.571	715.087
224.782	25.252	896.956	715.402
225.796	25.439	896.617	715.815
226.811	25.439	895.899	715.179
227.826	24.935	895.004	712.393
228.840	24.149	893.239	707.805
229.855	24.152	892.788	707.399
230.869	24.378	892.505	708.009
231.884	24.069	891.279	705.746
232.899	23.999	891.551	705.623
233.913	24.870	891.401	708.894
234.928	25.047	890.838	709.082
235.942	24.901	890.112	707.865
236.957	24.916	889.515	707.385
237.972	24.731	888.468	705.763
238.986	24.629	887.748	704.723
240.001	24.824	887.189	704.986
241.015	24.653	887.224	704.277
242.030	24.770	886.227	703.886
243.045	25.048	885.409	704.268
244.059	25.072	884.725	703.756
245.074	25.281	884.063	703.985
246.088	25.278	883.817	703.716
247.103	24.913	882.928	701.516
248.117	24.848	882.427	700.802
249.132	25.362	882.456	702.773
250.147	25.686	882.346	703.891
251.161	25.797	881.781	703.812
252.176	26.011	881.211	704.132
253.190	25.953	880.450	703.234
254.205	25.929	879.934	702.667
255.220	26.277	879.710	703.780
256.234	26.045	879.571	702.703
257.249	26.076	878.371	701.804
258.263	25.821	877.950	700.412
259.278	25.793	877.406	699.807
260.293	25.852	876.921	699.588
261.307	25.962	876.733	699.805
262.322	25.952	875.359	698.608
263.336	26.029	874.253	697.962
264.351	25.442	873.063	694.680
265.366	24.449	871.217	689.317
266.380	23.845	870.448	686.315
267.395	24.932	870.636	690.597
268.409	25.741	870.658	693.675
269.424	25.482	870.195	692.245
270.439	25.702	870.165	693.007
271.453	25.849	869.290	692.813
272.468	25.829	868.578	692.107
273.482	26.013	868.233	692.480
274.497	26.042	868.114	692.433
275.512	25.840	866.979	690.693
276.526	25.427	865.329	687.737
277.541	25.542	864.974	687.833
278.555	25.855	864.959	688.959
279.570	25.910	863.824	688.204
280.585	25.426	863.797	686.274
281.599	25.629	862.866	686.248
282.614	25.646	862.462	685.931
283.628	25.340	861.211	683.709
284.643	24.989	860.754	681.951
285.657	25.348	860.246	682.852
286.672	25.363	859.641	682.369
287.687	24.661	858.943	679.088
288.701	24.942	858.854	680.026
289.716	25.417	858.478	681.472
290.730	25.131	857.610	679.637
291.745	24.989	856.827	678.417
292.760	24.913	855.850	677.296
293.774	24.774	855.576	676.496
294.789	25.663	855.965	680.106
295.803	26.477	855.783	682.975
296.818	26.192	855.952	681.973
297.833	26.329	855.270	681.886
298.847	26.049	853.881	679.664
299.862	25.811	852.919	677.943
300.876	25.854	852.862	677.999
301.891	26.337	852.205	679.229
302.906	26.508	851.924	679.588
303.920	26.037	850.598	676.704
304.935	25.882	849.798	675.428
305.949	26.255	849.731	676.710
306.964	26.355	849.025	676.462
307.979	26.117	848.753	675.297
308.993	25.949	848.426	674.349
310.008	26.156	848.091	674.797
311.022	26.555	847.260	675.563
312.037	26.314	846.876	674.299
313.052	26.087	846.174	672.837
314.066	25.969	845.369	671.695
315.081	25.190	844.248	667.846
316.095	24.509	843.203	664.429
317.110	25.066	842.852	666.165
318.125	25.876	843.487	669.617
319.139	25.576	842.314	667.514
320.154	24.479	840.193	661.712
321.168	24.024	839.350	659.303
322.183	24.641	839.658	661.773
323.197	25.589	840.104	665.574
324.212	25.926	839.660	666.409
325.227	25.982	839.568	666.485
326.241	26.086	839.381	666.661
327.256	25.972	838.824	665.742
328.270	25.850	837.839	664.448
329.285	25.693	837.358	663.430
330.300	25.676	836.436	662.579
331.314	25.404	835.804	661.018
332.329	25.468	835.276	660.778
333.343	26.042	834.521	662.229
334.358	26.107	834.535	662.422
335.373	26.160	833.915	662.063
336.387	26.227	833.379	661.825
337.402	26.371	833.073	662.050
338.416	26.673	832.313	662.496
339.431	26.725	831.762	662.188
340.446	26.683	831.644	661.881
341.460	26.746	831.551	661.979
342.475	26.811	830.842	661.592
343.489	26.430	830.139	659.587
344.504	26.588	829.296	659.433
345.519	26.790	828.773	659.693
346.533	26.950	828.744	660.193
347.548	27.019	828.374	660.092
348.562	27.117	827.873	659.990
349.577	27.048	826.864	658.878
350.592	26.997	826.569	658.398
351.606	26.963	825.644	657.479
352.621	26.917	825.604	657.222
353.635	26.850	825.195	656.597
354.650	26.662	824.776	655.526
355.665	26.521	823.325	653.804
356.679	25.492	821.588	648.658
357.694	25.156	821.562	647.365
358.708	25.914	822.040	650.422
359.723	26.013	820.939	649.851
360.738	26.134	820.646	649.995
361.752	26.475	820.944	651.403
362.767	26.674	820.484	651.695
363.781	26.862	820.406	652.251
364.796	27.226	820.011	653.188
365.810	27.359	819.198	652.962
366.825	27.390	819.224	653.033
367.840	27.403	818.936	652.793
368.854	27.255	818.035	651.489
369.869	26.784	817.253	649.121
370.883	26.595	816.402	647.711
371.898	26.750	816.163	648.021
372.913	26.542	815.151	646.414
373.927	26.608	814.710	646.245
374.942	26.726	814.151	646.166
375.956	26.807	813.938	646.226
376.971	27.046	812.863	646.166
377.986	27.133	812.582	646.194
379.000	27.260	812.332	646.390
380.015	27.144	812.239	645.850
381.029	27.168	810.825	644.751
382.044	27.158	810.337	644.270
383.059	27.335	809.977	644.556
384.073	27.298	809.507	643.993
385.088	27.402	808.989	643.891
386.102	27.346	808.373	643.145
387.117	27.128	807.735	641.812
388.132	26.868	807.493	640.643
389.146	26.779	806.554	639.528
390.161	26.452	805.312	637.335
391.175	26.263	805.393	636.677
392.190	27.140	805.153	639.519
393.205	26.956	804.719	638.471
394.219	25.940	803.207	633.646
395.234	24.387	800.990	626.392
396.248	23.549	799.899	622.544
397.263	24.518	800.822	626.611
398.278	26.427	801.938	634.129
399.292	26.886	802.113	635.819
400.307	26.650	801.115	634.147
401.321	26.450	800.646	633.020
402.336	26.627	800.616	633.559
403.350	26.929	800.407	634.392
404.365	27.332	800.492	635.814
405.380	27.662	800.208	636.682
406.394	27.920	800.060	637.409
407.409	28.052	799.903	637.688
408.423	27.930	799.443	636.840
409.438	27.793	798.933	635.900
410.453	27.938	798.261	635.813
411.467	28.105	797.782	635.956
412.482	28.006	796.905	634.857
413.496	28.201	796.282	634.983
414.511	28.031	796.103	634.193
415.526	28.055	795.809	633.986
416.540	28.026	795.602	633.664
417.555	27.978	794.978	632.946
418.569	27.903	793.982	631.839
419.584	27.549	793.916	630.504
420.599	27.556	793.042	629.777
421.613	109.422	1281.579	1448.627
422.628	94.160	1352.775	1448.744
