DTS Sentinel unit serial number:	SN413079Multiplexer serial number:	ORYXHardware model number:	OX4-SRSoftware version number:	ORYX F/W v4.00 Oryx Data Collector v3.7.2.0data status	okinstallation	princeton_trtdifferential loss correction	single-endedforward channel	channel 3reverse channel	N/Adate	2019/09/11time	03:02:11forward acquisition time	60.00reverse acquisition time	0.00gamma	496.2192k internal	0.2332k external	0.2332temperature offset calibration	0.9914default loss term (dB/km)	0.3790temperature slope calibration	1.0000multiplexer offset coefficient	1.0000multiplexer slope coefficient	1.0000fibre end	0.00T internal ref (°C)	29.31T ext. ref 1 (°C)	-0.31T ext. ref 2 (°C)	23.74length (m)	temperature (°C)	Stokes	anti-Stokes-747.200	-148.221	0.128	0.011
-746.185	-39.804	0.085	-0.045
-745.171	-200.000	-0.016	0.177
-744.156	-56.101	0.075	0.034
-743.142	80.307	0.151	0.164
-742.127	-20.391	0.088	-0.054
-741.112	800.000	-0.081	-0.302
-740.098	-136.022	-0.096	0.011
-739.083	18.415	-0.056	-0.045
-738.069	-47.860	0.169	0.082
-737.054	-200.000	-0.052	-0.351
-736.039	-110.401	0.317	0.066
-735.025	87.183	0.157	0.175
-734.010	800.000	0.085	-0.297
-732.996	-13.794	-0.280	-0.182
-731.981	18.549	0.355	-0.286
-730.966	800.000	0.047	0.172
-729.952	-200.000	-0.018	-0.381
-728.937	-124.800	0.154	0.024
-727.923	-149.608	-0.034	0.003
-726.908	800.000	0.037	-0.124
-725.894	411.296	0.044	-0.095
-724.879	171.382	0.025	-0.036
-723.864	52.722	-0.268	0.258
-722.850	26.323	0.170	0.143
-721.835	-5.090	-0.356	-0.246
-720.821	-200.000	-0.014	-0.286
-719.806	209.521	0.091	-0.144
-718.791	-57.586	0.246	-0.108
-717.777	155.325	0.214	-0.295
-716.762	-62.581	0.330	-0.138
-715.748	226.045	-0.071	-0.117
-714.733	-149.579	-0.171	0.014
-713.718	-105.954	-0.396	0.090
-712.704	-200.000	-0.043	-0.550
-711.689	-143.502	0.068	0.007
-710.675	-99.294	-0.247	-0.063
-709.660	-200.000	-0.051	-0.227
-708.645	-200.000	-0.030	-0.225
-707.631	800.000	0.114	0.352
-706.616	76.476	-0.067	-0.072
-705.602	-200.000	0.021	-0.448
-704.587	104.472	-0.101	0.119
-703.572	29.021	0.281	0.240
-702.558	-147.840	-0.020	-0.002
-701.543	-143.702	0.303	0.029
-700.529	214.154	0.240	0.381
-699.514	286.270	0.080	0.146
-698.499	-64.423	0.055	0.022
-697.485	221.956	0.106	-0.171
-696.470	73.498	-0.101	0.106
-695.456	192.880	-0.117	-0.177
-694.441	-6.074	-0.133	-0.091
-693.426	230.084	-0.158	0.259
-692.412	132.475	-0.163	-0.211
-691.397	-125.472	0.330	0.050
-690.383	-200.000	0.012	0.269
-689.368	-1.059	-0.145	-0.103
-688.354	-68.984	-0.560	-0.217
-687.339	800.000	0.060	-0.239
-686.324	-76.503	0.161	0.057
-685.310	-118.851	0.100	0.018
-684.295	69.868	-0.073	-0.076
-683.281	-148.915	0.177	-0.014
-682.266	-200.000	-0.043	-0.193
-681.251	800.000	0.065	-0.215
-680.237	-200.000	-0.030	-0.243
-679.222	-27.659	0.022	-0.013
-678.208	604.673	-0.028	-0.071
-677.193	-94.174	0.206	0.057
-676.178	-102.423	-0.057	0.014
-675.164	35.605	0.122	0.108
-674.149	-132.274	-0.293	0.038
-673.135	58.733	-0.243	-0.240
-672.120	-54.257	0.177	-0.080
-671.105	85.178	-0.121	0.133
-670.091	-142.441	0.250	-0.025
-669.076	799.395	-0.069	-0.190
-668.062	-74.603	0.060	-0.022
-667.047	-115.657	0.475	0.089
-666.032	-108.375	-0.116	0.025
-665.018	14.175	0.045	0.035
-664.003	-63.328	-0.200	0.083
-662.989	72.419	-0.115	0.120
-661.974	75.067	0.162	-0.171
-660.959	-200.000	-0.015	-0.098
-659.945	141.116	-0.167	-0.222
-658.930	-200.000	0.005	-0.440
-657.916	-200.000	-0.032	-0.281
-656.901	-200.000	0.019	-0.118
-655.886	80.985	-0.123	0.133
-654.872	-59.103	-0.334	-0.144
-653.857	88.296	0.065	0.072
-652.843	-200.000	0.008	0.166
-651.828	-200.000	0.033	-0.289
-650.814	30.956	-0.446	-0.383
-649.799	800.000	-0.058	0.248
-648.784	-30.990	-0.040	-0.023
-647.770	268.450	-0.267	-0.469
-646.755	-147.608	-0.058	-0.005
-645.741	-17.022	0.232	0.147
-644.726	-86.413	0.068	0.021
-643.711	-63.877	0.421	0.173
-642.697	-21.671	0.133	0.081
-641.682	4.003	-0.219	0.160
-640.668	-73.398	0.209	0.077
-639.653	-200.000	0.060	-0.424
-638.638	-200.000	0.020	0.288
-637.624	-61.617	-0.159	-0.067
-636.609	209.671	-0.091	0.143
-635.595	-59.823	-0.092	0.039
-634.580	800.000	0.097	-0.345
-633.565	-15.035	0.178	0.114
-632.551	172.932	-0.049	-0.071
-631.536	-200.000	-0.005	-0.062
-630.522	-10.473	-0.183	-0.121
-629.507	136.873	0.080	-0.104
-628.492	174.768	0.118	-0.171
-627.478	308.932	-0.058	-0.108
-626.463	0.147	0.073	0.052
-625.449	-168.102	-0.267	-0.010
-624.434	-17.875	0.362	0.227
-623.419	101.745	0.273	-0.319
-622.405	-92.322	0.231	0.065
-621.390	-76.687	0.225	-0.079
-620.376	1.532	-0.086	0.062
-619.361	120.458	-0.087	-0.109
-618.346	-24.588	-0.491	0.292
-617.332	-110.115	-0.111	0.023
-616.317	147.918	0.136	-0.183
-615.303	-200.000	0.003	-0.221
-614.288	39.683	-0.215	-0.193
-613.273	396.829	0.088	0.185
-612.259	800.000	0.056	0.160
-611.244	800.000	-0.020	0.066
-610.230	-200.000	0.006	-0.094
-609.215	196.058	0.054	-0.082
-608.201	-23.136	0.282	0.170
-607.186	800.000	0.021	0.089
-606.171	-120.176	-0.242	-0.041
-605.157	173.233	0.117	-0.168
-604.142	-200.000	0.004	-0.257
-603.128	94.676	-0.066	0.075
-602.113	-134.765	-0.186	0.023
-601.098	172.780	-0.079	-0.114
-600.084	399.359	0.054	-0.113
-599.069	17.902	-0.106	-0.085
-598.055	-182.904	0.217	0.004
-597.040	75.037	-0.170	0.179
-596.025	-25.438	-0.276	0.163
-595.011	-200.000	-0.013	-0.211
-593.996	-188.654	-0.195	0.002
-592.982	800.000	-0.106	-0.369
-591.967	-18.629	0.288	0.180
-590.952	-28.812	0.085	0.049
-589.938	-200.000	-0.011	0.272
-588.923	-167.723	-0.280	0.011
-587.909	-200.000	0.001	-0.075
-586.894	800.000	-0.025	-0.083
-585.879	22.109	0.231	-0.188
-584.865	321.198	0.098	-0.186
-583.850	66.901	0.194	-0.198
-582.836	-200.000	0.050	-0.317
-581.821	233.647	-0.046	0.076
-580.806	17.050	0.041	-0.033
-579.792	241.812	-0.301	-0.502
-578.777	91.877	-0.081	-0.091
-577.763	60.183	0.246	-0.244
-576.748	-200.000	-0.288	-0.001
-575.733	-200.000	-0.021	0.375
-574.719	-16.612	-0.246	-0.156
-573.704	-79.159	-0.148	0.050
-572.690	712.889	-0.090	-0.237
-571.675	-200.000	-0.032	0.222
-570.661	800.000	0.043	-0.150
-569.646	509.020	-0.028	-0.066
-568.631	575.710	-0.099	-0.241
-567.617	455.991	-0.040	0.089
-566.602	-178.868	0.270	-0.006
-565.588	160.548	0.029	-0.040
-564.573	69.896	-0.075	-0.077
-563.558	16.535	0.044	-0.035
-562.544	106.500	0.230	-0.272
-561.529	-85.536	0.250	-0.078
-560.515	800.000	-0.059	-0.167
-559.500	587.492	0.138	-0.338
-558.485	-139.040	-0.185	-0.020
-557.471	-200.000	0.028	0.167
-556.456	-24.445	-0.216	0.129
-555.442	800.000	0.045	-0.188
-554.427	92.848	-0.089	0.101
-553.412	165.941	0.176	-0.248
-552.398	246.622	0.097	-0.163
-551.383	170.986	0.229	-0.328
-550.369	670.786	0.129	0.334
-549.354	95.970	0.067	-0.077
-548.339	110.397	-0.290	0.348
-547.325	-72.547	-0.445	0.164
-546.310	-121.209	-0.307	-0.051
-545.296	-45.751	0.094	0.047
-544.281	-200.000	-0.058	-0.265
-543.266	-200.000	-0.017	-0.324
-542.252	-39.405	-0.135	-0.070
-541.237	122.924	-0.215	0.269
-540.223	404.239	0.095	-0.201
-539.208	246.342	0.095	-0.160
-538.193	253.541	0.026	0.045
-537.179	-65.822	-0.224	0.090
-536.164	-141.084	0.238	0.024
-535.150	186.785	0.173	0.257
-534.135	-148.673	0.273	-0.022
-533.121	-200.000	-0.002	0.038
-532.106	81.831	-0.070	0.076
-531.091	-69.934	-0.189	0.072
-530.077	210.850	0.118	0.186
-529.062	800.000	0.103	-0.387
-528.048	-200.000	-0.057	-0.295
-527.033	800.000	-0.023	0.072
-526.018	183.508	0.202	-0.298
-525.004	167.794	-0.183	0.259
-523.989	-128.649	0.054	0.008
-522.975	121.460	-0.107	0.133
-521.960	105.676	0.251	-0.295
-520.945	-154.831	-0.354	0.023
-519.931	414.994	-0.060	0.127
-518.916	141.011	0.083	0.110
-517.902	159.068	0.084	0.116
-516.887	49.492	-0.171	0.161
-515.872	800.000	0.035	0.125
-514.858	-18.451	-0.134	0.084
-513.843	-86.416	-0.333	0.102
-512.829	101.911	-0.042	0.049
-511.814	-200.000	0.006	-0.220
-510.799	-103.128	0.092	-0.022
-509.785	-182.612	-0.267	0.005
-508.770	190.703	-0.047	0.070
-507.756	-75.405	-0.447	-0.159
-506.741	-61.809	0.144	0.060
-505.726	-161.179	0.309	-0.016
-504.712	-69.479	0.174	0.067
-503.697	-200.000	-0.048	-0.213
-502.683	-200.000	-0.012	-0.156
-501.668	-62.832	-0.150	-0.062
-500.653	122.822	-0.087	-0.109
-499.639	-128.686	-0.154	0.022
-498.624	-87.426	0.078	-0.024
-497.610	-50.761	-0.363	-0.170
-496.595	800.000	-0.083	0.270
-495.581	167.231	0.043	0.060
-494.566	-60.170	-0.031	0.013
-493.551	11.633	0.186	-0.142
-492.537	272.864	0.019	0.034
-491.522	-67.258	-0.137	0.054
-490.508	-200.000	-0.006	0.096
-489.493	-200.000	0.065	0.327
-488.478	-155.439	0.164	0.011
-487.464	331.235	-0.171	0.328
-486.449	-167.382	-0.090	0.004
-485.435	-75.159	-0.091	-0.033
-484.420	-200.000	-0.008	-0.265
-483.405	21.038	0.262	-0.211
-482.391	266.075	0.079	0.137
-481.376	-53.429	0.199	-0.091
-480.362	-200.000	-0.066	0.375
-479.347	-14.588	-0.153	-0.098
-478.332	-200.000	-0.044	-0.383
-477.318	800.000	-0.068	-0.247
-476.303	24.837	-0.188	0.155
-475.289	800.000	0.077	0.301
-474.274	-123.403	0.225	0.036
-473.259	-39.830	0.241	0.126
-472.245	256.500	0.090	-0.154
-471.230	-144.012	-0.169	0.016
-470.216	205.812	0.133	-0.206
-469.201	-200.000	-0.011	0.057
-468.186	-127.682	0.157	0.023
-467.172	-21.890	0.241	0.146
-466.157	-66.781	-0.142	-0.056
-465.143	-200.000	-0.021	-0.205
-464.128	-200.000	-0.008	-0.155
-463.113	-200.000	-0.106	0.508
-462.099	-200.000	-0.033	0.205
-461.084	501.662	0.071	-0.163
-460.070	-47.719	0.235	-0.113
-459.055	-3.019	0.099	0.069
-458.040	62.882	-0.029	0.029
-457.026	12.332	0.218	0.167
-456.011	-11.702	-0.317	0.207
-454.997	-33.874	-0.171	0.094
-453.982	40.858	0.192	0.172
-452.968	12.019	0.207	0.158
-451.953	183.780	-0.090	-0.133
-450.938	141.041	0.163	0.214
-449.924	30.453	-0.190	0.161
-448.909	-200.000	-0.022	0.423
-447.895	-200.000	0.073	0.504
-446.880	28.971	-0.230	-0.194
-445.865	759.861	0.095	-0.256
-444.851	-149.450	-0.082	0.006
-443.836	-24.759	0.146	0.086
-442.822	340.290	-0.089	0.173
-441.807	-84.605	0.158	-0.050
-440.792	236.846	-0.188	-0.310
-439.778	144.583	-0.117	-0.155
-438.763	374.820	-0.094	0.190
-437.749	-175.476	-0.212	-0.006
-436.734	65.216	0.148	-0.148
-435.719	780.532	0.122	0.333
-434.705	-119.647	-0.104	0.018
-433.690	-200.000	-0.031	-0.275
-432.676	261.586	-0.092	-0.158
-431.661	90.897	-0.244	0.272
-430.646	-7.445	0.167	0.113
-429.632	-19.378	-0.217	0.134
-428.617	-200.000	0.060	-0.327
-427.603	246.219	-0.109	0.183
-426.588	800.000	0.015	-0.053
-425.573	-110.055	0.181	0.038
-424.559	-200.000	0.001	0.251
-423.544	180.152	-0.067	0.097
-422.530	-200.000	0.008	0.070
-421.515	47.073	-0.250	-0.231
-420.500	800.000	0.073	0.301
-419.486	196.395	0.131	-0.198
-418.471	800.000	-0.047	-0.198
-417.457	-71.275	0.043	0.016
-416.442	-27.255	0.035	-0.020
-415.428	13.693	0.121	0.093
-414.413	136.124	-0.140	0.182
-413.398	-75.333	-0.135	-0.048
-412.384	-44.521	0.039	-0.019
-411.369	-103.874	-0.425	-0.099
-410.355	132.122	0.016	-0.021
-409.340	-20.227	0.073	-0.045
-408.325	-173.736	-0.412	-0.012
-407.311	-41.531	-0.113	-0.058
-406.296	17.377	0.224	0.177
-405.282	-200.000	0.001	-0.243
-404.267	-200.000	-0.035	-0.164
-403.252	76.396	0.097	-0.102
-402.238	-25.322	-0.112	0.066
-401.223	10.995	-0.221	-0.168
-400.209	64.396	0.107	-0.107
-399.194	581.699	-0.121	0.294
-398.179	545.851	0.093	-0.220
-397.165	61.664	-0.233	0.230
-396.150	14.972	-0.120	-0.093
-395.136	-61.537	0.050	0.021
-394.121	-87.013	0.433	0.131
-393.106	-26.876	0.057	-0.033
-392.092	-200.000	0.040	-0.182
-391.077	191.316	0.063	-0.094
-390.063	-63.800	-0.221	0.090
-389.048	-2.958	0.294	0.204
-388.033	247.796	0.124	0.208
-387.019	418.078	0.124	-0.263
-386.004	-126.597	-0.067	0.010
-384.990	-73.891	0.281	-0.101
-383.975	800.000	-0.036	0.148
-382.960	-96.627	0.468	0.122
-381.946	800.000	0.013	-0.038
-380.931	169.428	-0.174	0.246
-379.917	129.965	-0.033	0.042
-378.902	-7.427	-0.403	-0.271
-377.888	-105.668	-0.192	0.043
-376.873	-122.567	0.137	0.022
-375.858	717.006	-0.043	-0.114
-374.844	800.000	-0.131	-0.404
-373.829	149.061	-0.087	-0.117
-372.815	114.548	0.092	-0.111
-371.800	45.834	0.189	-0.174
-370.785	-73.470	0.152	-0.055
-369.771	236.058	-0.198	-0.324
-368.756	241.430	-0.042	0.069
-367.742	800.000	0.040	0.115
-366.727	277.289	0.118	0.207
-365.712	90.263	0.212	0.235
-364.698	-22.581	-0.245	0.147
-363.683	-200.000	0.025	0.198
-362.669	-87.327	0.198	0.060
-361.654	-98.315	0.360	0.092
-360.639	159.795	0.059	0.081
-359.625	800.000	0.043	0.118
-358.610	-174.190	0.161	0.005
-357.596	346.011	0.100	0.194
-356.581	-27.282	-0.092	0.053
-355.566	-103.630	-0.148	-0.034
-354.552	346.152	-0.158	0.309
-353.537	-200.000	-0.015	0.077
-352.523	-11.051	-0.146	-0.095
-351.508	109.985	-0.137	0.162
-350.493	136.675	0.275	-0.355
-349.479	-27.642	0.207	-0.119
-348.464	800.000	0.071	-0.304
-347.450	-98.461	0.363	0.092
-346.435	-103.166	0.417	0.098
-345.420	94.752	-0.186	0.210
-344.406	133.432	-0.043	-0.055
-343.391	206.182	0.158	0.243
-342.377	189.889	0.178	-0.264
-341.362	138.743	-0.036	0.047
-340.348	183.143	0.205	0.300
-339.333	139.567	0.081	-0.106
-338.318	7.375	0.153	0.113
-337.304	-200.000	0.006	0.162
-336.289	-100.520	0.094	-0.023
-335.275	25.546	0.072	-0.060
-334.260	675.923	-0.108	-0.278
-333.245	-0.471	0.296	0.208
-332.231	-121.921	0.172	0.028
-331.216	-130.050	0.131	0.018
-330.202	-200.000	-0.002	0.116
-329.187	800.000	-0.145	-0.426
-328.172	279.559	0.166	-0.293
-327.158	-71.179	-0.334	0.124
-326.143	477.107	-0.016	0.036
-325.129	-133.617	0.185	0.023
-324.114	-73.398	-0.134	0.048
-323.099	29.688	-0.116	0.098
-322.085	-19.563	0.121	-0.074
-321.070	72.535	-0.280	-0.288
-320.056	67.597	0.232	-0.235
-319.041	89.347	-0.157	0.173
-318.026	-200.000	-0.023	-0.106
-317.012	688.446	0.104	0.270
-315.997	403.576	0.047	-0.097
-314.983	-200.000	-0.015	0.125
-313.968	161.886	-0.138	-0.191
-312.953	330.179	0.177	0.336
-311.939	393.179	0.033	-0.068
-310.924	-107.224	0.246	-0.054
-309.910	-77.878	0.079	0.027
-308.895	-70.781	0.089	0.033
-307.880	800.000	-0.047	0.166
-306.866	33.577	-0.146	-0.126
-305.851	800.000	-0.033	-0.143
-304.837	6.124	0.186	-0.136
-303.822	800.000	-0.014	0.059
-302.807	680.359	0.045	0.116
-301.793	-200.000	-0.043	-0.395
-300.778	48.852	0.199	-0.185
-299.764	237.403	0.097	0.159
-298.749	-34.947	0.111	-0.060
-297.735	165.261	0.180	0.251
-296.720	-200.000	0.025	0.120
-295.705	-79.648	0.216	-0.072
-294.691	-200.000	-0.039	0.178
-293.676	133.897	-0.206	0.263
-292.662	-66.299	-0.141	-0.055
-291.647	-28.318	0.097	-0.055
-290.632	191.182	0.132	-0.197
-289.618	-107.589	-0.326	-0.071
-288.603	-83.626	0.151	-0.048
-287.589	-50.543	-0.213	-0.099
-286.574	-200.000	-0.042	-0.253
-285.559	800.000	-0.021	-0.075
-284.545	-200.000	-0.012	0.274
-283.530	-184.740	-0.213	-0.003
-282.516	-130.805	-0.095	-0.013
-281.501	-200.000	-0.011	-0.305
-280.486	800.000	0.075	0.207
-279.472	-95.109	-0.429	0.114
-278.457	630.441	0.160	-0.400
-277.443	-51.350	-0.402	0.186
-276.428	95.035	0.170	0.191
-275.413	6.698	-0.338	0.249
-274.399	20.139	0.225	-0.179
-273.384	800.000	-0.037	0.127
-272.370	-119.887	0.277	-0.047
-271.355	290.913	0.151	-0.271
-270.340	-10.147	0.221	0.145
-269.326	80.930	-0.161	0.171
-268.311	-122.349	0.172	0.028
-267.297	-30.614	-0.078	0.044
-266.282	-4.220	-0.073	-0.050
-265.267	53.673	-0.165	0.156
-264.253	-200.000	-0.022	0.191
-263.238	-7.057	-0.323	0.217
-262.224	-33.630	0.076	-0.042
-261.209	486.365	0.040	-0.090
-260.195	-47.149	0.158	0.076
-259.180	800.000	0.042	-0.146
-258.165	-200.000	0.013	0.125
-257.151	-39.279	-0.245	-0.127
-256.136	-69.134	0.126	0.048
-255.122	-4.071	0.243	-0.166
-254.107	800.000	0.106	-0.338
-253.092	-54.999	-0.228	0.101
-252.078	800.000	0.070	-0.264
-251.063	-200.000	-0.205	-0.000
-250.049	800.000	-0.136	-0.389
-249.034	-116.729	0.436	0.079
-248.019	4.143	0.203	0.146
-247.005	532.550	0.082	0.190
-245.990	35.522	0.172	-0.149
-244.976	-122.131	0.147	0.024
-243.961	45.529	-0.225	0.205
-242.946	264.098	0.113	0.194
-241.932	195.423	-0.078	0.118
-240.917	43.434	0.112	-0.101
-239.903	-200.000	-0.034	0.165
-238.888	162.899	-0.156	-0.216
-237.873	-45.926	-0.191	0.093
-236.859	252.746	0.302	0.508
-235.844	784.668	0.147	-0.398
-234.830	13.270	0.157	-0.120
-233.815	-175.242	0.192	-0.005
-232.800	800.000	0.065	-0.262
-231.786	-98.546	0.242	0.061
-230.771	39.148	-0.082	0.072
-229.757	-42.499	-0.047	-0.024
-228.742	87.798	-0.051	-0.055
-227.727	76.991	-0.085	0.089
-226.713	-0.178	-0.074	-0.052
-225.698	-6.418	0.290	0.195
-224.684	-200.000	-0.020	-0.288
-223.669	-37.869	-0.051	-0.027
-222.655	800.000	0.024	0.090
-221.640	-186.066	0.141	0.002
-220.625	800.000	-0.113	-0.382
-219.611	86.793	-0.049	0.053
-218.596	-79.396	-0.183	0.061
-217.582	-200.000	0.074	0.551
-216.567	-200.000	0.086	0.430
-215.552	-200.000	-0.006	-0.086
-214.538	-5.723	-0.230	-0.156
-213.523	-81.892	-0.207	0.067
-212.509	-19.348	-0.120	-0.074
-211.494	-200.000	-0.039	0.330
-210.479	496.065	0.103	-0.234
-209.465	-7.490	-0.214	0.142
-208.450	-40.182	-0.070	-0.036
-207.436	-77.833	-0.260	0.088
-206.421	-200.000	-0.012	0.221
-205.406	-9.566	-0.204	-0.134
-204.392	800.000	0.128	0.378
-203.377	-200.000	-0.007	0.045
-202.363	800.000	-0.075	-0.278
-201.348	66.334	-0.097	-0.097
-200.333	300.175	0.188	0.342
-199.319	22.648	-0.276	0.223
-198.304	100.319	0.161	-0.184
-197.290	44.021	-0.175	-0.158
-196.275	-200.000	-0.195	0.001
-195.260	729.364	-0.157	0.412
-194.246	-200.000	0.039	-0.182
-193.231	-124.563	0.095	0.014
-192.217	-200.000	-0.043	0.375
-191.202	-200.000	-0.048	0.314
-190.187	-200.000	0.012	0.080
-189.173	-119.887	-0.061	-0.010
-188.158	96.788	-0.214	-0.241
-187.144	-97.718	-0.129	-0.033
-186.129	284.222	-0.091	-0.161
-185.114	-99.498	-0.074	0.018
-184.100	-63.409	0.107	0.043
-183.085	192.462	-0.165	0.245
-182.071	205.048	-0.067	0.102
-181.056	-44.307	-0.331	-0.163
-180.042	718.813	0.075	0.196
-179.027	-51.655	0.158	-0.073
-178.012	-14.975	0.215	-0.136
-176.998	-200.000	0.006	0.124
-175.983	82.198	0.195	0.209
-174.969	-107.489	0.307	-0.066
-173.954	-200.000	-0.005	0.087
-172.939	538.670	-0.032	-0.075
-171.925	-62.036	0.124	-0.051
-170.910	-107.137	-0.377	0.082
-169.896	-53.011	0.330	0.149
-168.881	173.170	-0.083	-0.118
-167.866	-200.000	-0.003	-0.261
-166.852	320.017	0.230	-0.430
-165.837	-173.101	0.139	0.004
-164.823	208.577	0.188	-0.290
-163.808	-81.373	-0.136	0.044
-162.793	-32.683	-0.114	-0.062
-161.779	800.000	-0.047	-0.199
-160.764	-200.000	-0.029	0.298
-159.750	519.103	-0.092	0.213
-158.735	434.127	0.041	0.087
-157.720	-200.000	0.054	-0.303
-156.706	800.000	0.156	0.423
-155.691	46.581	-0.099	-0.090
-154.677	5.625	-0.320	-0.232
-153.662	-200.000	0.042	0.290
-152.647	-73.356	-0.041	0.015
-151.633	-200.000	-0.015	0.199
-150.618	-37.069	0.264	-0.139
-149.604	-129.745	-0.437	-0.059
-148.589	-73.577	-0.061	-0.022
-147.574	-114.413	0.275	0.052
-146.560	-124.294	-0.311	0.048
-145.545	800.000	0.016	-0.055
-144.531	-200.000	0.059	0.297
-143.516	-18.778	0.253	-0.155
-142.502	115.820	-0.129	-0.155
-141.487	-6.881	0.177	-0.118
-140.472	-144.805	0.436	-0.039
-139.458	-21.890	-0.174	-0.104
-138.443	-85.439	0.356	-0.109
-137.429	21.366	0.253	-0.202
-136.414	800.000	0.034	-0.108
-135.399	66.318	0.046	0.046
-134.385	-67.120	0.219	0.085
-133.370	-200.000	-0.009	-0.273
-132.356	-3.804	0.252	-0.172
-131.341	-159.436	0.332	-0.018
-130.326	-117.680	0.087	-0.015
-129.312	-80.381	0.327	0.107
-128.297	372.394	0.163	-0.325
-127.283	4.877	0.046	0.033
-126.268	480.964	-0.054	0.120
-125.253	-200.000	-0.028	0.401
-124.239	99.048	0.065	-0.074
-123.224	-88.679	-0.272	-0.079
-122.210	2.872	0.340	-0.242
-121.195	-182.052	-0.154	0.003
-120.180	250.873	-0.206	-0.344
-119.166	283.115	0.161	-0.284
-118.151	-200.000	0.014	-0.060
-117.137	-200.000	-0.007	0.051
-116.122	15.361	0.238	-0.183
-115.107	53.992	0.230	-0.217
-114.093	800.000	0.056	0.211
-113.078	108.260	0.071	0.083
-112.064	-30.857	0.237	0.132
-111.049	-129.342	-0.186	0.025
-110.034	-36.418	0.143	-0.076
-109.020	-200.000	0.014	0.311
-108.005	77.445	-0.236	-0.246
-106.991	-200.000	-0.001	-0.044
-105.976	800.000	-0.107	0.454
-104.962	-50.841	-0.147	-0.068
-103.947	800.000	0.078	-0.220
-102.932	156.091	0.125	0.170
-101.918	93.460	0.231	0.257
-100.903	800.000	-0.035	-0.149
-99.889	679.327	-0.047	-0.119
-98.874	-37.792	-0.456	-0.238
-97.859	800.000	0.044	-0.152
-96.845	23.281	0.114	0.092
-95.830	0.261	-0.162	-0.113
-94.816	153.766	0.175	-0.236
-93.801	657.161	0.033	0.084
-92.786	311.265	0.084	0.155
-91.772	52.042	-0.126	-0.117
-90.757	116.430	-0.063	-0.075
-89.743	-200.000	0.069	0.321
-88.728	-141.990	-0.150	-0.015
-87.713	-200.000	-0.021	-0.230
-86.699	-132.666	-0.052	-0.006
-85.684	-21.513	-0.153	-0.091
-84.670	-112.280	-0.236	-0.046
-83.655	106.870	0.136	-0.158
-82.640	13.228	0.386	-0.293
-81.626	8.006	-0.149	0.109
-80.611	-31.278	-0.309	0.171
-79.597	800.000	0.066	0.228
-78.582	-200.000	-0.028	0.170
-77.567	-200.000	-0.015	-0.130
-76.553	126.369	-0.060	-0.075
-75.538	-200.000	-0.015	0.153
-74.524	-27.124	-0.273	0.156
-73.509	12.857	0.109	-0.083
-72.494	-81.869	-0.443	0.142
-71.480	55.133	-0.163	0.154
-70.465	-200.000	0.031	0.158
-69.451	-112.299	0.248	0.049
-68.436	-78.781	0.177	-0.059
-67.422	528.091	-0.068	0.157
-66.407	143.267	0.143	0.186
-65.392	-127.215	-0.090	0.013
-64.378	-18.583	0.078	0.048
-63.363	48.163	-0.388	0.356
-62.349	-152.117	0.196	0.014
-61.334	98.407	-1.066	-1.204
-60.319	-10.142	0.725	0.472
-59.305	800.000	-0.298	-1.000
-58.290	208.837	0.717	1.099
-57.276	432.356	0.739	1.570
-56.261	-200.000	106.116	615.349
-55.246	513.597	1507.277	3442.503
-54.232	176.375	2702.185	3844.958
-53.217	110.303	2186.992	2572.773
-52.203	39.901	1706.203	1500.293
-51.188	32.505	1517.101	1283.767
-50.173	30.139	1490.847	1245.621
-49.159	51.153	1546.617	1436.684
-48.144	51.303	1563.093	1452.959
-47.130	32.760	1518.980	1286.890
-46.115	29.715	1503.752	1253.335
-45.100	29.442	1500.489	1248.713
-44.086	29.406	1498.157	1246.485
-43.071	29.308	1496.266	1244.196
-42.057	29.292	1494.814	1242.833
-41.042	29.392	1492.954	1241.911
-40.027	29.363	1491.730	1240.648
-39.013	29.273	1490.455	1238.934
-37.998	29.180	1489.268	1237.273
-36.984	29.324	1487.738	1236.919
-35.969	29.283	1486.226	1235.338
-34.954	29.352	1484.858	1234.613
-33.940	29.219	1483.818	1232.813
-32.925	29.332	1481.565	1231.644
-31.911	29.318	1481.030	1231.059
-30.896	29.435	1479.661	1230.652
-29.881	29.351	1478.754	1229.287
-28.867	29.397	1477.413	1228.434
-27.852	29.349	1476.353	1227.180
-26.838	29.322	1474.753	1225.624
-25.823	29.331	1473.001	1224.175
-24.809	29.324	1471.524	1222.858
-23.794	29.381	1469.907	1221.841
-22.779	29.373	1468.758	1220.782
-21.765	29.383	1467.657	1219.889
-20.750	29.462	1465.956	1218.950
-19.736	29.371	1465.853	1218.210
-18.721	29.327	1464.493	1216.745
-17.706	29.262	1463.458	1215.409
-16.692	29.256	1461.943	1214.059
-15.677	29.310	1461.065	1213.639
-14.663	29.345	1460.241	1213.138
-13.648	29.192	1459.582	1211.533
-12.633	29.329	1458.202	1211.239
-11.619	29.288	1457.380	1210.239
-10.604	29.293	1456.482	1209.478
-9.590	29.242	1455.818	1208.544
-8.575	29.352	1454.471	1208.099
-7.560	29.298	1454.162	1207.441
-6.546	29.261	1453.490	1206.594
-5.531	29.336	1452.289	1206.036
-4.517	29.198	1451.699	1204.598
-3.502	29.117	1450.884	1203.343
-2.487	29.253	1449.035	1202.652
-1.473	29.274	1448.279	1202.113
-0.458	29.331	1446.846	1201.249
0.556	26.974	1437.844	1190.514
1.571	24.162	1412.736	1151.474
2.586	21.059	1353.908	1084.172
3.600	19.600	1273.479	1011.145
4.615	18.524	1228.770	969.475
5.629	16.339	1173.789	914.203
6.644	8.210	1089.802	807.703
7.659	0.996	1049.987	742.839
8.673	-0.090	1043.995	733.237
9.688	-0.381	1041.038	729.681
10.702	-0.416	1039.422	728.312
11.717	-0.342	1037.086	726.969
12.731	3.048	1040.383	745.680
13.746	11.853	1053.241	797.910
14.761	18.545	1062.240	837.446
15.775	20.291	1063.970	847.272
16.790	20.568	1063.529	848.197
17.804	20.550	1062.257	847.017
18.819	20.189	1061.903	844.904
19.834	20.405	1061.101	845.244
20.848	20.430	1060.607	844.893
21.863	20.546	1060.341	845.171
22.877	20.456	1059.794	844.227
23.892	20.465	1059.322	843.819
24.907	20.339	1058.263	842.285
25.921	20.531	1057.661	842.667
26.936	20.431	1056.830	841.446
27.950	20.559	1055.358	840.817
28.965	20.533	1054.219	839.709
29.980	20.338	1052.981	837.709
30.994	20.332	1051.396	836.344
32.009	20.441	1050.798	836.321
33.023	20.453	1050.484	836.054
34.038	20.426	1048.130	833.978
35.053	20.113	1048.177	832.435
36.067	20.511	1047.075	833.395
37.082	20.527	1046.212	832.713
38.096	20.554	1045.382	832.107
39.111	20.692	1044.818	832.246
40.126	20.675	1043.941	831.392
41.140	20.747	1042.378	830.417
42.155	20.353	1041.260	827.577
43.169	20.155	1039.546	825.199
44.184	20.129	1038.968	824.541
45.199	20.249	1037.812	824.120
46.213	20.041	1036.681	822.162
47.228	20.044	1035.839	821.437
48.242	20.269	1034.955	821.730
49.257	20.124	1034.594	820.684
50.271	20.429	1033.518	821.199
51.286	20.366	1033.050	820.457
52.301	20.464	1032.009	820.020
53.315	20.569	1031.301	819.881
54.330	20.610	1029.448	818.526
55.344	20.374	1029.383	817.295
56.359	20.375	1028.294	816.358
57.374	20.460	1027.317	815.911
58.388	20.304	1026.319	814.318
59.403	20.309	1025.803	813.857
60.417	20.186	1025.084	812.639
61.432	20.030	1024.307	811.223
62.447	20.174	1023.497	811.180
63.461	20.313	1022.663	811.097
64.476	20.255	1022.349	810.504
65.490	20.290	1021.062	809.578
66.505	20.196	1020.296	808.458
67.520	20.212	1019.263	807.643
68.534	20.264	1018.316	807.067
69.549	20.126	1017.587	805.774
70.563	19.923	1016.170	803.637
71.578	19.919	1014.964	802.597
72.593	19.815	1014.780	801.898
73.607	19.697	1013.484	800.256
74.622	19.769	1012.371	799.638
75.636	20.065	1011.510	800.253
76.651	20.151	1011.233	800.362
77.666	20.013	1010.014	798.690
78.680	19.919	1009.109	797.471
79.695	19.929	1008.902	797.281
80.709	19.993	1008.298	797.032
81.724	20.163	1007.289	796.944
82.739	20.137	1006.253	795.934
83.753	20.143	1005.466	795.266
84.768	20.339	1005.115	795.818
85.782	20.543	1004.324	796.058
86.797	20.654	1003.758	796.044
87.812	20.887	1002.315	795.895
88.826	20.623	1001.811	794.219
89.841	20.545	1000.879	793.055
90.855	20.626	999.867	792.551
91.870	20.625	999.195	791.943
92.884	20.754	997.611	791.203
93.899	20.605	997.437	790.321
94.914	20.408	996.474	788.589
95.928	20.522	995.960	788.632
96.943	20.671	994.641	788.193
97.957	20.343	993.569	785.791
98.972	20.164	992.711	784.232
99.987	19.967	991.405	782.240
101.001	20.016	990.788	781.905
102.016	20.344	990.286	782.923
103.030	20.370	989.139	782.062
104.045	20.300	988.092	780.848
105.060	20.194	986.822	779.301
106.074	20.041	985.531	777.524
107.089	20.043	984.764	776.860
108.103	20.501	984.592	778.710
109.118	20.470	984.061	778.081
110.133	20.321	982.240	775.909
111.147	20.308	981.172	774.935
112.162	20.158	979.921	773.209
113.176	19.829	979.261	771.156
114.191	20.013	978.536	771.333
115.206	20.170	977.246	770.948
116.220	19.990	976.026	769.118
117.235	19.719	975.595	767.510
118.249	19.998	974.659	767.939
119.264	20.087	973.246	767.154
120.279	19.865	972.827	765.775
121.293	19.787	971.960	764.677
122.308	20.011	971.041	764.874
123.322	19.815	970.476	763.501
124.337	19.999	968.780	762.908
125.352	19.923	967.788	761.724
126.366	19.492	966.071	758.411
127.381	19.154	964.717	755.799
128.395	19.700	964.570	758.013
129.410	20.380	964.163	760.605
130.424	20.358	963.342	759.792
131.439	20.315	962.375	758.775
132.454	20.288	961.185	757.654
133.468	20.211	960.181	756.457
134.483	20.270	959.639	756.221
135.497	20.326	958.590	755.570
136.512	20.595	958.104	756.290
137.527	20.608	956.895	755.330
138.541	20.619	956.564	755.049
139.556	20.582	955.700	754.139
140.570	20.627	954.659	753.445
141.585	20.671	953.697	752.807
142.600	20.635	953.270	752.250
143.614	20.605	952.183	751.198
144.629	20.647	951.439	750.723
145.643	20.771	951.029	750.870
146.658	20.690	949.946	749.597
147.673	20.676	948.165	748.068
148.687	20.466	947.302	746.416
149.702	20.454	946.650	745.786
150.716	20.475	945.197	744.664
151.731	20.389	944.389	743.595
152.746	20.367	943.932	743.075
153.760	20.603	943.296	743.519
154.775	20.662	942.500	743.078
155.789	20.812	941.395	742.778
156.804	20.718	940.400	741.529
157.819	20.686	939.126	740.323
158.833	20.696	938.673	739.940
159.848	20.864	938.053	740.101
160.862	20.854	937.191	739.314
161.877	20.787	936.388	738.332
162.892	20.639	935.440	736.890
163.906	20.904	934.618	737.298
164.921	20.676	933.807	735.630
165.935	20.732	933.121	735.264
166.950	20.843	931.422	734.327
167.964	20.731	930.696	733.216
168.979	20.730	929.753	732.407
169.994	20.683	928.536	731.185
171.008	20.480	927.708	729.613
172.023	20.713	926.691	729.725
173.037	20.901	925.956	729.871
174.052	20.587	925.146	727.853
175.067	20.377	923.955	725.975
176.081	20.475	923.298	725.802
177.096	20.413	922.612	724.942
178.110	20.691	921.577	725.222
179.125	20.440	920.383	723.176
180.140	20.105	919.267	720.842
181.154	20.073	919.267	720.644
182.169	20.346	918.205	720.882
183.183	20.556	917.943	721.482
184.198	20.873	917.243	722.182
185.213	20.805	916.312	721.106
186.227	20.582	916.057	719.916
187.242	20.587	915.524	719.454
188.256	20.819	914.527	719.568
189.271	20.752	913.859	718.702
190.286	20.900	913.069	718.628
191.300	20.762	912.432	717.493
192.315	20.298	910.975	714.375
193.329	19.550	909.431	710.026
194.344	19.123	908.512	707.489
195.359	19.612	909.020	709.835
196.373	20.516	909.151	713.588
197.388	20.766	908.585	714.104
198.402	20.699	908.024	713.326
199.417	20.436	907.724	711.948
200.432	20.605	907.016	712.025
201.446	20.471	905.942	710.571
202.461	20.208	905.214	708.859
203.475	20.116	905.027	708.274
204.490	19.816	903.284	705.626
205.504	18.811	900.980	699.671
206.519	19.287	901.113	701.652
207.534	20.269	901.273	705.711
208.548	20.301	900.677	705.312
209.563	20.698	900.349	706.605
210.577	20.737	899.543	706.067
211.592	20.354	899.506	704.424
212.607	20.808	898.950	705.765
213.621	20.881	898.325	705.509
214.636	20.793	897.499	704.441
215.650	20.882	897.130	704.447
216.665	20.728	896.591	703.340
217.680	20.820	896.181	703.330
218.694	20.954	895.389	703.184
219.709	20.554	894.617	700.903
220.723	20.271	893.634	698.930
221.738	20.472	893.229	699.363
222.753	20.668	892.466	699.489
223.767	20.591	891.998	698.753
224.782	20.673	891.160	698.363
225.796	20.855	890.639	698.623
226.811	20.920	890.152	698.441
227.826	20.527	888.933	695.850
228.840	19.812	887.530	691.830
229.855	19.751	886.772	690.934
230.869	19.972	886.492	691.539
231.884	19.708	885.403	689.575
232.899	19.756	885.418	689.718
233.913	20.490	885.223	692.429
234.928	20.773	884.697	693.084
235.942	20.643	883.798	691.803
236.957	20.578	883.044	690.891
237.972	20.298	882.345	689.174
238.986	20.270	881.300	688.182
240.001	20.425	880.674	688.246
241.015	20.428	880.368	687.961
242.030	20.522	879.542	687.624
243.045	20.533	879.022	687.201
244.059	20.578	878.724	687.084
245.074	20.823	878.144	687.537
246.088	20.818	877.539	686.986
247.103	20.385	876.005	684.019
248.117	20.420	875.590	683.772
249.132	20.928	875.889	685.943
250.147	21.237	875.574	686.853
251.161	21.157	875.019	686.040
252.176	21.515	874.224	686.761
253.190	21.376	873.447	685.548
254.205	21.423	873.001	685.320
255.220	21.858	872.231	686.358
256.234	21.626	871.999	685.208
257.249	21.537	871.025	684.032
258.263	21.464	870.608	683.359
259.278	21.387	870.040	682.554
260.293	21.435	869.599	682.332
261.307	21.535	868.982	682.178
262.322	21.447	868.132	681.107
263.336	21.265	867.756	680.044
264.351	20.680	866.355	676.611
265.366	19.719	864.142	671.094
266.380	19.302	863.294	668.760
267.395	20.242	863.761	672.711
268.409	21.023	863.874	675.763
269.424	20.994	863.177	675.049
270.439	21.218	862.594	675.398
271.453	21.314	861.837	675.118
272.468	21.288	861.205	674.462
273.482	21.552	860.907	675.187
274.497	21.696	860.725	675.539
275.512	21.345	859.120	672.870
276.526	20.862	857.868	669.974
277.541	21.084	857.352	670.363
278.555	21.509	857.289	671.886
279.570	21.227	856.445	670.086
280.585	21.096	855.423	668.723
281.599	21.032	855.190	668.237
282.614	21.187	854.992	668.617
283.628	20.725	853.879	665.921
284.643	20.476	852.972	664.204
285.657	20.943	853.051	665.990
286.672	20.711	852.061	664.271
287.687	20.287	850.922	661.711
288.701	20.624	851.021	663.014
289.716	20.945	850.706	663.933
290.730	20.559	849.784	661.684
291.745	20.467	849.036	660.695
292.760	20.444	847.975	659.723
293.774	20.364	847.261	658.805
294.789	21.225	847.933	662.536
295.803	21.862	848.096	665.020
296.818	21.867	847.481	664.499
297.833	22.069	846.961	664.797
298.847	21.665	845.886	662.366
299.862	21.313	844.758	660.098
300.876	21.623	844.432	660.955
301.891	21.835	843.808	661.205
302.906	21.833	843.388	660.812
303.920	21.615	841.923	658.784
304.935	21.322	841.822	657.546
305.949	21.678	841.796	658.805
306.964	21.856	840.993	658.786
307.979	21.738	840.367	657.794
308.993	21.669	839.876	657.093
310.008	21.914	839.740	657.849
311.022	21.930	839.197	657.425
312.037	21.729	838.571	656.122
313.052	21.575	838.391	655.350
314.066	21.561	837.503	654.543
315.081	20.826	835.834	650.438
316.095	20.207	834.329	646.902
317.110	20.793	834.670	649.295
318.125	21.584	834.884	652.353
319.139	21.094	834.108	649.864
320.154	20.131	832.310	644.825
321.168	19.591	831.209	641.906
322.183	20.284	831.512	644.662
323.197	21.235	831.692	648.274
324.212	21.400	831.248	648.484
325.227	21.606	831.240	649.182
326.241	21.730	830.633	649.112
327.256	21.579	830.157	648.122
328.270	21.322	829.583	646.665
329.285	21.347	828.959	646.217
330.300	21.278	828.002	645.156
331.314	21.009	827.256	643.525
332.329	21.217	826.320	643.508
333.343	21.497	826.193	644.384
334.358	21.789	825.744	645.050
335.373	21.652	825.144	644.022
336.387	21.741	824.710	643.952
337.402	21.982	824.513	644.628
338.416	22.240	824.182	645.260
339.431	22.147	823.406	644.254
340.446	22.042	822.847	643.373
341.460	22.324	822.479	644.061
342.475	22.465	821.495	643.748
343.489	22.053	820.937	641.752
344.504	22.146	820.217	641.470
345.519	22.364	820.125	642.135
346.533	22.583	819.697	642.542
347.548	22.589	819.215	642.131
348.562	22.557	818.751	641.594
349.577	22.439	818.604	640.994
350.592	22.571	817.681	640.691
351.606	22.383	817.641	639.922
352.621	22.565	816.711	639.798
353.635	22.288	816.350	638.452
354.650	22.491	815.398	638.389
355.665	21.929	814.695	635.746
356.679	20.865	813.264	630.723
357.694	20.889	812.687	630.304
358.708	21.457	812.699	632.312
359.723	21.323	812.033	631.254
360.738	21.701	811.764	632.354
361.752	22.159	811.316	633.603
362.767	22.123	811.340	633.432
363.781	22.438	811.103	634.329
364.796	22.699	810.914	635.064
365.810	22.705	810.660	634.829
366.825	22.966	809.958	635.165
367.840	22.881	809.631	634.543
368.854	22.674	809.018	633.264
369.869	22.238	808.391	631.153
370.883	22.148	807.436	630.028
371.898	22.264	806.924	629.990
372.913	22.237	806.246	629.309
373.927	22.148	805.550	628.390
374.942	22.280	805.051	628.417
375.956	22.402	804.653	628.487
376.971	22.668	803.992	628.865
377.986	22.654	803.510	628.381
379.000	22.638	803.263	628.076
380.015	22.760	802.871	628.146
381.029	22.564	802.395	627.022
382.044	22.746	801.341	626.791
383.059	22.744	800.986	626.449
384.073	22.810	800.345	626.126
385.088	22.840	800.168	626.041
386.102	22.819	799.815	625.632
387.117	22.579	799.087	624.160
388.132	22.553	798.313	623.409
389.146	22.393	797.512	622.161
390.161	21.802	797.096	619.692
391.175	21.872	796.657	619.544
392.190	22.395	796.623	621.308
393.205	22.388	795.769	620.565
394.219	21.639	793.904	616.420
395.234	20.039	791.671	609.011
396.248	19.337	791.012	605.983
397.263	20.230	792.316	610.069
398.278	22.164	793.149	617.461
399.292	22.542	792.993	618.611
400.307	22.201	792.303	616.822
401.321	22.192	791.630	616.210
402.336	22.274	791.701	616.500
403.350	22.398	791.986	617.102
404.365	22.830	791.655	618.302
405.380	23.219	791.277	619.313
406.394	23.430	790.791	619.618
407.409	23.563	790.564	619.849
408.423	23.430	790.097	618.964
409.438	23.381	789.051	617.919
410.453	23.462	788.869	618.003
411.467	23.435	788.635	617.670
412.482	23.383	787.775	616.761
413.496	23.578	787.062	616.828
414.511	23.422	787.125	616.278
415.526	23.518	786.904	616.385
416.540	23.437	786.369	615.630
417.555	23.566	785.998	615.734
418.569	23.149	784.803	613.299
419.584	23.051	784.706	612.829
420.599	23.243	784.170	613.021
421.613	157.894	1364.004	1798.760
422.628	136.558	1448.475	1798.849
