DTS Sentinel unit serial number:	SN413079Multiplexer serial number:	ORYXHardware model number:	OX4-SRSoftware version number:	ORYX F/W v4.00 Oryx Data Collector v3.7.2.0data status	okinstallation	princeton_trtdifferential loss correction	single-endedforward channel	channel 3reverse channel	N/Adate	2019/09/12time	02:42:11forward acquisition time	60.00reverse acquisition time	0.00gamma	496.2192k internal	0.2322k external	0.2322temperature offset calibration	1.0070default loss term (dB/km)	0.3790temperature slope calibration	1.0000multiplexer offset coefficient	1.0000multiplexer slope coefficient	1.0000fibre end	0.00T internal ref (°C)	32.41T ext. ref 1 (°C)	2.11T ext. ref 2 (°C)	27.23length (m)	temperature (°C)	Stokes	anti-Stokes-747.200	-7.598	-0.216	0.147
-746.185	800.000	0.110	0.322
-745.171	-124.762	-0.054	-0.008
-744.156	588.906	0.042	0.106
-743.142	216.212	0.086	-0.138
-742.127	2.067	0.025	-0.018
-741.112	-105.470	0.273	-0.063
-740.098	-138.794	-0.222	0.024
-739.083	-108.381	-0.121	0.026
-738.069	800.000	0.026	0.108
-737.054	139.061	-0.294	0.390
-736.039	-90.754	-0.272	0.079
-735.025	349.355	0.156	-0.311
-734.010	-200.000	-0.020	-0.201
-732.996	800.000	-0.059	-0.211
-731.981	800.000	-0.078	0.256
-730.966	2.964	0.110	0.080
-729.952	-42.177	0.033	-0.017
-728.937	654.691	-0.080	0.208
-727.923	643.043	0.081	-0.209
-726.908	-107.636	-0.187	0.041
-725.894	-200.000	-0.024	-0.246
-724.879	-30.280	-0.261	-0.150
-723.864	-200.000	0.051	0.242
-722.850	-125.626	0.336	0.052
-721.835	-8.466	-0.305	0.207
-720.821	-117.113	-0.280	-0.051
-719.806	-125.508	-0.112	0.017
-718.791	12.230	-0.128	-0.099
-717.777	-28.626	-0.111	-0.065
-716.762	-22.738	0.335	0.205
-715.748	110.622	-0.130	-0.158
-714.733	-200.000	-0.071	0.354
-713.718	37.523	-0.245	-0.219
-712.704	36.503	-0.186	-0.166
-711.689	-7.547	-0.437	-0.299
-710.675	-62.783	-0.069	0.029
-709.660	-167.168	-0.204	-0.008
-708.645	-19.130	0.141	-0.088
-707.631	800.000	-0.160	0.485
-706.616	-200.000	-0.011	0.221
-705.602	-59.142	-0.394	-0.171
-704.587	39.395	-0.056	-0.050
-703.572	-34.479	-0.200	0.111
-702.558	-132.507	-0.289	0.038
-701.543	800.000	0.083	0.231
-700.529	68.858	-0.094	-0.098
-699.514	67.529	0.207	-0.214
-698.499	126.953	0.253	0.323
-697.485	250.993	0.108	0.184
-696.470	203.022	0.043	-0.066
-695.456	151.171	-0.092	0.127
-694.441	711.979	0.133	0.355
-693.426	-153.705	-0.075	-0.005
-692.412	721.191	0.048	-0.128
-691.397	-69.592	-0.303	0.117
-690.383	186.012	0.139	0.209
-689.368	60.769	-0.271	-0.271
-688.354	-200.000	-0.019	-0.098
-687.339	21.488	0.203	-0.166
-686.324	-200.000	0.021	-0.163
-685.310	42.280	0.155	0.142
-684.295	-77.041	0.236	-0.083
-683.281	-200.000	-0.015	0.234
-682.266	-200.000	-0.037	0.168
-681.251	30.952	-0.170	0.147
-680.237	24.228	-0.073	0.061
-679.222	-16.510	0.089	0.057
-678.208	29.528	-0.101	0.087
-677.193	176.888	-0.173	-0.253
-676.178	311.249	-0.106	0.201
-675.164	-5.306	-0.257	-0.178
-674.149	67.798	0.253	-0.260
-673.135	-103.282	-0.268	-0.064
-672.120	-200.000	0.041	0.230
-671.105	-178.099	-0.210	0.005
-670.091	-85.255	0.240	0.076
-669.076	-200.000	-0.083	-0.455
-668.062	104.769	0.128	0.152
-667.047	104.764	0.266	-0.316
-666.032	800.000	-0.101	0.284
-665.018	518.670	0.178	0.419
-664.003	-81.227	-0.133	0.044
-662.989	-70.010	-0.247	0.095
-661.974	345.435	0.022	0.043
-660.959	-68.493	-0.016	0.006
-659.945	-168.278	-0.205	-0.008
-658.930	-160.724	-0.113	0.006
-657.916	-200.000	0.058	-0.391
-656.901	-109.336	0.067	0.014
-655.886	-2.165	-0.195	0.138
-654.872	38.036	-0.011	-0.010
-653.857	114.777	0.117	0.143
-652.843	-54.832	0.343	0.156
-651.828	-200.000	-0.004	0.034
-650.814	800.000	-0.043	0.131
-649.799	379.146	0.050	0.104
-648.784	230.772	-0.187	-0.308
-647.770	5.102	-0.258	-0.191
-646.755	100.447	0.215	0.251
-645.741	31.989	-0.294	-0.255
-644.726	161.891	0.049	0.069
-643.711	188.866	-0.177	0.267
-642.697	177.805	0.062	-0.091
-641.682	-200.000	-0.196	-0.000
-640.668	-13.235	0.137	0.090
-639.653	800.000	-0.091	-0.323
-638.638	139.843	0.145	-0.192
-637.624	-125.661	-0.148	0.023
-636.609	3.746	0.084	0.062
-635.595	-200.000	-0.008	-0.154
-634.580	759.419	0.061	0.167
-633.565	800.000	0.056	-0.156
-632.551	-200.000	-0.038	-0.334
-631.536	219.930	0.152	0.245
-630.522	-154.281	0.376	0.025
-629.507	-150.499	0.165	-0.013
-628.492	800.000	0.031	-0.092
-627.478	-23.908	-0.303	0.182
-626.463	-28.394	-0.208	0.121
-625.449	-111.040	-0.210	-0.043
-624.434	-92.027	0.029	-0.008
-623.419	15.355	-0.191	0.151
-622.405	-200.000	0.012	0.280
-621.390	-200.000	0.016	-0.146
-620.376	-73.305	0.077	-0.028
-619.361	12.280	-0.143	0.111
-618.346	43.283	-0.036	0.033
-617.332	-80.516	-0.192	-0.064
-616.317	-200.000	0.049	-0.384
-615.303	-200.000	0.007	0.101
-614.288	-181.207	0.251	0.005
-613.273	-84.740	-0.398	-0.126
-612.259	-59.030	0.169	-0.073
-611.244	-85.698	0.086	-0.027
-610.230	-174.658	0.346	0.010
-609.215	49.988	0.188	-0.179
-608.201	800.000	0.064	-0.191
-607.186	188.645	0.170	-0.256
-606.171	-66.086	-0.122	-0.049
-605.157	368.387	-0.209	-0.425
-604.142	6.049	0.033	0.025
-603.128	225.975	0.121	0.197
-602.113	-90.659	0.108	-0.031
-601.098	-200.000	0.033	-0.297
-600.084	-1.126	-0.076	0.054
-599.069	19.223	0.152	-0.123
-598.055	-22.263	0.264	-0.161
-597.040	-200.000	-0.000	-0.173
-596.025	800.000	0.020	-0.073
-595.011	-89.655	-0.053	-0.016
-593.996	-200.000	0.006	-0.127
-592.982	-19.467	0.091	-0.057
-591.967	-108.115	-0.275	-0.060
-590.952	-200.000	-0.015	0.067
-589.938	80.676	-0.165	0.179
-588.923	157.905	0.124	0.173
-587.909	-102.692	-0.337	-0.081
-586.894	-200.000	-0.045	-0.262
-585.879	186.478	-0.130	-0.194
-584.865	-104.264	-0.362	0.084
-583.850	-17.355	0.260	0.164
-582.836	-7.360	0.199	0.135
-581.821	582.748	-0.106	0.262
-580.806	-18.978	0.210	-0.131
-579.792	800.000	0.100	0.362
-578.777	309.023	0.030	0.056
-577.763	482.108	0.096	0.219
-576.748	-200.000	0.015	-0.179
-575.733	-200.000	0.030	-0.218
-574.719	208.838	0.065	0.102
-573.704	-78.734	-0.208	-0.071
-572.690	751.359	0.045	0.122
-571.675	800.000	0.018	-0.061
-570.661	-73.100	0.132	-0.049
-569.646	-91.117	-0.436	0.125
-568.631	-68.520	0.160	-0.062
-567.617	-92.731	-0.142	0.040
-566.602	-200.000	0.019	0.115
-565.588	-146.042	-0.315	-0.028
-564.573	-159.374	-0.324	-0.018
-563.558	-11.896	0.255	-0.168
-562.544	733.992	0.011	0.030
-561.529	112.737	-0.207	0.252
-560.515	-92.147	0.395	-0.112
-559.500	-21.438	0.140	-0.086
-558.485	-75.034	0.112	0.040
-557.471	103.307	0.145	-0.170
-556.456	800.000	-0.063	-0.207
-555.442	-82.856	0.206	0.067
-554.427	-200.000	-0.025	0.110
-553.412	-166.938	0.059	-0.002
-552.398	-23.262	0.224	0.135
-551.383	-139.700	-0.216	-0.023
-550.369	88.573	0.297	-0.331
-549.354	589.960	-0.097	-0.239
-548.339	12.274	-0.119	0.092
-547.325	-79.666	0.508	0.172
-546.310	33.140	-0.057	0.050
-545.296	174.706	-0.075	0.109
-544.281	141.683	-0.131	0.174
-543.266	-200.000	-0.022	-0.160
-542.252	800.000	0.054	-0.191
-541.237	-51.538	0.072	0.033
-540.223	800.000	0.056	0.233
-539.208	-102.727	-0.297	0.071
-538.193	800.000	-0.126	0.395
-537.179	54.386	0.227	-0.219
-536.164	110.691	0.186	-0.224
-535.150	-15.201	0.170	-0.109
-534.135	298.506	-0.207	-0.382
-533.121	800.000	0.057	0.236
-532.106	800.000	-0.051	-0.213
-531.091	2.359	-0.215	0.156
-530.077	-200.000	0.008	-0.184
-529.062	-54.824	0.256	-0.116
-528.048	-162.961	0.188	-0.009
-527.033	-20.145	0.283	0.175
-526.018	-200.000	0.013	0.117
-525.004	-106.158	0.241	0.054
-523.989	-29.988	0.203	0.116
-522.975	198.987	0.143	-0.220
-521.960	215.852	0.222	-0.353
-520.945	-200.000	0.004	-0.232
-519.931	727.675	0.025	0.066
-518.916	18.972	0.109	-0.088
-517.902	-200.000	-0.020	0.277
-516.887	-200.000	0.008	-0.112
-515.872	-80.579	0.359	-0.120
-514.858	199.331	-0.198	0.304
-513.843	10.753	0.181	-0.138
-512.829	132.993	0.162	0.210
-511.814	-133.403	-0.131	0.017
-510.799	-25.261	-0.085	-0.051
-509.785	250.138	0.078	-0.132
-508.770	-143.866	-0.106	0.010
-507.756	130.149	0.080	0.102
-506.741	121.768	0.066	0.082
-505.726	-38.656	0.242	0.128
-504.712	447.033	0.025	-0.055
-503.697	-145.176	0.255	0.023
-502.683	-59.666	-0.059	0.025
-501.668	800.000	0.047	0.175
-500.653	-71.527	-0.043	0.016
-499.639	649.599	0.063	-0.162
-498.624	189.667	-0.164	-0.245
-497.610	120.731	-0.281	-0.349
-496.595	75.721	-0.136	-0.143
-495.581	-72.313	0.191	-0.071
-494.566	800.000	-0.051	-0.205
-493.551	800.000	-0.044	0.172
-492.537	697.160	0.038	-0.100
-491.522	488.490	0.073	-0.168
-490.508	100.889	-0.247	-0.288
-489.493	57.486	-0.062	0.061
-488.478	-40.569	-0.158	0.082
-487.464	-14.129	0.229	-0.148
-486.449	-101.574	-0.175	-0.043
-485.435	433.095	-0.122	0.265
-484.420	-136.803	0.119	0.014
-483.405	-200.000	0.038	-0.314
-482.391	63.491	0.165	-0.166
-481.376	114.462	-0.199	-0.242
-480.362	615.357	0.057	-0.144
-479.347	135.849	0.220	0.286
-478.332	-154.110	0.165	-0.011
-477.318	426.213	-0.087	0.187
-476.303	-14.769	0.242	-0.156
-475.289	-200.000	-0.013	-0.077
-474.274	48.889	-0.323	0.303
-473.259	87.901	-0.085	-0.094
-472.245	104.944	0.255	0.301
-471.230	-200.000	0.044	0.214
-470.216	800.000	0.040	-0.173
-469.201	-100.160	-0.237	-0.059
-468.186	-102.759	0.185	0.044
-467.172	800.000	-0.020	-0.084
-466.157	97.158	-0.184	-0.211
-465.143	-149.294	-0.386	0.031
-464.128	-138.565	0.196	0.021
-463.113	-37.681	-0.363	-0.193
-462.099	-85.568	0.199	-0.062
-461.084	-142.026	-0.146	-0.014
-460.070	-200.000	0.052	0.334
-459.055	-153.571	-0.007	0.000
-458.040	265.269	-0.106	0.185
-457.026	36.874	0.265	-0.234
-456.011	-0.058	-0.045	0.032
-454.997	53.422	-0.036	-0.034
-453.982	-140.778	-0.130	-0.013
-452.968	548.743	0.050	-0.119
-451.953	324.321	-0.107	-0.203
-450.938	113.385	0.051	-0.061
-449.924	415.474	0.049	-0.105
-448.909	-147.402	-0.202	0.017
-447.895	11.864	-0.076	-0.058
-446.880	46.353	0.086	0.080
-445.865	366.070	0.079	0.159
-444.851	-67.508	-0.168	-0.066
-443.836	64.945	-0.235	-0.237
-442.822	620.331	0.117	0.294
-441.807	-139.579	-0.179	-0.019
-440.792	-200.000	-0.044	-0.525
-439.778	644.941	-0.080	-0.205
-438.763	800.000	-0.061	0.206
-437.749	198.931	-0.147	0.225
-436.734	-35.973	0.361	-0.195
-435.719	-43.315	0.151	0.076
-434.705	-200.000	0.027	-0.264
-433.690	-142.605	-0.195	0.019
-432.676	-115.627	0.089	0.017
-431.661	485.640	-0.192	0.438
-430.646	-153.348	-0.215	-0.015
-429.632	-148.683	0.170	-0.014
-428.617	-200.000	-0.005	0.206
-427.603	448.467	0.260	-0.572
-426.588	640.568	-0.008	-0.020
-425.573	-100.636	0.126	0.031
-424.559	-76.093	0.276	-0.097
-423.544	-47.520	0.282	-0.137
-422.530	800.000	0.027	-0.103
-421.515	33.916	0.259	-0.225
-420.500	-116.886	0.104	-0.019
-419.486	-23.940	0.070	-0.042
-418.471	107.894	0.158	-0.187
-417.457	-200.000	0.006	-0.078
-416.442	-50.476	0.241	-0.113
-415.428	-92.450	0.227	-0.064
-414.413	-153.153	0.198	0.014
-413.398	-23.094	-0.152	0.091
-412.384	800.000	-0.082	0.288
-411.369	-47.653	0.165	-0.080
-410.355	81.746	-0.058	-0.062
-409.340	198.427	-0.141	-0.215
-408.325	-55.728	-0.232	0.104
-407.311	90.262	-0.052	-0.058
-406.296	36.381	-0.240	-0.211
-405.282	800.000	-0.079	-0.308
-404.267	59.718	0.144	-0.141
-403.252	127.074	-0.049	-0.062
-402.238	-51.268	-0.300	-0.140
-401.223	206.951	0.218	-0.338
-400.209	800.000	-0.050	-0.158
-399.194	-20.901	-0.160	-0.098
-398.179	15.095	0.133	0.104
-397.165	66.305	-0.135	-0.137
-396.150	-13.726	0.113	-0.073
-395.136	675.090	-0.049	-0.128
-394.121	-53.931	0.176	-0.080
-393.106	231.822	-0.110	-0.180
-392.092	-95.738	-0.197	-0.052
-391.077	404.833	-0.210	0.440
-390.063	-121.036	-0.016	-0.003
-389.048	-199.158	0.147	-0.001
-388.033	294.842	-0.133	0.243
-387.019	73.620	-0.236	0.247
-386.004	66.259	-0.167	0.169
-384.990	-69.181	-0.226	-0.086
-383.975	11.169	-0.048	0.036
-382.960	0.213	-0.220	-0.156
-381.946	-22.502	-0.093	0.056
-380.931	-200.000	0.024	-0.179
-379.917	-184.502	-0.309	-0.005
-378.902	-200.000	-0.011	0.354
-377.888	-173.391	0.119	0.004
-376.873	149.146	-0.246	0.331
-375.858	-77.507	0.133	0.046
-374.844	800.000	-0.033	0.092
-373.829	56.984	0.165	-0.160
-372.815	25.385	-0.024	-0.020
-371.800	-4.656	0.230	-0.158
-370.785	-200.000	0.011	0.257
-369.771	541.212	-0.087	0.208
-368.756	-161.386	-0.171	-0.009
-367.742	-104.535	0.069	0.016
-366.727	-200.000	-0.030	0.150
-365.712	164.007	-0.219	0.307
-364.698	302.993	-0.207	-0.382
-363.683	-200.000	0.010	-0.058
-362.669	800.000	0.030	0.086
-361.654	38.891	-0.196	0.175
-360.639	85.160	-0.168	-0.184
-359.625	-50.388	0.069	0.032
-358.610	-140.553	-0.107	0.011
-357.596	362.857	0.144	0.287
-356.581	196.527	-0.243	-0.368
-355.566	-52.039	0.086	-0.040
-354.552	7.074	-0.159	0.118
-353.537	-200.000	0.025	-0.388
-352.523	779.395	0.133	0.362
-351.508	-5.157	-0.245	0.167
-350.493	285.643	0.128	-0.230
-349.479	-200.000	-0.023	-0.149
-348.464	-89.174	-0.176	0.052
-347.450	246.302	0.103	0.173
-346.435	-62.824	-0.261	0.108
-345.420	78.122	-0.305	0.324
-344.406	-36.241	0.104	-0.056
-343.391	-50.751	0.081	-0.038
-342.377	-174.051	-0.118	-0.003
-341.362	678.584	0.075	0.194
-340.348	101.885	0.191	0.221
-339.333	-116.283	-0.278	-0.051
-338.318	-33.864	-0.291	0.159
-337.304	800.000	0.078	0.321
-336.289	-200.000	-0.019	-0.185
-335.275	-95.513	0.117	0.031
-334.260	-200.000	-0.005	0.064
-333.245	143.555	0.132	-0.175
-332.231	-200.000	-0.047	-0.214
-331.216	-149.317	-0.193	0.015
-330.202	-44.964	-0.202	-0.100
-329.187	65.612	-0.161	0.162
-328.172	-85.085	-0.217	0.068
-327.158	109.431	0.229	0.273
-326.143	249.233	0.070	-0.118
-325.129	-146.344	0.192	-0.017
-324.114	364.088	-0.054	-0.107
-323.099	-200.000	0.015	0.277
-322.085	410.990	-0.127	0.268
-321.070	89.605	0.274	0.303
-320.056	-2.004	-0.230	-0.161
-319.041	-107.369	0.352	-0.077
-318.026	22.358	0.081	-0.066
-317.012	25.980	-0.121	-0.101
-315.997	6.259	0.223	-0.164
-314.983	-23.729	0.106	0.063
-313.968	781.282	0.103	-0.280
-312.953	-103.741	-0.325	-0.076
-311.939	314.860	0.132	-0.248
-310.924	-71.075	-0.350	0.131
-309.910	-31.561	-0.128	0.072
-308.895	800.000	-0.019	0.064
-307.880	-30.693	-0.409	-0.230
-306.866	-69.652	-0.325	-0.123
-305.851	130.129	-0.087	0.111
-304.837	-137.541	-0.302	0.034
-303.822	800.000	-0.011	-0.031
-302.807	28.921	-0.107	-0.090
-301.793	52.595	0.077	0.073
-300.778	6.040	-0.246	0.181
-299.764	37.171	-0.140	0.123
-298.749	-125.696	0.050	-0.008
-297.735	-104.874	0.057	-0.013
-296.720	-65.716	-0.137	-0.055
-295.705	-200.000	0.074	0.447
-294.691	-60.938	-0.100	-0.042
-293.676	245.323	-0.062	-0.103
-292.662	-83.532	0.354	-0.113
-291.647	50.566	0.143	0.134
-290.632	-200.000	0.022	0.115
-289.618	-111.031	-0.030	0.006
-288.603	-124.782	0.121	-0.019
-287.589	-200.000	-0.015	-0.099
-286.574	16.205	0.283	-0.222
-285.559	-140.854	0.229	0.023
-284.545	33.803	0.045	-0.039
-283.530	93.439	-0.173	-0.194
-282.516	88.905	-0.068	-0.075
-281.501	744.421	0.060	0.161
-280.486	800.000	0.086	-0.326
-279.472	54.784	0.023	0.022
-278.457	-43.461	-0.351	0.176
-277.443	-168.275	-0.168	-0.006
-276.428	800.000	0.158	0.475
-275.413	506.244	0.044	0.100
-274.399	-200.000	0.003	0.070
-273.384	-200.000	-0.088	-0.443
-272.370	-23.421	0.096	0.057
-271.355	-121.882	0.362	-0.059
-270.340	141.023	0.172	-0.226
-269.326	-200.000	0.019	0.182
-268.311	-53.616	0.119	-0.054
-267.297	271.433	-0.090	0.158
-266.282	56.749	0.177	0.171
-265.267	-46.439	0.282	-0.137
-264.253	-25.550	0.064	0.038
-263.238	-200.000	0.001	0.167
-262.224	233.959	0.020	-0.033
-261.209	-85.582	0.214	0.066
-260.195	-15.033	-0.156	-0.099
-259.180	-83.852	-0.084	0.027
-258.165	7.720	-0.346	-0.257
-257.151	-177.154	-0.134	-0.003
-256.136	786.487	0.082	-0.224
-255.122	80.844	0.081	-0.087
-254.107	-83.155	-0.218	0.070
-253.092	-106.572	-0.109	-0.024
-252.078	-16.282	-0.449	0.283
-251.063	-165.048	-0.297	-0.013
-250.049	70.741	0.212	0.217
-249.034	98.876	-0.028	-0.032
-248.019	90.968	-0.156	0.174
-247.005	721.196	0.071	0.188
-245.990	561.364	0.155	0.371
-244.976	2.208	-0.204	0.146
-243.961	-61.811	-0.169	-0.070
-242.946	800.000	-0.034	0.111
-241.932	-134.562	-0.277	0.034
-240.917	-127.119	-0.139	-0.020
-239.903	-200.000	0.003	-0.088
-238.888	800.000	0.029	0.095
-237.873	-109.486	0.252	-0.053
-236.859	748.747	-0.033	0.087
-235.844	83.113	-0.183	0.198
-234.830	-200.000	-0.025	-0.302
-233.815	204.938	-0.100	0.153
-232.800	-39.818	0.281	-0.146
-231.786	-48.706	-0.157	-0.075
-230.771	797.517	-0.072	0.197
-229.757	-72.912	0.194	0.071
-228.742	-89.678	0.345	0.100
-227.727	402.026	0.060	0.126
-226.713	-76.638	-0.152	-0.053
-225.698	800.000	-0.088	-0.335
-224.684	407.437	0.037	-0.076
-223.669	53.868	0.099	-0.094
-222.655	-200.000	-0.086	0.380
-221.640	800.000	0.068	0.213
-220.625	800.000	0.103	0.355
-219.611	-143.255	0.216	0.021
-218.596	268.181	-0.173	0.300
-217.582	-56.108	-0.239	0.105
-216.567	-152.143	0.524	0.038
-215.552	259.672	-0.160	0.273
-214.538	-71.477	-0.130	0.048
-213.523	117.965	0.177	0.216
-212.509	-200.000	-0.034	0.427
-211.494	-107.872	0.110	0.024
-210.479	65.719	0.137	0.137
-209.465	-112.997	0.155	0.030
-208.450	800.000	0.031	-0.114
-207.436	-129.242	0.154	0.021
-206.421	40.877	0.123	-0.110
-205.406	-140.785	-0.323	0.033
-204.392	-107.595	-0.137	0.030
-203.377	489.033	-0.054	-0.121
-202.363	-164.562	0.222	-0.010
-201.348	-74.381	-0.042	-0.015
-200.333	74.258	0.114	-0.119
-199.319	-38.864	0.049	-0.026
-198.304	-47.383	-0.069	0.033
-197.290	-200.000	0.053	0.395
-196.275	-1.853	0.081	0.056
-195.260	800.000	0.050	0.144
-194.246	800.000	0.182	0.519
-193.231	-155.355	-0.266	0.017
-192.217	77.137	-0.038	0.040
-191.202	55.118	-0.119	0.113
-190.187	-172.802	0.218	-0.007
-189.173	233.752	-0.143	-0.232
-188.158	-112.982	-0.389	-0.076
-187.144	-200.000	-0.005	0.090
-186.129	-63.138	0.405	-0.165
-185.114	-33.392	-0.166	-0.091
-184.100	800.000	0.042	0.134
-183.085	-114.521	-0.108	-0.020
-182.071	339.687	0.069	0.133
-181.056	107.249	0.126	0.148
-180.042	362.986	0.062	-0.124
-179.027	399.901	0.174	-0.360
-178.012	-200.000	0.064	0.397
-176.998	-80.602	-0.102	-0.033
-175.983	-178.621	-0.276	-0.006
-174.969	-74.500	0.112	-0.040
-173.954	-129.062	0.281	0.039
-172.939	30.674	-0.042	0.035
-171.925	7.168	-0.353	-0.260
-170.910	-86.672	0.259	-0.078
-169.896	-90.073	0.024	0.007
-168.881	-96.824	0.280	0.073
-167.866	-57.458	-0.308	-0.134
-166.852	-105.476	-0.271	-0.061
-165.837	288.661	-0.041	0.074
-164.823	-57.142	0.319	0.139
-163.808	8.101	-0.193	0.143
-162.793	92.138	0.234	0.261
-161.779	114.975	0.248	0.298
-160.764	316.935	0.037	0.069
-159.750	-50.005	0.312	-0.146
-158.735	126.219	0.221	0.277
-157.720	800.000	0.117	0.358
-156.706	-55.757	0.301	-0.133
-155.691	-200.000	-0.026	0.115
-154.677	-200.000	0.029	-0.163
-153.662	22.251	-0.142	-0.115
-152.647	19.461	0.011	0.008
-151.633	-67.485	0.237	0.092
-150.618	-44.110	-0.076	-0.037
-149.604	-200.000	0.038	-0.200
-148.589	506.883	-0.104	-0.238
-147.574	-23.324	-0.219	0.130
-146.560	86.958	-0.054	-0.059
-145.545	380.299	-0.097	-0.196
-144.531	-155.188	-0.408	0.026
-143.516	-43.914	-0.214	-0.106
-142.502	-49.223	0.114	-0.054
-141.487	800.000	0.045	-0.159
-140.472	-200.000	-0.015	-0.316
-139.458	379.220	0.119	-0.240
-138.443	171.909	0.082	-0.117
-137.429	-85.725	0.217	0.067
-136.414	215.416	-0.276	0.432
-135.399	15.979	0.225	-0.175
-134.385	15.958	0.203	0.158
-133.370	73.947	0.070	0.072
-132.356	800.000	-0.084	0.276
-131.341	-63.271	0.092	-0.038
-130.326	185.641	0.108	0.158
-129.312	531.599	-0.121	0.283
-128.297	-115.969	-0.185	-0.034
-127.283	-23.669	-0.231	0.137
-126.268	1.574	0.129	-0.091
-125.253	-101.281	-0.028	0.007
-124.239	-158.606	0.330	0.019
-123.224	620.447	0.081	0.201
-122.210	190.176	0.046	0.069
-121.195	-200.000	0.008	0.066
-120.180	683.743	-0.064	0.164
-119.166	453.668	-0.067	0.145
-118.151	318.845	-0.156	-0.291
-117.137	-75.065	-0.074	-0.026
-116.122	-83.513	0.220	-0.070
-115.107	28.609	0.237	-0.198
-114.093	-81.029	0.088	0.029
-113.078	-51.694	-0.138	-0.063
-112.064	-11.133	0.233	-0.152
-111.049	-70.569	-0.294	0.110
-110.034	800.000	0.048	0.151
-109.020	-94.558	-0.449	0.120
-108.005	166.236	-0.138	-0.192
-106.991	279.925	-0.129	-0.227
-105.976	54.386	0.180	-0.171
-104.962	36.437	-0.178	0.155
-103.947	800.000	0.116	-0.384
-102.932	741.984	-0.060	0.159
-101.918	-182.483	-0.227	-0.004
-100.903	380.322	-0.167	0.337
-99.889	246.078	0.077	-0.128
-98.874	196.936	-0.161	-0.242
-97.859	-12.854	-0.151	-0.097
-96.845	-192.239	-0.242	-0.002
-95.830	800.000	0.090	-0.247
-94.816	-192.645	0.086	-0.001
-93.801	165.811	-0.091	-0.127
-92.786	800.000	0.135	0.465
-91.772	251.532	-0.177	0.298
-90.757	86.311	0.108	-0.117
-89.743	-36.366	0.263	-0.140
-88.728	-97.619	0.330	0.084
-87.713	75.660	0.063	0.065
-86.699	-77.484	-0.225	-0.077
-85.684	-4.517	0.232	0.158
-84.670	800.000	0.078	-0.248
-83.655	3.536	0.104	-0.075
-82.640	-83.259	-0.208	0.066
-81.626	-110.273	0.261	0.054
-80.611	800.000	0.078	-0.271
-79.597	165.709	-0.073	-0.102
-78.582	299.963	-0.061	0.110
-77.567	205.838	0.094	0.143
-76.553	82.366	-0.039	0.042
-75.538	-165.206	-0.180	-0.008
-74.524	800.000	-0.071	-0.270
-73.509	-103.759	-0.227	0.052
-72.494	-200.000	0.040	0.260
-71.480	220.474	-0.029	0.045
-70.465	800.000	0.077	0.263
-69.451	410.557	-0.028	0.059
-68.436	-114.605	-0.071	0.013
-67.422	-5.474	0.104	0.070
-66.407	29.326	0.113	0.094
-65.392	5.673	0.180	-0.131
-64.378	242.515	-0.199	0.328
-63.363	800.000	0.041	0.122
-62.349	48.547	0.075	0.069
-61.334	38.082	-0.828	-0.725
-60.319	215.433	0.370	0.577
-59.305	800.000	-0.319	-0.968
-58.290	800.000	0.389	1.346
-57.276	800.000	0.436	1.304
-56.261	-200.000	95.838	583.302
-55.246	561.370	1367.090	3251.213
-54.232	162.919	2539.071	3507.073
-53.217	112.439	2155.105	2564.614
-52.203	42.941	1703.176	1527.259
-51.188	35.555	1517.835	1310.833
-50.173	33.243	1490.687	1271.815
-49.159	51.924	1539.852	1441.850
-48.144	53.811	1557.355	1471.082
-47.130	35.727	1517.009	1311.085
-46.115	32.625	1502.535	1277.535
-45.100	32.444	1499.151	1273.383
-44.086	32.376	1497.352	1271.343
-43.071	32.449	1495.375	1270.107
-42.057	32.429	1493.520	1268.343
-41.042	32.475	1492.592	1267.816
-40.027	32.410	1490.986	1265.968
-39.013	32.415	1489.488	1264.678
-37.998	32.353	1488.223	1263.136
-36.984	32.450	1486.942	1262.652
-35.969	32.272	1485.909	1260.533
-34.954	32.477	1484.103	1260.318
-33.940	32.399	1483.210	1258.991
-32.925	32.466	1481.412	1257.860
-31.911	32.449	1480.153	1256.630
-30.896	32.489	1479.040	1255.898
-29.881	32.417	1477.815	1254.329
-28.867	32.538	1475.725	1253.311
-27.852	32.476	1474.574	1251.870
-26.838	32.478	1473.518	1250.943
-25.823	32.493	1471.581	1249.344
-24.809	32.503	1469.524	1247.616
-23.794	32.405	1468.577	1246.117
-22.779	32.459	1467.512	1245.519
-21.765	32.470	1466.764	1244.905
-20.750	32.425	1465.068	1243.120
-19.736	32.477	1463.803	1242.340
-18.721	32.325	1463.042	1240.640
-17.706	32.347	1462.245	1240.066
-16.692	32.450	1460.411	1239.134
-15.677	32.483	1459.257	1238.322
-14.663	32.419	1458.710	1237.389
-13.648	32.362	1458.062	1236.414
-12.633	32.303	1457.221	1235.265
-11.619	32.369	1455.908	1234.541
-10.604	32.414	1455.221	1234.200
-9.590	32.291	1454.791	1232.983
-8.575	32.280	1453.949	1232.148
-7.560	32.341	1452.688	1231.428
-6.546	32.364	1451.640	1230.641
-5.531	32.390	1450.983	1230.206
-4.517	32.270	1450.096	1228.621
-3.502	32.423	1448.549	1228.259
-2.487	32.348	1447.906	1227.174
-1.473	32.334	1447.186	1226.429
-0.458	32.427	1445.570	1225.616
0.556	32.936	1435.885	1214.000
1.571	30.069	1411.141	1174.827
2.586	26.834	1357.684	1110.450
3.600	25.419	1279.434	1038.188
4.615	23.878	1231.218	990.400
5.629	20.491	1173.095	925.551
6.644	10.942	1086.760	810.016
7.659	3.496	1044.614	742.783
8.673	2.383	1039.185	733.522
9.688	2.095	1036.080	729.887
10.702	1.989	1034.425	728.153
11.717	1.964	1032.674	726.734
12.731	5.604	1036.642	746.850
13.746	15.275	1050.013	802.938
14.761	23.074	1060.183	848.206
15.775	25.199	1062.015	859.793
16.790	25.499	1061.842	861.016
17.804	25.243	1061.564	859.488
18.819	25.218	1060.214	858.197
19.834	25.208	1059.765	857.711
20.848	25.307	1059.499	857.894
21.863	25.416	1058.910	857.862
22.877	25.445	1058.531	857.618
23.892	25.404	1057.988	856.904
24.907	25.256	1057.156	855.453
25.921	25.289	1056.328	854.861
26.936	25.406	1055.273	854.491
27.950	25.394	1053.882	853.231
28.965	25.267	1053.500	852.242
29.980	25.228	1051.944	850.724
30.994	25.178	1050.473	849.222
32.009	25.263	1050.242	849.363
33.023	25.415	1049.853	849.691
34.038	25.297	1048.082	847.629
35.053	25.173	1047.618	846.591
36.067	25.324	1047.432	847.076
37.082	25.366	1046.442	846.398
38.096	25.428	1045.436	845.804
39.111	25.687	1044.542	846.225
40.126	25.572	1044.232	845.357
41.140	25.626	1042.660	844.264
42.155	25.321	1041.314	841.669
43.169	24.941	1039.887	838.660
44.184	24.997	1038.943	838.088
45.199	25.121	1037.767	837.643
46.213	24.989	1037.005	836.342
47.228	24.962	1036.113	835.421
48.242	25.212	1035.508	836.024
49.257	25.322	1034.719	835.823
50.271	25.347	1033.928	835.228
51.286	25.446	1033.611	835.357
52.301	25.547	1032.380	834.759
53.315	25.405	1032.099	833.797
54.330	25.402	1031.170	832.960
55.344	25.278	1030.488	831.762
56.359	25.309	1029.426	830.976
57.374	25.284	1028.633	830.146
58.388	25.206	1027.724	828.977
59.403	25.215	1026.796	828.197
60.417	25.250	1026.004	827.644
61.432	24.979	1025.120	825.610
62.447	24.991	1024.472	825.069
63.461	25.072	1024.383	825.297
64.476	25.257	1023.149	825.081
65.490	25.170	1022.483	824.072
66.505	25.032	1021.533	822.601
67.520	24.921	1021.347	821.867
68.534	25.223	1019.981	822.081
69.549	25.048	1018.923	820.354
70.563	24.762	1018.058	818.277
71.578	24.598	1017.402	816.929
72.593	24.663	1016.513	816.440
73.607	24.516	1015.375	814.783
74.622	24.507	1014.449	813.924
75.636	24.761	1013.740	814.443
76.651	25.091	1013.071	815.333
77.666	24.829	1012.549	813.649
78.680	24.659	1012.167	812.497
79.695	24.723	1011.336	812.048
80.709	24.843	1010.626	811.951
81.724	25.022	1009.443	811.743
82.739	24.965	1008.547	810.690
83.753	25.050	1007.494	810.156
84.768	25.390	1006.751	811.025
85.782	25.522	1007.039	811.779
86.797	25.637	1006.473	811.770
87.812	25.651	1005.062	810.626
88.826	25.475	1004.300	809.146
89.841	25.580	1003.262	808.708
90.855	25.705	1002.192	808.337
91.870	25.580	1002.091	807.621
92.884	25.561	1001.281	806.815
93.899	25.542	1000.183	805.772
94.914	25.403	999.230	804.309
95.928	25.477	998.804	804.229
96.943	25.569	997.411	803.449
97.957	25.267	996.536	801.323
98.972	25.107	995.431	799.649
99.987	24.808	994.183	797.245
101.001	24.953	993.646	797.388
102.016	25.270	993.350	798.489
103.030	25.363	992.221	797.926
104.045	25.369	991.113	796.993
105.060	25.159	989.858	794.982
106.074	24.978	989.100	793.500
107.089	25.061	988.545	793.351
108.103	25.312	987.855	793.836
109.118	25.569	986.803	794.057
110.133	25.058	986.075	791.146
111.147	25.109	985.000	790.436
112.162	25.022	984.146	789.300
113.176	24.782	982.979	787.239
114.191	25.060	982.145	787.720
115.206	25.113	981.312	787.219
116.220	24.734	980.557	784.878
117.235	24.420	979.565	782.639
118.249	24.753	979.038	783.606
119.264	24.789	978.151	782.986
120.279	24.734	977.451	782.115
121.293	24.734	976.555	781.331
122.308	24.860	975.651	781.086
123.322	24.760	974.928	780.004
124.337	24.741	973.656	778.834
125.352	24.642	972.765	777.621
126.366	24.292	970.748	774.422
127.381	24.050	969.517	772.320
128.395	24.479	969.485	774.089
129.410	25.124	969.277	776.648
130.424	25.295	968.380	776.599
131.439	25.331	967.435	775.927
132.454	25.258	966.598	774.874
133.468	25.143	966.012	773.837
134.483	25.105	965.434	773.145
135.497	25.149	964.889	772.830
136.512	25.258	964.034	772.544
137.527	25.519	962.992	772.763
138.541	25.441	962.041	771.597
139.556	25.575	962.010	772.078
140.570	25.462	960.803	770.557
141.585	25.515	959.889	769.985
142.600	25.572	959.491	769.841
143.614	25.556	958.583	768.975
144.629	25.546	957.950	768.355
145.643	25.791	957.516	768.987
146.658	25.798	955.825	767.592
147.673	25.660	954.658	765.999
148.687	25.500	953.574	764.380
149.702	25.460	952.561	763.332
150.716	25.234	951.680	761.598
151.731	25.177	950.680	760.489
152.746	25.337	950.375	760.857
153.760	25.546	949.544	761.009
154.775	25.603	949.196	760.904
155.789	25.712	948.142	760.450
156.804	25.715	946.951	759.442
157.819	25.749	945.930	758.697
158.833	25.531	945.616	757.459
159.848	25.706	944.891	757.548
160.862	25.921	943.935	757.620
161.877	25.713	942.880	755.833
162.892	25.658	941.499	754.429
163.906	25.648	941.373	754.219
164.921	25.721	940.145	753.474
165.935	25.519	939.509	752.052
166.950	25.701	938.343	751.812
167.964	25.883	937.536	751.860
168.979	25.627	936.766	750.106
169.994	25.540	935.612	748.755
171.008	25.352	935.143	747.530
172.023	25.692	933.876	747.866
173.037	25.702	933.697	747.696
174.052	25.673	932.328	746.415
175.067	25.451	931.192	744.521
176.081	25.381	930.493	743.605
177.096	25.500	929.606	743.323
178.110	25.578	928.736	742.885
179.125	25.201	927.996	740.668
180.140	24.969	926.615	738.545
181.154	25.076	926.208	738.598
182.169	25.073	925.777	738.174
183.183	25.286	925.696	738.921
184.198	25.716	925.207	740.235
185.213	25.508	924.501	738.748
186.227	25.541	923.552	738.060
187.242	25.679	923.159	738.248
188.256	25.609	923.076	737.830
189.271	25.740	921.697	737.200
190.286	25.771	921.358	736.990
191.300	25.668	920.190	735.569
192.315	24.987	918.988	731.763
193.329	24.211	917.500	727.344
194.344	23.898	915.997	724.815
195.359	24.722	916.113	728.198
196.373	25.308	916.834	731.095
197.388	25.655	916.367	732.070
198.402	25.356	916.078	730.561
199.417	25.410	915.702	730.413
200.432	25.596	915.054	730.588
201.446	25.560	913.889	729.446
202.461	25.041	913.804	727.208
203.475	25.233	912.966	727.254
204.490	24.820	911.398	724.273
205.504	23.842	909.197	718.507
206.519	24.061	909.552	719.608
207.534	24.970	910.062	723.622
208.548	25.170	909.306	723.766
209.563	25.472	909.003	724.680
210.577	25.512	908.146	724.093
211.592	25.260	907.567	722.551
212.607	25.599	907.802	724.042
213.621	25.787	906.806	723.938
214.636	25.797	906.062	723.319
215.650	25.772	905.330	722.572
216.665	25.693	904.858	721.812
217.680	25.674	904.447	721.344
218.694	25.796	904.070	721.469
219.709	25.481	902.740	719.084
220.723	25.261	901.374	717.053
221.738	25.292	901.869	717.507
222.753	25.498	901.583	718.041
223.767	25.441	900.763	717.095
224.782	25.617	899.510	716.736
225.796	25.681	899.153	716.643
226.811	25.868	898.883	717.107
227.826	25.441	897.486	714.234
228.840	24.540	896.003	709.415
229.855	24.574	895.321	708.946
230.869	24.946	894.897	710.022
231.884	24.643	893.968	708.021
232.899	24.557	893.507	707.254
233.913	25.357	894.053	710.791
234.928	25.466	893.492	710.713
235.942	25.426	892.696	709.860
236.957	25.330	892.542	709.294
237.972	25.143	891.258	707.475
238.986	25.009	890.687	706.430
240.001	25.133	890.135	706.417
241.015	25.213	889.224	705.949
242.030	25.217	888.801	705.566
243.045	25.330	888.609	705.795
244.059	25.549	887.803	705.953
245.074	25.703	887.325	706.115
246.088	25.717	886.600	705.531
247.103	25.359	885.942	703.541
248.117	25.215	885.293	702.399
249.132	25.885	885.371	705.021
250.147	26.189	885.435	706.200
251.161	26.427	884.500	706.319
252.176	26.569	884.028	706.434
253.190	26.429	883.205	705.168
254.205	26.486	883.080	705.230
255.220	26.741	882.644	705.810
256.234	26.589	882.221	704.820
257.249	26.381	881.382	703.278
258.263	26.311	880.748	702.436
259.278	26.267	880.091	701.682
260.293	26.406	879.572	701.746
261.307	26.629	879.135	702.199
262.322	26.413	878.399	700.713
263.336	26.376	877.665	699.922
264.351	25.818	876.345	696.648
265.366	24.910	874.374	691.517
266.380	24.472	873.531	689.095
267.395	25.141	874.372	692.284
268.409	26.112	874.118	695.767
269.424	25.976	873.450	694.649
270.439	26.129	872.900	694.737
271.453	26.278	872.351	694.815
272.468	26.184	871.800	693.952
273.482	26.328	871.578	694.269
274.497	26.569	871.247	694.869
275.512	26.304	870.434	693.140
276.526	25.806	868.743	689.826
277.541	25.962	868.252	689.974
278.555	26.468	867.834	691.515
279.570	26.132	867.216	689.675
280.585	26.009	866.672	688.714
281.599	26.091	866.138	688.542
282.614	26.155	865.794	688.451
283.628	25.718	864.714	685.868
284.643	25.396	863.831	683.878
285.657	25.859	863.634	685.425
286.672	25.731	862.967	684.350
287.687	25.246	861.856	681.564
288.701	25.494	861.961	682.531
289.716	25.864	861.759	683.712
290.730	25.704	860.452	682.008
291.745	25.503	859.912	680.759
292.760	25.325	858.927	679.248
293.774	25.230	858.403	678.413
294.789	26.265	858.982	682.724
295.803	26.833	859.000	684.823
296.818	26.849	858.499	684.426
297.833	26.896	858.098	684.221
298.847	26.459	857.107	681.726
299.862	26.166	856.024	679.701
300.876	26.374	855.761	680.213
301.891	26.691	855.620	681.232
302.906	26.834	854.698	680.977
303.920	26.532	853.486	678.818
304.935	26.301	853.449	677.863
305.949	26.697	852.977	678.910
306.964	26.642	852.626	678.366
307.979	26.601	851.563	677.305
308.993	26.401	851.195	676.204
310.008	26.682	851.625	677.540
311.022	26.929	850.681	677.652
312.037	26.723	850.235	676.467
313.052	26.502	849.655	675.119
314.066	26.347	848.997	673.961
315.081	25.709	846.942	669.896
316.095	24.926	846.073	666.237
317.110	25.553	845.985	668.439
318.125	26.458	846.075	671.814
319.139	26.034	844.959	669.297
320.154	24.972	843.096	663.827
321.168	24.430	842.361	661.184
322.183	25.077	842.865	663.918
323.197	25.952	843.564	667.652
324.212	26.240	843.100	668.289
325.227	26.345	842.720	668.319
326.241	26.587	842.329	668.843
327.256	26.506	841.897	668.140
328.270	26.450	840.888	667.074
329.285	26.196	840.257	665.578
330.300	26.075	839.415	664.410
331.314	25.990	838.541	663.345
332.329	25.973	838.128	662.898
333.343	26.529	837.769	664.596
334.358	26.735	837.794	665.313
335.373	26.596	837.319	664.369
336.387	26.858	836.649	664.738
337.402	26.697	836.762	664.179
338.416	27.044	836.043	664.822
339.431	27.080	835.497	664.457
340.446	27.020	834.980	663.770
341.460	27.397	834.477	664.687
342.475	27.252	833.481	663.307
343.489	27.085	833.157	662.380
344.504	26.942	832.477	661.262
345.519	27.218	832.473	662.205
346.533	27.467	831.785	662.506
347.548	27.605	831.416	662.652
348.562	27.495	831.372	662.160
349.577	27.369	830.745	661.143
350.592	27.306	830.084	660.332
351.606	27.416	829.336	660.078
352.621	27.360	828.890	659.459
353.635	27.186	828.551	658.503
354.650	27.237	827.871	658.089
355.665	26.915	826.957	656.138
356.679	25.903	825.055	650.918
357.694	25.719	825.078	650.215
358.708	26.453	824.601	652.432
359.723	26.431	823.994	651.814
360.738	26.613	823.882	652.323
361.752	27.037	823.610	653.575
362.767	27.082	823.520	653.607
363.781	27.383	823.363	654.510
364.796	27.697	822.992	655.285
365.810	27.886	822.702	655.672
366.825	27.945	822.373	655.566
367.840	27.888	821.835	654.876
368.854	27.710	821.290	653.743
369.869	27.288	820.706	651.710
370.883	27.170	819.753	650.472
371.898	27.345	819.080	650.509
372.913	27.209	818.496	649.499
373.927	27.147	818.013	648.839
374.942	27.426	817.402	649.290
375.956	27.305	817.044	648.516
376.971	27.476	816.535	648.665
377.986	27.590	815.880	648.493
379.000	27.933	815.476	649.334
380.015	27.967	814.835	648.889
381.029	27.702	814.342	647.497
382.044	27.527	813.798	646.386
383.059	27.892	813.324	647.245
384.073	27.768	812.991	646.484
385.088	27.757	812.431	645.943
386.102	27.812	811.562	645.390
387.117	27.662	810.903	644.277
388.132	27.399	810.618	643.066
389.146	27.348	809.491	641.936
390.161	26.785	808.842	639.379
391.175	26.895	808.662	639.569
392.190	27.354	808.897	641.315
393.205	27.502	808.343	641.341
394.219	26.430	806.458	636.021
395.234	24.720	804.033	628.050
396.248	24.042	802.824	624.672
397.263	24.970	804.256	628.993
398.278	26.996	805.285	636.857
399.292	27.335	805.480	638.142
400.307	27.034	804.966	636.623
401.321	27.038	804.165	635.950
402.336	27.107	803.807	635.851
403.350	27.341	803.915	636.700
404.365	27.801	803.983	638.305
405.380	28.022	803.617	638.730
406.394	28.358	803.398	639.674
407.409	28.606	802.667	639.900
408.423	28.425	802.305	638.923
409.438	28.280	801.757	637.926
410.453	28.462	801.249	638.099
411.467	28.434	800.984	637.733
412.482	28.515	800.271	637.390
413.496	28.463	799.663	636.671
414.511	28.556	799.320	636.664
415.526	28.529	799.106	636.344
416.540	28.522	798.781	636.004
417.555	28.385	798.419	635.183
418.569	28.213	797.259	633.610
419.584	28.093	797.079	632.994
420.599	28.149	796.452	632.636
421.613	111.732	1284.705	1459.105
422.628	96.332	1355.847	1459.213
