DTS Sentinel unit serial number:	SN413079Multiplexer serial number:	ORYXHardware model number:	OX4-SRSoftware version number:	ORYX F/W v4.00 Oryx Data Collector v3.7.2.0data status	okinstallation	princeton_trtdifferential loss correction	single-endedforward channel	channel 3reverse channel	N/Adate	2019/09/11time	05:02:11forward acquisition time	60.00reverse acquisition time	0.00gamma	496.2192k internal	0.2330k external	0.2330temperature offset calibration	0.9907default loss term (dB/km)	0.3790temperature slope calibration	1.0000multiplexer offset coefficient	1.0000multiplexer slope coefficient	1.0000fibre end	0.00T internal ref (°C)	29.48T ext. ref 1 (°C)	-0.28T ext. ref 2 (°C)	23.36length (m)	temperature (°C)	Stokes	anti-Stokes-747.200	357.626	-0.168	-0.338
-746.185	800.000	-0.125	0.499
-745.171	-200.000	0.043	-0.190
-744.156	-200.000	0.008	-0.148
-743.142	-200.000	-0.014	-0.176
-742.127	51.479	0.130	-0.125
-741.112	320.175	-0.203	-0.389
-740.098	125.522	0.170	0.216
-739.083	198.324	-0.122	0.189
-738.069	-132.115	0.022	0.003
-737.054	335.945	0.075	-0.146
-736.039	-104.362	-0.393	-0.092
-735.025	272.695	0.128	0.227
-734.010	33.251	-0.117	-0.102
-732.996	-155.664	-0.283	-0.018
-731.981	-7.174	-0.391	0.267
-730.966	-97.052	0.069	-0.018
-729.952	-48.666	0.362	-0.175
-728.937	-83.386	-0.125	-0.040
-727.923	56.881	0.117	0.114
-726.908	-82.266	-0.232	-0.076
-725.894	664.379	0.036	-0.095
-724.879	583.649	0.048	0.119
-723.864	148.865	-0.132	-0.180
-722.850	-139.419	-0.223	-0.024
-721.835	-5.779	0.191	-0.131
-720.821	240.724	0.123	-0.206
-719.806	800.000	-0.083	-0.365
-718.791	-63.801	-0.330	-0.136
-717.777	-58.941	-0.349	-0.152
-716.762	-200.000	-0.076	0.362
-715.748	242.547	-0.040	0.067
-714.733	-127.391	-0.208	0.030
-713.718	106.823	0.133	0.159
-712.704	799.433	-0.155	-0.429
-711.689	-139.470	-0.254	-0.027
-710.675	-86.946	-0.115	-0.035
-709.660	17.433	-0.049	-0.039
-708.645	-78.206	-0.080	-0.028
-707.631	-40.751	-0.107	0.056
-706.616	44.871	-0.193	-0.179
-705.602	-94.949	0.229	0.062
-704.587	-200.000	0.094	0.476
-703.572	-200.000	0.040	-0.252
-702.558	90.571	0.105	-0.118
-701.543	800.000	0.122	-0.389
-700.529	-70.772	0.247	0.094
-699.514	800.000	-0.122	0.466
-698.499	461.617	0.091	-0.204
-697.485	61.785	-0.042	0.042
-696.470	116.276	-0.238	-0.293
-695.456	-132.889	-0.160	-0.021
-694.441	-146.232	0.113	-0.010
-693.426	800.000	0.061	-0.173
-692.412	-127.361	-0.363	-0.053
-691.397	59.358	-0.179	-0.177
-690.383	-200.000	0.005	0.145
-689.368	-200.000	-0.002	0.070
-688.354	-200.000	0.013	0.127
-687.339	-200.000	-0.020	0.272
-686.324	-142.913	-0.289	-0.028
-685.310	-39.924	-0.171	0.090
-684.295	244.296	-0.034	-0.057
-683.281	91.871	-0.095	0.107
-682.266	-129.575	0.170	0.024
-681.251	134.165	-0.060	0.078
-680.237	-67.193	-0.037	0.015
-679.222	46.690	0.059	0.055
-678.208	442.607	-0.031	0.068
-677.193	-200.000	-0.013	0.577
-676.178	-200.000	-0.011	0.194
-675.164	-12.057	0.205	0.135
-674.149	679.741	-0.121	0.317
-673.135	-58.741	-0.298	-0.130
-672.120	-26.713	0.284	0.167
-671.105	248.622	-0.154	0.261
-670.091	15.122	-0.336	-0.264
-669.076	-71.445	-0.259	-0.097
-668.062	-69.914	-0.068	-0.026
-667.047	800.000	-0.065	-0.210
-666.032	434.165	0.066	-0.144
-665.018	-69.323	-0.201	-0.078
-664.003	127.282	0.057	0.073
-662.989	-200.000	0.025	-0.143
-661.974	-131.557	-0.211	0.028
-660.959	343.953	-0.198	0.389
-659.945	428.890	-0.019	0.042
-658.930	-80.015	-0.132	-0.044
-657.916	105.812	-0.119	0.142
-656.901	-200.000	0.029	-0.431
-655.886	-30.054	0.195	-0.112
-654.872	-86.244	-0.306	0.094
-653.857	-144.418	-0.207	-0.019
-652.843	-80.813	0.153	-0.051
-651.828	-126.438	-0.218	-0.033
-650.814	-161.234	0.105	0.005
-649.799	-200.000	0.003	0.039
-648.784	-142.888	-0.572	0.056
-647.770	800.000	-0.004	-0.014
-646.755	-13.475	0.386	-0.251
-645.741	-200.000	0.056	0.294
-644.726	239.132	-0.136	0.227
-643.711	-62.410	-0.266	0.111
-642.697	-62.396	-0.225	-0.094
-641.682	-54.880	0.221	-0.100
-640.668	100.266	0.293	-0.341
-639.653	800.000	0.044	0.160
-638.638	-77.927	-0.052	-0.018
-637.624	337.760	0.106	-0.206
-636.609	-200.000	-0.053	0.335
-635.595	-200.000	0.059	0.392
-634.580	-27.876	-0.221	-0.128
-633.565	-72.753	0.325	-0.120
-632.551	125.156	0.114	-0.144
-631.536	-48.901	-0.264	0.127
-630.522	800.000	-0.043	-0.183
-629.507	-200.000	-0.028	0.382
-628.492	-151.940	-0.293	0.021
-627.478	-200.000	-0.082	0.388
-626.463	-32.042	-0.186	-0.104
-625.449	800.000	-0.104	-0.345
-624.434	-83.318	0.499	-0.161
-623.419	-101.415	0.234	-0.057
-622.405	-131.633	0.116	0.015
-621.390	115.971	-0.209	-0.257
-620.376	-99.668	-0.488	-0.123
-619.361	-64.758	0.183	-0.074
-618.346	-197.097	-0.512	-0.003
-617.332	94.928	-0.037	0.043
-616.317	48.601	0.171	0.161
-615.303	163.220	-0.235	0.331
-614.288	39.409	-0.187	-0.167
-613.273	204.899	-0.309	-0.480
-612.259	-71.569	0.178	-0.066
-611.244	800.000	0.067	0.204
-610.230	51.534	0.265	-0.252
-609.215	127.722	-0.044	0.056
-608.201	-94.217	-0.152	0.042
-607.186	-157.973	-0.186	0.011
-606.171	-54.920	0.254	-0.115
-605.157	-200.000	0.078	0.651
-604.142	-4.603	0.048	-0.033
-603.128	-25.266	0.176	0.105
-602.113	-106.781	0.220	-0.049
-601.098	45.462	0.132	0.122
-600.084	-58.987	-0.268	-0.116
-599.069	-200.000	0.028	0.167
-598.055	-50.750	0.117	0.055
-597.040	-16.544	0.130	-0.083
-596.025	-200.000	0.037	0.238
-595.011	211.212	0.149	0.235
-593.996	74.110	-0.265	0.278
-592.982	-200.000	-0.031	0.150
-591.967	651.426	-0.033	-0.085
-590.952	-200.000	0.138	-0.000
-589.938	-134.272	-0.481	-0.059
-588.923	-83.055	-0.305	-0.098
-587.909	-200.000	-0.005	0.099
-586.894	-199.962	-0.063	-0.000
-585.879	-17.592	0.231	-0.145
-584.865	2.583	0.155	-0.112
-583.850	-5.370	-0.127	-0.087
-582.836	215.763	-0.078	-0.123
-581.821	-200.000	0.025	-0.116
-580.806	-14.895	0.059	-0.038
-579.792	-66.008	0.180	-0.072
-578.777	-106.992	0.300	-0.066
-577.763	742.713	-0.064	0.172
-576.748	-200.000	-0.009	0.165
-575.733	-200.000	-0.018	-0.122
-574.719	-118.829	-0.051	0.009
-573.704	-60.744	0.038	0.016
-572.690	30.139	0.136	-0.116
-571.675	-200.000	-0.011	-0.071
-570.661	-200.000	-0.026	-0.133
-569.646	800.000	-0.052	-0.203
-568.631	234.612	0.150	0.248
-567.617	-200.000	0.044	-0.309
-566.602	304.829	0.091	-0.168
-565.588	800.000	-0.156	0.492
-564.573	-200.000	-0.016	0.105
-563.558	800.000	-0.018	-0.057
-562.544	-100.832	-0.220	-0.054
-561.529	14.217	-0.156	0.121
-560.515	800.000	0.086	0.332
-559.500	-3.662	-0.454	-0.316
-558.485	690.930	0.141	0.370
-557.471	-154.905	-0.122	-0.008
-556.456	-10.289	-0.091	-0.060
-555.442	-92.870	-0.237	0.066
-554.427	-168.670	0.200	-0.008
-553.412	-109.024	0.332	0.071
-552.398	430.336	-0.043	-0.093
-551.383	130.391	-0.217	-0.278
-550.369	-81.648	-0.356	-0.117
-549.354	523.555	0.148	-0.349
-548.339	447.404	-0.070	0.154
-547.325	-200.000	-0.020	0.221
-546.310	45.402	-0.178	0.164
-545.296	800.000	0.011	0.035
-544.281	53.078	0.158	0.151
-543.266	147.430	-0.140	0.188
-542.252	166.233	0.165	0.233
-541.237	-126.415	0.296	0.044
-540.223	-51.951	-0.133	0.062
-539.208	95.422	-0.199	-0.226
-538.193	163.787	-0.107	-0.150
-537.179	-126.805	0.361	-0.053
-536.164	768.522	-0.040	-0.109
-535.150	-200.000	-0.015	0.109
-534.135	546.568	-0.063	-0.150
-533.121	156.677	0.279	-0.385
-532.106	50.280	0.200	0.189
-531.091	-94.153	-0.461	-0.126
-530.077	800.000	-0.007	-0.021
-529.062	-44.911	-0.118	-0.059
-528.048	48.335	-0.132	-0.123
-527.033	-84.062	-0.402	0.127
-526.018	800.000	0.060	-0.216
-525.004	-112.855	-0.525	-0.104
-523.989	165.944	-0.153	-0.216
-522.975	277.633	-0.090	0.161
-521.960	-141.253	-0.172	-0.018
-520.945	-60.469	0.260	-0.110
-519.931	17.591	-0.093	-0.074
-518.916	694.110	-0.138	-0.362
-517.902	-151.455	0.214	0.016
-516.887	97.197	0.186	0.213
-515.872	140.165	-0.097	-0.127
-514.858	-200.000	0.015	-0.234
-513.843	57.040	-0.210	0.204
-512.829	800.000	0.013	0.053
-511.814	800.000	-0.048	0.199
-510.799	-90.374	0.194	0.056
-509.785	759.770	-0.160	-0.432
-508.770	681.251	0.096	0.249
-507.756	463.133	0.147	-0.327
-506.741	800.000	-0.044	0.190
-505.726	193.184	0.083	-0.125
-504.712	-200.000	0.002	0.248
-503.697	-61.059	0.065	0.028
-502.683	370.014	0.051	0.104
-501.668	-86.422	0.406	-0.124
-500.653	476.115	-0.106	0.240
-499.639	800.000	-0.031	0.124
-498.624	800.000	-0.100	-0.299
-497.610	-3.119	-0.251	-0.175
-496.595	-190.080	-0.237	0.003
-495.581	384.325	0.213	0.436
-494.566	66.982	0.137	0.139
-493.551	26.776	-0.384	-0.320
-492.537	288.883	0.088	0.159
-491.522	180.786	0.116	0.170
-490.508	48.485	0.171	-0.159
-489.493	787.703	0.056	-0.154
-488.478	-200.000	-0.031	0.209
-487.464	-173.721	0.155	-0.005
-486.449	-42.572	0.060	0.031
-485.435	-200.000	-0.005	0.082
-484.420	-31.978	-0.274	-0.153
-483.405	49.106	0.113	0.106
-482.391	234.293	-0.193	0.316
-481.376	-87.050	-0.321	-0.097
-480.362	-200.000	0.057	0.280
-479.347	800.000	0.020	0.061
-478.332	15.999	0.231	0.181
-477.318	-41.819	0.201	-0.103
-476.303	721.997	-0.065	0.171
-475.289	-3.657	0.248	-0.171
-474.274	-6.082	-0.089	-0.061
-473.259	-97.278	0.277	-0.072
-472.245	-114.065	-0.373	0.072
-471.230	248.512	0.057	-0.096
-470.216	800.000	-0.116	-0.395
-469.201	-200.000	-0.049	-0.262
-468.186	212.163	0.097	-0.152
-467.172	-200.000	0.010	-0.498
-466.157	-200.000	0.002	-0.426
-465.143	-99.691	0.244	-0.061
-464.128	-139.684	-0.113	0.012
-463.113	-139.677	-0.277	-0.029
-462.099	411.798	0.038	-0.081
-461.084	-200.000	-0.078	-0.428
-460.070	-200.000	0.057	-0.396
-459.055	-200.000	0.062	0.294
-458.040	-58.260	-0.458	-0.198
-457.026	82.041	-0.215	0.232
-456.011	-161.887	0.198	-0.010
-454.997	779.480	-0.071	0.193
-453.982	-107.608	-0.148	0.032
-452.968	-116.526	-0.209	-0.038
-451.953	-78.990	-0.076	-0.026
-450.938	-137.139	-0.379	0.043
-449.924	-112.400	-0.171	0.034
-448.909	78.951	0.136	-0.144
-447.895	-200.000	-0.007	0.047
-446.880	-189.615	-0.234	-0.003
-445.865	-108.153	0.295	-0.064
-444.851	800.000	-0.070	-0.271
-443.836	201.940	-0.080	0.123
-442.822	-200.000	0.029	-0.173
-441.807	-200.000	-0.011	-0.228
-440.792	-140.313	0.428	-0.045
-439.778	159.210	-0.134	-0.185
-438.763	1.455	0.182	0.130
-437.749	-16.797	-0.236	0.149
-436.734	-200.000	-0.040	-0.326
-435.719	540.044	-0.122	-0.290
-434.705	788.212	-0.079	0.215
-433.690	-49.005	0.109	0.052
-432.676	241.476	-0.231	-0.384
-431.661	101.213	0.316	0.365
-430.646	-200.000	-0.031	0.158
-429.632	562.856	0.067	-0.160
-428.617	-20.500	-0.219	0.134
-427.603	-85.254	-0.129	0.040
-426.588	57.997	-0.148	-0.144
-425.573	-68.857	0.559	0.215
-424.559	-187.900	0.194	0.003
-423.544	-110.784	0.198	0.041
-422.530	-100.088	-0.143	-0.035
-421.515	-90.904	-0.166	-0.047
-420.500	-79.916	0.132	-0.044
-419.486	-200.000	0.028	-0.154
-418.471	270.542	-0.053	-0.093
-417.457	41.866	0.192	0.173
-416.442	367.895	-0.051	0.103
-415.428	78.916	0.141	-0.150
-414.413	66.308	0.414	0.418
-413.398	-52.421	-0.152	-0.070
-412.384	279.422	0.105	0.186
-411.369	62.176	0.130	0.129
-410.355	-76.383	-0.269	-0.094
-409.340	800.000	0.065	-0.226
-408.325	800.000	-0.012	-0.048
-407.311	-13.776	-0.137	0.088
-406.296	44.274	-0.171	-0.156
-405.282	-141.424	-0.173	-0.017
-404.267	116.723	-0.149	0.181
-403.252	-43.358	0.302	0.152
-402.238	56.698	-0.199	-0.193
-401.223	-54.059	0.100	0.045
-400.209	260.043	0.174	-0.299
-399.194	-20.909	0.089	0.054
-398.179	-130.202	0.231	0.031
-397.165	-200.000	-0.020	0.273
-396.150	-200.000	-0.058	0.460
-395.136	173.390	0.078	0.112
-394.121	288.942	0.068	0.123
-393.106	4.016	-0.172	0.125
-392.092	800.000	-0.058	0.254
-391.077	-23.134	-0.284	0.170
-390.063	-200.000	0.014	0.255
-389.048	338.513	0.093	0.179
-388.033	-37.643	-0.153	-0.081
-387.019	376.455	-0.065	0.132
-386.004	-200.000	-0.021	-0.204
-384.990	-181.015	0.210	-0.004
-383.975	-22.488	0.210	-0.126
-382.960	-81.798	0.359	-0.117
-381.946	-35.262	0.057	-0.031
-380.931	114.407	0.121	-0.147
-379.917	-137.603	-0.486	-0.054
-378.902	-200.000	0.016	-0.093
-377.888	-83.200	-0.289	0.092
-376.873	800.000	-0.038	-0.155
-375.858	-39.986	-0.276	-0.143
-374.844	-114.049	0.146	-0.028
-373.829	-166.145	-0.183	0.008
-372.815	-1.464	0.224	0.157
-371.800	30.861	0.331	-0.282
-370.785	39.565	-0.291	0.258
-369.771	182.079	-0.093	-0.136
-368.756	-134.535	-0.121	-0.015
-367.742	-50.632	-0.261	0.122
-366.727	-79.784	-0.238	0.079
-365.712	-200.000	0.003	0.288
-364.698	-200.000	0.013	-0.178
-363.683	-32.996	-0.015	0.008
-362.669	373.078	-0.015	0.030
-361.654	-200.000	0.011	-0.062
-360.639	127.272	0.172	0.216
-359.625	4.954	-0.060	0.044
-358.610	800.000	-0.077	0.267
-357.596	-101.489	-0.431	-0.104
-356.581	3.154	0.309	-0.223
-355.566	256.132	0.189	-0.321
-354.552	-200.000	-0.003	-0.041
-353.537	10.021	-0.083	0.062
-352.523	-200.000	0.015	0.186
-351.508	-8.359	0.137	-0.092
-350.493	-106.065	0.640	0.143
-349.479	122.928	0.268	0.333
-348.464	-96.286	0.264	0.069
-347.450	-59.247	-0.162	-0.069
-346.435	-9.627	-0.213	0.141
-345.420	800.000	-0.089	0.323
-344.406	-133.577	0.527	0.065
-343.391	39.534	0.290	0.258
-342.377	-113.719	0.229	0.044
-341.362	-88.133	-0.229	0.068
-340.348	6.424	0.137	0.101
-339.333	60.773	0.180	-0.177
-338.318	800.000	-0.076	0.208
-337.304	-40.359	0.179	0.092
-336.289	-65.473	-0.198	-0.079
-335.275	10.814	-0.142	0.107
-334.260	-121.735	0.238	0.039
-333.245	-66.664	-0.145	-0.057
-332.231	-12.633	0.162	-0.105
-331.216	-200.000	-0.007	-0.236
-330.202	-200.000	0.021	-0.114
-329.187	-200.000	0.025	0.298
-328.172	467.213	-0.118	0.263
-327.158	-146.840	-0.363	-0.031
-326.143	249.907	0.109	-0.184
-325.129	-14.381	0.172	-0.110
-324.114	-39.786	0.284	0.147
-323.099	-76.557	-0.224	0.078
-322.085	-86.596	0.260	0.079
-321.070	587.123	0.097	0.237
-320.056	170.665	-0.097	0.138
-319.041	800.000	-0.169	0.496
-318.026	-200.000	-0.008	0.159
-317.012	95.676	0.129	0.145
-315.997	33.174	0.156	0.134
-314.983	214.532	-0.026	-0.040
-313.968	230.747	-0.061	-0.099
-312.953	10.292	0.129	-0.097
-311.939	408.964	0.099	-0.207
-310.924	-140.081	0.155	0.016
-309.910	-82.683	-0.292	0.093
-308.895	460.447	0.045	0.099
-307.880	-29.438	-0.213	-0.121
-306.866	-102.921	-0.136	0.032
-305.851	-200.000	-0.025	0.111
-304.837	86.083	-0.081	-0.088
-303.822	-200.000	0.001	-0.021
-302.807	155.336	0.098	-0.134
-301.793	176.909	0.145	0.209
-300.778	265.221	0.267	-0.460
-299.764	-131.176	-0.233	-0.031
-298.749	315.744	-0.037	0.069
-297.735	130.379	0.237	0.301
-296.720	47.580	-0.168	0.155
-295.705	304.119	0.084	0.153
-294.691	-96.910	0.313	0.081
-293.676	-50.372	0.140	0.065
-292.662	800.000	-0.145	-0.467
-291.647	-200.000	-0.003	0.142
-290.632	191.530	0.261	0.388
-289.618	103.513	-0.062	0.072
-288.603	116.595	0.209	-0.254
-287.589	-155.645	0.133	0.008
-286.574	-66.658	0.122	0.048
-285.559	-80.813	0.087	-0.029
-284.545	-113.610	0.308	-0.060
-283.530	-200.000	0.058	-0.290
-282.516	-102.982	0.166	0.039
-281.501	-200.000	0.041	-0.205
-280.486	-200.000	0.022	-0.196
-279.472	-200.000	-0.031	-0.197
-278.457	128.337	0.214	0.270
-277.443	-126.460	-0.050	-0.007
-276.428	464.574	-0.030	-0.067
-275.413	-66.067	-0.091	0.036
-274.399	-90.346	-0.216	-0.062
-273.384	27.605	-0.340	-0.283
-272.370	-165.346	-0.082	-0.004
-271.355	118.938	-0.089	0.109
-270.340	-200.000	-0.035	0.239
-269.326	-34.727	0.151	-0.082
-268.311	78.652	0.154	-0.163
-267.297	800.000	-0.047	-0.184
-266.282	47.805	0.202	0.186
-265.267	147.434	0.244	-0.325
-264.253	800.000	0.019	-0.064
-263.238	559.829	-0.126	0.301
-262.224	800.000	-0.047	-0.142
-261.209	-55.456	0.134	-0.059
-260.195	126.722	0.034	0.042
-259.180	186.556	0.133	0.196
-258.165	-178.020	0.290	0.007
-257.151	-200.000	-0.002	0.025
-256.136	-200.000	-0.036	-0.306
-255.122	-162.149	-0.179	0.009
-254.107	-200.000	0.010	0.233
-253.092	-200.000	0.019	-0.250
-252.078	-69.439	0.289	-0.109
-251.063	493.280	0.038	-0.087
-250.049	122.845	-0.256	-0.316
-249.034	147.355	0.065	0.087
-248.019	-104.613	-0.203	0.046
-247.005	-20.317	0.259	0.157
-245.990	141.598	0.280	-0.366
-244.976	-200.000	-0.016	-0.190
-243.961	39.547	-0.180	0.159
-242.946	382.039	0.091	-0.185
-241.932	-33.944	-0.260	0.142
-240.917	800.000	-0.013	-0.044
-239.903	-41.973	0.245	0.124
-238.888	156.104	0.090	0.123
-237.873	-32.024	-0.167	-0.092
-236.859	104.325	-0.114	-0.132
-235.844	-95.103	0.161	0.043
-234.830	-20.690	0.258	0.156
-233.815	-200.000	0.032	0.454
-232.800	-158.406	0.132	0.008
-231.786	-200.000	-0.009	-0.156
-230.771	-200.000	0.049	0.225
-229.757	-95.219	0.087	-0.023
-228.742	1.181	-0.175	-0.124
-227.727	5.110	-0.121	-0.088
-226.713	800.000	-0.036	-0.098
-225.698	292.476	0.127	-0.228
-224.684	-25.257	-0.336	0.196
-223.669	-22.410	-0.348	0.208
-222.655	-41.838	0.127	-0.064
-221.640	-40.294	0.260	-0.133
-220.625	45.561	0.277	-0.252
-219.611	-62.326	-0.127	-0.052
-218.596	-24.647	0.350	0.205
-217.582	-138.044	0.166	0.018
-216.567	45.005	-0.216	0.197
-215.552	392.478	-0.115	-0.237
-214.538	800.000	0.080	-0.230
-213.523	-56.427	0.111	0.049
-212.509	-53.746	-0.190	0.086
-211.494	-181.250	0.328	-0.006
-210.479	-14.046	-0.184	0.117
-209.465	-112.521	0.342	-0.067
-208.450	47.382	-0.112	-0.103
-207.436	190.180	0.144	0.213
-206.421	56.267	-0.251	0.241
-205.406	-91.812	0.073	-0.020
-204.392	82.784	0.183	-0.196
-203.377	-105.168	-0.158	0.036
-202.363	22.286	0.168	-0.136
-201.348	689.331	0.071	-0.182
-200.333	-29.386	-0.155	-0.088
-199.319	-100.420	0.317	-0.077
-198.304	-102.670	0.078	-0.018
-197.290	19.010	0.075	0.059
-196.275	-117.980	-0.171	0.030
-195.260	34.277	0.248	-0.214
-194.246	0.312	-0.167	-0.117
-193.231	-106.193	-0.514	0.114
-192.217	238.625	-0.195	0.319
-191.202	800.000	-0.090	0.256
-190.187	-125.209	0.283	-0.043
-189.173	23.439	0.082	0.066
-188.158	-31.748	0.051	-0.028
-187.144	-200.000	0.002	0.123
-186.129	40.285	0.241	0.213
-185.114	-200.000	-0.021	0.193
-184.100	38.547	0.167	0.146
-183.085	-200.000	0.057	-0.264
-182.071	-200.000	0.025	0.142
-181.056	-16.397	-0.342	-0.214
-180.042	2.591	0.157	-0.112
-179.027	-156.476	-0.380	-0.023
-178.012	-200.000	0.004	0.174
-176.998	-138.993	0.189	0.020
-175.983	-200.000	-0.029	0.129
-174.969	-97.791	0.097	0.025
-173.954	-34.795	0.096	0.052
-172.939	800.000	0.039	-0.147
-171.925	360.641	0.019	-0.037
-170.910	-200.000	-0.053	-0.329
-169.896	61.367	-0.299	-0.293
-168.881	171.943	-0.164	0.232
-167.866	-200.000	-0.023	-0.287
-166.852	74.485	-0.097	-0.100
-165.837	-6.994	-0.093	0.062
-164.823	141.299	0.135	-0.176
-163.808	-200.000	0.060	0.341
-162.793	157.338	0.132	-0.180
-161.779	-66.156	-0.191	0.075
-160.764	-22.443	-0.409	0.244
-159.750	-79.485	-0.184	-0.061
-158.735	-48.001	-0.122	0.058
-157.720	156.341	-0.108	-0.147
-156.706	-200.000	-0.036	-0.154
-155.691	346.654	0.012	0.023
-154.677	104.523	-0.013	0.016
-153.662	-200.000	-0.020	-0.194
-152.647	111.453	0.104	0.123
-151.633	-200.000	-0.023	0.101
-150.618	541.597	-0.072	-0.170
-149.604	151.211	0.248	0.332
-148.589	-86.891	0.281	-0.084
-147.574	-122.024	0.139	0.023
-146.560	7.373	-0.207	0.152
-145.545	-35.382	0.182	-0.098
-144.531	-169.159	0.289	-0.011
-143.516	-77.686	0.171	0.058
-142.502	514.898	-0.037	0.084
-141.487	-200.000	0.000	-0.038
-140.472	-57.008	0.137	-0.059
-139.458	432.603	0.087	-0.185
-138.443	800.000	-0.040	-0.145
-137.429	-56.169	0.217	-0.095
-136.414	52.287	0.189	-0.177
-135.399	60.631	-0.150	-0.146
-134.385	800.000	0.143	-0.390
-133.370	800.000	0.046	0.180
-132.356	106.183	0.197	-0.229
-131.341	800.000	-0.096	-0.335
-130.326	-31.928	0.230	-0.127
-129.312	-21.137	-0.087	-0.052
-128.297	-44.243	0.279	-0.137
-127.283	-59.127	0.246	0.104
-126.268	-17.365	-0.103	0.063
-125.253	285.236	0.085	-0.151
-124.239	481.083	-0.065	-0.145
-123.224	-200.000	-0.028	0.141
-122.210	800.000	-0.025	0.081
-121.195	800.000	-0.052	-0.215
-120.180	-200.000	-0.057	-0.300
-119.166	231.543	-0.099	-0.159
-118.151	154.626	-0.110	0.148
-117.137	203.898	0.110	-0.167
-116.122	58.323	0.107	0.103
-115.107	70.593	-0.209	-0.212
-114.093	15.651	-0.205	0.159
-113.078	42.734	0.327	-0.292
-112.064	-200.000	-0.002	0.011
-111.049	-200.000	0.032	-0.142
-110.034	183.188	0.131	-0.189
-109.020	465.201	0.103	-0.225
-108.005	-106.717	0.275	0.060
-106.991	61.415	0.223	0.218
-105.976	118.040	0.108	0.131
-104.962	-200.000	0.024	0.127
-103.947	-200.000	-0.031	-0.149
-102.932	-5.395	0.122	0.082
-101.918	-188.158	0.132	-0.002
-100.903	-200.000	-0.008	0.104
-99.889	168.957	0.132	0.185
-98.874	-55.629	-0.053	0.023
-97.859	-90.788	0.268	-0.076
-96.845	467.767	0.146	0.321
-95.830	225.567	-0.139	0.222
-94.816	800.000	0.028	-0.095
-93.801	-200.000	-0.024	0.185
-92.786	559.612	-0.116	-0.276
-91.772	-43.756	0.303	-0.150
-90.757	6.733	-0.186	-0.135
-89.743	-164.214	0.161	-0.007
-88.728	-43.412	0.086	0.043
-87.713	-108.168	-0.304	0.065
-86.699	800.000	0.096	-0.264
-85.684	-200.000	0.000	-0.379
-84.670	-43.729	-0.406	-0.201
-83.655	-200.000	0.052	0.328
-82.640	158.629	-0.097	-0.132
-81.626	592.303	-0.044	-0.106
-80.611	197.216	0.149	-0.223
-79.597	-3.971	0.107	-0.073
-78.582	-65.237	0.254	0.100
-77.567	-200.000	0.022	0.158
-76.553	-161.323	0.248	0.013
-75.538	-100.977	-0.104	-0.025
-74.524	-79.686	0.302	0.100
-73.509	-77.261	-0.162	-0.055
-72.494	131.931	-0.073	-0.092
-71.480	59.584	-0.147	0.142
-70.465	-200.000	-0.011	-0.151
-69.451	-96.323	0.254	-0.066
-68.436	-66.583	-0.171	0.066
-67.422	48.750	-0.257	-0.236
-66.407	67.641	-0.021	0.021
-65.392	-150.364	0.245	0.019
-64.378	234.758	0.145	0.234
-63.363	-98.820	-0.166	0.041
-62.349	-200.000	0.015	0.127
-61.334	45.525	-0.756	-0.684
-60.319	95.606	0.376	0.420
-59.305	800.000	-0.449	-1.227
-58.290	513.797	0.518	1.183
-57.276	-200.000	0.251	1.167
-56.261	-200.000	106.436	617.170
-55.246	508.286	1509.318	3434.268
-54.232	175.945	2702.466	3843.369
-53.217	110.649	2186.620	2576.726
-52.203	40.192	1705.326	1502.543
-51.188	32.568	1515.543	1283.570
-50.173	30.268	1488.776	1245.429
-49.159	51.333	1544.664	1436.860
-48.144	51.621	1561.097	1454.062
-47.130	32.731	1517.653	1286.266
-46.115	29.769	1502.267	1253.131
-45.100	29.703	1498.230	1249.270
-44.086	29.516	1496.176	1246.246
-43.071	29.432	1494.817	1244.502
-42.057	29.437	1492.791	1242.794
-41.042	29.503	1491.403	1242.035
-40.027	29.499	1489.807	1240.633
-39.013	29.562	1487.838	1239.361
-37.998	29.498	1487.091	1238.261
-36.984	29.462	1485.998	1237.064
-35.969	29.364	1485.018	1235.543
-34.954	29.419	1483.211	1234.357
-33.940	29.372	1482.062	1233.036
-32.925	29.446	1480.577	1232.249
-31.911	29.457	1479.493	1231.367
-30.896	29.508	1477.796	1230.247
-29.881	29.567	1476.592	1229.588
-28.867	29.635	1475.287	1228.904
-27.852	29.542	1473.878	1227.066
-26.838	29.536	1472.517	1225.846
-25.823	29.504	1471.154	1224.452
-24.809	29.580	1469.421	1223.463
-23.794	29.639	1467.600	1222.287
-22.779	29.520	1467.145	1221.075
-21.765	29.588	1465.855	1220.402
-20.750	29.543	1464.759	1219.143
-19.736	29.484	1464.027	1218.092
-18.721	29.525	1462.474	1217.026
-17.706	29.488	1461.498	1215.923
-16.692	29.473	1460.396	1214.858
-15.677	29.512	1459.297	1214.152
-14.663	29.469	1458.134	1212.851
-13.648	29.601	1456.761	1212.526
-12.633	29.470	1456.336	1211.269
-11.619	29.397	1455.825	1210.314
-10.604	29.405	1454.937	1209.583
-9.590	29.381	1454.180	1208.749
-8.575	29.466	1453.245	1208.477
-7.560	29.400	1452.228	1207.150
-6.546	29.466	1451.449	1206.887
-5.531	29.428	1450.890	1206.130
-4.517	29.421	1449.899	1205.208
-3.502	29.382	1448.557	1203.790
-2.487	29.491	1447.510	1203.583
-1.473	29.446	1446.243	1202.188
-0.458	29.398	1445.371	1201.105
0.556	26.923	1435.964	1190.138
1.571	24.086	1410.517	1150.640
2.586	20.743	1352.948	1082.821
3.600	19.335	1271.738	1009.499
4.615	18.265	1227.317	968.100
5.629	16.166	1172.852	913.697
6.644	8.244	1089.395	808.605
7.659	1.077	1049.111	743.566
8.673	-0.174	1043.143	733.163
9.688	-0.279	1039.856	730.279
10.702	-0.412	1038.182	728.392
11.717	-0.265	1035.815	727.380
12.731	3.015	1039.584	745.896
13.746	11.785	1052.490	798.026
14.761	18.595	1060.944	837.738
15.775	20.461	1063.122	848.508
16.790	20.872	1062.589	850.009
17.804	20.658	1061.727	848.205
18.819	20.526	1060.889	846.815
19.834	20.651	1060.427	846.983
20.848	20.636	1060.239	846.685
21.863	20.692	1059.847	846.566
22.877	20.699	1059.635	846.355
23.892	20.722	1058.736	845.678
24.907	20.639	1057.928	844.553
25.921	20.597	1057.190	843.686
26.936	20.635	1056.405	843.166
27.950	20.722	1054.809	842.241
28.965	20.635	1053.870	840.995
29.980	20.560	1052.026	839.090
30.994	20.390	1051.188	837.524
32.009	20.810	1049.788	838.360
33.023	20.815	1048.894	837.592
34.038	20.590	1047.771	835.543
35.053	20.543	1047.142	834.741
36.067	20.804	1046.566	835.459
37.082	20.744	1045.552	834.289
38.096	20.686	1045.064	833.546
39.111	20.844	1044.063	833.430
40.126	20.867	1043.503	833.022
41.140	20.909	1041.755	831.752
42.155	20.540	1040.302	828.762
43.169	20.276	1039.035	826.420
44.184	20.337	1037.998	825.813
45.199	20.403	1036.966	825.230
46.213	20.219	1036.382	823.823
47.228	20.331	1034.608	822.868
48.242	20.437	1034.260	823.022
49.257	20.380	1033.739	822.266
50.271	20.518	1032.793	822.094
51.286	20.757	1031.705	822.282
52.301	20.720	1031.091	821.543
53.315	20.665	1030.516	820.757
54.330	20.692	1029.960	820.367
55.344	20.621	1028.793	819.031
56.359	20.644	1028.087	818.502
57.374	20.617	1027.216	817.611
58.388	20.550	1026.123	816.353
59.403	20.560	1025.339	815.704
60.417	20.521	1024.856	815.067
61.432	20.311	1024.010	813.338
62.447	20.361	1023.192	812.851
63.461	20.421	1022.778	812.730
64.476	20.524	1021.624	812.222
65.490	20.441	1020.961	811.237
66.505	20.512	1019.865	810.625
67.520	20.434	1019.199	809.659
68.534	20.521	1018.303	809.283
69.549	20.419	1017.218	807.873
70.563	20.049	1015.919	805.049
71.578	19.910	1015.089	803.677
72.593	20.051	1014.827	804.054
73.607	19.907	1013.340	802.134
74.622	19.792	1012.662	800.996
75.636	20.205	1011.455	801.881
76.651	20.331	1010.945	801.986
77.666	20.164	1010.236	800.582
78.680	20.063	1009.250	799.265
79.695	20.257	1008.334	799.361
80.709	20.347	1007.817	799.296
81.724	20.326	1007.136	798.588
82.739	20.369	1005.939	797.767
83.753	20.424	1004.863	797.094
84.768	20.597	1004.643	797.641
85.782	20.925	1003.997	798.564
86.797	20.951	1003.461	798.187
87.812	21.015	1002.491	797.637
88.826	20.712	1001.542	795.424
89.841	20.816	1000.553	795.045
90.855	20.900	999.805	794.764
91.870	20.960	999.005	794.328
92.884	20.941	997.925	793.313
93.899	20.824	997.328	792.235
94.914	20.634	996.960	791.010
95.928	20.843	995.583	790.798
96.943	20.795	994.984	790.033
97.957	20.583	993.527	787.849
98.972	20.406	992.597	786.240
99.987	20.198	991.372	784.258
101.001	20.236	991.040	784.098
102.016	20.624	990.255	785.160
103.030	20.689	988.985	784.376
104.045	20.497	988.219	782.835
105.060	20.454	986.766	781.422
106.074	20.232	985.759	779.554
107.089	20.426	984.417	779.295
108.103	20.672	984.620	780.492
109.118	20.715	983.821	779.983
110.133	20.446	982.443	777.616
111.147	20.509	981.632	777.189
112.162	20.376	980.296	775.468
113.176	20.126	979.228	773.437
114.191	20.238	978.370	773.190
115.206	20.427	977.623	773.374
116.220	20.159	975.881	770.737
117.235	19.992	975.222	769.407
118.249	19.951	975.101	769.061
119.264	20.012	974.086	768.461
120.279	20.066	973.064	767.826
121.293	20.136	972.156	767.352
122.308	20.234	971.402	767.124
123.322	20.228	970.521	766.332
124.337	20.051	969.872	764.973
125.352	20.050	968.107	763.508
126.366	19.787	966.026	760.642
127.381	19.368	965.372	758.221
128.395	19.864	965.038	760.068
129.410	20.458	964.597	762.259
130.424	20.703	963.568	762.455
131.439	20.676	962.333	761.293
132.454	20.547	961.258	759.808
133.468	20.547	960.547	759.179
134.483	20.489	959.662	758.159
135.497	20.513	958.967	757.651
136.512	20.737	958.451	758.148
137.527	20.906	957.562	758.114
138.541	20.813	956.576	756.865
139.556	20.840	956.186	756.603
140.570	20.813	955.222	755.659
141.585	20.881	954.401	755.237
142.600	20.802	953.854	754.396
143.614	20.741	952.629	753.095
144.629	20.775	951.989	752.671
145.643	21.089	951.092	753.252
146.658	20.976	949.966	751.804
147.673	20.853	948.368	749.943
148.687	20.723	948.024	749.045
149.702	20.784	946.435	747.985
150.716	20.521	945.533	746.080
151.731	20.561	944.714	745.538
152.746	20.729	943.841	745.500
153.760	20.794	943.469	745.422
154.775	21.027	942.627	745.685
155.789	21.117	941.573	745.168
156.804	20.896	941.142	743.822
157.819	21.039	939.472	743.044
158.833	20.890	939.185	742.117
159.848	21.061	938.388	742.149
160.862	21.036	937.740	741.463
161.877	21.077	936.567	740.644
162.892	20.957	935.499	739.224
163.906	20.942	935.197	738.860
164.921	20.997	933.984	738.069
165.935	20.836	932.997	736.540
166.950	21.071	931.421	736.223
167.964	21.054	930.913	735.688
168.979	20.950	929.703	734.227
169.994	20.953	928.671	733.359
171.008	20.798	927.864	732.004
172.023	20.972	927.313	732.236
173.037	21.078	926.613	732.063
174.052	20.736	925.518	729.701
175.067	20.659	924.010	728.126
176.081	20.658	923.596	727.732
177.096	20.827	922.777	727.727
178.110	20.849	921.859	727.029
179.125	20.608	920.817	725.140
180.140	20.379	919.406	723.012
181.154	20.340	919.435	722.810
182.169	20.385	918.850	722.469
183.183	20.727	918.219	723.332
184.198	20.987	917.935	724.123
185.213	20.983	916.910	723.235
186.227	20.831	916.761	722.423
187.242	20.909	916.091	722.154
188.256	21.145	915.054	722.250
189.271	20.999	914.254	720.953
190.286	21.090	913.951	721.024
191.300	20.983	912.617	719.468
192.315	20.579	910.945	716.422
193.329	19.777	909.880	712.220
194.344	19.418	908.932	709.937
195.359	20.022	909.130	712.513
196.373	20.716	909.336	715.466
197.388	20.906	908.899	715.837
198.402	20.888	907.924	714.935
199.417	20.731	907.674	714.028
200.432	20.875	907.066	714.080
201.446	20.752	906.008	712.676
202.461	20.254	905.761	710.384
203.475	20.473	904.831	710.485
204.490	20.049	903.494	707.644
205.504	18.908	901.391	701.281
206.519	19.521	901.157	703.535
207.534	20.452	901.327	707.396
208.548	20.478	901.108	707.272
209.563	20.818	900.978	708.488
210.577	20.730	900.353	707.575
211.592	20.536	899.174	705.801
212.607	20.998	899.296	707.707
213.621	21.003	899.084	707.501
214.636	20.927	897.896	706.195
215.650	21.112	897.432	706.517
216.665	20.992	896.921	705.565
217.680	20.908	896.462	704.804
218.694	21.159	896.007	705.396
219.709	20.772	895.295	703.209
220.723	20.480	893.778	700.781
221.738	20.555	893.738	700.989
222.753	20.869	892.670	701.352
223.767	20.743	892.381	700.558
224.782	20.797	891.321	699.879
225.796	20.958	891.372	700.506
226.811	21.228	890.347	700.721
227.826	20.660	889.220	697.494
228.840	19.971	887.612	693.416
229.855	19.869	887.197	692.621
230.869	20.173	887.039	693.654
231.884	19.772	885.991	691.169
232.899	19.845	885.171	690.761
233.913	20.559	885.622	693.901
234.928	20.898	884.740	694.501
235.942	20.827	884.477	693.951
236.957	20.723	883.750	692.904
237.972	20.422	882.607	690.749
238.986	20.463	882.071	690.431
240.001	20.459	881.355	689.794
241.015	20.608	880.576	689.714
242.030	20.641	880.249	689.528
243.045	20.752	879.763	689.527
244.059	20.844	878.859	689.119
245.074	21.030	878.681	689.657
246.088	20.964	878.050	688.839
247.103	20.501	877.275	686.344
248.117	20.411	877.064	685.761
249.132	21.161	876.284	688.047
250.147	21.350	876.185	688.654
251.161	21.493	875.458	688.585
252.176	21.690	875.051	688.979
253.190	21.584	874.681	688.209
254.205	21.748	873.649	687.982
255.220	21.944	873.190	688.326
256.234	21.980	872.758	688.064
257.249	21.716	871.640	686.090
258.263	21.593	871.223	685.221
259.278	21.484	870.909	684.484
260.293	21.756	870.372	685.066
261.307	21.889	869.666	684.971
262.322	21.719	869.068	683.774
263.336	21.546	868.465	682.564
264.351	21.156	866.715	679.610
265.366	19.966	864.768	673.400
266.380	19.428	864.243	670.840
267.395	20.518	864.636	675.321
268.409	21.212	865.011	678.254
269.424	21.272	863.877	677.535
270.439	21.427	863.766	677.989
271.453	21.474	863.015	677.521
272.468	21.448	862.148	676.680
273.482	21.813	862.024	677.934
274.497	21.747	861.539	677.240
275.512	21.719	859.838	675.736
276.526	20.981	859.218	672.343
277.541	21.366	858.470	673.181
278.555	21.520	858.144	673.457
279.570	21.364	857.238	672.088
280.585	21.104	857.272	671.053
281.599	21.304	856.525	671.178
282.614	21.374	856.378	671.275
283.628	21.081	854.600	668.699
284.643	20.758	853.707	666.704
285.657	21.156	853.903	668.321
286.672	20.994	852.776	666.760
287.687	20.540	852.412	664.683
288.701	20.790	852.277	665.472
289.716	21.126	851.915	666.416
290.730	20.872	850.730	664.460
291.745	20.803	850.466	663.934
292.760	20.632	849.539	662.499
293.774	20.645	848.638	661.787
294.789	21.449	849.208	665.234
295.803	22.039	849.134	667.360
296.818	22.109	848.238	666.860
297.833	22.122	848.135	666.770
298.847	21.783	847.103	664.615
299.862	21.519	846.127	662.792
300.876	21.898	845.623	663.769
301.891	21.948	845.369	663.703
302.906	22.065	844.614	663.493
303.920	21.610	843.808	661.083
304.935	21.577	842.727	660.052
305.949	21.892	842.710	661.169
306.964	21.929	842.431	661.032
307.979	21.860	841.399	659.902
308.993	21.628	841.248	658.853
310.008	22.150	840.789	660.397
311.022	22.120	840.339	659.874
312.037	22.076	839.637	659.097
313.052	21.798	838.876	657.399
314.066	21.785	837.844	656.484
315.081	21.173	836.672	653.220
316.095	20.464	835.516	649.611
317.110	20.941	835.747	651.513
318.125	21.766	836.159	654.863
319.139	21.314	835.159	652.334
320.154	20.168	833.576	646.768
321.168	19.803	832.438	644.465
322.183	20.417	832.870	647.034
323.197	21.363	832.970	650.575
324.212	21.695	832.263	651.201
325.227	21.709	832.513	651.392
326.241	21.922	831.677	651.471
327.256	21.870	830.987	650.680
328.270	21.725	830.485	649.691
329.285	21.547	829.771	648.415
330.300	21.436	829.238	647.530
331.314	21.405	828.113	646.480
332.329	21.365	827.856	646.074
333.343	21.556	827.753	646.640
334.358	22.102	827.068	648.063
335.373	21.760	826.698	646.457
336.387	21.997	826.085	646.792
337.402	22.223	825.556	647.155
338.416	22.358	825.312	647.403
339.431	22.394	824.755	647.041
340.446	22.248	824.324	646.109
341.460	22.473	823.705	646.392
342.475	22.358	823.340	645.628
343.489	22.266	822.438	644.524
344.504	22.167	821.877	643.665
345.519	22.534	821.718	644.828
346.533	22.570	821.596	644.806
347.548	22.804	820.756	644.945
348.562	22.727	820.593	644.479
349.577	22.835	819.615	644.048
350.592	22.688	819.347	643.245
351.606	22.665	818.952	642.791
352.621	22.571	818.631	642.140
353.635	22.624	817.714	641.557
354.650	22.577	817.198	640.927
355.665	22.233	815.999	638.681
356.679	21.256	814.746	634.095
357.694	21.034	814.188	632.803
358.708	21.569	814.234	634.722
359.723	21.423	813.873	633.856
360.738	21.894	813.495	635.211
361.752	22.233	813.513	636.396
362.767	22.484	812.761	636.659
363.781	22.659	812.567	637.083
364.796	22.779	813.006	637.803
365.810	22.885	812.221	637.513
366.825	23.044	811.729	637.647
367.840	23.107	811.320	637.494
368.854	22.882	810.584	636.050
369.869	22.474	809.719	633.845
370.883	22.434	809.141	633.195
371.898	22.589	808.315	633.049
372.913	22.438	807.504	631.814
373.927	22.259	807.548	631.152
374.942	22.520	807.135	631.707
375.956	22.512	806.632	631.229
376.971	22.712	805.630	631.108
377.986	22.707	805.378	630.835
379.000	22.976	805.131	631.548
380.015	22.933	804.418	630.777
381.029	22.770	803.704	629.582
382.044	22.892	803.220	629.582
383.059	22.922	802.577	629.130
384.073	22.979	802.035	628.850
385.088	22.930	801.700	628.359
386.102	22.960	801.322	628.113
387.117	22.865	800.576	627.136
388.132	22.628	800.535	626.207
389.146	22.491	799.637	624.963
390.161	22.008	798.568	622.361
391.175	22.092	798.036	622.190
392.190	22.619	797.816	623.828
393.205	22.703	797.251	623.625
394.219	21.670	795.579	618.616
395.234	20.165	793.375	611.545
396.248	19.528	792.684	608.711
397.263	20.561	793.464	612.903
398.278	22.346	794.914	620.265
399.292	22.758	794.861	621.620
400.307	22.418	793.963	619.669
401.321	22.331	793.522	618.960
402.336	22.447	793.518	619.313
403.350	22.787	793.190	620.195
404.365	23.066	793.357	621.251
405.380	23.353	792.747	621.727
406.394	23.578	792.484	622.254
407.409	23.697	792.385	622.541
408.423	23.706	791.493	621.814
409.438	23.612	791.249	621.240
410.453	23.610	790.469	620.563
411.467	23.776	790.067	620.775
412.482	23.592	789.506	619.637
413.496	23.683	788.949	619.460
414.511	23.755	788.790	619.533
415.526	23.732	788.151	618.896
416.540	23.729	787.910	618.643
417.555	23.598	787.454	617.772
418.569	23.368	786.695	616.324
419.584	23.180	786.430	615.406
420.599	23.273	785.959	615.308
421.613	157.025	1364.163	1797.084
422.628	135.827	1448.401	1797.158
