DTS Sentinel unit serial number:	SN413079Multiplexer serial number:	ORYXHardware model number:	OX4-SRSoftware version number:	ORYX F/W v4.00 Oryx Data Collector v3.7.2.0data status	okinstallation	princeton_trtdifferential loss correction	single-endedforward channel	channel 3reverse channel	N/Adate	2019/09/12time	02:22:10forward acquisition time	60.00reverse acquisition time	0.00gamma	496.2192k internal	0.2321k external	0.2321temperature offset calibration	1.0068default loss term (dB/km)	0.3790temperature slope calibration	1.0000multiplexer offset coefficient	1.0000multiplexer slope coefficient	1.0000fibre end	0.00T internal ref (°C)	32.55T ext. ref 1 (°C)	2.09T ext. ref 2 (°C)	26.83length (m)	temperature (°C)	Stokes	anti-Stokes-747.200	-200.000	0.021	0.000
-746.185	-101.986	-0.095	-0.023
-745.171	-79.290	-0.414	0.142
-744.156	433.489	0.111	0.243
-743.142	-128.072	0.036	0.005
-742.127	-112.678	0.110	-0.022
-741.112	-20.869	-0.061	-0.038
-740.098	800.000	0.066	-0.227
-739.083	800.000	-0.032	0.139
-738.069	-2.031	-0.375	0.266
-737.054	84.357	0.029	-0.032
-736.039	-200.000	-0.005	0.050
-735.025	614.041	-0.033	-0.084
-734.010	49.330	-0.158	0.150
-732.996	215.259	-0.178	-0.285
-731.981	89.715	0.021	-0.024
-730.966	-122.234	0.013	-0.002
-729.952	-73.361	0.110	-0.041
-728.937	-200.000	0.048	-0.230
-727.923	425.260	-0.160	-0.348
-726.908	45.694	0.028	0.026
-725.894	175.571	-0.066	0.096
-724.879	-155.130	0.088	-0.006
-723.864	169.765	-0.122	0.177
-722.850	-29.046	-0.251	-0.146
-721.835	-48.130	-0.560	0.273
-720.821	-6.702	-0.178	0.122
-719.806	-165.089	0.385	-0.017
-718.791	-128.053	-0.152	-0.022
-717.777	-114.989	-0.315	-0.060
-716.762	800.000	-0.080	-0.263
-715.748	-200.000	-0.057	-0.256
-714.733	800.000	-0.075	-0.322
-713.718	-200.000	0.009	-0.277
-712.704	-5.178	-0.388	-0.269
-711.689	-75.183	-0.186	0.067
-710.675	-36.885	0.194	-0.105
-709.660	-145.966	-0.532	-0.048
-708.645	153.757	0.333	-0.461
-707.631	-26.056	-0.205	0.122
-706.616	412.323	0.082	0.176
-705.602	-97.578	0.355	0.093
-704.587	-5.894	-0.160	0.111
-703.572	24.500	0.219	0.183
-702.558	-145.765	0.134	-0.012
-701.543	-117.527	-0.156	0.028
-700.529	-2.368	-0.172	-0.122
-699.514	-18.580	0.133	0.083
-698.499	292.329	-0.151	0.277
-697.485	157.611	0.055	0.076
-696.470	-92.442	0.211	0.060
-695.456	22.859	-0.266	-0.220
-694.441	145.319	0.029	0.039
-693.426	68.398	0.009	-0.009
-692.412	-101.157	-0.230	0.057
-691.397	800.000	0.065	-0.199
-690.383	159.665	0.210	-0.295
-689.368	601.325	-0.061	0.153
-688.354	-171.161	-0.133	0.005
-687.339	-84.751	-0.367	0.116
-686.324	800.000	0.070	0.286
-685.310	-200.000	0.028	-0.157
-684.295	51.065	0.242	0.232
-683.281	-109.514	-0.083	-0.018
-682.266	172.120	0.074	-0.107
-681.251	800.000	0.028	-0.085
-680.237	800.000	-0.050	0.145
-679.222	800.000	0.046	-0.161
-678.208	-176.537	-0.152	0.004
-677.193	800.000	-0.100	-0.353
-676.178	800.000	-0.054	-0.202
-675.164	-47.726	-0.255	0.124
-674.149	-200.000	0.005	-0.120
-673.135	244.405	0.081	0.138
-672.120	-43.174	-0.040	-0.021
-671.105	508.077	-0.122	0.284
-670.091	561.918	0.060	-0.146
-669.076	291.306	0.117	0.215
-668.062	107.894	0.116	-0.140
-667.047	-81.607	-0.476	-0.157
-666.032	-116.677	0.118	0.022
-665.018	-157.552	0.205	0.012
-664.003	705.131	-0.075	0.199
-662.989	-64.803	-0.178	-0.073
-661.974	0.398	0.125	0.090
-660.959	-74.349	0.024	-0.009
-659.945	54.032	0.239	0.231
-658.930	64.594	-0.142	-0.144
-657.916	263.055	-0.138	0.242
-656.901	800.000	0.052	-0.162
-655.886	-123.666	-0.388	0.062
-654.872	-131.227	-0.130	0.017
-653.857	-15.564	0.083	-0.053
-652.843	304.025	-0.140	-0.261
-651.828	205.916	0.190	-0.297
-650.814	-5.106	-0.041	-0.028
-649.799	-200.000	-0.003	0.487
-648.784	49.393	0.088	0.083
-647.770	99.598	0.251	-0.293
-646.755	800.000	-0.012	-0.044
-645.741	337.286	-0.050	0.097
-644.726	-122.139	0.233	-0.038
-643.711	800.000	0.039	-0.164
-642.697	-8.185	0.180	-0.122
-641.682	148.279	-0.104	0.141
-640.668	800.000	-0.105	-0.331
-639.653	193.142	0.130	0.198
-638.638	-200.000	0.004	-0.037
-637.624	49.287	0.120	0.114
-636.609	-139.317	-0.379	0.041
-635.595	-24.491	0.247	-0.148
-634.580	-83.050	-0.276	-0.089
-633.565	-34.086	-0.160	-0.088
-632.551	800.000	0.090	0.264
-631.536	-137.305	0.102	0.012
-630.522	351.641	-0.070	-0.139
-629.507	52.135	-0.202	-0.193
-628.492	-43.630	-0.194	-0.099
-627.478	129.954	0.069	0.089
-626.463	-3.761	-0.278	-0.194
-625.449	-7.155	-0.119	-0.081
-624.434	-200.000	-0.046	0.390
-623.419	-79.426	0.348	0.119
-622.405	69.996	0.171	-0.178
-621.390	800.000	-0.043	0.125
-620.376	88.445	0.237	-0.265
-619.361	-128.559	0.312	0.044
-618.346	-117.529	-0.284	-0.052
-617.332	-102.533	-0.282	-0.068
-616.317	800.000	0.089	-0.294
-615.303	800.000	0.081	0.325
-614.288	-12.254	0.092	0.061
-613.273	800.000	-0.041	-0.134
-612.259	-200.000	0.023	-0.134
-611.244	178.028	0.034	-0.050
-610.230	164.900	-0.082	-0.116
-609.215	73.760	-0.147	-0.155
-608.201	328.156	-0.103	0.198
-607.186	-146.302	-0.285	0.025
-606.171	228.402	-0.065	0.106
-605.157	-54.622	0.254	0.115
-604.142	-200.000	0.008	0.119
-603.128	-39.048	-0.347	0.184
-602.113	-191.811	0.263	0.003
-601.098	-44.335	-0.370	-0.186
-600.084	-133.964	0.214	0.027
-599.069	-200.000	0.056	-0.321
-598.055	-42.143	0.225	-0.116
-597.040	89.923	-0.246	0.276
-596.025	-34.386	-0.216	-0.119
-595.011	-200.000	-0.025	0.321
-593.996	-200.000	0.002	-0.137
-592.982	705.168	0.023	0.060
-591.967	5.605	0.173	0.129
-590.952	-200.000	0.014	-0.147
-589.938	26.909	-0.228	-0.192
-588.923	50.673	-0.102	-0.097
-587.909	383.970	-0.070	0.146
-586.894	1.459	0.371	0.268
-585.879	-73.575	-0.321	0.118
-584.865	7.307	-0.077	0.058
-583.850	-65.765	0.195	-0.079
-582.836	594.351	0.061	-0.152
-581.821	219.430	-0.054	0.086
-580.806	-28.510	0.349	-0.202
-579.792	-37.687	-0.207	0.111
-578.777	800.000	-0.038	0.165
-577.763	-106.426	-0.145	0.033
-576.748	-42.626	-0.028	0.014
-575.733	-154.914	0.310	-0.021
-574.719	17.629	-0.227	-0.181
-573.704	-200.000	0.014	-0.363
-572.690	151.207	-0.045	-0.062
-571.675	-200.000	0.002	0.195
-570.661	-109.192	-0.305	-0.065
-569.646	-72.624	0.015	0.005
-568.631	800.000	0.107	0.400
-567.617	-200.000	0.014	-0.163
-566.602	-30.753	-0.258	0.147
-565.588	-200.000	0.024	0.288
-564.573	230.778	-0.027	-0.044
-563.558	-58.575	-0.397	-0.173
-562.544	-53.465	-0.071	0.033
-561.529	800.000	0.049	0.164
-560.515	151.753	0.109	-0.150
-559.500	251.577	-0.100	0.170
-558.485	-144.829	-0.074	0.007
-557.471	800.000	0.051	0.170
-556.456	-0.465	-0.166	0.118
-555.442	-102.133	-0.221	-0.053
-554.427	118.302	-0.150	0.186
-553.412	-57.583	0.151	0.067
-552.398	207.877	0.057	-0.090
-551.383	-200.000	0.016	0.127
-550.369	-20.846	0.346	-0.213
-549.354	-51.024	-0.092	-0.044
-548.339	-18.918	0.225	0.140
-547.325	95.115	0.179	-0.205
-546.310	105.281	-0.118	-0.139
-545.296	-58.755	0.074	-0.032
-544.281	529.606	-0.146	0.347
-543.266	14.661	0.041	0.032
-542.252	0.654	0.423	0.304
-541.237	-200.000	-0.046	-0.269
-540.223	-200.000	-0.017	-0.139
-539.208	1.927	-0.270	0.195
-538.193	176.273	0.087	-0.127
-537.179	101.832	-0.233	0.273
-536.164	-200.000	0.024	-0.114
-535.150	-166.837	0.181	0.007
-534.135	-32.390	-0.162	0.090
-533.121	594.080	-0.116	-0.287
-532.106	145.324	0.120	0.162
-531.091	332.269	-0.145	-0.281
-530.077	321.156	-0.087	-0.167
-529.062	-107.686	0.374	-0.082
-528.048	24.823	-0.016	-0.014
-527.033	-106.950	-0.286	0.063
-526.018	-56.107	-0.364	-0.162
-525.004	-200.000	-0.010	-0.260
-523.989	-113.702	0.207	0.040
-522.975	96.945	-0.078	0.089
-521.960	-92.668	-0.385	-0.108
-520.945	174.264	0.157	0.228
-519.931	203.706	-0.108	-0.167
-518.916	-200.000	-0.008	0.200
-517.902	13.514	-0.308	0.240
-516.887	12.639	-0.363	-0.281
-515.872	-155.120	0.182	0.012
-514.858	-200.000	0.031	0.174
-513.843	-124.528	0.267	0.042
-512.829	-8.493	-0.073	-0.049
-511.814	-11.631	0.109	-0.072
-510.799	-3.778	0.115	0.080
-509.785	-200.000	0.005	0.076
-508.770	121.910	-0.158	-0.197
-507.756	-9.394	-0.265	0.177
-506.741	-166.783	-0.117	-0.005
-505.726	581.385	-0.073	-0.179
-504.712	-0.994	0.235	-0.167
-503.697	-107.858	-0.384	-0.084
-502.683	-136.356	0.322	-0.038
-501.668	321.287	-0.027	0.051
-500.653	213.398	-0.037	-0.058
-499.639	-146.106	0.076	-0.007
-498.624	-200.000	-0.009	-0.254
-497.610	-12.664	-0.064	-0.042
-496.595	-200.000	0.022	0.111
-495.581	-135.145	0.172	0.021
-494.566	119.222	-0.223	0.276
-493.551	12.443	-0.187	-0.144
-492.537	20.444	0.183	0.148
-491.522	778.689	0.028	0.076
-490.508	-7.517	0.204	0.138
-489.493	-41.489	-0.048	-0.025
-488.478	-119.544	0.164	-0.028
-487.464	60.474	-0.087	0.086
-486.449	-101.353	-0.153	-0.037
-485.435	-46.497	0.320	0.157
-484.420	-200.000	-0.027	-0.131
-483.405	320.316	0.050	-0.095
-482.391	-200.000	0.037	-0.403
-481.376	50.280	0.058	0.055
-480.362	-78.092	-0.278	0.096
-479.347	-8.251	-0.065	0.044
-478.332	7.979	-0.087	-0.065
-477.318	-200.000	0.030	0.148
-476.303	-200.000	0.010	0.075
-475.289	-200.000	0.040	0.380
-474.274	416.303	-0.047	-0.101
-473.259	-200.000	-0.005	-0.105
-472.245	-91.715	0.232	0.066
-471.230	-200.000	0.016	-0.080
-470.216	-132.494	0.254	0.033
-469.201	-51.267	-0.238	-0.111
-468.186	-47.180	-0.056	-0.027
-467.172	-25.955	0.143	-0.084
-466.157	-178.822	0.075	0.002
-465.143	800.000	0.078	-0.253
-464.128	-21.577	0.132	-0.080
-463.113	-200.000	0.024	-0.332
-462.099	800.000	0.038	0.162
-461.084	23.495	-0.138	-0.114
-460.070	302.754	0.129	-0.238
-459.055	800.000	-0.140	0.474
-458.040	800.000	0.056	0.180
-457.026	-117.522	-0.275	0.050
-456.011	-200.000	-0.091	0.468
-454.997	65.707	-0.276	-0.280
-453.982	-165.391	-0.141	-0.006
-452.968	-144.718	-0.109	-0.010
-451.953	-136.380	-0.253	-0.029
-450.938	-145.787	0.187	-0.017
-449.924	19.986	0.223	-0.180
-448.909	50.467	-0.267	0.252
-447.895	800.000	-0.133	-0.383
-446.880	50.124	0.137	-0.130
-445.865	-200.000	-0.056	0.284
-444.851	-200.000	-0.025	-0.452
-443.836	-73.488	-0.376	-0.137
-442.822	-50.037	-0.181	0.086
-441.807	451.245	-0.049	0.109
-440.792	251.475	0.105	-0.178
-439.778	783.702	-0.222	0.609
-438.763	33.776	0.271	0.235
-437.749	71.226	0.091	-0.094
-436.734	-63.344	-0.072	-0.030
-435.719	451.723	-0.081	-0.178
-434.705	800.000	0.073	0.242
-433.690	199.967	0.161	0.246
-432.676	19.016	-0.095	-0.076
-431.661	-3.854	0.331	0.229
-430.646	-157.418	0.127	0.008
-429.632	-103.010	-0.388	0.092
-428.617	484.289	0.169	0.383
-427.603	800.000	-0.024	0.101
-426.588	367.901	-0.055	-0.111
-425.573	800.000	0.059	0.240
-424.559	155.459	-0.130	0.179
-423.544	535.603	-0.039	0.092
-422.530	-59.063	0.036	-0.015
-421.515	-3.265	0.122	0.085
-420.500	92.705	-0.058	-0.065
-419.486	72.049	-0.107	-0.112
-418.471	246.224	-0.157	0.264
-417.457	-121.165	0.296	0.049
-416.442	222.484	-0.240	0.386
-415.428	800.000	-0.097	-0.307
-414.413	148.645	-0.162	-0.219
-413.398	-200.000	-0.009	-0.289
-412.384	-148.868	0.400	0.032
-411.369	8.139	-0.330	0.247
-410.355	-110.997	0.356	0.073
-409.340	267.412	0.168	0.293
-408.325	-109.974	-0.191	0.040
-407.311	-150.768	-0.263	0.020
-406.296	35.909	-0.014	-0.012
-405.282	-89.992	0.125	-0.036
-404.267	-123.559	0.114	-0.018
-403.252	-200.000	-0.058	-0.260
-402.238	-200.000	-0.041	-0.490
-401.223	-61.459	-0.181	-0.076
-400.209	-65.711	0.341	-0.136
-399.194	215.124	0.204	0.323
-398.179	-88.583	-0.134	0.040
-397.165	391.908	0.046	0.096
-396.150	-200.000	0.007	-0.038
-395.136	407.199	-0.111	-0.233
-394.121	-200.000	-0.002	-0.112
-393.106	-24.451	0.254	0.151
-392.092	118.593	-0.106	-0.130
-391.077	169.508	0.161	0.230
-390.063	-54.182	0.211	0.096
-389.048	166.062	-0.198	0.280
-388.033	-68.341	-0.394	0.153
-387.019	-73.585	-0.227	0.083
-386.004	699.895	0.143	-0.374
-384.990	72.730	-0.089	0.092
-383.975	274.241	-0.129	-0.227
-382.960	123.432	0.238	-0.298
-381.946	-132.008	0.220	0.029
-380.931	51.194	-0.169	-0.160
-379.917	-32.227	0.093	-0.052
-378.902	142.806	0.092	0.122
-377.888	236.087	0.126	0.207
-376.873	125.671	-0.233	0.293
-375.858	-119.856	0.340	-0.058
-374.844	40.445	0.303	-0.271
-373.829	-0.899	-0.051	-0.036
-372.815	800.000	-0.073	-0.253
-371.800	110.624	-0.104	-0.124
-370.785	-200.000	-0.051	0.266
-369.771	31.130	0.074	-0.063
-368.756	99.607	0.188	0.217
-367.742	-126.700	-0.148	0.022
-366.727	-11.246	-0.248	-0.163
-365.712	-139.803	-0.106	0.011
-364.698	-61.169	-0.402	0.169
-363.683	-153.464	-0.299	-0.021
-362.669	-91.908	-0.191	0.054
-361.654	5.159	-0.230	-0.169
-360.639	-196.455	-0.230	-0.002
-359.625	-104.436	0.284	0.065
-358.610	-15.509	0.143	0.091
-357.596	280.749	-0.149	-0.265
-356.581	144.738	0.188	0.250
-355.566	31.683	0.054	0.046
-354.552	800.000	-0.106	-0.395
-353.537	-52.226	-0.176	-0.081
-352.523	24.337	-0.256	-0.211
-351.508	-200.000	-0.022	-0.145
-350.493	-200.000	0.020	0.184
-349.479	-39.822	0.151	-0.079
-348.464	143.984	0.127	0.169
-347.450	106.887	0.200	0.237
-346.435	800.000	0.062	0.193
-345.420	800.000	0.070	-0.231
-344.406	-200.000	0.047	0.285
-343.391	-3.702	-0.120	-0.083
-342.377	-134.575	0.377	0.046
-341.362	227.113	0.107	-0.173
-340.348	1.147	-0.105	-0.075
-339.333	-104.675	0.283	-0.065
-338.318	800.000	-0.024	-0.066
-337.304	-121.612	-0.322	-0.053
-336.289	-136.246	0.113	0.013
-335.275	-92.870	-0.320	-0.089
-334.260	-200.000	0.011	0.056
-333.245	160.357	0.136	0.189
-332.231	-101.085	-0.191	0.046
-331.216	-200.000	-0.002	-0.252
-330.202	-101.602	-0.283	0.068
-329.187	250.735	0.199	0.336
-328.172	3.881	-0.089	-0.065
-327.158	34.755	0.215	0.187
-326.143	130.173	-0.038	-0.048
-325.129	-46.707	-0.126	-0.062
-324.114	138.409	-0.134	0.175
-323.099	-200.000	-0.035	-0.253
-322.085	-119.607	0.565	0.097
-321.070	-104.743	0.116	-0.027
-320.056	148.294	0.242	0.324
-319.041	-141.588	-0.204	0.020
-318.026	800.000	0.051	0.198
-317.012	-200.000	0.038	0.267
-315.997	18.759	-0.183	0.146
-314.983	261.079	-0.183	-0.315
-313.968	-36.126	0.150	-0.081
-312.953	31.981	-0.231	-0.198
-311.939	-200.000	-0.039	-0.436
-310.924	313.689	0.167	-0.311
-309.910	378.419	0.261	-0.531
-308.895	-110.262	-0.009	0.002
-307.880	-200.000	0.004	0.074
-306.866	120.259	0.204	-0.251
-305.851	-73.179	-0.275	-0.100
-304.837	-175.021	-0.227	-0.006
-303.822	800.000	0.078	-0.251
-302.807	-194.689	-0.088	0.001
-301.793	36.176	0.122	0.107
-300.778	-153.649	-0.142	-0.010
-299.764	-40.215	-0.236	-0.122
-298.749	-200.000	0.010	-0.361
-297.735	800.000	-0.070	0.208
-296.720	-78.743	-0.089	-0.030
-295.705	-200.000	-0.039	0.245
-294.691	487.509	0.075	0.171
-293.676	800.000	-0.042	-0.137
-292.662	148.154	-0.080	0.107
-291.647	-41.076	-0.239	-0.123
-290.632	-19.736	0.313	-0.192
-289.618	195.629	0.057	-0.086
-288.603	-121.330	-0.170	0.028
-287.589	43.798	0.132	0.120
-286.574	220.425	0.105	0.167
-285.559	-200.000	0.001	0.231
-284.545	-135.644	0.256	-0.030
-283.530	-85.664	-0.310	0.096
-282.516	-111.197	0.370	0.075
-281.501	-81.042	0.292	0.096
-280.486	113.011	0.200	-0.241
-279.472	-68.793	0.223	0.086
-278.457	-200.000	0.027	0.186
-277.443	-15.847	-0.111	-0.070
-276.428	46.174	0.086	-0.079
-275.413	63.299	0.149	0.148
-274.399	-30.622	0.226	-0.127
-273.384	-200.000	0.049	0.248
-272.370	-93.283	0.136	-0.037
-271.355	-40.999	-0.182	0.094
-270.340	800.000	0.026	0.086
-269.326	292.586	-0.103	0.187
-268.311	800.000	0.047	-0.132
-267.297	-200.000	-0.020	0.138
-266.282	2.477	0.387	0.278
-265.267	-78.323	0.355	0.121
-264.253	-65.729	0.245	0.097
-263.238	-200.000	0.013	-0.225
-262.224	42.806	-0.048	0.044
-261.209	800.000	0.049	-0.183
-260.195	304.619	0.224	0.413
-259.180	128.009	0.303	-0.382
-258.165	-200.000	-0.003	-0.228
-257.151	-200.000	0.097	0.436
-256.136	-122.917	-0.066	0.010
-255.122	-200.000	0.007	-0.366
-254.107	92.742	0.289	-0.323
-253.092	73.568	-0.147	-0.152
-252.078	800.000	0.055	0.213
-251.063	-200.000	-0.024	0.129
-250.049	-200.000	0.013	-0.078
-249.034	-121.561	-0.028	0.005
-248.019	-4.132	-0.379	0.260
-247.005	-136.306	0.252	0.029
-245.990	270.390	-0.085	-0.149
-244.976	-52.994	-0.152	0.069
-243.961	-170.765	-0.207	0.007
-242.946	-200.000	-0.015	-0.259
-241.932	793.546	-0.116	0.315
-240.917	800.000	-0.051	-0.144
-239.903	296.582	0.096	-0.175
-238.888	-200.000	0.076	0.337
-237.873	-145.898	-0.391	0.034
-236.859	-51.399	0.367	-0.170
-235.844	298.790	-0.177	0.322
-234.830	-110.461	0.223	-0.046
-233.815	-200.000	0.027	-0.366
-232.800	-11.173	-0.166	-0.108
-231.786	383.636	-0.131	0.266
-230.771	-200.000	0.009	0.231
-229.757	127.985	-0.051	0.064
-228.742	533.470	0.136	-0.320
-227.727	800.000	-0.044	0.140
-226.713	-16.599	0.184	-0.116
-225.698	-192.037	0.273	0.003
-224.684	3.987	-0.141	-0.102
-223.669	-58.799	-0.239	-0.103
-222.655	-200.000	-0.005	-0.028
-221.640	-23.543	0.085	-0.050
-220.625	659.265	-0.039	-0.100
-219.611	-83.711	-0.241	0.076
-218.596	242.784	-0.117	-0.195
-217.582	-24.516	-0.069	-0.041
-216.567	-200.000	0.044	0.441
-215.552	10.080	0.179	0.135
-214.538	800.000	0.187	-0.625
-213.523	800.000	0.087	0.337
-212.509	-14.398	-0.122	-0.078
-211.494	800.000	-0.070	-0.221
-210.479	419.483	0.064	0.136
-209.465	33.070	-0.167	0.144
-208.450	77.411	-0.115	0.121
-207.436	-1.345	0.185	0.129
-206.421	87.272	0.180	-0.197
-205.406	-86.452	-0.114	-0.035
-204.392	800.000	-0.039	-0.165
-203.377	163.210	-0.089	0.124
-202.363	-24.495	0.216	0.127
-201.348	-22.795	0.263	0.157
-200.333	800.000	-0.083	0.314
-199.319	-92.421	0.157	0.044
-198.304	257.212	0.103	-0.176
-197.290	-75.618	0.181	0.064
-196.275	-200.000	-0.021	0.145
-195.260	209.267	0.035	-0.055
-194.246	106.097	0.219	0.256
-193.231	-139.649	-0.070	0.007
-192.217	-128.144	0.498	0.071
-191.202	150.480	-0.053	0.072
-190.187	-16.773	-0.171	-0.107
-189.173	-65.019	-0.112	-0.045
-188.158	666.075	0.076	0.193
-187.144	241.761	-0.147	0.243
-186.129	45.386	0.085	0.077
-185.114	41.279	-0.042	-0.037
-184.100	-95.910	0.261	0.069
-183.085	-117.821	-0.066	-0.012
-182.071	17.322	-0.288	-0.226
-181.056	-82.113	0.303	-0.098
-180.042	117.539	0.065	-0.079
-179.027	77.608	0.126	0.132
-178.012	-200.000	-0.025	-0.336
-176.998	-124.068	0.176	0.027
-175.983	-77.296	-0.246	-0.084
-174.969	-72.704	0.172	0.063
-173.954	-200.000	0.049	0.215
-172.939	-200.000	0.030	0.376
-171.925	800.000	0.063	0.205
-170.910	-42.586	0.260	-0.131
-169.896	800.000	0.129	-0.358
-168.881	-33.351	-0.227	0.124
-167.866	444.174	0.100	-0.217
-166.852	-129.735	0.092	-0.013
-165.837	788.980	-0.091	0.247
-164.823	10.194	-0.247	-0.186
-163.808	-200.000	-0.084	-0.381
-162.793	295.476	-0.122	-0.220
-161.779	477.073	0.088	0.196
-160.764	-5.335	-0.184	-0.125
-159.750	316.996	0.139	-0.260
-158.735	-200.000	0.024	-0.191
-157.720	-200.000	-0.021	-0.478
-156.706	-99.500	0.183	-0.045
-155.691	-105.530	-0.305	0.068
-154.677	-189.319	0.158	-0.002
-153.662	168.264	0.137	-0.192
-152.647	102.224	0.024	-0.028
-151.633	-200.000	-0.021	0.364
-150.618	-11.573	0.223	0.145
-149.604	-200.000	0.010	0.122
-148.589	-24.074	-0.030	0.018
-147.574	-164.674	0.391	-0.017
-146.560	36.729	-0.120	0.105
-145.545	-200.000	-0.049	-0.348
-144.531	-52.445	-0.172	-0.079
-143.516	-37.981	0.189	0.099
-142.502	-103.868	0.548	0.126
-141.487	96.082	-0.313	0.354
-140.472	-36.423	0.127	0.067
-139.458	-76.063	-0.112	-0.039
-138.443	-149.435	0.225	0.018
-137.429	-103.065	0.332	0.078
-136.414	-68.175	0.094	-0.036
-135.399	10.092	-0.298	0.223
-134.385	122.464	0.187	-0.231
-133.370	711.171	0.052	-0.137
-132.356	416.084	0.243	0.511
-131.341	800.000	-0.039	-0.131
-130.326	-200.000	0.046	0.320
-129.312	206.085	0.146	0.224
-128.297	-113.832	0.397	0.076
-127.283	197.876	-0.035	0.053
-126.268	-138.993	0.143	-0.015
-125.253	98.676	-0.014	-0.016
-124.239	-200.000	-0.003	-0.164
-123.224	-170.706	0.107	-0.004
-122.210	-64.993	-0.395	0.157
-121.195	-32.162	0.128	-0.070
-120.180	12.450	0.251	-0.191
-119.166	-5.555	-0.346	0.234
-118.151	800.000	-0.039	0.157
-117.137	-116.851	-0.422	0.076
-116.122	229.409	0.101	-0.163
-115.107	-105.086	-0.174	0.039
-114.093	16.313	0.254	0.198
-113.078	-23.600	-0.175	-0.104
-112.064	-57.019	-0.158	-0.069
-111.049	69.629	0.233	-0.237
-110.034	1.005	-0.142	-0.100
-109.020	-200.000	-0.015	0.430
-108.005	-200.000	0.022	-0.164
-106.991	377.912	0.050	0.102
-105.976	-3.361	-0.223	0.153
-104.962	383.143	-0.194	-0.393
-103.947	36.524	0.300	-0.261
-102.932	-49.182	0.045	-0.021
-101.918	-4.032	0.339	-0.232
-100.903	800.000	-0.067	0.243
-99.889	650.071	-0.005	-0.014
-98.874	-200.000	-0.027	0.144
-97.859	-163.099	0.080	0.004
-96.845	141.241	-0.091	0.119
-95.830	-200.000	0.014	-0.102
-94.816	155.316	0.046	0.063
-93.801	-137.730	-0.329	-0.036
-92.786	-76.964	-0.215	-0.074
-91.772	129.513	-0.200	-0.252
-90.757	75.585	0.051	-0.053
-89.743	-184.168	0.149	-0.002
-88.728	347.845	0.067	-0.131
-87.713	262.524	-0.103	0.176
-86.699	-200.000	-0.026	0.145
-85.684	48.611	0.196	-0.181
-84.670	800.000	-0.081	-0.335
-83.655	800.000	-0.029	0.090
-82.640	-26.549	0.181	0.104
-81.626	27.420	0.340	-0.282
-80.611	51.766	-0.245	0.229
-79.597	-174.683	0.389	-0.011
-78.582	800.000	-0.042	-0.147
-77.567	119.516	-0.173	0.211
-76.553	-76.972	0.117	-0.040
-75.538	-115.953	-0.109	0.020
-74.524	-64.737	0.376	0.150
-73.509	-35.132	0.043	0.023
-72.494	-92.463	-0.370	-0.102
-71.480	800.000	0.068	0.231
-70.465	800.000	0.049	0.169
-69.451	-50.394	0.332	-0.155
-68.436	-68.532	-0.291	-0.111
-67.422	-200.000	-0.003	0.424
-66.407	43.169	0.210	0.189
-65.392	698.618	0.098	0.253
-64.378	-142.448	0.110	0.011
-63.363	198.993	-0.163	-0.245
-62.349	547.404	0.182	0.429
-61.334	39.769	-0.884	-0.780
-60.319	263.776	0.434	0.743
-59.305	-200.000	-0.167	-0.856
-58.290	181.990	0.663	0.961
-57.276	-200.000	0.176	1.503
-56.261	-200.000	95.617	584.412
-55.246	566.833	1367.691	3266.076
-54.232	162.752	2539.973	3507.680
-53.217	112.104	2157.026	2564.684
-52.203	42.964	1704.690	1529.177
-51.188	35.755	1518.551	1313.155
-50.173	33.407	1491.715	1274.124
-49.159	52.031	1540.636	1443.674
-48.144	54.052	1558.167	1473.873
-47.130	35.907	1517.970	1313.480
-46.115	32.810	1503.163	1279.646
-45.100	32.568	1499.965	1275.235
-44.086	32.599	1498.220	1273.914
-43.071	32.598	1496.356	1272.271
-42.057	32.617	1494.169	1270.489
-41.042	32.482	1493.619	1269.061
-40.027	32.597	1492.101	1268.492
-39.013	32.584	1490.189	1266.731
-37.998	32.539	1488.981	1265.349
-36.984	32.472	1488.281	1264.255
-35.969	32.553	1486.709	1263.412
-34.954	32.519	1485.431	1262.048
-33.940	32.565	1484.437	1261.461
-32.925	32.555	1483.254	1260.345
-31.911	32.570	1481.332	1258.761
-30.896	32.563	1480.108	1257.620
-29.881	32.662	1478.545	1256.907
-28.867	32.635	1476.957	1255.322
-27.852	32.577	1475.641	1253.772
-26.838	32.526	1474.356	1252.289
-25.823	32.687	1472.427	1251.670
-24.809	32.623	1470.715	1249.738
-23.794	32.641	1469.234	1248.555
-22.779	32.552	1468.113	1246.962
-21.765	32.633	1467.228	1246.699
-20.750	32.729	1465.785	1246.056
-19.736	32.557	1465.151	1244.329
-18.721	32.542	1464.215	1243.384
-17.706	32.547	1462.644	1242.038
-16.692	32.601	1461.640	1241.492
-15.677	32.558	1460.758	1240.407
-14.663	32.539	1459.871	1239.478
-13.648	32.366	1459.280	1237.791
-12.633	32.550	1457.942	1237.814
-11.619	32.539	1456.893	1236.808
-10.604	32.500	1456.233	1235.943
-9.590	32.464	1455.662	1235.167
-8.575	32.477	1454.595	1234.303
-7.560	32.492	1453.252	1233.211
-6.546	32.439	1452.695	1232.344
-5.531	32.470	1451.826	1231.760
-4.517	32.453	1450.779	1230.713
-3.502	32.388	1450.143	1229.697
-2.487	32.572	1448.899	1229.796
-1.473	32.502	1447.752	1228.318
-0.458	32.619	1445.946	1227.495
0.556	32.981	1437.132	1215.899
1.571	29.970	1413.065	1176.337
2.586	26.798	1359.712	1112.398
3.600	25.498	1281.528	1040.819
4.615	23.962	1233.509	993.162
5.629	20.577	1175.550	928.373
6.644	11.006	1088.760	812.196
7.659	3.460	1046.660	744.400
8.673	2.366	1041.278	735.250
9.688	2.140	1038.442	732.101
10.702	1.886	1036.891	729.729
11.717	1.949	1035.031	728.655
12.731	5.545	1039.285	748.811
13.746	15.448	1053.185	806.561
14.761	23.109	1062.493	850.613
15.775	25.055	1064.829	861.775
16.790	25.414	1064.036	862.780
17.804	25.181	1063.752	861.356
18.819	25.077	1062.528	859.789
19.834	25.174	1062.260	859.959
20.848	25.330	1061.740	860.210
21.863	25.251	1061.678	859.706
22.877	25.425	1060.914	859.844
23.892	25.285	1060.513	858.775
24.907	25.194	1059.489	857.434
25.921	25.248	1058.778	857.040
26.936	25.303	1058.029	856.622
27.950	25.302	1056.619	855.398
28.965	25.228	1055.802	854.309
29.980	25.102	1054.659	852.707
30.994	25.155	1052.929	851.487
32.009	25.216	1052.491	851.346
33.023	25.496	1051.781	852.025
34.038	25.216	1050.669	849.721
35.053	25.142	1050.012	848.767
36.067	25.315	1049.432	849.041
37.082	25.383	1048.402	848.453
38.096	25.358	1047.580	847.595
39.111	25.484	1046.845	847.519
40.126	25.547	1046.103	847.140
41.140	25.472	1044.857	845.703
42.155	25.150	1043.676	843.160
43.169	24.851	1042.248	840.529
44.184	24.910	1041.169	839.859
45.199	24.983	1040.276	839.408
46.213	24.907	1039.307	838.193
47.228	24.918	1038.341	837.394
48.242	25.118	1037.920	837.914
49.257	25.087	1037.495	837.353
50.271	25.181	1036.478	836.897
51.286	25.312	1036.155	837.171
52.301	25.391	1035.151	836.652
53.315	25.447	1034.109	835.998
54.330	25.250	1033.788	834.750
55.344	25.247	1032.818	833.877
56.359	25.345	1031.747	833.396
57.374	25.352	1030.871	832.645
58.388	25.166	1029.602	830.688
59.403	25.049	1028.851	829.466
60.417	24.876	1029.002	828.712
61.432	24.986	1027.658	828.065
62.447	24.957	1027.081	827.391
63.461	25.093	1026.291	827.312
64.476	25.105	1025.554	826.699
65.490	25.104	1024.881	826.079
66.505	24.937	1023.646	824.241
67.520	24.980	1022.943	823.801
68.534	25.143	1022.636	824.228
69.549	25.037	1021.161	822.483
70.563	24.692	1019.795	819.724
71.578	24.439	1019.813	818.509
72.593	24.662	1018.801	818.643
73.607	24.536	1017.377	816.853
74.622	24.464	1016.767	815.962
75.636	24.815	1016.022	816.895
76.651	25.001	1015.007	816.855
77.666	24.801	1014.295	815.296
78.680	24.597	1013.895	813.972
79.695	24.768	1013.029	813.984
80.709	24.806	1012.546	813.700
81.724	24.937	1011.931	813.728
82.739	24.938	1010.888	812.823
83.753	24.804	1010.323	811.689
84.768	25.300	1009.088	812.871
85.782	25.497	1008.836	813.488
86.797	25.585	1008.466	813.512
87.812	25.494	1007.247	812.048
88.826	25.442	1006.224	810.916
89.841	25.413	1005.559	810.180
90.855	25.497	1004.436	809.581
91.870	25.494	1004.240	809.337
92.884	25.596	1003.151	808.845
93.899	25.517	1002.041	807.526
94.914	25.409	1001.165	806.261
95.928	25.528	1000.197	805.944
96.943	25.547	999.659	805.526
97.957	25.177	998.979	803.250
98.972	25.098	997.584	801.701
99.987	24.904	996.260	799.703
101.001	24.973	995.612	799.420
102.016	25.187	995.890	800.529
103.030	25.325	994.710	800.125
104.045	25.301	993.416	798.906
105.060	25.045	992.035	796.587
106.074	24.850	991.163	794.949
107.089	24.882	990.511	794.496
108.103	25.246	990.455	795.997
109.118	25.414	989.065	795.555
110.133	25.099	987.724	793.013
111.147	25.013	987.143	792.097
112.162	24.887	986.004	790.557
113.176	24.643	985.075	788.663
114.191	24.990	983.793	789.094
115.206	24.900	983.163	788.124
116.220	24.494	982.528	785.760
117.235	24.566	981.039	784.814
118.249	24.708	980.418	784.873
119.264	24.786	979.392	784.322
120.279	24.642	978.589	782.978
121.293	24.625	977.896	782.284
122.308	24.701	977.366	782.119
123.322	24.830	976.588	781.993
124.337	24.686	975.316	780.278
125.352	24.428	974.535	778.460
126.366	24.160	972.895	775.912
127.381	23.825	971.506	773.281
128.395	24.336	971.610	775.514
129.410	24.999	971.114	777.933
130.424	25.132	970.478	777.931
131.439	25.061	969.517	776.783
132.454	25.200	968.215	776.272
133.468	25.079	967.540	775.139
134.483	25.094	966.689	774.454
135.497	25.147	965.764	773.873
136.512	25.407	965.577	774.776
137.527	25.430	965.062	774.395
138.541	25.522	963.766	773.681
139.556	25.353	963.524	772.692
140.570	25.513	962.448	772.448
141.585	25.524	961.566	771.719
142.600	25.549	960.766	771.118
143.614	25.503	959.751	770.035
144.629	25.485	959.709	769.855
145.643	25.606	958.873	769.634
146.658	25.639	957.726	768.789
147.673	25.473	956.574	767.088
148.687	25.347	955.811	765.871
149.702	25.186	954.571	764.124
150.716	25.124	952.984	762.519
151.731	25.243	952.532	762.598
152.746	25.320	951.592	762.103
153.760	25.401	951.215	762.080
154.775	25.546	950.624	762.151
155.789	25.627	949.522	761.545
156.804	25.654	948.501	760.773
157.819	25.617	947.431	759.691
158.833	25.639	946.729	759.154
159.848	25.717	946.190	758.982
160.862	25.759	945.477	758.520
161.877	25.680	944.550	757.379
162.892	25.499	943.614	755.799
163.906	25.544	942.948	755.388
164.921	25.546	942.008	754.576
165.935	25.510	940.732	753.338
166.950	25.614	939.663	752.851
167.964	25.470	939.048	751.690
168.979	25.594	938.216	751.475
169.994	25.539	936.690	749.957
171.008	25.318	935.983	748.402
172.023	25.411	935.562	748.388
173.037	25.604	934.559	748.319
174.052	25.538	933.084	746.798
175.067	25.250	932.596	745.148
176.081	25.180	931.737	744.105
177.096	25.236	931.328	743.944
178.110	25.338	930.000	743.238
179.125	25.203	929.028	741.838
180.140	24.908	927.927	739.678
181.154	25.043	927.462	739.798
182.169	24.925	927.276	739.098
183.183	25.178	927.327	740.114
184.198	25.475	926.778	740.837
185.213	25.596	925.398	740.166
186.227	25.488	924.990	739.329
187.242	25.384	924.801	738.685
188.256	25.688	923.653	738.952
189.271	25.540	923.412	738.085
190.286	25.534	922.634	737.374
191.300	25.542	921.619	736.530
192.315	24.867	920.389	732.722
193.329	24.114	918.744	728.267
194.344	23.674	917.741	725.610
195.359	24.347	917.983	728.490
196.373	25.166	917.968	731.755
197.388	25.710	917.469	733.508
198.402	25.439	917.189	732.118
199.417	25.347	916.873	731.425
200.432	25.378	916.631	731.293
201.446	25.354	915.290	730.059
202.461	25.134	914.445	728.431
203.475	25.180	914.070	728.251
204.490	24.581	912.622	724.605
205.504	23.578	910.375	718.697
206.519	24.043	910.183	720.365
207.534	24.804	910.962	724.000
208.548	25.009	909.956	723.962
209.563	25.419	910.221	725.767
210.577	25.362	909.568	724.953
211.592	25.231	908.329	723.370
212.607	25.557	908.599	724.836
213.621	25.631	907.923	724.531
214.636	25.569	907.113	723.571
215.650	25.609	906.825	723.438
216.665	25.626	905.748	722.583
217.680	25.808	905.530	723.077
218.694	25.673	905.088	722.117
219.709	25.362	903.825	719.801
220.723	24.900	903.387	717.535
221.738	25.137	903.084	718.182
222.753	25.441	902.466	718.845
223.767	25.413	901.589	717.969
224.782	25.452	900.960	717.560
225.796	25.638	900.657	717.997
226.811	25.949	899.253	718.055
227.826	25.360	898.639	715.154
228.840	24.503	896.948	710.337
229.855	24.441	896.229	709.460
230.869	24.777	896.049	710.589
231.884	24.406	895.108	708.309
232.899	24.569	894.252	708.214
233.913	25.290	894.885	711.510
234.928	25.521	894.353	711.941
235.942	25.264	894.403	710.899
236.957	25.474	892.707	710.321
237.972	25.091	892.277	708.401
238.986	25.026	891.269	707.283
240.001	25.034	891.016	707.048
241.015	25.184	890.248	706.967
242.030	25.078	890.048	706.328
243.045	25.440	889.521	707.274
244.059	25.309	888.966	706.255
245.074	25.464	888.732	706.615
246.088	25.550	887.831	706.175
247.103	25.194	886.681	703.803
248.117	25.180	886.461	703.510
249.132	25.682	886.658	705.572
250.147	26.100	886.045	706.660
251.161	26.070	885.701	706.207
252.176	26.390	884.905	706.760
253.190	26.268	884.427	705.836
254.205	26.375	883.927	705.793
255.220	26.558	883.638	706.213
256.234	26.533	882.740	705.336
257.249	26.326	882.401	704.199
258.263	26.236	881.645	703.181
259.278	26.327	880.953	702.920
260.293	26.429	880.560	702.942
261.307	26.517	880.081	702.841
262.322	26.385	879.296	701.640
263.336	26.159	878.751	700.267
264.351	25.735	877.196	697.320
265.366	24.593	875.510	691.503
266.380	24.304	874.265	689.342
267.395	25.125	875.204	693.197
268.409	25.947	874.914	696.079
269.424	25.833	874.622	695.346
270.439	26.053	873.738	695.430
271.453	26.290	872.947	695.651
272.468	26.172	872.408	694.708
273.482	26.271	872.391	695.012
274.497	26.340	871.871	694.803
275.512	26.322	870.535	693.608
276.526	25.637	869.552	690.133
277.541	25.730	869.025	690.015
278.555	26.152	869.108	691.635
279.570	25.894	868.373	689.999
280.585	25.846	867.323	688.924
281.599	25.987	867.028	689.166
282.614	26.252	866.477	689.680
283.628	25.775	865.046	686.658
284.643	25.282	864.762	684.494
285.657	25.606	864.606	685.546
286.672	25.574	863.745	684.679
287.687	24.975	862.672	681.492
288.701	25.449	862.735	683.284
289.716	25.889	862.306	684.553
290.730	25.436	861.726	682.313
291.745	25.409	861.069	681.629
292.760	25.190	859.724	679.677
293.774	25.223	859.533	679.588
294.789	26.035	859.976	682.956
295.803	26.745	860.031	685.626
296.818	26.584	859.818	684.785
297.833	26.822	858.946	684.931
298.847	26.488	858.089	682.926
299.862	26.091	857.015	680.514
300.876	26.339	856.481	680.966
301.891	26.718	855.963	681.920
302.906	26.709	856.038	681.884
303.920	26.394	854.799	679.653
304.935	26.186	853.921	678.113
305.949	26.559	853.998	679.516
306.964	26.629	853.515	679.334
307.979	26.446	852.535	677.808
308.993	26.338	852.080	676.982
310.008	26.660	852.285	678.289
311.022	26.869	851.610	678.474
312.037	26.627	851.016	677.036
313.052	26.572	850.256	676.168
314.066	26.331	849.134	674.318
315.081	25.640	847.849	670.661
316.095	24.851	846.935	666.939
317.110	25.390	846.990	668.931
318.125	26.283	847.280	672.425
319.139	25.828	846.279	669.881
320.154	24.761	844.504	664.454
321.168	24.408	843.348	662.179
322.183	24.906	843.870	664.376
323.197	25.952	843.891	668.215
324.212	26.139	844.009	668.942
325.227	26.219	844.040	669.204
326.241	26.461	843.381	669.517
327.256	26.282	842.587	668.168
328.270	26.157	842.136	667.289
329.285	26.089	841.290	666.307
330.300	26.046	840.058	665.114
331.314	25.792	839.456	663.643
332.329	25.813	839.476	663.675
333.343	26.358	838.623	664.949
334.358	26.572	838.618	665.674
335.373	26.479	838.030	664.807
336.387	26.618	837.382	664.743
337.402	26.847	836.864	665.112
338.416	26.932	836.644	665.190
339.431	26.928	835.902	664.529
340.446	26.998	834.993	664.001
341.460	27.232	835.119	664.898
342.475	27.134	834.579	664.051
343.489	26.967	833.761	662.734
344.504	26.965	833.330	662.325
345.519	27.333	832.377	662.850
346.533	27.505	832.405	663.441
347.548	27.448	832.076	662.912
348.562	27.437	832.109	662.838
349.577	27.422	831.188	661.991
350.592	27.286	830.891	661.204
351.606	27.349	829.928	660.605
352.621	27.265	829.510	659.909
353.635	27.173	829.033	659.139
354.650	26.962	828.442	657.847
355.665	26.792	827.412	656.356
356.679	25.805	825.948	651.566
357.694	25.684	825.331	650.585
358.708	26.357	825.101	652.776
359.723	26.311	824.554	652.120
360.738	26.471	824.638	652.706
361.752	27.065	824.414	654.612
362.767	26.980	824.148	654.038
363.781	27.242	824.081	654.870
364.796	27.731	823.634	656.216
365.810	27.648	823.475	655.735
366.825	27.880	823.001	656.132
367.840	27.620	822.783	654.964
368.854	27.580	821.977	654.124
369.869	27.069	821.505	651.854
370.883	27.038	820.590	650.961
371.898	27.151	820.118	650.935
372.913	27.065	819.015	649.694
373.927	26.913	818.747	648.880
374.942	27.279	817.822	649.397
375.956	27.186	817.822	649.006
376.971	27.329	817.222	648.984
377.986	27.485	816.578	648.970
379.000	27.650	816.392	649.354
380.015	27.583	815.759	648.552
381.029	27.494	815.031	647.599
382.044	27.445	814.675	647.086
383.059	27.673	813.935	647.250
384.073	27.699	813.508	646.948
385.088	27.657	813.103	646.418
386.102	27.717	812.504	646.097
387.117	27.517	811.641	644.645
388.132	27.471	810.967	643.890
389.146	27.338	810.176	642.736
390.161	26.644	809.587	639.762
391.175	26.748	809.133	639.714
392.190	27.261	809.061	641.409
393.205	27.236	808.870	641.113
394.219	26.295	807.009	636.270
395.234	24.708	804.918	628.986
396.248	24.057	803.234	625.331
397.263	24.912	804.549	629.303
398.278	26.786	805.774	636.797
399.292	27.375	805.600	638.669
400.307	26.979	805.170	636.884
401.321	27.023	804.685	636.599
402.336	27.039	804.517	636.465
403.350	27.343	804.286	637.290
404.365	27.686	804.556	638.651
405.380	27.965	804.185	639.274
406.394	28.240	803.821	639.890
407.409	28.499	803.328	640.347
408.423	28.391	802.785	639.480
409.438	28.411	802.236	639.055
410.453	28.275	801.800	638.177
411.467	28.501	801.214	638.443
412.482	28.303	801.210	637.691
413.496	28.316	800.285	636.945
414.511	28.265	800.486	636.871
415.526	28.571	799.594	637.169
416.540	28.453	799.152	636.351
417.555	28.364	798.770	635.682
418.569	28.106	797.750	633.918
419.584	28.053	797.511	633.488
420.599	28.078	797.111	633.201
421.613	111.761	1284.528	1459.710
422.628	96.392	1355.505	1459.824
