DTS Sentinel unit serial number:	SN413079Multiplexer serial number:	ORYXHardware model number:	OX4-SRSoftware version number:	ORYX F/W v4.00 Oryx Data Collector v3.7.2.0data status	okinstallation	princeton_trtdifferential loss correction	single-endedforward channel	channel 3reverse channel	N/Adate	2019/09/11time	06:30:10forward acquisition time	60.00reverse acquisition time	0.00gamma	496.2192k internal	0.2330k external	0.2330temperature offset calibration	0.9909default loss term (dB/km)	0.3790temperature slope calibration	1.0000multiplexer offset coefficient	1.0000multiplexer slope coefficient	1.0000fibre end	0.00T internal ref (°C)	29.62T ext. ref 1 (°C)	-0.17T ext. ref 2 (°C)	24.31length (m)	temperature (°C)	Stokes	anti-Stokes-747.200	-34.282	0.204	-0.113
-746.185	-200.000	0.000	-0.052
-745.171	199.203	0.189	0.291
-744.156	-18.606	0.161	-0.101
-743.142	-120.297	0.297	0.051
-742.127	-64.401	-0.257	0.105
-741.112	-131.241	-0.156	-0.021
-740.098	634.304	0.071	0.182
-739.083	55.317	-0.209	0.203
-738.069	-86.222	-0.224	-0.069
-737.054	7.809	-0.234	-0.177
-736.039	34.355	-0.216	-0.190
-735.025	-69.840	-0.127	0.049
-734.010	175.113	0.195	-0.284
-732.996	773.682	-0.041	-0.112
-731.981	-200.000	0.069	-0.311
-730.966	12.639	-0.156	0.121
-729.952	35.678	-0.073	0.065
-728.937	-34.723	-0.104	-0.057
-727.923	161.525	-0.187	0.263
-726.908	-17.172	-0.072	-0.046
-725.894	-89.971	-0.223	-0.065
-724.879	141.242	-0.160	-0.213
-723.864	400.457	-0.047	0.099
-722.850	-200.000	0.023	-0.142
-721.835	-106.702	0.560	0.125
-720.821	-200.000	0.016	0.216
-719.806	-131.640	-0.242	-0.032
-718.791	122.746	-0.228	-0.287
-717.777	-29.823	0.297	0.170
-716.762	-82.086	-0.074	-0.024
-715.748	531.019	0.042	-0.099
-714.733	-58.875	0.176	-0.077
-713.718	-200.000	0.048	-0.429
-712.704	276.178	-0.057	-0.102
-711.689	-45.023	-0.583	-0.292
-710.675	-200.000	0.011	-0.194
-709.660	-110.990	0.350	-0.072
-708.645	138.421	0.044	0.058
-707.631	140.634	-0.095	-0.126
-706.616	51.954	0.061	0.058
-705.602	-151.123	0.226	-0.017
-704.587	-44.944	0.172	0.086
-703.572	-200.000	-0.049	-0.223
-702.558	-200.000	-0.026	-0.177
-701.543	28.825	0.037	0.032
-700.529	-106.663	0.218	0.049
-699.514	-200.000	-0.024	-0.130
-698.499	800.000	0.128	-0.405
-697.485	-198.347	0.159	0.001
-696.470	-32.270	0.128	0.072
-695.456	-100.280	0.301	0.075
-694.441	-111.482	0.091	0.019
-693.426	-77.633	-0.208	0.072
-692.412	408.265	-0.119	0.253
-691.397	723.204	-0.025	-0.066
-690.383	800.000	-0.044	0.136
-689.368	308.596	-0.089	0.166
-688.354	-96.153	0.195	0.052
-687.339	49.625	0.051	0.048
-686.324	197.031	0.031	0.047
-685.310	272.626	-0.123	-0.219
-684.295	-117.444	0.244	0.044
-683.281	-200.000	-0.013	0.173
-682.266	-121.292	0.268	-0.045
-681.251	800.000	0.047	-0.201
-680.237	156.584	-0.077	0.107
-679.222	-86.505	0.347	-0.107
-678.208	-129.617	-0.325	-0.045
-677.193	493.599	0.067	0.154
-676.178	-200.000	-0.003	-0.038
-675.164	151.155	-0.084	0.115
-674.149	76.715	-0.261	-0.278
-673.135	-84.843	0.142	-0.045
-672.120	-200.000	-0.003	-0.135
-671.105	-17.217	0.089	-0.056
-670.091	219.759	-0.119	0.191
-669.076	177.442	0.021	-0.031
-668.062	-78.848	0.201	0.069
-667.047	-200.000	-0.001	-0.221
-666.032	350.097	-0.034	-0.067
-665.018	-148.814	-0.053	-0.004
-664.003	-54.445	0.345	0.157
-662.989	-153.144	-0.122	-0.009
-661.974	-26.595	-0.226	-0.133
-660.959	-68.377	-0.413	0.161
-659.945	-90.561	0.234	-0.068
-658.930	800.000	0.098	-0.309
-657.916	-200.000	-0.007	-0.067
-656.901	800.000	-0.060	0.228
-655.886	-54.887	0.259	-0.117
-654.872	-194.727	-0.091	-0.001
-653.857	214.052	0.118	0.187
-652.843	-36.434	0.215	-0.116
-651.828	-83.485	-0.350	0.112
-650.814	-109.518	0.079	0.017
-649.799	800.000	-0.126	0.441
-648.784	-200.000	0.028	-0.186
-647.770	800.000	0.041	-0.162
-646.755	-74.157	-0.125	0.046
-645.741	59.900	-0.254	-0.252
-644.726	568.871	0.069	0.168
-643.711	800.000	-0.051	-0.214
-642.697	-151.619	-0.044	-0.003
-641.682	12.699	0.368	0.285
-640.668	800.000	0.050	0.208
-639.653	106.976	0.135	-0.161
-638.638	-200.000	-0.007	-0.122
-637.624	98.326	0.009	0.010
-636.609	158.659	0.176	-0.245
-635.595	-15.655	0.145	-0.093
-634.580	190.979	0.021	0.031
-633.565	194.784	-0.045	-0.069
-632.551	50.192	-0.099	-0.093
-631.536	-200.000	0.352	0.000
-630.522	-200.000	0.011	-0.115
-629.507	36.468	-0.168	0.149
-628.492	224.383	-0.066	0.107
-627.478	800.000	0.079	0.241
-626.463	84.031	-0.134	-0.147
-625.449	-29.974	-0.179	-0.102
-624.434	-200.000	-0.011	-0.267
-623.419	548.799	0.098	-0.234
-622.405	83.298	-0.104	0.113
-621.390	125.221	-0.089	-0.113
-620.376	800.000	-0.047	-0.134
-619.361	48.481	-0.155	0.145
-618.346	-108.039	-0.025	-0.005
-617.332	800.000	0.037	-0.151
-616.317	-27.151	-0.230	-0.134
-615.303	469.315	0.083	-0.186
-614.288	-53.068	0.302	0.139
-613.273	-65.052	-0.149	-0.060
-612.259	-200.000	0.036	0.326
-611.244	168.116	-0.196	-0.279
-610.230	264.772	0.167	-0.291
-609.215	116.722	0.149	-0.183
-608.201	156.674	-0.081	-0.112
-607.186	-200.000	-0.034	-0.406
-606.171	321.516	0.133	-0.254
-605.157	-200.000	0.025	-0.320
-604.142	68.981	0.171	-0.176
-603.128	131.496	-0.132	0.170
-602.113	203.426	-0.116	-0.179
-601.098	147.745	0.111	-0.150
-600.084	800.000	0.082	0.275
-599.069	-108.034	0.189	0.041
-598.055	800.000	0.026	-0.092
-597.040	184.280	0.098	-0.145
-596.025	-78.443	0.118	0.040
-595.011	-86.957	-0.177	0.054
-593.996	-67.115	0.294	-0.116
-592.982	800.000	0.049	-0.137
-591.967	-200.000	-0.015	-0.074
-590.952	-47.948	0.164	-0.079
-589.938	-63.896	-0.498	-0.204
-588.923	71.002	0.018	0.018
-587.909	-126.712	-0.244	-0.036
-586.894	76.483	0.106	-0.112
-585.879	-169.227	0.188	-0.007
-584.865	635.385	-0.113	-0.287
-583.850	800.000	0.059	0.217
-582.836	-200.000	-0.039	-0.172
-581.821	800.000	-0.048	0.153
-580.806	-109.222	-0.305	0.065
-579.792	134.708	-0.224	0.290
-578.777	119.825	-0.164	0.203
-577.763	208.288	0.138	-0.216
-576.748	-200.000	-0.023	0.270
-575.733	547.520	-0.088	-0.210
-574.719	287.572	-0.107	0.193
-573.704	-101.571	0.037	0.009
-572.690	-130.872	-0.453	-0.061
-571.675	-200.000	0.001	-0.125
-570.661	-135.317	0.355	-0.043
-569.646	-90.025	0.339	-0.099
-568.631	498.543	0.041	-0.095
-567.617	108.584	-0.127	0.151
-566.602	-27.099	-0.099	-0.058
-565.588	24.112	0.100	-0.083
-564.573	-139.034	-0.266	0.029
-563.558	222.961	0.197	-0.317
-562.544	-17.614	0.226	-0.142
-561.529	135.808	-0.176	-0.229
-560.515	-43.748	-0.284	-0.143
-559.500	564.568	0.077	-0.187
-558.485	548.912	0.056	-0.134
-557.471	141.529	0.121	0.160
-556.456	-200.000	-0.019	0.091
-555.442	548.426	-0.088	-0.211
-554.427	800.000	0.075	0.259
-553.412	-200.000	-0.046	0.232
-552.398	-134.322	0.162	0.020
-551.383	136.896	-0.049	-0.064
-550.369	195.043	0.101	0.153
-549.354	314.267	0.139	0.261
-548.339	800.000	-0.054	0.187
-547.325	34.631	0.183	0.160
-546.310	-103.821	0.098	-0.023
-545.296	-200.000	-0.027	-0.344
-544.281	293.211	0.031	-0.056
-543.266	-58.804	-0.108	-0.047
-542.252	384.320	-0.104	0.215
-541.237	-131.069	0.446	0.059
-540.223	-9.783	0.418	0.278
-539.208	109.762	-0.078	-0.093
-538.193	697.673	0.100	-0.263
-537.179	121.412	0.091	-0.113
-536.164	87.429	0.132	0.146
-535.150	12.283	-0.032	-0.024
-534.135	-106.874	0.232	-0.051
-533.121	800.000	-0.065	-0.213
-532.106	728.100	0.064	-0.170
-531.091	-200.000	0.025	-0.212
-530.077	800.000	0.041	-0.156
-529.062	227.579	0.104	0.168
-528.048	38.778	0.092	-0.082
-527.033	195.165	-0.059	-0.090
-526.018	69.848	-0.170	-0.175
-525.004	-200.000	0.015	-0.173
-523.989	84.632	-0.055	-0.060
-522.975	-134.854	-0.298	0.036
-521.960	-40.324	-0.167	0.087
-520.945	-28.699	-0.178	-0.102
-519.931	-200.000	0.095	-0.459
-518.916	370.668	-0.201	-0.407
-517.902	-124.428	-0.230	-0.036
-516.887	-105.083	0.326	0.074
-515.872	800.000	0.047	-0.191
-514.858	-8.164	0.100	-0.067
-513.843	-16.430	-0.245	0.155
-512.829	39.929	0.053	0.048
-511.814	342.700	-0.087	0.169
-510.799	800.000	0.020	0.057
-509.785	357.625	0.069	-0.138
-508.770	800.000	-0.089	-0.333
-507.756	-200.000	-0.010	-0.061
-506.741	-200.000	-0.051	0.382
-505.726	-7.451	-0.111	-0.075
-504.712	-115.354	-0.200	0.038
-503.697	112.418	-0.131	0.158
-502.683	800.000	0.017	-0.059
-501.668	332.103	-0.068	0.131
-500.653	-120.356	-0.180	0.031
-499.639	-200.000	0.032	-0.468
-498.624	115.200	-0.111	0.135
-497.610	-14.412	0.269	0.173
-496.595	2.745	-0.108	0.078
-495.581	-60.382	-0.166	0.070
-494.566	-200.000	-0.005	-0.128
-493.551	326.731	0.067	-0.128
-492.537	800.000	0.060	0.200
-491.522	795.411	-0.085	0.233
-490.508	-200.000	0.055	0.253
-489.493	519.638	-0.071	0.167
-488.478	-200.000	-0.086	0.000
-487.464	4.845	-0.074	-0.054
-486.449	-115.377	-0.117	-0.022
-485.435	106.383	-0.086	0.101
-484.420	3.403	-0.343	-0.249
-483.405	-26.446	0.105	-0.061
-482.391	-68.451	0.250	-0.097
-481.376	96.876	-0.191	-0.218
-480.362	-157.334	-0.125	-0.008
-479.347	0.936	-0.103	0.073
-478.332	134.534	0.096	0.124
-477.318	29.062	0.184	-0.155
-476.303	236.113	0.068	-0.112
-475.289	-2.012	0.111	-0.078
-474.274	57.365	0.182	0.177
-473.259	-59.962	-0.140	0.059
-472.245	-103.096	-0.144	-0.034
-471.230	-82.422	-0.166	-0.054
-470.216	388.090	-0.189	-0.390
-469.201	800.000	-0.126	-0.374
-468.186	-200.000	-0.004	0.126
-467.172	-200.000	-0.017	0.345
-466.157	-44.529	-0.396	0.197
-465.143	-148.204	-0.198	-0.016
-464.128	232.370	0.084	0.138
-463.113	21.886	-0.093	0.076
-462.099	-120.431	0.160	-0.027
-461.084	-67.373	-0.333	0.130
-460.070	-39.522	-0.155	0.081
-459.055	-200.000	0.042	-0.229
-458.040	-200.000	0.002	0.209
-457.026	800.000	-0.046	0.184
-456.011	800.000	-0.085	0.358
-454.997	149.516	-0.151	-0.203
-453.982	175.918	0.039	0.056
-452.968	-71.803	-0.136	-0.050
-451.953	-160.410	-0.307	-0.016
-450.938	-25.415	-0.160	-0.094
-449.924	-47.969	-0.190	-0.092
-448.909	-200.000	0.014	-0.060
-447.895	-200.000	0.031	0.156
-446.880	210.721	0.111	0.173
-445.865	-17.280	-0.198	-0.124
-444.851	238.611	-0.090	0.148
-443.836	-200.000	-0.038	0.410
-442.822	-200.000	0.018	0.277
-441.807	800.000	-0.057	-0.226
-440.792	-159.477	-0.289	0.016
-439.778	-200.000	-0.012	0.154
-438.763	430.879	-0.101	0.217
-437.749	181.053	0.106	-0.155
-436.734	654.984	-0.063	0.162
-435.719	8.813	0.022	-0.016
-434.705	-8.195	0.067	-0.045
-433.690	-200.000	-0.008	0.192
-432.676	-76.401	0.178	0.062
-431.661	-41.096	-0.128	-0.066
-430.646	-200.000	-0.017	0.452
-429.632	-200.000	-0.017	-0.300
-428.617	129.641	0.033	-0.043
-427.603	-200.000	-0.001	-0.229
-426.588	-85.403	-0.178	0.055
-425.573	-135.041	-0.344	-0.041
-424.559	-21.014	0.226	-0.137
-423.544	800.000	-0.017	0.070
-422.530	53.988	-0.018	-0.017
-421.515	202.227	-0.085	0.130
-420.500	-30.261	0.178	-0.100
-419.486	759.634	-0.063	0.169
-418.471	-82.604	-0.335	0.108
-417.457	800.000	-0.059	0.199
-416.442	-5.769	0.161	0.110
-415.428	-131.819	-0.667	-0.087
-414.413	-200.000	-0.093	0.531
-413.398	-99.424	-0.324	0.081
-412.384	132.668	-0.077	-0.098
-411.369	-55.330	-0.255	-0.114
-410.355	-132.523	0.269	0.034
-409.340	100.890	-0.067	0.077
-408.325	-149.567	-0.228	-0.018
-407.311	800.000	-0.082	0.251
-406.296	-98.179	-0.313	0.080
-405.282	128.505	0.068	-0.086
-404.267	351.408	-0.043	-0.085
-403.252	-200.000	-0.067	0.315
-402.238	-85.565	-0.012	0.004
-401.223	-200.000	-0.018	0.126
-400.209	-200.000	0.002	-0.285
-399.194	-200.000	0.027	-0.234
-398.179	-27.565	0.139	-0.080
-397.165	-28.265	0.149	0.085
-396.150	800.000	0.118	-0.356
-395.136	-150.065	0.172	-0.013
-394.121	-200.000	0.053	-0.244
-393.106	525.742	-0.059	-0.139
-392.092	-200.000	-0.018	-0.161
-391.077	-49.784	-0.162	-0.076
-390.063	291.017	0.118	-0.212
-389.048	532.629	0.084	0.198
-388.033	129.228	-0.117	0.148
-387.019	-120.870	0.045	-0.008
-386.004	-105.983	0.174	0.039
-384.990	800.000	0.052	-0.146
-383.975	-21.866	-0.181	-0.109
-382.960	340.009	0.112	0.217
-381.946	-121.823	-0.082	0.014
-380.931	-200.000	-0.007	-0.243
-379.917	656.432	0.116	-0.296
-378.902	-200.000	0.000	-0.089
-377.888	800.000	-0.149	0.516
-376.873	52.871	0.200	0.189
-375.858	457.594	-0.098	-0.216
-374.844	182.037	-0.043	-0.063
-373.829	-137.759	0.266	-0.030
-372.815	-25.051	0.100	-0.059
-371.800	155.215	0.185	-0.253
-370.785	332.538	0.175	0.336
-369.771	-134.893	0.149	-0.018
-368.756	-200.000	-0.011	0.393
-367.742	800.000	0.009	-0.033
-366.727	-170.300	-0.120	0.004
-365.712	-200.000	-0.072	0.334
-364.698	-110.007	0.150	0.031
-363.683	244.296	0.048	-0.079
-362.669	204.409	0.176	0.271
-361.654	-200.000	-0.019	0.124
-360.639	183.508	-0.040	-0.058
-359.625	22.284	-0.039	-0.031
-358.610	-13.095	-0.106	-0.068
-357.596	557.614	0.089	0.212
-356.581	-84.532	-0.202	0.063
-355.566	-60.729	0.084	0.035
-354.552	49.857	0.132	-0.123
-353.537	301.434	-0.176	0.322
-352.523	109.579	-0.083	-0.099
-351.508	-56.607	-0.259	0.114
-350.493	-200.000	0.009	0.199
-349.479	-139.019	-0.208	-0.022
-348.464	-0.396	0.205	-0.144
-347.450	-200.000	0.029	-0.219
-346.435	800.000	0.115	0.328
-345.420	37.495	0.198	0.174
-344.406	305.282	-0.047	-0.087
-343.391	450.237	0.139	-0.304
-342.377	-200.000	-0.006	-0.147
-341.362	710.289	-0.046	0.121
-340.348	260.811	0.205	0.352
-339.333	468.280	0.167	-0.371
-338.318	-127.661	0.073	0.010
-337.304	800.000	0.075	0.312
-336.289	84.266	-0.105	0.114
-335.275	-16.328	-0.008	-0.005
-334.260	800.000	-0.065	0.265
-333.245	-95.728	0.165	0.044
-332.231	800.000	-0.069	-0.290
-331.216	-1.463	-0.279	-0.195
-330.202	-200.000	0.018	-0.340
-329.187	-200.000	-0.018	-0.390
-328.172	146.405	-0.123	0.164
-327.158	30.957	0.055	0.046
-326.143	299.153	0.175	0.319
-325.129	56.434	0.083	-0.080
-324.114	-200.000	-0.041	0.194
-323.099	-200.000	0.025	-0.321
-322.085	-47.551	0.188	-0.090
-321.070	-95.508	0.268	0.071
-320.056	256.491	-0.159	-0.270
-319.041	541.946	-0.097	-0.229
-318.026	-81.175	0.241	0.079
-317.012	251.239	0.155	-0.260
-315.997	-151.892	0.440	-0.032
-314.983	88.507	-0.046	0.050
-313.968	-200.000	0.020	-0.170
-312.953	800.000	0.072	0.215
-311.939	-147.530	-0.240	0.020
-310.924	193.690	-0.068	0.102
-309.910	-136.196	0.224	-0.026
-308.895	149.297	-0.363	0.486
-307.880	-200.000	0.025	-0.153
-306.866	-200.000	0.054	0.260
-305.851	-200.000	-0.008	0.058
-304.837	209.350	-0.167	-0.260
-303.822	75.273	-0.144	-0.151
-302.807	3.214	0.093	-0.067
-301.793	-200.000	0.027	0.266
-300.778	10.825	0.211	0.160
-299.764	198.088	0.240	-0.363
-298.749	482.620	-0.171	-0.385
-297.735	-200.000	0.028	-0.179
-296.720	-167.108	0.302	-0.012
-295.705	73.311	-0.157	0.162
-294.691	28.562	0.231	-0.193
-293.676	48.554	0.146	-0.135
-292.662	328.383	-0.144	0.273
-291.647	-200.000	0.016	-0.105
-290.632	-200.000	-0.045	0.225
-289.618	-105.616	-0.349	0.078
-288.603	328.838	0.068	-0.129
-287.589	-64.720	0.023	0.009
-286.574	-118.017	-0.321	0.057
-285.559	108.772	-0.064	-0.076
-284.545	208.093	-0.234	-0.361
-283.530	-186.612	-0.521	0.007
-282.516	800.000	0.035	-0.133
-281.501	-142.384	0.384	0.037
-280.486	800.000	0.040	0.114
-279.472	-82.910	0.057	-0.018
-278.457	-125.355	0.288	-0.043
-277.443	-200.000	-0.020	-0.260
-276.428	43.940	-0.291	0.264
-275.413	106.190	-0.146	0.171
-274.399	-132.658	0.315	0.040
-273.384	183.905	-0.139	0.203
-272.370	-31.144	0.122	0.068
-271.355	800.000	-0.089	0.251
-270.340	-38.315	0.168	-0.088
-269.326	-127.830	0.199	0.028
-268.311	-22.402	0.299	-0.179
-267.297	-48.506	-0.190	-0.090
-266.282	-1.365	-0.257	-0.179
-265.267	64.242	-0.236	-0.234
-264.253	45.813	-0.116	-0.106
-263.238	-136.949	0.191	0.022
-262.224	105.816	0.058	0.068
-261.209	-45.133	-0.115	-0.056
-260.195	800.000	-0.096	0.334
-259.180	49.963	0.124	-0.115
-258.165	-126.020	0.203	-0.030
-257.151	42.492	0.088	-0.079
-256.136	88.389	0.076	0.083
-255.122	98.499	0.077	-0.088
-254.107	444.966	0.067	0.145
-253.092	-166.669	-0.115	-0.005
-252.078	523.638	0.015	0.034
-251.063	23.318	0.083	0.067
-250.049	5.220	-0.091	-0.066
-249.034	-9.893	-0.225	-0.148
-248.019	784.234	-0.067	-0.181
-247.005	80.465	-0.086	0.092
-245.990	-140.483	0.182	0.019
-244.976	-151.826	0.056	0.004
-243.961	383.191	-0.069	0.141
-242.946	-171.040	0.415	-0.014
-241.932	29.266	0.155	0.130
-240.917	-86.859	-0.074	-0.022
-239.903	752.961	-0.074	0.198
-238.888	654.337	0.135	0.341
-237.873	-200.000	-0.044	0.264
-236.859	6.539	-0.162	0.119
-235.844	-200.000	-0.008	0.119
-234.830	-175.073	0.307	-0.008
-233.815	-200.000	0.022	-0.112
-232.800	-200.000	-0.005	0.160
-231.786	60.614	-0.129	-0.126
-230.771	800.000	0.061	-0.220
-229.757	-143.068	-0.194	-0.019
-228.742	159.793	-0.176	0.242
-227.727	-52.073	0.046	-0.021
-226.713	383.544	0.070	-0.141
-225.698	311.434	-0.111	0.205
-224.684	8.600	-0.240	0.179
-223.669	800.000	-0.117	0.420
-222.655	-88.171	0.155	0.046
-221.640	800.000	0.066	-0.258
-220.625	-200.000	-0.001	0.056
-219.611	-197.070	0.254	-0.002
-218.596	-46.195	0.097	-0.047
-217.582	553.580	0.077	0.182
-216.567	25.746	0.181	-0.149
-215.552	-82.521	0.299	-0.096
-214.538	-73.792	0.197	-0.071
-213.523	-52.510	-0.513	-0.234
-212.509	63.460	0.330	-0.326
-211.494	-20.649	-0.164	0.099
-210.479	-140.649	0.263	0.027
-209.465	119.307	0.233	-0.285
-208.450	-156.041	-0.259	-0.016
-207.436	654.127	-0.036	-0.091
-206.421	-35.235	0.289	0.155
-205.406	-200.000	0.075	0.509
-204.392	2.446	-0.340	0.242
-203.377	-121.765	0.152	-0.025
-202.363	351.543	-0.106	-0.207
-201.348	-34.096	0.217	0.118
-200.333	81.234	0.083	-0.088
-199.319	-200.000	0.046	0.245
-198.304	800.000	-0.034	0.139
-197.290	-140.088	0.119	0.012
-196.275	-72.474	0.136	-0.049
-195.260	48.695	0.068	-0.063
-194.246	800.000	0.150	-0.469
-193.231	-139.897	0.135	0.014
-192.217	42.015	-0.056	0.050
-191.202	-200.000	0.027	0.175
-190.187	95.559	0.231	0.259
-189.173	-200.000	-0.036	-0.167
-188.158	800.000	-0.122	0.374
-187.144	-131.006	-0.195	0.026
-186.129	-135.155	0.276	0.033
-185.114	265.582	0.143	0.246
-184.100	-200.000	-0.014	0.209
-183.085	-200.000	-0.016	0.255
-182.071	-54.033	0.139	0.062
-181.056	-200.000	-0.040	-0.205
-180.042	-13.207	0.329	-0.211
-179.027	98.103	-0.239	-0.271
-178.012	-200.000	-0.068	-0.390
-176.998	-26.665	-0.196	0.113
-175.983	-200.000	0.058	0.000
-174.969	-106.823	0.177	0.039
-173.954	-113.572	0.184	0.035
-172.939	11.481	0.431	0.325
-171.925	800.000	0.032	-0.118
-170.910	-200.000	0.025	0.143
-169.896	86.493	0.084	0.091
-168.881	457.592	0.062	0.136
-167.866	-122.726	0.078	0.012
-166.852	-174.018	0.149	0.004
-165.837	-119.128	-0.255	0.044
-164.823	-200.000	-0.040	0.194
-163.808	-31.500	-0.113	-0.063
-162.793	-49.045	-0.150	-0.071
-161.779	354.682	-0.072	0.141
-160.764	-51.896	0.104	0.048
-159.750	611.454	0.111	0.273
-158.735	167.430	0.033	0.046
-157.720	-200.000	0.008	0.287
-156.706	800.000	-0.061	0.184
-155.691	-200.000	0.028	-0.167
-154.677	-117.898	0.287	-0.051
-153.662	-101.940	0.178	-0.042
-152.647	800.000	0.063	0.214
-151.633	-200.000	-0.018	0.409
-150.618	-91.290	0.028	0.008
-149.604	800.000	-0.062	-0.200
-148.589	800.000	-0.112	0.404
-147.574	800.000	-0.018	-0.059
-146.560	-59.382	-0.252	0.107
-145.545	-100.285	0.144	-0.035
-144.531	-4.125	0.237	0.162
-143.516	-200.000	0.006	0.282
-142.502	-200.000	0.010	0.181
-141.487	-200.000	-0.055	-0.342
-140.472	429.195	0.115	-0.245
-139.458	-116.822	-0.280	-0.051
-138.443	94.555	-0.045	-0.050
-137.429	-200.000	-0.031	0.299
-136.414	149.131	-0.116	-0.155
-135.399	-135.982	0.165	-0.019
-134.385	-200.000	0.006	0.231
-133.370	261.511	-0.090	0.153
-132.356	800.000	-0.061	0.187
-131.341	800.000	0.099	0.381
-130.326	-139.269	-0.351	0.037
-129.312	-55.132	0.067	0.030
-128.297	-139.112	-0.272	-0.029
-127.283	-200.000	0.000	-0.190
-126.268	800.000	-0.037	0.144
-125.253	37.079	0.108	-0.094
-124.239	108.696	-0.193	0.226
-123.224	-5.087	0.202	-0.137
-122.210	86.284	-0.165	0.179
-121.195	-200.000	-0.010	-0.047
-120.180	-21.314	-0.169	-0.101
-119.166	-115.543	0.239	0.044
-118.151	373.442	-0.117	0.234
-117.137	492.655	-0.182	-0.409
-116.122	-90.941	0.320	-0.090
-115.107	-135.414	-0.218	-0.026
-114.093	272.155	0.075	-0.129
-113.078	-99.137	-0.188	0.047
-112.064	117.611	0.025	0.030
-111.049	119.781	0.153	0.187
-110.034	-99.957	-0.168	0.041
-109.020	392.996	0.117	0.238
-108.005	-200.000	0.008	0.050
-106.991	-74.551	-0.059	0.021
-105.976	-93.135	-0.254	-0.069
-104.962	-200.000	-0.013	0.376
-103.947	176.819	0.171	0.244
-102.932	-101.985	0.399	-0.094
-101.918	4.432	0.292	0.210
-100.903	163.512	-0.158	-0.218
-99.889	-200.000	0.048	0.315
-98.874	800.000	-0.058	0.240
-97.859	-200.000	-0.036	-0.224
-96.845	-57.267	0.034	0.015
-95.830	146.546	0.111	0.146
-94.816	-7.603	0.230	0.153
-93.801	-156.801	0.143	0.009
-92.786	-97.756	-0.238	0.061
-91.772	-25.253	-0.211	0.122
-90.757	-200.000	0.021	0.169
-89.743	-200.000	-0.019	0.110
-88.728	-8.641	0.036	0.024
-87.713	602.274	-0.026	-0.064
-86.699	800.000	-0.073	-0.304
-85.684	-18.010	0.151	-0.093
-84.670	800.000	-0.063	0.187
-83.655	-108.091	-0.113	0.024
-82.640	-200.000	-0.056	0.370
-81.626	166.329	-0.036	0.050
-80.611	85.341	-0.268	0.289
-79.597	-147.573	-0.156	0.013
-78.582	800.000	-0.004	0.018
-77.567	-37.838	-0.287	0.150
-76.553	-1.378	0.136	0.094
-75.538	58.855	-0.141	0.136
-74.524	-68.730	0.149	0.057
-73.509	-200.000	-0.003	0.062
-72.494	58.761	-0.067	-0.064
-71.480	79.641	-0.217	0.228
-70.465	383.516	-0.142	-0.287
-69.451	-66.659	0.119	-0.046
-68.436	-1.045	0.028	0.019
-67.422	241.424	-0.163	0.267
-66.407	-50.549	-0.259	0.120
-65.392	171.036	0.051	-0.071
-64.378	260.955	-0.177	-0.300
-63.363	-109.538	-0.335	-0.069
-62.349	-200.000	0.032	0.346
-61.334	208.405	-0.709	-1.087
-60.319	106.306	0.801	0.931
-59.305	410.341	-0.381	-0.793
-58.290	99.978	0.783	0.889
-57.276	800.000	0.489	1.372
-56.261	-200.000	105.366	605.319
-55.246	496.776	1502.360	3386.248
-54.232	176.829	2697.380	3844.596
-53.217	110.493	2186.652	2575.488
-52.203	40.283	1703.318	1501.514
-51.188	32.703	1512.728	1282.146
-50.173	30.471	1485.207	1243.841
-49.159	50.810	1541.296	1430.242
-48.144	51.485	1557.501	1449.830
-47.130	32.920	1513.641	1284.188
-46.115	29.863	1498.810	1250.930
-45.100	29.722	1495.238	1246.945
-44.086	29.704	1493.172	1245.055
-43.071	29.662	1490.871	1242.804
-42.057	29.480	1489.868	1240.695
-41.042	29.591	1488.338	1240.115
-40.027	29.550	1486.806	1238.517
-39.013	29.711	1484.733	1237.814
-37.998	29.575	1483.634	1235.943
-36.984	29.473	1482.721	1234.446
-35.969	29.674	1480.972	1234.287
-34.954	29.591	1480.118	1232.971
-33.940	29.627	1478.377	1231.714
-32.925	29.695	1476.391	1230.461
-31.911	29.639	1475.281	1229.118
-30.896	29.696	1474.609	1228.887
-29.881	29.645	1473.326	1227.432
-28.867	29.745	1472.066	1226.992
-27.852	29.621	1470.888	1225.143
-26.838	29.726	1468.881	1224.114
-25.823	29.715	1467.397	1222.761
-24.809	29.677	1465.705	1221.047
-23.794	29.772	1464.228	1220.396
-22.779	29.613	1464.093	1219.190
-21.765	29.734	1462.776	1218.839
-20.750	29.623	1461.496	1216.996
-19.736	29.624	1460.151	1215.832
-18.721	29.707	1458.726	1215.141
-17.706	29.606	1458.134	1213.935
-16.692	29.627	1456.824	1212.939
-15.677	29.669	1455.486	1212.048
-14.663	29.593	1454.796	1210.925
-13.648	29.588	1453.789	1210.012
-12.633	29.525	1452.897	1208.808
-11.619	29.546	1452.027	1208.170
-10.604	29.589	1451.409	1207.889
-9.590	29.576	1450.361	1206.889
-8.575	29.637	1449.123	1206.204
-7.560	29.612	1448.564	1205.529
-6.546	29.562	1447.860	1204.573
-5.531	29.477	1447.520	1203.683
-4.517	29.546	1446.243	1203.026
-3.502	29.622	1445.002	1202.439
-2.487	29.623	1443.797	1201.395
-1.473	29.600	1442.884	1200.440
-0.458	29.493	1441.932	1198.906
0.556	27.156	1432.756	1188.758
1.571	24.499	1407.978	1150.994
2.586	21.476	1349.718	1084.558
3.600	19.962	1270.412	1011.899
4.615	18.774	1225.320	969.197
5.629	16.566	1170.653	913.956
6.644	8.458	1086.941	807.697
7.659	1.066	1046.775	741.699
8.673	0.021	1040.724	732.260
9.688	-0.153	1037.348	728.977
10.702	-0.240	1035.834	727.426
11.717	-0.287	1034.227	726.004
12.731	3.125	1037.772	744.975
13.746	12.036	1050.137	797.299
14.761	18.819	1058.650	836.842
15.775	20.755	1060.790	847.899
16.790	21.129	1060.637	849.526
17.804	20.969	1059.784	847.989
18.819	20.732	1058.720	845.910
19.834	20.774	1058.337	845.732
20.848	20.893	1058.180	846.111
21.863	21.081	1057.597	846.481
22.877	20.992	1057.211	845.667
23.892	20.894	1056.652	844.667
24.907	20.805	1055.597	843.319
25.921	20.734	1055.613	842.915
26.936	20.805	1054.452	842.257
27.950	20.935	1052.776	841.472
28.965	20.866	1051.600	840.125
29.980	20.673	1050.301	838.083
30.994	20.634	1048.937	836.734
32.009	20.842	1048.098	836.990
33.023	21.000	1047.358	837.083
34.038	20.772	1046.186	834.979
35.053	20.715	1045.626	834.182
36.067	20.829	1044.743	833.950
37.082	20.763	1044.211	833.135
38.096	20.934	1043.100	832.996
39.111	21.045	1042.508	832.979
40.126	21.173	1041.682	832.854
41.140	21.115	1040.527	831.580
42.155	20.801	1038.792	828.627
43.169	20.564	1037.510	826.406
44.184	20.609	1036.500	825.743
45.199	20.606	1035.255	824.660
46.213	20.378	1034.728	823.087
47.228	20.553	1033.711	823.035
48.242	20.664	1032.953	822.885
49.257	20.775	1032.476	822.957
50.271	20.839	1031.347	822.283
51.286	21.022	1030.530	822.424
52.301	21.088	1029.706	822.005
53.315	20.886	1029.357	820.703
54.330	20.884	1028.304	819.779
55.344	20.843	1027.039	818.507
56.359	20.919	1026.506	818.369
57.374	20.784	1026.091	817.330
58.388	20.710	1024.970	816.019
59.403	20.722	1024.031	815.256
60.417	20.649	1023.406	814.344
61.432	20.591	1022.143	812.994
62.447	20.640	1021.360	812.528
63.461	20.657	1021.458	812.613
64.476	20.708	1020.583	812.086
65.490	20.741	1019.265	811.115
66.505	20.723	1018.057	810.003
67.520	20.615	1017.389	808.896
68.534	20.650	1016.961	808.647
69.549	20.727	1015.617	807.863
70.563	20.259	1014.218	804.511
71.578	20.228	1013.596	803.798
72.593	20.398	1012.452	803.611
73.607	20.181	1011.544	801.813
74.622	20.142	1010.757	800.938
75.636	20.411	1010.452	801.869
76.651	20.610	1009.713	802.129
77.666	20.454	1008.662	800.507
78.680	20.338	1007.685	799.123
79.695	20.372	1007.095	798.741
80.709	20.276	1007.030	798.181
81.724	20.553	1005.905	798.488
82.739	20.617	1004.974	797.971
83.753	20.493	1004.300	796.797
84.768	20.799	1003.116	797.189
85.782	21.158	1002.733	798.457
86.797	21.199	1002.209	798.154
87.812	21.138	1001.157	796.969
88.826	21.035	1000.280	795.730
89.841	20.978	999.594	794.857
90.855	21.178	998.302	794.667
91.870	21.172	997.814	794.183
92.884	21.140	996.789	793.149
93.899	20.859	995.970	791.154
94.914	21.000	994.928	790.896
95.928	21.151	993.464	790.345
96.943	21.058	993.367	789.775
97.957	20.847	992.022	787.683
98.972	20.574	991.082	785.635
99.987	20.331	990.079	783.672
101.001	20.492	989.224	783.654
102.016	20.807	988.869	784.722
103.030	20.792	987.877	783.797
104.045	20.763	986.592	782.579
105.060	20.632	985.600	781.136
106.074	20.512	984.133	779.362
107.089	20.596	983.526	779.191
108.103	20.904	983.378	780.386
109.118	21.083	982.369	780.315
110.133	20.791	981.046	777.891
111.147	20.752	980.463	777.187
112.162	20.553	979.347	775.345
113.176	20.440	978.035	773.735
114.191	20.595	976.997	773.533
115.206	20.708	975.861	773.067
116.220	20.312	974.796	770.399
117.235	20.082	973.850	768.561
118.249	20.246	973.429	768.888
119.264	20.358	972.832	768.846
120.279	20.371	971.828	768.042
121.293	20.367	970.801	767.146
122.308	20.229	970.596	766.305
123.322	20.393	969.482	766.084
124.337	20.301	968.249	764.634
125.352	20.208	967.099	763.251
126.366	19.957	965.109	760.507
127.381	19.743	963.599	758.312
128.395	20.042	964.044	759.910
129.410	20.693	963.554	762.309
130.424	20.898	962.459	762.272
131.439	20.934	961.642	761.714
132.454	20.913	960.541	760.684
133.468	20.790	959.771	759.469
134.483	20.759	959.053	758.698
135.497	20.644	958.497	757.690
136.512	21.010	957.528	758.448
137.527	21.098	956.799	758.188
138.541	20.961	955.914	756.824
139.556	21.102	955.273	756.863
140.570	20.924	954.701	755.571
141.585	21.051	953.376	755.004
142.600	21.022	952.939	754.464
143.614	21.017	951.844	753.509
144.629	21.162	951.357	753.684
145.643	21.293	950.794	753.738
146.658	21.230	949.410	752.301
147.673	21.160	948.049	750.854
148.687	20.949	946.912	748.982
149.702	20.872	946.080	747.925
150.716	20.732	944.951	746.369
151.731	20.833	943.955	745.950
152.746	20.986	943.125	745.882
153.760	21.179	942.591	746.220
154.775	21.173	942.181	745.802
155.789	21.219	941.354	745.275
156.804	21.117	940.449	744.058
157.819	21.219	939.283	743.505
158.833	21.280	938.033	742.708
159.848	21.386	937.792	742.905
160.862	21.431	936.849	742.281
161.877	21.199	935.583	740.230
162.892	21.161	934.928	739.484
163.906	21.364	934.317	739.795
164.921	21.174	933.391	738.192
165.935	21.162	932.019	736.991
166.950	21.181	931.204	736.364
167.964	21.167	930.444	735.638
168.979	21.244	929.018	734.771
169.994	21.171	928.450	733.946
171.008	21.058	927.163	732.394
172.023	21.158	926.752	732.421
173.037	21.228	926.021	732.074
174.052	21.054	924.733	730.260
175.067	20.923	923.727	728.852
176.081	21.005	923.073	728.617
177.096	21.123	922.106	728.284
178.110	21.018	921.423	727.240
179.125	20.832	920.384	725.582
180.140	20.583	919.067	723.444
181.154	20.604	918.579	723.082
182.169	20.606	918.152	722.689
183.183	20.830	918.010	723.445
184.198	21.203	917.460	724.497
185.213	20.987	916.934	723.119
186.227	21.078	915.882	722.603
187.242	21.187	915.428	722.630
188.256	21.234	915.156	722.547
189.271	21.304	913.939	721.813
190.286	21.217	913.339	720.917
191.300	21.152	912.190	719.677
192.315	20.590	911.118	716.451
193.329	19.832	909.722	712.172
194.344	19.662	908.425	710.396
195.359	20.200	908.993	712.989
196.373	20.916	908.889	715.785
197.388	21.281	908.490	716.905
198.402	20.977	908.253	715.410
199.417	20.959	907.518	714.693
200.432	21.121	906.891	714.798
201.446	21.003	906.051	713.592
202.461	20.702	905.457	711.829
203.475	20.686	904.987	711.331
204.490	20.308	903.388	708.470
205.504	19.250	901.459	702.582
206.519	19.607	901.533	704.031
207.534	20.710	901.592	708.509
208.548	20.755	900.990	708.155
209.563	21.007	901.277	709.343
210.577	21.135	900.017	708.809
211.592	20.700	899.539	706.605
212.607	21.137	899.144	708.005
213.621	21.187	898.768	707.850
214.636	21.300	898.007	707.644
215.650	21.121	897.819	706.709
216.665	21.188	896.699	706.036
217.680	21.323	896.010	705.977
218.694	21.226	896.133	705.618
219.709	20.833	895.012	703.089
220.723	20.626	893.907	701.323
221.738	20.856	893.687	702.016
222.753	21.033	893.197	702.282
223.767	20.949	892.217	701.112
224.782	21.119	891.319	701.026
225.796	21.259	891.046	701.312
226.811	21.300	890.816	701.233
227.826	20.976	889.321	698.696
228.840	20.126	887.742	693.990
229.855	20.288	886.936	693.950
230.869	20.441	886.858	694.440
231.884	20.103	885.783	692.185
232.899	20.135	885.329	691.898
233.913	20.944	885.490	695.189
234.928	21.049	885.351	695.438
235.942	20.919	884.390	694.104
236.957	20.920	884.209	693.905
237.972	20.874	882.742	692.507
238.986	20.537	882.083	690.592
240.001	20.811	881.375	691.062
241.015	20.708	880.847	690.179
242.030	20.811	880.482	690.240
243.045	20.871	879.889	689.952
244.059	20.953	879.491	689.902
245.074	21.186	878.997	690.377
246.088	21.163	878.418	689.770
247.103	20.714	877.606	687.297
248.117	20.672	876.911	686.529
249.132	21.405	876.365	688.928
250.147	21.722	876.466	690.197
251.161	21.552	875.976	689.080
252.176	21.829	875.321	689.593
253.190	21.833	874.688	689.049
254.205	21.890	874.180	688.811
255.220	22.112	873.733	689.269
256.234	22.129	872.899	688.619
257.249	21.958	872.515	687.584
258.263	21.859	871.812	686.582
259.278	21.858	871.036	685.905
260.293	21.923	870.533	685.703
261.307	22.115	869.965	685.944
262.322	21.912	869.577	684.785
263.336	21.738	868.860	683.481
264.351	21.274	867.546	680.580
265.366	20.422	865.075	675.269
266.380	19.798	864.107	672.032
267.395	20.704	864.868	676.084
268.409	21.475	865.043	679.155
269.424	21.483	864.277	678.528
270.439	21.519	864.397	678.699
271.453	21.730	863.151	678.478
272.468	21.889	862.200	678.285
273.482	21.911	862.195	678.309
274.497	22.034	861.684	678.321
275.512	21.762	860.897	676.592
276.526	21.426	859.243	673.937
277.541	21.634	858.750	674.291
278.555	21.838	858.624	674.920
279.570	21.734	857.815	673.821
280.585	21.484	857.096	672.239
281.599	21.533	856.443	671.856
282.614	21.605	856.218	671.895
283.628	21.191	854.860	669.185
284.643	20.951	853.899	667.453
285.657	21.284	854.590	669.211
286.672	21.282	853.610	668.376
287.687	20.760	852.646	665.567
288.701	20.996	852.474	666.276
289.716	21.550	851.738	667.756
290.730	21.111	851.050	665.484
291.745	21.066	849.890	664.345
292.760	20.799	848.910	662.504
293.774	20.738	848.982	662.270
294.789	21.687	849.542	666.261
295.803	22.319	849.240	668.364
296.818	22.348	848.904	668.153
297.833	22.395	848.518	667.967
298.847	22.125	847.277	665.909
299.862	21.661	846.473	663.459
300.876	21.909	846.000	663.971
301.891	22.348	845.593	665.253
302.906	22.393	844.904	664.822
303.920	21.930	843.605	661.994
304.935	21.877	843.265	661.469
305.949	22.245	842.780	662.416
306.964	22.251	842.524	662.178
307.979	21.961	841.786	660.450
308.993	21.901	841.842	660.209
310.008	22.344	840.888	661.066
311.022	22.326	840.560	660.684
312.037	22.247	839.997	659.884
313.052	22.091	839.483	658.839
314.066	22.032	838.443	657.741
315.081	21.203	837.080	653.516
316.095	20.754	835.867	650.829
317.110	21.303	836.028	652.952
318.125	22.011	836.204	655.675
319.139	21.545	835.656	653.448
320.154	20.482	833.575	647.803
321.168	19.987	832.750	645.260
322.183	20.576	832.786	647.425
323.197	21.510	833.357	651.289
324.212	21.949	832.493	652.187
325.227	21.909	832.540	652.019
326.241	22.122	832.102	652.407
327.256	22.044	831.682	651.732
328.270	21.885	830.805	650.397
329.285	21.863	830.076	649.689
330.300	21.690	829.287	648.372
331.314	21.392	828.569	646.654
332.329	21.523	828.272	646.846
333.343	21.952	827.588	647.839
334.358	22.213	827.076	648.346
335.373	21.986	826.958	647.359
336.387	22.215	826.266	647.601
337.402	22.415	825.995	648.070
338.416	22.415	826.005	648.021
339.431	22.560	824.948	647.667
340.446	22.431	824.121	646.488
341.460	22.871	823.525	647.574
342.475	22.763	823.147	646.824
343.489	22.438	822.781	645.289
344.504	22.482	822.026	644.799
345.519	22.802	821.697	645.658
346.533	23.014	821.312	646.072
347.548	22.945	821.417	645.845
348.562	22.877	820.858	645.101
349.577	22.809	820.309	644.364
350.592	22.948	819.103	643.864
351.606	22.937	818.839	643.559
352.621	23.014	818.214	643.293
353.635	22.896	817.828	642.504
354.650	22.867	817.389	641.995
355.665	22.394	816.309	639.374
356.679	21.343	814.758	634.288
357.694	21.268	814.229	633.550
358.708	21.862	814.498	635.857
359.723	21.725	813.770	634.737
360.738	22.056	813.437	635.620
361.752	22.346	813.567	636.712
362.767	22.634	812.969	637.231
363.781	22.990	812.762	638.299
364.796	23.029	812.765	638.387
365.810	23.270	812.571	639.046
366.825	23.409	811.785	638.871
367.840	23.124	811.789	637.791
368.854	23.205	810.814	637.262
369.869	22.765	810.038	635.010
370.883	22.384	809.769	633.375
371.898	22.599	808.834	633.358
372.913	22.544	808.223	632.627
373.927	22.744	807.374	632.622
374.942	22.744	806.598	631.959
375.956	22.734	806.461	631.759
376.971	22.868	805.913	631.754
377.986	23.041	805.035	631.629
379.000	23.194	805.003	632.094
380.015	23.044	805.018	631.515
381.029	22.897	804.111	630.222
382.044	23.121	803.486	630.476
383.059	23.092	803.236	630.119
384.073	23.144	802.478	629.655
385.088	23.141	802.131	629.314
386.102	23.173	801.310	628.730
387.117	23.172	800.265	627.851
388.132	23.092	799.982	627.289
389.146	22.740	799.536	625.638
390.161	22.121	798.752	622.774
391.175	22.263	798.158	622.757
392.190	22.844	798.200	624.794
393.205	22.883	797.953	624.681
394.219	21.926	796.073	619.777
395.234	20.282	794.001	612.312
396.248	19.670	792.484	608.934
397.263	20.766	793.908	613.839
398.278	22.440	794.785	620.366
399.292	22.942	794.691	622.006
400.307	22.635	793.858	620.218
401.321	22.462	793.560	619.324
402.336	22.520	793.625	619.522
403.350	22.986	793.341	620.884
404.365	23.228	793.130	621.512
405.380	23.642	792.717	622.587
406.394	23.866	792.695	623.299
407.409	23.963	792.256	623.238
408.423	23.892	791.520	622.357
409.438	23.868	791.118	621.904
410.453	23.812	790.656	621.288
411.467	23.755	790.610	620.997
412.482	23.803	789.700	620.395
413.496	23.844	789.343	620.202
414.511	23.892	789.196	620.202
415.526	23.890	788.632	619.695
416.540	23.924	788.374	619.556
417.555	23.820	787.913	618.777
418.569	23.553	786.959	617.046
419.584	23.589	785.954	616.328
420.599	23.584	785.867	616.186
421.613	157.089	1365.158	1798.327
422.628	135.869	1449.536	1798.414
