DTS Sentinel unit serial number:	SN413079Multiplexer serial number:	ORYXHardware model number:	OX4-SRSoftware version number:	ORYX F/W v4.00 Oryx Data Collector v3.7.2.0data status	okinstallation	princeton_trtdifferential loss correction	single-endedforward channel	channel 3reverse channel	N/Adate	2019/09/11time	01:34:10forward acquisition time	60.00reverse acquisition time	0.00gamma	496.2192k internal	0.2331k external	0.2331temperature offset calibration	0.9914default loss term (dB/km)	0.3790temperature slope calibration	1.0000multiplexer offset coefficient	1.0000multiplexer slope coefficient	1.0000fibre end	0.00T internal ref (°C)	29.16T ext. ref 1 (°C)	-0.31T ext. ref 2 (°C)	23.41length (m)	temperature (°C)	Stokes	anti-Stokes-747.200	-200.000	-0.037	0.374
-746.185	71.625	-0.199	0.208
-745.171	-200.000	0.024	-0.270
-744.156	-200.000	-0.041	0.418
-743.142	239.408	-0.194	0.324
-742.127	-98.594	0.206	0.053
-741.112	370.697	0.117	0.239
-740.098	-78.940	0.153	0.052
-739.083	-116.950	0.314	0.058
-738.069	-200.000	0.016	0.446
-737.054	11.881	0.104	-0.080
-736.039	776.003	0.078	-0.215
-735.025	-200.000	0.016	0.124
-734.010	-12.538	-0.117	-0.077
-732.996	-78.609	-0.520	-0.179
-731.981	-103.217	-0.238	0.057
-730.966	-71.021	0.030	0.011
-729.952	-200.000	-0.029	0.367
-728.937	-114.388	0.216	-0.042
-727.923	7.015	0.124	-0.093
-726.908	-35.879	-0.368	0.201
-725.894	40.603	0.156	-0.142
-724.879	139.987	0.133	-0.177
-723.864	-0.696	-0.147	0.105
-722.850	-60.885	-0.229	-0.098
-721.835	-66.958	0.091	0.036
-720.821	-101.728	0.352	-0.086
-719.806	800.000	0.107	0.336
-718.791	415.169	0.081	0.173
-717.777	-133.243	-0.078	0.010
-716.762	-140.660	-0.516	0.054
-715.748	-14.565	-0.141	-0.091
-714.733	-200.000	0.031	0.136
-713.718	2.559	-0.241	-0.176
-712.704	-200.000	0.001	0.046
-711.689	-200.000	-0.033	-0.327
-710.675	155.498	0.050	-0.069
-709.660	28.882	-0.334	-0.285
-708.645	-200.000	-0.062	-0.502
-707.631	-182.996	-0.009	-0.000
-706.616	386.898	0.129	-0.268
-705.602	-22.079	0.077	-0.047
-704.587	126.045	0.002	-0.003
-703.572	305.965	-0.126	0.235
-702.558	-67.423	0.233	-0.092
-701.543	-200.000	-0.011	0.098
-700.529	148.503	-0.181	-0.246
-699.514	-200.000	0.019	-0.498
-698.499	-43.425	0.079	0.040
-697.485	-196.755	-0.271	-0.002
-696.470	141.293	-0.333	0.443
-695.456	287.361	0.082	-0.150
-694.441	-6.424	0.114	0.078
-693.426	23.245	-0.227	0.187
-692.412	-7.920	0.112	-0.076
-691.397	-58.645	0.099	-0.043
-690.383	-26.344	0.146	-0.086
-689.368	800.000	-0.055	-0.165
-688.354	-83.123	0.477	-0.154
-687.339	103.321	0.184	-0.216
-686.324	443.270	-0.101	-0.222
-685.310	31.692	-0.200	-0.173
-684.295	-46.403	-0.342	-0.169
-683.281	95.872	0.097	-0.111
-682.266	-51.074	0.287	0.135
-681.251	440.474	0.080	0.175
-680.237	-190.037	-0.214	0.002
-679.222	-200.000	0.021	-0.117
-678.208	-15.683	-0.222	-0.142
-677.193	-131.655	-0.294	0.039
-676.178	10.252	0.083	-0.063
-675.164	-73.417	-0.125	0.046
-674.149	-3.438	0.082	0.057
-673.135	123.992	0.288	-0.362
-672.120	-35.595	-0.111	0.061
-671.105	-200.000	0.044	-0.384
-670.091	-37.143	-0.052	0.028
-669.076	53.341	0.116	-0.112
-668.062	-58.437	-0.304	-0.133
-667.047	147.212	0.252	-0.340
-666.032	-41.750	-0.129	0.066
-665.018	311.393	-0.045	-0.085
-664.003	233.543	-0.117	-0.192
-662.989	327.616	-0.099	0.191
-661.974	-167.269	0.274	-0.011
-660.959	166.949	-0.002	-0.003
-659.945	800.000	0.065	0.274
-658.930	566.627	-0.067	0.163
-657.916	-149.175	-0.125	-0.010
-656.901	396.675	0.080	0.168
-655.886	-200.000	0.007	-0.222
-654.872	-5.173	0.129	0.089
-653.857	-136.086	-0.397	0.047
-652.843	435.875	0.061	-0.133
-651.828	41.855	-0.203	0.185
-650.814	-200.000	0.295	0.001
-649.799	22.656	-0.218	-0.179
-648.784	15.442	-0.214	0.168
-647.770	133.539	0.104	-0.134
-646.755	23.625	-0.190	-0.156
-645.741	-200.000	-0.009	-0.092
-644.726	221.079	0.111	0.178
-643.711	-11.489	-0.138	-0.091
-642.697	78.725	0.026	0.028
-641.682	521.517	-0.067	0.159
-640.668	-31.039	-0.108	-0.061
-639.653	53.958	0.144	-0.138
-638.638	66.225	0.064	0.066
-637.624	-200.000	0.051	-0.393
-636.609	-200.000	-0.001	0.120
-635.595	296.755	-0.128	0.236
-634.580	-64.156	0.131	-0.054
-633.565	-200.000	-0.044	-0.308
-632.551	-200.000	-0.044	0.195
-631.536	-50.586	-0.379	-0.179
-630.522	-200.000	0.016	-0.108
-629.507	-163.094	-0.203	0.010
-628.492	81.237	-0.074	0.080
-627.478	33.361	-0.339	0.295
-626.463	-44.287	0.075	-0.038
-625.449	236.348	-0.168	0.278
-624.434	-163.288	-0.225	0.011
-623.419	-87.003	0.197	-0.060
-622.405	32.374	0.159	0.138
-621.390	200.970	0.189	-0.290
-620.376	195.516	0.174	-0.265
-619.361	-58.763	0.058	-0.025
-618.346	-12.782	0.059	0.038
-617.332	248.324	0.133	-0.225
-616.317	-148.779	0.198	-0.016
-615.303	-200.000	-0.015	0.342
-614.288	-22.261	-0.051	0.031
-613.273	381.205	-0.151	0.311
-612.259	211.653	-0.040	-0.063
-611.244	-200.000	0.053	0.237
-610.230	-200.000	0.007	-0.319
-609.215	138.299	0.214	0.281
-608.201	-200.000	0.000	0.011
-607.186	800.000	0.138	0.573
-606.171	36.729	-0.225	0.199
-605.157	259.787	0.126	0.217
-604.142	504.045	0.045	0.105
-603.128	-137.210	0.078	0.009
-602.113	-122.156	-0.099	-0.016
-601.098	-27.330	-0.347	0.202
-600.084	-123.638	-0.252	0.040
-599.069	83.629	-0.034	-0.038
-598.055	222.577	0.122	-0.196
-597.040	-134.971	-0.331	-0.040
-596.025	-87.625	0.385	0.116
-595.011	-80.144	0.224	0.075
-593.996	-200.000	-0.003	-0.029
-592.982	-101.190	-0.474	-0.116
-591.967	114.529	-0.091	-0.111
-590.952	552.087	-0.064	-0.154
-589.938	-76.398	0.123	0.043
-588.923	-105.769	0.188	-0.042
-587.909	-154.833	0.220	0.015
-586.894	-86.100	-0.227	0.070
-585.879	13.778	-0.211	0.164
-584.865	-12.362	0.231	-0.151
-583.850	-178.904	-0.472	-0.011
-582.836	-159.823	0.272	-0.015
-581.821	299.876	0.045	0.083
-580.806	-147.376	-0.271	-0.023
-579.792	29.570	-0.024	0.020
-578.777	183.252	-0.040	0.059
-577.763	91.136	0.053	-0.060
-576.748	425.565	-0.106	-0.228
-575.733	-89.610	-0.216	0.063
-574.719	-88.148	-0.311	-0.093
-573.704	-200.000	-0.053	-0.299
-572.690	-200.000	0.009	-0.056
-571.675	-200.000	-0.004	0.250
-570.661	-200.000	-0.015	0.247
-569.646	-61.686	0.166	0.070
-568.631	-101.069	0.252	0.062
-567.617	44.937	0.104	-0.096
-566.602	800.000	-0.068	0.255
-565.588	6.737	-0.346	0.257
-564.573	-84.495	0.110	0.035
-563.558	-200.000	-0.025	0.301
-562.544	439.693	-0.076	0.165
-561.529	40.833	0.194	-0.175
-560.515	-75.234	-0.308	-0.110
-559.500	-107.457	0.173	-0.038
-558.485	800.000	-0.159	-0.524
-557.471	-70.334	-0.121	-0.046
-556.456	82.163	-0.054	-0.058
-555.442	-31.938	0.267	-0.150
-554.427	658.340	0.079	-0.204
-553.412	141.411	0.055	0.072
-552.398	-33.726	0.311	0.171
-551.383	-97.960	-0.218	0.056
-550.369	-85.298	0.213	0.066
-549.354	180.559	0.078	0.114
-548.339	148.107	-0.228	-0.307
-547.325	-145.345	-0.039	0.004
-546.310	800.000	0.012	0.048
-545.296	-200.000	0.012	-0.354
-544.281	68.673	-0.141	-0.144
-543.266	86.447	-0.229	-0.252
-542.252	-200.000	0.039	-0.216
-541.237	-200.000	0.008	-0.102
-540.223	-107.982	-0.200	0.043
-539.208	148.649	0.072	-0.097
-538.193	-200.000	-0.015	-0.671
-537.179	291.444	-0.046	-0.084
-536.164	114.272	-0.144	-0.175
-535.150	207.286	-0.071	0.111
-534.135	800.000	-0.050	0.146
-533.121	107.038	-0.188	-0.223
-532.106	164.306	0.085	0.120
-531.091	-200.000	0.014	0.219
-530.077	-200.000	0.034	-0.223
-529.062	433.443	-0.190	-0.411
-528.048	-85.902	0.155	-0.048
-527.033	-200.000	-0.002	0.247
-526.018	-200.000	0.007	-0.183
-525.004	737.527	0.104	-0.279
-523.989	-142.613	0.527	-0.051
-522.975	37.925	0.111	0.098
-521.960	800.000	0.112	-0.309
-520.945	-45.087	-0.086	-0.043
-519.931	47.521	-0.079	0.074
-518.916	-118.865	0.293	0.051
-517.902	-82.913	0.197	0.064
-516.887	-63.780	0.115	0.047
-515.872	800.000	0.061	-0.210
-514.858	-164.685	0.378	0.017
-513.843	673.427	-0.047	0.122
-512.829	-200.000	0.048	0.218
-511.814	800.000	-0.123	-0.359
-510.799	96.215	0.030	0.035
-509.785	-19.736	0.256	0.158
-508.770	-59.286	-0.294	-0.126
-507.756	-71.071	-0.065	-0.024
-506.741	-200.000	0.044	0.231
-505.726	800.000	-0.024	-0.073
-504.712	-200.000	0.012	-0.158
-503.697	-157.071	-0.139	-0.008
-502.683	-36.189	-0.083	-0.045
-501.668	-200.000	-0.018	0.343
-500.653	-106.836	0.216	0.048
-499.639	-98.679	-0.201	0.051
-498.624	-200.000	-0.015	0.151
-497.610	800.000	-0.082	-0.285
-496.595	571.308	-0.079	-0.191
-495.581	-200.000	-0.019	0.214
-494.566	-45.241	-0.283	-0.140
-493.551	333.481	-0.203	-0.392
-492.537	55.001	-0.039	0.037
-491.522	-84.806	0.209	-0.065
-490.508	-7.531	0.153	-0.103
-489.493	-97.643	-0.231	-0.060
-488.478	91.630	0.178	-0.199
-487.464	192.411	0.114	0.171
-486.449	158.760	0.059	0.081
-485.435	-200.000	0.022	0.347
-484.420	92.546	0.113	0.128
-483.405	566.685	0.094	-0.228
-482.391	537.306	0.042	0.100
-481.376	-200.000	-0.032	0.147
-480.362	800.000	0.127	0.419
-479.347	3.992	-0.167	0.121
-478.332	-24.544	0.267	-0.158
-477.318	293.766	0.134	-0.243
-476.303	-161.247	-0.610	0.032
-475.289	405.849	0.020	0.042
-474.274	119.184	-0.115	0.142
-473.259	-200.000	0.025	-0.142
-472.245	298.016	-0.031	-0.056
-471.230	123.140	-0.113	-0.141
-470.216	-200.000	-0.013	-0.278
-469.201	78.563	0.096	-0.102
-468.186	-15.230	-0.171	-0.109
-467.172	493.611	-0.139	0.318
-466.157	800.000	-0.060	0.190
-465.143	203.885	-0.043	-0.066
-464.128	369.084	0.068	0.137
-463.113	-49.042	-0.100	-0.048
-462.099	245.508	0.071	-0.120
-461.084	-136.539	0.050	-0.006
-460.070	-64.284	-0.394	0.160
-459.055	157.559	-0.103	0.142
-458.040	-1.135	-0.390	-0.274
-457.026	393.823	0.091	-0.188
-456.011	0.209	-0.175	0.124
-454.997	330.801	-0.059	0.113
-453.982	96.650	-0.120	-0.136
-452.968	41.334	0.204	-0.183
-451.953	183.250	0.067	-0.098
-450.938	-41.934	-0.084	-0.043
-449.924	800.000	-0.039	0.113
-448.909	637.353	0.061	0.155
-447.895	375.367	0.052	-0.105
-446.880	352.207	-0.166	-0.326
-445.865	635.591	-0.100	-0.252
-444.851	106.732	-0.227	-0.268
-443.836	347.179	0.083	-0.162
-442.822	-200.000	0.036	-0.235
-441.807	354.341	0.078	0.154
-440.792	-200.000	-0.064	0.287
-439.778	-38.991	-0.243	-0.127
-438.763	149.958	-0.190	-0.257
-437.749	-70.712	-0.063	0.024
-436.734	-10.932	0.109	-0.072
-435.719	154.965	0.210	-0.287
-434.705	166.066	-0.187	-0.263
-433.690	37.348	-0.199	-0.175
-432.676	20.158	0.218	0.175
-431.661	-133.076	0.277	0.035
-430.646	-20.949	0.093	0.057
-429.632	309.986	-0.163	-0.303
-428.617	29.694	0.118	0.100
-427.603	-96.621	0.048	-0.012
-426.588	-67.453	0.198	0.077
-425.573	779.791	-0.055	0.151
-424.559	-200.000	0.003	0.018
-423.544	800.000	-0.045	-0.193
-422.530	33.125	-0.122	-0.105
-421.515	80.516	-0.125	0.133
-420.500	-171.564	0.231	0.008
-419.486	17.860	-0.125	-0.099
-418.471	-49.158	0.199	0.094
-417.457	800.000	0.019	-0.075
-416.442	-200.000	-0.041	-0.209
-415.428	0.123	-0.166	0.117
-414.413	124.964	-0.154	-0.193
-413.398	166.132	0.209	0.293
-412.384	-186.658	-0.262	-0.004
-411.369	-141.920	0.292	-0.029
-410.355	552.497	-0.083	0.198
-409.340	-146.579	0.292	0.025
-408.325	800.000	-0.050	0.167
-407.311	-111.095	0.066	0.013
-406.296	-200.000	0.022	0.254
-405.282	-72.185	-0.195	-0.072
-404.267	-200.000	-0.021	0.105
-403.252	512.609	0.026	-0.060
-402.238	167.424	-0.213	-0.301
-401.223	58.463	-0.256	-0.250
-400.209	51.731	0.161	0.152
-399.194	-114.722	-0.236	0.045
-398.179	52.818	0.184	0.175
-397.165	-108.181	0.082	0.018
-396.150	-186.915	0.073	-0.001
-395.136	15.488	0.394	-0.307
-394.121	76.319	-0.240	-0.253
-393.106	-200.000	-0.094	-0.468
-392.092	-51.428	0.158	-0.073
-391.077	463.678	0.203	0.450
-390.063	-134.513	0.104	0.013
-389.048	-200.000	0.136	0.596
-388.033	-72.446	-0.291	-0.107
-387.019	-116.405	0.068	0.012
-386.004	-200.000	-0.013	0.303
-384.990	-200.000	-0.085	-0.520
-383.975	-75.783	0.116	0.041
-382.960	-42.284	-0.039	-0.020
-381.946	800.000	-0.059	-0.188
-380.931	-13.979	-0.194	0.124
-379.917	61.615	-0.310	-0.306
-378.902	715.898	0.063	-0.166
-377.888	312.665	0.077	-0.143
-376.873	800.000	0.033	0.135
-375.858	726.771	-0.122	0.322
-374.844	187.954	-0.044	-0.065
-373.829	-31.403	-0.152	-0.085
-372.815	-200.000	-0.007	-0.136
-371.800	82.500	0.064	0.068
-370.785	640.437	-0.062	0.155
-369.771	800.000	0.031	0.108
-368.756	-55.710	0.173	0.076
-367.742	688.073	0.112	0.292
-366.727	-2.207	0.076	0.053
-365.712	800.000	-0.058	-0.189
-364.698	-200.000	0.015	0.103
-363.683	246.535	0.026	0.043
-362.669	-200.000	0.052	0.226
-361.654	-200.000	-0.015	0.139
-360.639	-29.626	0.131	0.074
-359.625	-139.404	0.053	0.006
-358.610	-120.596	0.329	0.055
-357.596	321.800	-0.142	0.268
-356.581	-134.304	-0.183	-0.022
-355.566	-22.450	0.091	-0.054
-354.552	-75.045	-0.025	0.009
-353.537	-19.958	0.086	-0.052
-352.523	-200.000	0.298	-0.001
-351.508	53.371	-0.099	0.094
-350.493	800.000	-0.074	-0.289
-349.479	-20.069	-0.150	-0.092
-348.464	-103.566	-0.303	-0.070
-347.450	800.000	-0.047	-0.160
-346.435	-200.000	0.007	-0.072
-345.420	541.541	0.067	0.158
-344.406	-47.439	0.302	0.145
-343.391	800.000	0.144	0.488
-342.377	514.837	-0.098	-0.226
-341.362	-200.000	-0.031	-0.182
-340.348	164.420	-0.238	0.333
-339.333	-22.075	0.041	-0.025
-338.318	-97.843	0.113	0.029
-337.304	-200.000	-0.010	-0.156
-336.289	-32.879	0.069	0.038
-335.275	101.981	-0.102	-0.118
-334.260	222.771	0.088	-0.141
-333.245	162.213	-0.116	-0.161
-332.231	-115.200	0.210	-0.039
-331.216	294.934	0.084	0.152
-330.202	-24.231	-0.129	-0.076
-329.187	586.340	-0.085	-0.208
-328.172	67.685	0.204	-0.207
-327.158	800.000	-0.027	0.112
-326.143	800.000	0.070	-0.201
-325.129	-61.681	0.478	0.199
-324.114	155.464	0.179	0.244
-323.099	800.000	0.017	0.057
-322.085	149.239	-0.100	0.134
-321.070	12.575	0.156	0.119
-320.056	-200.000	-0.039	0.342
-319.041	-128.188	0.275	-0.039
-318.026	0.962	0.036	0.025
-317.012	-200.000	0.010	-0.043
-315.997	-122.610	-0.237	-0.038
-314.983	-200.000	0.023	0.455
-313.968	118.968	-0.208	-0.254
-312.953	-113.851	0.095	0.018
-311.939	-200.000	0.035	0.367
-310.924	-200.000	-0.041	0.388
-309.910	-129.152	0.267	0.037
-308.895	-200.000	0.022	-0.179
-307.880	-200.000	-0.018	0.136
-306.866	-50.189	0.174	-0.081
-305.851	-15.430	0.292	0.184
-304.837	-90.475	-0.347	0.100
-303.822	-42.141	-0.205	0.103
-302.807	-200.000	-0.039	-0.315
-301.793	212.175	-0.107	-0.167
-300.778	-200.000	-0.004	-0.126
-299.764	-27.453	-0.326	0.188
-298.749	-16.736	0.285	-0.178
-297.735	-37.347	0.072	0.038
-296.720	-200.000	0.006	0.356
-295.705	-125.292	-0.217	-0.033
-294.691	-200.000	0.063	0.318
-293.676	-200.000	-0.010	0.171
-292.662	-134.092	-0.072	0.009
-291.647	39.110	-0.226	-0.200
-290.632	-69.027	-0.260	-0.099
-289.618	13.744	-0.144	-0.110
-288.603	800.000	0.011	0.037
-287.589	-30.800	0.098	-0.055
-286.574	-200.000	-0.132	0.000
-285.559	800.000	0.065	-0.228
-284.545	206.793	-0.094	0.144
-283.530	14.055	-0.107	0.083
-282.516	207.046	-0.032	0.049
-281.501	-200.000	-0.013	0.151
-280.486	-162.513	-0.086	0.004
-279.472	-38.599	0.209	-0.109
-278.457	-70.703	0.242	-0.090
-277.443	-189.676	-0.181	0.002
-276.428	323.215	-0.117	-0.220
-275.413	-71.814	0.266	-0.098
-274.399	-12.771	0.104	0.067
-273.384	-200.000	0.010	0.267
-272.370	-4.203	0.082	-0.056
-271.355	108.957	0.220	-0.260
-270.340	286.832	-0.082	0.146
-269.326	-27.219	-0.207	-0.119
-268.311	158.557	0.210	0.288
-267.297	-139.574	0.118	-0.012
-266.282	-162.959	0.186	0.009
-265.267	738.657	-0.080	0.212
-264.253	437.998	0.101	-0.219
-263.238	-39.417	0.475	-0.246
-262.224	-67.466	0.169	-0.066
-261.209	800.000	0.147	0.406
-260.195	-200.000	0.029	-0.172
-259.180	-88.394	0.308	0.091
-258.165	-48.679	0.127	0.060
-257.151	-64.762	-0.376	-0.151
-256.136	-74.053	-0.141	0.051
-255.122	800.000	0.080	0.343
-254.107	-42.598	-0.133	0.067
-253.092	-174.469	-0.268	-0.008
-252.078	-93.946	0.151	-0.041
-251.063	800.000	-0.061	0.260
-250.049	-200.000	0.046	-0.247
-249.034	-200.000	0.030	0.133
-248.019	56.452	-0.053	0.051
-247.005	-103.775	-0.359	0.083
-245.990	-200.000	-0.050	0.313
-244.976	-38.807	-0.099	0.051
-243.961	104.101	0.124	-0.144
-242.946	-129.041	0.019	0.003
-241.932	255.557	-0.105	-0.178
-240.917	-200.000	0.086	-0.519
-239.903	268.286	-0.074	0.129
-238.888	362.166	-0.048	0.095
-237.873	-200.000	-0.021	0.151
-236.859	-122.076	-0.221	0.036
-235.844	-29.259	0.163	0.092
-234.830	-142.203	0.141	-0.014
-233.815	88.174	-0.157	-0.172
-232.800	163.231	-0.170	-0.236
-231.786	-117.321	0.221	0.040
-230.771	-85.098	-0.397	0.122
-229.757	-109.436	-0.136	-0.028
-228.742	-83.617	0.369	0.116
-227.727	-200.000	-0.055	0.279
-226.713	800.000	0.020	0.072
-225.698	-60.327	-0.113	-0.047
-224.684	161.160	0.218	-0.300
-223.669	227.832	-0.040	0.064
-222.655	-200.000	0.010	-0.099
-221.640	800.000	-0.083	-0.328
-220.625	362.490	0.086	-0.171
-219.611	-185.199	0.147	0.002
-218.596	194.877	0.038	0.058
-217.582	361.661	-0.117	-0.231
-216.567	-23.387	-0.177	0.105
-215.552	800.000	0.062	-0.176
-214.538	-200.000	0.016	-0.080
-213.523	-49.616	-0.048	-0.023
-212.509	-3.067	0.136	-0.094
-211.494	135.744	0.101	-0.130
-210.479	119.490	-0.146	0.178
-209.465	-200.000	-0.006	-0.193
-208.450	800.000	0.167	0.610
-207.436	415.432	-0.107	0.224
-206.421	127.945	0.030	-0.037
-205.406	-24.577	0.267	0.156
-204.392	-4.867	0.188	-0.127
-203.377	800.000	-0.018	0.052
-202.363	173.004	-0.077	-0.110
-201.348	-82.585	-0.159	0.051
-200.333	-200.000	0.010	-0.126
-199.319	252.731	0.043	-0.072
-198.304	23.729	0.101	0.082
-197.290	15.905	0.287	-0.222
-196.275	-200.000	0.223	0.000
-195.260	163.592	0.101	0.140
-194.246	-164.102	0.143	0.007
-193.231	145.707	-0.173	0.229
-192.217	34.429	0.226	0.195
-191.202	67.930	0.133	-0.134
-190.187	-200.000	-0.060	0.285
-189.173	-16.198	0.145	0.091
-188.158	493.624	0.187	-0.423
-187.144	167.836	0.063	-0.088
-186.129	13.884	-0.121	-0.093
-185.114	-20.549	0.211	0.127
-184.100	-82.053	-0.234	-0.075
-183.085	-200.000	-0.025	-0.120
-182.071	800.000	0.086	-0.329
-181.056	-116.197	-0.046	0.008
-180.042	-76.240	0.417	0.145
-179.027	131.409	0.028	-0.036
-178.012	2.646	0.076	0.054
-176.998	180.555	0.194	-0.281
-175.983	-93.464	0.127	0.035
-174.969	-26.598	0.101	0.058
-173.954	-168.736	-0.128	-0.005
-172.939	-200.000	0.164	0.001
-171.925	112.626	-0.082	0.097
-170.910	-56.461	0.154	0.067
-169.896	-146.926	-0.139	-0.012
-168.881	800.000	-0.195	0.565
-167.866	207.468	-0.123	0.189
-166.852	-200.000	0.036	0.387
-165.837	618.171	-0.142	0.350
-164.823	800.000	-0.065	-0.250
-163.808	-126.010	0.054	0.008
-162.793	800.000	-0.078	0.221
-161.779	38.360	0.060	0.053
-160.764	-200.000	-0.029	0.345
-159.750	-200.000	0.068	-0.298
-158.735	-142.997	-0.165	0.016
-157.720	99.235	0.035	-0.039
-156.706	-6.921	0.320	-0.214
-155.691	-26.841	0.264	0.152
-154.677	800.000	0.096	0.266
-153.662	-134.065	-0.599	-0.073
-152.647	-200.000	0.045	0.353
-151.633	-106.261	0.133	0.029
-150.618	190.974	0.061	-0.091
-149.604	-200.000	-0.039	0.182
-148.589	147.865	0.236	0.313
-147.574	233.036	-0.076	0.123
-146.560	-161.594	-0.064	-0.003
-145.545	800.000	-0.017	-0.061
-144.531	-109.447	0.173	0.036
-143.516	800.000	-0.057	-0.223
-142.502	-200.000	-0.072	0.532
-141.487	5.839	-0.083	0.060
-140.472	136.278	-0.166	-0.213
-139.458	-18.309	-0.064	0.039
-138.443	-16.442	-0.082	0.051
-137.429	-200.000	-0.006	0.147
-136.414	800.000	-0.023	0.073
-135.399	107.437	-0.053	-0.062
-134.385	-74.842	0.476	0.168
-133.370	-151.202	0.186	-0.014
-132.356	-200.000	0.043	0.201
-131.341	700.348	-0.121	-0.313
-130.326	-58.918	-0.183	0.078
-129.312	374.475	-0.122	0.245
-128.297	-106.828	0.077	-0.017
-127.283	155.686	-0.099	0.134
-126.268	78.346	0.033	0.034
-125.253	-200.000	0.013	0.174
-124.239	92.047	0.071	-0.078
-123.224	585.171	0.035	0.084
-122.210	-76.335	-0.380	-0.132
-121.195	90.703	-0.197	0.217
-120.180	27.868	-0.197	0.163
-119.166	-35.835	-0.297	-0.158
-118.151	165.798	0.034	-0.048
-117.137	382.992	-0.155	0.313
-116.122	601.403	0.030	0.073
-115.107	-149.548	-0.128	-0.010
-114.093	297.401	0.085	0.152
-113.078	-151.698	0.273	-0.020
-112.064	-55.854	-0.449	0.197
-111.049	126.014	0.100	0.124
-110.034	800.000	-0.019	-0.066
-109.020	-102.843	-0.133	0.031
-108.005	116.624	-0.113	0.136
-106.991	66.386	0.129	0.129
-105.976	800.000	-0.090	0.280
-104.962	-200.000	-0.010	0.080
-103.947	643.733	0.068	0.170
-102.932	216.108	-0.090	0.141
-101.918	56.078	0.157	0.149
-100.903	130.668	-0.063	-0.079
-99.889	172.585	0.200	-0.282
-98.874	45.280	0.180	0.163
-97.859	-39.308	0.160	-0.082
-96.845	-200.000	0.040	0.403
-95.830	-60.420	0.499	-0.208
-94.816	119.122	0.231	0.281
-93.801	800.000	0.045	-0.145
-92.786	-91.827	-0.144	-0.040
-91.772	-33.128	-0.149	-0.081
-90.757	19.111	0.356	0.280
-89.743	-100.345	-0.170	0.041
-88.728	-58.335	-0.119	-0.051
-87.713	112.696	0.110	-0.131
-86.699	-45.208	0.166	0.081
-85.684	-168.516	0.052	0.002
-84.670	-98.577	-0.074	-0.018
-83.655	482.870	0.165	0.368
-82.640	171.873	-0.068	0.096
-81.626	800.000	-0.006	0.027
-80.611	-200.000	0.052	0.262
-79.597	-44.961	0.208	0.101
-78.582	-145.616	0.161	-0.014
-77.567	-97.896	-0.133	0.034
-76.553	568.015	-0.113	0.269
-75.538	267.610	-0.072	0.124
-74.524	-68.422	-0.363	-0.138
-73.509	361.387	0.202	-0.397
-72.494	-200.000	0.012	-0.084
-71.480	-200.000	0.024	0.192
-70.465	-17.078	0.287	0.177
-69.451	-200.000	0.009	0.279
-68.436	85.999	-0.084	-0.090
-67.422	769.820	-0.081	-0.217
-66.407	195.539	-0.231	-0.344
-65.392	129.800	-0.248	0.311
-64.378	-200.000	0.007	0.123
-63.363	-76.979	0.051	-0.017
-62.349	55.022	-0.144	0.136
-61.334	68.903	-1.171	-1.178
-60.319	-41.011	0.681	0.345
-59.305	-200.000	-0.253	-1.173
-58.290	94.263	0.897	0.997
-57.276	231.538	0.921	1.479
-56.261	-200.000	106.868	625.557
-55.246	523.745	1513.546	3484.917
-54.232	176.234	2703.881	3846.288
-53.217	110.944	2183.119	2573.929
-52.203	39.937	1705.758	1500.272
-51.188	32.375	1518.335	1284.007
-50.173	29.990	1491.679	1245.398
-49.159	50.772	1549.008	1436.409
-48.144	50.876	1564.764	1451.676
-47.130	32.508	1520.176	1286.267
-46.115	29.408	1505.891	1253.112
-45.100	29.382	1501.907	1249.566
-44.086	29.174	1499.711	1246.284
-43.071	29.152	1497.689	1244.408
-42.057	29.100	1496.396	1242.934
-41.042	29.169	1494.674	1241.920
-40.027	29.139	1493.258	1240.491
-39.013	29.164	1491.563	1239.200
-37.998	29.075	1490.400	1237.589
-36.984	29.006	1489.579	1236.390
-35.969	29.137	1487.947	1235.869
-34.954	29.046	1486.948	1234.380
-33.940	29.113	1484.838	1233.024
-32.925	29.202	1483.879	1232.775
-31.911	29.225	1482.501	1231.740
-30.896	29.239	1481.042	1230.567
-29.881	29.193	1480.230	1229.539
-28.867	29.302	1478.523	1228.798
-27.852	29.161	1477.594	1227.040
-26.838	29.276	1476.007	1226.439
-25.823	29.197	1475.123	1225.126
-24.809	29.284	1472.948	1223.849
-23.794	29.112	1471.806	1221.710
-22.779	29.212	1470.158	1220.960
-21.765	29.265	1469.125	1220.405
-20.750	29.195	1468.384	1219.278
-19.736	29.207	1467.659	1218.704
-18.721	29.174	1466.388	1217.382
-17.706	29.221	1464.761	1216.292
-16.692	29.195	1464.030	1215.467
-15.677	29.057	1463.166	1213.790
-14.663	29.221	1462.068	1213.914
-13.648	29.096	1460.886	1212.059
-12.633	29.110	1460.238	1211.569
-11.619	29.109	1459.325	1210.759
-10.604	29.120	1458.351	1209.972
-9.590	29.059	1457.744	1209.016
-8.575	29.142	1456.363	1208.368
-7.560	29.137	1455.358	1207.457
-6.546	29.164	1454.996	1207.282
-5.531	29.133	1453.864	1206.092
-4.517	29.058	1453.409	1205.178
-3.502	29.114	1452.282	1204.564
-2.487	29.142	1450.887	1203.538
-1.473	29.165	1449.768	1202.714
-0.458	29.034	1449.213	1201.350
0.556	26.824	1439.784	1191.175
1.571	24.064	1414.305	1152.152
2.586	20.851	1355.117	1083.883
3.600	19.513	1273.584	1010.745
4.615	18.349	1229.455	969.059
5.629	15.962	1173.353	911.851
6.644	7.576	1089.966	804.639
7.659	0.785	1049.978	741.824
8.673	-0.136	1044.212	733.187
9.688	-0.349	1041.526	730.202
10.702	-0.405	1039.672	728.562
11.717	-0.339	1037.034	726.969
12.731	2.596	1040.083	743.294
13.746	11.273	1052.834	794.801
14.761	18.328	1062.112	836.314
15.775	20.135	1063.934	846.505
16.790	20.324	1063.272	846.825
17.804	20.201	1062.527	845.558
18.819	19.992	1061.624	843.750
19.834	20.142	1060.736	843.699
20.848	20.202	1060.591	843.800
21.863	20.168	1060.491	843.479
22.877	20.161	1059.784	842.810
23.892	20.157	1058.942	842.047
24.907	20.105	1058.044	841.003
25.921	20.028	1057.976	840.504
26.936	20.088	1057.060	839.991
27.950	20.249	1055.316	839.309
28.965	20.061	1054.689	837.827
29.980	19.959	1052.414	835.454
30.994	19.898	1051.534	834.390
32.009	20.157	1050.356	834.628
33.023	20.285	1049.503	834.490
34.038	20.106	1048.685	832.905
35.053	19.966	1047.870	831.514
36.067	20.239	1047.010	832.066
37.082	20.214	1046.705	831.628
38.096	20.373	1045.376	831.262
39.111	20.447	1044.905	831.169
40.126	20.485	1043.786	830.388
41.140	20.453	1042.550	829.174
42.155	20.110	1041.292	826.466
43.169	19.950	1040.124	824.703
44.184	20.041	1038.500	823.778
45.199	19.990	1037.443	822.623
46.213	19.850	1037.052	821.574
47.228	19.874	1035.569	820.443
48.242	19.941	1035.259	820.440
49.257	20.184	1033.880	820.429
50.271	20.134	1033.168	819.553
51.286	20.325	1032.153	819.575
52.301	20.193	1032.081	818.825
53.315	20.194	1031.185	818.045
54.330	20.298	1029.989	817.516
55.344	20.242	1029.147	816.510
56.359	20.222	1028.311	815.679
57.374	20.061	1027.788	814.435
58.388	19.998	1026.269	812.864
59.403	20.027	1025.599	812.399
60.417	20.118	1024.438	811.832
61.432	19.949	1023.940	810.577
62.447	19.878	1023.473	809.804
63.461	19.923	1022.800	809.407
64.476	20.064	1021.818	809.220
65.490	20.072	1021.049	808.573
66.505	19.906	1019.935	806.846
67.520	19.895	1019.360	806.272
68.534	20.060	1018.180	806.031
69.549	19.991	1017.276	804.924
70.563	19.676	1016.213	802.549
71.578	19.540	1015.374	801.185
72.593	19.680	1014.232	800.864
73.607	19.548	1013.245	799.399
74.622	19.478	1012.588	798.487
75.636	19.887	1011.721	799.622
76.651	19.956	1011.367	799.592
77.666	19.772	1010.308	797.837
78.680	19.624	1009.416	796.379
79.695	19.669	1008.636	795.899
80.709	19.877	1007.951	796.244
81.724	19.900	1007.107	795.614
82.739	19.880	1006.231	794.758
83.753	19.863	1005.332	793.902
84.768	20.149	1004.640	794.596
85.782	20.394	1004.229	795.321
86.797	20.380	1003.682	794.754
87.812	20.396	1002.543	793.857
88.826	20.235	1001.760	792.430
89.841	20.365	1000.513	791.965
90.855	20.498	999.719	791.874
91.870	20.504	998.879	791.167
92.884	20.420	998.069	790.072
93.899	20.356	997.568	789.314
94.914	20.208	996.188	787.480
95.928	20.432	995.503	787.887
96.943	20.222	994.876	786.369
97.957	20.078	993.665	784.691
98.972	19.949	992.764	783.326
99.987	19.720	991.536	781.253
101.001	19.888	990.573	781.182
102.016	20.161	990.450	782.247
103.030	20.214	989.509	781.676
104.045	20.186	988.062	780.335
105.060	19.872	987.140	778.128
106.074	19.816	985.586	776.584
107.089	19.890	984.902	776.305
108.103	20.249	984.862	777.814
109.118	20.230	983.852	776.866
110.133	20.046	982.387	774.818
111.147	20.119	981.320	774.233
112.162	19.923	980.408	772.572
113.176	19.754	978.836	770.511
114.191	19.854	978.216	770.397
115.206	19.996	977.017	770.017
116.220	19.715	975.761	767.713
117.235	19.527	975.030	766.236
118.249	19.775	974.168	766.588
119.264	19.643	973.698	765.564
120.279	19.542	972.846	764.380
121.293	19.674	971.816	764.086
122.308	19.720	971.367	763.873
123.322	19.670	970.391	762.815
124.337	19.654	969.286	761.809
125.352	19.562	968.173	760.461
126.366	19.130	966.230	756.971
127.381	18.880	964.781	754.671
128.395	19.409	964.594	756.779
129.410	20.174	964.034	759.626
130.424	20.161	963.408	759.008
131.439	20.196	961.755	757.789
132.454	20.113	960.947	756.725
133.468	20.241	960.004	756.472
134.483	19.992	959.196	754.686
135.497	20.150	958.724	754.934
136.512	20.342	958.060	755.181
137.527	20.342	957.128	754.379
138.541	20.304	956.327	753.515
139.556	20.377	955.204	752.879
140.570	20.438	954.749	752.720
141.585	20.417	953.709	751.742
142.600	20.396	953.142	751.137
143.614	20.149	952.127	749.206
144.629	20.415	951.679	749.935
145.643	20.473	951.145	749.698
146.658	20.531	949.435	748.531
147.673	20.452	948.440	747.344
148.687	20.298	947.173	745.617
149.702	20.260	946.502	744.862
150.716	20.162	945.284	743.414
151.731	20.112	944.666	742.647
152.746	20.313	943.655	742.647
153.760	20.391	943.479	742.778
154.775	20.466	942.879	742.559
155.789	20.680	941.437	742.274
156.804	20.644	940.181	741.063
157.819	20.401	939.639	739.533
158.833	20.482	938.607	739.002
159.848	20.580	938.365	739.164
160.862	20.698	936.794	738.363
161.877	20.486	935.872	736.670
162.892	20.476	935.083	735.941
163.906	20.540	934.661	735.813
164.921	20.601	933.503	735.096
165.935	20.602	931.989	733.844
166.950	20.664	931.084	733.326
167.964	20.489	930.116	731.765
168.979	20.447	929.403	730.962
169.994	20.398	928.252	729.785
171.008	20.364	927.251	728.792
172.023	20.431	926.736	728.603
173.037	20.577	925.543	728.214
174.052	20.430	924.668	726.842
175.067	20.253	923.322	724.984
176.081	20.285	922.543	724.440
177.096	20.465	921.886	724.609
178.110	20.441	920.987	723.740
179.125	20.157	920.022	721.734
180.140	19.948	919.087	720.071
181.154	19.901	918.710	719.516
182.169	20.101	917.752	719.529
183.183	20.321	917.447	720.143
184.198	20.484	917.181	720.543
185.213	20.429	916.335	719.590
186.227	20.399	915.115	718.441
187.242	20.539	914.853	718.753
188.256	20.568	914.081	718.201
189.271	20.496	913.118	717.082
190.286	20.652	912.570	717.236
191.300	20.438	911.858	715.728
192.315	20.018	910.645	712.985
193.329	19.512	908.636	709.272
194.344	18.851	908.192	706.148
195.359	19.583	908.440	709.283
196.373	20.359	908.617	712.546
197.388	20.593	908.227	713.136
198.402	20.304	907.575	711.375
199.417	20.353	906.654	710.791
200.432	20.290	906.774	710.564
201.446	20.276	905.342	709.323
202.461	19.820	904.665	706.866
203.475	20.024	903.987	707.109
204.490	19.709	902.391	704.512
205.504	18.536	900.751	698.396
206.519	19.018	900.690	700.250
207.534	19.992	900.852	704.278
208.548	19.985	900.650	704.028
209.563	20.416	900.430	705.543
210.577	20.345	899.717	704.634
211.592	20.123	898.641	702.830
212.607	20.497	898.806	704.411
213.621	20.441	898.129	703.594
214.636	20.553	897.246	703.294
215.650	20.681	896.539	703.195
216.665	20.589	895.868	702.235
217.680	20.595	895.147	701.630
218.694	20.575	895.134	701.476
219.709	20.288	893.875	699.272
220.723	20.050	892.640	697.288
221.738	20.161	892.487	697.552
222.753	20.461	891.448	697.882
223.767	20.425	890.915	697.261
224.782	20.384	890.446	696.666
225.796	20.540	889.993	696.875
226.811	20.695	889.180	696.799
227.826	20.259	888.260	694.270
228.840	19.618	886.714	690.439
229.855	19.549	886.014	689.559
230.869	19.836	885.723	690.416
231.884	19.305	884.895	687.594
232.899	19.465	884.296	687.705
233.913	20.256	884.347	690.833
234.928	20.525	883.918	691.507
235.942	20.305	883.092	689.928
236.957	20.502	882.462	690.156
237.972	20.143	881.484	687.905
238.986	19.985	880.689	686.597
240.001	20.118	880.313	686.772
241.015	20.244	879.487	686.563
242.030	20.185	879.355	686.169
243.045	20.365	878.480	686.136
244.059	20.386	878.142	685.893
245.074	20.528	877.621	685.987
246.088	20.515	876.916	685.323
247.103	20.127	875.812	682.873
248.117	20.145	875.706	682.799
249.132	20.739	875.211	684.691
250.147	21.042	874.626	685.361
251.161	20.926	874.207	684.517
252.176	21.217	873.614	685.136
253.190	21.217	872.572	684.259
254.205	21.103	872.491	683.687
255.220	21.399	871.840	684.274
256.234	21.348	871.399	683.668
257.249	21.159	870.810	682.407
258.263	21.078	870.036	681.425
259.278	21.204	869.075	681.105
260.293	21.211	869.050	681.050
261.307	21.396	868.123	680.985
262.322	21.146	867.409	679.392
263.336	21.069	866.875	678.614
264.351	20.407	865.663	675.032
265.366	19.308	863.687	669.167
266.380	19.091	862.448	667.308
267.395	20.074	862.678	671.235
268.409	20.809	862.965	674.248
269.424	20.770	862.390	673.586
270.439	20.928	861.802	673.679
271.453	21.073	861.124	673.648
272.468	21.221	860.246	673.474
273.482	21.186	860.431	673.425
274.497	21.332	859.672	673.334
275.512	21.116	858.906	671.842
276.526	20.551	857.602	668.588
277.541	20.710	857.047	668.709
278.555	21.234	856.394	670.153
279.570	21.045	855.661	668.795
280.585	20.657	855.129	666.834
281.599	20.908	854.513	667.252
282.614	20.966	854.302	667.253
283.628	20.595	852.874	664.658
284.643	20.289	851.835	662.622
285.657	20.664	852.068	664.176
286.672	20.596	851.139	663.135
287.687	20.161	849.920	660.470
288.701	20.451	849.956	661.544
289.716	20.662	849.812	662.176
290.730	20.376	848.843	660.275
291.745	20.113	848.431	658.897
292.760	20.286	847.006	658.391
293.774	20.017	846.558	656.961
294.789	20.843	847.280	660.600
295.803	21.588	846.864	663.037
296.818	21.567	846.812	662.858
297.833	21.768	846.016	662.940
298.847	21.454	844.687	660.653
299.862	21.015	843.557	658.053
300.876	21.399	843.365	659.294
301.891	21.557	843.050	659.585
302.906	21.518	842.775	659.166
303.920	21.271	841.244	656.982
304.935	21.070	840.292	655.424
305.949	21.494	840.234	656.913
306.964	21.440	839.993	656.463
307.979	21.458	838.987	655.688
308.993	21.220	839.020	654.761
310.008	21.541	839.038	655.922
311.022	21.707	838.049	655.710
312.037	21.392	837.901	654.360
313.052	21.273	836.825	653.015
314.066	21.296	835.948	652.360
315.081	20.776	834.172	648.979
316.095	20.044	833.341	645.546
317.110	20.554	833.534	647.539
318.125	21.253	833.741	650.245
319.139	20.913	832.826	648.210
320.154	19.866	830.765	642.663
321.168	19.299	830.280	640.124
322.183	20.076	830.273	642.948
323.197	20.852	830.854	646.221
324.212	21.200	830.510	647.187
325.227	21.240	829.943	646.835
326.241	21.418	829.700	647.246
327.256	21.402	828.634	646.300
328.270	21.238	827.959	645.110
329.285	21.097	827.653	644.294
330.300	20.979	826.843	643.171
331.314	20.904	825.961	642.154
332.329	20.993	825.172	641.810
333.343	21.417	824.670	642.921
334.358	21.469	824.830	643.179
335.373	21.468	823.889	642.385
336.387	21.555	823.137	642.063
337.402	21.697	823.140	642.529
338.416	21.855	822.867	642.836
339.431	21.845	821.835	641.940
340.446	21.783	821.556	641.435
341.460	21.938	821.213	641.678
342.475	21.891	820.669	641.024
343.489	21.643	819.971	639.519
344.504	21.792	819.497	639.634
345.519	21.926	819.011	639.686
346.533	22.178	818.456	640.117
347.548	22.126	818.418	639.841
348.562	22.282	817.735	639.817
349.577	22.171	817.272	638.994
350.592	22.050	817.080	638.348
351.606	22.100	816.347	637.900
352.621	22.151	815.469	637.344
353.635	22.046	814.972	636.517
354.650	22.057	814.578	636.195
355.665	21.853	813.248	634.362
356.679	20.744	812.059	629.369
357.694	20.683	811.191	628.420
358.708	21.228	811.435	630.523
359.723	21.080	811.030	629.619
360.738	21.359	810.585	630.223
361.752	21.799	810.819	631.936
362.767	21.852	810.346	631.701
363.781	22.285	809.912	632.866
364.796	22.452	809.755	633.288
365.810	22.494	809.541	633.217
366.825	22.548	808.993	632.923
367.840	22.650	808.525	632.867
368.854	22.269	808.175	631.171
369.869	21.790	807.253	628.679
370.883	21.904	806.417	628.382
371.898	21.975	806.063	628.301
372.913	21.815	805.101	626.924
373.927	21.746	804.644	626.266
374.942	21.951	804.253	626.640
375.956	22.221	803.487	626.951
376.971	22.143	803.334	626.497
377.986	22.336	802.586	626.545
379.000	22.553	801.978	626.787
380.015	22.501	801.692	626.323
381.029	22.476	800.875	625.540
382.044	22.403	800.234	624.726
383.059	22.288	799.846	623.960
384.073	22.362	799.453	623.862
385.088	22.527	798.768	623.855
386.102	22.467	798.600	623.457
387.117	22.350	797.993	622.512
388.132	22.261	797.360	621.649
389.146	22.202	796.341	620.593
390.161	21.598	795.614	617.841
391.175	21.716	794.960	617.692
392.190	22.185	795.072	619.379
393.205	22.014	794.738	618.463
394.219	21.261	792.781	614.236
395.234	19.608	791.062	607.048
396.248	19.154	789.904	604.511
397.263	20.222	790.641	608.772
398.278	21.850	792.205	615.642
399.292	22.352	791.723	616.974
400.307	21.963	790.722	614.776
401.321	22.029	790.513	614.792
402.336	21.994	790.298	614.448
403.350	22.258	790.085	615.148
404.365	22.577	790.084	616.211
405.380	22.857	790.032	617.093
406.394	23.080	790.123	617.888
407.409	23.319	789.400	618.103
408.423	23.150	788.852	617.031
409.438	23.208	787.925	616.454
410.453	23.036	787.687	615.612
411.467	23.335	787.448	616.414
412.482	23.091	786.802	615.005
413.496	23.143	786.160	614.629
414.511	23.106	785.915	614.253
415.526	23.184	785.608	614.230
416.540	23.202	785.555	614.197
417.555	23.315	784.370	613.607
418.569	22.983	783.887	612.026
419.584	22.907	783.274	611.230
420.599	22.879	782.841	610.743
421.613	158.367	1363.089	1799.880
422.628	136.957	1447.613	1799.953
