DTS Sentinel unit serial number:	SN413079Multiplexer serial number:	ORYXHardware model number:	OX4-SRSoftware version number:	ORYX F/W v4.00 Oryx Data Collector v3.7.2.0data status	okinstallation	princeton_trtdifferential loss correction	single-endedforward channel	channel 3reverse channel	N/Adate	2019/09/11time	10:54:11forward acquisition time	60.00reverse acquisition time	0.00gamma	496.2192k internal	0.2296k external	0.2296temperature offset calibration	0.9940default loss term (dB/km)	0.3790temperature slope calibration	1.0000multiplexer offset coefficient	1.0000multiplexer slope coefficient	1.0000fibre end	0.00T internal ref (°C)	37.05T ext. ref 1 (°C)	0.18T ext. ref 2 (°C)	34.16length (m)	temperature (°C)	Stokes	anti-Stokes-747.200	-156.252	-0.370	-0.024
-746.185	-75.244	-0.092	-0.033
-745.171	-164.962	0.227	0.010
-744.156	-148.525	0.090	-0.008
-743.142	19.750	0.111	0.091
-742.127	800.000	0.146	0.420
-741.112	577.085	-0.150	-0.376
-740.098	-200.000	0.007	0.275
-739.083	144.984	-0.102	0.140
-738.069	-200.000	-0.049	0.243
-737.054	-200.000	0.024	-0.184
-736.039	-57.800	-0.067	0.030
-735.025	800.000	0.014	0.039
-734.010	-40.351	0.518	0.275
-732.996	147.781	0.164	-0.226
-731.981	-92.703	-0.200	-0.057
-730.966	19.570	-0.220	-0.181
-729.952	514.357	0.145	-0.345
-728.937	-154.761	0.285	0.019
-727.923	-116.004	0.432	-0.082
-726.908	-176.044	-0.522	-0.014
-725.894	-99.979	-0.279	0.071
-724.879	-186.818	0.124	0.002
-723.864	101.461	-0.041	-0.048
-722.850	-73.376	-0.109	-0.041
-721.835	-59.565	-0.203	-0.089
-720.821	-57.245	0.340	-0.153
-719.806	468.470	-0.051	-0.116
-718.791	174.162	0.050	0.074
-717.777	161.301	0.193	0.275
-716.762	528.267	-0.087	-0.210
-715.748	586.427	-0.110	0.277
-714.733	236.281	-0.017	0.029
-713.718	800.000	0.020	-0.090
-712.704	800.000	-0.115	-0.330
-711.689	-91.839	0.135	0.039
-710.675	-200.000	0.040	0.383
-709.660	205.695	0.070	-0.111
-708.645	-77.713	0.192	-0.068
-707.631	-121.305	-0.183	-0.031
-706.616	83.204	-0.075	-0.084
-705.602	-25.622	-0.090	-0.054
-704.587	-125.769	0.224	0.035
-703.572	89.760	-0.236	-0.269
-702.558	-189.855	0.204	0.002
-701.543	28.616	0.055	-0.047
-700.529	-200.000	-0.584	0.000
-699.514	-158.832	0.245	0.014
-698.499	-150.102	-0.038	-0.003
-697.485	82.214	0.196	0.216
-696.470	-160.419	0.233	0.013
-695.456	800.000	0.093	0.400
-694.441	800.000	-0.039	0.166
-693.426	31.686	0.134	0.118
-692.412	-200.000	-0.067	0.310
-691.397	-136.331	-0.383	-0.045
-690.383	-200.000	0.041	0.250
-689.368	379.475	0.247	0.515
-688.354	-137.409	-0.246	0.028
-687.339	134.597	-0.040	-0.053
-686.324	-41.899	0.105	-0.055
-685.310	128.449	0.078	-0.102
-684.295	245.195	0.096	0.165
-683.281	-158.755	0.208	-0.012
-682.266	55.350	0.250	0.246
-681.251	-200.000	-0.052	-0.256
-680.237	259.254	-0.076	-0.133
-679.222	36.224	0.167	-0.150
-678.208	254.444	0.067	0.117
-677.193	277.693	-0.163	0.295
-676.178	800.000	0.091	0.322
-675.164	8.235	0.038	-0.029
-674.149	-200.000	0.078	-0.369
-673.135	10.524	0.063	-0.049
-672.120	-140.698	0.038	0.004
-671.105	147.195	0.151	0.206
-670.091	123.503	0.264	0.337
-669.076	446.593	0.056	-0.124
-668.062	-200.000	0.001	0.091
-667.047	126.165	0.135	-0.175
-666.032	-76.646	-0.024	0.009
-665.018	-35.871	-0.141	0.078
-664.003	-128.343	-0.156	-0.023
-662.989	19.111	-0.187	-0.153
-661.974	-135.633	-0.172	0.021
-660.959	-200.000	0.024	-0.133
-659.945	800.000	0.089	-0.335
-658.930	-200.000	0.025	-0.264
-657.916	-200.000	0.011	0.252
-656.901	455.110	0.082	-0.186
-655.886	-76.069	-0.117	0.042
-654.872	-191.381	-0.168	-0.002
-653.857	364.323	-0.056	0.114
-652.843	288.595	-0.102	0.188
-651.828	154.300	0.152	-0.212
-650.814	26.026	-0.145	0.123
-649.799	63.940	-0.153	-0.156
-648.784	-22.638	-0.317	-0.195
-647.770	-45.633	0.291	0.147
-646.755	-200.000	-0.001	0.029
-645.741	-200.000	-0.016	0.297
-644.726	800.000	0.022	0.097
-643.711	800.000	0.015	0.057
-642.697	800.000	0.106	-0.314
-641.682	36.846	0.190	0.171
-640.668	13.798	-0.101	0.080
-639.653	-200.000	0.014	-0.139
-638.638	345.197	0.151	0.301
-637.624	-89.742	-0.181	-0.054
-636.609	23.625	-0.058	-0.049
-635.595	-38.540	0.097	0.052
-634.580	790.057	-0.050	-0.140
-633.565	-200.000	0.029	0.233
-632.551	32.308	0.138	-0.122
-631.536	-74.445	-0.160	-0.059
-630.522	112.368	0.171	-0.211
-629.507	57.740	-0.320	0.319
-628.492	107.940	-0.075	-0.091
-627.478	425.984	-0.064	-0.140
-626.463	-168.064	0.242	-0.010
-625.449	225.093	-0.200	-0.330
-624.434	-45.729	-0.342	0.172
-623.419	249.683	-0.027	-0.047
-622.405	-86.649	0.093	-0.029
-621.390	-95.517	-0.446	0.122
-620.376	800.000	-0.037	-0.111
-619.361	73.592	-0.121	0.129
-618.346	-80.495	0.461	0.156
-617.332	-40.062	-0.391	-0.207
-616.317	612.208	0.073	-0.185
-615.303	-27.249	0.224	-0.132
-614.288	-121.759	-0.111	0.019
-613.273	390.247	-0.005	-0.010
-612.259	-108.704	0.127	0.028
-611.244	72.248	0.146	-0.155
-610.230	-61.187	-0.131	-0.056
-609.215	237.943	0.133	-0.225
-608.201	-110.685	-0.387	0.081
-607.186	800.000	0.084	0.290
-606.171	104.400	0.181	0.217
-605.157	-34.391	0.251	-0.140
-604.142	560.885	-0.142	-0.348
-603.128	476.225	0.121	0.279
-602.113	494.899	0.117	-0.274
-601.098	800.000	-0.069	0.272
-600.084	-57.602	0.019	-0.008
-599.069	186.382	0.187	-0.283
-598.055	-92.812	0.157	-0.045
-597.040	800.000	0.040	-0.154
-596.025	202.676	-0.156	0.244
-595.011	-200.000	-0.012	-0.102
-593.996	-200.000	0.013	-0.083
-592.982	-176.412	0.202	0.005
-591.967	-200.000	0.022	-0.337
-590.952	3.892	0.387	0.288
-589.938	-200.000	0.019	0.237
-588.923	-200.000	-0.057	-0.309
-587.909	-200.000	0.015	0.178
-586.894	-200.000	0.053	-0.319
-585.879	-79.825	-0.134	-0.046
-584.865	39.040	0.139	-0.126
-583.850	-200.000	-0.021	-0.343
-582.836	-22.885	-0.137	-0.084
-581.821	33.721	-0.101	-0.090
-580.806	405.132	0.129	-0.277
-579.792	166.763	-0.044	-0.063
-578.777	152.399	0.168	0.234
-577.763	800.000	-0.054	-0.154
-576.748	177.024	0.057	-0.084
-575.733	800.000	0.054	0.227
-574.719	205.545	-0.148	0.233
-573.704	-99.358	0.086	0.022
-572.690	-136.896	-0.319	0.037
-571.675	-86.636	0.113	-0.035
-570.661	-40.491	0.050	-0.026
-569.646	11.092	-0.201	-0.156
-568.631	215.036	-0.138	-0.223
-567.617	-200.000	0.022	0.239
-566.602	-28.697	-0.193	0.113
-565.588	32.853	-0.184	0.161
-564.573	185.633	-0.116	-0.175
-563.558	-62.206	0.144	-0.061
-562.544	0.451	-0.157	-0.114
-561.529	-50.939	-0.143	0.068
-560.515	62.529	-0.098	0.099
-559.500	-200.000	-0.007	0.333
-558.485	-139.655	0.241	0.026
-557.471	-200.000	-0.014	-0.142
-556.456	83.824	0.043	-0.047
-555.442	800.000	0.080	-0.342
-554.427	-20.819	0.164	-0.102
-553.412	51.999	-0.275	-0.266
-552.398	77.380	0.256	-0.276
-551.383	800.000	-0.051	-0.219
-550.369	-122.512	0.190	0.031
-549.354	133.098	0.141	0.184
-548.339	-46.923	-0.084	0.042
-547.325	-47.976	-0.048	0.023
-546.310	800.000	-0.055	-0.178
-545.296	49.288	0.082	-0.078
-544.281	-178.839	-0.297	-0.007
-543.266	134.042	-0.054	0.071
-542.252	-143.497	0.333	-0.032
-541.237	-129.483	0.278	0.039
-540.223	-23.775	-0.237	-0.144
-539.208	-98.779	-0.289	0.074
-538.193	497.153	0.067	0.156
-537.179	-200.000	-0.016	0.180
-536.164	453.573	0.017	0.039
-535.150	-176.389	0.235	-0.006
-534.135	61.214	0.020	-0.021
-533.121	38.262	-0.115	0.103
-532.106	-145.266	-0.280	0.026
-531.091	136.508	0.132	-0.174
-530.077	233.498	-0.035	0.059
-529.062	-200.000	-0.026	-0.239
-528.048	611.600	-0.114	-0.289
-527.033	-200.000	-0.033	0.200
-526.018	16.204	0.211	-0.169
-525.004	377.018	-0.058	0.119
-523.989	227.847	-0.046	-0.076
-522.975	-114.614	0.088	-0.017
-521.960	-200.000	0.004	-0.060
-520.945	-144.995	-0.566	-0.052
-519.931	-87.140	-0.186	0.057
-518.916	301.413	0.070	0.130
-517.902	370.894	-0.117	-0.240
-516.887	800.000	-0.083	0.248
-515.872	23.386	0.133	-0.111
-514.858	-172.869	0.116	-0.004
-513.843	136.812	-0.096	0.126
-512.829	-76.081	0.420	0.150
-511.814	-69.045	0.084	-0.033
-510.799	-69.530	-0.511	-0.198
-509.785	-40.823	-0.095	0.050
-508.770	327.318	0.046	-0.088
-507.756	-145.300	-0.261	-0.024
-506.741	-15.400	-0.091	-0.059
-505.726	296.691	0.148	-0.276
-504.712	-64.076	-0.265	-0.110
-503.697	43.406	0.096	0.088
-502.683	2.671	-0.264	-0.194
-501.668	-171.066	0.221	-0.008
-500.653	270.113	0.120	-0.214
-499.639	538.394	0.045	0.109
-498.624	-31.977	-0.078	0.044
-497.610	-118.662	-0.146	0.026
-496.595	18.215	0.219	0.177
-495.581	427.884	0.074	-0.163
-494.566	800.000	0.141	-0.429
-493.551	-200.000	0.063	-0.472
-492.537	-49.527	-0.137	-0.066
-491.522	213.699	-0.021	-0.033
-490.508	800.000	-0.065	0.197
-489.493	25.104	-0.110	-0.092
-488.478	120.210	0.289	-0.362
-487.464	-108.968	-0.174	-0.038
-486.449	76.211	-0.274	-0.293
-485.435	64.560	0.230	0.235
-484.420	-61.440	0.124	0.053
-483.405	-6.611	-0.096	0.066
-482.391	89.399	0.253	0.286
-481.376	800.000	-0.074	0.292
-480.362	800.000	0.067	0.281
-479.347	147.369	-0.122	-0.167
-478.332	50.481	-0.322	-0.308
-477.318	-77.164	-0.163	-0.057
-476.303	35.867	-0.045	-0.040
-475.289	72.611	0.083	0.088
-474.274	-88.585	0.301	0.091
-473.259	-0.494	0.183	-0.132
-472.245	-44.037	0.197	-0.100
-471.230	800.000	0.103	0.429
-470.216	-62.859	0.383	0.160
-469.201	-153.046	-0.469	0.033
-468.186	-200.000	0.001	-0.195
-467.172	35.532	0.137	-0.122
-466.157	-31.538	0.306	-0.174
-465.143	-69.095	-0.110	0.043
-464.128	-200.000	0.018	-0.137
-463.113	478.746	0.055	0.126
-462.099	-200.000	-0.001	0.021
-461.084	-24.482	0.313	0.188
-460.070	156.025	-0.045	0.063
-459.055	105.194	-0.043	-0.052
-458.040	607.543	-0.030	0.076
-457.026	-57.371	-0.300	-0.133
-456.011	800.000	-0.020	-0.059
-454.997	784.426	0.081	0.223
-453.982	-4.006	-0.148	-0.103
-452.968	800.000	0.032	-0.096
-451.953	-200.000	0.003	-0.033
-450.938	-200.000	-0.005	0.257
-449.924	105.876	-0.103	0.123
-448.909	39.081	0.207	0.187
-447.895	-135.626	0.224	0.027
-446.880	800.000	-0.019	0.077
-445.865	-123.449	-0.136	0.022
-444.851	-200.000	0.030	-0.294
-443.836	-200.000	-0.044	0.229
-442.822	800.000	0.121	0.388
-441.807	208.364	-0.085	0.135
-440.792	-200.000	0.000	-0.207
-439.778	258.052	-0.069	-0.121
-438.763	-200.000	0.019	-0.411
-437.749	-200.000	0.034	-0.193
-436.734	288.687	0.234	-0.429
-435.719	-127.640	-0.170	0.025
-434.705	-200.000	-0.012	0.484
-433.690	25.955	-0.130	-0.110
-432.676	312.046	0.107	0.203
-431.661	221.392	-0.056	0.092
-430.646	-42.644	-0.180	-0.092
-429.632	800.000	-0.126	-0.521
-428.617	-86.418	-0.283	-0.088
-427.603	518.300	0.104	0.246
-426.588	-200.000	0.017	0.206
-425.573	513.134	-0.204	0.480
-424.559	-175.401	0.096	0.003
-423.544	-200.000	0.007	0.042
-422.530	424.760	-0.123	0.267
-421.515	-71.762	0.108	0.041
-420.500	414.413	-0.061	0.132
-419.486	-174.098	-0.419	0.012
-418.471	-38.418	0.359	-0.192
-417.457	-200.000	0.052	-0.261
-416.442	-153.516	-0.136	0.009
-415.428	-90.049	-0.217	-0.064
-414.413	443.380	-0.074	-0.164
-413.398	800.000	-0.026	-0.105
-412.384	-66.152	-0.113	-0.046
-411.369	-32.720	0.103	-0.058
-410.355	-49.929	-0.097	0.046
-409.340	-200.000	-0.000	-0.024
-408.325	-42.174	-0.435	-0.224
-407.311	-186.551	0.230	0.003
-406.296	-200.000	0.020	-0.167
-405.282	-30.253	-0.109	0.062
-404.267	-117.480	-0.106	0.019
-403.252	-200.000	0.003	-0.222
-402.238	230.849	-0.032	0.053
-401.223	-164.638	0.145	-0.007
-400.209	30.540	0.167	0.144
-399.194	215.800	0.095	0.152
-398.179	-69.362	-0.050	-0.019
-397.165	-34.036	0.350	-0.194
-396.150	282.776	0.084	0.152
-395.136	202.197	0.075	-0.116
-394.121	235.953	-0.154	-0.256
-393.106	17.100	-0.071	0.057
-392.092	-200.000	-0.013	0.346
-391.077	-27.618	0.224	-0.131
-390.063	322.506	0.165	0.317
-389.048	-96.008	0.166	-0.045
-388.033	56.586	0.107	-0.104
-387.019	220.159	0.036	-0.058
-386.004	-47.501	-0.105	-0.051
-384.990	-200.000	0.005	-0.115
-383.975	-86.251	0.287	0.089
-382.960	-145.026	-0.245	-0.023
-381.946	263.438	0.142	0.249
-380.931	800.000	-0.025	0.083
-379.917	-23.579	-0.148	-0.089
-378.902	70.065	0.257	0.267
-377.888	117.520	0.077	0.096
-376.873	-35.054	0.224	-0.123
-375.858	800.000	0.081	-0.229
-374.844	262.155	-0.145	-0.253
-373.829	-141.345	0.162	0.017
-372.815	-79.386	0.327	0.111
-371.800	-188.987	-0.341	0.004
-370.785	800.000	-0.033	0.114
-369.771	-14.897	-0.096	-0.062
-368.756	-200.000	0.040	0.219
-367.742	92.361	0.015	-0.017
-366.727	-78.630	-0.138	0.047
-365.712	-67.602	0.252	0.099
-364.698	690.472	0.045	0.119
-363.683	-56.534	-0.083	0.037
-362.669	4.631	0.353	-0.261
-361.654	800.000	-0.009	0.028
-360.639	-83.105	-0.220	-0.071
-359.625	103.265	-0.225	0.265
-358.610	61.949	-0.170	0.170
-357.596	-89.222	0.424	-0.126
-356.581	-111.088	-0.329	0.068
-355.566	601.579	0.099	0.247
-354.552	-66.789	-0.258	-0.103
-353.537	-60.047	0.083	-0.036
-352.523	307.906	-0.162	0.304
-351.508	-6.436	0.100	0.069
-350.493	-21.319	0.107	-0.066
-349.479	-200.000	-0.015	-0.110
-348.464	74.829	0.065	0.069
-347.450	-173.955	0.111	-0.003
-346.435	-127.957	-0.179	0.026
-345.420	63.975	0.341	0.345
-344.406	549.361	0.017	-0.041
-343.391	-67.741	-0.483	-0.190
-342.377	-200.000	0.017	0.107
-341.362	7.701	-0.023	-0.018
-340.348	297.809	-0.275	0.509
-339.333	-114.451	0.339	0.066
-338.318	260.632	0.162	0.283
-337.304	800.000	-0.033	-0.112
-336.289	-175.533	0.270	-0.007
-335.275	68.447	-0.111	0.114
-334.260	767.656	-0.066	-0.181
-333.245	15.332	-0.261	0.206
-332.231	88.247	0.059	0.065
-331.216	228.235	0.179	0.292
-330.202	142.660	-0.128	0.171
-329.187	159.676	0.137	0.191
-328.172	415.351	-0.094	0.200
-327.158	135.968	0.214	0.280
-326.143	58.267	0.114	0.112
-325.129	315.504	0.174	0.331
-324.114	-102.841	-0.423	-0.101
-323.099	-200.000	0.033	-0.254
-322.085	-119.565	-0.207	0.036
-321.070	-52.129	0.304	0.142
-320.056	800.000	-0.116	0.370
-319.041	102.589	0.172	0.202
-318.026	24.004	0.252	0.209
-317.012	-200.000	0.021	-0.106
-315.997	-200.000	0.052	0.275
-314.983	-96.126	-0.206	0.055
-313.968	-117.148	-0.178	0.033
-312.953	16.391	-0.188	-0.149
-311.939	-200.000	0.002	0.159
-310.924	-6.988	-0.028	0.019
-309.910	310.691	-0.028	-0.053
-308.895	-200.000	0.015	-0.115
-307.880	606.942	0.155	0.388
-306.866	800.000	-0.025	0.099
-305.851	-43.926	0.217	-0.110
-304.837	-13.221	-0.239	-0.156
-303.822	-23.709	0.079	0.047
-302.807	-26.416	-0.089	-0.052
-301.793	-29.985	-0.080	-0.046
-300.778	15.345	-0.248	-0.195
-299.764	-125.679	-0.234	0.036
-298.749	149.315	-0.064	-0.088
-297.735	315.277	-0.074	0.139
-296.720	800.000	-0.097	0.281
-295.705	-146.684	0.388	0.034
-294.691	-86.186	-0.221	-0.069
-293.676	47.326	-0.181	-0.169
-292.662	17.936	-0.155	-0.124
-291.647	-200.000	-0.020	-0.379
-290.632	-113.812	-0.417	0.082
-289.618	454.642	0.113	-0.251
-288.603	-194.547	-0.370	0.003
-287.589	-45.336	0.147	0.073
-286.574	-60.198	0.163	-0.070
-285.559	-116.496	-0.180	-0.033
-284.545	454.731	0.139	0.308
-283.530	251.371	0.075	0.128
-282.516	-65.120	-0.178	-0.072
-281.501	800.000	0.094	-0.346
-280.486	290.683	-0.177	-0.323
-279.472	65.332	-0.115	0.117
-278.457	-54.278	-0.302	0.137
-277.443	12.511	-0.188	0.145
-276.428	800.000	0.010	-0.033
-275.413	149.343	0.076	0.103
-274.399	-166.810	0.108	-0.004
-273.384	-110.094	0.377	0.079
-272.370	580.440	-0.095	-0.233
-271.355	-144.974	0.222	0.020
-270.340	-41.303	0.260	0.135
-269.326	9.947	0.224	0.171
-268.311	-55.820	0.083	0.037
-267.297	-200.000	0.024	0.143
-266.282	-107.060	-0.154	-0.034
-265.267	21.262	-0.325	-0.264
-264.253	-19.700	0.066	0.041
-263.238	-112.439	-0.072	-0.014
-262.224	-165.604	-0.058	0.003
-261.209	-60.168	-0.079	-0.034
-260.195	-150.307	-0.410	-0.032
-259.180	-200.000	0.058	0.302
-258.165	622.067	-0.060	-0.150
-257.151	-161.185	0.050	-0.003
-256.136	27.783	0.094	-0.080
-255.122	-159.112	-0.321	-0.018
-254.107	-1.607	0.112	0.079
-253.092	410.917	-0.088	-0.188
-252.078	-147.813	-0.039	-0.003
-251.063	5.602	0.091	-0.067
-250.049	-15.626	0.292	0.187
-249.034	-119.696	0.405	0.070
-248.019	-200.000	-0.041	0.183
-247.005	800.000	-0.015	-0.064
-245.990	-64.651	0.329	0.134
-244.976	-134.152	-0.120	-0.015
-243.961	41.877	-0.084	-0.076
-242.946	-79.034	-0.105	-0.036
-241.932	266.073	-0.103	0.181
-240.917	800.000	-0.049	0.169
-239.903	96.991	0.050	0.057
-238.888	-100.739	-0.128	-0.032
-237.873	800.000	-0.044	0.143
-236.859	-200.000	-0.020	0.217
-235.844	-82.564	-0.276	-0.090
-234.830	-35.814	-0.215	0.116
-233.815	-200.000	0.001	-0.125
-232.800	-30.027	-0.042	0.024
-231.786	-200.000	-0.025	0.213
-230.771	-144.646	0.198	0.018
-229.757	800.000	-0.040	0.139
-228.742	239.568	-0.117	-0.194
-227.727	203.920	0.205	0.318
-226.713	-73.653	-0.235	-0.086
-225.698	800.000	0.066	0.214
-224.684	-200.000	0.034	0.188
-223.669	20.840	-0.103	-0.084
-222.655	199.743	0.257	0.395
-221.640	91.166	-0.142	-0.159
-220.625	97.375	0.115	-0.133
-219.611	-32.628	-0.164	0.091
-218.596	428.881	-0.187	-0.403
-217.582	-156.956	0.237	0.015
-216.567	319.678	0.114	0.216
-215.552	-52.492	0.284	0.131
-214.538	-200.000	-0.008	-0.221
-213.523	800.000	-0.041	0.125
-212.509	-32.511	0.132	0.074
-211.494	800.000	0.034	0.116
-210.479	-44.736	0.105	0.053
-209.465	-98.576	-0.218	-0.056
-208.450	-67.357	0.288	-0.113
-207.436	-93.383	0.128	0.035
-206.421	27.355	-0.128	-0.107
-205.406	-123.351	-0.103	-0.016
-204.392	363.686	-0.178	-0.357
-203.377	-53.704	0.185	0.084
-202.363	-125.006	-0.141	-0.022
-201.348	-200.000	-0.003	-0.089
-200.333	-2.396	0.385	0.270
-199.319	800.000	0.133	0.421
-198.304	-4.753	0.154	-0.106
-197.290	800.000	-0.018	-0.049
-196.275	28.957	-0.210	0.178
-195.260	-200.000	0.031	-0.277
-194.246	800.000	-0.122	-0.385
-193.231	25.040	0.098	-0.082
-192.217	-39.094	0.186	-0.098
-191.202	-154.268	0.222	0.015
-190.187	-200.000	-0.008	-0.111
-189.173	408.482	-0.099	-0.210
-188.158	573.911	0.056	0.136
-187.144	-200.000	0.039	-0.194
-186.129	127.810	-0.189	0.240
-185.114	199.452	0.070	0.108
-184.100	534.670	-0.116	-0.274
-183.085	-200.000	-0.044	-0.243
-182.071	-200.000	-0.039	-0.212
-181.056	-200.000	-0.037	-0.267
-180.042	87.336	0.185	0.205
-179.027	-57.906	0.138	-0.060
-178.012	-200.000	0.032	0.188
-176.998	800.000	0.052	-0.215
-175.983	463.685	-0.083	-0.185
-174.969	-62.601	-0.084	-0.035
-173.954	-200.000	0.057	0.464
-172.939	-6.358	0.162	-0.110
-171.925	28.758	0.082	0.069
-170.910	-31.095	-0.153	-0.086
-169.896	-164.248	-0.404	0.019
-168.881	-141.503	0.240	-0.024
-167.866	-102.940	0.187	-0.044
-166.852	201.298	0.108	-0.167
-165.837	-82.659	0.360	0.116
-164.823	-200.000	0.045	-0.255
-163.808	216.100	0.055	-0.087
-162.793	800.000	-0.066	-0.231
-161.779	-191.663	0.258	0.003
-160.764	-157.920	0.081	-0.005
-159.750	613.530	0.089	0.222
-158.735	-61.893	0.335	0.140
-157.720	-164.744	-0.184	-0.008
-156.706	200.050	0.086	-0.132
-155.691	394.883	0.068	0.142
-154.677	34.090	0.191	0.166
-153.662	-167.731	-0.144	0.006
-152.647	-112.189	-0.215	0.043
-151.633	-200.000	0.062	-0.359
-150.618	800.000	0.038	-0.113
-149.604	-24.278	-0.337	-0.201
-148.589	152.889	-0.084	0.114
-147.574	-200.000	-0.045	0.416
-146.560	-200.000	0.010	0.173
-145.545	-200.000	0.103	-0.490
-144.531	101.773	0.049	0.058
-143.516	114.819	-0.041	-0.050
-142.502	425.929	-0.033	0.070
-141.487	-139.019	-0.096	0.010
-140.472	-50.940	-0.107	0.050
-139.458	1.527	0.235	0.169
-138.443	-14.517	0.161	0.103
-137.429	-107.014	-0.239	0.053
-136.414	-112.031	-0.231	0.046
-135.399	-121.115	-0.316	-0.053
-134.385	-139.439	0.262	-0.028
-133.370	315.521	-0.133	0.250
-132.356	-56.543	0.391	-0.173
-131.341	-200.000	0.044	-0.228
-130.326	-200.000	0.015	-0.095
-129.312	-200.000	-0.059	0.380
-128.297	-200.000	0.064	0.350
-127.283	800.000	0.070	0.288
-126.268	522.972	-0.182	0.426
-125.253	168.804	0.220	-0.313
-124.239	800.000	-0.175	-0.543
-123.224	-104.548	0.573	-0.132
-122.210	355.684	-0.114	-0.226
-121.195	-103.486	0.354	0.083
-120.180	800.000	0.082	0.288
-119.166	58.744	-0.255	-0.250
-118.151	-30.401	-0.192	-0.109
-117.137	-130.367	0.279	0.038
-116.122	-200.000	-0.017	0.084
-115.107	800.000	-0.141	0.396
-114.093	284.388	0.131	0.235
-113.078	259.578	0.113	0.194
-112.064	368.894	-0.171	0.345
-111.049	-152.427	0.377	0.027
-110.034	10.112	0.291	-0.221
-109.020	-200.000	0.093	-0.000
-108.005	-200.000	0.003	-0.088
-106.991	-3.038	-0.095	-0.066
-105.976	-85.783	-0.198	0.061
-104.962	-99.468	-0.148	-0.037
-103.947	567.179	0.123	0.298
-102.932	-130.173	0.411	-0.056
-101.918	-200.000	-0.004	-0.052
-100.903	228.826	-0.236	0.384
-99.889	-11.258	-0.160	0.105
-98.874	-200.000	0.024	-0.359
-97.859	122.236	-0.186	0.232
-96.845	-135.261	0.487	0.058
-95.830	72.944	0.011	-0.011
-94.816	130.489	-0.098	-0.125
-93.801	-94.430	0.495	-0.135
-92.786	-184.375	-0.179	-0.003
-91.772	-200.000	0.004	0.308
-90.757	452.625	-0.156	0.343
-89.743	800.000	-0.058	-0.233
-88.728	-157.052	0.235	0.014
-87.713	61.258	0.160	0.158
-86.699	465.900	-0.117	0.260
-85.684	-14.720	0.016	-0.011
-84.670	-37.669	-0.272	0.144
-83.655	-150.822	0.127	0.010
-82.640	16.009	0.183	-0.144
-81.626	800.000	0.120	0.446
-80.611	42.109	0.108	-0.097
-79.597	800.000	-0.085	0.296
-78.582	800.000	0.068	-0.261
-77.567	-10.752	0.016	0.010
-76.553	-20.616	-0.090	-0.055
-75.538	-200.000	0.003	-0.087
-74.524	-200.000	-0.076	0.356
-73.509	-108.026	0.097	0.021
-72.494	-48.254	-0.083	0.040
-71.480	106.416	0.120	0.142
-70.465	134.093	-0.148	0.191
-69.451	21.251	-0.327	0.264
-68.436	-52.850	0.073	0.033
-67.422	-72.061	-0.204	0.075
-66.407	461.841	0.084	-0.186
-65.392	-141.559	-0.074	0.007
-64.378	-200.000	-0.015	0.106
-63.363	-200.000	-0.046	-0.257
-62.349	-54.638	-0.270	0.121
-61.334	127.249	-0.718	-0.906
-60.319	-90.348	0.666	0.192
-59.305	-200.000	-0.183	-1.065
-58.290	550.541	0.351	0.837
-57.276	392.821	0.747	1.545
-56.261	-200.000	86.168	509.547
-55.246	551.880	1379.020	3293.709
-54.232	182.373	2613.811	3832.536
-53.217	117.222	2258.193	2760.568
-52.203	46.837	1785.137	1649.913
-51.188	40.026	1591.589	1422.188
-50.173	37.680	1563.553	1380.472
-49.159	54.393	1607.403	1539.570
-48.144	58.081	1626.818	1584.612
-47.130	40.534	1587.229	1421.711
-46.115	37.311	1571.876	1384.972
-45.100	37.137	1568.435	1380.648
-44.086	37.092	1566.510	1378.575
-43.071	37.043	1564.549	1376.449
-42.057	37.091	1562.469	1374.907
-41.042	37.097	1561.166	1373.742
-40.027	37.023	1559.793	1371.959
-39.013	37.027	1558.312	1370.634
-37.998	37.006	1557.212	1369.457
-36.984	37.090	1555.706	1368.671
-35.969	37.087	1554.340	1367.394
-34.954	36.969	1553.304	1365.598
-33.940	37.075	1551.394	1364.614
-32.925	37.089	1549.739	1363.198
-31.911	37.033	1548.912	1362.027
-30.896	37.080	1547.375	1360.947
-29.881	37.168	1545.884	1360.204
-28.867	37.109	1544.570	1358.575
-27.852	37.073	1543.741	1357.541
-26.838	37.137	1541.440	1355.913
-25.823	37.111	1539.934	1354.354
-24.809	37.108	1538.205	1352.759
-23.794	37.058	1537.157	1351.437
-22.779	36.988	1536.304	1350.140
-21.765	37.157	1534.384	1349.579
-20.750	37.032	1533.678	1348.037
-19.736	37.157	1532.256	1347.597
-18.721	37.081	1531.470	1346.328
-17.706	37.080	1530.164	1345.118
-16.692	37.118	1528.971	1344.281
-15.677	36.973	1528.427	1342.746
-14.663	37.013	1527.038	1341.748
-13.648	37.060	1525.988	1341.093
-12.633	37.009	1524.887	1339.722
-11.619	37.014	1524.282	1339.172
-10.604	37.010	1523.156	1338.102
-9.590	36.936	1522.570	1337.020
-8.575	37.022	1521.484	1336.612
-7.560	37.093	1520.164	1335.885
-6.546	36.961	1519.718	1334.533
-5.531	36.910	1518.949	1333.455
-4.517	36.963	1517.929	1332.868
-3.502	36.894	1517.129	1331.636
-2.487	36.934	1515.613	1330.530
-1.473	36.955	1514.547	1329.684
-0.458	36.973	1513.237	1328.604
0.556	35.394	1503.431	1319.125
1.571	33.032	1476.938	1279.784
2.586	30.021	1414.696	1206.169
3.600	28.472	1330.861	1125.094
4.615	26.629	1283.242	1073.827
5.629	21.954	1222.611	996.522
6.644	10.384	1128.512	858.752
7.659	1.536	1082.594	778.586
8.673	0.457	1076.190	768.418
9.688	0.070	1073.582	764.518
10.702	0.064	1071.621	763.026
11.717	0.129	1069.853	762.029
12.731	4.022	1074.835	785.282
13.746	14.554	1091.099	851.083
14.761	21.592	1099.905	893.946
15.775	22.191	1099.809	896.846
16.790	22.275	1099.044	896.572
17.804	21.926	1098.337	894.136
18.819	21.829	1097.005	892.478
19.834	21.941	1097.074	893.026
20.848	21.985	1096.529	892.728
21.863	22.015	1096.131	892.475
22.877	22.123	1095.198	892.187
23.892	22.060	1094.640	891.336
24.907	21.885	1093.980	889.832
25.921	21.911	1093.695	889.649
26.936	22.042	1092.511	889.274
27.950	22.052	1090.883	887.920
28.965	21.915	1090.200	886.593
29.980	21.842	1088.540	884.798
30.994	21.804	1087.056	883.319
32.009	21.885	1086.685	883.350
33.023	22.091	1085.751	883.546
34.038	21.831	1084.474	881.125
35.053	21.804	1083.747	880.320
36.067	22.065	1082.815	880.792
37.082	22.061	1082.042	880.069
38.096	22.066	1081.256	879.376
39.111	22.134	1080.594	879.100
40.126	22.303	1079.724	879.156
41.140	22.160	1078.473	877.349
42.155	21.830	1077.027	874.449
43.169	21.640	1075.794	872.423
44.184	21.733	1074.226	871.538
45.199	21.745	1073.127	870.627
46.213	21.604	1072.260	869.149
47.228	21.515	1071.408	867.941
48.242	21.807	1070.337	868.444
49.257	21.903	1069.771	868.381
50.271	21.946	1069.196	868.052
51.286	22.074	1068.635	868.150
52.301	22.112	1067.798	867.582
53.315	22.014	1067.435	866.724
54.330	21.984	1066.136	865.448
55.344	21.864	1065.489	864.256
56.359	21.940	1064.042	863.376
57.374	21.905	1063.786	862.922
58.388	21.762	1062.410	861.026
59.403	21.813	1061.578	860.528
60.417	21.755	1061.232	859.886
61.432	21.524	1060.454	858.046
62.447	21.666	1059.647	858.011
63.461	21.793	1058.755	857.834
64.476	21.851	1057.724	857.208
65.490	21.794	1057.055	856.310
66.505	21.728	1056.101	855.143
67.520	21.636	1055.075	853.784
68.534	21.777	1054.493	853.926
69.549	21.683	1053.673	852.729
70.563	21.434	1052.129	850.195
71.578	21.248	1051.646	848.825
72.593	21.310	1050.805	848.371
73.607	21.120	1049.659	846.447
74.622	21.113	1048.848	845.689
75.636	21.543	1047.924	846.948
76.651	21.602	1047.282	846.642
77.666	21.493	1045.993	844.997
78.680	21.385	1045.350	843.881
79.695	21.478	1044.694	843.728
80.709	21.569	1044.157	843.658
81.724	21.663	1043.154	843.224
82.739	21.666	1042.208	842.400
83.753	21.520	1041.777	841.272
84.768	21.776	1040.847	841.677
85.782	22.099	1040.783	843.103
86.797	22.268	1039.910	843.131
87.812	22.235	1038.979	842.141
88.826	22.098	1037.821	840.472
89.841	22.010	1037.439	839.672
90.855	22.244	1036.067	839.604
91.870	22.145	1035.645	838.715
92.884	22.295	1034.436	838.378
93.899	22.182	1033.584	837.073
94.914	21.930	1032.990	835.319
95.928	22.056	1031.956	835.009
96.943	22.183	1031.275	834.984
97.957	21.704	1030.580	832.077
98.972	21.548	1029.166	830.117
99.987	21.520	1027.481	828.553
101.001	21.484	1027.171	828.061
102.016	21.795	1026.892	829.235
103.030	21.886	1025.800	828.709
104.045	21.877	1024.430	827.486
105.060	21.737	1023.134	825.708
106.074	21.516	1022.164	823.809
107.089	21.609	1021.362	823.527
108.103	22.029	1021.028	825.159
109.118	22.047	1020.202	824.506
110.133	21.773	1018.959	822.143
111.147	21.754	1017.787	821.034
112.162	21.609	1016.705	819.409
113.176	21.431	1015.509	817.541
114.191	21.497	1014.955	817.334
115.206	21.598	1014.059	817.009
116.220	21.387	1012.334	814.566
117.235	21.255	1011.769	813.424
118.249	21.361	1011.264	813.441
119.264	21.276	1010.492	812.349
120.279	21.260	1009.485	811.397
121.293	21.317	1008.407	810.722
122.308	21.357	1007.786	810.337
123.322	21.407	1006.772	809.678
124.337	21.326	1005.989	808.603
125.352	21.293	1004.516	807.196
126.366	20.907	1002.633	803.829
127.381	20.535	1001.377	801.041
128.395	21.094	1000.969	803.214
129.410	21.903	1000.736	806.681
130.424	21.839	1000.153	805.843
131.439	21.895	998.814	804.949
132.454	21.946	997.943	804.414
133.468	21.859	997.155	803.305
134.483	21.746	996.436	802.137
135.497	21.851	995.300	801.632
136.512	22.009	995.007	802.047
137.527	22.071	994.284	801.679
138.541	22.159	993.358	801.260
139.556	22.124	992.936	800.692
140.570	22.214	991.676	800.012
141.585	22.184	990.622	798.956
142.600	22.286	990.018	798.861
143.614	22.166	988.873	797.323
144.629	22.194	988.199	796.837
145.643	22.398	987.531	797.151
146.658	22.368	986.529	796.137
147.673	22.185	985.134	794.112
148.687	22.016	983.923	792.304
149.702	22.038	983.225	791.773
150.716	21.884	982.040	790.055
151.731	21.806	980.988	788.786
152.746	22.010	980.006	788.842
153.760	22.108	979.719	788.983
154.775	22.223	978.864	788.738
155.789	22.291	978.171	788.418
156.804	22.361	977.134	787.824
157.819	22.203	975.953	786.095
158.833	22.208	975.244	785.477
159.848	22.370	974.612	785.621
160.862	22.478	973.882	785.446
161.877	22.253	972.857	783.549
162.892	22.209	971.632	782.297
163.906	22.311	971.306	782.417
164.921	22.289	970.328	781.464
165.935	22.251	969.200	780.316
166.950	22.240	967.924	779.170
167.964	22.229	967.151	778.433
168.979	22.364	965.671	777.767
169.994	22.117	964.967	776.044
171.008	21.949	964.136	774.562
172.023	22.026	963.325	774.184
173.037	22.205	962.695	774.396
174.052	22.195	961.229	773.105
175.067	21.854	960.184	770.698
176.081	22.023	959.186	770.570
177.096	22.136	958.780	770.673
178.110	22.095	957.437	769.343
179.125	21.838	956.905	767.726
180.140	21.658	955.856	766.025
181.154	21.601	955.268	765.239
182.169	21.730	954.492	765.114
183.183	21.956	953.873	765.534
184.198	22.247	953.955	766.803
185.213	22.067	953.125	765.284
186.227	22.108	952.548	764.932
187.242	22.191	952.120	764.881
188.256	22.166	951.310	764.052
189.271	22.155	950.417	763.222
190.286	22.397	949.394	763.380
191.300	22.206	948.623	761.868
192.315	21.752	947.187	758.680
193.329	21.023	945.624	754.210
194.344	20.609	944.563	751.507
195.359	21.139	944.826	753.943
196.373	22.019	944.790	757.646
197.388	22.195	944.712	758.273
198.402	22.113	944.105	757.367
199.417	22.038	943.539	756.523
200.432	22.035	943.107	756.096
201.446	21.976	942.168	755.023
202.461	21.729	941.177	753.101
203.475	21.794	940.867	753.067
204.490	21.421	939.502	750.308
205.504	20.192	937.608	743.463
206.519	20.685	937.459	745.392
207.534	21.562	937.490	749.105
208.548	21.689	937.335	749.456
209.563	22.029	937.110	750.666
210.577	22.140	935.936	750.132
211.592	21.804	935.417	748.218
212.607	22.093	935.191	749.201
213.621	22.347	935.008	750.070
214.636	22.191	933.906	748.459
215.650	22.414	933.203	748.778
216.665	22.324	932.845	748.040
217.680	22.147	932.593	747.019
218.694	22.226	931.963	746.782
219.709	22.055	930.536	744.847
220.723	21.545	929.977	742.173
221.738	21.813	929.393	742.779
222.753	22.035	928.961	743.307
223.767	22.095	927.655	742.449
224.782	22.234	926.832	742.312
225.796	22.323	926.446	742.310
226.811	22.335	926.213	742.109
227.826	21.996	924.833	739.513
228.840	21.263	923.322	735.156
229.855	21.049	923.087	734.001
230.869	21.474	922.195	735.012
231.884	21.025	921.237	732.301
232.899	21.101	921.035	732.394
233.913	21.877	920.916	735.491
234.928	22.187	920.272	736.211
235.942	21.965	920.037	735.026
236.957	22.014	919.160	734.464
237.972	21.664	918.480	732.393
238.986	21.668	917.440	731.517
240.001	21.731	916.930	731.308
241.015	21.750	916.435	730.930
242.030	21.842	915.686	730.651
243.045	21.860	915.411	730.441
244.059	22.020	914.609	730.399
245.074	22.062	914.657	730.548
246.088	22.223	913.264	730.039
247.103	21.762	912.550	727.493
248.117	21.799	912.020	727.161
249.132	22.285	911.527	728.716
250.147	22.553	911.774	729.957
251.161	22.724	911.009	729.990
252.176	22.901	910.297	730.087
253.190	22.947	909.996	729.971
254.205	22.913	909.269	729.183
255.220	23.181	908.708	729.772
256.234	23.178	907.931	729.073
257.249	22.912	907.576	727.627
258.263	22.798	906.608	726.317
259.278	22.818	906.254	726.054
260.293	22.924	905.325	725.678
261.307	23.023	904.756	725.566
262.322	22.959	904.234	724.820
263.336	22.905	903.335	723.812
264.351	22.232	902.166	720.056
265.366	21.040	900.441	713.743
266.380	20.846	898.796	711.581
267.395	21.689	899.341	715.397
268.409	22.593	899.464	719.118
269.424	22.410	898.890	717.851
270.439	22.629	898.643	718.484
271.453	22.836	897.619	718.444
272.468	22.770	896.981	717.600
273.482	22.814	896.777	717.553
274.497	23.149	896.237	718.418
275.512	22.878	894.901	716.184
276.526	22.260	893.956	712.859
277.541	22.307	893.755	712.827
278.555	22.852	893.576	714.829
279.570	22.628	892.094	712.676
280.585	22.295	891.984	711.177
281.599	22.520	891.179	711.382
282.614	22.526	890.812	711.051
283.628	22.178	889.775	708.755
284.643	21.824	888.997	706.647
285.657	22.219	888.623	707.880
286.672	22.168	887.862	707.004
287.687	21.788	886.626	704.433
288.701	22.063	886.856	705.655
289.716	22.316	886.574	706.385
290.730	22.194	885.334	704.845
291.745	21.974	884.579	703.300
292.760	21.811	883.413	701.659
293.774	21.768	882.935	701.047
294.789	22.537	883.512	704.519
295.803	23.251	883.666	707.432
296.818	23.250	883.024	706.852
297.833	23.347	882.740	706.951
298.847	23.100	881.220	704.686
299.862	22.811	880.217	702.670
300.876	23.023	879.809	703.125
301.891	23.205	879.700	703.702
302.906	23.533	878.804	704.223
303.920	22.921	877.925	701.030
304.935	22.818	877.060	699.870
305.949	23.059	877.253	700.917
306.964	23.078	876.912	700.658
307.979	22.972	876.236	699.636
308.993	22.999	875.096	698.770
310.008	23.337	875.195	700.124
311.022	23.415	875.110	700.302
312.037	23.232	874.050	698.667
313.052	22.950	873.614	697.145
314.066	22.770	872.939	695.838
315.081	22.392	870.969	692.719
316.095	21.502	870.087	688.455
317.110	22.081	870.015	690.614
318.125	23.007	870.607	694.663
319.139	22.517	869.487	691.783
320.154	21.497	867.342	686.018
321.168	20.911	866.831	683.257
322.183	21.528	866.732	685.536
323.197	22.577	867.173	689.936
324.212	22.680	866.534	689.765
325.227	23.025	866.102	690.712
326.241	23.081	865.800	690.626
327.256	22.984	865.172	689.687
328.270	22.834	864.539	688.534
329.285	22.754	863.783	687.559
330.300	22.639	863.438	686.779
331.314	22.480	862.286	685.184
332.329	22.713	861.372	685.301
333.343	23.006	860.940	686.033
334.358	23.070	861.459	686.637
335.373	23.188	860.521	686.285
336.387	23.224	859.847	685.824
337.402	23.403	859.322	686.038
338.416	23.556	859.105	686.396
339.431	23.477	858.449	685.505
340.446	23.525	857.945	685.228
341.460	23.904	857.446	686.234
342.475	23.842	857.086	685.643
343.489	23.452	856.187	683.363
344.504	23.517	855.578	683.066
345.519	23.618	855.425	683.271
346.533	23.912	855.013	684.015
347.548	24.012	854.430	683.871
348.562	24.055	853.962	683.599
349.577	23.927	853.566	682.734
350.592	23.884	852.733	681.843
351.606	23.818	852.435	681.291
352.621	23.860	851.651	680.762
353.635	23.846	851.102	680.211
354.650	23.717	850.731	679.360
355.665	23.460	849.156	677.061
356.679	22.360	847.925	671.823
357.694	22.171	847.403	670.630
358.708	22.811	847.474	673.066
359.723	22.710	846.881	672.151
360.738	22.975	846.790	673.028
361.752	23.538	846.581	674.948
362.767	23.535	846.251	674.611
363.781	23.697	846.260	675.177
364.796	24.128	845.849	676.426
365.810	24.299	845.448	676.694
366.825	24.222	844.903	675.907
367.840	24.260	844.782	675.895
368.854	23.947	844.114	674.112
369.869	23.631	842.871	671.866
370.883	23.570	842.277	671.103
371.898	23.742	841.581	671.136
372.913	23.611	841.073	670.177
373.927	23.586	840.390	669.481
374.942	23.696	840.138	669.635
375.956	23.841	839.251	669.414
376.971	23.892	838.595	669.026
377.986	23.994	838.384	669.180
379.000	24.231	837.860	669.592
380.015	24.230	837.095	668.919
381.029	24.003	836.640	667.646
382.044	23.956	836.334	667.165
383.059	24.185	835.387	667.209
384.073	24.092	835.101	666.571
385.088	24.140	834.389	666.123
386.102	24.240	833.972	666.109
387.117	24.022	833.180	664.601
388.132	23.856	832.970	663.756
389.146	23.797	831.413	662.237
390.161	23.166	830.882	659.403
391.175	23.246	830.675	659.480
392.190	23.785	830.614	661.379
393.205	23.991	829.935	661.545
394.219	22.926	828.219	656.165
395.234	21.447	825.612	648.564
396.248	20.728	824.834	645.231
397.263	21.573	826.004	649.225
398.278	23.417	827.132	656.893
399.292	23.755	827.131	658.086
400.307	23.473	826.789	656.712
401.321	23.499	825.797	655.962
402.336	23.468	825.688	655.704
403.350	23.800	825.689	656.873
404.365	24.289	825.435	658.421
405.380	24.593	825.350	659.415
406.394	24.922	824.718	660.064
407.409	25.127	824.435	660.536
408.423	24.921	824.064	659.421
409.438	24.915	823.134	658.596
410.453	24.849	822.959	658.155
411.467	24.943	822.711	658.244
412.482	24.922	821.582	657.206
413.496	24.863	821.406	656.792
414.511	24.943	821.074	656.761
415.526	24.978	820.705	656.535
416.540	24.875	820.468	655.909
417.555	24.870	819.610	655.147
418.569	24.632	818.745	653.530
419.584	24.512	818.076	652.500
420.599	24.693	817.875	652.942
421.613	150.233	1364.593	1785.244
422.628	130.736	1444.268	1785.383
