DTS Sentinel unit serial number:	SN413079Multiplexer serial number:	ORYXHardware model number:	OX4-SRSoftware version number:	ORYX F/W v4.00 Oryx Data Collector v3.7.2.0data status	okinstallation	princeton_trtdifferential loss correction	single-endedforward channel	channel 3reverse channel	N/Adate	2019/09/12time	02:10:11forward acquisition time	60.00reverse acquisition time	0.00gamma	496.2192k internal	0.2320k external	0.2320temperature offset calibration	1.0060default loss term (dB/km)	0.3790temperature slope calibration	1.0000multiplexer offset coefficient	1.0000multiplexer slope coefficient	1.0000fibre end	0.00T internal ref (°C)	32.69T ext. ref 1 (°C)	2.07T ext. ref 2 (°C)	27.40length (m)	temperature (°C)	Stokes	anti-Stokes-747.200	-200.000	-0.065	0.326
-746.185	-100.736	-0.230	-0.057
-745.171	-49.565	0.132	-0.063
-744.156	53.509	0.123	0.119
-743.142	-109.990	-0.081	0.017
-742.127	-200.000	0.038	0.182
-741.112	463.255	-0.163	0.369
-740.098	-200.000	0.007	0.293
-739.083	-143.403	0.063	-0.006
-738.069	79.416	-0.212	0.230
-737.054	800.000	0.084	0.275
-736.039	62.788	0.013	0.013
-735.025	-200.000	-0.042	-0.215
-734.010	-144.896	-0.305	-0.028
-732.996	-138.833	-0.273	0.030
-731.981	-128.977	-0.321	-0.045
-730.966	-108.231	0.156	-0.034
-729.952	-6.766	-0.274	0.188
-728.937	-21.820	-0.166	-0.102
-727.923	-95.501	0.385	-0.104
-726.908	-9.632	-0.086	0.058
-725.894	99.869	-0.148	-0.173
-724.879	107.479	-0.013	-0.015
-723.864	-11.897	0.291	-0.193
-722.850	-124.220	-0.172	0.027
-721.835	-85.529	-0.290	0.091
-720.821	-34.873	-0.098	-0.054
-719.806	-10.957	0.085	-0.057
-718.791	-121.933	-0.217	-0.036
-717.777	-98.235	0.208	-0.054
-716.762	-0.879	0.279	-0.200
-715.748	45.269	-0.052	-0.048
-714.733	-38.478	0.191	0.102
-713.718	785.845	0.055	-0.153
-712.704	-84.125	0.163	0.052
-711.689	31.765	0.107	-0.093
-710.675	-5.654	-0.135	0.094
-709.660	-96.357	0.191	-0.051
-708.645	-15.831	-0.363	-0.233
-707.631	-200.000	-0.002	0.124
-706.616	-149.586	0.155	-0.012
-705.602	31.454	-0.191	-0.166
-704.587	-173.920	-0.079	0.002
-703.572	3.308	-0.088	0.065
-702.558	-163.308	-0.344	-0.017
-701.543	505.994	-0.050	-0.116
-700.529	297.348	0.055	-0.101
-699.514	800.000	-0.060	-0.177
-698.499	198.933	0.045	-0.070
-697.485	-200.000	-0.017	0.191
-696.470	78.806	0.098	0.106
-695.456	-200.000	0.033	0.159
-694.441	-200.000	-0.009	0.177
-693.426	-105.285	0.365	0.084
-692.412	-175.780	0.043	0.001
-691.397	-68.376	-0.342	0.134
-690.383	625.983	-0.032	-0.080
-689.368	-200.000	-0.021	-0.154
-688.354	93.785	-0.185	0.212
-687.339	236.630	-0.084	-0.140
-686.324	-176.068	0.217	0.006
-685.310	61.687	0.212	0.213
-684.295	13.662	-0.169	-0.132
-683.281	-13.216	-0.362	-0.237
-682.266	589.274	-0.208	-0.516
-681.251	141.772	-0.218	-0.292
-680.237	-200.000	-0.011	-0.301
-679.222	141.684	0.164	-0.219
-678.208	-58.755	0.161	0.070
-677.193	-21.716	-0.283	-0.174
-676.178	184.131	-0.174	0.260
-675.164	246.309	-0.132	-0.225
-674.149	133.824	0.102	-0.133
-673.135	389.273	-0.140	-0.292
-672.120	574.413	0.128	-0.315
-671.105	20.223	-0.143	-0.117
-670.091	24.285	0.107	-0.089
-669.076	-29.276	0.242	-0.140
-668.062	383.687	0.063	-0.131
-667.047	-57.370	-0.195	-0.086
-666.032	70.120	0.058	0.060
-665.018	88.382	-0.096	-0.107
-664.003	-117.175	-0.215	-0.039
-662.989	-103.908	0.220	0.052
-661.974	22.828	-0.103	-0.085
-660.959	-200.000	0.052	-0.610
-659.945	-195.962	0.206	0.001
-658.930	-107.713	-0.466	0.102
-657.916	707.408	-0.039	0.103
-656.901	249.935	0.212	0.363
-655.886	120.316	0.057	0.071
-654.872	800.000	-0.040	-0.147
-653.857	-53.941	0.127	0.058
-652.843	296.767	0.065	-0.119
-651.828	190.413	0.086	0.131
-650.814	800.000	-0.096	-0.363
-649.799	-7.131	-0.308	-0.210
-648.784	-90.475	0.127	0.037
-647.770	800.000	0.082	-0.299
-646.755	800.000	-0.027	0.111
-645.741	-169.675	0.281	-0.010
-644.726	4.317	-0.181	-0.133
-643.711	226.233	0.070	-0.115
-642.697	541.469	-0.132	-0.317
-641.682	25.172	0.169	-0.141
-640.668	-10.550	-0.209	0.140
-639.653	-48.939	-0.058	-0.028
-638.638	26.721	0.273	0.230
-637.624	-150.557	-0.324	-0.025
-636.609	52.904	-0.188	-0.181
-635.595	631.574	-0.021	0.054
-634.580	107.791	-0.189	-0.226
-633.565	263.042	0.045	-0.078
-632.551	311.737	0.034	0.065
-631.536	-81.676	0.079	-0.026
-630.522	800.000	-0.047	0.189
-629.507	667.619	-0.109	0.284
-628.492	100.932	-0.178	0.208
-627.478	-15.959	0.031	0.020
-626.463	13.706	0.058	-0.045
-625.449	-200.000	-0.012	0.116
-624.434	-184.943	0.143	-0.002
-623.419	-142.387	0.054	-0.005
-622.405	-106.558	-0.318	-0.071
-621.390	-142.451	-0.285	0.028
-620.376	-98.322	-0.039	0.010
-619.361	199.190	0.075	0.116
-618.346	-64.730	0.109	0.044
-617.332	224.820	-0.228	-0.372
-616.317	260.087	-0.093	-0.162
-615.303	-75.130	0.250	-0.090
-614.288	-60.847	-0.111	0.047
-613.273	-60.110	0.161	-0.069
-612.259	-77.353	0.186	-0.065
-611.244	143.637	0.112	-0.150
-610.230	-93.940	0.100	0.028
-609.215	29.807	-0.370	0.317
-608.201	375.653	-0.116	-0.238
-607.186	9.574	-0.147	0.112
-606.171	110.586	0.315	-0.381
-605.157	13.545	0.187	0.146
-604.142	113.238	-0.241	-0.294
-603.128	-200.000	-0.038	-0.170
-602.113	-172.517	0.057	-0.002
-601.098	81.509	-0.112	-0.122
-600.084	800.000	0.040	0.123
-599.069	94.564	-0.062	-0.070
-598.055	-112.516	-0.306	-0.061
-597.040	800.000	0.063	-0.243
-596.025	-200.000	-0.002	-0.011
-595.011	-200.000	-0.060	-0.451
-593.996	-73.530	-0.043	0.016
-592.982	-200.000	0.062	-0.552
-591.967	-63.673	0.274	-0.113
-590.952	-42.418	0.304	0.156
-589.938	-176.587	0.423	0.011
-588.923	-200.000	0.008	-0.373
-587.909	-200.000	-0.030	-0.259
-586.894	800.000	-0.074	0.275
-585.879	241.457	-0.177	0.297
-584.865	-200.000	0.028	-0.254
-583.850	-200.000	-0.008	-0.095
-582.836	-2.823	-0.183	0.129
-581.821	800.000	-0.048	0.193
-580.806	199.442	-0.117	0.181
-579.792	66.047	-0.193	-0.197
-578.777	15.780	0.166	0.131
-577.763	797.998	-0.071	-0.197
-576.748	-149.260	0.111	0.009
-575.733	800.000	0.042	0.148
-574.719	15.333	0.113	0.089
-573.704	-200.000	-0.070	0.336
-572.690	29.540	0.043	0.037
-571.675	13.589	0.236	0.184
-570.661	94.712	-0.027	0.031
-569.646	92.750	-0.097	0.110
-568.631	552.050	-0.172	0.414
-567.617	559.469	0.058	0.141
-566.602	681.877	-0.084	-0.220
-565.588	-200.000	-0.022	-0.180
-564.573	-4.578	-0.151	-0.105
-563.558	445.382	-0.045	-0.099
-562.544	800.000	0.028	-0.102
-561.529	-89.964	-0.248	0.073
-560.515	-90.928	0.300	0.087
-559.500	-61.397	0.272	0.115
-558.485	-200.000	0.081	0.522
-557.471	767.753	0.074	0.202
-556.456	-55.541	-0.168	-0.075
-555.442	38.016	0.161	-0.143
-554.427	-85.661	0.425	-0.132
-553.412	-200.000	0.038	0.380
-552.398	104.580	-0.177	-0.209
-551.383	-50.536	-0.063	-0.030
-550.369	44.167	-0.164	0.151
-549.354	667.063	-0.105	0.274
-548.339	-10.190	-0.106	0.070
-547.325	-200.000	0.054	0.342
-546.310	364.831	0.029	0.058
-545.296	205.094	-0.069	-0.108
-544.281	192.394	-0.066	-0.100
-543.266	-60.534	0.440	0.188
-542.252	36.212	0.257	-0.227
-541.237	13.569	-0.205	-0.160
-540.223	15.353	0.221	-0.174
-539.208	-33.594	0.065	-0.036
-538.193	-163.781	0.293	-0.014
-537.179	427.812	0.080	0.174
-536.164	800.000	0.049	0.143
-535.150	-187.513	-0.059	-0.001
-534.135	114.800	-0.045	-0.055
-533.121	-12.698	0.090	-0.059
-532.106	114.905	-0.085	-0.103
-531.091	450.199	-0.076	0.167
-530.077	-200.000	-0.012	-0.087
-529.062	-200.000	-0.100	-0.677
-528.048	7.888	0.259	0.195
-527.033	-200.000	0.036	0.260
-526.018	17.745	0.182	0.145
-525.004	-118.925	0.071	0.012
-523.989	739.647	0.110	-0.296
-522.975	-200.000	-0.028	-0.200
-521.960	-94.072	-0.276	0.076
-520.945	243.144	0.123	0.207
-519.931	353.631	0.132	0.263
-518.916	800.000	0.032	-0.126
-517.902	-157.052	0.400	0.024
-516.887	-83.818	0.120	-0.038
-515.872	-200.000	-0.040	-0.324
-514.858	76.221	0.087	-0.092
-513.843	719.572	0.149	-0.397
-512.829	-61.255	0.454	-0.192
-511.814	-200.000	-0.022	-0.117
-510.799	26.818	-0.144	0.121
-509.785	-34.215	-0.032	0.018
-508.770	-156.640	-0.537	0.033
-507.756	-100.974	0.214	-0.053
-506.741	-185.580	0.140	-0.002
-505.726	-23.892	0.154	-0.093
-504.712	-73.342	0.266	0.098
-503.697	18.027	-0.078	0.062
-502.683	-9.406	-0.182	-0.122
-501.668	44.344	0.042	-0.039
-500.653	800.000	-0.078	-0.326
-499.639	-37.021	0.188	0.101
-498.624	-33.749	-0.114	-0.063
-497.610	-178.377	0.063	0.001
-496.595	-40.120	-0.141	0.073
-495.581	161.848	0.015	0.022
-494.566	-200.000	-0.032	0.368
-493.551	-129.371	-0.200	0.028
-492.537	125.056	0.061	0.076
-491.522	-140.098	0.624	-0.066
-490.508	-115.903	-0.398	0.074
-489.493	-200.000	0.004	-0.022
-488.478	800.000	0.060	-0.167
-487.464	272.727	-0.197	-0.347
-486.449	116.070	-0.221	0.271
-485.435	-200.000	0.040	0.248
-484.420	207.822	0.092	-0.144
-483.405	800.000	-0.062	0.200
-482.391	-61.282	0.291	-0.123
-481.376	100.744	0.241	0.280
-480.362	278.294	0.054	-0.096
-479.347	144.624	-0.127	0.169
-478.332	40.633	-0.155	-0.140
-477.318	-200.000	-0.026	0.312
-476.303	-119.637	0.219	-0.038
-475.289	264.324	-0.171	0.299
-474.274	-99.334	0.476	0.120
-473.259	142.040	-0.097	0.128
-472.245	-200.000	0.077	-0.431
-471.230	-116.795	-0.511	0.094
-470.216	100.288	0.286	-0.332
-469.201	714.229	-0.134	-0.355
-468.186	242.020	-0.139	0.232
-467.172	81.747	-0.156	-0.169
-466.157	-172.575	-0.490	-0.015
-465.143	80.091	0.067	-0.072
-464.128	5.364	-0.144	-0.106
-463.113	201.456	0.234	-0.361
-462.099	215.275	-0.101	-0.161
-461.084	800.000	-0.032	0.093
-460.070	-200.000	-0.009	-0.136
-459.055	-133.493	0.297	0.037
-458.040	596.879	0.074	0.183
-457.026	260.785	0.247	0.428
-456.011	800.000	0.062	-0.238
-454.997	396.616	0.114	-0.239
-453.982	-57.735	-0.107	-0.047
-452.968	527.243	0.019	-0.045
-451.953	-200.000	0.040	-0.184
-450.938	-38.832	0.292	0.154
-449.924	-20.000	0.232	0.143
-448.909	-143.308	-0.125	0.012
-447.895	-125.235	0.405	0.062
-446.880	-156.673	-0.060	-0.004
-445.865	-200.000	-0.002	0.356
-444.851	800.000	-0.035	-0.142
-443.836	-31.136	0.143	0.081
-442.822	-200.000	0.000	-0.215
-441.807	-43.129	0.223	-0.113
-440.792	-21.667	0.122	0.074
-439.778	-200.000	0.004	0.093
-438.763	185.919	-0.035	0.052
-437.749	-8.997	0.233	0.156
-436.734	-48.778	0.205	-0.098
-435.719	694.634	0.097	0.253
-434.705	29.213	-0.159	0.135
-433.690	-65.960	0.214	-0.085
-432.676	81.008	-0.128	-0.138
-431.661	536.499	-0.021	-0.050
-430.646	-167.596	0.209	0.008
-429.632	85.447	0.242	-0.265
-428.617	323.588	0.122	-0.232
-427.603	139.140	0.218	0.287
-426.588	-132.531	-0.056	0.007
-425.573	434.794	0.026	-0.056
-424.559	105.611	-0.038	-0.045
-423.544	-83.234	-0.383	0.123
-422.530	-200.000	0.023	0.153
-421.515	425.155	0.112	0.242
-420.500	-182.021	-0.229	-0.004
-419.486	-97.968	-0.171	0.044
-418.471	157.362	0.165	0.228
-417.457	-200.000	0.028	0.218
-416.442	27.383	0.305	0.256
-415.428	-76.530	-0.106	0.037
-414.413	422.472	-0.060	0.129
-413.398	-18.386	-0.403	-0.252
-412.384	158.973	0.202	0.281
-411.369	800.000	0.077	-0.290
-410.355	221.338	0.160	0.256
-409.340	418.122	-0.139	0.296
-408.325	-149.727	-0.025	-0.002
-407.311	-72.278	-0.095	0.035
-406.296	45.437	0.278	0.256
-405.282	-200.000	-0.004	0.155
-404.267	-200.000	0.015	0.138
-403.252	166.995	0.098	-0.139
-402.238	320.677	-0.195	-0.370
-401.223	-200.000	0.100	-0.464
-400.209	800.000	0.107	-0.367
-399.194	-128.023	-0.240	0.034
-398.179	31.585	0.194	-0.166
-397.165	-200.000	-0.055	-0.300
-396.150	60.211	0.045	0.045
-395.136	-200.000	0.034	0.208
-394.121	-124.778	0.145	-0.022
-393.106	800.000	0.140	0.445
-392.092	-113.229	-0.131	0.026
-391.077	-97.488	-0.265	0.069
-390.063	-200.000	0.010	-0.341
-389.048	800.000	-0.092	-0.297
-388.033	-92.018	-0.173	0.049
-387.019	-80.360	-0.245	-0.082
-386.004	-60.730	-0.151	0.064
-384.990	-79.108	0.125	0.042
-383.975	-145.002	-0.230	0.021
-382.960	92.618	0.148	-0.166
-381.946	53.167	-0.075	0.072
-380.931	-70.697	0.189	0.071
-379.917	-200.000	-0.023	-0.203
-378.902	-151.466	-0.043	0.003
-377.888	-29.002	-0.145	-0.083
-376.873	-200.000	-0.027	-0.188
-375.858	-200.000	-0.007	0.034
-374.844	83.970	-0.111	-0.121
-373.829	-200.000	-0.047	0.214
-372.815	285.163	-0.190	0.342
-371.800	-40.386	-0.117	-0.061
-370.785	24.660	0.167	0.138
-369.771	-200.000	-0.036	0.233
-368.756	-86.712	0.243	0.074
-367.742	-74.551	0.203	0.073
-366.727	-104.982	0.149	0.034
-365.712	-200.000	0.002	-0.110
-364.698	89.635	0.211	0.235
-363.683	319.993	0.110	0.208
-362.669	800.000	0.057	0.236
-361.654	656.437	0.055	0.140
-360.639	46.289	-0.175	-0.162
-359.625	27.631	0.235	0.197
-358.610	-103.419	0.304	0.071
-357.596	-200.000	-0.017	-0.134
-356.581	53.265	0.163	-0.156
-355.566	87.843	-0.120	-0.133
-354.552	116.207	0.135	-0.164
-353.537	665.971	-0.106	-0.273
-352.523	-200.000	-0.029	0.324
-351.508	-156.861	0.172	0.011
-350.493	-124.937	0.130	-0.020
-349.479	-143.635	-0.074	0.007
-348.464	133.984	0.114	-0.146
-347.450	24.963	-0.110	0.091
-346.435	0.539	0.213	0.152
-345.420	259.259	0.059	0.101
-344.406	800.000	0.046	0.162
-343.391	-44.558	-0.187	0.093
-342.377	10.379	-0.113	-0.085
-341.362	47.044	0.304	0.282
-340.348	-200.000	-0.022	0.192
-339.333	360.634	-0.126	0.252
-338.318	-6.441	-0.233	-0.158
-337.304	-71.115	0.096	-0.036
-336.289	-132.501	-0.271	-0.035
-335.275	123.783	-0.185	-0.231
-334.260	172.408	-0.150	0.214
-333.245	-148.004	-0.229	0.019
-332.231	800.000	0.072	0.208
-331.216	38.392	0.145	0.129
-330.202	3.419	-0.073	-0.053
-329.187	394.947	-0.127	-0.263
-328.172	-3.257	-0.122	-0.084
-327.158	99.471	-0.314	0.361
-326.143	650.098	0.103	-0.261
-325.129	14.952	0.124	0.097
-324.114	-104.041	-0.419	-0.097
-323.099	0.333	0.039	0.028
-322.085	98.781	0.137	-0.157
-321.070	-106.786	0.208	0.046
-320.056	297.151	0.041	-0.075
-319.041	137.331	-0.201	-0.261
-318.026	293.573	0.133	0.241
-317.012	149.385	-0.149	0.201
-315.997	642.390	-0.073	-0.186
-314.983	800.000	-0.029	-0.115
-313.968	-83.754	0.509	0.161
-312.953	-5.391	-0.277	0.189
-311.939	366.575	-0.143	0.286
-310.924	-136.359	0.296	-0.034
-309.910	-97.876	0.118	-0.030
-308.895	-96.409	0.526	-0.138
-307.880	47.747	-0.234	-0.217
-306.866	-113.919	-0.252	-0.049
-305.851	-200.000	-0.035	-0.300
-304.837	-38.214	0.161	-0.085
-303.822	-173.066	-0.226	0.007
-302.807	122.723	-0.055	0.068
-301.793	-71.451	-0.452	0.168
-300.778	-128.733	0.265	0.037
-299.764	179.697	-0.090	0.131
-298.749	-91.873	-0.371	0.105
-297.735	-88.176	-0.192	0.057
-296.720	-123.258	0.195	-0.031
-295.705	239.174	0.160	0.264
-294.691	-200.000	0.020	-0.195
-293.676	15.331	-0.337	-0.262
-292.662	61.031	-0.210	-0.207
-291.647	-13.953	0.321	0.206
-290.632	-200.000	-0.063	-0.437
-289.618	10.682	0.160	0.121
-288.603	-6.912	0.055	-0.037
-287.589	-24.446	0.316	0.187
-286.574	221.435	-0.206	0.329
-285.559	129.836	0.087	0.110
-284.545	-85.422	0.175	0.054
-283.530	-64.444	0.073	-0.030
-282.516	-150.892	0.235	-0.018
-281.501	-200.000	-0.033	-0.231
-280.486	237.275	-0.096	0.158
-279.472	800.000	0.067	0.213
-278.457	227.420	0.162	0.261
-277.443	-117.490	0.266	-0.048
-276.428	-200.000	0.055	0.248
-275.413	-103.348	0.062	-0.014
-274.399	-41.511	-0.086	-0.044
-273.384	-83.564	-0.306	0.097
-272.370	-72.766	-0.129	0.047
-271.355	64.036	0.038	-0.038
-270.340	-36.677	-0.246	0.131
-269.326	800.000	0.007	-0.028
-268.311	75.047	-0.191	0.200
-267.297	72.112	0.227	-0.234
-266.282	-37.321	0.198	0.105
-265.267	-200.000	0.038	0.183
-264.253	-200.000	-0.012	-0.168
-263.238	-102.838	-0.191	-0.045
-262.224	-24.373	-0.207	0.123
-261.209	10.896	-0.136	-0.103
-260.195	80.725	-0.286	0.305
-259.180	29.383	-0.112	0.094
-258.165	-200.000	-0.001	-0.132
-257.151	800.000	0.034	0.115
-256.136	-200.000	-0.028	0.326
-255.122	-64.560	-0.366	-0.147
-254.107	-80.085	0.111	-0.037
-253.092	53.139	-0.131	0.125
-252.078	800.000	0.041	-0.177
-251.063	7.807	-0.048	0.035
-250.049	-108.115	-0.418	-0.090
-249.034	18.483	0.046	0.036
-248.019	363.280	-0.116	0.231
-247.005	-14.606	0.179	-0.114
-245.990	235.414	0.167	0.274
-244.976	195.113	-0.090	-0.136
-243.961	-200.000	0.048	-0.457
-242.946	498.075	0.101	0.230
-241.932	-200.000	-0.046	0.335
-240.917	53.781	-0.074	-0.071
-239.903	640.802	0.055	0.138
-238.888	-105.495	-0.171	-0.039
-237.873	668.753	0.072	-0.185
-236.859	-105.378	0.211	0.048
-235.844	267.239	-0.178	-0.309
-234.830	800.000	-0.031	0.086
-233.815	64.074	0.145	-0.145
-232.800	-200.000	-0.066	0.403
-231.786	126.676	-0.292	0.367
-230.771	-49.963	-0.291	0.137
-229.757	-122.731	0.213	0.034
-228.742	-83.528	-0.062	-0.020
-227.727	39.851	0.185	-0.165
-226.713	-0.054	0.070	0.049
-225.698	800.000	0.035	0.132
-224.684	294.524	-0.269	-0.487
-223.669	129.219	-0.091	0.115
-222.655	43.843	-0.057	0.052
-221.640	-200.000	0.035	-0.175
-220.625	-143.312	0.473	-0.045
-219.611	-138.764	0.203	0.022
-218.596	-147.354	-0.202	0.017
-217.582	800.000	-0.093	-0.297
-216.567	-200.000	0.011	0.278
-215.552	519.687	-0.027	0.062
-214.538	-200.000	-0.033	-0.340
-213.523	-34.560	-0.250	-0.136
-212.509	800.000	0.115	0.315
-211.494	-146.963	0.261	0.022
-210.479	351.798	0.022	0.043
-209.465	-121.172	-0.316	-0.052
-208.450	-157.110	-0.131	-0.008
-207.436	-112.105	-0.319	0.064
-206.421	590.498	-0.108	-0.264
-205.406	-129.306	-0.163	-0.022
-204.392	-200.000	-0.009	-0.321
-203.377	11.872	-0.182	0.138
-202.363	62.322	-0.087	-0.086
-201.348	183.822	0.147	-0.215
-200.333	483.626	-0.111	0.250
-199.319	180.319	-0.249	-0.361
-198.304	-200.000	0.062	-0.336
-197.290	163.545	-0.133	0.185
-196.275	271.005	-0.111	-0.193
-195.260	219.902	-0.039	0.062
-194.246	-5.894	0.105	-0.071
-193.231	-130.090	-0.149	0.020
-192.217	204.861	0.097	-0.150
-191.202	-200.000	0.004	0.060
-190.187	-200.000	0.006	0.141
-189.173	-172.265	0.075	-0.002
-188.158	-102.132	-0.058	0.014
-187.144	368.428	-0.040	0.080
-186.129	350.134	0.065	0.128
-185.114	175.571	0.131	0.188
-184.100	-110.488	0.415	0.085
-183.085	43.577	-0.239	-0.216
-182.071	-124.446	-0.323	0.050
-181.056	-200.000	-0.007	-0.055
-180.042	113.311	0.082	-0.098
-179.027	-36.583	0.160	0.085
-178.012	-112.629	-0.151	0.030
-176.998	130.203	-0.046	0.058
-175.983	399.598	0.113	-0.233
-174.969	-28.928	-0.258	-0.146
-173.954	701.459	-0.056	0.145
-172.939	-188.937	-0.175	-0.002
-171.925	-91.328	-0.329	0.093
-170.910	-61.744	-0.415	-0.172
-169.896	800.000	0.183	-0.500
-168.881	559.181	0.078	-0.187
-167.866	-200.000	0.001	0.133
-166.852	800.000	-0.017	-0.057
-165.837	-61.279	-0.205	-0.085
-164.823	-129.037	0.137	0.019
-163.808	800.000	0.077	0.215
-162.793	28.900	0.092	0.077
-161.779	-200.000	0.007	0.049
-160.764	136.611	0.044	0.057
-159.750	-41.172	0.253	-0.129
-158.735	660.203	-0.110	-0.279
-157.720	-92.764	0.154	0.043
-156.706	-200.000	-0.030	0.151
-155.691	-84.109	-0.417	0.131
-154.677	130.694	-0.024	0.030
-153.662	-103.255	0.188	-0.044
-152.647	46.469	0.213	0.195
-151.633	-200.000	-0.018	-0.278
-150.618	429.361	-0.085	-0.182
-149.604	-0.386	0.234	-0.164
-148.589	-13.686	0.107	0.069
-147.574	-186.215	-0.255	0.004
-146.560	-200.000	0.015	0.149
-145.545	800.000	0.078	-0.270
-144.531	-200.000	-0.007	-0.118
-143.516	7.557	-0.085	0.063
-142.502	-200.000	0.023	0.560
-141.487	32.732	-0.301	0.257
-140.472	-68.666	-0.107	0.041
-139.458	8.211	0.377	-0.280
-138.443	-200.000	0.012	0.136
-137.429	800.000	0.038	0.119
-136.414	-172.529	0.119	-0.004
-135.399	-200.000	-0.025	0.134
-134.385	-64.065	-0.221	0.089
-133.370	-69.333	-0.117	-0.045
-132.356	-41.439	-0.136	0.069
-131.341	385.968	0.099	-0.201
-130.326	-174.107	-0.360	-0.010
-129.312	65.266	0.187	-0.187
-128.297	-200.000	0.048	-0.213
-127.283	-78.450	0.146	-0.049
-126.268	-200.000	-0.016	-0.163
-125.253	213.122	0.046	-0.072
-124.239	462.611	0.167	-0.367
-123.224	-200.000	0.001	0.070
-122.210	-200.000	0.031	0.175
-121.195	48.643	0.266	-0.246
-120.180	153.326	0.036	0.048
-119.166	143.216	0.179	-0.234
-118.151	-197.343	0.385	-0.002
-117.137	257.699	-0.060	-0.103
-116.122	82.021	-0.112	-0.120
-115.107	-74.087	0.251	-0.090
-114.093	-200.000	-0.004	-0.170
-113.078	-136.105	-0.239	0.028
-112.064	-100.968	0.239	-0.058
-111.049	-77.605	-0.111	-0.038
-110.034	108.011	0.217	-0.255
-109.020	-57.870	0.209	-0.090
-108.005	-139.560	-0.059	0.006
-106.991	431.556	-0.042	0.091
-105.976	-44.767	0.225	0.110
-104.962	-76.676	-0.063	0.022
-103.947	620.398	0.067	0.165
-102.932	385.249	-0.222	-0.451
-101.918	-104.094	0.225	0.052
-100.903	59.295	0.185	0.179
-99.889	-90.257	0.295	0.085
-98.874	-200.000	0.041	0.245
-97.859	800.000	-0.068	0.222
-96.845	554.635	-0.060	0.141
-95.830	-200.000	-0.018	0.100
-94.816	8.584	-0.204	-0.151
-93.801	-13.560	-0.177	-0.113
-92.786	-58.437	0.471	-0.202
-91.772	-200.000	0.012	0.117
-90.757	51.578	-0.288	0.270
-89.743	-149.926	-0.150	0.012
-88.728	9.060	-0.157	0.117
-87.713	-151.842	0.109	-0.008
-86.699	12.918	-0.120	-0.091
-85.684	69.040	0.057	0.058
-84.670	86.214	-0.099	-0.108
-83.655	-200.000	0.006	-0.141
-82.640	-13.833	-0.086	0.055
-81.626	158.253	0.042	0.058
-80.611	33.052	-0.092	0.078
-79.597	493.451	-0.177	0.400
-78.582	-200.000	-0.003	0.177
-77.567	-117.298	-0.377	-0.067
-76.553	202.143	-0.163	0.248
-75.538	-71.538	-0.109	0.040
-74.524	-200.000	0.026	0.371
-73.509	800.000	-0.059	0.216
-72.494	491.566	0.143	0.323
-71.480	-200.000	0.026	-0.240
-70.465	-200.000	-0.030	0.181
-69.451	800.000	-0.020	0.079
-68.436	40.886	-0.118	-0.105
-67.422	800.000	0.073	-0.213
-66.407	-98.328	-0.069	0.017
-65.392	-107.567	0.156	0.034
-64.378	-45.065	0.183	-0.089
-63.363	490.981	0.079	0.179
-62.349	222.735	0.184	0.292
-61.334	13.680	-0.906	-0.693
-60.319	274.593	0.171	0.299
-59.305	-200.000	-0.146	-1.182
-58.290	194.249	0.437	0.651
-57.276	773.704	0.590	1.585
-56.261	-200.000	96.116	579.172
-55.246	562.009	1373.548	3269.710
-54.232	161.494	2546.336	3505.782
-53.217	111.985	2159.706	2567.491
-52.203	43.064	1706.237	1531.708
-51.188	35.904	1519.497	1315.317
-50.173	33.576	1492.866	1276.560
-49.159	52.093	1541.563	1445.331
-48.144	54.022	1559.805	1475.585
-47.130	36.071	1518.950	1315.777
-46.115	32.940	1504.364	1281.873
-45.100	32.786	1501.184	1278.067
-44.086	32.729	1499.467	1276.173
-43.071	32.734	1497.246	1274.266
-42.057	32.732	1495.858	1273.018
-41.042	32.768	1494.032	1271.656
-40.027	32.764	1493.127	1270.812
-39.013	32.742	1491.115	1268.901
-37.998	32.657	1490.264	1267.553
-36.984	32.583	1489.428	1266.293
-35.969	32.819	1487.443	1266.141
-34.954	32.796	1485.861	1264.589
-33.940	32.678	1485.233	1263.217
-32.925	32.732	1483.688	1262.211
-31.911	32.739	1482.242	1260.980
-30.896	32.793	1480.731	1260.006
-29.881	32.751	1479.736	1258.827
-28.867	32.710	1478.375	1257.346
-27.852	32.762	1476.347	1255.919
-26.838	32.742	1475.230	1254.781
-25.823	32.689	1474.045	1253.371
-24.809	32.653	1472.062	1251.398
-23.794	32.659	1470.341	1249.925
-22.779	32.753	1469.133	1249.470
-21.765	32.728	1468.078	1248.362
-20.750	32.712	1467.451	1247.668
-19.736	32.698	1466.327	1246.572
-18.721	32.595	1465.057	1244.763
-17.706	32.686	1464.219	1244.601
-16.692	32.722	1462.854	1243.628
-15.677	32.684	1461.815	1242.447
-14.663	32.707	1460.918	1241.786
-13.648	32.646	1459.597	1240.211
-12.633	32.572	1459.263	1239.392
-11.619	32.680	1458.231	1239.181
-10.604	32.572	1457.833	1238.081
-9.590	32.681	1456.520	1237.631
-8.575	32.698	1455.201	1236.575
-7.560	32.570	1454.923	1235.448
-6.546	32.674	1453.471	1234.849
-5.531	32.719	1452.414	1234.193
-4.517	32.684	1451.572	1233.199
-3.502	32.669	1450.966	1232.540
-2.487	32.702	1449.584	1231.536
-1.473	32.592	1448.988	1230.258
-0.458	32.784	1447.241	1229.980
0.556	33.063	1438.117	1218.504
1.571	30.105	1414.073	1179.238
2.586	26.824	1360.733	1114.527
3.600	25.286	1282.951	1041.803
4.615	23.808	1234.951	994.475
5.629	20.286	1176.941	928.862
6.644	10.804	1089.918	812.878
7.659	3.324	1047.861	745.360
8.673	2.214	1042.846	736.378
9.688	2.078	1039.123	733.030
10.702	2.001	1037.510	731.460
11.717	1.967	1035.300	729.675
12.731	5.438	1039.762	749.406
13.746	15.284	1052.978	806.436
14.761	22.926	1063.339	851.273
15.775	24.979	1065.595	862.908
16.790	25.409	1065.061	864.470
17.804	25.239	1064.123	862.815
18.819	24.960	1063.641	861.002
19.834	25.069	1062.896	860.848
20.848	25.186	1062.430	860.957
21.863	25.275	1062.411	861.295
22.877	25.195	1062.182	860.644
23.892	25.050	1061.263	859.130
24.907	25.113	1060.666	858.874
25.921	25.255	1059.370	858.427
26.936	25.255	1058.513	857.656
27.950	25.161	1057.552	856.353
28.965	25.108	1056.538	855.203
29.980	24.994	1055.324	853.603
30.994	24.944	1053.894	852.134
32.009	25.257	1053.281	853.049
33.023	25.303	1052.571	852.615
34.038	25.119	1051.456	850.765
35.053	24.981	1050.933	849.614
36.067	25.239	1049.923	849.944
37.082	25.222	1049.457	849.410
38.096	25.272	1048.648	848.918
39.111	25.420	1047.603	848.696
40.126	25.497	1047.163	848.628
41.140	25.383	1046.016	847.083
42.155	25.035	1044.786	844.374
43.169	24.839	1043.169	842.069
44.184	24.846	1042.160	841.212
45.199	24.841	1041.558	840.631
46.213	24.783	1040.848	839.712
47.228	24.760	1039.867	838.738
48.242	24.947	1039.032	838.864
49.257	25.054	1038.555	838.907
50.271	25.094	1037.748	838.369
51.286	25.241	1036.838	838.244
52.301	25.329	1035.929	837.847
53.315	25.203	1035.184	836.583
54.330	25.247	1034.753	836.367
55.344	25.089	1034.114	835.039
56.359	25.104	1033.226	834.319
57.374	25.150	1032.508	833.880
58.388	25.107	1031.376	832.694
59.403	24.880	1030.845	831.137
60.417	24.921	1030.374	830.871
61.432	24.808	1029.219	829.343
62.447	24.812	1028.665	828.841
63.461	24.897	1028.164	828.757
64.476	25.025	1027.218	828.514
65.490	24.989	1026.421	827.634
66.505	24.915	1025.355	826.356
67.520	24.888	1024.908	825.799
68.534	25.028	1023.829	825.500
69.549	24.854	1022.652	823.682
70.563	24.535	1022.164	821.746
71.578	24.500	1020.812	820.427
72.593	24.397	1020.165	819.361
73.607	24.346	1018.956	818.082
74.622	24.490	1017.870	817.798
75.636	24.542	1017.737	817.857
76.651	24.842	1016.618	818.260
77.666	24.641	1015.622	816.466
78.680	24.593	1014.595	815.348
79.695	24.655	1014.322	815.342
80.709	24.735	1013.881	815.277
81.724	24.698	1013.534	814.758
82.739	24.913	1012.173	814.572
83.753	24.757	1011.453	813.209
84.768	25.046	1010.809	813.935
85.782	25.294	1010.423	814.675
86.797	25.411	1009.971	814.770
87.812	25.584	1008.520	814.309
88.826	25.360	1007.564	812.453
89.841	25.382	1007.064	812.076
90.855	25.549	1005.802	811.742
91.870	25.488	1005.406	811.073
92.884	25.512	1004.633	810.489
93.899	25.405	1003.612	809.111
94.914	25.122	1003.112	807.362
95.928	25.288	1002.162	807.272
96.943	25.492	1001.085	807.250
97.957	25.206	999.691	804.774
98.972	24.815	999.036	802.418
99.987	24.685	997.849	800.814
101.001	24.756	997.516	800.795
102.016	25.130	997.131	802.089
103.030	25.100	996.055	801.015
104.045	25.134	994.746	800.044
105.060	24.927	993.810	798.299
106.074	24.842	992.606	796.883
107.089	24.904	991.676	796.341
108.103	25.173	992.010	797.736
109.118	25.329	990.816	797.396
110.133	24.839	989.913	794.427
111.147	24.893	988.885	793.770
112.162	24.872	987.636	792.603
113.176	24.596	986.764	790.612
114.191	24.664	985.797	790.068
115.206	24.918	984.784	790.307
116.220	24.542	983.848	787.827
117.235	24.518	982.658	786.702
118.249	24.574	982.239	786.540
119.264	24.583	981.393	785.835
120.279	24.562	980.736	785.148
121.293	24.467	980.020	784.085
122.308	24.696	979.457	784.571
123.322	24.564	978.634	783.266
124.337	24.570	977.240	782.104
125.352	24.593	975.936	781.094
126.366	24.197	973.834	777.613
127.381	23.771	973.131	775.124
128.395	24.225	973.264	777.145
129.410	25.034	972.738	780.179
130.424	25.147	971.889	779.921
131.439	25.011	970.973	778.524
132.454	24.954	970.290	777.661
133.468	25.090	969.437	777.500
134.483	25.151	968.255	776.748
135.497	25.119	967.688	776.084
136.512	25.261	967.759	776.689
137.527	25.443	966.318	776.247
138.541	25.452	965.788	775.792
139.556	25.352	964.993	774.653
140.570	25.225	964.501	773.645
141.585	25.383	963.149	773.171
142.600	25.563	962.481	773.340
143.614	25.380	961.561	771.748
144.629	25.345	961.293	771.312
145.643	25.713	960.376	772.089
146.658	25.600	959.042	770.460
147.673	25.399	957.752	768.499
148.687	25.115	957.161	766.741
149.702	25.116	956.127	765.851
150.716	25.030	954.731	764.296
151.731	25.017	954.029	763.612
152.746	25.107	953.137	763.213
153.760	25.392	952.607	763.936
154.775	25.426	952.295	763.761
155.789	25.549	951.023	763.194
156.804	25.549	949.982	762.292
157.819	25.409	949.134	760.953
158.833	25.473	948.140	760.357
159.848	25.603	947.386	760.236
160.862	25.630	947.067	760.027
161.877	25.355	946.324	758.201
162.892	25.421	944.952	757.313
163.906	25.358	944.246	756.417
164.921	25.456	943.311	756.013
165.935	25.410	942.137	754.812
166.950	25.461	941.186	754.199
167.964	25.482	940.351	753.548
168.979	25.517	939.338	752.816
169.994	25.284	938.207	750.870
171.008	25.107	937.500	749.497
172.023	25.315	936.562	749.550
173.037	25.480	936.431	750.067
174.052	25.256	935.454	748.286
175.067	25.125	934.155	746.635
176.081	25.158	932.927	745.721
177.096	25.342	932.161	745.810
178.110	25.161	931.245	744.261
179.125	25.115	930.174	743.147
180.140	24.903	929.177	741.407
181.154	24.903	928.646	740.919
182.169	24.931	928.421	740.788
183.183	25.142	928.080	741.322
184.198	25.414	927.597	741.996
185.213	25.379	927.457	741.673
186.227	25.390	926.407	740.811
187.242	25.467	926.074	740.799
188.256	25.491	925.504	740.377
189.271	25.508	924.356	739.464
190.286	25.596	923.829	739.337
191.300	25.541	922.844	738.255
192.315	24.808	921.730	734.292
193.329	24.142	919.947	730.078
194.344	23.655	918.939	727.219
195.359	24.251	919.034	729.672
196.373	25.118	919.303	733.370
197.388	25.362	919.611	734.548
198.402	25.385	918.329	733.555
199.417	25.335	917.945	732.978
200.432	25.477	917.344	733.010
201.446	25.253	916.832	731.624
202.461	25.002	915.542	729.509
203.475	25.034	915.491	729.534
204.490	24.658	914.160	726.878
205.504	23.423	912.317	720.334
206.519	23.788	912.077	721.562
207.534	24.771	912.629	725.929
208.548	24.948	911.495	725.679
209.563	25.390	911.257	727.216
210.577	25.365	910.510	726.454
211.592	25.091	909.909	724.802
212.607	25.397	910.046	726.087
213.621	25.567	909.608	726.359
214.636	25.488	908.628	725.193
215.650	25.465	908.168	724.668
216.665	25.512	907.706	724.425
217.680	25.556	907.183	724.121
218.694	25.465	906.700	723.305
219.709	25.210	905.910	721.585
220.723	25.005	904.482	719.561
221.738	25.223	904.159	720.117
222.753	25.361	903.586	720.149
223.767	25.219	903.071	719.106
224.782	25.279	902.516	718.839
225.796	25.564	901.890	719.416
226.811	25.793	901.055	719.604
227.826	25.243	900.274	716.720
228.840	24.481	898.514	712.216
229.855	24.393	898.226	711.576
230.869	24.653	897.736	712.160
231.884	24.289	896.641	709.780
232.899	24.214	896.478	709.288
233.913	25.163	896.444	712.975
234.928	25.323	895.958	713.158
235.942	25.253	894.927	712.000
236.957	25.298	894.581	711.839
237.972	25.037	893.507	709.886
238.986	24.956	892.884	709.009
240.001	24.968	892.455	708.653
241.015	24.881	892.274	708.101
242.030	25.030	891.193	707.770
243.045	25.352	890.260	708.238
244.059	25.286	890.226	707.886
245.074	25.388	889.826	707.910
246.088	25.441	889.341	707.668
247.103	25.120	888.331	705.541
248.117	25.203	887.238	704.937
249.132	25.697	887.578	707.085
250.147	26.224	887.102	708.712
251.161	26.157	886.649	708.022
252.176	26.269	886.072	707.939
253.190	26.313	885.577	707.652
254.205	26.434	884.791	707.434
255.220	26.531	884.955	707.884
256.234	26.532	884.336	707.330
257.249	26.213	883.982	705.739
258.263	26.120	882.995	704.523
259.278	26.199	882.343	704.248
260.293	26.181	882.153	703.966
261.307	26.370	881.771	704.335
262.322	26.222	880.971	703.056
263.336	26.249	879.746	702.123
264.351	25.658	878.492	698.767
265.366	24.652	876.641	693.329
266.380	24.078	875.911	690.467
267.395	24.977	876.346	694.234
268.409	25.875	876.686	697.920
269.424	25.787	875.629	696.680
270.439	25.868	875.571	696.886
271.453	25.859	874.912	696.265
272.468	26.016	874.261	696.289
273.482	26.160	874.219	696.750
274.497	26.350	873.271	696.664
275.512	26.025	872.382	694.643
276.526	25.606	870.688	691.622
277.541	25.754	870.436	691.930
278.555	26.130	870.398	693.284
279.570	25.900	870.006	692.024
280.585	25.680	869.281	690.545
281.599	25.737	868.986	690.466
282.614	25.890	868.367	690.500
283.628	25.498	866.992	687.847
284.643	25.094	866.350	685.733
285.657	25.727	866.026	687.835
286.672	25.461	865.060	685.989
287.687	25.075	864.238	683.805
288.701	25.347	864.118	684.687
289.716	25.699	864.298	686.111
290.730	25.297	863.377	683.787
291.745	25.312	862.571	683.148
292.760	25.101	861.320	681.294
293.774	25.013	860.942	680.602
294.789	25.764	861.690	683.984
295.803	26.637	861.658	687.213
296.818	26.566	861.204	686.520
297.833	26.707	860.567	686.485
298.847	26.481	859.606	684.806
299.862	26.014	858.357	681.984
300.876	26.216	858.185	682.551
301.891	26.417	858.354	683.384
302.906	26.659	857.125	683.256
303.920	26.199	856.302	680.807
304.935	26.107	855.873	680.057
305.949	26.564	855.062	681.075
306.964	26.522	855.116	680.900
307.979	26.169	854.620	679.117
308.993	26.345	853.275	678.649
310.008	26.612	853.607	679.855
311.022	26.673	853.375	679.837
312.037	26.627	852.344	678.787
313.052	26.190	851.831	676.681
314.066	26.180	851.009	675.928
315.081	25.620	849.124	672.279
316.095	24.815	847.856	668.212
317.110	25.336	848.797	670.840
318.125	26.248	848.705	674.112
319.139	25.842	847.602	671.664
320.154	24.589	845.983	665.656
321.168	24.337	844.821	663.747
322.183	24.754	845.417	665.710
323.197	25.697	845.712	669.390
324.212	26.098	845.251	670.456
325.227	26.363	844.617	670.878
326.241	26.412	844.237	670.698
327.256	26.021	844.231	669.183
328.270	26.171	843.224	668.883
329.285	26.200	842.536	668.386
330.300	26.043	841.678	667.065
331.314	25.766	840.837	665.317
332.329	25.843	840.299	665.115
333.343	26.254	840.196	666.491
334.358	26.607	839.608	667.266
335.373	26.341	839.241	665.935
336.387	26.345	838.698	665.463
337.402	26.815	838.224	666.757
338.416	26.990	838.246	667.358
339.431	26.966	837.603	666.700
340.446	26.953	836.895	666.030
341.460	27.087	836.488	666.139
342.475	27.100	835.939	665.690
343.489	26.924	834.952	664.198
344.504	26.713	834.769	663.222
345.519	26.997	834.362	663.878
346.533	27.372	834.083	664.971
347.548	27.468	833.276	664.616
348.562	27.306	833.177	663.887
349.577	27.486	832.395	663.861
350.592	27.304	831.823	662.685
351.606	27.096	831.562	661.659
352.621	27.123	831.206	661.417
353.635	27.073	830.402	660.538
354.650	27.026	830.039	660.018
355.665	26.772	829.030	658.237
356.679	25.701	827.318	652.935
357.694	25.408	827.098	651.642
358.708	26.204	826.788	654.225
359.723	26.207	826.066	653.605
360.738	26.412	825.581	653.905
361.752	26.745	826.056	655.427
362.767	26.951	825.475	655.655
363.781	27.161	825.594	656.449
364.796	27.416	825.632	657.343
365.810	27.475	824.954	656.956
366.825	27.536	824.671	656.893
367.840	27.578	824.478	656.831
368.854	27.626	823.412	656.099
369.869	27.096	822.283	653.236
370.883	26.823	821.984	651.957
371.898	26.881	821.387	651.635
372.913	26.820	820.402	650.580
373.927	26.686	820.361	650.008
374.942	27.079	819.370	650.573
375.956	27.103	819.096	650.382
376.971	27.254	818.456	650.357
377.986	27.439	817.757	650.405
379.000	27.528	817.517	650.475
380.015	27.592	817.065	650.286
381.029	27.431	816.422	649.143
382.044	27.293	816.099	648.337
383.059	27.477	815.170	648.195
384.073	27.525	814.825	648.033
385.088	27.655	814.361	648.070
386.102	27.580	813.861	647.350
387.117	27.421	812.988	646.032
388.132	27.349	812.588	645.403
389.146	27.001	812.054	643.688
390.161	26.547	810.869	641.083
391.175	26.588	810.624	640.981
392.190	27.398	810.596	643.766
393.205	27.140	810.443	642.676
394.219	26.317	808.454	638.137
395.234	24.621	806.059	630.213
396.248	23.892	804.855	626.650
397.263	24.859	806.002	630.896
398.278	26.753	807.069	638.354
399.292	27.114	807.273	639.728
400.307	26.868	806.432	638.142
401.321	26.804	806.007	637.524
402.336	27.012	805.820	638.052
403.350	27.118	805.938	638.460
404.365	27.509	806.076	639.887
405.380	27.900	805.537	640.773
406.394	28.165	805.201	641.380
407.409	28.290	805.126	641.701
408.423	28.423	804.102	641.293
409.438	28.183	803.687	640.066
410.453	28.260	803.263	639.940
411.467	28.363	802.931	639.980
412.482	28.228	802.312	638.958
413.496	28.263	801.580	638.442
414.511	28.365	801.310	638.524
415.526	28.415	801.263	638.606
416.540	28.472	800.509	638.147
417.555	28.238	800.258	637.077
418.569	28.038	799.322	635.580
419.584	27.869	799.188	634.830
420.599	28.095	798.264	634.823
421.613	111.101	1284.414	1457.841
422.628	95.805	1355.257	1457.930
