DTS Sentinel unit serial number:	SN413079Multiplexer serial number:	ORYXHardware model number:	OX4-SRSoftware version number:	ORYX F/W v4.00 Oryx Data Collector v3.7.2.0data status	okinstallation	princeton_trtdifferential loss correction	single-endedforward channel	channel 3reverse channel	N/Adate	2019/09/11time	15:02:11forward acquisition time	60.00reverse acquisition time	0.00gamma	496.2192k internal	0.2289k external	0.2289temperature offset calibration	0.9981default loss term (dB/km)	0.3790temperature slope calibration	1.0000multiplexer offset coefficient	1.0000multiplexer slope coefficient	1.0000fibre end	0.00T internal ref (°C)	42.83T ext. ref 1 (°C)	0.93T ext. ref 2 (°C)	38.17length (m)	temperature (°C)	Stokes	anti-Stokes-747.200	-117.367	0.309	-0.057
-746.185	344.940	0.057	0.115
-745.171	-200.000	-0.012	0.064
-744.156	-103.134	0.375	-0.091
-743.142	800.000	0.090	0.268
-742.127	-94.799	0.243	-0.068
-741.112	-146.625	-0.184	-0.016
-740.098	106.358	0.160	0.195
-739.083	-80.797	0.073	-0.025
-738.069	72.117	0.269	0.286
-737.054	617.873	0.036	0.092
-736.039	190.017	-0.230	-0.353
-735.025	-200.000	0.039	0.284
-734.010	-77.183	-0.287	0.102
-732.996	-72.956	0.185	-0.070
-731.981	42.660	-0.216	-0.201
-730.966	-49.143	-0.114	-0.056
-729.952	-200.000	-0.004	-0.169
-728.937	-9.809	-0.232	0.158
-727.923	32.279	-0.206	-0.182
-726.908	58.544	-0.266	-0.267
-725.894	-14.033	-0.301	0.199
-724.879	-102.363	-0.119	-0.029
-723.864	-62.620	-0.292	0.124
-722.850	-66.068	0.072	-0.029
-721.835	-82.754	0.135	0.045
-720.821	800.000	-0.086	0.262
-719.806	-104.700	-0.165	-0.039
-718.791	735.418	0.116	-0.319
-717.777	35.200	-0.185	-0.166
-716.762	800.000	-0.011	-0.043
-715.748	19.176	-0.081	-0.067
-714.733	-200.000	0.006	0.125
-713.718	92.186	-0.154	-0.177
-712.704	-200.000	-0.040	-0.343
-711.689	-200.000	0.024	-0.219
-710.675	215.624	-0.041	0.067
-709.660	-200.000	-0.068	0.335
-708.645	336.633	-0.070	0.140
-707.631	800.000	0.106	0.434
-706.616	-23.602	0.168	0.103
-705.602	-184.700	0.279	-0.005
-704.587	21.119	0.127	0.106
-703.572	-37.464	-0.292	-0.160
-702.558	-7.219	-0.074	0.051
-701.543	123.977	-0.097	0.125
-700.529	144.670	-0.142	-0.193
-699.514	139.733	0.233	-0.313
-698.499	-15.152	0.136	0.089
-697.485	-11.117	0.086	0.058
-696.470	-200.000	-0.030	-0.229
-695.456	362.350	-0.077	0.158
-694.441	-146.712	-0.323	-0.029
-693.426	-200.000	0.019	-0.152
-692.412	-181.025	-0.438	-0.009
-691.397	-200.000	-0.016	0.121
-690.383	-58.866	-0.275	0.122
-689.368	-76.504	-0.016	0.006
-688.354	120.654	0.129	-0.165
-687.339	-144.118	0.235	-0.023
-686.324	100.553	0.031	0.037
-685.310	233.854	-0.074	-0.124
-684.295	-200.000	-0.011	0.088
-683.281	407.611	-0.043	0.092
-682.266	-102.395	-0.195	-0.048
-681.251	-159.883	0.307	0.017
-680.237	-91.907	0.205	0.059
-679.222	0.141	0.070	-0.051
-678.208	-162.752	-0.112	-0.006
-677.193	-34.432	0.118	0.066
-676.178	85.380	0.199	-0.223
-675.164	-71.007	0.235	0.090
-674.149	207.663	-0.164	-0.261
-673.135	200.176	-0.104	0.163
-672.120	311.005	-0.051	-0.098
-671.105	-153.761	0.163	0.011
-670.091	-111.914	0.107	-0.022
-669.076	-92.748	-0.396	-0.113
-668.062	82.742	0.039	-0.043
-667.047	-79.382	0.038	-0.013
-666.032	-142.304	0.224	0.023
-665.018	-132.870	-0.067	0.009
-664.003	16.909	0.231	-0.187
-662.989	-32.152	-0.040	0.023
-661.974	-12.254	0.193	0.129
-660.959	-97.150	0.195	0.052
-659.945	-68.705	-0.078	-0.031
-658.930	62.777	0.074	0.076
-657.916	-185.624	-0.189	-0.003
-656.901	504.454	0.074	0.174
-655.886	-132.234	-0.126	-0.017
-654.872	-200.000	0.056	0.256
-653.857	-86.684	-0.375	-0.117
-652.843	78.069	0.159	0.173
-651.828	2.309	0.304	0.225
-650.814	-53.715	0.227	-0.106
-649.799	56.600	-0.110	0.110
-648.784	26.024	-0.206	0.175
-647.770	104.642	0.040	0.048
-646.755	140.730	-0.252	-0.340
-645.741	-117.332	0.213	-0.039
-644.726	-3.525	-0.059	0.042
-643.711	-185.061	0.099	-0.002
-642.697	-52.601	-0.282	0.133
-641.682	-164.815	0.322	-0.015
-640.668	235.144	-0.036	0.060
-639.653	29.815	0.352	0.306
-638.638	-116.192	-0.369	0.070
-637.624	800.000	-0.029	-0.114
-636.609	-136.191	0.218	-0.026
-635.595	40.013	0.274	0.251
-634.580	128.305	0.141	0.183
-633.565	800.000	0.039	0.167
-632.551	3.610	0.052	-0.039
-631.536	2.287	0.210	0.155
-630.522	484.887	-0.020	-0.047
-629.507	-44.791	0.212	-0.108
-628.492	118.837	0.225	0.284
-627.478	-21.501	-0.340	0.211
-626.463	81.160	-0.208	-0.230
-625.449	-1.759	0.226	-0.162
-624.434	800.000	-0.011	-0.051
-623.419	105.794	0.147	0.178
-622.405	-115.997	-0.046	-0.009
-621.390	-47.521	0.073	0.036
-620.376	401.392	0.099	0.212
-619.361	-200.000	-0.019	-0.150
-618.346	-200.000	-0.006	-0.270
-617.332	-80.024	0.096	-0.033
-616.317	73.970	-0.113	-0.120
-615.303	89.148	0.178	0.202
-614.288	181.665	-0.078	0.116
-613.273	409.379	-0.041	-0.089
-612.259	-200.000	0.015	-0.212
-611.244	47.304	-0.005	0.005
-610.230	252.336	-0.070	0.121
-609.215	-35.779	-0.315	0.174
-608.201	-155.761	0.172	-0.011
-607.186	800.000	-0.085	-0.305
-606.171	-100.984	0.052	0.013
-605.157	-126.716	-0.040	-0.006
-604.142	-100.438	0.323	-0.082
-603.128	164.228	-0.047	-0.068
-602.113	-200.000	-0.009	-0.353
-601.098	19.269	0.191	0.156
-600.084	-200.000	0.007	-0.060
-599.069	-5.713	0.197	0.137
-598.055	-112.651	0.202	-0.041
-597.040	-76.243	-0.230	0.083
-596.025	161.576	0.094	0.134
-595.011	-88.155	-0.214	-0.065
-593.996	263.022	-0.110	0.194
-592.982	-54.370	-0.228	0.105
-591.967	661.475	-0.068	-0.178
-590.952	-74.242	0.240	-0.088
-589.938	-120.151	-0.158	-0.028
-588.923	59.398	-0.180	-0.181
-587.909	800.000	-0.053	-0.181
-586.894	532.200	0.117	0.282
-585.879	-139.551	-0.063	0.007
-584.865	-179.858	-0.296	-0.006
-583.850	160.478	0.078	-0.110
-582.836	29.645	-0.315	0.273
-581.821	33.281	-0.163	-0.144
-580.806	133.969	-0.098	0.129
-579.792	156.024	0.255	-0.359
-578.777	141.968	-0.099	-0.134
-577.763	-187.321	-0.227	0.003
-576.748	109.267	-0.056	0.069
-575.733	209.371	-0.108	0.172
-574.719	-200.000	0.026	0.127
-573.704	172.637	-0.140	0.206
-572.690	52.653	-0.026	0.025
-571.675	800.000	0.042	-0.136
-570.661	122.472	0.269	-0.342
-569.646	43.655	-0.105	0.098
-568.631	163.598	0.139	0.200
-567.617	-14.063	0.182	-0.119
-566.602	-143.514	-0.294	-0.029
-565.588	192.581	-0.088	0.136
-564.573	-200.000	0.002	0.243
-563.558	-200.000	-0.024	-0.187
-562.544	-200.000	-0.047	-0.308
-561.529	156.243	-0.119	0.167
-560.515	-135.337	-0.372	-0.045
-559.500	-5.683	-0.129	-0.090
-558.485	-200.000	-0.005	0.220
-557.471	-44.153	0.133	0.068
-556.456	516.551	-0.157	-0.373
-555.442	-177.495	-0.132	0.003
-554.427	-200.000	-0.027	-0.334
-553.412	-200.000	0.057	0.317
-552.398	313.002	0.080	0.152
-551.383	-65.495	0.177	0.072
-550.369	-166.876	-0.233	-0.010
-549.354	-200.000	-0.052	-0.292
-548.339	-80.254	0.214	0.073
-547.325	-94.214	-0.095	0.026
-546.310	-200.000	-0.003	0.057
-545.296	-83.007	0.208	-0.068
-544.281	-147.136	0.139	0.012
-543.266	151.481	-0.083	-0.115
-542.252	-88.696	-0.178	0.054
-541.237	145.992	-0.258	-0.351
-540.223	-200.000	-0.001	-0.157
-539.208	-200.000	-0.001	0.031
-538.193	-200.000	-0.004	0.171
-537.179	800.000	0.052	-0.162
-536.164	37.532	0.263	-0.237
-535.150	-132.835	0.138	-0.018
-534.135	-122.131	0.148	0.025
-533.121	464.722	0.057	0.129
-532.106	-131.417	0.263	-0.035
-531.091	-200.000	-0.015	0.080
-530.077	-146.624	-0.199	-0.018
-529.062	44.742	0.052	0.049
-528.048	800.000	-0.093	-0.278
-527.033	-150.018	-0.146	0.012
-526.018	415.182	0.040	0.086
-525.004	-70.946	0.143	0.055
-523.989	190.153	-0.059	0.090
-522.975	-89.049	0.063	0.019
-521.960	-3.650	0.155	0.110
-520.945	-107.755	-0.045	0.010
-519.931	32.468	-0.159	0.139
-518.916	800.000	0.127	0.423
-517.902	-200.000	0.063	0.552
-516.887	-128.042	-0.102	-0.015
-515.872	-161.109	0.230	0.012
-514.858	-49.129	-0.422	-0.205
-513.843	-3.520	0.210	-0.148
-512.829	-200.000	-0.047	0.214
-511.814	-200.000	0.003	-0.049
-510.799	-29.450	0.029	0.017
-509.785	-200.000	-0.001	0.229
-508.770	19.419	0.265	0.216
-507.756	-93.624	-0.251	-0.070
-506.741	-101.830	-0.158	0.039
-505.726	283.693	-0.206	0.375
-504.712	-200.000	-0.016	-0.081
-503.697	401.705	0.067	-0.143
-502.683	-200.000	-0.000	0.178
-501.668	28.247	-0.272	0.233
-500.653	-200.000	-0.010	0.134
-499.639	-148.651	0.330	0.027
-498.624	-101.425	-0.168	-0.041
-497.610	-200.000	-0.019	-0.343
-496.595	-118.687	-0.089	0.016
-495.581	-124.388	-0.219	0.035
-494.566	-118.691	0.321	0.058
-493.551	-200.000	-0.031	-0.184
-492.537	51.554	-0.057	0.055
-491.522	496.009	0.085	-0.198
-490.508	340.412	-0.035	0.069
-489.493	44.437	-0.171	-0.159
-488.478	39.090	0.141	-0.128
-487.464	-131.454	0.217	0.029
-486.449	42.690	-0.200	0.185
-485.435	322.479	0.064	-0.123
-484.420	417.900	0.081	0.175
-483.405	562.427	-0.080	0.196
-482.391	-75.541	0.274	-0.099
-481.376	-131.170	0.252	-0.034
-480.362	-200.000	-0.026	0.239
-479.347	-200.000	0.079	-0.458
-478.332	-78.603	0.200	-0.069
-477.318	-126.483	0.136	0.020
-476.303	-200.000	0.027	-0.211
-475.289	800.000	0.037	-0.134
-474.274	-113.849	-0.078	-0.015
-473.259	279.631	0.139	-0.251
-472.245	9.258	-0.147	0.112
-471.230	-131.521	-0.102	-0.014
-470.216	-121.555	-0.159	-0.027
-469.201	-200.000	-0.001	-0.076
-468.186	-7.067	0.267	-0.184
-467.172	171.085	-0.099	0.144
-466.157	-72.638	-0.273	-0.102
-465.143	158.495	0.135	-0.190
-464.128	132.545	-0.179	-0.235
-463.113	208.851	0.087	-0.138
-462.099	109.380	-0.112	0.136
-461.084	3.264	0.294	0.217
-460.070	-62.042	-0.215	-0.091
-459.055	399.169	0.046	0.098
-458.040	-51.453	-0.187	0.088
-457.026	-200.000	-0.017	0.310
-456.011	-110.498	0.446	-0.094
-454.997	-151.010	0.387	0.030
-453.982	-36.953	0.087	-0.047
-452.968	-200.000	0.043	-0.459
-451.953	-60.033	0.107	-0.046
-450.938	800.000	0.072	-0.206
-449.924	-94.062	-0.450	0.125
-448.909	65.926	0.148	0.152
-447.895	-168.773	-0.042	-0.002
-446.880	205.946	-0.200	0.315
-445.865	-33.566	0.022	-0.012
-444.851	-43.774	0.259	-0.132
-443.836	-102.656	0.492	-0.119
-442.822	-157.025	-0.124	-0.008
-441.807	7.121	-0.307	-0.232
-440.792	-85.642	0.068	-0.021
-439.778	-200.000	-0.047	0.371
-438.763	40.712	0.215	-0.196
-437.749	-98.188	0.319	0.083
-436.734	-200.000	-0.003	0.052
-435.719	-29.132	0.199	0.116
-434.705	-111.089	0.367	0.076
-433.690	99.566	-0.245	0.287
-432.676	-64.912	-0.247	-0.101
-431.661	86.647	0.230	-0.257
-430.646	-200.000	-0.061	0.381
-429.632	30.372	-0.147	0.127
-428.617	13.348	0.242	-0.190
-427.603	-140.354	0.516	-0.055
-426.588	-3.991	0.132	-0.093
-425.573	-91.594	-0.209	0.060
-424.559	-67.885	0.078	-0.031
-423.544	-200.000	0.044	-0.349
-422.530	140.610	-0.220	-0.295
-421.515	32.639	0.210	-0.184
-420.500	-109.890	0.200	0.042
-419.486	-30.358	-0.251	-0.144
-418.471	176.773	0.126	-0.186
-417.457	-200.000	0.008	0.135
-416.442	-163.386	-0.205	-0.010
-415.428	-69.801	0.457	-0.177
-414.413	-200.000	0.022	0.110
-413.398	39.848	-0.109	0.099
-412.384	-4.295	-0.047	0.033
-411.369	-200.000	-0.009	-0.163
-410.355	379.876	-0.096	-0.199
-409.340	196.328	0.262	-0.403
-408.325	800.000	-0.046	0.179
-407.311	800.000	-0.081	-0.252
-406.296	32.599	-0.015	0.013
-405.282	-50.019	0.231	0.111
-404.267	-78.142	0.245	-0.085
-403.252	236.607	0.076	0.128
-402.238	178.257	-0.194	0.287
-401.223	82.464	0.200	0.220
-400.209	-200.000	-0.000	0.139
-399.194	428.571	-0.066	0.145
-398.179	-49.947	-0.108	0.052
-397.165	800.000	-0.042	-0.153
-396.150	-133.918	-0.215	-0.027
-395.136	-49.430	-0.132	-0.064
-394.121	-115.999	-0.316	0.059
-393.106	772.303	0.096	-0.265
-392.092	61.330	0.137	0.138
-391.077	-140.173	-0.256	0.027
-390.063	59.354	0.022	0.022
-389.048	800.000	0.035	0.112
-388.033	255.407	0.005	-0.009
-387.019	97.603	0.139	0.162
-386.004	-35.529	0.191	0.105
-384.990	68.234	0.186	0.192
-383.975	-200.000	-0.016	0.150
-382.960	-200.000	-0.031	0.150
-381.946	-200.000	0.046	0.249
-380.931	-102.349	0.095	-0.023
-379.917	-200.000	-0.031	0.460
-378.902	-71.669	0.135	-0.051
-377.888	-135.527	-0.415	0.050
-376.873	-20.549	0.317	0.196
-375.858	-63.958	0.070	0.029
-374.844	-32.988	0.254	0.142
-373.829	-122.704	0.364	0.059
-372.815	-200.000	0.026	0.140
-371.800	7.098	-0.162	0.122
-370.785	3.835	0.183	0.135
-369.771	165.852	0.037	0.052
-368.756	-17.522	-0.065	0.041
-367.742	-200.000	-0.010	0.090
-366.727	454.814	0.084	-0.187
-365.712	-31.637	-0.073	-0.042
-364.698	5.938	-0.125	-0.093
-363.683	-200.000	0.013	-0.207
-362.669	800.000	-0.078	-0.282
-361.654	22.126	-0.112	0.092
-360.639	62.843	0.115	0.116
-359.625	-4.166	0.266	-0.186
-358.610	-29.628	-0.010	0.006
-357.596	-41.943	0.076	0.039
-356.581	-39.112	0.159	0.084
-355.566	-2.239	-0.091	0.064
-354.552	294.787	0.133	0.246
-353.537	138.207	-0.130	-0.172
-352.523	57.742	-0.092	-0.090
-351.508	8.285	-0.385	-0.292
-350.493	162.263	-0.128	-0.180
-349.479	800.000	-0.036	0.145
-348.464	312.435	0.091	-0.172
-347.450	-116.729	-0.352	-0.065
-346.435	-140.106	-0.306	0.032
-345.420	-139.342	-0.397	0.043
-344.406	-200.000	0.019	0.236
-343.391	42.654	-0.101	-0.093
-342.377	800.000	-0.037	0.140
-341.362	15.981	0.257	0.204
-340.348	628.243	0.063	-0.161
-339.333	204.538	-0.318	-0.498
-338.318	-43.407	0.053	0.027
-337.304	-9.015	-0.307	-0.208
-336.289	-200.000	-0.017	0.100
-335.275	186.814	-0.258	-0.387
-334.260	34.718	0.122	0.107
-333.245	22.254	-0.029	-0.024
-332.231	-112.415	-0.103	0.021
-331.216	-200.000	0.012	0.261
-330.202	-38.408	-0.199	0.106
-329.187	-200.000	-0.096	-0.480
-328.172	126.236	-0.263	-0.335
-327.158	212.252	0.033	-0.052
-326.143	331.612	0.159	0.309
-325.129	-200.000	0.044	0.251
-324.114	515.909	0.094	0.222
-323.099	468.601	0.235	0.533
-322.085	-200.000	0.022	0.119
-321.070	141.163	-0.156	0.207
-320.056	-86.039	0.231	-0.072
-319.041	800.000	-0.043	0.127
-318.026	-125.464	0.105	0.016
-317.012	-43.112	-0.112	-0.057
-315.997	216.415	0.068	0.108
-314.983	72.258	0.102	0.107
-313.968	136.107	0.160	-0.210
-312.953	-6.565	0.162	0.111
-311.939	-7.651	-0.109	-0.074
-310.924	-200.000	-0.006	-0.239
-309.910	321.623	0.136	0.261
-308.895	128.763	0.140	-0.180
-307.880	-113.472	-0.218	0.043
-306.866	-200.000	-0.037	-0.243
-305.851	442.569	-0.161	-0.356
-304.837	-107.138	0.175	-0.039
-303.822	-147.862	0.342	0.029
-302.807	128.005	0.155	-0.198
-301.793	-157.864	0.323	-0.019
-300.778	-26.147	0.071	0.042
-299.764	352.958	0.032	-0.063
-298.749	-18.628	-0.415	-0.261
-297.735	800.000	0.105	-0.439
-296.720	800.000	-0.049	-0.206
-295.705	202.578	0.034	-0.053
-294.691	-3.441	0.254	0.178
-293.676	-200.000	-0.047	-0.471
-292.662	-200.000	-0.012	-0.227
-291.647	-6.858	0.114	0.078
-290.632	-12.167	-0.161	-0.106
-289.618	107.331	0.191	0.229
-288.603	144.443	0.046	0.062
-287.589	-148.849	-0.209	-0.017
-286.574	65.784	-0.107	-0.109
-285.559	193.067	0.162	-0.247
-284.545	-200.000	0.020	-0.112
-283.530	-53.246	-0.124	0.057
-282.516	408.001	0.102	0.217
-281.501	100.659	-0.291	0.340
-280.486	-200.000	0.028	0.137
-279.472	-200.000	-0.005	-0.085
-278.457	-200.000	0.007	0.146
-277.443	-121.055	-0.324	-0.055
-276.428	-25.460	-0.105	-0.062
-275.413	800.000	-0.031	-0.135
-274.399	-21.214	-0.167	0.103
-273.384	-200.000	-0.000	-0.205
-272.370	-127.810	0.309	-0.045
-271.355	-189.239	-0.459	-0.005
-270.340	-200.000	-0.003	-0.130
-269.326	800.000	0.046	0.175
-268.311	14.530	0.210	0.165
-267.297	263.200	-0.155	0.271
-266.282	352.974	-0.238	-0.474
-265.267	271.229	0.146	-0.259
-264.253	70.057	0.036	0.038
-263.238	72.988	0.198	0.208
-262.224	-200.000	-0.080	0.392
-261.209	-164.779	-0.131	-0.006
-260.195	242.418	0.119	-0.201
-259.180	-133.817	0.222	0.028
-258.165	-200.000	0.002	0.052
-257.151	110.944	0.131	-0.158
-256.136	340.207	-0.097	0.190
-255.122	-75.995	0.172	-0.061
-254.107	800.000	0.045	0.186
-253.092	-200.000	-0.054	0.242
-252.078	-200.000	0.027	0.141
-251.063	800.000	-0.051	0.168
-250.049	800.000	-0.070	0.277
-249.034	321.757	0.072	0.137
-248.019	19.548	0.201	-0.163
-247.005	-144.496	-0.399	-0.037
-245.990	-88.630	-0.256	-0.077
-244.976	195.138	0.080	-0.121
-243.961	-200.000	-0.000	-0.221
-242.946	281.947	-0.048	0.087
-241.932	37.758	0.162	0.145
-240.917	-101.174	-0.128	0.032
-239.903	330.068	-0.046	-0.089
-238.888	17.005	0.366	0.292
-237.873	-200.000	-0.016	-0.412
-236.859	177.482	-0.095	0.139
-235.844	54.263	-0.017	0.017
-234.830	2.773	0.243	-0.177
-233.815	28.542	0.212	-0.180
-232.800	-135.311	-0.153	0.018
-231.786	-42.932	0.057	0.029
-230.771	-200.000	0.012	-0.357
-229.757	58.252	0.418	-0.412
-228.742	56.065	-0.205	0.200
-227.727	-82.336	0.216	0.071
-226.713	-43.811	0.132	0.067
-225.698	57.879	0.170	0.167
-224.684	-111.845	0.241	0.049
-223.669	-6.259	-0.180	0.123
-222.655	5.663	-0.233	0.173
-221.640	-26.799	-0.214	-0.126
-220.625	147.113	0.027	0.036
-219.611	170.259	0.172	0.248
-218.596	330.497	-0.068	0.132
-217.582	-11.855	-0.051	0.034
-216.567	110.435	-0.143	0.172
-215.552	800.000	0.054	0.197
-214.538	-200.000	-0.039	-0.190
-213.523	-200.000	-0.001	0.011
-212.509	-200.000	-0.007	0.159
-211.494	-158.641	0.218	-0.013
-210.479	299.402	-0.089	-0.164
-209.465	-15.766	-0.132	-0.084
-208.450	66.295	0.090	-0.091
-207.436	-200.000	-0.070	-0.385
-206.421	108.979	0.100	-0.121
-205.406	148.994	-0.255	-0.347
-204.392	138.918	0.245	0.324
-203.377	347.795	-0.228	0.451
-202.363	500.069	-0.118	0.272
-201.348	73.215	-0.082	0.086
-200.333	-71.458	-0.215	-0.081
-199.319	-32.565	0.208	0.117
-198.304	286.031	0.099	-0.178
-197.290	-23.354	0.237	-0.143
-196.275	800.000	0.035	0.105
-195.260	-52.058	-0.479	0.223
-194.246	92.850	-0.054	-0.061
-193.231	800.000	0.016	0.051
-192.217	-41.571	-0.175	-0.090
-191.202	-118.616	-0.137	-0.024
-190.187	-49.766	-0.377	-0.180
-189.173	-57.116	-0.188	-0.083
-188.158	-14.439	-0.259	-0.167
-187.144	-72.466	0.215	-0.080
-186.129	792.050	-0.032	-0.087
-185.114	91.157	-0.135	0.152
-184.100	-104.257	0.310	0.072
-183.085	40.536	0.320	-0.289
-182.071	-169.023	0.071	-0.003
-181.056	-142.280	-0.047	-0.005
-180.042	800.000	-0.117	-0.334
-179.027	-108.668	-0.123	-0.026
-178.012	154.359	-0.077	-0.106
-176.998	-16.532	-0.248	-0.157
-175.983	28.170	0.165	0.139
-174.969	800.000	-0.040	-0.143
-173.954	-56.158	-0.123	-0.055
-172.939	800.000	-0.103	0.340
-171.925	-93.141	0.188	0.052
-170.910	800.000	-0.122	0.396
-169.896	102.924	-0.194	-0.227
-168.881	-158.196	-0.070	-0.004
-167.866	84.623	-0.150	0.165
-166.852	113.797	-0.028	-0.034
-165.837	-200.000	-0.069	-0.494
-164.823	-55.736	-0.317	0.142
-163.808	-200.000	-0.004	0.037
-162.793	-200.000	0.017	0.205
-161.779	-76.550	0.129	0.045
-160.764	106.958	-0.254	-0.303
-159.750	-45.645	-0.129	0.064
-158.735	268.325	0.141	-0.247
-157.720	-17.565	0.249	0.157
-156.706	-39.862	0.047	-0.024
-155.691	-128.627	-0.262	0.037
-154.677	-76.384	0.174	-0.061
-153.662	-200.000	0.002	0.215
-152.647	87.104	0.075	-0.083
-151.633	106.894	-0.231	0.275
-150.618	295.881	-0.077	0.141
-149.604	800.000	0.100	-0.316
-148.589	-111.325	-0.318	0.065
-147.574	103.865	0.240	-0.282
-146.560	-124.960	0.137	-0.021
-145.545	30.424	-0.050	-0.043
-144.531	-120.906	-0.169	0.028
-143.516	800.000	-0.046	0.156
-142.502	32.107	0.016	0.014
-141.487	501.245	-0.061	0.140
-140.472	9.507	0.099	-0.075
-139.458	294.629	-0.006	-0.011
-138.443	800.000	0.027	0.077
-137.429	-65.763	-0.274	0.110
-136.414	166.397	0.063	-0.089
-135.399	-24.674	0.242	-0.144
-134.385	-166.035	-0.075	-0.003
-133.370	-42.777	0.319	-0.163
-132.356	-200.000	-0.025	-0.129
-131.341	-200.000	-0.081	-0.422
-130.326	-200.000	0.023	-0.149
-129.312	-200.000	-0.002	-0.090
-128.297	-165.876	0.296	-0.013
-127.283	111.340	0.215	0.259
-126.268	-200.000	-0.017	0.196
-125.253	-124.635	0.404	0.063
-124.239	800.000	0.114	-0.331
-123.224	-57.534	0.113	-0.050
-122.210	200.084	0.159	0.243
-121.195	800.000	0.045	-0.192
-120.180	-200.000	-0.015	0.282
-119.166	-90.611	0.219	0.063
-118.151	65.373	-0.090	0.091
-117.137	60.669	-0.194	0.192
-116.122	-151.787	0.238	-0.017
-115.107	241.214	-0.183	-0.305
-114.093	-23.272	-0.044	0.027
-113.078	-200.000	0.041	0.201
-112.064	-170.733	-0.289	0.010
-111.049	-27.249	-0.349	-0.203
-110.034	-88.109	0.298	0.089
-109.020	206.861	-0.029	0.045
-108.005	123.029	-0.232	0.290
-106.991	-64.216	-0.518	0.211
-105.976	270.599	-0.098	0.171
-104.962	-168.710	0.208	0.008
-103.947	160.359	0.296	0.413
-102.932	289.984	0.074	-0.134
-101.918	68.089	-0.175	0.179
-100.903	-18.932	0.205	0.127
-99.889	-101.512	-0.211	-0.051
-98.874	-200.000	-0.011	-0.206
-97.859	-146.968	-0.103	-0.009
-96.845	-53.517	-0.064	-0.029
-95.830	-43.497	-0.040	0.020
-94.816	322.689	-0.120	-0.228
-93.801	800.000	0.082	0.252
-92.786	-34.868	0.277	0.151
-91.772	19.589	-0.106	0.085
-90.757	75.327	-0.088	-0.093
-89.743	150.988	0.077	0.104
-88.728	111.623	0.214	-0.258
-87.713	-16.778	-0.200	-0.126
-86.699	-33.006	0.342	0.190
-85.684	-200.000	0.051	0.262
-84.670	32.342	0.253	-0.218
-83.655	-108.708	0.092	0.020
-82.640	-168.157	-0.210	-0.008
-81.626	-104.260	-0.149	-0.034
-80.611	180.429	-0.078	-0.115
-79.597	306.162	-0.099	0.184
-78.582	-200.000	0.019	0.183
-77.567	-168.925	0.215	0.008
-76.553	-47.101	0.057	0.028
-75.538	-145.632	-0.085	0.008
-74.524	56.213	0.084	-0.082
-73.509	-21.147	0.226	0.138
-72.494	117.630	0.100	0.123
-71.480	-25.185	-0.387	-0.229
-70.465	-200.000	0.013	0.084
-69.451	-200.000	-0.004	-0.071
-68.436	-185.212	-0.269	0.004
-67.422	158.985	0.069	0.096
-66.407	164.017	-0.233	-0.327
-65.392	-200.000	-0.018	-0.144
-64.378	-200.000	-0.034	-0.340
-63.363	-9.552	-0.138	-0.092
-62.349	800.000	-0.092	-0.267
-61.334	-50.664	-0.943	-0.443
-60.319	-200.000	-0.025	0.570
-59.305	-200.000	0.133	-0.684
-58.290	800.000	0.271	0.948
-57.276	509.223	0.799	1.853
-56.261	-200.000	74.018	528.762
-55.246	572.516	1298.482	3156.595
-54.232	146.261	2523.144	3378.422
-53.217	121.342	2244.848	2789.237
-52.203	54.496	1762.026	1693.715
-51.188	46.655	1556.510	1441.568
-50.173	43.553	1527.016	1392.868
-49.159	59.335	1561.679	1534.410
-48.144	66.275	1581.402	1601.869
-47.130	46.817	1545.501	1432.274
-46.115	43.133	1530.840	1393.232
-45.100	42.989	1527.216	1388.886
-44.086	42.854	1525.363	1386.216
-43.071	42.772	1523.663	1384.049
-42.057	42.697	1521.917	1381.895
-41.042	42.783	1519.912	1380.611
-40.027	42.790	1518.875	1379.665
-39.013	42.815	1517.474	1378.506
-37.998	42.837	1516.166	1377.417
-36.984	42.822	1515.038	1376.235
-35.969	42.974	1513.132	1375.482
-34.954	42.831	1512.285	1373.684
-33.940	42.795	1510.789	1372.026
-32.925	42.803	1508.995	1370.399
-31.911	42.848	1507.895	1369.649
-30.896	43.014	1506.048	1369.045
-29.881	42.905	1504.936	1367.236
-28.867	42.930	1503.568	1366.112
-27.852	42.887	1502.426	1364.729
-26.838	42.811	1501.375	1363.203
-25.823	42.851	1499.438	1361.660
-24.809	42.842	1497.260	1359.568
-23.794	42.789	1496.334	1358.320
-22.779	42.882	1494.773	1357.477
-21.765	42.931	1493.685	1356.762
-20.750	42.830	1492.672	1355.109
-19.736	42.855	1491.851	1354.474
-18.721	42.849	1490.160	1352.846
-17.706	42.761	1489.039	1351.184
-16.692	42.749	1487.766	1349.896
-15.677	42.856	1486.851	1349.732
-14.663	42.737	1485.806	1347.930
-13.648	42.773	1484.805	1347.209
-12.633	42.835	1483.682	1346.549
-11.619	42.904	1482.620	1345.996
-10.604	42.733	1482.495	1344.685
-9.590	42.773	1481.137	1343.668
-8.575	42.885	1480.231	1343.539
-7.560	42.786	1479.744	1342.384
-6.546	42.751	1478.624	1341.079
-5.531	42.761	1478.021	1340.548
-4.517	42.728	1477.010	1339.358
-3.502	42.688	1476.378	1338.464
-2.487	42.776	1474.562	1337.349
-1.473	42.772	1473.819	1336.599
-0.458	42.915	1471.820	1335.682
0.556	42.023	1463.433	1326.649
1.571	39.532	1436.557	1285.937
2.586	36.098	1374.487	1208.776
3.600	34.216	1291.719	1124.784
4.615	32.100	1243.810	1070.917
5.629	26.468	1184.529	989.095
6.644	13.346	1089.966	843.574
7.659	2.855	1040.448	753.877
8.673	1.189	1034.506	741.367
9.688	0.984	1031.504	738.151
10.702	0.713	1030.303	735.907
11.717	0.845	1028.610	735.276
12.731	5.005	1034.005	759.359
13.746	16.663	1050.806	829.035
14.761	23.774	1059.254	870.605
15.775	23.661	1057.750	868.738
16.790	23.434	1056.858	866.821
17.804	23.294	1056.189	865.508
18.819	23.063	1055.396	863.655
19.834	23.099	1054.782	863.252
20.848	23.125	1054.442	863.022
21.863	23.259	1053.915	863.168
22.877	23.185	1053.959	862.769
23.892	23.192	1052.968	861.913
24.907	23.049	1052.169	860.488
25.921	23.163	1051.358	860.305
26.936	23.238	1050.262	859.697
27.950	23.133	1049.278	858.302
28.965	23.141	1048.204	857.387
29.980	22.925	1046.766	855.093
30.994	22.840	1045.512	853.581
32.009	23.160	1044.920	854.568
33.023	23.278	1044.022	854.327
34.038	23.095	1042.520	852.143
35.053	22.937	1042.402	851.206
36.067	23.176	1041.604	851.633
37.082	23.155	1040.740	850.746
38.096	23.118	1040.245	850.089
39.111	23.341	1039.575	850.538
40.126	23.489	1038.546	850.329
41.140	23.300	1037.800	848.738
42.155	23.056	1036.101	846.109
43.169	22.841	1034.551	843.738
44.184	22.724	1033.544	842.286
45.199	22.930	1032.669	842.481
46.213	22.767	1032.093	841.157
47.228	22.722	1031.226	840.162
48.242	22.875	1030.463	840.194
49.257	22.956	1029.721	839.901
50.271	23.103	1028.745	839.727
51.286	23.160	1028.060	839.364
52.301	23.197	1027.498	839.009
53.315	23.197	1026.855	838.408
54.330	23.247	1025.659	837.594
55.344	23.021	1024.825	835.772
56.359	23.116	1024.130	835.580
57.374	23.117	1023.372	834.891
58.388	22.919	1022.511	833.181
59.403	23.001	1021.422	832.604
60.417	22.928	1020.784	831.671
61.432	22.749	1020.258	830.324
62.447	22.785	1019.486	829.793
63.461	22.833	1019.440	829.907
64.476	22.935	1018.566	829.603
65.490	22.920	1017.393	828.500
66.505	22.793	1016.244	826.899
67.520	22.793	1015.807	826.470
68.534	22.801	1015.273	826.000
69.549	22.749	1014.023	824.666
70.563	22.538	1012.347	822.247
71.578	22.366	1012.207	821.256
72.593	22.532	1011.131	821.082
73.607	22.338	1009.800	819.029
74.622	22.265	1008.921	817.905
75.636	22.601	1008.502	819.051
76.651	22.797	1007.283	818.898
77.666	22.742	1006.737	818.127
78.680	22.541	1005.702	816.282
79.695	22.643	1005.067	816.170
80.709	22.713	1004.684	816.110
81.724	22.765	1003.999	815.721
82.739	22.631	1002.966	814.193
83.753	22.717	1002.629	814.242
84.768	23.031	1001.842	814.978
85.782	23.312	1001.131	815.623
86.797	23.476	1000.686	815.942
87.812	23.543	999.406	815.134
88.826	23.338	998.754	813.589
89.841	23.224	998.038	812.412
90.855	23.441	997.189	812.642
91.870	23.295	996.343	811.210
92.884	23.404	995.283	810.776
93.899	23.277	994.325	809.342
94.914	23.203	993.325	808.122
95.928	23.322	992.553	807.966
96.943	23.286	992.259	807.489
97.957	22.945	990.772	804.652
98.972	22.891	989.518	803.317
99.987	22.617	988.802	801.420
101.001	22.805	987.693	801.304
102.016	22.996	987.490	801.936
103.030	23.016	986.957	801.524
104.045	23.066	985.645	800.614
105.060	22.848	984.635	798.737
106.074	22.716	983.272	796.962
107.089	22.719	982.357	796.166
108.103	23.009	982.323	797.373
109.118	23.189	981.246	797.241
110.133	22.933	980.348	795.289
111.147	22.960	978.985	794.234
112.162	22.837	977.929	792.754
113.176	22.535	976.677	790.315
114.191	22.771	976.024	790.776
115.206	22.801	974.800	789.848
116.220	22.504	974.032	787.826
117.235	22.398	972.781	786.274
118.249	22.469	972.487	786.283
119.264	22.538	971.708	785.891
120.279	22.369	970.600	784.170
121.293	22.385	970.107	783.778
122.308	22.420	969.839	783.644
123.322	22.624	968.167	783.129
124.337	22.522	967.564	782.123
125.352	22.453	966.308	780.730
126.366	22.090	964.860	777.885
127.381	21.734	963.517	775.157
128.395	22.172	963.195	776.769
129.410	22.997	962.758	779.989
130.424	23.117	961.782	779.656
131.439	23.172	960.993	779.193
132.454	22.928	960.393	777.562
133.468	23.068	959.546	777.424
134.483	23.032	958.517	776.363
135.497	23.092	957.602	775.818
136.512	23.224	957.379	776.148
137.527	23.337	956.720	776.040
138.541	23.255	956.143	775.144
139.556	23.400	954.821	774.637
140.570	23.461	953.719	773.940
141.585	23.344	953.147	772.895
142.600	23.433	952.758	772.900
143.614	23.264	951.846	771.357
144.629	23.500	951.007	771.637
145.643	23.671	950.248	771.693
146.658	23.506	949.327	770.163
147.673	23.215	948.479	768.143
148.687	23.377	946.935	767.527
149.702	23.045	946.104	765.350
150.716	23.019	944.678	764.016
151.731	22.988	944.065	763.317
152.746	23.114	943.173	763.073
153.760	23.242	942.942	763.371
154.775	23.425	941.861	763.215
155.789	23.417	941.086	762.485
156.804	23.316	940.316	761.361
157.819	23.335	938.892	760.219
158.833	23.387	938.568	760.117
159.848	23.568	937.490	759.950
160.862	23.490	936.906	759.074
161.877	23.370	935.938	757.713
162.892	23.311	934.896	756.548
163.906	23.324	934.448	756.175
164.921	23.318	933.274	755.131
165.935	23.347	932.284	754.386
166.950	23.361	931.137	753.451
167.964	23.383	930.082	752.625
168.979	23.412	929.497	752.207
169.994	23.333	928.172	750.735
171.008	23.174	927.386	749.358
172.023	23.277	926.403	748.936
173.037	23.461	925.953	749.282
174.052	23.277	924.872	747.563
175.067	23.136	923.509	745.802
176.081	23.102	923.267	745.397
177.096	23.156	922.314	744.789
178.110	23.291	921.197	744.389
179.125	22.973	920.193	742.177
180.140	22.665	919.548	740.298
181.154	22.695	918.810	739.762
182.169	22.849	918.199	739.854
183.183	22.949	918.115	740.138
184.198	23.509	917.644	742.036
185.213	23.209	917.056	740.239
186.227	23.182	916.388	739.522
187.242	23.255	915.946	739.408
188.256	23.515	914.643	739.373
189.271	23.392	914.052	738.316
190.286	23.561	913.103	738.187
191.300	23.308	912.660	736.711
192.315	22.913	910.843	733.541
193.329	22.106	909.448	729.003
194.344	21.590	908.992	726.435
195.359	22.248	908.849	728.986
196.373	22.966	908.966	731.988
197.388	23.215	909.135	733.091
198.402	23.340	908.028	732.654
199.417	23.081	907.649	731.208
200.432	23.273	907.315	731.669
201.446	23.121	906.410	730.248
202.461	22.745	905.621	727.996
203.475	22.856	905.213	728.061
204.490	22.617	903.290	725.467
205.504	21.469	901.212	719.017
206.519	21.800	901.244	720.339
207.534	22.671	902.035	724.489
208.548	22.875	901.340	724.704
209.563	23.232	901.088	725.900
210.577	23.221	900.468	725.293
211.592	22.955	899.622	723.457
212.607	23.303	899.567	724.776
213.621	23.561	899.121	725.406
214.636	23.404	898.284	724.026
215.650	23.487	897.832	723.936
216.665	23.462	896.723	722.876
217.680	23.269	896.889	722.157
218.694	23.455	895.894	722.050
219.709	23.265	895.005	720.496
220.723	22.716	894.353	717.675
221.738	22.997	893.692	718.226
222.753	23.256	892.891	718.569
223.767	23.321	892.365	718.345
224.782	23.237	891.937	717.596
225.796	23.468	891.293	717.950
226.811	23.658	890.469	717.990
227.826	23.245	889.533	715.505
228.840	22.527	887.998	711.307
229.855	22.182	887.617	709.546
230.869	22.495	887.161	710.383
231.884	22.281	885.927	708.472
232.899	22.277	885.587	708.121
233.913	23.001	885.541	710.933
234.928	23.217	885.367	711.599
235.942	23.210	884.497	710.808
236.957	23.280	883.742	710.420
237.972	22.858	883.270	708.286
238.986	22.741	882.153	706.858
240.001	22.926	881.474	706.991
241.015	23.119	880.687	707.073
242.030	22.990	880.324	706.200
243.045	23.216	879.901	706.703
244.059	23.277	879.297	706.399
245.074	23.575	878.674	707.023
246.088	23.295	878.673	705.844
247.103	23.012	877.359	703.598
248.117	23.000	877.073	703.260
249.132	23.538	876.906	705.205
250.147	23.986	876.789	706.825
251.161	23.933	876.313	706.170
252.176	24.107	875.577	706.203
253.190	24.079	875.068	705.620
254.205	24.111	874.730	705.410
255.220	24.300	874.640	706.025
256.234	24.362	873.445	705.242
257.249	24.156	872.862	703.896
258.263	24.003	872.554	702.981
259.278	23.920	871.878	702.048
260.293	24.140	871.323	702.405
261.307	24.140	871.080	702.146
262.322	24.180	869.991	701.366
263.336	24.072	869.238	700.273
264.351	23.565	868.280	697.443
265.366	22.445	866.267	691.370
266.380	22.010	865.063	688.645
267.395	22.961	865.349	692.540
268.409	23.722	865.402	695.502
269.424	23.734	864.834	695.033
270.439	23.879	864.408	695.194
271.453	23.958	863.831	694.976
272.468	23.877	863.460	694.302
273.482	24.137	863.236	695.075
274.497	24.204	862.703	694.844
275.512	24.181	861.218	693.496
276.526	23.361	860.526	689.688
277.541	23.692	859.652	690.214
278.555	23.918	859.758	691.117
279.570	23.819	858.858	689.946
280.585	23.622	858.119	688.527
281.599	23.687	857.421	688.159
282.614	23.852	856.716	688.172
283.628	23.506	855.782	686.024
284.643	23.165	854.994	684.011
285.657	23.561	855.371	685.785
286.672	23.424	854.610	684.584
287.687	22.885	853.649	681.674
288.701	23.067	853.292	682.032
289.716	23.705	852.659	683.922
290.730	23.371	852.168	682.181
291.745	23.176	851.714	681.010
292.760	22.973	850.799	679.435
293.774	22.941	850.003	678.616
294.789	23.801	850.424	682.195
295.803	24.466	850.580	684.815
296.818	24.494	850.178	684.537
297.833	24.563	849.844	684.473
298.847	24.497	848.573	683.135
299.862	23.934	847.417	679.992
300.876	24.143	847.121	680.493
301.891	24.464	846.747	681.359
302.906	24.508	846.158	680.993
303.920	24.121	845.201	678.687
304.935	23.992	844.419	677.506
305.949	24.340	844.444	678.789
306.964	24.440	843.947	678.713
307.979	24.231	843.165	677.231
308.993	24.029	842.708	676.035
310.008	24.480	842.567	677.574
311.022	24.677	842.109	677.892
312.037	24.361	841.361	676.035
313.052	24.245	840.826	675.105
314.066	24.164	840.047	674.111
315.081	23.477	838.698	670.375
316.095	22.786	837.275	666.569
317.110	23.233	837.334	668.244
318.125	24.084	837.852	671.811
319.139	23.734	837.204	669.914
320.154	22.570	835.191	663.862
321.168	21.962	834.290	660.799
322.183	22.718	834.524	663.771
323.197	23.701	834.732	667.575
324.212	23.975	834.393	668.275
325.227	24.139	834.237	668.705
326.241	24.234	833.665	668.543
327.256	24.132	832.931	667.513
328.270	24.120	832.565	667.118
329.285	24.100	831.575	666.189
330.300	23.864	830.588	664.457
331.314	23.735	830.118	663.542
332.329	23.645	829.729	662.836
333.343	24.267	829.256	664.719
334.358	24.408	828.972	664.959
335.373	24.287	828.766	664.284
336.387	24.371	828.108	664.008
337.402	24.549	827.661	664.256
338.416	24.902	826.985	664.966
339.431	24.649	826.689	663.728
340.446	24.681	826.210	663.405
341.460	24.937	825.713	663.894
342.475	24.939	824.977	663.251
343.489	24.832	824.423	662.354
344.504	24.670	823.781	661.178
345.519	24.812	823.571	661.476
346.533	25.233	822.882	662.421
347.548	25.180	822.893	662.175
348.562	25.067	822.411	661.309
349.577	25.407	821.704	661.938
350.592	25.023	821.065	659.951
351.606	25.140	820.385	659.775
352.621	25.154	820.103	659.542
353.635	25.042	819.449	658.545
354.650	24.838	818.972	657.354
355.665	24.607	818.100	655.751
356.679	23.642	816.673	651.010
357.694	23.481	816.002	649.829
358.708	23.999	816.416	651.999
359.723	24.048	815.402	651.311
360.738	24.289	815.099	651.893
361.752	24.715	815.209	653.478
362.767	24.851	814.584	653.416
363.781	25.033	814.624	654.054
364.796	25.372	814.505	655.140
365.810	25.401	814.135	654.889
366.825	25.446	813.840	654.757
367.840	25.437	813.335	654.259
368.854	25.400	812.510	653.405
369.869	24.906	811.967	651.112
370.883	24.776	810.967	649.784
371.898	24.847	810.636	649.718
372.913	24.783	809.915	648.852
373.927	24.682	809.566	648.148
374.942	24.899	808.943	648.376
375.956	25.075	808.179	648.344
376.971	25.036	807.935	647.949
377.986	25.207	807.249	647.960
379.000	25.402	806.913	648.335
380.015	25.435	806.437	648.015
381.029	25.364	805.408	646.878
382.044	25.292	804.982	646.219
383.059	25.411	804.830	646.466
384.073	25.436	804.342	646.105
385.088	25.623	803.416	645.979
386.102	25.474	803.096	645.127
387.117	25.226	802.314	643.553
388.132	25.164	801.981	643.006
389.146	25.121	800.996	642.008
390.161	24.581	799.951	639.179
391.175	24.463	799.912	638.671
392.190	25.121	799.808	640.884
393.205	25.212	799.386	640.813
394.219	24.229	797.896	636.057
395.234	22.545	795.734	628.278
396.248	21.739	794.604	624.461
397.263	22.679	795.640	628.569
398.278	24.570	796.805	636.178
399.292	25.246	796.206	638.047
400.307	24.668	796.194	635.927
401.321	24.700	795.243	635.223
402.336	24.833	795.110	635.532
403.350	25.083	795.026	636.299
404.365	25.427	795.082	637.507
405.380	25.777	794.808	638.471
406.394	26.055	794.189	638.902
407.409	26.118	794.191	639.071
408.423	26.187	793.769	638.918
409.438	26.222	792.564	638.016
410.453	26.027	792.602	637.302
411.467	26.140	792.391	637.474
412.482	26.183	791.239	636.643
413.496	25.944	791.292	635.786
414.511	26.108	791.050	636.113
415.526	26.376	790.281	636.384
416.540	26.163	790.261	635.559
417.555	26.206	789.440	634.994
418.569	25.805	788.890	633.089
419.584	25.767	788.148	632.304
420.599	25.860	787.722	632.230
421.613	88.110	1245.367	1330.309
422.628	74.928	1312.102	1330.438
