DTS Sentinel unit serial number:	SN413079Multiplexer serial number:	ORYXHardware model number:	OX4-SRSoftware version number:	ORYX F/W v4.00 Oryx Data Collector v3.7.2.0data status	okinstallation	princeton_trtdifferential loss correction	single-endedforward channel	channel 3reverse channel	N/Adate	2019/09/11time	12:38:11forward acquisition time	60.00reverse acquisition time	0.00gamma	496.2192k internal	0.2294k external	0.2294temperature offset calibration	0.9935default loss term (dB/km)	0.3790temperature slope calibration	1.0000multiplexer offset coefficient	1.0000multiplexer slope coefficient	1.0000fibre end	0.00T internal ref (°C)	40.77T ext. ref 1 (°C)	0.20T ext. ref 2 (°C)	38.37length (m)	temperature (°C)	Stokes	anti-Stokes-747.200	800.000	-0.074	0.306
-746.185	-200.000	0.045	0.439
-745.171	117.557	-0.112	0.141
-744.156	-200.000	0.043	0.519
-743.142	-200.000	-0.006	-0.062
-742.127	72.919	0.138	0.147
-741.112	82.020	-0.197	0.218
-740.098	648.469	0.113	0.296
-739.083	-78.486	0.147	0.052
-738.069	-48.474	0.101	-0.050
-737.054	66.643	-0.253	0.263
-736.039	38.904	-0.193	-0.176
-735.025	82.937	0.130	0.144
-734.010	-200.000	-0.008	0.056
-732.996	-37.440	-0.468	0.256
-731.981	541.374	0.053	-0.128
-730.966	800.000	0.105	0.333
-729.952	-83.268	0.089	0.029
-728.937	496.717	0.129	0.304
-727.923	-94.927	-0.355	0.098
-726.908	-136.345	0.267	0.032
-725.894	-200.000	-0.018	-0.284
-724.879	-59.356	-0.391	-0.172
-723.864	-72.320	-0.184	-0.070
-722.850	800.000	0.144	-0.425
-721.835	-200.000	0.015	-0.465
-720.821	-6.999	0.158	-0.110
-719.806	-200.000	-0.035	-0.159
-718.791	-147.615	-0.398	-0.034
-717.777	800.000	-0.084	0.354
-716.762	-10.562	-0.236	0.160
-715.748	162.978	0.104	-0.149
-714.733	-117.699	-0.465	-0.086
-713.718	167.384	0.123	0.179
-712.704	362.163	-0.165	-0.339
-711.689	-200.000	-0.005	0.204
-710.675	-200.000	0.028	0.311
-709.660	-200.000	0.065	-0.408
-708.645	-194.984	0.325	0.003
-707.631	100.829	-0.121	-0.143
-706.616	483.223	0.126	-0.292
-705.602	117.514	0.026	0.033
-704.587	345.498	-0.173	-0.347
-703.572	252.767	0.153	-0.266
-702.558	29.756	0.259	-0.226
-701.543	-66.674	-0.216	-0.087
-700.529	-90.039	-0.077	0.023
-699.514	-60.717	0.135	-0.058
-698.499	-67.829	-0.635	-0.253
-697.485	778.969	-0.084	-0.234
-696.470	-5.737	-0.263	0.184
-695.456	-121.018	0.332	-0.057
-694.441	-128.954	0.097	0.014
-693.426	-57.624	-0.212	0.095
-692.412	800.000	-0.105	0.379
-691.397	800.000	0.105	0.310
-690.383	121.147	-0.054	-0.068
-689.368	-102.415	0.333	0.081
-688.354	-123.122	-0.129	-0.021
-687.339	800.000	0.055	-0.170
-686.324	-200.000	-0.066	-0.339
-685.310	-200.000	-0.021	-0.319
-684.295	-32.040	0.129	0.073
-683.281	12.066	0.099	0.078
-682.266	353.747	-0.084	0.170
-681.251	800.000	0.106	0.409
-680.237	102.829	0.114	0.137
-679.222	134.841	-0.035	-0.046
-678.208	-154.632	0.308	-0.021
-677.193	-149.587	0.228	0.018
-676.178	800.000	-0.036	-0.121
-675.164	37.084	0.254	0.229
-674.149	-200.000	0.005	0.276
-673.135	123.387	0.338	0.432
-672.120	434.337	0.161	0.357
-671.105	257.160	-0.044	0.077
-670.091	-35.166	0.037	-0.020
-669.076	-23.071	0.211	0.130
-668.062	-114.711	-0.124	0.024
-667.047	-37.782	-0.184	0.100
-666.032	612.308	-0.150	-0.382
-665.018	136.285	0.213	-0.283
-664.003	-92.325	0.269	0.077
-662.989	-200.000	-0.035	0.293
-661.974	212.228	-0.140	-0.225
-660.959	800.000	0.036	-0.159
-659.945	-185.952	-0.267	0.004
-658.930	-9.765	-0.230	-0.156
-657.916	800.000	0.006	0.024
-656.901	800.000	0.038	-0.164
-655.886	800.000	0.094	-0.339
-654.872	-113.785	-0.251	0.050
-653.857	182.055	0.154	0.231
-652.843	364.623	-0.090	-0.184
-651.828	227.131	0.100	-0.166
-650.814	346.908	-0.083	0.167
-649.799	-46.782	0.082	-0.041
-648.784	-149.724	0.191	-0.015
-647.770	-200.000	-0.004	-0.162
-646.755	142.825	-0.214	0.289
-645.741	-154.926	-0.027	0.002
-644.726	-42.733	-0.159	-0.082
-643.711	113.322	-0.060	0.074
-642.697	9.681	0.047	-0.037
-641.682	-5.528	0.057	0.040
-640.668	-131.822	-0.442	-0.059
-639.653	-12.164	0.213	0.142
-638.638	-200.000	0.030	0.244
-637.624	291.953	0.040	-0.075
-636.609	-28.825	-0.059	-0.034
-635.595	-99.137	0.160	-0.041
-634.580	-16.513	0.176	-0.113
-633.565	-200.000	-0.041	-0.261
-632.551	-6.721	-0.333	-0.231
-631.536	-160.026	0.406	-0.023
-630.522	-116.398	0.276	0.052
-629.507	-97.285	-0.246	0.065
-628.492	-71.047	-0.045	0.017
-627.478	243.759	-0.052	-0.089
-626.463	-29.720	-0.183	-0.106
-625.449	800.000	-0.058	-0.219
-624.434	-200.000	-0.024	0.119
-623.419	-96.345	-0.135	-0.036
-622.405	442.217	-0.059	-0.131
-621.390	111.140	-0.081	-0.100
-620.376	-160.573	-0.156	-0.008
-619.361	122.383	0.309	0.393
-618.346	-67.414	-0.469	0.188
-617.332	3.194	0.116	-0.086
-616.317	800.000	0.064	-0.249
-615.303	-11.500	-0.193	-0.129
-614.288	95.701	0.120	-0.139
-613.273	114.106	0.045	0.055
-612.259	-200.000	0.027	-0.142
-611.244	66.222	-0.123	0.127
-610.230	-57.030	-0.149	-0.067
-609.215	479.036	0.093	-0.215
-608.201	-117.795	0.115	0.021
-607.186	-200.000	0.069	0.399
-606.171	-200.000	-0.082	-0.369
-605.157	-76.831	-0.302	-0.107
-604.142	-113.906	0.278	-0.055
-603.128	-163.946	-0.176	0.008
-602.113	-56.485	0.312	-0.141
-601.098	800.000	0.076	0.228
-600.084	139.822	0.221	0.297
-599.069	-54.650	-0.224	-0.103
-598.055	75.889	-0.064	-0.069
-597.040	16.899	-0.149	-0.120
-596.025	-129.377	0.359	0.051
-595.011	135.792	0.092	-0.122
-593.996	-83.198	-0.142	0.046
-592.982	-137.812	-0.213	-0.024
-591.967	-79.999	-0.257	-0.088
-590.952	741.245	-0.069	0.189
-589.938	800.000	0.085	0.250
-588.923	-51.795	-0.086	-0.041
-587.909	-116.077	-0.066	-0.013
-586.894	-119.234	0.224	-0.040
-585.879	-43.221	0.302	-0.155
-584.865	-200.000	0.016	-0.162
-583.850	-119.526	-0.306	0.054
-582.836	-188.294	0.310	-0.004
-581.821	-200.000	-0.010	-0.065
-580.806	336.129	0.099	-0.195
-579.792	-56.686	-0.073	-0.033
-578.777	288.471	0.095	-0.175
-577.763	-104.607	-0.125	-0.029
-576.748	-78.276	-0.101	-0.035
-575.733	-91.609	0.049	0.014
-574.719	208.827	-0.190	-0.302
-573.704	-121.547	0.148	0.025
-572.690	475.572	-0.087	-0.200
-571.675	-200.000	0.020	-0.112
-570.661	465.115	-0.069	0.158
-569.646	123.462	0.184	-0.235
-568.631	-78.468	-0.385	0.134
-567.617	-200.000	0.024	-0.335
-566.602	-64.467	0.316	-0.130
-565.588	-5.273	-0.138	-0.096
-564.573	392.747	-0.134	0.284
-563.558	-200.000	-0.005	-0.241
-562.544	-115.677	-0.334	-0.064
-561.529	39.886	0.026	0.024
-560.515	-200.000	-0.017	-0.259
-559.500	-84.471	-0.167	0.053
-558.485	-85.723	0.135	-0.042
-557.471	112.562	-0.293	-0.360
-556.456	-51.559	-0.095	0.045
-555.442	800.000	-0.052	0.147
-554.427	38.427	-0.320	0.290
-553.412	371.404	-0.154	0.318
-552.398	417.541	-0.132	-0.285
-551.383	-200.000	0.041	0.196
-550.369	-200.000	-0.010	-0.064
-549.354	-126.580	0.372	0.056
-548.339	38.780	0.201	-0.182
-547.325	51.343	-0.225	0.217
-546.310	-130.613	-0.266	0.036
-545.296	-15.181	0.131	0.085
-544.281	-88.022	-0.158	-0.048
-543.266	-42.958	-0.043	0.022
-542.252	-129.218	0.128	0.018
-541.237	4.152	-0.360	-0.268
-540.223	479.531	0.099	-0.228
-539.208	84.359	0.116	0.128
-538.193	-22.607	0.221	0.136
-537.179	36.612	0.112	-0.101
-536.164	21.953	0.221	-0.183
-535.150	-200.000	-0.020	-0.124
-534.135	-55.223	-0.231	-0.105
-533.121	280.563	-0.242	0.439
-532.106	800.000	0.098	-0.281
-531.091	-200.000	-0.053	-0.334
-530.077	-200.000	-0.006	-0.215
-529.062	2.693	0.303	-0.222
-528.048	-69.653	-0.235	0.091
-527.033	-200.000	0.019	-0.119
-526.018	-96.207	0.334	0.090
-525.004	768.544	-0.079	-0.219
-523.989	16.848	-0.217	0.174
-522.975	-200.000	-0.014	0.230
-521.960	-119.159	0.273	-0.048
-520.945	-130.837	0.099	0.013
-519.931	800.000	0.020	-0.065
-518.916	-98.873	-0.041	-0.011
-517.902	-152.076	0.285	-0.021
-516.887	91.942	-0.222	-0.253
-515.872	-152.152	0.331	0.024
-514.858	135.456	-0.143	0.189
-513.843	8.017	-0.137	0.104
-512.829	-64.093	0.367	-0.152
-511.814	-14.575	-0.175	-0.114
-510.799	-79.132	-0.432	-0.149
-509.785	234.773	-0.225	0.376
-508.770	-38.044	-0.394	0.212
-507.756	-152.404	0.240	-0.017
-506.741	-26.764	0.176	-0.104
-505.726	-75.654	0.458	0.165
-504.712	-57.298	-0.281	-0.125
-503.697	31.082	-0.177	-0.154
-502.683	-78.588	-0.099	0.034
-501.668	800.000	0.055	0.154
-500.653	-200.000	-0.033	-0.265
-499.639	9.437	-0.375	-0.288
-498.624	-37.690	0.156	-0.084
-497.610	-11.445	0.178	-0.118
-496.595	-54.774	-0.211	-0.097
-495.581	-200.000	0.016	-0.382
-494.566	-57.813	0.302	0.134
-493.551	-151.977	0.315	0.023
-492.537	800.000	-0.129	0.410
-491.522	-200.000	-0.025	0.287
-490.508	-200.000	0.057	0.288
-489.493	-92.843	-0.387	0.109
-488.478	-200.000	-0.007	0.075
-487.464	22.500	0.211	-0.175
-486.449	-106.668	0.198	0.045
-485.435	800.000	-0.097	-0.298
-484.420	-108.128	0.056	-0.012
-483.405	402.134	-0.101	0.214
-482.391	190.976	-0.174	-0.265
-481.376	-100.049	-0.170	-0.043
-480.362	96.913	-0.183	0.212
-479.347	265.571	-0.074	0.131
-478.332	270.653	-0.108	0.192
-477.318	-28.894	-0.199	0.116
-476.303	4.210	0.127	-0.094
-475.289	80.803	-0.088	-0.096
-474.274	-94.010	0.117	-0.033
-473.259	-21.807	0.278	-0.171
-472.245	80.725	0.100	-0.109
-471.230	-200.000	0.010	0.183
-470.216	492.044	-0.113	0.263
-469.201	309.562	0.010	-0.020
-468.186	212.054	0.055	0.087
-467.172	-200.000	0.018	0.141
-466.157	800.000	0.088	0.348
-465.143	7.993	0.268	-0.204
-464.128	502.579	-0.201	0.470
-463.113	-28.078	0.108	0.063
-462.099	43.424	0.184	-0.170
-461.084	-199.476	0.081	-0.000
-460.070	249.593	0.157	-0.270
-459.055	104.848	-0.137	0.164
-458.040	29.086	0.149	0.128
-457.026	352.857	0.095	0.190
-456.011	-37.841	-0.289	0.156
-454.997	186.188	-0.086	0.129
-453.982	6.545	-0.107	0.080
-452.968	523.222	-0.097	0.231
-451.953	12.217	0.241	0.187
-450.938	-55.749	0.158	0.071
-449.924	544.071	-0.164	-0.397
-448.909	-55.780	0.216	-0.098
-447.895	-200.000	0.045	-0.377
-446.880	14.473	0.334	-0.264
-445.865	-141.591	0.222	0.023
-444.851	133.050	0.056	-0.073
-443.836	-98.410	0.191	0.049
-442.822	-19.996	0.149	0.093
-441.807	136.305	-0.185	0.243
-440.792	37.211	0.293	-0.262
-439.778	-200.000	0.000	-0.035
-438.763	-200.000	-0.021	-0.121
-437.749	-200.000	-0.059	-0.275
-436.734	-200.000	0.000	-0.238
-435.719	-110.545	0.074	-0.015
-434.705	-93.133	-0.462	-0.130
-433.690	189.745	0.213	0.322
-432.676	26.392	0.185	0.156
-431.661	-92.326	-0.091	0.026
-430.646	800.000	0.105	0.340
-429.632	-200.000	0.018	0.194
-428.617	-111.625	0.173	0.035
-427.603	24.147	0.114	0.095
-426.588	-17.649	-0.023	0.015
-425.573	800.000	0.068	-0.261
-424.559	-200.000	-0.011	0.093
-423.544	-191.715	-0.286	-0.003
-422.530	85.984	-0.082	0.091
-421.515	-200.000	0.046	0.342
-420.500	92.438	-0.016	-0.018
-419.486	800.000	-0.189	-0.625
-418.471	-200.000	0.012	-0.261
-417.457	-200.000	-0.011	-0.299
-416.442	11.379	-0.056	-0.043
-415.428	-81.880	0.384	-0.127
-414.413	800.000	0.054	0.229
-413.398	188.370	-0.073	-0.110
-412.384	601.405	-0.072	-0.180
-411.369	-200.000	-0.013	0.134
-410.355	212.251	-0.077	0.123
-409.340	-200.000	-0.022	-0.180
-408.325	771.097	-0.039	-0.108
-407.311	313.464	-0.147	-0.279
-406.296	-57.341	-0.171	0.076
-405.282	10.441	-0.047	0.036
-404.267	-200.000	0.035	0.303
-403.252	-23.985	-0.069	0.042
-402.238	120.283	-0.215	-0.270
-401.223	116.300	0.174	-0.216
-400.209	-21.418	0.391	0.241
-399.194	-108.605	-0.135	0.029
-398.179	-60.085	0.139	-0.060
-397.165	-63.545	0.159	0.066
-396.150	188.375	-0.008	0.012
-395.136	77.270	0.233	-0.249
-394.121	290.203	0.042	-0.077
-393.106	-200.000	-0.025	-0.249
-392.092	800.000	0.068	0.299
-391.077	181.091	-0.053	-0.079
-390.063	76.258	-0.161	-0.172
-389.048	21.115	0.265	0.217
-388.033	-200.000	-0.035	0.166
-387.019	-200.000	-0.023	0.215
-386.004	-134.124	0.462	0.058
-384.990	-200.000	-0.055	-0.297
-383.975	-200.000	-0.038	-0.184
-382.960	-75.416	0.204	0.073
-381.946	-146.273	0.097	0.009
-380.931	-112.471	0.242	-0.049
-379.917	190.018	-0.158	-0.239
-378.902	123.868	0.142	-0.180
-377.888	-96.749	0.196	-0.052
-376.873	-200.000	-0.044	0.269
-375.858	-200.000	0.031	0.393
-374.844	-38.404	0.207	-0.110
-373.829	-200.000	0.026	0.210
-372.815	367.244	-0.016	-0.033
-371.800	58.934	-0.211	0.210
-370.785	513.254	-0.189	0.445
-369.771	-44.075	-0.445	-0.225
-368.756	-140.168	0.135	-0.014
-367.742	-44.947	-0.286	0.144
-366.727	629.385	0.110	0.279
-365.712	-70.330	0.236	0.090
-364.698	-95.381	0.213	0.058
-363.683	98.555	0.163	-0.189
-362.669	220.802	0.047	-0.076
-361.654	-113.523	0.216	0.043
-360.639	800.000	-0.063	0.226
-359.625	-175.212	-0.262	0.007
-358.610	345.114	0.081	0.160
-357.596	-200.000	0.049	0.413
-356.581	-200.000	0.006	0.121
-355.566	101.774	0.224	-0.263
-354.552	800.000	0.020	-0.065
-353.537	800.000	0.048	-0.198
-352.523	79.867	-0.126	-0.136
-351.508	-200.000	-0.067	-0.000
-350.493	-200.000	0.022	0.099
-349.479	-105.606	0.277	0.063
-348.464	175.085	-0.098	-0.142
-347.450	-149.251	-0.103	-0.008
-346.435	23.062	0.088	0.072
-345.420	-200.000	0.018	-0.253
-344.406	800.000	-0.068	0.219
-343.391	-168.075	0.069	0.003
-342.377	786.554	0.063	-0.175
-341.362	-32.628	-0.245	0.137
-340.348	800.000	-0.086	-0.244
-339.333	175.041	0.157	0.229
-338.318	800.000	-0.058	0.174
-337.304	177.369	-0.094	0.138
-336.289	115.174	-0.164	-0.202
-335.275	-58.418	-0.276	-0.121
-334.260	800.000	0.066	0.195
-333.245	199.995	0.086	0.134
-332.231	-20.329	-0.292	-0.181
-331.216	-144.904	-0.163	0.015
-330.202	800.000	-0.047	-0.162
-329.187	-148.558	-0.099	-0.008
-328.172	-169.169	-0.069	-0.003
-327.158	-200.000	0.004	-0.118
-326.143	-38.639	0.096	-0.051
-325.129	-10.385	-0.118	0.079
-324.114	60.218	-0.090	0.090
-323.099	395.781	0.246	0.516
-322.085	800.000	0.054	-0.195
-321.070	800.000	0.122	-0.501
-320.056	-200.000	-0.025	0.132
-319.041	-48.295	0.201	-0.097
-318.026	-185.250	-0.283	0.004
-317.012	-19.988	-0.407	-0.252
-315.997	-91.442	0.210	0.060
-314.983	-72.148	-0.158	0.059
-313.968	220.855	-0.151	-0.244
-312.953	800.000	0.034	-0.149
-311.939	-33.612	0.368	-0.204
-310.924	-104.853	0.333	-0.077
-309.910	-200.000	0.002	0.164
-308.895	13.209	0.317	-0.247
-307.880	-154.848	-0.132	-0.009
-306.866	237.065	0.088	0.147
-305.851	-113.319	0.333	0.066
-304.837	65.059	0.264	0.268
-303.822	-200.000	-0.024	-0.120
-302.807	-92.560	-0.178	-0.050
-301.793	-68.028	0.289	-0.113
-300.778	-2.852	-0.094	-0.066
-299.764	-26.724	-0.164	0.096
-298.749	610.092	-0.148	-0.370
-297.735	126.460	0.187	-0.239
-296.720	-49.767	0.154	-0.074
-295.705	13.811	0.089	-0.070
-294.691	36.799	0.109	-0.097
-293.676	-96.556	-0.117	-0.031
-292.662	-200.000	-0.030	0.235
-291.647	-159.325	-0.312	-0.018
-290.632	-116.592	0.347	0.064
-289.618	-60.008	0.079	0.034
-288.603	286.023	0.087	0.158
-287.589	-200.000	-0.049	0.531
-286.574	800.000	-0.066	0.242
-285.559	76.086	0.069	0.074
-284.545	-101.176	-0.080	0.020
-283.530	622.475	0.028	0.072
-282.516	428.029	-0.130	-0.283
-281.501	-26.113	0.399	0.235
-280.486	-5.319	0.114	0.079
-279.472	800.000	-0.020	-0.068
-278.457	-200.000	-0.022	-0.373
-277.443	800.000	0.066	0.242
-276.428	302.978	-0.134	-0.249
-275.413	-171.896	0.252	0.008
-274.399	44.801	0.068	0.063
-273.384	-96.576	-0.178	0.047
-272.370	88.302	-0.164	-0.183
-271.355	41.829	-0.081	0.074
-270.340	-174.736	0.178	0.005
-269.326	416.503	-0.095	-0.203
-268.311	-200.000	0.103	0.462
-267.297	292.644	-0.156	0.285
-266.282	201.141	0.142	-0.219
-265.267	-189.250	-0.403	-0.005
-264.253	229.446	0.075	0.123
-263.238	-200.000	-0.021	0.328
-262.224	800.000	-0.081	-0.300
-261.209	800.000	-0.117	0.353
-260.195	27.581	-0.143	-0.121
-259.180	724.046	0.104	0.278
-258.165	5.450	0.219	-0.162
-257.151	151.844	-0.099	-0.135
-256.136	207.275	-0.203	0.317
-255.122	144.042	-0.182	0.244
-254.107	-200.000	0.048	0.264
-253.092	475.964	0.069	-0.156
-252.078	375.245	0.041	-0.084
-251.063	402.323	0.181	-0.383
-250.049	277.386	0.079	-0.141
-249.034	797.945	0.048	-0.134
-248.019	-35.944	0.196	-0.106
-247.005	-21.934	-0.249	-0.152
-245.990	85.460	-0.244	-0.269
-244.976	-153.594	-0.548	0.038
-243.961	800.000	0.031	0.121
-242.946	800.000	-0.034	-0.103
-241.932	-82.843	-0.148	-0.048
-240.917	757.395	-0.040	-0.109
-239.903	103.273	-0.254	-0.299
-238.888	-151.325	0.066	-0.005
-237.873	697.712	0.065	0.172
-236.859	-182.121	0.202	0.004
-235.844	-74.514	0.168	0.061
-234.830	114.839	0.179	-0.219
-233.815	-17.258	-0.249	-0.157
-232.800	-200.000	-0.081	0.459
-231.786	180.550	-0.096	0.141
-230.771	-67.830	-0.130	-0.051
-229.757	221.714	-0.119	0.192
-228.742	-200.000	-0.013	0.067
-227.727	387.511	-0.114	0.237
-226.713	508.287	-0.138	0.321
-225.698	-200.000	0.015	-0.101
-224.684	-200.000	-0.021	0.208
-223.669	124.591	-0.213	0.269
-222.655	18.992	0.248	0.199
-221.640	-200.000	-0.065	0.329
-220.625	165.443	0.200	0.283
-219.611	358.447	-0.074	0.148
-218.596	460.295	0.121	0.270
-217.582	74.610	-0.186	0.196
-216.567	123.587	0.093	-0.117
-215.552	-200.000	0.246	-0.001
-214.538	-200.000	-0.039	0.295
-213.523	800.000	0.073	0.260
-212.509	532.802	-0.138	-0.327
-211.494	-42.587	0.231	-0.118
-210.479	-105.823	-0.194	-0.044
-209.465	494.944	0.143	0.329
-208.450	-200.000	0.057	0.468
-207.436	-0.912	-0.331	-0.235
-206.421	800.000	-0.099	-0.407
-205.406	-57.707	-0.153	-0.067
-204.392	-139.405	-0.210	0.022
-203.377	85.608	0.225	0.247
-202.363	-153.808	0.392	-0.027
-201.348	69.373	-0.254	-0.262
-200.333	-125.167	0.172	0.026
-199.319	99.328	0.268	0.310
-198.304	2.631	-0.171	0.124
-197.290	581.143	-0.047	-0.115
-196.275	-108.981	0.451	-0.096
-195.260	51.572	0.080	0.076
-194.246	-200.000	0.058	-0.306
-193.231	-79.048	-0.298	0.101
-192.217	-200.000	-0.051	-0.324
-191.202	-86.410	-0.039	0.012
-190.187	-159.691	0.050	0.003
-189.173	-106.716	-0.115	-0.025
-188.158	-200.000	-0.033	-0.231
-187.144	235.308	-0.060	-0.098
-186.129	-8.184	0.373	0.251
-185.114	-200.000	0.058	0.390
-184.100	196.190	0.053	0.081
-183.085	800.000	0.095	0.268
-182.071	292.383	0.085	0.156
-181.056	-143.617	-0.254	-0.024
-180.042	255.067	0.069	0.118
-179.027	445.446	0.104	-0.229
-178.012	800.000	0.009	0.029
-176.998	45.092	0.267	0.246
-175.983	94.130	0.073	-0.082
-174.969	-90.429	-0.338	0.098
-173.954	-101.466	-0.102	0.025
-172.939	800.000	-0.123	0.355
-171.925	-62.155	-0.097	-0.040
-170.910	203.165	-0.146	-0.225
-169.896	21.758	0.138	0.112
-168.881	410.200	-0.091	-0.193
-167.866	0.619	0.110	-0.079
-166.852	-192.276	-0.190	0.002
-165.837	-169.337	-0.172	0.006
-164.823	398.398	0.073	-0.152
-163.808	-8.062	0.242	-0.163
-162.793	-70.932	-0.043	-0.016
-161.779	-200.000	0.032	-0.177
-160.764	-155.669	-0.144	0.009
-159.750	-101.247	-0.281	-0.069
-158.735	-26.113	0.412	0.242
-157.720	800.000	-0.060	0.191
-156.706	-85.768	0.213	0.066
-155.691	30.962	-0.279	-0.239
-154.677	29.993	-0.128	-0.109
-153.662	144.316	0.067	-0.089
-152.647	-169.122	-0.267	-0.010
-151.633	361.189	0.178	0.357
-150.618	-159.378	0.464	-0.026
-149.604	-13.571	0.353	0.228
-148.589	375.247	-0.090	-0.184
-147.574	-200.000	-0.054	-0.446
-146.560	4.363	-0.255	-0.187
-145.545	410.444	-0.072	0.152
-144.531	-119.039	-0.370	-0.065
-143.516	27.722	-0.131	-0.110
-142.502	38.305	-0.359	0.319
-141.487	800.000	0.105	0.407
-140.472	-101.519	0.220	-0.053
-139.458	-200.000	0.077	0.445
-138.443	-95.711	0.029	0.008
-137.429	-29.295	0.086	-0.049
-136.414	-34.109	0.201	-0.110
-135.399	141.781	0.160	-0.211
-134.385	-200.000	-0.028	-0.166
-133.370	394.966	-0.127	0.265
-132.356	423.989	0.022	0.047
-131.341	53.946	-0.182	-0.175
-130.326	431.666	-0.084	-0.183
-129.312	-47.567	-0.173	0.084
-128.297	141.511	0.146	0.193
-127.283	197.244	0.012	-0.019
-126.268	-3.727	0.198	-0.137
-125.253	-200.000	-0.030	-0.268
-124.239	27.761	0.181	0.152
-123.224	-200.000	-0.028	0.392
-122.210	800.000	-0.030	-0.095
-121.195	234.966	0.162	-0.267
-120.180	-200.000	-0.024	-0.159
-119.166	46.266	-0.230	-0.213
-118.151	85.293	0.161	-0.177
-117.137	-125.990	-0.347	-0.052
-116.122	28.805	-0.258	-0.218
-115.107	-200.000	0.012	0.427
-114.093	384.381	-0.068	0.140
-113.078	-155.673	-0.328	0.021
-112.064	119.686	0.414	0.512
-111.049	82.740	-0.139	0.151
-110.034	-200.000	-0.002	0.186
-109.020	-1.268	0.163	0.115
-108.005	74.107	0.163	0.171
-106.991	800.000	-0.073	-0.249
-105.976	-159.631	-0.135	0.007
-104.962	40.789	0.061	0.055
-103.947	-29.600	0.111	-0.063
-102.932	-200.000	0.007	0.157
-101.918	206.758	0.117	-0.182
-100.903	542.734	0.119	0.283
-99.889	-131.076	0.180	0.024
-98.874	132.393	0.168	0.216
-97.859	-45.841	-0.142	0.070
-96.845	262.421	-0.057	-0.099
-95.830	-88.004	-0.212	0.064
-94.816	-24.494	-0.057	-0.034
-93.801	358.044	-0.175	0.349
-92.786	-12.969	-0.422	0.274
-91.772	-64.115	-0.105	0.043
-90.757	-133.375	0.046	-0.006
-89.743	-148.086	-0.248	0.020
-88.728	-92.148	-0.141	-0.040
-87.713	-200.000	-0.010	-0.142
-86.699	124.879	0.085	0.107
-85.684	-200.000	-0.180	0.001
-84.670	800.000	-0.063	-0.228
-83.655	-155.564	0.284	-0.018
-82.640	-141.123	-0.172	-0.018
-81.626	35.018	0.139	-0.121
-80.611	64.259	-0.115	-0.116
-79.597	15.928	-0.243	0.190
-78.582	800.000	0.085	0.298
-77.567	800.000	-0.052	-0.207
-76.553	-200.000	0.003	0.437
-75.538	-60.241	0.200	0.085
-74.524	-87.564	-0.238	-0.072
-73.509	-200.000	0.011	0.164
-72.494	800.000	0.078	0.252
-71.480	800.000	0.072	0.271
-70.465	168.772	0.173	-0.245
-69.451	800.000	-0.072	0.248
-68.436	251.559	0.090	0.152
-67.422	634.201	0.036	-0.091
-66.407	-7.290	0.204	-0.138
-65.392	-148.019	0.318	0.026
-64.378	-79.757	-0.126	-0.042
-63.363	-76.685	-0.272	0.095
-62.349	223.259	-0.095	-0.152
-61.334	52.747	-0.799	-0.761
-60.319	23.890	0.413	0.339
-59.305	451.953	-0.288	-0.633
-58.290	-200.000	0.124	1.093
-57.276	800.000	0.409	1.625
-56.261	-200.000	75.898	514.643
-55.246	534.988	1325.156	3128.220
-54.232	143.858	2578.308	3421.588
-53.217	115.603	2265.893	2757.740
-52.203	51.563	1786.251	1690.091
-51.188	44.292	1582.397	1445.654
-50.173	41.484	1553.447	1399.494
-49.159	57.336	1589.714	1544.648
-48.144	63.274	1609.749	1606.055
-47.130	44.669	1573.069	1439.571
-46.115	41.059	1558.033	1400.408
-45.100	40.851	1554.902	1396.081
-44.086	40.827	1553.174	1394.302
-43.071	40.852	1550.986	1392.457
-42.057	40.710	1549.316	1389.912
-41.042	40.763	1547.749	1388.821
-40.027	40.773	1546.136	1387.386
-39.013	40.847	1544.424	1386.311
-37.998	40.711	1543.945	1384.874
-36.984	40.726	1542.186	1383.349
-35.969	40.831	1540.741	1382.731
-34.954	40.702	1539.543	1380.705
-33.940	40.785	1537.795	1379.656
-32.925	40.796	1536.069	1378.128
-31.911	40.746	1535.177	1376.925
-30.896	40.946	1533.228	1376.511
-29.881	40.888	1532.283	1375.205
-28.867	40.975	1530.211	1373.896
-27.852	40.792	1529.570	1371.996
-26.838	40.906	1527.823	1371.160
-25.823	40.803	1526.292	1369.022
-24.809	40.771	1524.717	1367.340
-23.794	40.751	1523.256	1365.833
-22.779	40.792	1521.686	1364.655
-21.765	40.881	1520.485	1364.137
-20.750	40.784	1519.625	1362.644
-19.736	40.819	1518.630	1361.939
-18.721	40.796	1517.190	1360.436
-17.706	40.841	1516.005	1359.627
-16.692	40.784	1514.857	1358.156
-15.677	40.761	1513.509	1356.730
-14.663	40.691	1512.781	1355.548
-13.648	40.609	1512.079	1354.307
-12.633	40.781	1511.013	1354.473
-11.619	40.674	1510.487	1353.214
-10.604	40.681	1508.926	1351.811
-9.590	40.733	1508.304	1351.555
-8.575	40.691	1507.257	1350.281
-7.560	40.720	1506.472	1349.718
-6.546	40.697	1505.761	1348.871
-5.531	40.571	1505.214	1347.468
-4.517	40.707	1504.044	1347.291
-3.502	40.741	1502.506	1346.090
-2.487	40.728	1501.560	1345.105
-1.473	40.638	1500.942	1343.890
-0.458	40.746	1499.184	1342.988
0.556	39.043	1490.259	1334.132
1.571	36.823	1463.061	1294.844
2.586	33.547	1400.301	1218.180
3.600	31.788	1316.115	1134.211
4.615	29.727	1267.174	1079.911
5.629	24.343	1207.071	998.548
6.644	11.483	1111.968	853.021
7.659	1.873	1063.381	767.471
8.673	0.431	1057.094	755.644
9.688	0.241	1054.218	752.572
10.702	0.151	1053.014	751.199
11.717	-0.002	1051.073	748.989
12.731	4.153	1056.855	773.820
13.746	15.508	1073.184	843.004
14.761	22.574	1081.907	885.415
15.775	22.547	1080.677	884.192
16.790	22.371	1080.034	882.707
17.804	22.305	1078.879	881.353
18.819	22.050	1078.534	879.716
19.834	22.125	1077.866	879.470
20.848	22.181	1077.404	879.296
21.863	22.238	1076.865	879.062
22.877	22.172	1076.560	878.406
23.892	22.101	1075.902	877.438
24.907	22.070	1075.038	876.501
25.921	22.009	1074.445	875.633
26.936	22.103	1073.182	874.996
27.950	22.068	1072.322	874.040
28.965	22.052	1071.229	872.994
29.980	22.000	1069.018	870.858
30.994	21.865	1067.910	869.208
32.009	21.971	1067.700	869.486
33.023	22.311	1066.437	870.066
34.038	22.163	1065.609	868.578
35.053	21.895	1064.997	866.680
36.067	22.142	1064.422	867.354
37.082	22.178	1063.262	866.511
38.096	22.236	1062.616	866.194
39.111	22.270	1062.209	865.950
40.126	22.503	1061.040	866.067
41.140	22.337	1059.553	863.962
42.155	22.118	1058.193	861.702
43.169	21.744	1057.148	858.945
44.184	21.747	1056.281	858.178
45.199	21.797	1055.361	857.598
46.213	21.687	1054.185	856.031
47.228	21.685	1053.281	855.209
48.242	21.864	1052.493	855.369
49.257	21.952	1051.910	855.246
50.271	21.936	1051.109	854.442
51.286	22.156	1050.267	854.751
52.301	22.107	1049.492	853.808
53.315	22.129	1048.918	853.372
54.330	22.113	1048.061	852.524
55.344	22.123	1047.013	851.640
56.359	22.137	1045.997	850.810
57.374	22.084	1045.571	850.132
58.388	21.881	1044.429	848.146
59.403	21.855	1044.255	847.801
60.417	21.868	1043.343	847.049
61.432	21.870	1041.934	845.842
62.447	21.801	1041.561	845.132
63.461	21.929	1041.069	845.273
64.476	21.955	1040.135	844.563
65.490	21.983	1039.080	843.768
66.505	21.744	1038.354	841.958
67.520	21.900	1037.021	841.548
68.534	22.044	1035.932	841.279
69.549	21.915	1035.288	840.065
70.563	21.508	1034.514	837.418
71.578	21.390	1033.640	836.072
72.593	21.560	1032.528	835.910
73.607	21.377	1031.333	833.993
74.622	21.224	1030.777	832.744
75.636	21.582	1030.002	833.748
76.651	21.773	1029.373	834.075
77.666	21.561	1028.558	832.330
78.680	21.468	1027.770	831.178
79.695	21.575	1026.878	830.893
80.709	21.743	1025.953	830.866
81.724	21.829	1025.679	830.976
82.739	21.679	1024.640	829.350
83.753	21.650	1024.024	828.645
84.768	21.918	1023.437	829.360
85.782	22.292	1022.931	830.645
86.797	22.481	1021.471	830.277
87.812	22.392	1021.124	829.503
88.826	22.192	1020.293	827.813
89.841	22.247	1019.492	827.347
90.855	22.312	1018.771	826.993
91.870	22.376	1017.957	826.563
92.884	22.194	1017.466	825.236
93.899	22.242	1016.110	824.286
94.914	22.179	1015.112	823.110
95.928	22.159	1014.882	822.758
96.943	22.332	1013.867	822.670
97.957	21.973	1012.569	819.867
98.972	21.795	1011.440	818.050
99.987	21.669	1010.549	816.672
101.001	21.736	1009.635	816.170
102.016	21.998	1009.335	817.076
103.030	22.160	1008.454	817.042
104.045	22.050	1007.038	815.315
105.060	21.878	1005.975	813.581
106.074	21.790	1004.240	811.700
107.089	21.796	1003.776	811.283
108.103	22.083	1003.405	812.238
109.118	22.176	1002.929	812.209
110.133	21.798	1001.857	809.525
111.147	21.799	1000.434	808.310
112.162	21.696	999.288	806.838
113.176	21.541	998.407	805.338
114.191	21.691	997.663	805.361
115.206	21.712	997.029	804.874
116.220	21.458	995.789	802.633
117.235	21.365	994.157	800.820
118.249	21.500	993.826	801.103
119.264	21.637	993.062	801.043
120.279	21.380	992.256	799.149
121.293	21.483	991.330	798.801
122.308	21.584	990.798	798.763
123.322	21.538	989.919	797.774
124.337	21.668	988.630	797.257
125.352	21.443	987.611	795.338
126.366	21.122	985.849	792.396
127.381	20.691	984.682	789.432
128.395	21.243	984.320	791.573
129.410	21.875	984.024	794.126
130.424	22.088	983.208	794.364
131.439	22.083	982.586	793.765
132.454	22.182	981.008	792.871
133.468	22.036	980.207	791.495
134.483	21.914	979.755	790.509
135.497	22.064	978.730	790.285
136.512	22.182	978.588	790.631
137.527	22.253	977.962	790.377
138.541	22.272	976.943	789.566
139.556	22.288	976.036	788.838
140.570	22.331	975.425	788.465
141.585	22.483	973.980	787.909
142.600	22.463	973.279	787.182
143.614	22.341	972.212	785.706
144.629	22.389	971.834	785.545
145.643	22.675	971.340	786.350
146.658	22.613	969.845	784.795
147.673	22.350	968.787	782.699
148.687	22.269	967.489	781.223
149.702	22.173	966.650	780.051
150.716	22.111	965.261	778.585
151.731	21.994	964.301	777.225
152.746	22.101	963.709	777.149
153.760	22.169	963.344	777.089
154.775	22.376	962.746	777.450
155.789	22.488	961.817	777.127
156.804	22.464	960.539	775.918
157.819	22.206	960.041	774.313
158.833	22.370	958.736	773.915
159.848	22.428	958.242	773.699
160.862	22.542	957.376	773.432
161.877	22.408	956.116	771.761
162.892	22.297	955.763	770.918
163.906	22.379	955.050	770.637
164.921	22.308	953.899	769.327
165.935	22.275	953.051	768.433
166.950	22.428	951.521	767.797
167.964	22.449	950.904	767.324
168.979	22.362	949.575	765.807
169.994	22.189	948.768	764.336
171.008	22.306	947.256	763.558
172.023	22.326	947.191	763.524
173.037	22.598	946.420	764.011
174.052	22.270	945.105	761.463
175.067	22.092	944.257	759.943
176.081	22.025	943.611	759.067
177.096	22.152	942.745	758.852
178.110	22.239	941.960	758.527
179.125	22.143	940.349	756.751
180.140	21.771	939.660	754.529
181.154	21.741	939.029	753.826
182.169	21.872	938.442	753.849
183.183	22.009	938.714	754.590
184.198	22.277	938.042	755.134
185.213	22.344	937.097	754.596
186.227	22.213	936.239	753.276
187.242	22.352	936.137	753.724
188.256	22.382	935.477	753.253
189.271	22.545	934.420	753.033
190.286	22.435	933.547	751.791
191.300	22.377	932.941	750.989
192.315	21.853	931.734	747.719
193.329	21.160	930.094	743.386
194.344	20.687	928.687	740.183
195.359	21.268	928.937	742.788
196.373	22.003	929.460	746.268
197.388	22.267	929.426	747.296
198.402	22.316	928.595	746.770
199.417	22.188	927.877	745.585
200.432	22.195	927.491	745.235
201.446	22.213	926.457	744.417
202.461	21.962	925.550	742.558
203.475	21.869	925.222	741.837
204.490	21.480	923.477	738.729
205.504	20.405	921.914	732.880
206.519	20.720	921.427	733.756
207.534	21.722	922.281	738.599
208.548	21.872	921.377	738.439
209.563	22.206	921.104	739.561
210.577	22.374	920.391	739.630
211.592	21.959	919.593	737.180
212.607	22.206	919.897	738.397
213.621	22.518	919.191	739.073
214.636	22.452	917.889	737.686
215.650	22.561	917.370	737.657
216.665	22.460	916.553	736.516
217.680	22.472	916.461	736.425
218.694	22.447	916.164	736.016
219.709	22.259	914.588	733.899
220.723	21.829	913.878	731.475
221.738	22.028	913.527	731.958
222.753	22.387	912.520	732.580
223.767	22.182	911.925	731.184
224.782	22.355	911.580	731.562
225.796	22.504	910.919	731.586
226.811	22.645	910.661	731.897
227.826	22.083	909.778	728.793
228.840	21.267	908.141	724.037
229.855	21.376	907.062	723.565
230.869	21.606	906.693	724.156
231.884	21.270	905.833	722.018
232.899	21.232	905.310	721.381
233.913	21.917	905.550	724.339
234.928	22.328	904.928	725.468
235.942	22.190	904.275	724.313
236.957	22.297	903.218	723.841
237.972	22.004	902.599	722.077
238.986	21.865	901.744	720.759
240.001	21.995	901.484	721.020
241.015	22.033	900.719	720.504
242.030	21.937	900.370	719.767
243.045	22.241	899.484	720.237
244.059	22.191	899.383	719.887
245.074	22.521	898.462	720.437
246.088	22.427	897.914	719.552
247.103	21.943	897.171	716.916
248.117	22.013	896.310	716.448
249.132	22.582	896.371	718.754
250.147	22.913	896.118	719.837
251.161	22.942	895.423	719.335
252.176	23.167	895.148	719.965
253.190	23.009	894.659	718.866
254.205	23.121	893.843	718.602
255.220	23.315	893.502	719.053
256.234	23.299	892.881	718.423
257.249	23.284	892.194	717.747
258.263	23.033	891.820	716.364
259.278	23.096	890.775	715.718
260.293	23.179	890.412	715.698
261.307	23.115	890.210	715.211
262.322	23.203	889.100	714.613
263.336	23.194	888.530	714.055
264.351	22.582	887.335	710.566
265.366	21.410	885.257	704.121
266.380	21.083	884.069	701.801
267.395	21.838	884.949	705.475
268.409	22.646	884.985	708.690
269.424	22.618	884.334	707.993
270.439	22.871	883.554	708.323
271.453	22.956	882.829	708.019
272.468	22.930	882.288	707.419
273.482	23.027	882.222	707.692
274.497	23.158	881.700	707.733
275.512	23.105	880.377	706.398
276.526	22.520	879.106	702.983
277.541	22.617	879.020	703.237
278.555	22.939	878.802	704.286
279.570	22.833	878.023	703.177
280.585	22.632	877.115	701.588
281.599	22.689	876.520	701.276
282.614	22.829	876.453	701.715
283.628	22.471	874.891	698.982
284.643	22.110	874.054	696.820
285.657	22.457	874.386	698.399
286.672	22.523	873.440	697.842
287.687	21.905	872.431	694.532
288.701	22.186	872.631	695.741
289.716	22.579	872.157	696.856
290.730	22.316	871.185	694.979
291.745	22.213	870.127	693.665
292.760	21.978	869.301	692.021
293.774	21.824	869.287	691.342
294.789	22.746	869.058	694.731
295.803	23.562	869.092	697.907
296.818	23.538	868.819	697.532
297.833	23.661	868.278	697.519
298.847	23.387	867.049	695.393
299.862	22.966	865.875	692.742
300.876	23.152	865.443	693.062
301.891	23.563	865.261	694.464
302.906	23.509	865.047	694.020
303.920	23.047	863.831	691.177
304.935	23.024	862.860	690.252
305.949	23.316	862.827	691.304
306.964	23.323	862.665	691.136
307.979	23.252	861.644	689.983
308.993	23.173	860.657	688.823
310.008	23.356	860.979	689.733
311.022	23.495	860.978	690.212
312.037	23.469	859.694	689.022
313.052	23.199	858.964	687.327
314.066	23.058	858.567	686.402
315.081	22.540	857.000	683.079
316.095	21.707	855.658	678.724
317.110	22.243	855.908	680.938
318.125	23.098	856.840	684.933
319.139	22.730	855.183	682.124
320.154	21.587	853.629	676.413
321.168	21.182	852.229	673.681
322.183	21.754	852.446	675.998
323.197	22.676	852.782	679.762
324.212	22.960	852.563	680.618
325.227	23.085	852.242	680.785
326.241	23.199	851.896	680.886
327.256	23.000	851.607	679.831
328.270	22.995	850.680	679.010
329.285	22.858	850.390	678.193
330.300	22.915	849.067	677.297
331.314	22.587	848.349	675.408
332.329	22.685	847.797	675.281
333.343	23.097	847.355	676.449
334.358	23.332	847.225	677.181
335.373	23.345	846.370	676.489
336.387	23.493	845.622	676.393
337.402	23.558	845.891	676.801
338.416	23.887	845.138	677.388
339.431	23.832	844.635	676.717
340.446	23.700	844.385	675.955
341.460	23.941	843.772	676.319
342.475	23.949	843.063	675.722
343.489	23.765	842.215	674.285
344.504	23.833	841.546	673.949
345.519	23.896	841.481	674.076
346.533	24.061	841.369	674.551
347.548	24.230	840.652	674.556
348.562	24.278	840.097	674.234
349.577	24.216	839.795	673.697
350.592	24.121	839.144	672.756
351.606	24.093	838.826	672.334
352.621	24.019	838.002	671.335
353.635	24.048	837.544	671.018
354.650	23.939	836.969	670.088
355.665	23.643	835.997	668.136
356.679	22.684	834.159	663.007
357.694	22.460	834.001	661.980
358.708	23.085	833.749	664.070
359.723	22.967	833.392	663.285
360.738	23.277	832.916	664.007
361.752	23.805	832.664	665.726
362.767	23.705	832.651	665.283
363.781	24.188	832.070	666.569
364.796	24.339	832.109	667.105
365.810	24.359	831.981	667.020
366.825	24.393	831.921	667.037
367.840	24.622	830.881	667.000
368.854	24.529	830.018	665.901
369.869	23.900	829.415	663.013
370.883	23.785	828.459	661.764
371.898	23.867	828.413	661.973
372.913	23.735	827.462	660.663
373.927	23.704	827.122	660.219
374.942	24.011	826.544	660.839
375.956	24.059	825.957	660.488
376.971	24.158	825.136	660.140
377.986	24.132	824.859	659.764
379.000	24.386	824.468	660.335
380.015	24.471	823.861	660.102
381.029	24.318	823.141	658.903
382.044	24.203	822.688	658.058
383.059	24.417	822.451	658.600
384.073	24.473	821.688	658.136
385.088	24.450	821.157	657.568
386.102	24.573	820.715	657.610
387.117	24.195	820.106	655.673
388.132	24.238	819.239	655.077
389.146	24.051	818.752	653.947
390.161	23.459	817.727	650.895
391.175	23.473	817.025	650.329
392.190	24.123	817.251	652.836
393.205	24.200	816.944	652.816
394.219	23.249	815.250	647.925
395.234	21.712	812.890	640.381
396.248	20.760	811.962	636.117
397.263	21.669	812.883	640.104
398.278	23.622	814.153	648.187
399.292	24.082	813.916	649.620
400.307	23.741	813.352	647.868
401.321	23.836	812.620	647.576
402.336	23.759	812.702	647.302
403.350	24.161	812.206	648.314
404.365	24.640	812.048	649.873
405.380	24.969	812.147	651.088
406.394	25.260	811.565	651.623
407.409	25.267	811.414	651.469
408.423	25.144	810.589	650.304
409.438	25.132	810.141	649.843
410.453	25.135	809.541	649.315
411.467	25.270	809.462	649.683
412.482	25.051	809.025	648.484
413.496	25.023	808.604	647.986
414.511	25.173	808.012	647.997
415.526	25.288	807.761	648.151
416.540	25.216	807.299	647.467
417.555	25.141	806.430	646.440
418.569	24.741	806.178	644.741
419.584	24.720	805.415	643.997
420.599	24.973	804.765	644.330
421.613	93.007	1259.257	1373.499
422.628	79.699	1325.516	1373.610
