DTS Sentinel unit serial number:	SN413079Multiplexer serial number:	ORYXHardware model number:	OX4-SRSoftware version number:	ORYX F/W v4.00 Oryx Data Collector v3.7.2.0data status	okinstallation	princeton_trtdifferential loss correction	single-endedforward channel	channel 3reverse channel	N/Adate	2019/09/11time	15:06:10forward acquisition time	60.00reverse acquisition time	0.00gamma	496.2192k internal	0.2289k external	0.2289temperature offset calibration	0.9984default loss term (dB/km)	0.3790temperature slope calibration	1.0000multiplexer offset coefficient	1.0000multiplexer slope coefficient	1.0000fibre end	0.00T internal ref (°C)	42.94T ext. ref 1 (°C)	0.97T ext. ref 2 (°C)	38.07length (m)	temperature (°C)	Stokes	anti-Stokes-747.200	126.195	0.034	0.044
-746.185	268.753	0.147	0.264
-745.171	-122.575	0.399	0.066
-744.156	-28.090	-0.156	-0.093
-743.142	-112.098	0.101	-0.021
-742.127	311.346	-0.142	0.273
-741.112	-131.791	-0.134	-0.018
-740.098	-13.218	0.145	0.097
-739.083	-17.173	-0.247	0.159
-738.069	110.299	-0.259	0.318
-737.054	-200.000	-0.001	-0.090
-736.039	800.000	-0.086	-0.266
-735.025	-105.094	0.363	-0.085
-734.010	-200.000	0.028	-0.140
-732.996	-200.000	0.002	-0.156
-731.981	109.068	-0.187	-0.230
-730.966	622.884	0.150	0.387
-729.952	730.578	-0.063	0.171
-728.937	11.720	0.259	-0.204
-727.923	-200.000	-0.005	-0.043
-726.908	-43.061	0.238	-0.124
-725.894	-200.000	-0.006	0.278
-724.879	-200.000	0.022	0.259
-723.864	-17.222	-0.264	0.170
-722.850	-120.259	0.130	-0.023
-721.835	-133.980	-0.273	-0.035
-720.821	758.202	0.028	0.077
-719.806	-73.292	-0.095	-0.036
-718.791	-200.000	0.022	-0.130
-717.777	-124.801	-0.118	-0.019
-716.762	-17.631	0.311	0.200
-715.748	127.530	0.038	-0.049
-714.733	569.938	-0.074	-0.185
-713.718	256.997	-0.180	0.317
-712.704	-180.892	0.153	0.003
-711.689	-68.212	-0.299	0.119
-710.675	104.575	0.288	-0.348
-709.660	-59.986	-0.358	0.156
-708.645	97.833	0.072	-0.085
-707.631	-200.000	-0.056	-0.261
-706.616	-2.014	-0.280	-0.201
-705.602	100.114	0.040	0.048
-704.587	800.000	-0.065	-0.204
-703.572	1.289	0.323	-0.237
-702.558	10.310	0.211	-0.165
-701.543	-127.541	-0.390	0.058
-700.529	-10.802	-0.331	0.224
-699.514	800.000	-0.028	0.120
-698.499	32.463	0.250	-0.221
-697.485	-57.007	0.238	-0.107
-696.470	800.000	-0.020	0.087
-695.456	162.227	-0.043	-0.062
-694.441	126.521	0.074	-0.096
-693.426	-60.016	-0.414	0.181
-692.412	-41.420	0.240	-0.126
-691.397	-200.000	-0.022	0.172
-690.383	348.285	-0.125	0.251
-689.368	474.717	-0.071	0.165
-688.354	130.811	0.160	0.210
-687.339	-115.871	0.140	-0.027
-686.324	-30.334	0.227	0.132
-685.310	234.793	-0.192	-0.323
-684.295	-19.857	0.144	0.091
-683.281	-200.000	-0.015	0.103
-682.266	-117.846	0.310	0.057
-681.251	120.612	0.039	-0.049
-680.237	-92.471	0.233	0.067
-679.222	122.084	-0.165	0.211
-678.208	495.985	0.023	0.053
-677.193	7.639	0.196	-0.150
-676.178	800.000	0.071	0.219
-675.164	-72.030	0.417	0.159
-674.149	-200.000	0.007	0.087
-673.135	139.996	-0.030	0.040
-672.120	156.734	0.153	0.215
-671.105	476.871	-0.153	-0.352
-670.091	-129.172	-0.143	0.020
-669.076	-101.633	-0.226	-0.056
-668.062	-200.000	0.027	-0.503
-667.047	-27.631	0.078	-0.046
-666.032	-112.772	-0.376	-0.076
-665.018	-200.000	0.000	-0.032
-664.003	-167.141	0.081	-0.003
-662.989	-57.868	0.286	-0.128
-661.974	147.063	-0.022	-0.030
-660.959	-86.877	-0.187	0.058
-659.945	209.426	-0.081	-0.130
-658.930	110.132	0.048	-0.059
-657.916	-163.106	0.199	0.010
-656.901	78.120	-0.075	-0.081
-655.886	-200.000	0.037	-0.212
-654.872	1.849	-0.210	0.155
-653.857	-200.000	-0.037	-0.197
-652.843	-102.429	0.064	0.016
-651.828	-200.000	-0.007	-0.115
-650.814	169.695	0.094	-0.137
-649.799	-200.000	0.011	0.099
-648.784	-17.441	-0.311	0.200
-647.770	-12.121	-0.127	-0.085
-646.755	-200.000	0.006	-0.129
-645.741	-77.060	-0.431	-0.154
-644.726	143.861	-0.242	-0.329
-643.711	800.000	-0.080	0.296
-642.697	-65.939	-0.411	0.168
-641.682	-149.784	-0.145	0.012
-640.668	190.434	-0.096	0.147
-639.653	281.632	-0.104	-0.191
-638.638	-46.409	0.154	-0.077
-637.624	271.278	-0.101	0.182
-636.609	-200.000	0.002	-0.020
-635.595	-200.000	0.098	-0.441
-634.580	-5.715	-0.184	-0.128
-633.565	-200.000	-0.042	-0.210
-632.551	-200.000	0.039	0.273
-631.536	157.895	-0.057	-0.080
-630.522	173.803	-0.098	0.144
-629.507	800.000	0.043	0.152
-628.492	-200.000	0.023	-0.353
-627.478	248.664	-0.045	-0.078
-626.463	-111.658	-0.196	-0.041
-625.449	-136.615	-0.099	-0.012
-624.434	80.494	-0.251	-0.276
-623.419	94.836	0.174	0.202
-622.405	759.206	-0.042	-0.115
-621.390	-171.298	0.300	0.010
-620.376	7.931	-0.072	-0.055
-619.361	-149.927	-0.094	0.007
-618.346	-151.564	0.086	-0.006
-617.332	278.383	0.038	0.070
-616.317	-15.844	-0.170	0.110
-615.303	-55.014	-0.108	-0.050
-614.288	-85.089	0.217	0.069
-613.273	-49.490	0.074	-0.036
-612.259	32.773	-0.058	0.051
-611.244	-200.000	-0.003	-0.060
-610.230	-200.000	-0.010	0.212
-609.215	-200.000	0.020	0.159
-608.201	74.580	-0.313	-0.335
-607.186	800.000	-0.031	0.094
-606.171	83.622	0.125	-0.139
-605.157	38.252	-0.198	0.180
-604.142	-200.000	-0.050	0.225
-603.128	-200.000	-0.035	-0.181
-602.113	400.119	0.173	-0.370
-601.098	57.744	0.188	0.187
-600.084	-200.000	-0.013	0.086
-599.069	88.137	-0.066	-0.074
-598.055	-74.317	0.270	0.099
-597.040	-40.682	-0.003	0.001
-596.025	800.000	0.024	-0.105
-595.011	-200.000	-0.013	-0.113
-593.996	-112.625	0.160	-0.033
-592.982	-35.537	-0.196	-0.109
-591.967	145.120	-0.149	-0.203
-590.952	-158.728	-0.242	0.014
-589.938	-155.249	-0.233	0.015
-588.923	-200.000	-0.009	0.419
-587.909	-200.000	-0.031	0.205
-586.894	33.585	0.301	-0.266
-585.879	792.194	-0.026	-0.074
-584.865	-32.522	-0.255	0.145
-583.850	159.727	-0.111	-0.158
-582.836	-179.866	-0.161	-0.004
-581.821	51.866	-0.183	-0.177
-580.806	45.131	0.057	-0.054
-579.792	-130.551	-0.129	-0.018
-578.777	1.042	0.154	-0.112
-577.763	333.674	-0.143	0.282
-576.748	-200.000	0.029	0.199
-575.733	355.169	0.030	0.060
-574.719	572.855	-0.108	-0.268
-573.704	-106.076	0.138	-0.032
-572.690	133.072	0.079	0.104
-571.675	-33.440	-0.374	-0.210
-570.661	72.558	-0.459	-0.487
-569.646	-47.578	-0.248	-0.122
-568.631	45.908	-0.269	-0.254
-567.617	0.303	0.132	0.096
-566.602	-28.682	-0.228	-0.133
-565.588	190.323	0.037	-0.057
-564.573	-7.652	-0.189	0.130
-563.558	93.806	0.057	0.065
-562.544	-0.141	0.126	-0.091
-561.529	499.141	-0.147	0.345
-560.515	-51.859	0.052	0.025
-559.500	-174.020	-0.180	0.005
-558.485	276.076	-0.111	0.200
-557.471	-162.350	0.488	-0.025
-556.456	43.976	-0.267	-0.249
-555.442	221.033	-0.049	-0.079
-554.427	-200.000	0.027	0.299
-553.412	-19.987	0.206	0.130
-552.398	-200.000	-0.005	-0.193
-551.383	-200.000	0.033	0.221
-550.369	-115.258	-0.179	0.034
-549.354	-200.000	-0.012	-0.377
-548.339	-45.883	-0.204	-0.102
-547.325	76.911	0.271	-0.293
-546.310	-200.000	0.025	-0.143
-545.296	316.653	0.121	-0.233
-544.281	-200.000	-0.019	-0.192
-543.266	-91.995	-0.034	0.010
-542.252	5.409	-0.143	0.107
-541.237	218.971	-0.075	0.122
-540.223	-108.787	-0.224	0.049
-539.208	560.678	0.109	0.269
-538.193	22.311	0.516	0.428
-537.179	-21.046	-0.131	0.082
-536.164	-200.000	-0.032	-0.277
-535.150	23.150	0.077	-0.064
-534.135	409.275	0.080	0.173
-533.121	137.834	-0.101	-0.135
-532.106	14.057	0.271	0.214
-531.091	-88.902	0.335	0.101
-530.077	-9.032	0.221	0.150
-529.062	-200.000	-0.015	0.104
-528.048	-180.357	-0.075	-0.002
-527.033	541.761	-0.064	-0.156
-526.018	-178.127	0.146	-0.004
-525.004	-15.480	-0.150	0.098
-523.989	61.054	0.102	0.103
-522.975	124.538	-0.081	-0.103
-521.960	69.534	-0.374	-0.391
-520.945	-200.000	0.009	0.241
-519.931	-36.169	0.078	0.043
-518.916	-44.650	-0.093	0.047
-517.902	-200.000	0.022	0.177
-516.887	179.419	0.054	-0.081
-515.872	-15.003	-0.340	0.222
-514.858	-91.611	0.056	-0.016
-513.843	800.000	-0.047	-0.169
-512.829	-14.289	0.118	0.078
-511.814	-56.931	0.247	-0.111
-510.799	330.322	-0.115	0.224
-509.785	-200.000	0.018	-0.546
-508.770	-73.430	-0.168	-0.062
-507.756	-166.390	0.204	-0.009
-506.741	-111.195	0.129	0.027
-505.726	413.683	-0.072	0.156
-504.712	-91.275	-0.154	-0.045
-503.697	-74.136	0.184	0.068
-502.683	-119.896	-0.030	0.005
-501.668	-89.959	0.213	-0.063
-500.653	-131.356	0.186	0.025
-499.639	-200.000	-0.006	-0.365
-498.624	291.852	0.115	0.213
-497.610	-200.000	0.012	0.263
-496.595	-8.040	-0.090	-0.062
-495.581	96.300	0.130	-0.151
-494.566	-0.981	0.184	-0.132
-493.551	-103.763	-0.293	0.070
-492.537	198.813	-0.023	0.035
-491.522	-108.357	0.133	-0.029
-490.508	-200.000	0.003	-0.144
-489.493	-200.000	-0.035	0.533
-488.478	22.184	0.108	-0.089
-487.464	124.227	-0.147	0.188
-486.449	-200.000	-0.005	0.066
-485.435	172.700	-0.113	-0.164
-484.420	-200.000	0.012	-0.215
-483.405	84.126	0.201	0.223
-482.391	-134.636	-0.196	0.024
-481.376	-200.000	0.030	-0.269
-480.362	-90.006	0.254	-0.075
-479.347	-200.000	0.038	0.308
-478.332	-200.000	-0.039	-0.187
-477.318	-33.991	-0.336	-0.188
-476.303	-18.655	-0.309	-0.196
-475.289	-169.526	0.131	-0.005
-474.274	-88.376	0.143	-0.043
-473.259	-200.000	-0.277	0.000
-472.245	57.441	0.232	-0.230
-471.230	-70.908	0.306	-0.117
-470.216	800.000	-0.071	0.251
-469.201	190.016	0.076	-0.115
-468.186	6.089	0.072	-0.054
-467.172	138.532	0.336	0.448
-466.157	-81.801	0.240	-0.080
-465.143	78.889	0.099	0.108
-464.128	27.198	-0.269	0.229
-463.113	800.000	0.050	-0.148
-462.099	6.728	0.093	-0.070
-461.084	25.554	-0.441	0.372
-460.070	73.040	0.087	0.092
-459.055	125.840	-0.002	0.003
-458.040	-102.248	0.097	-0.024
-457.026	8.226	0.274	-0.209
-456.011	-69.405	-0.135	0.053
-454.997	315.958	0.166	-0.317
-453.982	800.000	-0.061	-0.243
-452.968	82.524	0.332	-0.365
-451.953	-200.000	-0.011	-0.203
-450.938	-113.501	0.050	0.010
-449.924	55.120	0.215	0.211
-448.909	357.621	-0.099	-0.201
-447.895	-18.408	0.255	0.161
-446.880	791.470	-0.044	-0.122
-445.865	177.014	-0.039	-0.058
-444.851	102.838	0.136	0.162
-443.836	-2.949	0.213	-0.151
-442.822	-128.293	0.180	0.026
-441.807	-200.000	0.005	0.195
-440.792	499.269	0.116	0.272
-439.778	-116.945	0.026	0.005
-438.763	-32.421	-0.069	0.039
-437.749	128.640	-0.094	-0.121
-436.734	104.037	-0.155	0.185
-435.719	47.622	0.059	-0.056
-434.705	-35.371	-0.459	-0.253
-433.690	-108.187	0.139	-0.030
-432.676	800.000	0.055	0.202
-431.661	141.271	0.205	0.275
-430.646	800.000	-0.032	0.109
-429.632	451.113	0.170	-0.380
-428.617	-139.757	-0.017	0.002
-427.603	787.763	0.026	-0.071
-426.588	-13.205	-0.099	0.065
-425.573	-25.836	-0.127	0.076
-424.559	800.000	0.050	-0.173
-423.544	-24.051	-0.257	-0.155
-422.530	13.517	-0.061	0.048
-421.515	800.000	-0.124	-0.350
-420.500	7.751	-0.106	-0.080
-419.486	800.000	-0.021	-0.068
-418.471	393.125	-0.142	0.299
-417.457	6.791	-0.160	0.121
-416.442	-200.000	-0.002	0.155
-415.428	757.966	0.104	-0.286
-414.413	322.717	0.068	-0.131
-413.398	800.000	0.062	0.268
-412.384	-200.000	0.038	0.430
-411.369	-56.384	-0.159	-0.072
-410.355	-200.000	-0.106	-0.509
-409.340	124.719	0.185	-0.236
-408.325	188.898	-0.133	0.201
-407.311	-200.000	-0.005	0.081
-406.296	-200.000	-0.022	-0.207
-405.282	-93.822	0.439	-0.122
-404.267	27.777	0.165	-0.140
-403.252	217.071	0.210	0.338
-402.238	53.507	-0.086	0.083
-401.223	16.770	0.147	-0.117
-400.209	-150.426	0.209	-0.016
-399.194	-200.000	0.032	-0.312
-398.179	-45.534	-0.092	0.046
-397.165	-139.852	0.199	-0.021
-396.150	221.434	-0.088	0.143
-395.136	328.910	0.049	0.095
-394.121	-168.101	0.220	0.009
-393.106	-146.054	-0.315	-0.028
-392.092	800.000	-0.009	-0.037
-391.077	800.000	0.027	-0.100
-390.063	67.499	0.080	-0.083
-389.048	-200.000	0.063	-0.281
-388.033	97.588	-0.012	-0.014
-387.019	274.273	0.111	-0.198
-386.004	-153.225	-0.339	-0.024
-384.990	229.670	-0.129	-0.212
-383.975	-51.912	-0.090	-0.042
-382.960	-121.414	-0.230	-0.039
-381.946	-114.384	-0.107	0.021
-380.931	-200.000	0.007	0.119
-379.917	177.168	-0.088	-0.130
-378.902	62.163	-0.093	0.094
-377.888	-67.123	0.150	0.060
-376.873	-200.000	-0.025	-0.177
-375.858	-52.443	0.208	0.097
-374.844	50.631	0.098	-0.093
-373.829	-100.382	-0.179	-0.045
-372.815	-168.167	-0.286	-0.011
-371.800	800.000	-0.035	0.139
-370.785	452.567	0.105	-0.234
-369.771	120.249	0.061	-0.076
-368.756	800.000	0.064	0.224
-367.742	-45.499	-0.340	-0.170
-366.727	-200.000	-0.000	0.231
-365.712	-200.000	-0.048	0.454
-364.698	800.000	-0.039	0.151
-363.683	50.259	-0.017	0.016
-362.669	-81.115	0.117	0.039
-361.654	-56.540	-0.275	-0.123
-360.639	31.201	0.092	0.080
-359.625	102.100	0.236	0.278
-358.610	-131.623	-0.356	0.047
-357.596	-88.628	-0.272	0.082
-356.581	-200.000	0.048	0.418
-355.566	-63.136	0.536	-0.223
-354.552	-104.716	0.135	0.031
-353.537	-166.731	0.111	0.005
-352.523	799.467	0.066	0.183
-351.508	800.000	0.142	-0.504
-350.493	-111.953	-0.405	-0.082
-349.479	-45.887	-0.293	-0.146
-348.464	-112.404	-0.097	-0.020
-347.450	800.000	-0.036	0.107
-346.435	-200.000	-0.035	0.250
-345.420	304.797	0.063	-0.119
-344.406	25.887	-0.199	-0.168
-343.391	98.914	0.208	0.243
-342.377	761.644	0.046	-0.125
-341.362	-200.000	-0.022	0.192
-340.348	-28.730	-0.265	0.154
-339.333	-98.650	-0.117	-0.030
-338.318	-51.877	-0.082	-0.039
-337.304	-131.194	0.193	0.026
-336.289	182.457	0.120	-0.178
-335.275	-65.715	0.376	0.152
-334.260	156.167	-0.013	0.018
-333.245	308.476	0.211	-0.398
-332.231	-100.086	-0.247	-0.062
-331.216	-64.524	-0.108	-0.044
-330.202	-89.268	-0.282	0.084
-329.187	127.252	-0.226	0.289
-328.172	-49.753	0.340	0.163
-327.158	-146.276	0.354	0.031
-326.143	155.160	0.091	0.126
-325.129	238.478	0.127	-0.213
-324.114	-69.694	-0.320	0.123
-323.099	352.008	-0.112	0.223
-322.085	800.000	-0.053	-0.190
-321.070	-29.972	-0.135	0.078
-320.056	-90.223	0.203	0.060
-319.041	-200.000	0.022	0.137
-318.026	-200.000	0.066	-0.328
-317.012	661.023	-0.049	0.128
-315.997	623.465	-0.075	0.191
-314.983	-105.922	-0.268	0.061
-313.968	-107.534	0.110	0.024
-312.953	-78.209	0.272	0.094
-311.939	-200.000	0.119	-0.000
-310.924	-200.000	-0.019	-0.240
-309.910	-200.000	0.023	-0.140
-308.895	-22.865	0.150	-0.091
-307.880	200.977	-0.139	-0.216
-306.866	178.259	-0.084	0.123
-305.851	-77.069	0.151	-0.053
-304.837	-48.586	-0.073	-0.035
-303.822	-63.163	0.267	0.111
-302.807	-184.215	-0.380	-0.006
-301.793	-178.380	-0.059	0.001
-300.778	-200.000	-0.005	0.223
-299.764	-200.000	-0.036	0.238
-298.749	358.955	0.114	-0.230
-297.735	-200.000	0.018	0.227
-296.720	800.000	0.067	-0.240
-295.705	107.222	-0.072	-0.086
-294.691	33.326	-0.076	0.066
-293.676	800.000	-0.093	0.270
-292.662	22.179	-0.080	-0.066
-291.647	155.228	0.093	-0.129
-290.632	57.188	-0.020	0.019
-289.618	306.714	0.193	0.362
-288.603	-175.610	0.466	-0.013
-287.589	-200.000	0.051	-0.359
-286.574	3.201	-0.228	-0.167
-285.559	-19.757	0.046	0.029
-284.545	64.882	0.191	0.195
-283.530	-45.750	-0.350	0.174
-282.516	-27.306	0.272	-0.160
-281.501	800.000	0.073	-0.233
-280.486	81.077	0.131	-0.142
-279.472	88.681	0.099	0.111
-278.457	74.893	0.250	0.265
-277.443	-157.452	-0.239	-0.014
-276.428	46.914	-0.164	0.153
-275.413	58.029	0.197	0.194
-274.399	544.995	0.150	0.360
-273.384	-200.000	0.013	0.176
-272.370	49.523	0.297	-0.281
-271.355	800.000	-0.028	0.098
-270.340	-61.379	-0.137	-0.058
-269.326	297.559	-0.128	0.236
-268.311	2.076	-0.136	-0.099
-267.297	158.631	-0.094	-0.131
-266.282	66.927	0.123	-0.126
-265.267	25.618	-0.051	-0.042
-264.253	33.104	0.152	-0.133
-263.238	41.713	-0.254	0.232
-262.224	109.658	-0.207	0.249
-261.209	180.001	-0.030	0.044
-260.195	-38.770	0.037	0.020
-259.180	299.755	0.145	0.269
-258.165	31.504	0.049	-0.042
-257.151	-7.715	-0.105	-0.072
-256.136	-51.890	-0.155	-0.072
-255.122	709.926	-0.180	0.479
-254.107	3.657	-0.245	-0.180
-253.092	365.886	0.142	-0.288
-252.078	-38.272	0.189	0.101
-251.063	-114.144	-0.137	-0.027
-250.049	66.096	0.066	0.067
-249.034	219.886	-0.144	-0.231
-248.019	-191.738	-0.124	0.001
-247.005	500.639	0.083	0.193
-245.990	560.025	-0.066	-0.159
-244.976	-0.819	-0.119	0.085
-243.961	8.014	0.258	-0.194
-242.946	-146.780	0.176	0.015
-241.932	111.013	0.077	-0.093
-240.917	-99.509	0.117	0.030
-239.903	137.781	-0.155	0.204
-238.888	-13.104	0.195	0.127
-237.873	800.000	-0.048	0.174
-236.859	634.700	-0.086	0.220
-235.844	286.426	0.092	0.166
-234.830	349.486	0.043	-0.085
-233.815	-37.693	-0.040	-0.021
-232.800	781.313	0.116	-0.319
-231.786	-200.000	0.095	-0.483
-230.771	30.924	0.467	-0.402
-229.757	800.000	-0.027	-0.080
-228.742	204.954	-0.180	-0.281
-227.727	-200.000	-0.003	-0.029
-226.713	-48.262	-0.162	-0.079
-225.698	42.508	0.090	-0.083
-224.684	131.992	0.128	0.165
-223.669	-200.000	-0.004	0.025
-222.655	-19.785	0.315	-0.196
-221.640	706.423	0.176	-0.466
-220.625	666.598	-0.012	0.032
-219.611	-129.816	-0.120	0.016
-218.596	-90.827	0.269	0.078
-217.582	164.868	0.164	0.232
-216.567	-27.898	0.149	-0.087
-215.552	-39.263	0.022	-0.012
-214.538	-200.000	-0.005	0.191
-213.523	-38.324	-0.058	-0.031
-212.509	477.538	-0.060	0.136
-211.494	63.608	-0.186	0.187
-210.479	541.637	-0.089	0.212
-209.465	-145.328	0.140	-0.013
-208.450	710.488	-0.075	0.198
-207.436	-100.231	-0.407	0.101
-206.421	-200.000	0.035	0.220
-205.406	750.734	-0.127	-0.343
-204.392	-70.418	0.169	-0.064
-203.377	-127.943	-0.266	-0.038
-202.363	407.751	-0.046	-0.098
-201.348	-26.720	-0.231	-0.135
-200.333	-200.000	0.008	0.184
-199.319	98.544	-0.168	0.194
-198.304	-72.685	-0.124	0.046
-197.290	-106.367	0.259	-0.058
-196.275	800.000	0.075	0.322
-195.260	116.287	0.134	0.165
-194.246	-83.943	-0.144	0.046
-193.231	135.047	0.198	-0.257
-192.217	-200.000	0.005	0.040
-191.202	-31.666	-0.187	0.105
-190.187	-179.914	0.260	-0.006
-189.173	800.000	0.039	0.153
-188.158	289.431	-0.129	0.234
-187.144	800.000	-0.061	-0.204
-186.129	209.012	0.092	-0.144
-185.114	800.000	-0.122	0.361
-184.100	800.000	-0.057	-0.233
-183.085	800.000	0.049	0.188
-182.071	800.000	-0.054	-0.154
-181.056	-12.964	0.248	0.162
-180.042	334.418	0.240	-0.467
-179.027	32.814	0.218	0.190
-178.012	-169.721	-0.132	0.005
-176.998	-111.897	0.065	0.013
-175.983	-200.000	0.003	0.096
-174.969	700.645	0.105	0.277
-173.954	-31.039	0.147	0.083
-172.939	107.527	0.143	0.171
-171.925	-51.678	0.383	-0.179
-170.910	-200.000	-0.008	-0.105
-169.896	29.416	-0.263	0.224
-168.881	-200.000	-0.020	-0.222
-167.866	259.388	-0.126	0.217
-166.852	-28.834	0.183	0.106
-165.837	167.177	0.032	0.045
-164.823	514.310	0.029	-0.067
-163.808	172.121	0.127	0.183
-162.793	-59.560	0.215	-0.092
-161.779	-200.000	-0.061	0.282
-160.764	800.000	-0.051	0.165
-159.750	628.170	0.065	-0.164
-158.735	301.437	-0.118	0.218
-157.720	-115.998	-0.064	0.012
-156.706	-110.772	0.324	0.067
-155.691	636.897	0.077	0.195
-154.677	-200.000	-0.022	0.158
-153.662	800.000	0.065	-0.248
-152.647	485.636	0.180	-0.412
-151.633	800.000	-0.017	0.071
-150.618	663.976	-0.098	-0.253
-149.604	-200.000	0.008	-0.085
-148.589	-200.000	0.015	-0.293
-147.574	-127.693	-0.178	0.026
-146.560	-200.000	0.036	-0.287
-145.545	-35.125	-0.099	-0.054
-144.531	-114.582	0.156	0.030
-143.516	506.740	0.133	-0.308
-142.502	97.121	-0.035	0.040
-141.487	-21.414	-0.172	0.105
-140.472	-92.857	0.197	0.055
-139.458	-113.468	-0.051	0.010
-138.443	-90.091	0.257	0.075
-137.429	65.369	0.091	0.092
-136.414	800.000	-0.058	-0.190
-135.399	66.150	-0.161	-0.164
-134.385	800.000	0.047	0.191
-133.370	-45.127	0.181	0.090
-132.356	285.030	0.130	0.234
-131.341	-200.000	0.095	-0.458
-130.326	-167.597	-0.369	0.015
-129.312	-166.243	-0.383	0.016
-128.297	657.668	0.064	0.166
-127.283	42.181	0.127	0.115
-126.268	-126.355	0.190	0.028
-125.253	-30.999	-0.153	0.086
-124.239	-172.313	-0.219	0.007
-123.224	325.850	-0.106	0.203
-122.210	-56.812	0.077	0.034
-121.195	-200.000	-0.004	-0.152
-120.180	-153.245	0.192	-0.013
-119.166	-122.662	-0.072	0.012
-118.151	800.000	0.012	-0.034
-117.137	135.507	0.186	-0.243
-116.122	-90.387	-0.073	0.021
-115.107	800.000	0.160	0.472
-114.093	345.295	-0.219	0.429
-113.078	132.600	-0.070	0.090
-112.064	-200.000	0.042	0.420
-111.049	-200.000	0.019	0.241
-110.034	-53.572	-0.291	0.133
-109.020	70.181	-0.082	0.085
-108.005	-8.190	0.340	0.229
-106.991	313.814	0.181	0.341
-105.976	800.000	0.060	-0.217
-104.962	-110.337	-0.193	0.040
-103.947	-200.000	-0.060	0.506
-102.932	177.566	-0.154	0.224
-101.918	116.798	0.171	-0.209
-100.903	-144.858	0.208	-0.019
-99.889	181.271	0.008	0.012
-98.874	421.471	-0.107	-0.230
-97.859	258.269	0.066	-0.114
-96.845	32.521	-0.208	-0.180
-95.830	66.022	-0.173	-0.175
-94.816	800.000	-0.039	0.122
-93.801	120.508	-0.109	0.135
-92.786	-24.128	-0.101	-0.060
-91.772	800.000	0.042	0.163
-90.757	-0.926	0.108	0.076
-89.743	27.642	-0.080	0.068
-88.728	-115.332	-0.141	-0.027
-87.713	8.351	0.126	0.094
-86.699	-159.520	0.332	0.018
-85.684	372.396	0.222	0.450
-84.670	-200.000	0.009	-0.185
-83.655	47.923	0.208	0.194
-82.640	182.111	-0.100	-0.148
-81.626	390.924	-0.074	-0.153
-80.611	28.914	0.026	-0.022
-79.597	204.115	0.040	0.062
-78.582	198.414	-0.127	0.195
-77.567	-200.000	0.027	-0.356
-76.553	800.000	0.090	-0.295
-75.538	-96.480	-0.412	0.109
-74.524	285.925	-0.045	0.081
-73.509	-139.161	0.511	-0.055
-72.494	676.932	-0.070	-0.182
-71.480	-200.000	-0.026	-0.134
-70.465	16.061	0.346	0.272
-69.451	25.222	-0.181	-0.150
-68.436	-200.000	-0.007	0.114
-67.422	-200.000	0.023	-0.266
-66.407	-43.086	-0.241	0.122
-65.392	-200.000	-0.014	-0.267
-64.378	83.278	0.063	-0.069
-63.363	-200.000	-0.008	-0.244
-62.349	-89.724	0.319	-0.093
-61.334	286.223	-0.535	-0.963
-60.319	19.245	0.113	0.091
-59.305	-200.000	-0.048	-0.675
-58.290	63.340	0.487	0.487
-57.276	579.067	0.683	1.669
-56.261	-200.000	73.731	526.608
-55.246	575.876	1296.719	3159.690
-54.232	146.202	2522.398	3376.918
-53.217	121.372	2245.637	2790.529
-52.203	54.466	1763.438	1694.865
-51.188	46.633	1557.891	1442.719
-50.173	43.633	1527.190	1393.601
-49.159	59.113	1562.199	1533.412
-48.144	66.030	1581.961	1600.771
-47.130	46.859	1546.064	1433.106
-46.115	43.224	1531.239	1394.252
-45.100	43.088	1527.917	1390.233
-44.086	42.952	1525.736	1387.257
-43.071	42.875	1523.907	1385.008
-42.057	42.839	1522.004	1382.971
-41.042	42.862	1520.368	1381.593
-40.027	42.815	1519.234	1380.180
-39.013	42.992	1517.433	1379.702
-37.998	42.941	1516.183	1378.168
-36.984	42.962	1515.150	1377.315
-35.969	42.988	1513.706	1376.127
-34.954	42.999	1512.507	1375.058
-33.940	42.947	1511.099	1373.368
-32.925	42.921	1509.353	1371.547
-31.911	43.085	1507.554	1370.974
-30.896	42.971	1506.321	1369.026
-29.881	43.040	1505.357	1368.561
-28.867	42.903	1504.403	1366.713
-27.852	42.970	1503.006	1365.841
-26.838	42.886	1501.625	1363.963
-25.823	43.065	1499.221	1362.937
-24.809	42.950	1497.718	1360.738
-23.794	42.964	1496.549	1359.714
-22.779	43.002	1495.210	1358.704
-21.765	42.993	1493.998	1357.490
-20.750	42.945	1493.011	1356.210
-19.736	42.976	1491.902	1355.362
-18.721	42.974	1490.412	1353.941
-17.706	42.879	1489.172	1352.123
-16.692	42.905	1488.151	1351.312
-15.677	42.993	1487.096	1350.890
-14.663	42.979	1485.983	1349.736
-13.648	42.861	1485.298	1348.269
-12.633	42.888	1484.190	1347.389
-11.619	42.912	1483.501	1346.875
-10.604	42.930	1482.511	1346.039
-9.590	42.777	1481.555	1344.094
-8.575	42.885	1480.676	1343.964
-7.560	43.006	1479.548	1343.697
-6.546	42.792	1479.149	1341.855
-5.531	42.834	1478.152	1341.173
-4.517	42.867	1477.271	1340.542
-3.502	42.770	1476.410	1339.066
-2.487	42.921	1474.892	1338.639
-1.473	42.841	1474.035	1337.272
-0.458	42.889	1473.035	1336.633
0.556	42.135	1464.159	1327.749
1.571	39.708	1436.532	1286.777
2.586	36.122	1374.864	1208.985
3.600	34.160	1292.145	1124.567
4.615	32.080	1244.210	1070.907
5.629	26.518	1184.921	989.471
6.644	13.363	1090.372	843.787
7.659	2.865	1041.189	754.295
8.673	1.282	1035.170	742.130
9.688	0.850	1032.622	738.128
10.702	0.752	1030.778	736.272
11.717	0.997	1029.045	736.158
12.731	5.002	1035.070	759.951
13.746	16.733	1051.075	829.402
14.761	23.725	1060.052	870.823
15.775	23.628	1058.679	869.142
16.790	23.423	1057.895	867.418
17.804	23.315	1057.268	866.298
18.819	23.036	1056.033	863.847
19.834	23.172	1055.495	863.996
20.848	23.192	1055.153	863.736
21.863	23.301	1054.646	863.776
22.877	23.294	1054.237	863.332
23.892	23.290	1053.645	862.752
24.907	23.183	1052.610	861.306
25.921	23.246	1051.844	860.913
26.936	23.131	1051.037	859.614
27.950	23.183	1050.170	859.081
28.965	23.223	1049.134	858.351
29.980	23.111	1047.217	856.164
30.994	22.979	1046.236	854.651
32.009	23.153	1045.925	855.162
33.023	23.259	1044.994	854.836
34.038	23.121	1043.936	853.231
35.053	23.103	1042.778	852.119
36.067	23.246	1042.327	852.365
37.082	23.229	1041.919	851.875
38.096	23.281	1041.009	851.305
39.111	23.369	1040.414	851.165
40.126	23.492	1039.561	850.984
41.140	23.508	1038.448	850.073
42.155	23.194	1036.510	846.909
43.169	22.825	1035.497	844.245
44.184	22.865	1034.533	843.571
45.199	22.873	1033.313	842.543
46.213	22.800	1032.238	841.245
47.228	22.869	1031.562	840.944
48.242	22.928	1030.979	840.675
49.257	23.019	1030.065	840.293
50.271	23.006	1029.600	839.773
51.286	23.161	1028.911	839.877
52.301	23.166	1028.291	839.318
53.315	23.226	1027.320	838.734
54.330	23.291	1026.759	838.510
55.344	23.057	1025.858	836.595
56.359	23.075	1024.596	835.577
57.374	23.226	1023.940	835.680
58.388	22.928	1023.100	833.515
59.403	22.938	1022.191	832.750
60.417	22.906	1021.507	831.966
61.432	22.806	1020.901	830.926
62.447	22.814	1019.934	830.104
63.461	23.023	1019.404	830.582
64.476	23.017	1018.567	829.800
65.490	22.953	1018.025	828.985
66.505	22.838	1017.284	827.766
67.520	22.864	1016.333	827.043
68.534	22.880	1015.509	826.372
69.549	22.850	1014.603	825.422
70.563	22.538	1013.557	823.040
71.578	22.432	1012.545	821.655
72.593	22.523	1011.740	821.352
73.607	22.324	1010.693	819.500
74.622	22.479	1009.338	819.050
75.636	22.544	1008.955	818.967
76.651	22.814	1008.250	819.578
77.666	22.689	1007.119	818.010
78.680	22.693	1006.390	817.359
79.695	22.613	1006.013	816.610
80.709	22.744	1005.319	816.582
81.724	22.810	1004.479	816.134
82.739	22.852	1003.588	815.529
83.753	22.769	1002.762	814.404
84.768	23.037	1002.244	815.150
85.782	23.277	1002.078	816.046
86.797	23.592	1001.330	816.815
87.812	23.502	1000.410	815.582
88.826	23.383	999.562	814.269
89.841	23.444	998.611	813.700
90.855	23.480	998.053	813.340
91.870	23.446	997.273	812.478
92.884	23.396	996.420	811.481
93.899	23.366	995.284	810.348
94.914	23.154	994.658	808.796
95.928	23.236	993.744	808.357
96.943	23.357	992.661	807.959
97.957	23.091	991.692	805.887
98.972	22.949	990.395	804.113
99.987	22.585	989.727	801.846
101.001	22.713	988.950	801.725
102.016	23.127	988.447	803.125
103.030	23.141	987.785	802.581
104.045	23.030	986.459	800.930
105.060	23.020	984.862	799.519
106.074	22.769	983.966	797.586
107.089	22.706	983.556	796.897
108.103	23.089	982.935	798.054
109.118	23.374	981.642	798.216
110.133	22.978	980.753	795.639
111.147	22.986	979.469	794.563
112.162	22.792	978.673	792.975
113.176	22.562	977.203	790.682
114.191	22.718	976.780	790.970
115.206	22.854	975.691	790.629
116.220	22.411	975.067	788.069
117.235	22.396	973.599	786.747
118.249	22.679	972.754	787.257
119.264	22.663	972.364	786.802
120.279	22.468	971.435	785.112
121.293	22.508	970.895	784.783
122.308	22.579	970.055	784.350
123.322	22.618	969.069	783.657
124.337	22.641	967.942	782.780
125.352	22.490	967.065	781.330
126.366	22.131	965.322	778.265
127.381	21.816	963.900	775.653
128.395	22.227	963.887	777.393
129.410	22.945	963.291	780.015
130.424	23.174	962.752	780.521
131.439	23.204	961.739	779.761
132.454	23.198	960.552	778.702
133.468	23.131	959.939	777.844
134.483	22.993	959.209	776.577
135.497	23.107	958.280	776.254
136.512	23.393	957.853	777.094
137.527	23.433	956.987	776.501
138.541	23.336	956.643	775.726
139.556	23.369	955.999	775.278
140.570	23.325	954.947	774.168
141.585	23.425	953.992	773.762
142.600	23.527	953.083	773.401
143.614	23.466	952.232	772.375
144.629	23.577	951.423	772.135
145.643	23.801	950.918	772.630
146.658	23.653	949.490	770.757
147.673	23.558	948.296	769.307
148.687	23.415	947.499	767.976
149.702	23.237	946.769	766.544
150.716	23.157	945.655	765.226
151.731	23.047	944.714	763.924
152.746	23.204	943.916	763.890
153.760	23.331	943.348	763.909
154.775	23.306	942.997	763.450
155.789	23.415	942.065	763.097
156.804	23.458	940.531	761.973
157.819	23.413	939.759	761.085
158.833	23.490	938.783	760.559
159.848	23.458	938.589	760.197
160.862	23.587	937.427	759.742
161.877	23.511	936.368	758.489
162.892	23.465	935.208	757.287
163.906	23.476	935.039	757.131
164.921	23.512	933.686	756.123
165.935	23.467	932.346	754.779
166.950	23.497	931.560	754.201
167.964	23.438	931.030	753.456
168.979	23.493	929.745	752.582
169.994	23.331	928.531	750.846
171.008	23.195	927.561	749.418
172.023	23.297	927.274	749.555
173.037	23.615	926.339	750.075
174.052	23.332	925.098	747.808
175.067	23.197	924.199	746.448
176.081	23.042	923.695	745.321
177.096	23.324	922.454	745.440
178.110	23.244	922.201	744.834
179.125	23.024	920.795	742.707
180.140	22.847	919.711	741.024
181.154	22.747	919.577	740.433
182.169	22.733	919.266	740.056
183.183	23.152	918.609	741.218
184.198	23.422	918.167	741.929
185.213	23.432	917.351	741.242
186.227	23.283	916.896	740.189
187.242	23.463	916.288	740.382
188.256	23.460	915.761	739.878
189.271	23.474	914.692	739.007
190.286	23.580	913.602	738.503
191.300	23.460	912.858	737.338
192.315	22.880	912.102	734.253
193.329	22.024	910.555	729.389
194.344	21.693	909.224	726.882
195.359	22.302	909.578	729.630
196.373	23.002	910.045	732.841
197.388	23.386	909.518	733.945
198.402	23.311	908.923	733.088
199.417	23.206	908.072	731.900
200.432	23.382	907.498	732.102
201.446	23.203	906.979	730.878
202.461	22.941	905.995	728.941
203.475	22.874	905.970	728.579
204.490	22.610	904.481	726.231
205.504	21.516	902.102	719.761
206.519	21.718	902.191	720.599
207.534	22.723	902.412	724.843
208.548	22.782	902.045	724.725
209.563	23.258	901.662	726.308
210.577	23.268	901.096	725.827
211.592	23.100	899.733	723.976
212.607	23.312	900.145	725.111
213.621	23.405	899.665	725.044
214.636	23.447	899.027	724.635
215.650	23.519	898.030	724.063
216.665	23.430	897.890	723.523
217.680	23.578	896.807	723.186
218.694	23.516	896.750	722.825
219.709	23.160	895.727	720.488
220.723	22.837	894.467	718.099
221.738	23.116	894.144	718.910
222.753	23.318	894.056	719.596
223.767	23.166	893.108	718.152
224.782	23.168	892.520	717.622
225.796	23.488	891.986	718.425
226.811	23.533	891.463	718.125
227.826	23.247	890.011	715.735
228.840	22.425	888.354	711.022
229.855	22.391	887.465	710.111
230.869	22.604	887.491	710.925
231.884	22.361	886.729	709.272
232.899	22.385	886.071	708.780
233.913	23.067	886.242	711.599
234.928	23.400	885.714	712.455
235.942	23.256	885.241	711.432
236.957	23.139	884.641	710.415
237.972	22.909	883.586	708.584
238.986	22.897	882.924	707.941
240.001	22.831	882.451	707.233
241.015	22.902	881.814	706.947
242.030	23.117	881.159	707.219
243.045	23.139	880.519	706.731
244.059	23.209	880.720	707.109
245.074	23.352	879.941	706.992
246.088	23.429	878.981	706.463
247.103	23.089	877.846	704.135
248.117	22.968	877.725	703.495
249.132	23.579	877.654	705.808
250.147	23.884	877.549	706.873
251.161	24.013	876.845	706.755
252.176	24.143	876.318	706.783
253.190	24.072	875.828	706.044
254.205	24.225	875.172	706.058
255.220	24.364	875.137	706.520
256.234	24.350	874.349	705.767
257.249	24.346	873.357	704.888
258.263	24.077	872.834	703.340
259.278	23.993	872.416	702.609
260.293	24.150	872.253	703.035
261.307	24.302	871.311	702.814
262.322	24.046	870.720	701.266
263.336	24.167	869.961	701.070
264.351	23.688	868.439	697.899
265.366	22.644	866.827	692.445
266.380	21.988	865.722	688.924
267.395	22.973	865.725	692.729
268.409	23.713	866.594	696.267
269.424	23.711	865.725	695.500
270.439	23.867	865.231	695.652
271.453	23.883	864.698	695.225
272.468	23.981	863.899	694.902
273.482	24.087	863.681	695.079
274.497	24.145	863.237	694.887
275.512	24.109	862.041	693.725
276.526	23.706	860.490	690.847
277.541	23.628	860.610	690.576
278.555	24.000	860.054	691.516
279.570	24.009	859.515	691.055
280.585	23.795	858.560	689.399
281.599	23.641	857.977	688.273
282.614	24.004	857.799	689.474
283.628	23.550	856.789	686.844
284.643	23.151	856.044	684.645
285.657	23.463	855.737	685.544
286.672	23.444	855.227	685.000
287.687	22.875	854.162	681.892
288.701	23.165	853.828	682.683
289.716	23.726	853.791	684.756
290.730	23.242	852.931	682.143
291.745	23.280	852.393	681.797
292.760	22.938	851.646	679.823
293.774	22.968	850.497	678.962
294.789	23.893	851.227	683.040
295.803	24.347	851.398	684.858
296.818	24.438	850.964	684.800
297.833	24.636	850.730	685.310
298.847	24.453	849.081	683.222
299.862	24.098	848.349	681.214
300.876	24.187	848.031	681.237
301.891	24.608	847.415	682.291
302.906	24.660	846.717	681.865
303.920	24.111	846.051	679.177
304.935	23.915	845.353	677.810
305.949	24.463	844.913	679.484
306.964	24.520	844.315	679.160
307.979	24.455	843.638	678.307
308.993	24.195	843.117	676.841
310.008	24.543	842.897	677.925
311.022	24.739	842.502	678.293
312.037	24.596	841.924	677.225
313.052	24.295	841.331	675.549
314.066	24.162	840.713	674.489
315.081	23.608	839.070	671.015
316.095	22.837	837.724	666.969
317.110	23.195	837.748	668.279
318.125	24.168	838.392	672.409
319.139	23.817	837.408	670.239
320.154	22.648	835.755	664.453
321.168	22.130	834.846	661.722
322.183	22.790	834.884	664.176
323.197	23.741	835.400	668.109
324.212	23.999	835.047	668.737
325.227	24.106	834.602	668.721
326.241	24.456	834.576	669.956
327.256	24.298	833.569	668.495
328.270	24.298	832.643	667.694
329.285	24.168	832.401	666.954
330.300	23.991	831.778	665.734
331.314	23.804	830.866	664.248
332.329	23.775	830.288	663.618
333.343	24.107	829.972	664.544
334.358	24.576	829.479	665.843
335.373	24.485	828.770	664.873
336.387	24.435	828.619	664.506
337.402	24.560	828.402	664.742
338.416	24.844	828.105	665.499
339.431	24.767	827.554	664.710
340.446	24.838	826.763	664.280
341.460	24.923	826.263	664.134
342.475	25.032	825.714	664.038
343.489	24.755	824.929	662.324
344.504	24.766	824.186	661.711
345.519	25.107	824.064	662.814
346.533	25.261	823.755	663.075
347.548	25.199	823.426	662.524
348.562	25.234	823.035	662.280
349.577	25.325	822.111	661.812
350.592	25.228	821.651	661.025
351.606	25.163	820.993	660.198
352.621	25.098	820.726	659.686
353.635	24.982	820.552	659.063
354.650	24.930	819.952	658.329
355.665	24.700	818.738	656.452
356.679	23.786	817.090	651.723
357.694	23.431	816.623	649.992
358.708	24.206	816.399	652.595
359.723	23.974	816.158	651.495
360.738	24.487	815.515	652.800
361.752	24.807	815.632	654.006
362.767	24.893	815.230	653.940
363.781	25.249	815.061	655.048
364.796	25.290	815.050	655.131
365.810	25.464	814.602	655.348
366.825	25.673	813.988	655.556
367.840	25.573	813.748	654.938
368.854	25.307	813.480	653.696
369.869	25.126	811.928	651.735
370.883	24.921	811.605	650.672
371.898	24.951	811.014	650.251
372.913	24.830	810.771	649.560
373.927	24.808	809.994	648.801
374.942	25.004	809.221	648.831
375.956	25.169	808.758	649.001
376.971	25.258	808.287	648.888
377.986	25.283	807.786	648.520
379.000	25.442	807.671	648.945
380.015	25.480	806.759	648.292
381.029	25.414	806.217	647.558
382.044	25.431	805.576	647.049
383.059	25.509	805.197	646.967
384.073	25.537	804.508	646.459
385.088	25.373	804.307	645.647
386.102	25.569	803.780	645.873
387.117	25.306	803.150	644.365
388.132	25.221	802.741	643.676
389.146	25.066	801.964	642.439
390.161	24.490	801.080	639.610
391.175	24.538	800.650	639.385
392.190	25.042	800.793	641.246
393.205	25.075	800.645	641.188
394.219	24.280	798.499	636.575
395.234	22.702	796.116	628.998
396.248	22.061	794.880	625.682
397.263	22.814	796.312	629.440
398.278	24.652	797.603	636.961
399.292	25.097	797.223	638.187
400.307	24.740	796.735	636.468
401.321	24.775	796.245	636.147
402.336	25.034	795.487	636.405
403.350	24.960	795.862	636.384
404.365	25.609	795.530	638.368
405.380	25.863	795.283	639.014
406.394	26.246	794.895	640.002
407.409	26.266	794.932	640.047
408.423	26.501	793.970	640.046
409.438	26.191	793.661	638.645
410.453	26.133	793.450	638.215
411.467	26.269	792.849	638.154
412.482	26.119	792.413	637.218
413.496	26.169	791.893	636.920
414.511	26.210	791.603	636.772
415.526	26.224	791.448	636.642
416.540	26.133	790.646	635.621
417.555	26.009	790.643	635.126
418.569	26.025	789.421	634.144
419.584	25.935	788.962	633.404
420.599	25.927	788.790	633.180
421.613	87.857	1245.470	1328.839
422.628	74.731	1312.008	1328.965
