DTS Sentinel unit serial number:	SN413079Multiplexer serial number:	ORYXHardware model number:	OX4-SRSoftware version number:	ORYX F/W v4.00 Oryx Data Collector v3.7.2.0data status	okinstallation	princeton_trtdifferential loss correction	single-endedforward channel	channel 3reverse channel	N/Adate	2019/09/11time	10:42:11forward acquisition time	60.00reverse acquisition time	0.00gamma	496.2192k internal	0.2296k external	0.2296temperature offset calibration	0.9940default loss term (dB/km)	0.3790temperature slope calibration	1.0000multiplexer offset coefficient	1.0000multiplexer slope coefficient	1.0000fibre end	0.00T internal ref (°C)	36.70T ext. ref 1 (°C)	0.16T ext. ref 2 (°C)	33.81length (m)	temperature (°C)	Stokes	anti-Stokes-747.200	114.828	-0.212	0.264
-746.185	-200.000	0.009	0.359
-745.171	76.023	0.238	-0.257
-744.156	-23.203	-0.283	0.174
-743.142	1.581	-0.131	-0.097
-742.127	1.270	-0.156	0.114
-741.112	386.129	-0.058	0.123
-740.098	800.000	-0.032	0.124
-739.083	800.000	-0.024	-0.087
-738.069	-38.822	-0.179	0.097
-737.054	212.169	0.155	-0.250
-736.039	455.214	-0.126	0.285
-735.025	-145.933	-0.163	-0.015
-734.010	44.036	-0.207	0.193
-732.996	-82.785	-0.244	-0.081
-731.981	-13.987	-0.139	-0.092
-730.966	800.000	-0.117	0.401
-729.952	-48.447	-0.244	-0.120
-728.937	-72.828	0.248	-0.093
-727.923	15.462	0.108	0.087
-726.908	800.000	0.045	0.133
-725.894	-83.760	-0.125	-0.041
-724.879	-134.720	-0.399	0.049
-723.864	800.000	-0.131	-0.544
-722.850	54.560	-0.069	0.068
-721.835	-200.000	0.005	0.110
-720.821	-200.000	-0.016	-0.077
-719.806	-169.760	-0.258	-0.010
-718.791	-136.677	-0.167	0.020
-717.777	-200.000	-0.009	-0.086
-716.762	-200.000	-0.009	0.057
-715.748	-130.730	0.222	-0.030
-714.733	-200.000	0.008	-0.066
-713.718	-200.000	-0.000	-0.084
-712.704	-96.750	-0.369	0.099
-711.689	-93.292	0.156	0.044
-710.675	-200.000	0.018	-0.551
-709.660	-86.075	-0.396	-0.125
-708.645	-60.497	0.206	-0.089
-707.631	-130.605	-0.180	-0.025
-706.616	238.029	0.079	-0.133
-705.602	-200.000	0.040	-0.310
-704.587	48.940	0.096	-0.092
-703.572	-48.902	-0.111	-0.054
-702.558	-200.000	0.038	0.416
-701.543	-78.566	-0.378	0.132
-700.529	-113.785	0.101	-0.020
-699.514	800.000	-0.083	0.244
-698.499	-124.211	-0.225	0.036
-697.485	99.841	0.188	0.222
-696.470	198.836	0.143	0.223
-695.456	-200.000	-0.018	-0.113
-694.441	-119.753	0.179	-0.032
-693.426	-200.000	-0.028	0.143
-692.412	114.072	0.111	-0.138
-691.397	259.425	0.092	0.161
-690.383	258.578	0.118	-0.207
-689.368	-174.975	-0.145	0.004
-688.354	800.000	-0.073	0.212
-687.339	-130.381	-0.248	0.034
-686.324	-200.000	0.042	-0.337
-685.310	-200.000	-0.038	-0.267
-684.295	-191.432	-0.298	-0.003
-683.281	-27.986	0.152	-0.090
-682.266	-25.670	-0.273	-0.164
-681.251	6.849	-0.138	0.105
-680.237	-200.000	0.052	-0.329
-679.222	680.310	0.101	-0.268
-678.208	-147.305	0.517	0.045
-677.193	464.022	-0.089	0.204
-676.178	5.678	0.049	-0.037
-675.164	570.867	0.010	-0.024
-674.149	695.883	0.086	0.231
-673.135	96.107	-0.067	-0.078
-672.120	1.297	-0.361	-0.264
-671.105	122.742	0.237	-0.303
-670.091	800.000	0.094	-0.349
-669.076	-37.157	-0.332	0.181
-668.062	359.123	0.051	-0.103
-667.047	192.339	0.046	-0.070
-666.032	58.998	-0.208	0.209
-665.018	-82.539	-0.235	0.077
-664.003	-134.049	-0.093	0.012
-662.989	-200.000	0.017	0.440
-661.974	-133.309	0.254	-0.033
-660.959	-200.000	0.055	-0.360
-659.945	-200.000	0.029	0.162
-658.930	800.000	-0.046	0.162
-657.916	-200.000	-0.055	-0.266
-656.901	-162.619	-0.279	-0.014
-655.886	-105.968	0.461	-0.106
-654.872	536.613	-0.127	-0.307
-653.857	-200.000	-0.015	-0.106
-652.843	800.000	-0.101	-0.381
-651.828	-98.175	0.100	-0.026
-650.814	-200.000	-0.030	-0.179
-649.799	-43.966	-0.320	-0.164
-648.784	-24.682	0.123	0.075
-647.770	800.000	-0.124	-0.386
-646.755	-121.607	-0.186	0.031
-645.741	108.675	-0.187	-0.227
-644.726	-200.000	0.025	0.461
-643.711	-200.000	-0.032	-0.214
-642.697	-200.000	-0.007	-0.264
-641.682	208.636	-0.196	-0.313
-640.668	-164.068	-0.091	0.004
-639.653	-145.521	-0.191	0.017
-638.638	-126.946	-0.347	0.052
-637.624	-36.638	-0.235	0.129
-636.609	-200.000	0.002	0.051
-635.595	100.192	-0.043	0.051
-634.580	-108.577	0.340	0.074
-633.565	800.000	-0.046	-0.149
-632.551	346.584	0.093	-0.186
-631.536	-21.402	-0.243	0.151
-630.522	800.000	-0.040	-0.141
-629.507	98.947	-0.138	0.162
-628.492	800.000	0.076	0.304
-627.478	286.838	0.084	0.154
-626.463	188.890	-0.177	0.270
-625.449	-65.849	-0.167	0.068
-624.434	-12.907	-0.087	-0.057
-623.419	50.114	0.162	0.156
-622.405	-147.122	-0.176	-0.015
-621.390	-33.100	-0.356	0.201
-620.376	186.066	-0.046	0.069
-619.361	413.947	0.039	0.085
-618.346	-37.199	-0.197	0.107
-617.332	-36.460	0.342	-0.187
-616.317	134.415	-0.046	-0.060
-615.303	-100.350	-0.294	-0.074
-614.288	-40.140	0.105	0.056
-613.273	-38.732	0.128	0.069
-612.259	587.871	-0.116	-0.290
-611.244	-21.381	0.226	-0.140
-610.230	55.677	-0.086	0.085
-609.215	-92.880	0.196	-0.056
-608.201	-75.995	0.169	-0.061
-607.186	79.851	-0.053	-0.058
-606.171	400.643	-0.126	0.270
-605.157	271.148	-0.081	0.145
-604.142	-100.699	-0.176	-0.044
-603.128	91.001	-0.148	-0.168
-602.113	-41.206	-0.112	-0.059
-601.098	-123.993	0.145	0.023
-600.084	-120.013	0.141	-0.025
-599.069	5.502	0.219	-0.164
-598.055	129.337	0.113	-0.146
-597.040	-48.390	-0.157	-0.077
-596.025	-40.634	-0.217	0.114
-595.011	-126.672	0.114	-0.017
-593.996	269.137	0.147	-0.263
-592.982	134.254	-0.162	-0.213
-591.967	-200.000	-0.036	0.406
-590.952	413.330	-0.021	-0.046
-589.938	253.667	0.147	0.256
-588.923	69.232	-0.056	-0.059
-587.909	158.782	-0.111	0.156
-586.894	-200.000	-0.009	0.207
-585.879	-49.821	-0.205	0.099
-584.865	-14.020	-0.127	0.083
-583.850	780.889	0.085	-0.237
-582.836	-200.000	0.006	0.317
-581.821	150.117	0.133	0.183
-580.806	799.082	0.068	-0.191
-579.792	-63.665	0.263	0.109
-578.777	-3.522	0.153	-0.108
-577.763	-72.128	0.305	0.115
-576.748	0.139	0.176	0.127
-575.733	-10.536	-0.133	-0.089
-574.719	-200.000	-0.054	0.252
-573.704	41.174	-0.062	-0.057
-572.690	800.000	-0.070	0.207
-571.675	89.469	-0.083	-0.094
-570.661	496.136	0.139	0.325
-569.646	800.000	0.070	-0.269
-568.631	-25.431	-0.229	0.137
-567.617	127.832	-0.274	-0.354
-566.602	-200.000	0.029	0.298
-565.588	800.000	0.047	0.164
-564.573	800.000	0.089	0.299
-563.558	515.563	-0.151	0.358
-562.544	-200.000	-0.013	0.123
-561.529	654.091	0.106	-0.276
-560.515	-200.000	0.010	-0.188
-559.500	-200.000	-0.002	0.013
-558.485	-200.000	-0.055	-0.399
-557.471	22.034	0.105	0.087
-556.456	-200.000	-0.019	-0.105
-555.442	-200.000	0.016	-0.171
-554.427	-74.011	-0.284	-0.104
-553.412	-51.254	-0.321	0.152
-552.398	800.000	0.049	-0.166
-551.383	-200.000	0.011	-0.256
-550.369	-127.673	-0.110	0.016
-549.354	521.345	-0.121	-0.288
-548.339	-162.249	0.295	-0.015
-547.325	-200.000	0.004	0.026
-546.310	-40.555	0.215	0.113
-545.296	321.607	-0.063	-0.122
-544.281	-14.525	-0.337	-0.219
-543.266	7.337	-0.067	-0.051
-542.252	-200.000	-0.012	0.076
-541.237	105.851	0.153	-0.183
-540.223	-9.391	-0.016	-0.011
-539.208	53.911	-0.118	-0.115
-538.193	-31.400	-0.198	0.113
-537.179	8.401	0.145	0.110
-536.164	-200.000	0.024	0.128
-535.150	33.916	0.398	0.351
-534.135	800.000	0.049	-0.141
-533.121	-102.903	-0.313	-0.075
-532.106	-45.009	-0.077	-0.039
-531.091	-200.000	0.031	-0.602
-530.077	192.607	-0.127	-0.195
-529.062	800.000	0.112	0.329
-528.048	-62.475	-0.102	0.043
-527.033	-139.205	-0.330	0.036
-526.018	68.046	-0.026	0.027
-525.004	90.284	-0.106	0.120
-523.989	800.000	-0.050	0.166
-522.975	-18.188	-0.205	-0.130
-521.960	-124.722	0.550	-0.086
-520.945	-13.129	0.376	0.248
-519.931	-120.736	-0.473	-0.081
-518.916	310.054	-0.141	-0.266
-517.902	-115.074	-0.311	-0.060
-516.887	-192.706	0.241	-0.002
-515.872	72.481	0.185	-0.196
-514.858	800.000	-0.046	-0.182
-513.843	800.000	-0.021	0.062
-512.829	-63.189	-0.582	-0.243
-511.814	-200.000	0.017	-0.115
-510.799	-62.169	-0.132	-0.056
-509.785	149.048	0.211	-0.289
-508.770	-200.000	-0.006	0.082
-507.756	-139.480	-0.365	-0.040
-506.741	376.710	0.070	0.145
-505.726	800.000	0.097	-0.291
-504.712	151.896	0.118	-0.162
-503.697	-158.410	0.438	0.026
-502.683	-200.000	0.014	-0.404
-501.668	37.033	0.097	-0.087
-500.653	75.871	0.333	0.356
-499.639	107.972	-0.081	-0.098
-498.624	-12.483	0.216	-0.143
-497.610	3.378	0.161	-0.119
-496.595	237.804	0.118	-0.198
-495.581	-56.614	-0.113	0.051
-494.566	-200.000	-0.035	-0.220
-493.551	142.315	-0.083	0.112
-492.537	768.037	0.043	-0.119
-491.522	-43.379	0.383	0.196
-490.508	219.469	0.080	-0.129
-489.493	-121.468	-0.117	0.020
-488.478	-87.539	-0.224	-0.069
-487.464	-56.605	-0.274	-0.123
-486.449	-105.485	-0.242	-0.056
-485.435	126.638	0.116	0.149
-484.420	-200.000	0.027	-0.254
-483.405	-200.000	0.045	-0.328
-482.391	-88.896	-0.383	0.115
-481.376	-200.000	0.021	0.116
-480.362	-33.986	0.348	0.194
-479.347	-36.247	-0.227	0.124
-478.332	-32.417	-0.266	-0.150
-477.318	64.003	-0.105	-0.107
-476.303	11.978	-0.082	0.064
-475.289	244.346	0.273	0.463
-474.274	800.000	0.054	-0.210
-473.259	-200.000	-0.043	-0.363
-472.245	-63.066	0.079	-0.033
-471.230	-58.808	-0.423	0.185
-470.216	6.369	-0.108	0.081
-469.201	-200.000	-0.007	0.131
-468.186	578.323	0.127	0.314
-467.172	-200.000	0.071	0.329
-466.157	388.452	-0.194	-0.405
-465.143	449.514	-0.055	0.123
-464.128	20.935	-0.284	0.233
-463.113	-73.469	0.306	0.113
-462.099	-46.062	0.105	-0.052
-461.084	-101.284	-0.308	-0.076
-460.070	-64.776	-0.178	0.073
-459.055	-136.810	-0.205	-0.024
-458.040	138.277	-0.058	0.077
-457.026	49.355	-0.067	0.064
-456.011	564.384	0.022	-0.054
-454.997	-200.000	-0.000	0.002
-453.982	12.355	0.107	-0.083
-452.968	5.290	0.189	-0.141
-451.953	-141.169	-0.286	0.030
-450.938	-30.726	-0.183	-0.105
-449.924	-95.335	0.227	0.062
-448.909	-117.601	0.231	-0.042
-447.895	-41.411	-0.095	-0.049
-446.880	-89.225	0.182	-0.054
-445.865	9.463	0.095	-0.073
-444.851	102.488	-0.175	-0.206
-443.836	54.126	-0.381	-0.370
-442.822	-117.855	-0.198	-0.036
-441.807	179.764	0.041	0.061
-440.792	-200.000	-0.028	-0.130
-439.778	559.339	0.119	0.291
-438.763	-67.470	-0.304	-0.120
-437.749	800.000	0.068	0.278
-436.734	800.000	-0.115	0.411
-435.719	-89.512	-0.146	0.043
-434.705	-197.960	0.304	0.002
-433.690	-200.000	-0.003	0.212
-432.676	144.528	0.228	0.308
-431.661	318.412	-0.117	0.223
-430.646	-139.369	0.172	0.019
-429.632	-10.390	0.084	-0.056
-428.617	-8.451	0.429	0.291
-427.603	110.949	-0.130	-0.158
-426.588	588.456	0.048	-0.120
-425.573	1.403	-0.157	0.114
-424.559	-143.725	0.049	-0.005
-423.544	87.511	-0.075	-0.084
-422.530	-200.000	-0.025	0.152
-421.515	-11.107	0.297	-0.198
-420.500	-22.278	0.323	0.198
-419.486	-200.000	0.073	-0.410
-418.471	112.002	0.116	0.142
-417.457	-101.613	-0.090	0.022
-416.442	128.288	0.125	-0.160
-415.428	658.824	-0.041	0.107
-414.413	-31.898	-0.368	-0.208
-413.398	800.000	-0.125	0.458
-412.384	111.861	0.109	-0.133
-411.369	800.000	0.016	-0.069
-410.355	-59.321	0.064	-0.028
-409.340	-113.608	0.194	-0.038
-408.325	-140.942	-0.266	0.028
-407.311	67.004	0.131	-0.134
-406.296	347.579	-0.257	-0.510
-405.282	-50.751	0.142	-0.067
-404.267	-200.000	0.038	0.230
-403.252	216.144	0.115	-0.184
-402.238	158.068	0.124	0.173
-401.223	-42.493	0.151	-0.078
-400.209	-195.288	-0.348	-0.003
-399.194	-31.187	0.249	0.142
-398.179	60.222	-0.240	-0.239
-397.165	197.444	-0.272	-0.418
-396.150	-200.000	-0.019	-0.089
-395.136	-9.734	-0.152	0.102
-394.121	533.487	-0.087	-0.208
-393.106	800.000	-0.060	0.200
-392.092	-83.411	0.167	0.054
-391.077	170.263	0.247	-0.356
-390.063	-132.758	-0.198	-0.025
-389.048	426.407	0.153	0.333
-388.033	-200.000	0.026	-0.305
-387.019	-200.000	-0.011	-0.139
-386.004	-24.884	0.146	-0.087
-384.990	-200.000	-0.003	-0.198
-383.975	775.736	-0.080	0.221
-382.960	-48.208	0.155	-0.075
-381.946	-169.600	-0.157	-0.006
-380.931	800.000	-0.063	-0.245
-379.917	34.526	0.200	-0.176
-378.902	-135.658	-0.207	0.025
-377.888	800.000	0.050	0.209
-376.873	62.069	-0.153	-0.153
-375.858	96.667	0.096	-0.111
-374.844	95.775	0.073	0.084
-373.829	222.215	0.115	0.186
-372.815	762.569	-0.086	-0.234
-371.800	1.046	0.141	0.102
-370.785	-56.932	0.110	0.049
-369.771	45.913	-0.091	-0.085
-368.756	800.000	0.086	0.252
-367.742	-200.000	-0.007	-0.126
-366.727	-93.461	0.181	-0.050
-365.712	-49.010	0.265	0.128
-364.698	800.000	0.097	0.322
-363.683	-176.219	0.266	0.007
-362.669	-200.000	-0.035	0.165
-361.654	120.958	-0.045	-0.056
-360.639	-10.483	0.232	0.155
-359.625	-200.000	0.008	-0.309
-358.610	-200.000	-0.019	0.294
-357.596	-75.417	-0.299	-0.107
-356.581	-46.770	0.147	-0.073
-355.566	-45.534	0.200	0.100
-354.552	-146.317	-0.418	-0.037
-353.537	122.250	0.179	0.225
-352.523	397.570	-0.056	0.118
-351.508	-110.683	-0.168	-0.035
-350.493	193.952	0.046	-0.070
-349.479	800.000	-0.110	-0.425
-348.464	254.621	-0.111	-0.190
-347.450	800.000	0.101	0.422
-346.435	491.825	0.085	-0.197
-345.420	86.279	0.247	0.274
-344.406	-90.542	-0.245	0.071
-343.391	800.000	-0.110	-0.370
-342.377	-88.802	-0.058	-0.017
-341.362	65.153	-0.179	-0.182
-340.348	99.848	-0.176	0.205
-339.333	800.000	0.045	0.171
-338.318	-130.881	0.172	-0.023
-337.304	227.240	-0.061	0.100
-336.289	-23.922	-0.019	0.011
-335.275	-122.145	0.391	-0.064
-334.260	800.000	-0.092	0.302
-333.245	-46.856	0.057	0.028
-332.231	52.937	0.207	0.199
-331.216	-43.048	-0.179	-0.091
-330.202	-47.012	-0.049	0.024
-329.187	-59.453	-0.037	0.016
-328.172	-0.548	0.118	-0.084
-327.158	-200.000	0.030	0.216
-326.143	-125.105	0.192	0.030
-325.129	241.000	0.148	0.248
-324.114	-65.815	-0.192	0.077
-323.099	-114.085	-0.290	-0.056
-322.085	237.904	-0.095	0.158
-321.070	99.222	0.114	-0.133
-320.056	394.309	-0.117	-0.244
-319.041	-41.990	0.133	-0.069
-318.026	44.503	0.223	0.205
-317.012	212.088	0.018	-0.028
-315.997	357.301	0.145	0.290
-314.983	800.000	-0.072	0.239
-313.968	251.151	-0.140	-0.240
-312.953	-134.236	0.297	0.037
-311.939	-130.793	-0.206	-0.028
-310.924	90.070	-0.121	-0.136
-309.910	44.793	-0.091	-0.084
-308.895	-75.888	-0.029	-0.010
-307.880	2.439	0.121	0.088
-306.866	-39.758	-0.052	-0.027
-305.851	-75.099	-0.187	0.067
-304.837	-63.612	0.278	-0.114
-303.822	-200.000	-0.001	0.081
-302.807	-16.347	-0.160	-0.102
-301.793	-25.807	0.262	-0.155
-300.778	38.257	-0.130	0.116
-299.764	-200.000	-0.012	-0.242
-298.749	-5.409	-0.284	0.196
-297.735	-200.000	-0.025	0.112
-296.720	712.540	-0.212	0.564
-295.705	320.358	-0.139	0.265
-294.691	673.501	0.080	0.208
-293.676	-32.686	0.188	0.105
-292.662	173.813	0.178	0.257
-291.647	219.203	-0.028	-0.045
-290.632	31.923	0.223	0.193
-289.618	800.000	-0.020	-0.065
-288.603	800.000	-0.044	0.142
-287.589	-157.266	-0.261	0.016
-286.574	92.630	-0.182	0.206
-285.559	-123.576	0.084	0.013
-284.545	450.526	0.022	0.049
-283.530	-200.000	-0.048	0.381
-282.516	-70.801	0.137	-0.052
-281.501	-5.061	-0.171	-0.118
-280.486	-143.692	-0.361	-0.034
-279.472	800.000	-0.165	0.590
-278.457	-200.000	0.005	0.036
-277.443	-200.000	0.020	-0.273
-276.428	3.790	-0.112	-0.082
-275.413	62.059	-0.080	0.080
-274.399	-73.336	0.290	-0.106
-273.384	-130.975	0.294	-0.039
-272.370	-200.000	-0.007	0.124
-271.355	-23.565	0.167	0.100
-270.340	41.342	0.061	-0.056
-269.326	-200.000	0.008	-0.121
-268.311	339.343	-0.092	0.180
-267.297	800.000	-0.041	0.150
-266.282	232.909	-0.091	-0.149
-265.267	137.653	-0.147	-0.193
-264.253	-12.880	0.386	0.252
-263.238	85.452	0.104	-0.115
-262.224	-145.991	0.368	-0.033
-261.209	-16.368	0.042	-0.027
-260.195	-55.564	0.117	0.053
-259.180	800.000	0.117	-0.346
-258.165	-200.000	0.041	0.284
-257.151	-176.368	0.227	0.006
-256.136	-186.274	0.351	0.005
-255.122	-200.000	0.021	0.147
-254.107	-36.955	0.121	0.065
-253.092	-112.729	0.060	0.012
-252.078	-94.937	0.228	0.062
-251.063	800.000	-0.012	0.049
-250.049	-16.689	0.298	-0.189
-249.034	-71.794	0.345	-0.129
-248.019	110.476	-0.105	-0.127
-247.005	-147.975	0.128	-0.011
-245.990	800.000	0.013	-0.043
-244.976	800.000	0.070	-0.273
-243.961	290.591	0.127	-0.231
-242.946	35.670	-0.179	-0.158
-241.932	800.000	0.048	-0.140
-240.917	8.410	0.200	-0.151
-239.903	411.302	-0.081	-0.173
-238.888	-200.000	-0.007	0.041
-237.873	-200.000	-0.071	-0.427
-236.859	-38.239	0.154	-0.082
-235.844	535.611	0.059	0.141
-234.830	269.840	0.092	0.161
-233.815	200.343	-0.092	-0.142
-232.800	-8.326	0.147	-0.099
-231.786	-200.000	0.023	0.157
-230.771	105.450	0.156	0.185
-229.757	800.000	-0.041	-0.113
-228.742	-200.000	-0.065	0.334
-227.727	-195.567	0.068	0.000
-226.713	0.472	0.115	-0.082
-225.698	-13.188	-0.450	-0.293
-224.684	-12.848	-0.218	0.142
-223.669	-200.000	-0.038	0.342
-222.655	57.570	-0.136	0.133
-221.640	398.484	-0.033	-0.069
-220.625	800.000	0.074	-0.288
-219.611	8.136	-0.109	-0.082
-218.596	-121.552	-0.147	-0.024
-217.582	800.000	-0.064	-0.233
-216.567	96.374	0.177	0.203
-215.552	-135.248	0.313	0.038
-214.538	75.905	0.209	-0.221
-213.523	-94.473	0.245	-0.067
-212.509	-200.000	0.003	0.045
-211.494	-147.263	0.263	-0.022
-210.479	-200.000	-0.000	0.187
-209.465	800.000	-0.030	0.102
-208.450	-200.000	-0.005	-0.348
-207.436	82.370	0.266	-0.289
-206.421	-61.746	-0.040	-0.017
-205.406	-200.000	-0.029	0.207
-204.392	-200.000	0.024	0.111
-203.377	-95.071	-0.116	-0.031
-202.363	-81.866	-0.461	0.151
-201.348	-200.000	-0.007	-0.166
-200.333	800.000	0.066	-0.217
-199.319	-200.000	-0.011	-0.294
-198.304	-82.717	0.294	-0.095
-197.290	555.647	0.138	0.331
-196.275	75.762	-0.071	-0.075
-195.260	276.002	0.077	-0.137
-194.246	-71.085	-0.515	0.194
-193.231	45.024	-0.154	-0.142
-192.217	-126.647	0.259	0.038
-191.202	-200.000	-0.039	0.462
-190.187	-96.973	0.125	0.033
-189.173	-3.397	-0.050	0.034
-188.158	-81.690	0.064	-0.021
-187.144	-18.557	-0.064	0.040
-186.129	-200.000	0.013	0.217
-185.114	800.000	0.045	0.136
-184.100	91.760	-0.163	0.183
-183.085	-200.000	-0.022	-0.109
-182.071	89.525	0.129	-0.144
-181.056	22.929	0.232	-0.190
-180.042	2.086	0.485	0.350
-179.027	441.298	-0.158	0.345
-178.012	-195.273	0.081	-0.001
-176.998	-88.649	-0.173	0.051
-175.983	-11.124	0.140	-0.092
-174.969	436.627	0.024	-0.052
-173.954	-200.000	0.016	-0.495
-172.939	-53.683	0.244	0.111
-171.925	372.163	-0.085	-0.172
-170.910	-35.297	-0.232	-0.126
-169.896	23.816	0.251	0.207
-168.881	-151.324	-0.115	-0.009
-167.866	-85.891	-0.104	-0.032
-166.852	-200.000	-0.020	-0.153
-165.837	123.812	0.204	-0.255
-164.823	-14.075	-0.268	-0.173
-163.808	44.766	-0.162	-0.149
-162.793	-16.240	-0.179	0.114
-161.779	-9.324	-0.124	0.083
-160.764	-200.000	-0.034	-0.150
-159.750	-200.000	0.068	0.302
-158.735	348.403	-0.050	0.098
-157.720	800.000	-0.077	0.236
-156.706	-113.351	0.138	0.027
-155.691	-21.972	-0.089	-0.054
-154.677	800.000	0.154	0.437
-153.662	11.036	0.213	0.163
-152.647	90.061	0.088	-0.098
-151.633	-200.000	0.014	0.275
-150.618	-75.508	-0.374	-0.133
-149.604	658.770	-0.069	0.176
-148.589	0.594	-0.273	0.195
-147.574	-200.000	0.020	0.160
-146.560	-11.957	-0.030	0.020
-145.545	-109.914	-0.148	0.031
-144.531	-200.000	0.043	-0.248
-143.516	-137.035	0.183	-0.021
-142.502	-56.154	0.034	0.015
-141.487	72.182	0.086	0.090
-140.472	-21.220	-0.191	-0.117
-139.458	-199.160	-0.358	0.002
-138.443	-13.608	-0.156	-0.101
-137.429	-122.176	-0.264	-0.043
-136.414	-200.000	0.008	0.250
-135.399	-120.954	0.378	0.063
-134.385	-15.024	-0.303	0.193
-133.370	-1.986	0.062	0.044
-132.356	337.476	0.027	0.052
-131.341	681.140	-0.106	0.274
-130.326	-132.578	-0.099	-0.013
-129.312	45.159	0.344	-0.316
-128.297	-200.000	-0.008	0.046
-127.283	-74.643	-0.225	0.081
-126.268	289.408	-0.180	0.326
-125.253	-115.193	0.355	-0.067
-124.239	-102.048	0.157	0.038
-123.224	-200.000	0.000	0.084
-122.210	800.000	-0.125	-0.433
-121.195	-200.000	-0.028	-0.246
-120.180	593.142	-0.056	0.138
-119.166	-44.891	-0.107	-0.053
-118.151	267.612	0.047	-0.082
-117.137	-158.706	0.166	-0.010
-116.122	-44.472	0.512	-0.255
-115.107	800.000	-0.096	-0.272
-114.093	207.788	0.017	0.027
-113.078	51.607	0.230	-0.217
-112.064	800.000	0.053	0.200
-111.049	-32.071	0.273	0.152
-110.034	-200.000	-0.019	0.214
-109.020	-88.535	0.208	0.062
-108.005	-77.522	0.275	-0.095
-106.991	73.373	0.062	-0.065
-105.976	-62.231	0.336	-0.140
-104.962	483.316	-0.041	0.093
-103.947	108.685	-0.209	0.248
-102.932	170.247	0.128	-0.182
-101.918	-139.553	-0.199	-0.021
-100.903	120.852	-0.189	-0.234
-99.889	-14.545	-0.081	0.052
-98.874	-45.606	0.121	0.060
-97.859	-200.000	0.009	0.044
-96.845	-11.986	-0.171	0.111
-95.830	33.906	-0.221	0.191
-94.816	196.218	-0.125	0.190
-93.801	193.012	0.090	0.135
-92.786	53.843	-0.261	0.249
-91.772	-144.436	0.227	0.021
-90.757	800.000	-0.058	-0.220
-89.743	-176.401	-0.165	-0.004
-88.728	-200.000	0.040	0.504
-87.713	-200.000	0.024	0.322
-86.699	-74.332	-0.296	0.106
-85.684	-126.418	0.131	0.019
-84.670	221.337	-0.113	0.181
-83.655	0.199	-0.216	0.153
-82.640	-200.000	-0.001	0.111
-81.626	122.608	-0.049	0.062
-80.611	-200.000	0.015	-0.188
-79.597	-183.306	-0.278	-0.005
-78.582	-106.957	-0.297	-0.065
-77.567	46.046	0.212	-0.196
-76.553	94.182	0.150	0.169
-75.538	89.514	0.283	-0.314
-74.524	26.860	0.218	-0.182
-73.509	-200.000	0.012	0.091
-72.494	58.647	0.087	0.085
-71.480	-32.777	-0.212	-0.118
-70.465	-200.000	0.007	-0.054
-69.451	-51.685	-0.375	-0.174
-68.436	-5.085	0.308	0.211
-67.422	37.577	0.161	0.142
-66.407	353.275	0.082	-0.162
-65.392	134.605	0.153	0.198
-64.378	-66.952	0.095	-0.037
-63.363	-200.000	-0.076	-0.402
-62.349	-124.167	-0.251	0.039
-61.334	70.196	-0.643	-0.660
-60.319	-19.681	0.318	0.196
-59.305	796.757	-0.262	-0.717
-58.290	-74.687	0.670	0.240
-57.276	258.022	0.922	1.579
-56.261	-200.000	87.527	502.243
-55.246	540.550	1378.184	3263.441
-54.232	183.083	2611.892	3835.254
-53.217	115.850	2253.913	2742.325
-52.203	46.387	1780.206	1641.356
-51.188	39.673	1586.502	1414.756
-50.173	37.281	1558.186	1372.572
-49.159	53.986	1602.699	1531.787
-48.144	57.973	1621.809	1578.566
-47.130	40.229	1581.618	1414.153
-46.115	36.991	1565.816	1377.011
-45.100	36.789	1562.724	1372.808
-44.086	36.715	1560.844	1370.576
-43.071	36.756	1558.626	1368.867
-42.057	36.716	1557.113	1367.201
-41.042	36.667	1556.419	1366.187
-40.027	36.641	1554.818	1364.547
-39.013	36.686	1552.769	1363.010
-37.998	36.621	1551.972	1361.798
-36.984	36.745	1550.431	1361.263
-35.969	36.703	1549.050	1359.704
-34.954	36.676	1547.448	1358.052
-33.940	36.697	1545.634	1356.555
-32.925	36.703	1544.278	1355.350
-31.911	36.712	1542.837	1354.094
-30.896	36.819	1541.337	1353.477
-29.881	36.792	1540.447	1352.453
-28.867	36.795	1538.634	1350.829
-27.852	36.741	1537.459	1349.368
-26.838	36.743	1535.823	1347.893
-25.823	36.686	1534.698	1346.452
-24.809	36.724	1533.269	1345.408
-23.794	36.748	1530.967	1343.504
-22.779	36.801	1530.087	1343.044
-21.765	36.753	1529.396	1342.049
-20.750	36.850	1527.522	1341.029
-19.736	36.737	1527.046	1339.772
-18.721	36.757	1525.629	1338.612
-17.706	36.640	1524.452	1336.724
-16.692	36.652	1523.550	1335.958
-15.677	36.623	1522.214	1334.535
-14.663	36.725	1521.032	1334.150
-13.648	36.639	1520.300	1332.859
-12.633	36.695	1519.194	1332.226
-11.619	36.650	1518.156	1330.953
-10.604	36.726	1517.332	1330.696
-9.590	36.692	1516.296	1329.501
-8.575	36.642	1515.773	1328.646
-7.560	36.658	1514.703	1327.765
-6.546	36.639	1513.832	1326.819
-5.531	36.677	1512.622	1325.971
-4.517	36.579	1511.907	1324.619
-3.502	36.606	1510.738	1323.724
-2.487	36.607	1510.157	1323.172
-1.473	36.642	1508.467	1321.880
-0.458	36.660	1506.755	1320.445
0.556	35.009	1497.875	1311.241
1.571	32.635	1471.031	1271.630
2.586	29.405	1408.988	1196.973
3.600	27.967	1324.244	1116.103
4.615	26.207	1276.964	1065.787
5.629	21.772	1216.221	990.007
6.644	10.279	1123.410	854.073
7.659	1.528	1077.479	774.644
8.673	0.340	1071.521	764.274
9.688	0.259	1068.059	761.327
10.702	-0.005	1066.907	759.109
11.717	0.036	1065.161	758.005
12.731	3.945	1070.409	781.440
13.746	14.670	1085.859	847.348
14.761	21.755	1094.588	890.203
15.775	22.228	1094.578	892.519
16.790	22.218	1093.929	891.859
17.804	21.909	1093.061	889.505
18.819	21.757	1092.165	887.927
19.834	21.921	1091.479	888.122
20.848	22.017	1090.885	888.043
21.863	22.006	1090.898	887.923
22.877	22.181	1089.945	887.953
23.892	22.096	1089.444	887.036
24.907	21.936	1088.379	885.284
25.921	21.905	1088.200	884.904
26.936	21.952	1086.841	883.956
27.950	21.885	1086.376	883.162
28.965	21.986	1085.012	882.484
29.980	21.818	1083.378	880.232
30.994	21.853	1081.923	879.149
32.009	21.965	1080.739	878.669
33.023	22.147	1080.280	879.127
34.038	21.858	1079.605	877.055
35.053	21.808	1078.454	875.796
36.067	21.954	1078.172	876.219
37.082	21.998	1077.310	875.657
38.096	22.067	1076.140	874.973
39.111	22.189	1075.350	874.858
40.126	22.275	1074.510	874.529
41.140	22.135	1073.500	872.935
42.155	22.028	1071.659	870.827
43.169	21.671	1070.635	868.152
44.184	21.632	1069.281	866.785
45.199	21.668	1068.246	866.044
46.213	21.696	1067.215	865.269
47.228	21.713	1066.033	864.317
48.242	21.646	1065.634	863.589
49.257	21.745	1065.094	863.563
50.271	21.891	1064.101	863.400
51.286	21.957	1063.851	863.447
52.301	21.934	1062.584	862.228
53.315	21.947	1061.995	861.735
54.330	22.057	1061.026	861.417
55.344	21.859	1060.532	859.967
56.359	21.901	1059.251	859.056
57.374	21.893	1058.442	858.288
58.388	21.775	1057.628	856.974
59.403	21.758	1056.800	856.144
60.417	21.681	1055.953	855.005
61.432	21.527	1055.228	853.591
62.447	21.656	1054.741	853.751
63.461	21.721	1054.155	853.519
64.476	21.800	1052.894	852.805
65.490	21.815	1051.906	852.001
66.505	21.627	1051.480	850.668
67.520	21.634	1050.707	850.005
68.534	21.721	1049.544	849.410
69.549	21.615	1048.364	847.865
70.563	21.263	1047.154	845.110
71.578	21.143	1046.373	843.823
72.593	21.373	1045.456	844.120
73.607	21.241	1044.164	842.363
74.622	21.184	1043.130	841.184
75.636	21.445	1042.963	842.231
76.651	21.577	1042.060	842.062
77.666	21.486	1041.038	840.723
78.680	21.387	1039.659	839.060
79.695	21.299	1039.664	838.567
80.709	21.462	1038.764	838.552
81.724	21.652	1037.945	838.722
82.739	21.502	1037.006	837.174
83.753	21.578	1036.269	836.868
84.768	21.817	1036.180	837.864
85.782	22.130	1035.130	838.436
86.797	22.303	1034.362	838.565
87.812	22.187	1033.513	837.247
88.826	22.075	1032.793	836.059
89.841	22.025	1031.778	834.924
90.855	22.140	1030.639	834.476
91.870	22.187	1029.979	834.090
92.884	22.164	1029.251	833.319
93.899	22.081	1027.790	831.667
94.914	22.067	1027.215	831.064
95.928	22.152	1026.413	830.741
96.943	22.161	1025.451	829.931
97.957	21.772	1024.401	827.176
98.972	21.632	1022.829	825.173
99.987	21.465	1021.955	823.607
101.001	21.467	1021.428	823.122
102.016	21.746	1021.079	824.076
103.030	21.781	1020.328	823.564
104.045	21.800	1019.309	822.756
105.060	21.674	1017.603	820.717
106.074	21.636	1016.327	819.436
107.089	21.597	1016.054	818.963
108.103	21.890	1015.464	819.782
109.118	22.070	1014.521	819.791
110.133	21.781	1013.343	817.420
111.147	21.739	1012.380	816.375
112.162	21.623	1010.856	814.535
113.176	21.478	1009.561	812.746
114.191	21.476	1009.333	812.480
115.206	21.672	1008.282	812.473
116.220	21.311	1007.295	809.928
117.235	21.169	1005.728	807.942
118.249	21.410	1005.405	808.727
119.264	21.381	1004.809	808.042
120.279	21.285	1003.414	806.406
121.293	21.267	1002.868	805.811
122.308	21.499	1002.015	806.122
123.322	21.428	1001.364	805.199
124.337	21.460	1000.350	804.461
125.352	21.284	999.206	802.662
126.366	21.113	996.940	799.988
127.381	20.670	995.840	797.005
128.395	21.089	996.454	799.347
129.410	21.853	995.659	802.135
130.424	21.908	994.622	801.479
131.439	21.861	993.960	800.660
132.454	21.723	992.810	799.034
133.468	21.885	992.002	799.052
134.483	21.815	991.018	797.866
135.497	21.923	990.440	797.821
136.512	22.169	989.686	798.263
137.527	22.000	989.314	797.124
138.541	22.099	988.026	796.463
139.556	22.097	987.344	795.834
140.570	22.156	986.388	795.260
141.585	22.083	985.842	794.423
142.600	22.267	984.896	794.422
143.614	22.123	983.701	792.736
144.629	22.231	983.222	792.766
145.643	22.342	983.010	793.026
146.658	22.278	981.455	791.412
147.673	22.080	980.337	789.551
148.687	21.981	979.395	788.277
149.702	21.907	978.034	786.783
150.716	21.894	976.888	785.733
151.731	21.740	976.178	784.403
152.746	21.884	975.511	784.443
153.760	22.130	974.844	784.933
154.775	22.324	974.114	785.144
155.789	22.303	972.895	783.997
156.804	22.246	972.441	783.310
157.819	22.094	971.329	781.666
158.833	22.261	970.566	781.724
159.848	22.398	969.670	781.544
160.862	22.367	968.939	780.747
161.877	22.417	967.425	779.680
162.892	22.102	967.154	777.998
163.906	22.296	966.068	777.913
164.921	22.181	965.449	776.836
165.935	22.196	964.151	775.789
166.950	22.337	963.018	775.433
167.964	22.272	962.175	774.398
168.979	22.202	961.528	773.502
169.994	22.080	960.086	771.739
171.008	22.008	959.086	770.548
172.023	22.141	958.258	770.399
173.037	22.212	957.819	770.287
174.052	22.096	956.421	768.588
175.067	21.913	955.196	766.738
176.081	21.862	954.711	766.058
177.096	21.939	953.729	765.539
178.110	22.012	953.311	765.452
179.125	22.040	951.558	764.101
180.140	21.676	950.823	761.858
181.154	21.622	950.196	761.055
182.169	21.694	949.947	761.098
183.183	21.935	949.819	761.977
184.198	22.226	949.229	762.697
185.213	22.231	948.252	761.867
186.227	22.015	947.968	760.636
187.242	22.158	947.786	761.042
188.256	22.282	946.603	760.561
189.271	22.176	945.607	759.236
190.286	22.301	945.196	759.380
191.300	22.132	944.137	757.732
192.315	21.623	942.810	754.408
193.329	20.986	940.864	750.046
194.344	20.590	939.867	747.481
195.359	21.100	940.386	750.019
196.373	21.907	940.360	753.401
197.388	22.291	939.990	754.683
198.402	22.177	939.253	753.540
199.417	21.995	938.950	752.448
200.432	21.998	938.657	752.161
201.446	22.015	937.662	751.370
202.461	21.613	936.847	748.930
203.475	21.648	936.466	748.708
204.490	21.413	934.919	746.400
205.504	20.302	932.353	739.556
206.519	20.641	932.488	741.044
207.534	21.465	933.057	744.939
208.548	21.777	932.063	745.408
209.563	22.043	932.165	746.553
210.577	22.071	931.312	745.923
211.592	21.785	930.533	744.019
212.607	22.226	930.472	745.775
213.621	22.431	929.328	745.660
214.636	22.298	928.823	744.628
215.650	22.228	928.378	743.909
216.665	22.196	927.988	743.395
217.680	22.206	927.496	742.975
218.694	22.372	926.930	743.160
219.709	21.944	925.858	740.429
220.723	21.472	925.253	737.888
221.738	21.778	924.407	738.436
222.753	22.054	923.768	739.023
223.767	22.019	923.101	738.278
224.782	22.079	922.238	737.776
225.796	22.226	921.627	737.838
226.811	22.491	921.230	738.567
227.826	22.045	919.824	735.506
228.840	21.179	918.599	730.839
229.855	20.943	918.022	729.328
230.869	21.418	917.237	730.625
231.884	21.117	916.385	728.623
232.899	21.057	915.733	727.788
233.913	21.816	916.025	731.122
234.928	22.162	915.818	732.335
235.942	21.926	915.242	730.828
236.957	22.045	914.120	730.361
237.972	21.746	913.447	728.519
238.986	21.505	913.011	727.102
240.001	21.772	911.932	727.287
241.015	21.723	911.651	726.795
242.030	21.754	910.650	726.064
243.045	22.024	910.248	726.796
244.059	21.994	909.611	726.100
245.074	22.147	909.436	726.527
246.088	22.129	908.582	725.707
247.103	21.824	907.305	723.364
248.117	21.860	906.830	723.068
249.132	22.378	906.818	725.129
250.147	22.606	906.754	725.953
251.161	22.742	906.110	725.935
252.176	22.978	905.638	726.463
253.190	22.830	905.120	725.373
254.205	22.853	904.707	725.073
255.220	23.112	904.122	725.605
256.234	23.009	903.398	724.537
257.249	23.108	902.406	724.080
258.263	22.752	902.296	722.473
259.278	22.878	900.992	721.879
260.293	22.899	901.033	721.932
261.307	22.825	900.461	721.108
262.322	22.951	899.430	720.734
263.336	22.926	898.599	719.903
264.351	22.421	897.188	716.654
265.366	21.162	895.875	710.421
266.380	20.736	894.490	707.530
267.395	21.615	894.746	711.238
268.409	22.513	894.862	714.917
269.424	22.368	894.409	713.901
270.439	22.532	893.935	714.124
271.453	22.756	893.264	714.432
272.468	22.675	892.588	713.500
273.482	22.936	892.231	714.207
274.497	22.959	892.112	714.142
275.512	22.753	890.739	712.151
276.526	22.275	889.504	709.172
277.541	22.399	888.690	708.958
278.555	22.831	888.533	710.510
279.570	22.639	888.249	709.449
280.585	22.325	887.357	707.412
281.599	22.639	886.237	707.718
282.614	22.726	886.050	707.852
283.628	22.199	885.036	704.867
284.643	21.956	883.840	702.879
285.657	22.233	884.215	704.227
286.672	22.189	883.160	703.148
287.687	21.595	882.261	699.995
288.701	21.981	882.259	701.473
289.716	22.516	881.799	703.184
290.730	22.120	880.934	700.852
291.745	21.954	880.140	699.495
292.760	21.757	879.048	697.782
293.774	21.670	878.859	697.223
294.789	22.702	879.129	701.482
295.803	23.312	879.013	703.753
296.818	23.137	878.995	702.981
297.833	23.359	878.299	703.243
298.847	23.083	877.017	701.061
299.862	22.745	876.146	698.964
300.876	22.970	875.440	699.228
301.891	23.146	875.437	699.862
302.906	23.298	874.427	699.592
303.920	22.940	873.382	697.281
304.935	22.773	872.694	696.011
305.949	23.173	872.610	697.461
306.964	23.183	872.415	697.283
307.979	22.879	871.664	695.423
308.993	22.887	871.496	695.261
310.008	23.263	870.807	696.125
311.022	23.401	870.177	696.104
312.037	23.308	869.184	694.884
313.052	22.870	868.893	692.869
314.066	22.913	868.239	692.455
315.081	22.376	866.420	688.844
316.095	21.441	865.779	684.613
317.110	22.005	865.669	686.675
318.125	22.877	865.558	689.931
319.139	22.651	864.451	688.106
320.154	21.419	862.861	681.979
321.168	20.890	862.108	679.261
322.183	21.646	862.065	682.115
323.197	22.472	862.400	685.535
324.212	22.798	862.604	686.907
325.227	23.003	861.565	686.812
326.241	23.065	861.470	686.918
327.256	22.893	860.863	685.706
328.270	22.941	860.033	685.171
329.285	22.821	859.054	683.864
330.300	22.517	858.733	682.372
331.314	22.466	857.700	681.291
332.329	22.533	856.840	680.806
333.343	22.900	856.585	681.965
334.358	23.143	856.236	682.560
335.373	23.017	856.134	681.933
336.387	23.243	855.276	682.062
337.402	23.415	855.036	682.473
338.416	23.549	854.560	682.548
339.431	23.662	853.728	682.258
340.446	23.443	853.372	681.071
341.460	23.600	853.040	681.347
342.475	23.669	852.269	680.937
343.489	23.527	851.687	679.869
344.504	23.500	850.781	678.980
345.519	23.735	850.933	679.942
346.533	23.824	850.481	679.859
347.548	23.884	850.144	679.759
348.562	23.997	849.438	679.569
349.577	23.869	848.723	678.448
350.592	23.871	848.028	677.841
351.606	23.795	847.784	677.296
352.621	23.850	847.278	677.040
353.635	23.668	846.919	675.998
354.650	23.732	846.227	675.630
355.665	23.474	844.920	673.547
356.679	22.353	843.462	668.072
357.694	22.359	842.622	667.372
358.708	22.795	843.069	669.320
359.723	22.784	842.246	668.565
360.738	22.855	842.357	668.863
361.752	23.465	842.134	670.936
362.767	23.502	841.660	670.638
363.781	23.829	841.723	671.865
364.796	24.133	841.319	672.634
365.810	24.182	840.762	672.315
366.825	24.424	840.028	672.577
367.840	24.268	840.065	671.960
368.854	24.148	839.388	670.907
369.869	23.625	838.393	668.087
370.883	23.384	838.041	666.838
371.898	23.866	836.686	667.513
372.913	23.519	836.560	666.051
373.927	23.538	836.024	665.634
374.942	23.673	835.425	665.604
375.956	23.834	834.941	665.765
376.971	23.690	834.507	664.820
377.986	23.896	833.958	665.094
379.000	24.258	833.341	665.896
380.015	24.124	833.308	665.310
381.029	24.067	832.114	664.087
382.044	24.045	831.551	663.494
383.059	24.142	831.454	663.722
384.073	24.270	830.609	663.463
385.088	24.175	830.387	662.873
386.102	24.253	829.522	662.417
387.117	23.977	828.675	660.657
388.132	23.863	828.252	659.837
389.146	23.684	827.594	658.590
390.161	23.157	826.536	655.737
391.175	23.330	826.560	656.339
392.190	23.846	826.328	658.008
393.205	23.822	825.715	657.372
394.219	23.018	823.774	652.803
395.234	21.372	821.649	644.990
396.248	20.463	820.481	640.667
397.263	21.681	821.299	645.742
398.278	23.315	822.783	652.880
399.292	23.822	822.725	654.644
400.307	23.543	822.026	653.002
401.321	23.641	821.452	652.850
402.336	23.696	820.983	652.621
403.350	23.810	821.004	653.001
404.365	24.309	821.075	654.833
405.380	24.623	820.559	655.512
406.394	24.750	820.848	656.152
407.409	24.918	820.425	656.371
408.423	24.834	819.680	655.411
409.438	24.846	818.949	654.814
410.453	24.854	818.306	654.267
411.467	24.832	817.919	653.820
412.482	24.822	817.209	653.161
413.496	24.858	816.971	653.045
414.511	24.967	816.770	653.221
415.526	24.899	815.980	652.286
416.540	24.982	815.376	652.047
417.555	24.940	815.040	651.567
418.569	24.540	814.739	649.815
419.584	24.544	813.618	648.876
420.599	24.698	813.278	649.107
421.613	151.001	1364.434	1788.326
422.628	131.282	1444.748	1788.442
