DTS Sentinel unit serial number:	SN413079Multiplexer serial number:	ORYXHardware model number:	OX4-SRSoftware version number:	ORYX F/W v4.00 Oryx Data Collector v3.7.2.0data status	okinstallation	princeton_trtdifferential loss correction	single-endedforward channel	channel 3reverse channel	N/Adate	2019/09/12time	07:30:11forward acquisition time	60.00reverse acquisition time	0.00gamma	496.2192k internal	0.2317k external	0.2317temperature offset calibration	1.0032default loss term (dB/km)	0.3790temperature slope calibration	1.0000multiplexer offset coefficient	1.0000multiplexer slope coefficient	1.0000fibre end	0.00T internal ref (°C)	32.50T ext. ref 1 (°C)	1.62T ext. ref 2 (°C)	29.08length (m)	temperature (°C)	Stokes	anti-Stokes-747.200	-6.097	-0.416	-0.288
-746.185	-29.713	0.181	-0.105
-745.171	-200.000	-0.034	0.156
-744.156	56.771	-0.191	0.188
-743.142	231.330	0.129	0.214
-742.127	-6.193	-0.075	0.052
-741.112	334.456	-0.090	0.176
-740.098	-53.058	-0.142	0.066
-739.083	-56.110	-0.040	-0.018
-738.069	-200.000	0.004	0.227
-737.054	-200.000	0.000	-0.120
-736.039	60.180	-0.219	-0.219
-735.025	40.798	0.294	0.269
-734.010	-86.052	-0.123	-0.038
-732.996	451.090	0.110	0.245
-731.981	-183.879	-0.201	-0.003
-730.966	-200.000	-0.090	0.495
-729.952	40.569	-0.118	0.108
-728.937	-43.579	-0.300	-0.153
-727.923	-125.358	-0.189	0.029
-726.908	-85.848	-0.021	0.007
-725.894	-24.316	-0.223	-0.135
-724.879	257.955	0.134	-0.232
-723.864	-154.748	0.341	-0.023
-722.850	-172.653	-0.540	0.017
-721.835	348.740	0.160	0.319
-720.821	800.000	0.043	0.178
-719.806	800.000	-0.140	-0.409
-718.791	-125.826	-0.301	-0.046
-717.777	33.481	-0.231	-0.203
-716.762	-200.000	-0.145	-0.670
-715.748	14.597	-0.107	-0.085
-714.733	60.346	0.200	-0.200
-713.718	-200.000	0.008	-0.131
-712.704	-8.444	-0.133	0.091
-711.689	-40.714	-0.048	0.025
-710.675	-76.496	0.279	0.099
-709.660	-122.198	0.162	-0.027
-708.645	-90.147	-0.093	0.027
-707.631	-130.725	0.346	-0.047
-706.616	-28.140	0.227	-0.133
-705.602	-29.548	-0.288	0.167
-704.587	-113.711	-0.302	-0.059
-703.572	63.884	-0.084	-0.086
-702.558	301.094	0.043	0.080
-701.543	800.000	-0.063	0.256
-700.529	-0.312	0.227	0.163
-699.514	-78.884	0.153	-0.053
-698.499	800.000	-0.101	0.290
-697.485	152.270	-0.104	0.143
-696.470	800.000	0.063	0.210
-695.456	-44.016	0.152	0.077
-694.441	81.667	0.052	-0.057
-693.426	-165.368	0.382	-0.017
-692.412	-24.540	-0.423	-0.254
-691.397	132.676	-0.189	-0.247
-690.383	135.115	0.193	0.254
-689.368	-69.478	-0.321	-0.124
-688.354	-200.000	0.064	-0.388
-687.339	-134.280	0.315	-0.039
-686.324	-28.946	-0.269	0.156
-685.310	98.932	-0.060	0.069
-684.295	-200.000	0.019	0.245
-683.281	-115.155	0.254	0.049
-682.266	-88.189	-0.060	-0.018
-681.251	-87.607	-0.248	0.076
-680.237	-139.853	-0.220	0.024
-679.222	128.073	-0.160	-0.206
-678.208	-12.795	0.252	-0.166
-677.193	-36.419	0.101	0.055
-676.178	552.221	-0.053	0.129
-675.164	118.416	0.103	0.129
-674.149	363.264	0.076	0.154
-673.135	-8.244	-0.338	-0.230
-672.120	188.996	0.148	-0.224
-671.105	73.526	0.006	-0.006
-670.091	-190.532	0.209	-0.002
-669.076	506.103	0.036	0.085
-668.062	-119.104	0.347	-0.061
-667.047	338.577	0.194	0.382
-666.032	-177.970	0.238	0.006
-665.018	-136.177	-0.050	-0.006
-664.003	-119.258	-0.363	0.064
-662.989	268.427	-0.018	0.032
-661.974	27.431	0.067	0.057
-660.959	-200.000	-0.002	-0.132
-659.945	154.731	-0.103	-0.143
-658.930	-106.923	0.110	0.024
-657.916	613.258	-0.096	0.242
-656.901	7.000	-0.107	0.081
-655.886	202.616	-0.261	0.406
-654.872	69.146	0.100	0.103
-653.857	-167.221	0.075	0.003
-652.843	-107.071	-0.130	0.029
-651.828	-110.079	0.317	-0.067
-650.814	-106.285	-0.100	0.023
-649.799	-1.499	0.185	0.132
-648.784	-110.275	0.059	-0.012
-647.770	385.733	-0.163	0.339
-646.755	-7.819	0.287	0.196
-645.741	168.553	-0.103	0.149
-644.726	-125.459	-0.166	-0.025
-643.711	426.147	0.164	0.357
-642.697	267.724	0.116	0.204
-641.682	800.000	-0.132	-0.453
-640.668	-12.308	-0.197	0.130
-639.653	800.000	0.019	-0.068
-638.638	-128.836	-0.157	0.022
-637.624	-200.000	0.040	0.262
-636.609	118.204	-0.228	-0.283
-635.595	800.000	-0.056	0.161
-634.580	48.528	0.226	-0.213
-633.565	734.537	0.088	-0.237
-632.551	-97.621	0.047	0.012
-631.536	-141.319	0.203	-0.021
-630.522	-200.000	-0.011	0.053
-629.507	-21.976	-0.206	0.126
-628.492	-122.135	-0.118	-0.019
-627.478	-200.000	0.019	-0.129
-626.463	95.116	0.100	0.114
-625.449	121.883	-0.131	0.164
-624.434	-24.355	0.096	0.058
-623.419	-31.340	-0.184	0.105
-622.405	184.915	-0.049	0.073
-621.390	-200.000	-0.045	-0.199
-620.376	182.885	-0.143	-0.212
-619.361	-43.842	-0.087	-0.044
-618.346	-125.936	0.163	0.025
-617.332	800.000	-0.009	0.035
-616.317	42.897	-0.112	-0.103
-615.303	52.270	-0.249	-0.239
-614.288	-135.108	0.130	-0.016
-613.273	-20.371	-0.103	-0.064
-612.259	657.990	-0.076	-0.198
-611.244	370.298	-0.078	-0.160
-610.230	-24.174	0.169	0.102
-609.215	64.846	0.080	-0.081
-608.201	157.864	-0.100	0.139
-607.186	24.207	-0.127	-0.106
-606.171	-44.637	-0.380	-0.191
-605.157	-86.079	-0.164	-0.051
-604.142	-200.000	0.044	-0.216
-603.128	454.454	-0.096	-0.213
-602.113	-200.000	0.003	0.026
-601.098	-200.000	0.017	0.263
-600.084	-18.828	-0.170	-0.106
-599.069	800.000	0.018	-0.076
-598.055	-99.001	-0.109	-0.028
-597.040	-200.000	-0.007	0.130
-596.025	485.096	0.068	0.155
-595.011	45.160	0.085	-0.078
-593.996	-49.152	0.186	0.090
-592.982	403.120	-0.071	0.150
-591.967	-22.233	0.184	0.112
-590.952	-200.000	-0.005	0.107
-589.938	-7.230	0.120	-0.082
-588.923	393.858	-0.046	-0.096
-587.909	147.867	-0.132	0.179
-586.894	-118.376	-0.113	0.020
-585.879	-16.879	-0.106	-0.067
-584.865	-200.000	-0.010	0.066
-583.850	-200.000	0.024	0.194
-582.836	-200.000	0.072	0.512
-581.821	11.175	0.043	0.033
-580.806	-91.478	-0.153	-0.044
-579.792	282.961	-0.222	-0.400
-578.777	-117.246	0.217	0.040
-577.763	66.483	0.365	0.373
-576.748	144.320	-0.098	0.132
-575.733	-200.000	0.080	-0.367
-574.719	-155.622	-0.213	0.014
-573.704	-200.000	0.080	-0.395
-572.690	462.798	0.100	0.224
-571.675	-200.000	0.038	-0.262
-570.661	65.827	0.060	-0.062
-569.646	440.162	-0.134	0.295
-568.631	687.164	-0.062	0.162
-567.617	149.276	0.180	-0.245
-566.602	-200.000	0.033	-0.351
-565.588	-55.584	0.112	0.050
-564.573	800.000	-0.082	-0.322
-563.558	800.000	0.068	0.189
-562.544	-49.263	-0.278	-0.134
-561.529	171.115	0.110	0.159
-560.515	800.000	0.088	0.290
-559.500	164.282	0.045	-0.064
-558.485	90.086	0.191	-0.215
-557.471	-161.336	-0.262	0.014
-556.456	800.000	0.050	-0.163
-555.442	-13.757	-0.235	-0.152
-554.427	57.486	0.098	-0.097
-553.412	-47.807	-0.055	-0.027
-552.398	-19.108	-0.090	-0.056
-551.383	-125.835	0.227	0.034
-550.369	63.511	-0.035	-0.035
-549.354	629.187	-0.044	0.113
-548.339	98.677	0.222	-0.257
-547.325	3.516	0.354	-0.259
-546.310	-169.836	0.112	-0.004
-545.296	84.012	-0.171	-0.188
-544.281	120.758	0.155	-0.194
-543.266	-96.432	0.229	0.061
-542.252	91.610	0.147	0.166
-541.237	-24.211	-0.214	0.129
-540.223	-22.263	0.313	0.191
-539.208	-126.768	-0.317	-0.047
-538.193	-80.001	-0.126	0.042
-537.179	-200.000	0.072	0.373
-536.164	-76.165	0.180	0.064
-535.150	-130.363	0.277	0.038
-534.135	-200.000	-0.003	-0.162
-533.121	-8.607	-0.187	-0.126
-532.106	-200.000	-0.039	0.178
-531.091	-200.000	0.021	0.121
-530.077	-94.992	0.260	0.070
-529.062	145.634	0.167	0.224
-528.048	-54.225	-0.105	0.048
-527.033	85.708	0.141	-0.156
-526.018	-107.222	0.060	0.013
-525.004	94.665	-0.309	0.353
-523.989	537.306	0.073	0.175
-522.975	44.673	0.227	0.210
-521.960	-200.000	-0.002	-0.089
-520.945	-200.000	-0.028	-0.295
-519.931	-88.607	-0.257	0.077
-518.916	-26.376	-0.276	-0.162
-517.902	-84.993	-0.302	-0.095
-516.887	30.575	0.272	0.233
-515.872	336.277	-0.038	-0.074
-514.858	-200.000	-0.001	0.177
-513.843	-72.894	-0.111	-0.041
-512.829	-26.231	-0.023	0.013
-511.814	84.288	-0.183	0.201
-510.799	324.846	0.186	0.356
-509.785	-125.550	-0.214	0.033
-508.770	-64.581	0.118	-0.048
-507.756	-200.000	-0.003	-0.100
-506.741	-46.319	0.164	-0.081
-505.726	225.032	0.115	-0.187
-504.712	25.661	-0.317	0.265
-503.697	-70.882	0.230	0.087
-502.683	689.482	-0.060	-0.158
-501.668	711.562	0.047	0.124
-500.653	676.865	-0.138	-0.359
-499.639	-83.306	0.170	0.055
-498.624	-8.955	0.110	-0.074
-497.610	-6.875	-0.235	-0.160
-496.595	800.000	-0.130	-0.564
-495.581	-114.099	-0.293	0.057
-494.566	-59.541	-0.535	0.230
-493.551	130.446	-0.150	-0.192
-492.537	-46.450	-0.259	0.127
-491.522	274.953	0.133	0.236
-490.508	800.000	-0.070	0.233
-489.493	800.000	0.056	-0.180
-488.478	-69.692	0.047	-0.018
-487.464	45.813	0.013	-0.012
-486.449	117.452	0.046	-0.057
-485.435	-108.595	0.147	0.032
-484.420	-27.775	-0.309	-0.180
-483.405	-60.435	-0.147	-0.063
-482.391	-92.536	-0.307	0.087
-481.376	206.318	0.127	-0.198
-480.362	-159.321	-0.085	-0.005
-479.347	-125.288	0.207	-0.032
-478.332	-114.381	0.155	0.030
-477.318	303.408	0.067	0.124
-476.303	-137.831	0.232	-0.026
-475.289	-200.000	-0.014	0.086
-474.274	800.000	0.088	-0.291
-473.259	0.672	-0.294	-0.211
-472.245	-75.936	0.289	-0.103
-471.230	-50.062	0.229	0.108
-470.216	-60.205	-0.139	-0.059
-469.201	800.000	0.101	0.320
-468.186	571.750	0.034	0.082
-467.172	80.676	0.146	0.158
-466.157	301.155	0.084	0.154
-465.143	-200.000	-0.068	0.346
-464.128	-42.217	0.164	0.084
-463.113	242.439	-0.080	0.134
-462.099	800.000	0.048	-0.184
-461.084	-111.700	0.155	-0.031
-460.070	-20.892	-0.223	0.137
-459.055	434.670	-0.075	-0.164
-458.040	-73.635	-0.267	-0.097
-457.026	161.612	0.240	-0.337
-456.011	-149.701	0.290	0.023
-454.997	-16.849	0.315	-0.199
-453.982	182.405	-0.131	-0.193
-452.968	-23.652	0.117	0.070
-451.953	283.292	-0.129	0.231
-450.938	-110.321	-0.216	0.045
-449.924	-65.374	0.181	-0.073
-448.909	-55.140	-0.260	0.117
-447.895	-139.308	-0.218	-0.023
-446.880	63.847	-0.131	-0.131
-445.865	183.351	-0.059	-0.087
-444.851	-200.000	-0.027	0.150
-443.836	-177.200	0.458	0.011
-442.822	-75.313	0.154	-0.055
-441.807	123.889	-0.263	0.330
-440.792	-200.000	0.028	-0.217
-439.778	800.000	0.109	-0.411
-438.763	54.875	-0.147	-0.142
-437.749	51.940	-0.059	-0.056
-436.734	11.899	-0.144	-0.110
-435.719	112.137	-0.204	-0.247
-434.705	285.593	0.175	-0.315
-433.690	-200.000	-0.004	0.043
-432.676	800.000	0.092	0.329
-431.661	-8.536	0.192	-0.129
-430.646	-200.000	0.042	0.303
-429.632	-106.321	0.281	0.063
-428.617	16.826	0.337	-0.267
-427.603	492.787	-0.149	0.342
-426.588	238.172	-0.067	-0.112
-425.573	-71.781	-0.233	-0.087
-424.559	-5.259	-0.244	-0.168
-423.544	131.206	-0.225	0.288
-422.530	60.905	0.218	-0.216
-421.515	-200.000	-0.024	-0.289
-420.500	-7.188	0.268	0.181
-419.486	-8.591	0.282	-0.189
-418.471	405.512	-0.240	0.506
-417.457	150.775	-0.149	0.203
-416.442	-75.693	0.022	0.008
-415.428	800.000	0.036	0.133
-414.413	-16.517	-0.208	0.131
-413.398	204.925	-0.180	0.279
-412.384	-149.271	0.092	0.007
-411.369	-146.407	0.141	0.012
-410.355	-37.141	0.202	0.108
-409.340	-36.699	0.100	0.054
-408.325	-170.387	0.206	0.007
-407.311	-40.779	0.122	-0.063
-406.296	640.075	0.137	-0.347
-405.282	-200.000	0.001	-0.073
-404.267	782.359	-0.070	-0.190
-403.252	-200.000	-0.007	0.313
-402.238	-200.000	0.033	-0.172
-401.223	-200.000	0.023	0.138
-400.209	-114.530	0.184	-0.035
-399.194	444.762	0.133	0.291
-398.179	0.986	-0.134	0.096
-397.165	227.162	-0.050	0.081
-396.150	9.325	0.159	-0.120
-395.136	0.606	-0.204	0.146
-394.121	778.622	-0.076	-0.207
-393.106	-200.000	-0.095	-0.459
-392.092	-61.796	-0.134	-0.056
-391.077	-133.389	0.269	0.034
-390.063	800.000	-0.052	-0.201
-389.048	71.533	-0.153	-0.159
-388.033	-134.984	0.461	-0.056
-387.019	-72.352	-0.129	-0.048
-386.004	1.637	-0.217	0.156
-384.990	-200.000	-0.041	0.194
-383.975	788.271	-0.006	-0.016
-382.960	377.089	-0.109	0.222
-381.946	800.000	0.115	0.328
-380.931	-181.926	-0.538	0.010
-379.917	-132.476	-0.221	-0.028
-378.902	-200.000	-0.010	0.150
-377.888	-110.607	-0.164	0.034
-376.873	98.674	0.046	0.053
-375.858	-51.419	0.208	0.097
-374.844	-4.864	0.202	0.139
-373.829	800.000	-0.022	-0.087
-372.815	604.733	0.055	-0.137
-371.800	-200.000	-0.015	0.214
-370.785	-154.656	0.176	0.012
-369.771	124.895	-0.075	0.095
-368.756	-49.403	-0.161	0.077
-367.742	800.000	-0.049	0.200
-366.727	-136.750	-0.125	0.014
-365.712	800.000	0.034	0.127
-364.698	-32.960	0.078	0.043
-363.683	25.001	-0.212	0.176
-362.669	2.448	0.070	0.051
-361.654	-200.000	0.070	0.461
-360.639	-200.000	-0.020	-0.188
-359.625	56.700	-0.319	-0.310
-358.610	178.088	-0.020	-0.029
-357.596	-97.518	-0.111	-0.029
-356.581	-200.000	0.001	-0.077
-355.566	46.669	-0.068	-0.063
-354.552	69.902	-0.210	-0.216
-353.537	147.549	0.225	-0.303
-352.523	70.851	0.102	-0.106
-351.508	314.376	0.061	0.114
-350.493	86.909	-0.161	0.178
-349.479	60.453	0.135	0.133
-348.464	140.600	0.099	-0.130
-347.450	-32.485	-0.241	0.134
-346.435	800.000	-0.019	0.080
-345.420	360.941	-0.024	-0.048
-344.406	-3.122	0.071	-0.049
-343.391	194.892	-0.154	0.232
-342.377	294.946	-0.109	-0.199
-341.362	-79.260	0.271	0.092
-340.348	-200.000	-0.143	-0.001
-339.333	-47.421	-0.264	-0.128
-338.318	-200.000	-0.008	-0.081
-337.304	-159.600	-0.326	-0.018
-336.289	-100.598	-0.185	-0.045
-335.275	168.833	-0.125	0.178
-334.260	350.179	-0.073	-0.143
-333.245	800.000	0.044	0.151
-332.231	-27.967	0.045	0.026
-331.216	160.021	0.234	0.325
-330.202	800.000	-0.099	0.333
-329.187	152.597	0.085	0.115
-328.172	-11.372	0.104	-0.068
-327.158	-200.000	0.000	0.149
-326.143	-79.222	-0.217	0.073
-325.129	433.158	-0.111	0.240
-324.114	-200.000	0.012	0.150
-323.099	-87.391	0.065	0.020
-322.085	-200.000	-0.044	-0.233
-321.070	210.862	0.055	-0.086
-320.056	149.616	-0.098	0.132
-319.041	-200.000	0.058	0.284
-318.026	-162.954	0.182	-0.009
-317.012	158.243	-0.090	0.124
-315.997	8.706	-0.183	-0.138
-314.983	347.591	0.112	0.220
-313.968	87.422	0.374	0.412
-312.953	-200.000	-0.040	0.223
-311.939	-86.274	-0.060	-0.018
-310.924	38.829	-0.132	-0.118
-309.910	-200.000	-0.001	0.191
-308.895	800.000	-0.038	0.155
-307.880	-200.000	-0.027	0.342
-306.866	1.391	-0.136	-0.097
-305.851	-145.675	0.411	-0.037
-304.837	-125.775	-0.113	-0.017
-303.822	125.477	0.036	-0.045
-302.807	-130.926	0.242	0.032
-301.793	-34.847	0.105	-0.057
-300.778	-42.629	-0.365	0.185
-299.764	-200.000	0.042	0.329
-298.749	608.264	-0.074	-0.184
-297.735	-30.736	0.346	-0.194
-296.720	107.730	-0.240	-0.284
-295.705	-200.000	-0.060	-0.305
-294.691	-129.138	0.435	-0.060
-293.676	800.000	-0.077	0.224
-292.662	299.129	0.220	-0.403
-291.647	148.647	-0.155	0.208
-290.632	112.254	-0.185	0.222
-289.618	-39.557	-0.312	0.163
-288.603	-49.343	0.386	0.183
-287.589	-200.000	0.053	0.336
-286.574	142.982	-0.043	-0.057
-285.559	115.011	0.160	-0.194
-284.545	800.000	-0.121	0.352
-283.530	-8.169	-0.170	-0.114
-282.516	-42.643	0.083	0.042
-281.501	187.572	0.181	0.269
-280.486	403.172	0.123	0.257
-279.472	146.106	0.178	-0.238
-278.457	110.774	0.133	0.160
-277.443	-200.000	-0.065	0.538
-276.428	268.702	-0.088	-0.154
-275.413	-129.067	0.189	-0.026
-274.399	-41.695	-0.357	0.182
-273.384	-152.742	-0.147	-0.010
-272.370	-69.933	-0.287	-0.109
-271.355	-100.428	0.237	0.058
-270.340	55.906	0.292	-0.281
-269.326	34.537	0.327	-0.284
-268.311	-76.879	-0.153	-0.053
-267.297	16.336	-0.104	0.082
-266.282	98.993	0.184	-0.211
-265.267	-0.887	0.108	-0.076
-264.253	47.590	-0.081	0.075
-263.238	-200.000	0.019	-0.169
-262.224	-16.852	-0.112	0.071
-261.209	-48.561	-0.172	0.082
-260.195	407.987	0.099	-0.208
-259.180	-68.505	-0.082	0.032
-258.165	-200.000	-0.016	-0.177
-257.151	-66.333	-0.111	-0.044
-256.136	-118.369	0.360	-0.063
-255.122	-68.030	-0.234	-0.091
-254.107	-96.255	0.361	-0.095
-253.092	-155.997	-0.360	0.023
-252.078	-129.371	-0.134	-0.018
-251.063	-126.193	0.060	-0.009
-250.049	-200.000	-0.020	-0.199
-249.034	-123.525	-0.348	-0.055
-248.019	-200.000	-0.063	-0.321
-247.005	183.320	-0.101	-0.148
-245.990	17.876	-0.142	0.112
-244.976	79.468	-0.220	-0.234
-243.961	800.000	0.088	-0.326
-242.946	278.858	0.164	-0.291
-241.932	688.406	-0.140	-0.364
-240.917	62.585	-0.130	-0.129
-239.903	800.000	-0.048	-0.134
-238.888	-59.141	-0.475	-0.203
-237.873	136.259	0.160	-0.208
-236.859	-40.367	-0.119	0.061
-235.844	174.908	0.095	-0.136
-234.830	106.172	-0.102	0.120
-233.815	28.131	0.251	-0.211
-232.800	1.381	0.118	0.084
-231.786	15.657	0.068	0.053
-230.771	-200.000	-0.047	0.236
-229.757	-54.185	-0.117	-0.053
-228.742	-41.009	-0.208	0.106
-227.727	-18.528	-0.224	-0.139
-226.713	-200.000	0.020	0.123
-225.698	94.187	-0.157	0.177
-224.684	117.570	0.150	0.183
-223.669	-200.000	0.038	0.335
-222.655	-200.000	-0.034	-0.156
-221.640	622.731	0.157	-0.393
-220.625	-200.000	0.007	0.059
-219.611	285.585	0.079	-0.141
-218.596	-17.700	-0.151	-0.094
-217.582	274.258	0.098	0.172
-216.567	49.215	0.201	0.188
-215.552	-104.878	0.407	-0.093
-214.538	800.000	-0.152	-0.431
-213.523	42.138	-0.056	0.051
-212.509	67.900	0.099	-0.100
-211.494	-11.409	0.056	0.037
-210.479	-42.061	0.340	0.173
-209.465	-200.000	0.019	0.138
-208.450	282.814	-0.160	0.285
-207.436	-96.529	-0.313	-0.082
-206.421	571.143	-0.139	-0.335
-205.406	-173.336	0.135	-0.004
-204.392	-194.941	0.405	0.003
-203.377	-200.000	0.017	0.126
-202.363	70.881	0.137	-0.140
-201.348	287.680	-0.073	-0.130
-200.333	800.000	-0.050	-0.207
-199.319	-200.000	0.006	0.140
-198.304	103.296	0.223	0.259
-197.290	95.180	0.091	0.103
-196.275	-88.295	0.112	0.033
-195.260	-34.252	-0.283	-0.154
-194.246	440.354	0.067	-0.145
-193.231	800.000	-0.142	0.477
-192.217	800.000	-0.052	-0.151
-191.202	-112.203	-0.176	-0.035
-190.187	-61.713	-0.110	-0.046
-189.173	-194.858	-0.341	0.003
-188.158	-76.920	-0.082	-0.029
-187.144	-200.000	0.004	-0.181
-186.129	-116.456	0.080	-0.015
-185.114	600.499	0.153	-0.375
-184.100	86.874	0.403	0.441
-183.085	-165.090	0.201	0.009
-182.071	800.000	0.025	-0.078
-181.056	17.706	0.078	0.062
-180.042	63.881	-0.251	-0.250
-179.027	800.000	0.092	-0.263
-178.012	-48.266	0.256	-0.122
-176.998	-200.000	-0.005	0.145
-175.983	-151.953	-0.185	-0.013
-174.969	169.243	0.068	-0.096
-173.954	131.094	0.343	-0.436
-172.939	-200.000	-0.033	0.147
-171.925	800.000	-0.035	0.138
-170.910	-200.000	0.026	-0.168
-169.896	-51.453	-0.173	0.080
-168.881	-82.943	0.128	-0.041
-167.866	50.628	0.272	0.255
-166.852	96.746	-0.038	-0.043
-165.837	88.908	0.217	0.239
-164.823	-27.544	-0.105	-0.060
-163.808	-10.466	0.339	-0.222
-162.793	-40.137	-0.030	-0.015
-161.779	556.152	-0.057	0.135
-160.764	6.018	0.184	-0.135
-159.750	196.939	0.196	-0.295
-158.735	-200.000	-0.030	0.132
-157.720	-200.000	-0.027	-0.120
-156.706	101.071	0.106	0.122
-155.691	110.527	-0.047	-0.056
-154.677	-1.781	0.073	-0.051
-153.662	61.132	0.182	-0.178
-152.647	-100.435	-0.200	-0.049
-151.633	-134.561	0.465	-0.056
-150.618	715.714	-0.100	0.263
-149.604	800.000	-0.102	0.303
-148.589	420.659	0.069	-0.146
-147.574	44.165	0.182	-0.165
-146.560	-75.278	0.259	0.091
-145.545	130.666	0.116	0.147
-144.531	-65.171	-0.111	-0.044
-143.516	564.427	0.092	0.221
-142.502	2.164	-0.169	-0.121
-141.487	-72.855	-0.217	0.079
-140.472	-93.601	0.194	0.053
-139.458	-115.231	-0.345	-0.065
-138.443	-200.000	0.049	-0.224
-137.429	126.889	-0.107	0.134
-136.414	155.989	0.209	0.285
-135.399	-200.000	0.014	-0.289
-134.385	-112.589	-0.492	0.097
-133.370	-82.986	-0.184	-0.059
-132.356	-200.000	0.049	-0.302
-131.341	-6.583	-0.163	-0.109
-130.326	-37.827	0.188	-0.099
-129.312	20.561	-0.345	-0.276
-128.297	137.866	0.072	0.093
-127.283	164.738	-0.174	0.242
-126.268	651.124	-0.129	0.327
-125.253	-155.280	0.150	-0.010
-124.239	-60.248	-0.102	-0.043
-123.224	729.534	0.055	0.144
-122.210	-24.729	0.074	0.043
-121.195	-130.336	-0.452	-0.061
-120.180	126.405	-0.032	-0.040
-119.166	235.727	0.163	0.266
-118.151	800.000	-0.042	0.118
-117.137	-10.662	-0.290	-0.190
-116.122	-22.553	0.170	0.101
-115.107	-200.000	0.048	-0.240
-114.093	800.000	-0.022	-0.082
-113.078	393.920	0.035	-0.073
-112.064	-31.279	-0.052	-0.029
-111.049	354.327	-0.104	0.204
-110.034	-200.000	-0.013	0.093
-109.020	169.872	-0.164	0.231
-108.005	-200.000	-0.025	0.154
-106.991	277.190	0.096	-0.169
-105.976	800.000	0.068	0.202
-104.962	-87.712	-0.383	0.114
-103.947	246.390	-0.165	0.274
-102.932	119.679	0.096	0.118
-101.918	440.258	-0.073	0.158
-100.903	546.130	-0.070	0.166
-99.889	-83.272	-0.047	-0.015
-98.874	181.964	0.133	0.193
-97.859	122.005	0.231	0.285
-96.845	62.520	0.093	-0.092
-95.830	-44.330	-0.585	-0.289
-94.816	-200.000	-0.014	-0.100
-93.801	-79.511	-0.297	0.099
-92.786	527.233	0.113	0.263
-91.772	167.570	0.065	0.091
-90.757	122.440	-0.037	0.045
-89.743	-200.000	0.046	-0.316
-88.728	279.974	-0.163	0.287
-87.713	-174.250	-0.154	0.004
-86.699	-157.004	-0.023	-0.001
-85.684	220.453	-0.024	0.037
-84.670	-37.340	0.232	-0.122
-83.655	-88.647	0.060	0.018
-82.640	208.912	0.110	0.169
-81.626	-200.000	-0.012	-0.192
-80.611	-162.369	0.252	-0.012
-79.597	-200.000	0.040	-0.313
-78.582	-57.253	0.131	0.057
-77.567	-131.732	-0.187	0.024
-76.553	23.703	0.116	-0.094
-75.538	-77.755	-0.004	-0.001
-74.524	-47.811	0.225	-0.108
-73.509	50.054	-0.211	0.197
-72.494	-21.585	-0.049	0.029
-71.480	19.707	0.104	0.082
-70.465	-93.457	0.106	-0.029
-69.451	-165.736	-0.381	-0.016
-68.436	800.000	-0.072	0.262
-67.422	-46.944	0.040	-0.019
-66.407	56.888	0.138	-0.132
-65.392	-200.000	-0.010	0.144
-64.378	-147.899	0.322	-0.026
-63.363	-200.000	0.021	-0.213
-62.349	342.324	-0.128	0.246
-61.334	40.044	-1.011	-0.896
-60.319	479.653	0.314	0.702
-59.305	-200.000	-0.094	-0.951
-58.290	422.628	0.579	1.224
-57.276	473.482	0.645	1.433
-56.261	-200.000	97.463	588.313
-55.246	546.255	1395.329	3287.932
-54.232	156.417	2577.142	3505.011
-53.217	111.679	2175.113	2586.386
-52.203	43.022	1715.315	1541.465
-51.188	35.796	1528.285	1323.832
-50.173	33.422	1500.851	1283.947
-49.159	52.918	1550.049	1460.727
-48.144	54.572	1567.982	1488.960
-47.130	35.959	1526.999	1323.629
-46.115	32.849	1512.233	1289.565
-45.100	32.591	1509.299	1285.251
-44.086	32.553	1507.529	1283.436
-43.071	32.616	1505.510	1282.093
-42.057	32.433	1504.164	1279.657
-41.042	32.589	1502.192	1278.989
-40.027	32.402	1501.416	1277.004
-39.013	32.528	1499.266	1275.979
-37.998	32.415	1498.601	1274.596
-36.984	32.500	1497.210	1273.939
-35.969	32.544	1495.701	1272.900
-34.954	32.505	1494.894	1271.899
-33.940	32.468	1493.373	1270.309
-32.925	32.637	1491.479	1269.781
-31.911	32.608	1489.689	1268.017
-30.896	32.561	1488.892	1266.972
-29.881	32.540	1487.810	1265.860
-28.867	32.606	1485.879	1264.609
-27.852	32.655	1484.007	1263.295
-26.838	32.504	1482.988	1261.363
-25.823	32.539	1481.661	1260.417
-24.809	32.497	1480.136	1258.789
-23.794	32.530	1478.916	1257.923
-22.779	32.536	1477.362	1256.591
-21.765	32.565	1476.355	1255.880
-20.750	32.539	1474.822	1254.353
-19.736	32.464	1474.123	1253.205
-18.721	32.608	1472.549	1252.777
-17.706	32.532	1471.812	1251.597
-16.692	32.596	1470.462	1250.824
-15.677	32.434	1470.005	1249.311
-14.663	32.500	1468.672	1248.568
-13.648	32.408	1467.687	1247.071
-12.633	32.459	1466.985	1246.758
-11.619	32.389	1465.840	1245.274
-10.604	32.438	1465.172	1244.981
-9.590	32.421	1464.780	1244.485
-8.575	32.436	1463.424	1243.383
-7.560	32.505	1462.304	1242.838
-6.546	32.371	1461.879	1241.544
-5.531	32.405	1461.000	1240.971
-4.517	32.456	1459.682	1240.138
-3.502	32.433	1458.915	1239.286
-2.487	32.469	1457.386	1238.176
-1.473	32.375	1457.062	1237.235
-0.458	32.452	1455.546	1236.404
0.556	32.558	1445.782	1226.753
1.571	29.910	1420.861	1188.523
2.586	26.796	1364.119	1121.728
3.600	25.279	1285.047	1047.768
4.615	23.834	1238.204	1001.350
5.629	19.854	1179.855	932.666
6.644	9.969	1092.179	813.719
7.659	2.762	1050.153	747.326
8.673	1.820	1045.089	739.091
9.688	1.675	1041.430	735.737
10.702	1.517	1039.979	733.883
11.717	1.479	1038.395	732.517
12.731	4.337	1042.045	748.834
13.746	14.227	1055.881	806.868
14.761	22.451	1066.427	854.960
15.775	24.816	1068.273	867.848
16.790	25.017	1068.204	868.690
17.804	24.907	1067.531	867.532
18.819	24.721	1066.509	865.727
19.834	24.824	1066.261	865.945
20.848	24.900	1065.759	865.827
21.863	25.131	1065.137	866.361
22.877	25.068	1064.981	865.854
23.892	25.023	1064.383	865.075
24.907	24.855	1063.496	863.470
25.921	24.807	1063.019	862.771
26.936	24.991	1062.322	863.016
27.950	24.852	1061.611	861.693
28.965	24.996	1059.469	860.573
29.980	24.910	1057.948	858.846
30.994	24.832	1057.167	857.763
32.009	24.853	1056.728	857.432
33.023	25.050	1056.293	857.946
34.038	24.832	1054.774	855.594
35.053	24.817	1054.151	854.942
36.067	25.002	1053.726	855.405
37.082	24.991	1052.900	854.604
38.096	25.062	1051.884	854.046
39.111	25.093	1051.635	853.914
40.126	25.339	1050.057	853.727
41.140	25.145	1049.358	852.160
42.155	24.907	1047.505	849.452
43.169	24.585	1046.294	846.869
44.184	24.533	1045.639	846.018
45.199	24.724	1044.218	845.697
46.213	24.525	1043.917	844.435
47.228	24.674	1042.574	843.981
48.242	24.738	1042.139	843.852
49.257	24.795	1041.206	843.290
50.271	24.866	1041.013	843.397
51.286	24.981	1040.039	843.074
52.301	25.127	1039.007	842.849
53.315	25.020	1038.835	842.130
54.330	25.072	1037.769	841.437
55.344	24.926	1037.305	840.303
56.359	24.954	1036.383	839.611
57.374	24.970	1035.386	838.807
58.388	24.662	1034.603	836.654
59.403	24.647	1033.936	835.970
60.417	24.816	1032.901	835.851
61.432	24.577	1032.280	834.158
62.447	24.680	1031.669	834.070
63.461	24.675	1031.348	833.712
64.476	24.743	1030.358	833.155
65.490	24.731	1029.425	832.275
66.505	24.604	1028.693	831.018
67.520	24.644	1027.911	830.499
68.534	24.793	1027.059	830.429
69.549	24.602	1025.928	828.552
70.563	24.186	1024.772	825.621
71.578	24.243	1024.127	825.290
72.593	24.221	1023.381	824.515
73.607	24.217	1021.466	822.881
74.622	24.098	1021.012	821.894
75.636	24.458	1020.725	823.250
76.651	24.515	1019.816	822.706
77.666	24.343	1019.046	821.219
78.680	24.276	1018.120	820.095
79.695	24.354	1017.489	819.872
80.709	24.368	1017.311	819.718
81.724	24.635	1016.250	820.016
82.739	24.628	1015.209	819.072
83.753	24.504	1014.128	817.563
84.768	24.773	1013.940	818.567
85.782	25.081	1013.507	819.554
86.797	25.274	1012.973	819.934
87.812	25.311	1011.702	819.000
88.826	25.158	1010.638	817.368
89.841	25.116	1010.144	816.704
90.855	25.162	1009.353	816.203
91.870	25.192	1008.405	815.502
92.884	25.290	1007.678	815.284
93.899	25.056	1006.666	813.333
94.914	25.069	1005.671	812.514
95.928	25.224	1005.126	812.704
96.943	25.200	1004.375	811.916
97.957	24.883	1003.131	809.407
98.972	24.597	1001.975	807.109
99.987	24.577	1000.402	805.683
101.001	24.699	1000.091	805.909
102.016	24.926	999.757	806.593
103.030	24.860	999.310	805.865
104.045	24.879	997.961	804.790
105.060	24.753	996.609	803.061
106.074	24.599	995.666	801.542
107.089	24.647	995.176	801.290
108.103	24.851	994.977	801.975
109.118	25.040	993.670	801.693
110.133	24.707	992.650	799.313
111.147	24.772	991.656	798.730
112.162	24.465	990.755	796.566
113.176	24.406	989.441	795.177
114.191	24.475	988.931	795.005
115.206	24.546	987.973	794.478
116.220	24.252	986.691	792.072
117.235	24.224	985.590	790.995
118.249	24.357	985.116	791.135
119.264	24.384	984.702	790.848
120.279	24.257	984.032	789.679
121.293	24.265	982.887	788.726
122.308	24.357	982.001	788.352
123.322	24.430	981.521	788.217
124.337	24.365	980.735	787.230
125.352	24.228	978.721	784.941
126.366	23.860	977.495	782.269
127.381	23.486	976.158	779.486
128.395	24.039	976.340	781.992
129.410	24.905	975.389	784.963
130.424	24.805	975.221	784.318
131.439	24.841	973.911	783.354
132.454	24.902	973.459	783.188
133.468	24.808	972.417	781.868
134.483	24.754	971.754	781.032
135.497	24.866	971.180	780.990
136.512	25.079	970.098	780.979
137.527	25.169	969.671	780.957
138.541	25.122	968.986	780.130
139.556	25.124	968.382	779.585
140.570	25.108	967.286	778.563
141.585	25.149	966.317	777.893
142.600	25.155	965.936	777.544
143.614	25.075	965.011	776.384
144.629	25.247	964.285	776.478
145.643	25.303	964.160	776.547
146.658	25.153	962.586	774.564
147.673	25.198	960.888	773.326
148.687	25.128	959.670	771.972
149.702	25.037	958.947	770.933
150.716	24.833	958.423	769.568
151.731	24.851	956.984	768.421
152.746	24.872	956.807	768.300
153.760	25.117	955.896	768.553
154.775	25.350	954.952	768.723
155.789	25.279	954.217	767.756
156.804	25.148	953.810	766.802
157.819	25.205	952.061	765.571
158.833	25.165	951.884	765.189
159.848	25.344	950.888	765.086
160.862	25.341	950.208	764.459
161.877	25.425	948.907	763.700
162.892	25.290	948.062	762.379
163.906	25.256	947.751	761.917
164.921	25.341	946.619	761.303
165.935	25.145	945.796	759.742
166.950	25.243	944.705	759.212
167.964	25.376	943.452	758.699
168.979	25.221	942.832	757.478
169.994	25.207	941.604	756.368
171.008	25.076	940.437	754.814
172.023	25.230	939.887	754.951
173.037	25.261	939.275	754.522
174.052	25.192	938.171	753.282
175.067	25.025	937.574	752.034
176.081	24.976	936.544	750.934
177.096	24.981	935.787	750.283
178.110	25.063	934.566	749.582
179.125	25.009	934.037	748.863
180.140	24.593	932.757	746.035
181.154	24.572	932.224	745.456
182.169	24.730	931.925	745.809
183.183	24.855	931.700	746.083
184.198	25.359	931.048	747.595
185.213	25.137	930.370	746.059
186.227	25.071	929.754	745.224
187.242	25.154	929.297	745.139
188.256	25.259	928.526	744.889
189.271	25.336	927.649	744.442
190.286	25.409	926.820	744.011
191.300	25.310	925.908	742.804
192.315	24.649	924.883	739.183
193.329	23.925	922.737	734.413
194.344	23.468	922.070	731.934
195.359	23.994	922.602	734.460
196.373	24.822	922.894	738.045
197.388	25.101	922.830	739.079
198.402	25.008	921.988	737.957
199.417	25.018	921.532	737.567
200.432	25.193	920.569	737.453
201.446	25.051	919.819	736.203
202.461	24.864	919.008	734.720
203.475	24.703	918.833	733.856
204.490	24.404	917.388	731.412
205.504	23.199	915.345	724.784
206.519	23.702	915.039	726.538
207.534	24.594	915.720	730.663
208.548	24.627	915.385	730.465
209.563	24.910	914.947	731.209
210.577	25.190	913.871	731.426
211.592	24.778	913.143	729.100
212.607	25.223	912.804	730.576
213.621	25.422	912.574	731.138
214.636	25.232	911.665	729.572
215.650	25.254	911.459	729.434
216.665	25.252	910.718	728.766
217.680	25.272	910.379	728.512
218.694	25.382	909.710	728.358
219.709	24.990	908.585	725.805
220.723	24.687	907.879	723.952
221.738	24.874	907.440	724.294
222.753	25.226	906.985	725.289
223.767	25.048	906.258	723.923
224.782	25.252	905.307	723.923
225.796	25.235	905.101	723.625
226.811	25.437	904.426	723.837
227.826	25.079	903.052	721.233
228.840	24.124	901.876	716.392
229.855	24.063	901.083	715.453
230.869	24.363	900.629	716.232
231.884	24.042	899.641	714.095
232.899	24.246	898.590	714.017
233.913	24.877	899.355	717.091
234.928	25.047	899.165	717.555
235.942	24.832	898.604	716.183
236.957	25.108	897.630	716.447
237.972	24.620	896.762	713.743
238.986	24.597	896.131	713.084
240.001	24.854	895.535	713.573
241.015	24.846	894.478	712.634
242.030	24.907	894.013	712.446
243.045	25.021	894.046	712.863
244.059	25.067	893.388	712.457
245.074	25.324	892.685	712.852
246.088	25.103	892.347	711.643
247.103	24.837	891.218	709.624
248.117	24.797	891.259	709.438
249.132	25.348	890.975	711.332
250.147	25.704	890.989	712.690
251.161	25.722	890.458	712.273
252.176	26.087	889.617	712.978
253.190	25.993	888.976	712.033
254.205	26.150	888.546	712.243
255.220	26.407	887.910	712.684
256.234	26.108	887.673	711.254
257.249	26.062	886.722	710.248
258.263	25.975	886.156	709.389
259.278	25.889	885.504	708.467
260.293	26.105	885.032	708.875
261.307	26.041	884.695	708.289
262.322	26.058	883.875	707.639
263.336	25.908	883.219	706.463
264.351	25.376	881.907	703.266
265.366	24.305	879.818	697.352
266.380	23.909	878.938	695.046
267.395	24.807	879.578	699.002
268.409	25.615	879.567	702.087
269.424	25.524	878.957	701.183
270.439	25.863	878.393	701.992
271.453	25.761	878.020	701.231
272.468	25.746	877.124	700.399
273.482	25.917	876.955	700.866
274.497	26.007	876.607	700.876
275.512	25.716	875.678	698.941
276.526	25.187	874.086	695.557
277.541	25.483	873.312	696.025
278.555	25.836	873.637	697.589
279.570	25.594	873.085	696.151
280.585	25.536	871.861	694.890
281.599	25.724	871.403	695.188
282.614	25.806	871.067	695.179
283.628	25.209	870.103	692.044
284.643	24.822	869.350	689.890
285.657	25.426	868.823	691.738
286.672	25.175	868.086	690.123
287.687	24.733	867.482	687.886
288.701	25.040	867.519	689.034
289.716	25.518	867.037	690.426
290.730	24.988	866.678	688.041
291.745	25.086	865.519	687.437
292.760	24.838	864.331	685.483
293.774	24.647	864.140	684.540
294.789	25.656	864.488	688.621
295.803	26.290	864.547	691.033
296.818	26.228	864.017	690.307
297.833	26.408	863.729	690.706
298.847	26.122	862.153	688.293
299.862	25.780	861.496	686.404
300.876	26.039	860.924	686.876
301.891	26.396	860.655	687.957
302.906	26.328	859.890	687.026
303.920	25.915	859.362	684.974
304.935	25.799	858.551	683.828
305.949	26.188	858.152	684.924
306.964	26.246	857.825	684.825
307.979	26.061	856.999	683.402
308.993	26.052	856.376	682.811
310.008	26.349	856.474	683.952
311.022	26.558	855.720	684.081
312.037	26.360	855.221	682.875
313.052	26.058	854.902	681.419
314.066	26.071	853.818	680.542
315.081	25.205	852.479	676.153
316.095	24.643	850.998	672.803
317.110	25.026	851.613	674.672
318.125	26.187	851.085	678.561
319.139	25.614	850.452	675.842
320.154	24.450	848.725	670.044
321.168	24.056	847.486	667.529
322.183	24.644	848.110	670.168
323.197	25.414	848.506	673.308
324.212	25.758	848.176	674.276
325.227	25.988	848.096	675.013
326.241	26.159	847.286	674.949
327.256	26.067	846.648	674.035
328.270	25.854	846.050	672.706
329.285	25.928	845.260	672.294
330.300	25.847	844.303	671.172
331.314	25.415	843.920	669.197
332.329	25.388	843.298	668.546
333.343	25.947	843.087	670.399
334.358	26.134	842.775	670.787
335.373	26.172	842.150	670.371
336.387	26.120	841.823	669.858
337.402	26.484	841.217	670.667
338.416	26.680	840.750	670.960
339.431	26.578	840.468	670.297
340.446	26.565	840.212	669.987
341.460	26.770	839.969	670.491
342.475	26.779	838.947	669.650
343.489	26.663	837.900	668.327
344.504	26.616	837.787	668.003
345.519	26.755	837.195	667.987
346.533	27.118	836.753	668.912
347.548	27.127	836.563	668.733
348.562	27.033	836.356	668.164
349.577	27.005	835.520	667.334
350.592	26.869	834.787	666.188
351.606	26.886	834.328	665.825
352.621	26.841	834.061	665.390
353.635	26.697	833.162	664.085
354.650	26.790	832.906	664.163
355.665	26.454	831.631	661.857
356.679	25.277	830.212	656.369
357.694	25.265	829.838	655.970
358.708	25.955	829.892	658.478
359.723	25.894	829.117	657.580
360.738	26.167	828.853	658.309
361.752	26.615	829.017	660.016
362.767	26.622	828.659	659.697
363.781	26.932	828.151	660.360
364.796	27.051	828.225	660.795
365.810	27.276	827.658	661.100
366.825	27.287	827.725	661.138
367.840	27.406	827.410	661.260
368.854	27.175	826.695	659.790
369.869	26.829	825.434	657.473
370.883	26.806	824.495	656.582
371.898	26.842	824.087	656.331
372.913	26.722	823.434	655.319
373.927	26.688	823.025	654.811
374.942	26.833	822.606	654.945
375.956	26.908	821.952	654.637
376.971	27.009	821.266	654.395
377.986	27.111	821.157	654.618
379.000	27.289	820.575	654.739
380.015	27.392	820.124	654.689
381.029	27.223	819.280	653.350
382.044	27.232	818.783	652.928
383.059	27.433	818.185	653.116
384.073	27.444	817.821	652.807
385.088	27.219	817.479	651.668
386.102	27.285	816.909	651.394
387.117	27.131	816.329	650.321
388.132	27.102	815.346	649.378
389.146	26.886	814.551	647.917
390.161	26.268	813.880	645.119
391.175	26.318	813.237	644.733
392.190	26.914	813.815	647.259
393.205	27.049	813.193	647.186
394.219	25.939	811.570	641.888
395.234	24.169	809.095	633.587
396.248	23.399	808.173	630.073
397.263	24.549	808.867	634.646
398.278	26.479	810.398	642.653
399.292	27.038	809.786	644.096
400.307	26.608	809.339	642.158
401.321	26.545	808.842	641.484
402.336	26.566	808.778	641.452
403.350	26.928	808.754	642.656
404.365	27.492	808.677	644.534
405.380	27.738	808.091	644.882
406.394	27.896	808.249	645.509
407.409	28.039	807.782	645.582
408.423	28.012	807.152	644.926
409.438	28.008	806.474	644.313
410.453	27.900	806.422	643.835
411.467	28.095	805.773	643.948
412.482	28.095	804.901	643.192
413.496	27.998	804.578	642.538
414.511	28.020	804.641	642.609
415.526	28.087	803.926	642.216
416.540	27.891	803.920	641.465
417.555	27.990	803.254	641.225
418.569	27.695	802.467	639.505
419.584	27.678	801.611	638.707
420.599	27.850	801.115	638.858
421.613	109.394	1285.873	1457.085
422.628	94.290	1356.505	1457.182
