DTS Sentinel unit serial number:	SN413079Multiplexer serial number:	ORYXHardware model number:	OX4-SRSoftware version number:	ORYX F/W v4.00 Oryx Data Collector v3.7.2.0data status	okinstallation	princeton_trtdifferential loss correction	single-endedforward channel	channel 3reverse channel	N/Adate	2019/09/11time	22:34:11forward acquisition time	60.00reverse acquisition time	0.00gamma	496.2192k internal	0.2314k external	0.2314temperature offset calibration	1.0047default loss term (dB/km)	0.3790temperature slope calibration	1.0000multiplexer offset coefficient	1.0000multiplexer slope coefficient	1.0000fibre end	0.00T internal ref (°C)	35.00T ext. ref 1 (°C)	1.81T ext. ref 2 (°C)	29.07length (m)	temperature (°C)	Stokes	anti-Stokes-747.200	546.548	0.007	-0.017
-746.185	18.798	-0.308	0.250
-745.171	-93.473	0.225	-0.063
-744.156	169.040	-0.183	0.265
-743.142	800.000	-0.067	-0.259
-742.127	-111.349	0.151	-0.031
-741.112	-200.000	0.008	0.081
-740.098	-158.601	0.412	0.024
-739.083	-39.959	-0.220	-0.116
-738.069	20.133	0.459	0.376
-737.054	-119.108	-0.219	-0.039
-736.039	-95.389	-0.347	-0.094
-735.025	16.112	0.183	-0.146
-734.010	210.739	0.058	0.092
-732.996	-181.797	-0.200	0.004
-731.981	800.000	-0.030	-0.086
-730.966	118.103	0.121	-0.150
-729.952	800.000	-0.113	-0.485
-728.937	162.250	0.157	-0.223
-727.923	-137.966	-0.345	0.039
-726.908	284.512	-0.214	0.391
-725.894	-30.806	-0.296	0.170
-724.879	395.730	0.062	-0.130
-723.864	-74.071	-0.152	-0.056
-722.850	126.652	-0.135	0.173
-721.835	-169.663	0.113	-0.004
-720.821	334.480	-0.089	0.175
-719.806	92.619	-0.054	-0.061
-718.791	-5.856	0.147	-0.102
-717.777	-200.000	-0.023	-0.290
-716.762	552.413	0.120	-0.292
-715.748	800.000	-0.090	-0.375
-714.733	468.234	-0.187	-0.425
-713.718	-97.450	-0.268	0.071
-712.704	-112.749	-0.159	-0.032
-711.689	-11.409	0.231	-0.154
-710.675	-78.081	-0.158	-0.055
-709.660	235.777	-0.094	-0.157
-708.645	56.311	-0.176	-0.173
-707.631	-26.794	-0.172	-0.102
-706.616	800.000	0.042	-0.134
-705.602	159.113	0.314	0.442
-704.587	261.875	0.138	-0.241
-703.572	-200.000	-0.078	-0.381
-702.558	-136.789	-0.272	-0.032
-701.543	-200.000	0.041	0.205
-700.529	56.602	0.113	0.111
-699.514	-31.527	-0.123	0.070
-698.499	637.128	0.063	0.163
-697.485	10.899	-0.041	-0.032
-696.470	800.000	-0.040	-0.147
-695.456	91.950	0.145	-0.165
-694.441	-123.932	0.208	0.033
-693.426	-200.000	-0.027	-0.325
-692.412	-110.958	-0.251	0.052
-691.397	159.104	-0.117	-0.165
-690.383	800.000	-0.089	-0.339
-689.368	-69.909	-0.519	0.200
-688.354	360.407	-0.069	0.139
-687.339	-200.000	-0.027	-0.380
-686.324	800.000	-0.082	-0.275
-685.310	-146.989	-0.349	-0.030
-684.295	534.233	0.139	0.332
-683.281	9.245	-0.191	0.146
-682.266	209.079	0.094	-0.148
-681.251	117.860	-0.055	-0.068
-680.237	-62.714	0.086	-0.036
-679.222	800.000	-0.123	0.399
-678.208	-35.494	0.117	0.064
-677.193	-200.000	0.000	-0.093
-676.178	22.763	-0.108	0.090
-675.164	-80.099	0.255	-0.086
-674.149	800.000	0.012	0.044
-673.135	-77.689	0.344	0.120
-672.120	119.189	-0.194	-0.243
-671.105	187.264	0.065	0.098
-670.091	-126.552	0.125	-0.019
-669.076	-115.065	0.176	-0.034
-668.062	-153.803	0.202	0.014
-667.047	535.668	0.095	-0.228
-666.032	109.028	-0.121	-0.147
-665.018	-200.000	-0.025	-0.358
-664.003	-49.455	-0.193	-0.093
-662.989	500.912	-0.104	0.244
-661.974	12.401	-0.078	-0.061
-660.959	533.113	-0.057	0.136
-659.945	-99.354	0.449	-0.114
-658.930	-44.996	0.085	0.043
-657.916	570.285	0.115	-0.284
-656.901	-93.533	0.143	-0.040
-655.886	256.258	0.053	0.091
-654.872	41.685	-0.161	0.147
-653.857	180.744	0.094	0.140
-652.843	-79.358	-0.055	-0.019
-651.828	1.718	-0.135	0.098
-650.814	-200.000	-0.009	-0.063
-649.799	-81.312	0.040	-0.013
-648.784	246.822	-0.071	0.122
-647.770	-117.658	0.175	0.032
-646.755	78.829	-0.148	0.160
-645.741	800.000	0.036	-0.102
-644.726	-87.129	-0.209	-0.064
-643.711	-200.000	-0.026	0.394
-642.697	-200.000	0.004	0.166
-641.682	-139.525	-0.227	0.025
-640.668	-200.000	-0.047	-0.213
-639.653	23.831	0.079	0.066
-638.638	-200.000	0.016	0.341
-637.624	82.906	0.046	-0.050
-636.609	29.121	0.084	0.072
-635.595	-200.000	0.095	-0.431
-634.580	55.540	-0.226	-0.221
-633.565	-200.000	-0.025	-0.123
-632.551	-200.000	0.003	-0.118
-631.536	314.790	-0.150	0.285
-630.522	-92.361	0.255	0.073
-629.507	-200.000	0.014	0.231
-628.492	800.000	-0.128	-0.361
-627.478	-97.038	0.248	0.065
-626.463	-127.108	0.173	-0.026
-625.449	198.703	-0.109	0.168
-624.434	-144.333	0.303	0.028
-623.419	-200.000	0.005	-0.374
-622.405	-57.471	-0.244	-0.108
-621.390	-155.131	-0.148	-0.010
-620.376	-200.000	-0.054	-0.283
-619.361	-103.376	0.315	0.075
-618.346	800.000	0.074	-0.282
-617.332	-200.000	0.007	0.152
-616.317	1.797	0.174	0.127
-615.303	714.328	0.016	-0.043
-614.288	310.630	0.080	-0.151
-613.273	-200.000	0.025	-0.159
-612.259	-143.125	-0.319	-0.031
-611.244	196.416	0.069	-0.106
-610.230	-69.719	-0.229	0.088
-609.215	-52.720	0.303	-0.141
-608.201	800.000	0.121	0.342
-607.186	32.020	-0.156	-0.135
-606.171	-41.279	0.213	-0.111
-605.157	127.457	0.134	-0.171
-604.142	-200.000	-0.004	-0.056
-603.128	-200.000	0.030	0.178
-602.113	-34.866	0.318	-0.175
-601.098	-38.804	0.218	0.116
-600.084	211.554	0.106	-0.168
-599.069	-200.000	0.043	0.326
-598.055	-200.000	0.037	-0.196
-597.040	800.000	0.122	-0.476
-596.025	132.947	0.031	0.040
-595.011	-126.616	0.409	-0.061
-593.996	-200.000	-0.069	-0.340
-592.982	-44.794	0.125	0.063
-591.967	-200.000	0.011	-0.071
-590.952	55.377	-0.162	-0.158
-589.938	8.130	0.106	0.080
-588.923	-200.000	-0.021	-0.199
-587.909	-75.525	-0.265	-0.095
-586.894	-200.000	-0.027	0.127
-585.879	-200.000	-0.017	-0.135
-584.865	-31.730	0.209	0.118
-583.850	-200.000	-0.079	0.369
-582.836	483.575	-0.081	-0.185
-581.821	-15.199	0.219	0.141
-580.806	13.789	0.122	-0.095
-579.792	268.017	0.077	0.137
-578.777	-77.466	-0.249	-0.087
-577.763	-27.327	-0.086	0.051
-576.748	-119.496	0.232	0.041
-575.733	-18.629	-0.204	-0.128
-574.719	-200.000	-0.005	-0.277
-573.704	95.148	0.146	0.167
-572.690	-150.923	-0.255	-0.019
-571.675	-57.164	-0.301	-0.134
-570.661	-105.473	0.095	0.022
-569.646	800.000	-0.037	0.106
-568.631	-48.351	0.279	0.135
-567.617	180.285	-0.197	0.291
-566.602	-200.000	-0.033	-0.201
-565.588	-103.493	-0.064	0.015
-564.573	28.893	-0.178	0.152
-563.558	800.000	0.066	0.191
-562.544	214.112	-0.127	0.203
-561.529	158.987	0.098	-0.137
-560.515	-200.000	0.022	0.155
-559.500	97.494	-0.170	0.196
-558.485	-200.000	0.055	0.377
-557.471	-66.870	-0.522	0.208
-556.456	117.857	0.065	0.080
-555.442	-32.524	-0.212	-0.119
-554.427	-112.964	0.174	-0.035
-553.412	-130.256	0.249	0.034
-552.398	73.640	-0.016	0.017
-551.383	-120.244	-0.286	-0.049
-550.369	54.840	0.075	0.073
-549.354	504.590	0.182	-0.424
-548.339	-1.279	0.045	0.032
-547.325	-200.000	0.025	0.138
-546.310	800.000	-0.061	0.185
-545.296	-154.310	0.162	-0.011
-544.281	121.280	-0.121	0.152
-543.266	8.666	-0.149	-0.113
-542.252	4.578	0.151	-0.111
-541.237	-98.585	-0.162	-0.042
-540.223	-59.536	-0.108	0.046
-539.208	-39.090	-0.152	0.081
-538.193	538.940	0.188	0.450
-537.179	800.000	0.067	-0.209
-536.164	27.184	0.280	0.236
-535.150	641.684	0.120	-0.307
-534.135	140.484	0.146	-0.194
-533.121	-137.664	-0.134	-0.015
-532.106	401.441	-0.085	0.180
-531.091	-164.826	-0.187	0.008
-530.077	-6.990	0.194	-0.133
-529.062	23.822	-0.091	0.076
-528.048	-200.000	0.003	0.101
-527.033	446.590	-0.093	0.206
-526.018	44.870	-0.240	0.222
-525.004	-54.695	-0.261	0.119
-523.989	-84.555	0.153	-0.048
-522.975	-87.155	-0.090	-0.027
-521.960	315.978	0.050	-0.095
-520.945	-3.853	0.186	0.130
-519.931	-169.169	0.168	0.006
-518.916	-123.012	0.203	0.033
-517.902	148.614	0.047	0.064
-516.887	-200.000	-0.037	-0.309
-515.872	-107.957	-0.511	0.111
-514.858	340.537	0.118	0.232
-513.843	-76.146	-0.154	-0.055
-512.829	-65.262	-0.390	-0.158
-511.814	800.000	-0.064	0.195
-510.799	-94.209	-0.266	-0.073
-509.785	168.069	-0.068	0.097
-508.770	-200.000	0.104	-0.482
-507.756	-200.000	0.011	-0.225
-506.741	86.504	0.104	0.115
-505.726	-147.323	0.113	0.010
-504.712	1.069	-0.029	-0.021
-503.697	26.581	0.055	0.047
-502.683	-126.943	0.096	-0.014
-501.668	-58.672	-0.393	0.171
-500.653	778.287	0.093	-0.254
-499.639	318.492	0.178	-0.338
-498.624	548.181	-0.110	-0.265
-497.610	-21.664	-0.328	0.201
-496.595	-2.611	0.197	0.139
-495.581	249.760	0.168	-0.287
-494.566	-200.000	0.052	0.246
-493.551	184.167	-0.287	0.427
-492.537	-158.754	-0.126	0.007
-491.522	-79.690	-0.153	-0.052
-490.508	-130.664	-0.476	0.064
-489.493	-200.000	-0.007	-0.063
-488.478	800.000	0.056	0.228
-487.464	13.719	-0.117	-0.091
-486.449	-106.154	0.090	0.020
-485.435	-200.000	-0.014	-0.138
-484.420	44.429	0.137	0.127
-483.405	-146.524	-0.325	0.028
-482.391	-127.497	0.295	-0.043
-481.376	-200.000	-0.005	0.178
-480.362	8.257	0.096	-0.072
-479.347	-13.011	-0.071	0.046
-478.332	-94.880	0.302	-0.082
-477.318	-46.476	0.176	-0.087
-476.303	20.091	0.153	0.124
-475.289	-200.000	-0.059	0.295
-474.274	287.344	-0.118	-0.214
-473.259	-135.716	0.086	0.010
-472.245	-134.023	0.462	-0.057
-471.230	800.000	0.065	0.261
-470.216	285.700	0.278	0.503
-469.201	-200.000	0.018	0.107
-468.186	78.513	0.177	-0.190
-467.172	-62.783	-0.131	-0.054
-466.157	-178.057	-0.474	0.011
-465.143	800.000	-0.049	0.159
-464.128	-38.299	-0.199	-0.106
-463.113	384.760	0.074	-0.154
-462.099	-88.343	0.188	0.056
-461.084	-131.112	-0.359	0.048
-460.070	237.263	0.160	0.266
-459.055	385.073	-0.048	-0.098
-458.040	800.000	0.017	-0.054
-457.026	-165.113	0.343	-0.015
-456.011	-200.000	-0.080	0.363
-454.997	135.546	0.093	-0.121
-453.982	-122.668	0.353	-0.057
-452.968	288.086	-0.120	0.218
-451.953	-52.401	-0.101	-0.047
-450.938	113.385	0.174	-0.211
-449.924	103.289	0.183	0.215
-448.909	351.775	-0.178	0.354
-447.895	-197.740	-0.096	0.001
-446.880	36.382	0.241	0.213
-445.865	-200.000	0.017	0.229
-444.851	646.369	-0.150	0.385
-443.836	393.198	0.287	0.599
-442.822	-1.119	-0.183	0.129
-441.807	-200.000	0.004	-0.044
-440.792	28.915	-0.311	0.264
-439.778	-163.377	0.102	0.005
-438.763	-21.186	0.426	-0.261
-437.749	-200.000	-0.012	0.215
-436.734	-68.477	-0.302	0.117
-435.719	324.033	-0.115	-0.219
-434.705	-200.000	-0.007	-0.194
-433.690	197.169	-0.089	-0.136
-432.676	233.717	0.105	0.174
-431.661	270.253	-0.050	-0.087
-430.646	145.385	0.170	-0.228
-429.632	10.785	-0.139	-0.107
-428.617	687.676	0.009	-0.023
-427.603	120.469	0.111	-0.138
-426.588	305.920	-0.190	0.354
-425.573	118.711	0.182	-0.225
-424.559	-90.270	-0.264	-0.077
-423.544	-200.000	0.070	-0.350
-422.530	74.027	-0.114	-0.119
-421.515	180.355	-0.138	-0.203
-420.500	222.005	0.103	-0.167
-419.486	34.964	-0.098	0.086
-418.471	-182.988	-0.159	0.003
-417.457	-175.389	-0.228	-0.006
-416.442	-200.000	-0.050	-0.296
-415.428	-200.000	-0.008	-0.230
-414.413	-17.826	-0.295	-0.185
-413.398	-149.373	0.151	-0.012
-412.384	-199.942	0.063	0.000
-411.369	3.064	-0.105	-0.077
-410.355	86.823	0.077	-0.085
-409.340	11.032	0.123	-0.094
-408.325	-37.001	-0.293	-0.157
-407.311	-116.027	-0.196	-0.037
-406.296	-200.000	0.046	-0.217
-405.282	2.831	0.259	0.188
-404.267	149.913	-0.061	-0.083
-403.252	-200.000	0.024	-0.303
-402.238	800.000	0.024	-0.097
-401.223	227.771	0.146	0.237
-400.209	30.286	0.165	-0.141
-399.194	708.647	-0.079	0.209
-398.179	-200.000	0.001	0.004
-397.165	35.109	-0.221	0.194
-396.150	313.381	0.070	-0.132
-395.136	-109.437	-0.219	-0.046
-394.121	800.000	0.041	-0.175
-393.106	-146.342	0.119	-0.010
-392.092	-30.796	-0.130	-0.073
-391.077	221.177	0.076	0.123
-390.063	362.592	0.152	-0.306
-389.048	-200.000	0.026	-0.328
-388.033	86.495	-0.083	0.091
-387.019	-108.815	0.328	0.070
-386.004	800.000	-0.017	-0.065
-384.990	145.130	-0.170	-0.228
-383.975	5.063	0.074	-0.054
-382.960	-200.000	0.031	-0.339
-381.946	492.867	0.055	-0.126
-380.931	22.129	0.203	-0.165
-379.917	623.277	0.101	-0.254
-378.902	-200.000	-0.031	0.386
-377.888	87.555	-0.293	-0.324
-376.873	25.101	-0.184	0.153
-375.858	113.293	-0.130	0.158
-374.844	800.000	-0.063	0.209
-373.829	422.210	0.107	0.230
-372.815	204.417	0.139	0.216
-371.800	-200.000	-0.015	-0.079
-370.785	109.375	0.108	-0.129
-369.771	800.000	0.143	0.558
-368.756	800.000	0.050	0.145
-367.742	-200.000	0.024	0.286
-366.727	800.000	-0.016	-0.050
-365.712	800.000	-0.138	-0.455
-364.698	-27.045	0.137	0.080
-363.683	-56.260	0.360	-0.160
-362.669	199.948	-0.256	0.392
-361.654	31.168	0.124	-0.107
-360.639	174.506	-0.169	-0.243
-359.625	133.060	-0.292	0.377
-358.610	145.040	-0.020	-0.026
-357.596	-41.070	0.391	-0.202
-356.581	103.864	0.112	0.131
-355.566	-87.191	-0.119	0.036
-354.552	41.136	0.124	0.111
-353.537	800.000	-0.028	0.089
-352.523	259.059	-0.078	0.134
-351.508	-141.926	-0.119	-0.012
-350.493	-88.205	-0.092	0.027
-349.479	-200.000	-0.002	0.042
-348.464	400.499	0.100	-0.209
-347.450	-200.000	0.140	-0.615
-346.435	-200.000	0.095	0.424
-345.420	196.612	0.263	-0.400
-344.406	7.374	0.160	0.119
-343.391	-175.970	-0.083	-0.002
-342.377	204.969	-0.080	-0.123
-341.362	-12.958	-0.386	0.250
-340.348	-71.836	0.123	-0.046
-339.333	-34.107	0.195	0.107
-338.318	-39.974	-0.078	-0.041
-337.304	282.339	-0.174	0.312
-336.289	-130.856	-0.021	-0.003
-335.275	-74.516	0.272	-0.098
-334.260	-148.954	-0.255	-0.020
-333.245	-14.312	0.184	-0.118
-332.231	6.824	0.241	-0.179
-331.216	800.000	-0.043	0.135
-330.202	269.510	0.054	-0.095
-329.187	-180.029	-0.162	0.003
-328.172	-68.200	-0.224	0.087
-327.158	-35.073	-0.079	-0.043
-326.143	800.000	-0.039	0.131
-325.129	-25.841	0.220	-0.129
-324.114	800.000	-0.045	-0.186
-323.099	27.756	0.103	-0.086
-322.085	-169.574	0.008	0.000
-321.070	95.509	-0.174	0.198
-320.056	-87.851	-0.253	0.076
-319.041	-113.947	-0.272	0.053
-318.026	337.972	-0.067	0.129
-317.012	-45.005	-0.208	-0.103
-315.997	-182.795	0.264	-0.005
-314.983	-200.000	0.039	-0.387
-313.968	-68.430	-0.218	0.084
-312.953	-0.209	-0.122	-0.086
-311.939	413.843	0.009	0.018
-310.924	800.000	-0.079	-0.277
-309.910	45.088	-0.128	-0.118
-308.895	-3.949	-0.214	-0.148
-307.880	92.862	0.254	0.285
-306.866	-13.551	-0.273	0.176
-305.851	80.222	-0.079	0.085
-304.837	16.633	0.087	0.068
-303.822	10.490	0.199	-0.151
-302.807	-48.471	0.129	0.062
-301.793	-137.902	-0.216	-0.024
-300.778	-200.000	-0.006	0.069
-299.764	-110.024	0.102	-0.021
-298.749	525.570	0.091	0.213
-297.735	-200.000	-0.001	0.062
-296.720	-71.698	0.019	-0.007
-295.705	206.257	-0.157	0.243
-294.691	272.700	-0.070	0.124
-293.676	144.626	-0.077	-0.102
-292.662	-27.178	0.098	0.057
-291.647	-74.089	-0.062	0.022
-290.632	228.642	0.143	-0.232
-289.618	-51.822	-0.178	-0.083
-288.603	239.272	0.122	-0.202
-287.589	-124.044	0.090	-0.014
-286.574	790.243	0.035	0.096
-285.559	-200.000	0.079	0.361
-284.545	68.089	-0.100	0.102
-283.530	-17.366	-0.363	0.227
-282.516	-115.263	0.102	-0.019
-281.501	-31.170	0.150	0.084
-280.486	-54.694	-0.212	0.095
-279.472	-90.319	-0.041	0.012
-278.457	-102.927	-0.158	-0.037
-277.443	48.151	0.164	0.153
-276.428	-200.000	0.012	0.274
-275.413	800.000	-0.030	-0.111
-274.399	197.291	0.071	0.107
-273.384	-167.193	0.125	0.005
-272.370	283.347	0.103	-0.185
-271.355	640.408	0.082	0.209
-270.340	-200.000	-0.005	0.295
-269.326	-15.738	0.196	0.124
-268.311	-28.913	0.177	0.101
-267.297	709.364	-0.149	-0.392
-266.282	404.529	-0.127	-0.266
-265.267	41.225	0.104	0.094
-264.253	-7.200	-0.094	-0.063
-263.238	-84.340	0.239	0.075
-262.224	170.416	0.127	0.181
-261.209	-18.590	0.166	-0.103
-260.195	-6.949	-0.083	-0.056
-259.180	35.886	0.223	0.195
-258.165	-107.506	-0.315	0.069
-257.151	115.785	-0.105	0.128
-256.136	-200.000	-0.036	-0.264
-255.122	-200.000	-0.017	-0.278
-254.107	775.441	0.052	0.140
-253.092	-0.903	0.333	-0.235
-252.078	-50.612	0.155	0.073
-251.063	397.616	0.156	-0.324
-250.049	437.234	-0.090	-0.196
-249.034	-98.149	-0.236	0.060
-248.019	555.876	0.021	-0.051
-247.005	43.817	-0.052	-0.048
-245.990	-113.774	0.261	0.050
-244.976	-200.000	0.077	0.471
-243.961	-200.000	-0.014	-0.248
-242.946	-200.000	-0.036	0.209
-241.932	302.970	-0.126	0.232
-240.917	43.424	0.033	-0.030
-239.903	616.751	-0.063	-0.156
-238.888	-127.153	0.136	-0.020
-237.873	800.000	0.036	-0.135
-236.859	40.675	0.170	-0.152
-235.844	-200.000	-0.010	0.214
-234.830	-67.930	-0.088	-0.034
-233.815	-200.000	0.017	0.127
-232.800	-104.766	-0.195	0.045
-231.786	-200.000	0.008	-0.110
-230.771	800.000	-0.056	-0.199
-229.757	-73.048	0.410	0.150
-228.742	-4.237	-0.152	0.104
-227.727	421.880	-0.031	0.067
-226.713	60.700	-0.112	0.110
-225.698	138.820	0.071	-0.093
-224.684	-200.000	0.026	-0.137
-223.669	-26.670	-0.310	-0.180
-222.655	800.000	-0.062	0.225
-221.640	-134.818	0.289	0.035
-220.625	8.554	-0.254	-0.190
-219.611	-92.923	0.368	-0.102
-218.596	117.707	0.314	-0.384
-217.582	149.447	-0.101	0.136
-216.567	-200.000	0.012	-0.143
-215.552	22.947	-0.064	0.052
-214.538	68.653	-0.186	-0.189
-213.523	-36.691	0.272	-0.145
-212.509	52.628	0.157	-0.149
-211.494	249.233	-0.138	0.232
-210.479	-4.373	0.203	0.140
-209.465	-66.792	0.178	-0.070
-208.450	145.624	0.133	0.177
-207.436	-11.506	0.033	0.021
-206.421	-200.000	0.031	-0.180
-205.406	385.141	0.106	-0.217
-204.392	575.469	-0.060	-0.145
-203.377	800.000	0.046	0.156
-202.363	-30.841	0.106	0.060
-201.348	-200.000	-0.001	0.007
-200.333	-149.030	-0.271	0.022
-199.319	-200.000	0.015	0.144
-198.304	124.640	0.207	-0.258
-197.290	-49.427	-0.366	-0.173
-196.275	-200.000	0.003	0.108
-195.260	-65.774	0.077	-0.031
-194.246	676.404	-0.053	0.138
-193.231	-130.505	-0.279	-0.037
-192.217	379.023	-0.066	-0.135
-191.202	108.980	-0.123	0.146
-190.187	49.253	-0.118	-0.110
-189.173	-151.273	-0.397	0.029
-188.158	-124.501	-0.192	-0.030
-187.144	-116.112	0.088	-0.016
-186.129	-125.039	-0.297	0.045
-185.114	-200.000	0.005	-0.532
-184.100	-180.015	-0.444	-0.009
-183.085	35.452	0.066	0.057
-182.071	-200.000	0.036	0.184
-181.056	21.265	-0.086	0.069
-180.042	-103.226	0.067	-0.016
-179.027	-200.000	-0.008	-0.140
-178.012	800.000	-0.049	-0.209
-176.998	-156.631	0.251	-0.015
-175.983	105.385	0.207	-0.242
-174.969	21.273	-0.205	-0.165
-173.954	-31.776	0.054	-0.030
-172.939	-75.674	0.298	0.105
-171.925	-80.667	-0.164	0.054
-170.910	487.120	-0.122	0.277
-169.896	-65.995	0.175	-0.069
-168.881	-57.915	-0.034	0.015
-167.866	-119.505	-0.037	-0.006
-166.852	-106.974	-0.136	-0.030
-165.837	-105.034	0.329	0.075
-164.823	161.573	-0.266	0.369
-163.808	-57.268	0.104	-0.045
-162.793	157.071	-0.298	-0.408
-161.779	-34.331	0.076	0.041
-160.764	-22.772	0.119	0.071
-159.750	96.229	0.141	0.160
-158.735	-45.269	0.194	-0.096
-157.720	-200.000	-0.051	-0.000
-156.706	-29.179	0.289	0.164
-155.691	18.450	-0.045	0.035
-154.677	-15.919	-0.221	0.139
-153.662	-200.000	-0.054	0.246
-152.647	-192.742	0.374	-0.003
-151.633	75.435	-0.060	-0.063
-150.618	-114.324	-0.132	-0.025
-149.604	-200.000	0.003	-0.324
-148.589	-200.000	0.001	-0.266
-147.574	88.012	-0.103	-0.114
-146.560	-106.037	0.510	0.114
-145.545	800.000	0.062	-0.228
-144.531	-200.000	0.002	0.153
-143.516	-63.530	0.192	-0.078
-142.502	-131.671	0.107	-0.014
-141.487	84.936	0.100	-0.109
-140.472	800.000	-0.054	0.150
-139.458	131.928	-0.104	0.132
-138.443	18.813	0.139	-0.110
-137.429	-126.663	-0.392	0.057
-136.414	-103.242	0.248	0.058
-135.399	-195.522	-0.185	-0.001
-134.385	-125.896	-0.184	-0.027
-133.370	-200.000	-0.032	0.171
-132.356	-63.325	-0.083	-0.034
-131.341	-95.851	-0.053	0.014
-130.326	-200.000	0.005	0.436
-129.312	-200.000	0.052	-0.228
-128.297	-58.443	-0.239	0.103
-127.283	58.947	-0.230	0.224
-126.268	-200.000	-0.004	0.046
-125.253	-200.000	-0.106	-0.553
-124.239	236.952	-0.197	-0.323
-123.224	69.811	-0.099	0.101
-122.210	-200.000	0.054	0.259
-121.195	31.054	-0.052	0.045
-120.180	22.759	0.145	0.117
-119.166	-119.376	0.266	0.046
-118.151	111.471	-0.100	0.119
-117.137	-200.000	0.018	0.275
-116.122	-109.825	-0.251	-0.052
-115.107	118.824	0.310	0.379
-114.093	-200.000	-0.040	0.184
-113.078	7.186	-0.043	0.032
-112.064	-121.143	-0.094	-0.016
-111.049	213.246	-0.184	0.287
-110.034	603.177	0.059	-0.146
-109.020	-46.823	0.171	0.083
-108.005	86.144	0.077	0.084
-106.991	81.737	-0.297	0.317
-105.976	56.409	-0.128	-0.123
-104.962	800.000	0.044	-0.169
-103.947	-141.916	0.244	0.024
-102.932	-116.256	-0.237	-0.043
-101.918	19.605	0.175	-0.140
-100.903	-200.000	0.024	-0.148
-99.889	-200.000	-0.015	0.138
-98.874	-100.568	-0.132	-0.032
-97.859	397.112	0.074	0.152
-96.845	-40.388	-0.300	0.154
-95.830	61.049	0.319	0.313
-94.816	800.000	0.055	0.214
-93.801	6.685	0.325	0.239
-92.786	-99.250	0.299	-0.075
-91.772	408.528	0.151	-0.315
-90.757	-61.063	0.231	0.096
-89.743	361.872	-0.054	-0.107
-88.728	149.713	-0.094	-0.126
-87.713	-200.000	-0.007	-0.098
-86.699	-200.000	-0.045	0.284
-85.684	77.081	-0.048	0.050
-84.670	512.878	0.212	0.488
-83.655	356.378	0.152	-0.298
-82.640	233.556	-0.120	-0.195
-81.626	209.724	-0.034	0.053
-80.611	231.353	0.226	0.365
-79.597	0.710	0.152	0.108
-78.582	79.911	0.284	-0.302
-77.567	602.628	-0.091	-0.224
-76.553	170.978	0.023	-0.033
-75.538	-45.542	0.112	0.055
-74.524	-200.000	0.027	-0.139
-73.509	338.018	0.186	-0.357
-72.494	32.231	0.229	0.195
-71.480	119.894	0.222	-0.272
-70.465	-52.937	0.261	-0.119
-69.451	-159.047	0.164	-0.009
-68.436	-112.478	-0.260	0.051
-67.422	-145.713	0.098	0.009
-66.407	389.920	-0.194	0.396
-65.392	-200.000	0.029	0.257
-64.378	-99.101	0.113	-0.028
-63.363	313.937	-0.003	0.006
-62.349	800.000	-0.076	0.268
-61.334	26.138	-0.974	-0.803
-60.319	61.193	0.518	0.508
-59.305	578.959	-0.302	-0.729
-58.290	470.373	0.358	0.794
-57.276	257.398	0.710	1.205
-56.261	-200.000	96.732	587.413
-55.246	571.472	1375.615	3305.309
-54.232	153.886	2581.279	3491.635
-53.217	115.863	2179.151	2631.107
-52.203	45.531	1718.112	1565.396
-51.188	38.228	1528.797	1342.902
-50.173	35.722	1501.285	1301.744
-49.159	55.437	1552.756	1482.551
-48.144	59.679	1571.324	1529.381
-47.130	38.548	1526.270	1342.664
-46.115	35.225	1511.040	1306.607
-45.100	34.981	1507.979	1302.248
-44.086	35.094	1505.446	1300.771
-43.071	35.024	1503.807	1298.831
-42.057	34.947	1502.482	1297.114
-41.042	35.023	1500.704	1296.044
-40.027	34.997	1499.329	1294.629
-39.013	35.089	1497.620	1293.722
-37.998	34.893	1496.940	1291.756
-36.984	34.917	1495.746	1290.839
-35.969	34.972	1494.040	1289.686
-34.954	35.006	1492.556	1288.582
-33.940	35.019	1491.286	1287.522
-32.925	35.016	1490.161	1286.478
-31.911	35.008	1489.022	1285.394
-30.896	35.030	1487.437	1284.119
-29.881	35.105	1486.126	1283.441
-28.867	34.999	1485.015	1281.721
-27.852	35.097	1483.026	1280.609
-26.838	35.052	1481.955	1279.332
-25.823	35.009	1480.498	1277.738
-24.809	34.995	1479.028	1276.320
-23.794	35.065	1477.321	1275.269
-22.779	35.017	1476.546	1274.227
-21.765	35.012	1475.232	1273.012
-20.750	35.005	1474.202	1272.023
-19.736	35.060	1472.994	1271.293
-18.721	35.150	1471.144	1270.246
-17.706	35.064	1470.558	1269.117
-16.692	34.977	1470.209	1268.193
-15.677	34.995	1468.729	1266.985
-14.663	34.972	1467.717	1265.910
-13.648	34.990	1466.517	1264.943
-12.633	35.066	1465.213	1264.270
-11.619	34.913	1465.438	1263.403
-10.604	34.917	1464.483	1262.553
-9.590	34.983	1463.007	1261.664
-8.575	34.993	1462.634	1261.361
-7.560	34.881	1461.965	1259.997
-6.546	35.004	1460.767	1259.727
-5.531	34.978	1459.530	1258.438
-4.517	34.994	1458.440	1257.549
-3.502	34.956	1457.824	1256.718
-2.487	35.028	1456.645	1256.128
-1.473	34.987	1455.994	1255.248
-0.458	34.966	1454.583	1253.841
0.556	35.071	1444.920	1242.212
1.571	32.043	1418.799	1200.321
2.586	28.583	1357.517	1127.163
3.600	26.883	1275.249	1048.942
4.615	25.368	1228.410	1001.882
5.629	21.554	1170.864	934.541
6.644	11.288	1083.998	814.121
7.659	3.121	1040.641	742.207
8.673	2.043	1034.497	732.588
9.688	1.759	1032.047	729.425
10.702	1.706	1029.834	727.547
11.717	1.743	1028.025	726.378
12.731	5.317	1033.024	746.953
13.746	15.558	1046.892	806.302
14.761	23.145	1056.639	850.353
15.775	24.666	1057.567	858.335
16.790	24.896	1057.366	859.198
17.804	24.825	1056.069	857.728
18.819	24.615	1055.579	856.248
19.834	24.601	1055.273	855.856
20.848	24.801	1054.776	856.334
21.863	24.863	1054.444	856.286
22.877	24.769	1054.010	855.410
23.892	24.734	1053.648	854.874
24.907	24.595	1052.664	853.336
25.921	24.775	1051.637	853.283
26.936	24.741	1050.855	852.411
27.950	24.635	1050.093	851.215
28.965	24.672	1048.855	850.311
29.980	24.542	1047.553	848.565
30.994	24.545	1046.295	847.481
32.009	24.718	1045.765	847.801
33.023	24.796	1045.118	847.570
34.038	24.469	1044.455	845.407
35.053	24.525	1042.830	844.281
36.067	24.827	1042.137	845.073
37.082	24.744	1041.829	844.359
38.096	24.742	1041.466	843.979
39.111	24.991	1040.525	844.316
40.126	24.970	1039.805	843.559
41.140	24.956	1038.806	842.606
42.155	24.579	1037.168	839.431
43.169	24.265	1035.930	836.884
44.184	24.290	1034.881	836.079
45.199	24.432	1033.770	835.771
46.213	24.335	1032.882	834.524
47.228	24.305	1032.063	833.648
48.242	24.489	1031.486	833.969
49.257	24.612	1030.582	833.740
50.271	24.697	1029.700	833.349
51.286	24.833	1029.336	833.612
52.301	24.729	1029.049	832.823
53.315	24.735	1027.882	831.833
54.330	24.784	1027.333	831.544
55.344	24.568	1026.230	829.574
56.359	24.675	1025.563	829.459
57.374	24.801	1024.750	829.308
58.388	24.605	1023.777	827.544
59.403	24.415	1023.062	826.010
60.417	24.521	1022.021	825.589
61.432	24.380	1021.097	824.115
62.447	24.265	1020.982	823.418
63.461	24.410	1020.290	823.460
64.476	24.525	1019.824	823.542
65.490	24.611	1018.370	822.687
66.505	24.439	1017.513	821.131
67.520	24.278	1017.346	820.184
68.534	24.505	1016.123	820.168
69.549	24.284	1015.706	818.746
70.563	24.107	1013.965	816.459
71.578	23.915	1013.290	814.963
72.593	23.973	1012.393	814.435
73.607	23.857	1011.296	812.951
74.622	23.930	1010.413	812.500
75.636	24.120	1010.069	813.020
76.651	24.286	1009.197	813.003
77.666	24.303	1008.212	812.216
78.680	24.147	1007.003	810.460
79.695	24.124	1006.637	809.988
80.709	24.141	1006.559	809.931
81.724	24.437	1005.316	810.204
82.739	24.258	1004.752	808.865
83.753	24.379	1003.631	808.438
84.768	24.698	1002.623	809.000
85.782	24.810	1003.074	809.799
86.797	25.120	1002.239	810.457
87.812	25.035	1000.899	808.918
88.826	24.817	1000.178	807.281
89.841	24.773	999.674	806.600
90.855	24.839	999.197	806.443
91.870	25.056	997.803	806.224
92.884	24.984	997.226	805.359
93.899	24.825	996.393	803.902
94.914	24.710	995.479	802.577
95.928	24.835	994.488	802.269
96.943	24.964	993.221	801.754
97.957	24.680	992.113	799.516
98.972	24.440	991.553	797.924
99.987	24.260	990.394	796.117
101.001	24.339	990.018	796.095
102.016	24.725	988.853	796.807
103.030	24.707	987.992	795.965
104.045	24.658	987.132	794.986
105.060	24.507	985.870	793.225
106.074	24.233	984.852	791.122
107.089	24.409	984.043	791.183
108.103	24.669	984.484	792.618
109.118	24.721	983.182	791.731
110.133	24.534	981.774	789.700
111.147	24.479	980.846	788.639
112.162	24.296	979.945	787.041
113.176	24.122	978.506	785.048
114.191	24.255	977.697	784.912
115.206	24.476	977.201	785.419
116.220	23.888	976.787	782.433
117.235	23.793	975.467	780.887
118.249	23.906	974.884	780.845
119.264	24.148	974.213	781.304
120.279	23.972	973.332	779.757
121.293	24.100	971.891	779.091
122.308	24.089	971.785	778.888
123.322	24.136	970.987	778.386
124.337	24.043	969.672	776.858
125.352	23.990	968.695	775.777
126.366	23.579	966.958	772.528
127.381	23.160	965.920	769.807
128.395	23.726	966.189	772.415
129.410	24.333	965.581	774.497
130.424	24.590	964.664	774.807
131.439	24.564	963.611	773.781
132.454	24.541	962.702	772.882
133.468	24.595	961.785	772.311
134.483	24.587	961.264	771.790
135.497	24.636	960.584	771.390
136.512	24.815	959.860	771.510
137.527	24.791	959.554	771.094
138.541	24.905	958.414	770.599
139.556	24.855	957.672	769.720
140.570	24.719	957.440	768.880
141.585	24.902	956.070	768.497
142.600	24.965	955.465	768.214
143.614	24.923	954.410	767.115
144.629	24.932	953.772	766.576
145.643	25.013	953.315	766.485
146.658	25.126	951.696	765.601
147.673	24.982	950.613	764.045
148.687	24.853	949.202	762.297
149.702	24.680	948.472	760.907
150.716	24.627	947.413	759.762
151.731	24.552	946.660	758.772
152.746	24.765	945.926	759.024
153.760	24.886	945.511	759.136
154.775	25.037	944.785	759.126
155.789	24.985	944.206	758.374
156.804	25.125	942.998	757.928
157.819	25.069	941.891	756.732
158.833	24.968	940.987	755.515
159.848	25.133	940.704	755.918
160.862	25.090	940.069	755.158
161.877	24.971	939.177	753.875
162.892	24.843	938.320	752.581
163.906	24.973	937.226	752.183
164.921	24.927	936.618	751.434
165.935	24.955	935.381	750.493
166.950	24.967	934.008	749.376
167.964	25.032	933.098	748.852
168.979	24.950	932.467	747.936
169.994	24.886	931.387	746.735
171.008	24.800	930.085	745.268
172.023	24.860	929.607	745.068
173.037	25.069	928.736	745.175
174.052	24.923	927.789	743.742
175.067	24.765	926.833	742.255
176.081	24.754	925.702	741.239
177.096	24.716	925.195	740.609
178.110	24.727	924.903	740.353
179.125	24.497	923.704	738.379
180.140	24.297	922.661	736.653
181.154	24.380	921.908	736.328
182.169	24.556	921.712	736.835
183.183	24.686	921.150	736.857
184.198	24.984	920.653	737.619
185.213	25.070	919.719	737.159
186.227	24.877	919.481	736.110
187.242	24.830	919.076	735.530
188.256	24.941	918.266	735.269
189.271	24.908	917.653	734.577
190.286	24.985	917.577	734.771
191.300	24.956	915.846	733.198
192.315	24.444	914.601	730.044
193.329	23.597	913.067	725.297
194.344	23.078	912.193	722.417
195.359	23.888	912.246	725.702
196.373	24.803	912.497	729.573
197.388	24.947	912.228	729.878
198.402	24.838	912.072	729.242
199.417	24.830	911.023	728.309
200.432	24.855	910.652	728.050
201.446	24.761	909.445	726.637
202.461	24.522	909.000	725.249
203.475	24.579	908.621	725.112
204.490	24.079	907.224	721.907
205.504	22.911	905.085	715.414
206.519	23.330	905.187	717.128
207.534	24.458	905.115	721.571
208.548	24.468	904.449	721.017
209.563	24.847	904.759	722.729
210.577	24.783	903.935	721.748
211.592	24.522	903.491	720.280
212.607	24.872	903.141	721.345
213.621	25.037	902.653	721.558
214.636	25.049	901.747	720.816
215.650	25.081	901.057	720.329
216.665	25.006	900.402	719.444
217.680	25.007	899.943	719.016
218.694	25.013	899.649	718.742
219.709	24.828	898.314	716.871
220.723	24.390	897.901	714.721
221.738	24.748	897.247	715.571
222.753	24.879	896.739	715.627
223.767	24.892	896.041	715.058
224.782	24.960	895.364	714.725
225.796	25.070	894.689	714.564
226.811	25.129	894.094	714.261
227.826	24.694	893.184	711.740
228.840	24.033	891.591	707.779
229.855	23.841	891.162	706.612
230.869	24.250	890.404	707.573
231.884	23.929	889.441	705.471
232.899	23.864	889.376	705.099
233.913	24.668	889.574	708.383
234.928	24.805	889.361	708.692
235.942	24.585	888.692	707.226
236.957	24.813	887.551	707.158
237.972	24.441	886.875	705.086
238.986	24.253	886.351	703.866
240.001	24.448	885.869	704.190
241.015	24.504	884.721	703.433
242.030	24.531	884.213	703.076
243.045	24.776	883.645	703.523
244.059	24.913	883.246	703.683
245.074	25.012	882.706	703.580
246.088	24.834	882.535	702.681
247.103	24.471	881.077	700.036
248.117	24.625	880.718	700.294
249.132	25.044	880.740	701.890
250.147	25.367	880.581	702.963
251.161	25.537	879.696	702.860
252.176	25.739	879.409	703.361
253.190	25.693	878.770	702.605
254.205	25.832	878.202	702.633
255.220	25.978	877.653	702.701
256.234	25.795	877.472	701.781
257.249	25.789	876.543	700.952
258.263	25.671	875.734	699.785
259.278	25.674	875.147	699.264
260.293	25.762	874.916	699.360
261.307	25.883	874.523	699.454
262.322	25.876	873.583	698.614
263.336	25.429	873.328	696.613
264.351	25.145	871.874	694.294
265.366	23.997	869.920	688.238
266.380	23.709	868.333	685.808
267.395	24.507	869.138	689.468
268.409	25.340	869.193	692.667
269.424	25.193	868.632	691.589
270.439	25.419	868.336	692.165
271.453	25.490	867.753	691.912
272.468	25.659	866.903	691.823
273.482	25.696	866.725	691.760
274.497	25.906	866.059	691.973
275.512	25.620	865.105	690.056
276.526	24.958	863.726	686.356
277.541	25.210	863.317	686.939
278.555	25.566	863.308	688.231
279.570	25.339	862.701	686.820
280.585	25.275	861.651	685.677
281.599	25.259	861.723	685.614
282.614	25.330	861.258	685.454
283.628	25.080	859.601	683.120
284.643	24.759	859.036	681.388
285.657	25.065	858.851	682.348
286.672	25.005	858.186	681.532
287.687	24.457	857.036	678.476
288.701	24.840	857.118	679.936
289.716	25.213	857.174	681.335
290.730	24.826	856.183	679.018
291.745	24.773	855.186	677.968
292.760	24.659	854.292	676.768
293.774	24.355	854.090	675.398
294.789	25.350	854.641	679.542
295.803	26.034	854.605	682.039
296.818	25.960	854.247	681.413
297.833	26.214	853.440	681.667
298.847	25.766	852.665	679.299
299.862	25.575	851.469	677.567
300.876	25.696	850.976	677.571
301.891	25.919	850.588	678.041
302.906	26.206	849.875	678.491
303.920	25.755	848.839	675.911
304.935	25.617	848.424	675.002
305.949	26.008	848.218	676.245
306.964	26.083	847.692	676.047
307.979	25.878	846.879	674.570
308.993	25.758	846.826	674.018
310.008	26.106	846.599	675.082
311.022	26.194	845.822	674.731
312.037	26.104	845.307	673.924
313.052	25.840	844.898	672.555
314.066	25.672	843.848	671.033
315.081	25.017	842.262	667.272
316.095	24.360	840.936	663.718
317.110	24.900	841.092	665.793
318.125	25.734	841.943	669.511
319.139	25.340	840.470	666.816
320.154	24.259	838.522	661.203
321.168	23.738	837.614	658.499
322.183	24.395	838.230	661.362
323.197	25.123	838.801	664.454
324.212	25.608	838.157	665.679
325.227	25.681	837.995	665.763
326.241	25.909	837.716	666.323
327.256	25.821	836.942	665.325
328.270	25.565	836.288	663.801
329.285	25.627	835.273	663.165
330.300	25.486	834.795	662.207
331.314	25.122	834.007	660.183
332.329	25.248	833.278	660.012
333.343	25.669	833.404	661.603
334.358	25.920	833.131	662.248
335.373	25.886	832.345	661.441
336.387	26.011	831.769	661.381
337.402	26.156	831.448	661.602
338.416	26.192	831.400	661.636
339.431	26.270	831.014	661.555
340.446	26.318	830.170	660.999
341.460	26.552	829.647	661.382
342.475	26.541	828.810	660.615
343.489	26.408	828.008	659.432
344.504	26.408	827.635	659.076
345.519	26.556	827.281	659.274
346.533	26.802	826.863	659.780
347.548	26.860	826.481	659.629
348.562	26.770	826.293	659.090
349.577	26.708	825.790	658.407
350.592	26.685	825.390	657.946
351.606	26.525	824.510	656.604
352.621	26.656	823.796	656.454
353.635	26.707	823.635	656.452
354.650	26.435	823.203	655.066
355.665	26.042	821.851	652.510
356.679	25.121	820.194	647.810
357.694	25.096	819.774	647.332
358.708	25.772	819.768	649.710
359.723	25.667	819.059	648.711
360.738	25.914	818.848	649.375
361.752	26.389	818.693	650.906
362.767	26.401	818.675	650.876
363.781	26.640	818.334	651.410
364.796	26.835	818.445	652.141
365.810	27.013	817.842	652.242
366.825	27.130	817.521	652.347
367.840	27.036	817.356	651.821
368.854	26.821	816.855	650.594
369.869	26.546	815.332	648.338
370.883	26.489	814.866	647.705
371.898	26.440	814.482	647.169
372.913	26.313	813.663	646.008
373.927	26.436	812.780	645.689
374.942	26.637	812.515	646.136
375.956	26.544	812.130	645.442
376.971	26.628	811.488	645.175
377.986	27.002	811.163	646.189
379.000	27.093	810.467	645.904
380.015	26.970	810.160	645.162
381.029	26.790	809.492	643.934
382.044	26.803	809.077	643.594
383.059	26.970	808.599	643.750
384.073	26.956	807.853	643.048
385.088	27.038	807.401	642.921
386.102	27.049	806.617	642.280
387.117	26.955	806.350	641.679
388.132	26.727	805.567	640.193
389.146	26.519	804.867	638.847
390.161	26.044	803.641	636.142
391.175	26.034	804.003	636.335
392.190	26.568	803.975	638.142
393.205	26.787	803.537	638.507
394.219	25.872	801.397	633.536
395.234	24.060	799.373	625.519
396.248	23.274	798.095	621.706
397.263	24.277	799.081	625.942
398.278	26.221	800.596	633.903
399.292	26.693	800.013	635.040
400.307	26.265	800.013	633.485
401.321	26.244	799.282	632.776
402.336	26.350	799.141	632.979
403.350	26.588	798.525	633.268
404.365	27.165	798.348	635.088
405.380	27.356	798.464	635.793
406.394	27.560	798.492	636.470
407.409	27.784	797.899	636.725
408.423	27.807	797.342	636.301
409.438	27.698	796.906	635.519
410.453	27.727	796.552	635.282
411.467	27.688	796.337	634.918
412.482	27.733	795.308	634.197
413.496	27.513	795.039	633.162
414.511	27.959	794.174	633.966
415.526	27.640	794.380	632.965
416.540	27.689	793.866	632.672
417.555	27.775	793.526	632.641
418.569	27.537	792.557	630.989
419.584	27.389	792.164	630.107
420.599	27.502	791.630	630.018
421.613	108.149	1279.524	1443.600
422.628	92.985	1350.603	1443.708
