DTS Sentinel unit serial number:	SN413079Multiplexer serial number:	ORYXHardware model number:	OX4-SRSoftware version number:	ORYX F/W v4.00 Oryx Data Collector v3.7.2.0data status	okinstallation	princeton_trtdifferential loss correction	single-endedforward channel	channel 3reverse channel	N/Adate	2019/09/10time	18:18:11forward acquisition time	60.00reverse acquisition time	0.00gamma	496.2192k internal	0.2304k external	0.2304temperature offset calibration	0.9910default loss term (dB/km)	0.3790temperature slope calibration	1.0000multiplexer offset coefficient	1.0000multiplexer slope coefficient	1.0000fibre end	0.00T internal ref (°C)	36.41T ext. ref 1 (°C)	-0.37T ext. ref 2 (°C)	28.36length (m)	temperature (°C)	Stokes	anti-Stokes-747.200	44.084	-0.173	-0.162
-746.185	-78.391	-0.136	0.048
-745.171	-107.756	0.144	-0.032
-744.156	-134.764	-0.166	0.021
-743.142	165.813	-0.074	-0.106
-742.127	-200.000	-0.053	0.312
-741.112	95.149	0.077	0.089
-740.098	-184.235	0.216	0.004
-739.083	800.000	-0.102	0.399
-738.069	-118.294	0.335	-0.061
-737.054	-169.363	0.189	0.007
-736.039	-156.307	-0.278	-0.018
-735.025	78.639	0.168	0.182
-734.010	-200.000	0.024	-0.256
-732.996	6.405	-0.055	-0.042
-731.981	76.996	-0.245	0.265
-730.966	-184.843	0.324	-0.005
-729.952	-200.000	0.055	-0.289
-728.937	305.857	0.124	-0.234
-727.923	800.000	-0.077	-0.239
-726.908	-79.613	-0.234	-0.080
-725.894	382.347	-0.027	-0.056
-724.879	-12.668	0.216	-0.143
-723.864	800.000	0.088	-0.267
-722.850	246.629	0.109	0.188
-721.835	69.414	0.191	-0.200
-720.821	-62.733	-0.117	-0.049
-719.806	-66.068	-0.298	-0.121
-718.791	506.338	-0.079	-0.187
-717.777	52.185	0.090	0.087
-716.762	-200.000	-0.019	-0.277
-715.748	88.412	-0.109	-0.123
-714.733	-200.000	-0.006	0.240
-713.718	-164.227	0.388	-0.018
-712.704	29.911	-0.255	-0.221
-711.689	65.218	-0.114	-0.117
-710.675	-134.530	-0.275	-0.034
-709.660	-23.222	0.301	0.184
-708.645	800.000	0.028	0.123
-707.631	-53.168	-0.342	0.160
-706.616	-39.724	-0.185	-0.098
-705.602	-81.712	-0.529	-0.177
-704.587	4.000	-0.237	-0.176
-703.572	35.566	-0.128	0.114
-702.558	393.506	0.139	-0.293
-701.543	-106.666	0.370	-0.084
-700.529	-148.699	0.357	0.029
-699.514	-200.000	0.350	-0.001
-698.499	-136.367	-0.377	0.045
-697.485	-167.610	-0.138	-0.006
-696.470	17.017	-0.129	-0.104
-695.456	84.830	0.201	0.224
-694.441	-34.118	0.212	0.118
-693.426	800.000	-0.060	0.187
-692.412	-42.106	0.204	0.106
-691.397	143.156	0.026	-0.035
-690.383	-114.184	-0.162	-0.032
-689.368	-114.763	-0.226	-0.044
-688.354	28.017	-0.353	-0.302
-687.339	-3.188	-0.072	-0.051
-686.324	-96.964	0.118	0.031
-685.310	51.583	-0.201	-0.194
-684.295	-170.500	-0.363	0.013
-683.281	14.855	0.193	-0.153
-682.266	-65.550	0.071	-0.029
-681.251	498.516	0.219	-0.513
-680.237	-200.000	-0.058	-0.457
-679.222	-156.111	-0.390	-0.025
-678.208	-137.255	-0.322	0.037
-677.193	-53.584	-0.172	-0.080
-676.178	-146.682	-0.358	-0.031
-675.164	477.509	-0.047	-0.108
-674.149	-200.000	-0.033	-0.325
-673.135	-112.921	-0.098	0.020
-672.120	-95.438	-0.405	-0.111
-671.105	-57.097	0.357	-0.160
-670.091	211.220	0.104	-0.167
-669.076	106.156	0.074	-0.090
-668.062	-84.348	0.098	-0.031
-667.047	-74.169	0.335	0.123
-666.032	800.000	0.066	-0.226
-665.018	265.144	0.125	-0.221
-664.003	800.000	-0.032	-0.103
-662.989	-60.716	-0.185	-0.079
-661.974	4.605	-0.189	-0.141
-660.959	753.410	-0.110	-0.301
-659.945	-148.227	-0.442	0.037
-658.930	216.718	0.128	-0.206
-657.916	-200.000	-0.041	-0.224
-656.901	463.957	0.155	-0.352
-655.886	-123.368	-0.175	-0.028
-654.872	800.000	0.059	-0.207
-653.857	-78.422	-0.416	-0.145
-652.843	800.000	-0.020	-0.081
-651.828	-98.700	-0.184	-0.048
-650.814	-3.321	0.194	-0.137
-649.799	-165.666	-0.214	-0.009
-648.784	259.186	-0.041	0.071
-647.770	-119.651	0.080	0.014
-646.755	-200.000	-0.031	0.144
-645.741	75.635	0.057	-0.061
-644.726	-200.000	0.003	0.037
-643.711	-117.496	0.101	-0.018
-642.697	-3.429	-0.165	-0.116
-641.682	-32.961	-0.099	-0.056
-640.668	158.524	-0.132	0.185
-639.653	-200.000	0.015	-0.100
-638.638	-6.720	0.076	-0.052
-637.624	-100.547	0.352	-0.088
-636.609	75.996	-0.177	-0.190
-635.595	325.989	0.114	-0.222
-634.580	-92.039	-0.141	-0.040
-633.565	-132.529	0.082	0.011
-632.551	61.640	-0.375	0.379
-631.536	627.955	-0.140	0.359
-630.522	-90.888	0.148	-0.043
-629.507	-62.318	0.150	0.063
-628.492	-36.935	0.241	-0.131
-627.478	800.000	-0.032	0.113
-626.463	-41.993	-0.140	0.073
-625.449	-32.214	0.274	0.155
-624.434	456.055	-0.052	0.116
-623.419	-26.917	-0.236	0.140
-622.405	-74.220	-0.093	-0.034
-621.390	-69.773	-0.341	-0.132
-620.376	29.730	0.119	-0.103
-619.361	94.460	0.195	0.224
-618.346	-48.664	0.207	-0.101
-617.332	-129.692	0.304	-0.042
-616.317	-79.486	0.128	0.044
-615.303	-200.000	-0.030	0.339
-614.288	16.725	0.108	-0.086
-613.273	74.881	0.245	-0.262
-612.259	74.921	-0.137	0.146
-611.244	-96.337	-0.277	-0.074
-610.230	38.700	-0.012	-0.010
-609.215	-200.000	0.051	0.323
-608.201	10.277	-0.099	0.076
-607.186	-132.306	0.170	-0.022
-606.171	170.117	-0.163	0.236
-605.157	-109.046	0.055	0.012
-604.142	800.000	-0.200	0.587
-603.128	33.042	-0.229	0.201
-602.113	-200.000	0.070	-0.352
-601.098	47.447	-0.031	-0.029
-600.084	-200.000	0.008	-0.241
-599.069	97.599	0.196	0.228
-598.055	800.000	-0.009	0.026
-597.040	221.794	-0.064	0.104
-596.025	52.150	0.061	0.059
-595.011	30.485	0.175	0.152
-593.996	-200.000	-0.006	0.052
-592.982	-130.298	-0.182	0.025
-591.967	-167.715	0.079	0.003
-590.952	800.000	0.103	0.436
-589.938	25.973	-0.051	-0.043
-588.923	97.390	0.051	-0.060
-587.909	52.813	0.312	-0.302
-586.894	-200.000	-0.042	0.234
-585.879	-191.605	0.081	0.001
-584.865	-63.035	-0.097	0.041
-583.850	-200.000	0.002	-0.270
-582.836	182.995	0.194	-0.290
-581.821	-81.225	-0.166	0.056
-580.806	-200.000	-0.008	0.330
-579.792	18.523	0.261	0.211
-578.777	-200.000	0.067	0.000
-577.763	-67.164	-0.304	0.121
-576.748	19.437	-0.227	-0.185
-575.733	49.861	0.254	0.243
-574.719	-75.546	-0.307	-0.111
-573.704	-137.248	-0.153	0.018
-572.690	139.783	0.180	-0.240
-571.675	-132.128	-0.240	0.032
-570.661	-20.716	-0.167	-0.104
-569.646	311.443	-0.028	0.053
-568.631	369.817	0.131	-0.268
-567.617	800.000	-0.045	-0.136
-566.602	-76.488	-0.117	-0.042
-565.588	64.786	-0.136	-0.138
-564.573	-200.000	0.003	-0.206
-563.558	82.405	-0.073	-0.080
-562.544	160.304	-0.148	-0.209
-561.529	-27.712	-0.292	0.171
-560.515	-128.986	-0.189	0.027
-559.500	148.390	0.147	0.201
-558.485	-66.957	-0.081	0.032
-557.471	347.841	0.241	-0.480
-556.456	-80.530	0.168	0.057
-555.442	169.845	-0.125	-0.180
-554.427	-80.016	-0.349	-0.118
-553.412	800.000	0.094	-0.314
-552.398	102.661	0.171	0.203
-551.383	407.918	0.097	0.208
-550.369	-13.270	0.135	0.088
-549.354	-137.728	0.031	0.003
-548.339	-95.717	-0.167	-0.045
-547.325	612.694	0.098	-0.247
-546.310	280.843	0.102	-0.185
-545.296	-32.898	0.075	0.042
-544.281	-10.046	0.220	0.148
-543.266	-70.961	-0.239	0.091
-542.252	800.000	-0.049	-0.154
-541.237	32.583	0.120	-0.105
-540.223	-119.519	0.147	0.026
-539.208	89.698	0.068	-0.077
-538.193	-98.129	-0.092	-0.024
-537.179	-200.000	-0.019	0.098
-536.164	-200.000	0.066	-0.336
-535.150	81.955	0.165	0.180
-534.135	-200.000	0.014	0.367
-533.121	-117.006	0.321	-0.059
-532.106	-200.000	-0.041	0.495
-531.091	-106.489	-0.270	0.061
-530.077	-133.255	0.163	0.021
-529.062	-55.716	-0.300	0.135
-528.048	695.222	-0.063	-0.167
-527.033	78.562	0.114	0.123
-526.018	-18.179	0.302	-0.190
-525.004	92.312	0.219	-0.249
-523.989	356.095	-0.042	0.085
-522.975	73.311	0.038	0.041
-521.960	-140.742	0.272	-0.028
-520.945	-145.422	0.239	0.022
-519.931	-146.437	-0.292	0.026
-518.916	-54.202	0.180	-0.083
-517.902	-98.859	-0.133	-0.034
-516.887	145.461	-0.083	0.113
-515.872	103.035	0.047	-0.055
-514.858	-200.000	0.005	-0.051
-513.843	-112.882	-0.148	-0.030
-512.829	2.128	-0.316	0.230
-511.814	800.000	0.018	0.063
-510.799	46.127	-0.281	0.263
-509.785	-43.780	-0.136	-0.069
-508.770	-200.000	0.048	0.212
-507.756	-93.235	-0.131	-0.037
-506.741	214.663	-0.074	-0.118
-505.726	800.000	0.074	-0.249
-504.712	49.030	0.131	-0.124
-503.697	595.395	-0.035	-0.088
-502.683	341.807	-0.098	-0.193
-501.668	-200.000	0.041	0.214
-500.653	432.567	0.057	0.126
-499.639	264.396	0.039	-0.068
-498.624	-154.977	0.135	0.009
-497.610	-128.084	0.081	-0.012
-496.595	399.047	0.199	-0.419
-495.581	685.168	-0.133	-0.350
-494.566	116.972	0.097	-0.120
-493.551	220.617	0.158	-0.255
-492.537	59.473	-0.130	-0.129
-491.522	800.000	0.022	0.080
-490.508	25.989	-0.289	0.243
-489.493	11.039	-0.156	-0.120
-488.478	-135.316	0.108	0.013
-487.464	46.967	0.177	-0.166
-486.449	-200.000	-0.035	-0.215
-485.435	-200.000	-0.016	0.107
-484.420	369.434	-0.061	-0.124
-483.405	-105.420	0.245	-0.056
-482.391	164.314	-0.210	-0.298
-481.376	800.000	0.022	-0.086
-480.362	111.144	-0.093	0.112
-479.347	-200.000	0.026	-0.149
-478.332	129.238	-0.177	0.228
-477.318	800.000	-0.019	0.076
-476.303	-200.000	-0.001	0.130
-475.289	-200.000	-0.034	-0.348
-474.274	800.000	0.089	-0.254
-473.259	-119.417	0.094	-0.017
-472.245	-200.000	-0.012	-0.105
-471.230	-200.000	0.019	0.123
-470.216	-149.136	-0.374	-0.030
-469.201	470.365	-0.115	-0.260
-468.186	-6.860	0.150	-0.103
-467.172	-152.163	-0.164	0.012
-466.157	15.712	0.330	-0.262
-465.143	-200.000	0.051	-0.382
-464.128	55.740	-0.176	-0.172
-463.113	-0.268	-0.297	0.212
-462.099	-186.872	0.470	0.007
-461.084	-200.000	0.014	0.152
-460.070	-98.654	-0.103	0.026
-459.055	-162.104	-0.535	-0.027
-458.040	-24.486	0.144	0.087
-457.026	162.327	0.116	0.163
-456.011	800.000	0.010	0.039
-454.997	800.000	-0.060	0.173
-453.982	-13.458	0.093	0.061
-452.968	-64.959	-0.213	0.087
-451.953	-109.436	-0.130	0.028
-450.938	-200.000	0.040	-0.233
-449.924	-144.313	-0.134	-0.013
-448.909	-40.684	0.211	-0.110
-447.895	-200.000	-0.012	-0.126
-446.880	118.657	0.178	-0.221
-445.865	-200.000	0.063	-0.303
-444.851	-200.000	0.031	-0.201
-443.836	800.000	0.113	0.344
-442.822	-149.311	-0.077	0.006
-441.807	-17.530	-0.285	-0.180
-440.792	-65.183	-0.084	0.034
-439.778	-107.073	0.141	0.031
-438.763	-109.303	-0.160	0.034
-437.749	-35.630	0.164	0.089
-436.734	-71.237	0.293	-0.111
-435.719	-200.000	-0.013	-0.076
-434.705	71.478	0.276	0.288
-433.690	-103.830	-0.215	0.051
-432.676	-200.000	0.096	0.000
-431.661	21.847	0.086	-0.070
-430.646	-14.114	-0.066	0.043
-429.632	58.567	0.087	0.086
-428.617	11.670	-0.153	-0.118
-427.603	400.451	0.017	-0.036
-426.588	800.000	0.032	0.100
-425.573	-125.747	-0.312	0.047
-424.559	-200.000	0.054	-0.508
-423.544	-20.340	-0.344	0.213
-422.530	-9.839	0.254	-0.170
-421.515	91.220	-0.193	0.218
-420.500	-24.628	-0.288	0.172
-419.486	800.000	0.030	0.114
-418.471	135.803	-0.145	0.190
-417.457	106.320	-0.066	-0.078
-416.442	-35.542	0.252	0.138
-415.428	345.034	-0.121	0.238
-414.413	26.022	-0.025	-0.021
-413.398	44.819	0.192	0.178
-412.384	-200.000	-0.017	-0.193
-411.369	-200.000	-0.020	-0.355
-410.355	-77.488	-0.078	0.027
-409.340	-83.570	-0.291	-0.094
-408.325	87.281	-0.112	0.124
-407.311	800.000	-0.062	0.182
-406.296	-20.018	-0.110	0.068
-405.282	800.000	0.073	-0.296
-404.267	-3.811	0.256	-0.179
-403.252	-30.862	-0.200	-0.114
-402.238	-131.768	0.177	-0.023
-401.223	404.736	-0.171	0.361
-400.209	-200.000	-0.029	-0.394
-399.194	-92.544	-0.334	0.094
-398.179	8.739	-0.070	0.053
-397.165	-141.220	0.435	0.045
-396.150	-8.496	0.090	0.060
-395.136	-85.230	-0.202	-0.063
-394.121	196.640	0.168	-0.256
-393.106	70.050	-0.096	-0.099
-392.092	-6.457	-0.324	-0.222
-391.077	4.256	0.130	0.096
-390.063	256.273	-0.145	0.250
-389.048	-81.587	0.153	0.050
-388.033	10.998	-0.177	-0.136
-387.019	-15.717	0.023	0.015
-386.004	120.775	-0.200	0.250
-384.990	-200.000	0.019	0.175
-383.975	800.000	-0.065	0.268
-382.960	209.451	0.140	-0.220
-381.946	149.894	-0.088	0.120
-380.931	188.381	0.093	0.139
-379.917	800.000	-0.062	0.195
-378.902	713.011	-0.074	-0.196
-377.888	800.000	-0.090	0.339
-376.873	-200.000	0.029	0.228
-375.858	103.978	-0.057	0.067
-374.844	-166.295	0.170	-0.007
-373.829	-83.176	0.042	-0.014
-372.815	219.679	-0.091	-0.146
-371.800	-81.209	0.229	0.076
-370.785	121.165	0.067	-0.084
-369.771	-129.059	0.366	-0.051
-368.756	127.932	-0.202	-0.258
-367.742	-200.000	0.016	0.535
-366.727	-9.495	0.342	0.229
-365.712	-10.935	0.316	0.209
-364.698	-200.000	-0.023	-0.182
-363.683	-101.269	-0.209	0.051
-362.669	800.000	-0.064	-0.183
-361.654	-200.000	0.030	0.216
-360.639	800.000	0.060	0.242
-359.625	481.535	-0.057	0.130
-358.610	95.294	0.113	-0.129
-357.596	17.403	-0.035	0.028
-356.581	-148.970	-0.177	0.014
-355.566	-107.700	-0.208	0.045
-354.552	800.000	-0.065	0.266
-353.537	-109.277	0.155	0.033
-352.523	-44.322	-0.317	-0.159
-351.508	-82.403	0.257	-0.084
-350.493	-71.871	0.030	-0.011
-349.479	-200.000	0.014	0.177
-348.464	7.269	-0.224	-0.168
-347.450	-200.000	0.001	0.071
-346.435	-200.000	-0.015	-0.232
-345.420	-200.000	0.027	0.252
-344.406	-43.834	-0.231	-0.116
-343.391	-200.000	-0.017	0.388
-342.377	39.585	0.215	0.194
-341.362	-200.000	-0.034	0.344
-340.348	-200.000	0.047	-0.286
-339.333	92.307	-0.097	-0.109
-338.318	-73.308	-0.148	0.054
-337.304	29.493	0.224	-0.191
-336.289	-105.185	0.402	-0.092
-335.275	-200.000	-0.057	0.277
-334.260	-123.315	-0.224	0.036
-333.245	-200.000	0.025	-0.169
-332.231	800.000	0.056	-0.208
-331.216	21.450	-0.235	-0.191
-330.202	800.000	0.156	0.583
-329.187	336.412	0.173	0.336
-328.172	428.412	0.138	0.299
-327.158	-65.170	0.112	-0.045
-326.143	-183.490	-0.201	0.003
-325.129	233.948	0.239	0.395
-324.114	-200.000	0.004	0.049
-323.099	-90.196	0.456	0.133
-322.085	233.663	0.039	0.064
-321.070	-9.338	-0.136	-0.091
-320.056	-200.000	0.006	0.082
-319.041	352.013	0.068	0.136
-318.026	800.000	0.093	-0.347
-317.012	-131.871	-0.125	0.016
-315.997	-117.942	0.268	-0.048
-314.983	-150.481	-0.171	-0.013
-313.968	-200.000	-0.009	-0.071
-312.953	110.073	-0.167	0.200
-311.939	27.151	0.313	0.263
-310.924	-36.372	0.199	-0.107
-309.910	-107.033	0.136	0.030
-308.895	800.000	-0.127	-0.367
-307.880	-200.000	0.016	0.132
-306.866	50.418	0.260	0.246
-305.851	-200.000	0.020	-0.367
-304.837	-197.727	-0.212	0.001
-303.822	-108.999	0.219	0.047
-302.807	800.000	0.046	0.131
-301.793	15.025	-0.220	-0.172
-300.778	-102.207	-0.195	-0.047
-299.764	800.000	-0.034	0.099
-298.749	101.979	-0.199	-0.233
-297.735	800.000	-0.098	-0.324
-296.720	-177.348	0.202	0.005
-295.705	-73.331	-0.016	-0.006
-294.691	30.955	-0.042	0.036
-293.676	-79.571	0.221	0.075
-292.662	-21.675	0.126	-0.077
-291.647	-200.000	-0.005	-0.152
-290.632	800.000	-0.040	-0.118
-289.618	-200.000	0.066	0.538
-288.603	-200.000	-0.029	0.189
-287.589	-200.000	0.023	0.330
-286.574	800.000	-0.056	-0.223
-285.559	63.054	-0.249	-0.249
-284.545	184.531	-0.118	-0.175
-283.530	800.000	0.071	-0.244
-282.516	179.538	0.105	0.153
-281.501	-67.975	-0.095	0.037
-280.486	-44.655	0.421	0.210
-279.472	86.999	0.259	-0.286
-278.457	38.942	-0.249	0.223
-277.443	-200.000	-0.026	-0.263
-276.428	-41.680	0.145	0.075
-275.413	-121.922	0.336	0.055
-274.399	153.716	0.222	0.304
-273.384	-37.302	-0.176	0.094
-272.370	-200.000	-0.009	-0.093
-271.355	617.424	-0.086	0.215
-270.340	-61.392	0.019	0.008
-269.326	-92.308	0.178	-0.050
-268.311	-200.000	-0.065	-0.345
-267.297	800.000	-0.094	-0.394
-266.282	363.168	-0.097	0.195
-265.267	233.066	0.113	0.185
-264.253	2.568	-0.122	0.088
-263.238	-66.525	0.142	0.056
-262.224	-104.364	-0.240	0.056
-261.209	166.910	0.048	0.069
-260.195	-43.839	0.486	-0.244
-259.180	-200.000	-0.058	-0.347
-258.165	-60.267	0.416	-0.177
-257.151	50.601	-0.183	-0.173
-256.136	104.461	0.274	-0.322
-255.122	800.000	0.065	0.260
-254.107	-3.101	-0.465	0.324
-253.092	335.762	-0.098	-0.190
-252.078	15.466	-0.299	-0.235
-251.063	-200.000	-0.055	0.350
-250.049	-200.000	0.016	0.471
-249.034	16.478	-0.144	0.114
-248.019	-110.503	-0.311	0.064
-247.005	-13.504	-0.206	-0.133
-245.990	153.391	-0.111	-0.152
-244.976	-200.000	0.017	-0.095
-243.961	-200.000	0.060	0.275
-242.946	252.240	0.094	0.160
-241.932	134.238	-0.061	0.079
-240.917	-90.291	0.067	0.019
-239.903	-39.898	0.244	-0.127
-238.888	266.090	0.160	0.280
-237.873	-62.756	-0.286	-0.118
-236.859	-67.945	-0.364	0.142
-235.844	-191.188	-0.293	-0.003
-234.830	198.259	0.042	0.065
-233.815	290.539	0.136	0.247
-232.800	-87.754	-0.171	0.052
-231.786	-59.978	-0.284	-0.121
-230.771	-200.000	0.028	-0.211
-229.757	-200.000	-0.017	-0.156
-228.742	166.054	0.070	-0.099
-227.727	800.000	0.095	-0.295
-226.713	-46.422	-0.148	0.072
-225.698	-200.000	-0.008	-0.335
-224.684	-5.238	-0.220	0.151
-223.669	54.033	0.148	-0.142
-222.655	-121.495	0.255	0.042
-221.640	641.186	-0.006	-0.014
-220.625	659.774	0.148	0.380
-219.611	87.830	-0.222	0.245
-218.596	-65.159	0.203	-0.082
-217.582	430.754	-0.260	0.562
-216.567	97.145	-0.052	0.059
-215.552	800.000	0.073	0.219
-214.538	-35.797	-0.067	-0.036
-213.523	-101.071	-0.331	0.081
-212.509	195.402	-0.034	-0.052
-211.494	-111.759	-0.040	0.008
-210.479	-85.713	0.320	-0.099
-209.465	-200.000	0.004	-0.308
-208.450	201.990	0.080	-0.122
-207.436	-200.000	0.039	-0.197
-206.421	114.767	-0.161	0.196
-205.406	-200.000	0.001	-0.021
-204.392	219.729	0.114	0.181
-203.377	800.000	0.065	-0.267
-202.363	-200.000	0.064	-0.298
-201.348	-200.000	-0.020	-0.122
-200.333	107.662	0.116	0.137
-199.319	273.408	-0.040	0.070
-198.304	-10.170	0.116	0.076
-197.290	565.621	0.083	0.200
-196.275	79.880	-0.242	-0.259
-195.260	418.416	-0.151	-0.321
-194.246	123.621	0.074	-0.092
-193.231	453.347	-0.112	-0.248
-192.217	-51.292	-0.125	-0.059
-191.202	800.000	-0.095	-0.380
-190.187	627.273	-0.112	0.281
-189.173	800.000	0.004	0.015
-188.158	216.374	0.210	0.333
-187.144	-200.000	0.036	-0.170
-186.129	800.000	0.120	-0.379
-185.114	-58.572	0.196	-0.085
-184.100	-200.000	0.062	0.342
-183.085	-200.000	-0.033	-0.237
-182.071	52.767	-0.240	-0.228
-181.056	87.556	-0.149	-0.165
-180.042	-11.477	0.389	-0.255
-179.027	25.321	-0.226	-0.187
-178.012	-143.811	-0.056	0.005
-176.998	-200.000	0.031	-0.151
-175.983	58.435	0.067	-0.066
-174.969	-55.401	-0.258	-0.115
-173.954	-200.000	0.037	-0.176
-172.939	-134.291	0.359	0.044
-171.925	800.000	0.091	-0.263
-170.910	-25.015	0.307	-0.181
-169.896	-15.995	-0.127	-0.080
-168.881	800.000	0.023	-0.090
-167.866	-53.853	0.153	0.069
-166.852	350.142	-0.057	-0.112
-165.837	-32.128	0.265	0.147
-164.823	122.616	0.120	-0.150
-163.808	50.539	0.244	0.230
-162.793	-27.567	0.267	0.154
-161.779	-102.456	-0.388	-0.092
-160.764	-97.086	-0.276	0.072
-159.750	-200.000	-0.019	0.224
-158.735	40.074	-0.109	-0.097
-157.720	113.516	0.072	-0.087
-156.706	-129.349	0.401	0.055
-155.691	-132.764	0.128	0.016
-154.677	800.000	-0.047	0.160
-153.662	625.462	0.134	0.336
-152.647	324.609	0.072	0.137
-151.633	-13.624	-0.276	0.178
-150.618	-200.000	-0.026	-0.524
-149.604	-153.301	0.238	0.017
-148.589	204.897	-0.076	0.117
-147.574	-112.863	0.235	0.046
-146.560	217.541	-0.315	-0.499
-145.545	668.121	0.045	0.116
-144.531	800.000	-0.079	-0.280
-143.516	800.000	-0.124	-0.409
-142.502	48.635	0.089	-0.083
-141.487	-200.000	0.013	0.171
-140.472	303.218	0.084	0.155
-139.458	800.000	0.029	-0.103
-138.443	76.342	-0.302	-0.318
-137.429	-200.000	0.069	-0.335
-136.414	-200.000	0.012	-0.280
-135.399	347.271	-0.114	-0.223
-134.385	397.874	0.134	0.278
-133.370	-5.190	0.442	-0.302
-132.356	-75.029	-0.182	0.065
-131.341	800.000	0.058	-0.236
-130.326	-8.141	-0.358	-0.240
-129.312	-200.000	0.016	0.217
-128.297	-200.000	0.037	0.202
-127.283	-109.728	0.178	0.037
-126.268	173.004	0.130	-0.186
-125.253	123.111	0.104	-0.129
-124.239	12.052	0.225	-0.172
-123.224	101.569	0.095	-0.110
-122.210	-47.676	0.122	-0.059
-121.195	-154.332	-0.309	-0.021
-120.180	14.766	-0.256	-0.199
-119.166	1.443	0.180	-0.129
-118.151	96.280	-0.118	-0.134
-117.137	8.081	0.108	-0.080
-116.122	-101.409	-0.242	-0.058
-115.107	-104.575	-0.143	0.033
-114.093	-200.000	0.028	0.234
-113.078	800.000	-0.064	0.266
-112.064	-21.526	-0.093	-0.056
-111.049	-200.000	0.031	-0.252
-110.034	-70.697	-0.243	0.091
-109.020	275.960	-0.172	0.302
-108.005	-200.000	0.018	-0.213
-106.991	-200.000	0.013	-0.099
-105.976	420.968	0.045	-0.096
-104.962	-79.680	0.267	0.089
-103.947	477.815	-0.065	0.147
-102.932	800.000	0.020	-0.079
-101.918	-200.000	0.072	0.357
-100.903	-200.000	0.020	0.254
-99.889	307.237	0.032	-0.060
-98.874	-130.977	0.372	-0.049
-97.859	16.990	0.066	0.052
-96.845	800.000	-0.057	-0.156
-95.830	-200.000	-0.006	0.417
-94.816	671.517	0.037	-0.096
-93.801	-169.202	-0.342	0.013
-92.786	272.785	0.206	0.361
-91.772	-108.817	-0.296	-0.063
-90.757	-200.000	0.009	-0.223
-89.743	275.545	0.125	0.219
-88.728	148.414	-0.026	-0.035
-87.713	69.003	0.042	0.043
-86.699	-93.647	0.422	-0.116
-85.684	-200.000	0.026	0.204
-84.670	135.491	0.211	0.272
-83.655	60.944	-0.025	-0.024
-82.640	8.110	0.278	-0.207
-81.626	60.058	-0.080	-0.079
-80.611	-61.890	0.076	0.032
-79.597	-147.544	0.008	0.001
-78.582	-27.067	-0.167	-0.097
-77.567	-83.821	-0.063	0.020
-76.553	192.609	-0.062	-0.093
-75.538	44.239	0.243	0.221
-74.524	-200.000	-0.011	0.147
-73.509	-88.179	-0.553	-0.164
-72.494	34.649	0.127	0.110
-71.480	-200.000	0.050	0.360
-70.465	-200.000	-0.042	0.190
-69.451	-4.942	-0.220	-0.150
-68.436	-151.521	0.292	-0.021
-67.422	269.605	0.093	0.162
-66.407	-93.016	0.038	0.010
-65.392	-5.431	0.388	-0.264
-64.378	-200.000	-0.032	0.144
-63.363	-43.486	-0.174	0.087
-62.349	164.920	0.267	0.374
-61.334	41.045	-0.737	-0.660
-60.319	-25.108	0.418	0.246
-59.305	-200.000	-0.134	-0.906
-58.290	103.127	0.656	0.762
-57.276	424.909	0.720	1.535
-56.261	-200.000	92.399	515.212
-55.246	558.481	1376.609	3291.561
-54.232	182.502	2623.939	3834.452
-53.217	117.043	2234.594	2720.114
-52.203	46.245	1763.349	1619.136
-51.188	39.497	1568.637	1392.795
-50.173	37.005	1540.378	1350.322
-49.159	53.784	1589.646	1512.701
-48.144	57.796	1608.579	1559.080
-47.130	39.895	1564.086	1391.338
-46.115	36.639	1549.158	1355.237
-45.100	36.467	1545.786	1351.034
-44.086	36.341	1543.843	1348.399
-43.071	36.391	1541.354	1346.525
-42.057	36.328	1540.138	1344.966
-41.042	36.305	1538.929	1343.697
-40.027	36.377	1537.283	1342.709
-39.013	36.346	1535.666	1341.026
-37.998	36.321	1534.462	1339.751
-36.984	36.296	1533.711	1338.866
-35.969	36.398	1531.638	1337.709
-34.954	36.401	1530.196	1336.419
-33.940	36.433	1528.504	1335.110
-32.925	36.424	1527.451	1334.074
-31.911	36.420	1526.383	1333.061
-30.896	36.427	1524.724	1331.611
-29.881	36.475	1523.258	1330.608
-28.867	36.457	1521.701	1329.068
-27.852	36.466	1520.229	1327.793
-26.838	36.455	1519.029	1326.617
-25.823	36.491	1517.154	1325.169
-24.809	36.446	1515.660	1323.508
-23.794	36.476	1514.442	1322.596
-22.779	36.475	1513.173	1321.427
-21.765	36.462	1512.557	1320.749
-20.750	36.547	1510.758	1319.704
-19.736	36.544	1509.670	1318.679
-18.721	36.454	1508.824	1317.278
-17.706	36.400	1507.726	1315.901
-16.692	36.398	1506.771	1315.002
-15.677	36.444	1505.448	1314.105
-14.663	36.426	1504.366	1312.984
-13.648	36.300	1503.140	1311.008
-12.633	36.318	1502.520	1310.535
-11.619	36.369	1501.363	1309.820
-10.604	36.363	1500.559	1309.028
-9.590	36.319	1499.653	1307.886
-8.575	36.405	1498.986	1307.838
-7.560	36.365	1498.070	1306.717
-6.546	36.361	1497.296	1305.964
-5.531	36.374	1495.847	1304.730
-4.517	36.424	1494.586	1303.922
-3.502	36.338	1494.236	1302.984
-2.487	36.437	1492.777	1302.326
-1.473	36.344	1492.256	1301.191
-0.458	36.279	1490.257	1298.960
0.556	33.720	1479.982	1286.373
1.571	30.126	1451.549	1237.604
2.586	25.622	1385.753	1152.614
3.600	23.458	1300.866	1068.885
4.615	22.115	1253.829	1022.336
5.629	18.781	1197.775	957.981
6.644	9.111	1109.209	836.884
7.659	1.013	1064.695	762.585
8.673	-0.282	1059.256	752.132
9.688	-0.337	1055.701	749.267
10.702	-0.451	1054.250	747.600
11.717	-0.420	1052.172	746.219
12.731	2.313	1056.094	762.573
13.746	11.459	1069.361	818.101
14.761	17.553	1076.527	854.166
15.775	17.411	1074.967	852.138
16.790	17.146	1073.325	849.437
17.804	16.878	1072.396	847.287
18.819	16.464	1072.177	844.970
19.834	16.580	1071.269	844.759
20.848	16.588	1070.313	843.971
21.863	16.486	1069.968	843.116
22.877	16.393	1069.942	842.555
23.892	16.426	1069.049	841.944
24.907	16.386	1067.892	840.760
25.921	16.409	1067.611	840.577
26.936	16.484	1066.613	840.089
27.950	16.551	1065.392	839.385
28.965	16.512	1064.202	838.180
29.980	16.346	1062.582	836.011
30.994	16.346	1060.966	834.665
32.009	16.532	1059.947	834.707
33.023	16.617	1059.267	834.517
34.038	16.364	1057.698	831.962
35.053	16.445	1056.797	831.577
36.067	16.587	1056.545	832.004
37.082	16.691	1055.657	831.743
38.096	16.671	1054.479	830.643
39.111	16.738	1054.032	830.543
40.126	16.812	1053.022	830.040
41.140	16.695	1051.702	828.351
42.155	16.650	1049.764	826.534
43.169	16.293	1048.987	824.107
44.184	16.356	1047.750	823.368
45.199	16.377	1046.558	822.462
46.213	16.350	1044.972	821.011
47.228	16.349	1044.258	820.374
48.242	16.306	1043.150	819.219
49.257	16.359	1042.257	818.703
50.271	16.402	1041.431	818.188
51.286	16.563	1040.423	818.106
52.301	16.480	1039.370	816.806
53.315	16.398	1038.865	815.939
54.330	16.468	1038.024	815.543
55.344	16.543	1036.749	814.832
56.359	16.581	1035.610	814.045
57.374	16.555	1034.830	813.236
58.388	16.448	1033.514	811.616
59.403	16.358	1032.766	810.524
60.417	16.478	1032.464	810.791
61.432	16.344	1031.382	809.230
62.447	16.309	1030.997	808.687
63.461	16.462	1029.860	808.455
64.476	16.556	1028.933	808.107
65.490	16.524	1027.703	806.918
66.505	16.479	1026.627	805.787
67.520	16.486	1025.920	805.194
68.534	16.439	1025.416	804.501
69.549	16.324	1024.641	803.276
70.563	16.328	1022.840	801.811
71.578	16.194	1022.087	800.513
72.593	16.216	1021.442	800.041
73.607	16.132	1020.305	798.681
74.622	16.121	1019.628	798.029
75.636	16.404	1018.989	798.799
76.651	16.305	1018.203	797.643
77.666	16.313	1017.359	796.950
78.680	16.349	1015.696	795.746
79.695	16.315	1015.375	795.262
80.709	16.424	1014.880	795.321
81.724	16.403	1014.213	794.629
82.739	16.388	1012.824	793.400
83.753	16.430	1011.970	792.858
84.768	16.527	1011.357	792.761
85.782	16.645	1010.442	792.526
86.797	16.595	1009.588	791.552
87.812	16.645	1008.628	790.964
88.826	16.473	1007.758	789.406
89.841	16.525	1006.948	788.948
90.855	16.419	1006.464	788.002
91.870	16.640	1004.801	787.659
92.884	16.676	1004.320	787.381
93.899	16.571	1003.212	785.953
94.914	16.410	1002.439	784.530
95.928	16.587	1001.684	784.691
96.943	16.553	1000.501	783.537
97.957	16.466	1000.005	782.675
98.972	16.420	998.127	780.926
99.987	16.102	997.256	778.707
101.001	16.020	996.389	777.585
102.016	16.427	995.774	778.911
103.030	16.525	995.012	778.696
104.045	16.260	993.793	776.454
105.060	16.165	992.347	774.820
106.074	15.918	991.337	772.832
107.089	16.093	990.473	772.889
108.103	16.396	990.502	774.234
109.118	16.624	989.570	774.480
110.133	16.387	988.235	772.282
111.147	16.559	986.816	771.889
112.162	16.472	986.288	771.013
113.176	16.274	984.913	768.970
114.191	16.378	983.827	768.523
115.206	16.283	983.136	767.484
116.220	16.186	981.969	766.068
117.235	16.162	980.896	765.054
118.249	16.321	980.000	765.006
119.264	16.240	979.370	764.078
120.279	16.228	978.365	763.174
121.293	16.281	977.528	762.696
122.308	16.264	976.930	762.081
123.322	16.344	975.939	761.605
124.337	16.305	975.187	760.775
125.352	16.340	973.445	759.502
126.366	15.941	971.228	755.915
127.381	15.772	969.800	753.981
128.395	16.029	969.524	754.851
129.410	16.422	969.247	756.328
130.424	16.521	968.105	755.812
131.439	16.632	967.075	755.438
132.454	16.447	965.640	753.423
133.468	16.488	965.021	753.060
134.483	16.398	964.407	752.110
135.497	16.582	963.719	752.325
136.512	16.727	962.957	752.309
137.527	16.766	962.080	751.731
138.541	16.738	961.204	750.854
139.556	16.740	960.375	750.152
140.570	16.726	959.557	749.385
141.585	16.675	958.533	748.294
142.600	16.712	957.774	747.796
143.614	16.606	956.736	746.454
144.629	16.752	955.725	746.243
145.643	16.865	955.236	746.292
146.658	16.787	953.771	744.740
147.673	16.746	952.748	743.694
148.687	16.713	951.905	742.823
149.702	16.658	951.253	742.009
150.716	16.642	950.207	741.058
151.731	16.599	948.725	739.647
152.746	16.618	948.364	739.385
153.760	16.763	947.827	739.534
154.775	16.735	947.274	738.913
155.789	16.765	945.881	737.890
156.804	16.740	945.024	737.048
157.819	16.712	943.986	736.054
158.833	16.712	943.297	735.452
159.848	16.915	942.114	735.342
160.862	16.821	941.449	734.351
161.877	16.645	940.505	732.789
162.892	16.624	939.991	732.235
163.906	16.825	939.073	732.320
164.921	16.879	938.234	731.837
165.935	16.705	937.383	730.357
166.950	16.784	936.070	729.609
167.964	16.903	935.052	729.262
168.979	16.889	933.881	728.224
169.994	16.744	933.012	726.863
171.008	16.636	931.719	725.328
172.023	16.830	930.669	725.274
173.037	16.878	930.193	725.044
174.052	16.693	928.907	723.187
175.067	16.477	927.938	721.451
176.081	16.578	927.239	721.273
177.096	16.813	926.313	721.490
178.110	16.850	925.548	720.986
179.125	16.612	924.654	719.213
180.140	16.485	923.483	717.703
181.154	16.384	923.062	716.882
182.169	16.518	922.285	716.784
183.183	16.517	921.776	716.321
184.198	16.906	920.947	717.260
185.213	16.801	920.602	716.482
186.227	16.785	919.734	715.674
187.242	16.861	919.189	715.510
188.256	16.902	918.155	714.813
189.271	16.868	917.348	713.980
190.286	16.895	916.604	713.449
191.300	16.801	915.782	712.353
192.315	16.521	914.794	710.343
193.329	16.101	913.291	707.353
194.344	15.683	912.375	704.831
195.359	16.038	912.422	706.290
196.373	16.636	912.537	708.823
197.388	16.870	912.097	709.397
198.402	16.814	910.573	707.914
199.417	16.609	910.201	706.708
200.432	16.545	909.433	705.782
201.446	16.447	908.632	704.689
202.461	16.251	907.988	703.313
203.475	16.290	907.503	703.037
204.490	15.858	906.359	700.289
205.504	14.987	904.563	695.222
206.519	15.387	904.681	696.914
207.534	16.262	904.459	700.314
208.548	16.429	903.617	700.291
209.563	16.672	903.846	701.416
210.577	16.756	902.641	700.763
211.592	16.413	902.317	699.032
212.607	16.831	901.706	700.226
213.621	16.678	901.398	699.289
214.636	16.788	900.389	698.900
215.650	16.827	899.967	698.673
216.665	16.876	898.957	698.030
217.680	16.866	898.355	697.458
218.694	16.899	898.153	697.373
219.709	16.651	896.991	695.394
220.723	16.360	896.172	693.499
221.738	16.576	895.986	694.181
222.753	16.797	895.196	694.416
223.767	16.771	894.437	693.658
224.782	16.824	893.299	692.930
225.796	16.885	892.900	692.809
226.811	17.034	891.834	692.527
227.826	16.758	890.884	690.606
228.840	16.042	889.771	686.764
229.855	16.077	889.234	686.430
230.869	16.377	888.427	686.968
231.884	16.044	887.666	684.964
232.899	16.046	886.912	684.330
233.913	16.580	886.942	686.460
234.928	16.892	886.321	687.186
235.942	16.859	886.060	686.788
236.957	16.973	884.707	686.139
237.972	16.645	883.939	684.160
238.986	16.554	883.089	683.071
240.001	16.788	882.512	683.510
241.015	16.731	882.221	682.995
242.030	16.707	881.286	682.111
243.045	16.839	880.284	681.808
244.059	16.981	879.638	681.816
245.074	17.040	879.206	681.658
246.088	17.112	878.037	680.981
247.103	16.625	877.352	678.439
248.117	16.663	876.742	678.059
249.132	16.960	876.222	678.785
250.147	17.040	875.654	678.607
251.161	17.129	874.445	677.964
252.176	17.377	874.118	678.638
253.190	17.342	873.649	678.075
254.205	17.316	873.257	677.608
255.220	17.442	872.817	677.708
256.234	17.478	871.942	677.112
257.249	17.456	871.172	676.369
258.263	17.412	870.474	675.593
259.278	17.432	869.596	674.927
260.293	17.483	869.518	675.012
261.307	17.533	868.800	674.591
262.322	17.318	868.138	673.167
263.336	17.356	867.143	672.487
264.351	16.825	865.785	669.275
265.366	15.967	863.727	664.246
266.380	15.477	863.202	661.852
267.395	16.198	863.373	664.766
268.409	17.009	863.243	667.801
269.424	17.128	862.322	667.496
270.439	17.334	862.043	668.031
271.453	17.418	861.395	667.798
272.468	17.446	860.213	666.933
273.482	17.496	860.214	667.070
274.497	17.642	859.719	667.201
275.512	17.593	858.122	665.710
276.526	17.040	856.640	662.343
277.541	17.150	856.617	662.697
278.555	17.535	855.743	663.463
279.570	17.228	854.984	661.619
280.585	16.998	854.363	660.187
281.599	17.009	853.859	659.782
282.614	17.318	853.240	660.442
283.628	16.961	852.435	658.376
284.643	16.817	851.593	657.109
285.657	17.249	851.246	658.459
286.672	16.870	850.598	656.433
287.687	16.603	849.605	654.575
288.701	16.670	849.642	654.805
289.716	17.118	848.852	655.866
290.730	16.720	848.359	653.894
291.745	16.737	847.541	653.269
292.760	16.569	846.324	651.628
293.774	16.583	845.426	650.933
294.789	17.306	845.692	653.861
295.803	17.745	845.662	655.468
296.818	17.783	845.118	655.134
297.833	18.019	844.920	655.827
298.847	17.735	844.348	654.238
299.862	17.307	842.942	651.450
300.876	17.633	842.120	652.003
301.891	17.793	841.846	652.347
302.906	17.722	841.090	651.432
303.920	17.352	839.843	648.998
304.935	17.325	838.980	648.171
305.949	17.683	838.534	649.130
306.964	17.758	838.054	648.986
307.979	17.625	837.613	648.084
308.993	17.603	837.252	647.662
310.008	17.968	836.610	648.494
311.022	17.996	836.241	648.255
312.037	17.888	835.615	647.306
313.052	17.784	835.051	646.416
314.066	17.672	834.344	645.391
315.081	17.235	833.297	642.868
316.095	16.643	832.319	639.821
317.110	17.119	831.913	641.250
318.125	17.648	832.029	643.279
319.139	17.394	831.328	641.723
320.154	16.686	830.069	638.024
321.168	16.309	829.177	635.865
322.183	16.835	829.014	637.663
323.197	17.433	829.398	640.152
324.212	17.721	828.857	640.762
325.227	17.703	828.330	640.230
326.241	17.915	827.804	640.563
327.256	17.935	827.145	640.069
328.270	17.757	826.929	639.179
329.285	17.775	826.010	638.480
330.300	17.759	825.252	637.779
331.314	17.510	824.225	635.996
332.329	17.543	823.786	635.724
333.343	17.763	823.638	636.377
334.358	17.920	822.610	636.110
335.373	17.974	822.394	636.089
336.387	18.126	821.546	635.942
337.402	18.128	821.077	635.531
338.416	18.317	820.584	635.794
339.431	18.087	819.923	634.371
340.446	18.083	819.147	633.702
341.460	18.249	818.946	634.103
342.475	18.237	818.267	633.478
343.489	17.974	817.668	631.983
344.504	18.101	816.732	631.675
345.519	18.213	816.423	631.793
346.533	18.364	815.912	631.898
347.548	18.307	815.969	631.678
348.562	18.444	815.378	631.670
349.577	18.494	814.641	631.228
350.592	18.468	814.353	630.852
351.606	18.596	813.593	630.676
352.621	18.622	813.341	630.522
353.635	18.392	813.133	629.461
354.650	18.438	812.232	628.877
355.665	18.095	811.576	627.054
356.679	17.391	809.702	622.973
357.694	17.314	808.949	622.058
358.708	17.588	809.527	623.450
359.723	17.733	808.595	623.207
360.738	17.866	808.469	623.542
361.752	18.225	808.261	624.637
362.767	18.320	807.917	624.660
363.781	18.503	807.495	624.945
364.796	18.630	806.999	624.970
365.810	18.689	806.838	625.005
366.825	18.625	806.197	624.221
367.840	18.582	805.873	623.757
368.854	18.696	805.257	623.639
369.869	18.371	804.054	621.474
370.883	18.235	803.873	620.787
371.898	18.377	803.261	620.772
372.913	18.195	802.570	619.524
373.927	17.843	802.218	617.923
374.942	18.293	801.208	618.719
375.956	18.557	800.638	619.178
376.971	18.562	800.418	618.970
377.986	18.669	799.836	618.851
379.000	18.663	799.182	618.268
380.015	18.859	798.769	618.601
381.029	18.627	798.410	617.434
382.044	18.652	797.691	616.913
383.059	18.799	796.976	616.831
384.073	18.705	796.352	615.958
385.088	18.660	796.209	615.631
386.102	18.974	795.815	616.396
387.117	18.806	795.055	615.152
388.132	18.767	794.738	614.714
389.146	18.627	793.883	613.497
390.161	18.195	793.434	611.552
391.175	18.133	792.737	610.739
392.190	18.411	792.493	611.488
393.205	18.407	792.316	611.285
394.219	17.722	790.907	607.704
395.234	16.723	789.102	602.706
396.248	16.223	788.490	600.411
397.263	17.120	788.808	603.788
398.278	18.419	789.559	608.931
399.292	18.834	789.639	610.413
400.307	18.621	788.672	608.855
401.321	18.674	788.461	608.825
402.336	18.536	788.264	608.130
403.350	18.781	787.813	608.597
404.365	18.943	787.574	608.932
405.380	19.127	787.194	609.235
406.394	19.232	786.909	609.332
407.409	19.360	786.677	609.552
408.423	19.290	785.881	608.634
409.438	19.111	785.046	607.302
410.453	19.240	784.849	607.551
411.467	19.426	784.317	607.740
412.482	19.358	783.763	607.018
413.496	19.401	783.362	606.806
414.511	19.291	783.023	606.104
415.526	19.425	782.736	606.298
416.540	19.282	782.499	605.557
417.555	19.252	782.035	605.041
418.569	19.067	780.848	603.420
419.584	18.946	780.177	602.423
420.599	18.978	780.055	602.387
421.613	152.915	1357.004	1787.306
422.628	132.045	1441.108	1787.409
