DTS Sentinel unit serial number:	SN413079Multiplexer serial number:	ORYXHardware model number:	OX4-SRSoftware version number:	ORYX F/W v4.00 Oryx Data Collector v3.7.2.0data status	okinstallation	princeton_trtdifferential loss correction	single-endedforward channel	channel 3reverse channel	N/Adate	2019/09/12time	03:18:10forward acquisition time	60.00reverse acquisition time	0.00gamma	496.2192k internal	0.2322k external	0.2322temperature offset calibration	1.0064default loss term (dB/km)	0.3790temperature slope calibration	1.0000multiplexer offset coefficient	1.0000multiplexer slope coefficient	1.0000fibre end	0.00T internal ref (°C)	32.25T ext. ref 1 (°C)	2.12T ext. ref 2 (°C)	26.67length (m)	temperature (°C)	Stokes	anti-Stokes-747.200	26.385	-0.021	0.018
-746.185	165.378	0.205	0.292
-745.171	-200.000	-0.031	0.238
-744.156	-200.000	-0.006	0.272
-743.142	315.210	0.101	-0.192
-742.127	-123.411	0.172	-0.028
-741.112	-158.898	-0.095	-0.005
-740.098	-136.087	-0.353	0.042
-739.083	800.000	-0.037	0.120
-738.069	54.193	0.141	0.137
-737.054	-77.653	0.143	0.050
-736.039	-200.000	0.016	0.422
-735.025	-200.000	-0.057	0.251
-734.010	-62.588	-0.136	-0.057
-732.996	272.360	-0.053	0.095
-731.981	800.000	-0.089	0.265
-730.966	-49.992	-0.254	0.122
-729.952	25.376	-0.196	-0.165
-728.937	-140.988	0.180	-0.019
-727.923	-34.612	-0.528	-0.292
-726.908	-32.158	0.057	0.032
-725.894	84.485	-0.182	-0.201
-724.879	-33.057	0.169	-0.095
-723.864	-154.683	-0.119	0.008
-722.850	193.750	-0.134	-0.204
-721.835	-49.346	-0.164	-0.079
-720.821	-32.869	0.356	-0.199
-719.806	31.337	-0.071	0.061
-718.791	-190.514	0.276	0.003
-717.777	4.464	0.220	0.163
-716.762	-200.000	0.010	0.131
-715.748	264.310	0.177	-0.310
-714.733	-1.192	0.242	-0.173
-713.718	110.451	-0.262	0.318
-712.704	128.541	0.104	-0.134
-711.689	-200.000	0.001	-0.112
-710.675	-112.597	-0.441	-0.089
-709.660	-71.135	0.122	0.046
-708.645	-170.535	0.136	0.005
-707.631	-200.000	-0.007	-0.089
-706.616	-112.331	-0.383	0.077
-705.602	267.553	0.112	-0.198
-704.587	50.707	-0.045	-0.043
-703.572	-54.754	0.101	-0.046
-702.558	-106.982	0.133	0.030
-701.543	85.428	-0.187	-0.207
-700.529	800.000	0.136	-0.414
-699.514	-200.000	0.242	-0.000
-698.499	284.075	0.130	-0.237
-697.485	39.509	-0.095	0.086
-696.470	-73.272	0.084	0.031
-695.456	43.373	0.090	-0.083
-694.441	-189.387	0.398	-0.005
-693.426	4.929	-0.100	-0.074
-692.412	-68.370	0.163	0.064
-691.397	423.637	-0.066	-0.143
-690.383	-177.829	0.179	0.004
-689.368	327.815	0.080	0.154
-688.354	-68.336	-0.107	0.042
-687.339	-200.000	0.225	-0.001
-686.324	-86.007	-0.196	0.061
-685.310	-154.393	-0.245	-0.017
-684.295	-90.860	0.108	0.031
-683.281	339.014	-0.300	-0.589
-682.266	-200.000	-0.010	-0.164
-681.251	66.114	-0.062	0.063
-680.237	-28.341	-0.216	0.126
-679.222	-11.468	-0.247	-0.164
-678.208	-47.821	-0.275	-0.134
-677.193	302.553	-0.070	0.131
-676.178	-28.850	0.199	-0.115
-675.164	-10.576	-0.144	-0.096
-674.149	329.719	-0.125	-0.242
-673.135	-200.000	-0.016	0.160
-672.120	-179.428	0.380	-0.008
-671.105	367.741	0.063	-0.128
-670.091	156.081	-0.039	0.054
-669.076	-200.000	0.054	0.327
-668.062	-59.375	-0.415	-0.180
-667.047	-200.000	0.012	0.308
-666.032	-200.000	0.010	-0.079
-665.018	-29.848	0.113	0.065
-664.003	-41.685	0.222	-0.115
-662.989	-148.144	0.224	-0.019
-661.974	60.600	-0.254	0.253
-660.959	102.977	0.201	-0.237
-659.945	-1.227	-0.084	-0.059
-658.930	800.000	0.076	-0.211
-657.916	-200.000	0.014	-0.211
-656.901	24.890	-0.154	0.128
-655.886	380.839	0.074	0.152
-654.872	389.610	0.108	-0.225
-653.857	67.367	0.119	-0.122
-652.843	800.000	0.027	0.082
-651.828	54.253	0.280	0.271
-650.814	-200.000	-0.002	0.243
-649.799	47.877	0.132	-0.124
-648.784	-200.000	-0.048	-0.237
-647.770	-86.676	0.257	0.079
-646.755	800.000	0.013	-0.056
-645.741	-199.828	-0.021	-0.000
-644.726	-68.046	-0.150	-0.059
-643.711	-38.301	0.087	-0.046
-642.697	-70.249	-0.110	0.042
-641.682	26.352	-0.177	-0.149
-640.668	-5.098	0.201	-0.139
-639.653	98.676	-0.198	-0.230
-638.638	-158.790	0.451	0.026
-637.624	-22.023	-0.202	0.123
-636.609	-102.082	-0.279	-0.068
-635.595	-200.000	-0.044	0.234
-634.580	183.494	0.062	0.092
-633.565	-26.495	0.068	0.040
-632.551	-28.681	-0.533	-0.308
-631.536	-130.992	-0.496	0.067
-630.522	-13.611	0.081	-0.053
-629.507	206.870	0.186	0.291
-628.492	-69.815	0.113	-0.043
-627.478	800.000	0.040	-0.121
-626.463	490.401	-0.097	-0.223
-625.449	-26.021	-0.079	0.047
-624.434	-66.224	-0.117	0.047
-623.419	544.002	-0.082	0.198
-622.405	-76.976	-0.243	-0.085
-621.390	800.000	-0.065	0.201
-620.376	-200.000	-0.014	-0.077
-619.361	-72.828	-0.159	-0.059
-618.346	18.241	0.229	0.183
-617.332	-200.000	0.023	0.198
-616.317	-114.512	-0.077	-0.015
-615.303	-64.717	-0.093	0.038
-614.288	494.108	-0.125	-0.288
-613.273	192.007	-0.203	-0.308
-612.259	-200.000	-0.018	-0.292
-611.244	361.209	-0.158	-0.319
-610.230	-89.887	-0.277	-0.081
-609.215	-63.428	0.078	0.032
-608.201	0.250	-0.319	0.229
-607.186	100.493	-0.253	-0.295
-606.171	-54.862	-0.238	-0.108
-605.157	-113.233	0.122	-0.024
-604.142	-143.476	-0.303	0.029
-603.128	-131.809	-0.266	-0.035
-602.113	-130.524	-0.405	-0.055
-601.098	-117.023	0.040	0.007
-600.084	-51.869	0.238	-0.111
-599.069	-125.109	-0.416	-0.064
-598.055	536.067	0.065	0.155
-597.040	190.403	-0.057	0.085
-596.025	217.849	0.119	0.190
-595.011	475.664	-0.049	-0.112
-593.996	-112.308	0.175	0.035
-592.982	-23.913	-0.052	0.031
-591.967	-72.192	0.104	0.039
-590.952	-120.864	0.230	-0.039
-589.938	-58.899	-0.175	-0.076
-588.923	-8.915	-0.183	-0.123
-587.909	-109.621	0.434	0.092
-586.894	-75.939	-0.161	-0.057
-585.879	-89.356	0.128	0.038
-584.865	-43.385	0.548	-0.278
-583.850	-200.000	0.038	-0.193
-582.836	16.344	-0.185	-0.146
-581.821	-121.324	-0.210	-0.035
-580.806	346.021	-0.179	-0.353
-579.792	6.715	-0.038	-0.028
-578.777	42.151	0.217	0.198
-577.763	-6.861	0.252	0.172
-576.748	-200.000	-0.023	0.232
-575.733	-200.000	0.012	-0.281
-574.719	279.648	0.055	0.099
-573.704	139.577	-0.173	-0.229
-572.690	534.291	-0.070	0.168
-571.675	-137.563	0.105	0.012
-570.661	-68.620	-0.544	0.211
-569.646	-138.480	0.313	0.035
-568.631	-143.396	-0.145	-0.014
-567.617	31.375	0.055	0.048
-566.602	225.139	-0.050	0.081
-565.588	315.836	0.046	0.087
-564.573	46.626	0.453	0.422
-563.558	-91.951	0.188	-0.053
-562.544	190.989	0.107	-0.162
-561.529	78.715	0.156	-0.167
-560.515	228.832	-0.161	-0.263
-559.500	-30.702	-0.177	-0.101
-558.485	-57.029	0.196	0.087
-557.471	52.431	0.241	-0.231
-556.456	49.211	-0.131	-0.123
-555.442	-29.961	0.357	-0.204
-554.427	169.203	0.074	-0.106
-553.412	-200.000	0.003	0.327
-552.398	53.141	0.336	-0.323
-551.383	52.336	0.190	-0.182
-550.369	-200.000	-0.016	-0.350
-549.354	-77.697	-0.115	-0.040
-548.339	667.291	-0.057	0.147
-547.325	-65.141	0.128	0.052
-546.310	30.224	0.218	-0.187
-545.296	-5.513	-0.170	0.117
-544.281	-65.462	-0.160	0.064
-543.266	-200.000	-0.017	-0.302
-542.252	-179.109	-0.207	0.005
-541.237	113.505	-0.052	-0.063
-540.223	-9.610	-0.240	0.160
-539.208	8.174	0.100	0.076
-538.193	-200.000	-0.039	0.346
-537.179	-43.163	-0.403	0.205
-536.164	-39.621	-0.197	-0.103
-535.150	478.277	-0.134	-0.305
-534.135	-58.592	-0.162	-0.070
-533.121	800.000	-0.116	-0.367
-532.106	-200.000	-0.014	0.078
-531.091	-126.100	0.170	-0.026
-530.077	227.214	0.185	0.301
-529.062	787.140	-0.075	0.207
-528.048	800.000	-0.039	-0.111
-527.033	-200.000	-0.008	-0.040
-526.018	-34.144	-0.167	0.092
-525.004	142.093	0.096	-0.128
-523.989	88.523	-0.106	0.118
-522.975	-132.796	-0.250	0.032
-521.960	-70.457	0.052	-0.020
-520.945	-164.978	0.262	0.012
-519.931	-69.581	-0.121	-0.047
-518.916	436.563	0.088	0.191
-517.902	-200.000	-0.033	-0.245
-516.887	-151.858	-0.137	0.010
-515.872	-48.742	-0.168	0.081
-514.858	8.576	-0.154	-0.116
-513.843	-158.067	0.308	0.018
-512.829	800.000	-0.036	0.134
-511.814	-55.996	0.337	0.150
-510.799	800.000	-0.035	-0.126
-509.785	392.979	0.113	-0.236
-508.770	25.178	0.221	-0.184
-507.756	35.501	-0.156	0.138
-506.741	198.861	0.204	0.312
-505.726	-61.741	0.207	-0.087
-504.712	39.274	-0.290	-0.260
-503.697	91.128	-0.062	-0.070
-502.683	173.020	-0.026	0.038
-501.668	165.513	0.214	0.303
-500.653	-119.910	-0.183	-0.031
-499.639	-200.000	-0.038	0.229
-498.624	-59.362	0.103	0.044
-497.610	800.000	-0.059	0.168
-496.595	-147.288	-0.117	0.010
-495.581	-200.000	-0.014	-0.118
-494.566	367.485	-0.175	-0.353
-493.551	42.469	-0.245	-0.223
-492.537	-31.767	0.294	0.165
-491.522	800.000	-0.079	-0.262
-490.508	286.177	0.174	-0.315
-489.493	-200.000	-0.017	-0.207
-488.478	645.021	-0.041	-0.104
-487.464	-200.000	-0.011	-0.210
-486.449	-200.000	-0.037	-0.188
-485.435	657.070	-0.053	-0.136
-484.420	-200.000	0.004	0.120
-483.405	-200.000	0.020	0.191
-482.391	-88.819	0.082	-0.024
-481.376	319.432	-0.049	0.093
-480.362	-200.000	0.009	0.123
-479.347	-163.696	0.404	0.019
-478.332	695.293	-0.133	0.350
-477.318	539.194	-0.039	0.092
-476.303	10.386	0.176	0.134
-475.289	227.966	-0.108	-0.176
-474.274	-107.061	-0.168	-0.037
-473.259	242.396	0.065	-0.108
-472.245	21.581	-0.192	-0.156
-471.230	56.681	-0.085	-0.083
-470.216	-96.936	0.106	-0.028
-469.201	-200.000	-0.011	0.099
-468.186	567.553	-0.018	0.045
-467.172	800.000	0.134	0.384
-466.157	-200.000	0.009	0.142
-465.143	-69.312	-0.069	-0.027
-464.128	-63.610	-0.179	0.074
-463.113	-3.094	-0.210	-0.147
-462.099	202.660	0.111	-0.171
-461.084	-82.855	0.301	-0.097
-460.070	800.000	-0.092	0.260
-459.055	224.718	-0.207	-0.335
-458.040	-13.358	-0.053	-0.034
-457.026	-149.639	-0.493	-0.039
-456.011	-200.000	0.025	-0.133
-454.997	-79.948	0.248	0.083
-453.982	200.717	0.112	0.171
-452.968	29.907	-0.281	0.239
-451.953	800.000	0.051	0.202
-450.938	-200.000	0.011	-0.162
-449.924	9.627	-0.281	-0.213
-448.909	345.186	0.039	0.077
-447.895	104.081	0.142	-0.167
-446.880	-36.547	0.175	0.094
-445.865	800.000	-0.027	0.095
-444.851	-200.000	-0.192	0.000
-443.836	800.000	-0.038	-0.124
-442.822	-108.342	-0.300	-0.065
-441.807	537.837	0.176	0.417
-440.792	94.332	-0.120	-0.136
-439.778	182.582	0.091	0.134
-438.763	315.936	0.147	0.278
-437.749	448.476	0.044	-0.096
-436.734	-49.703	-0.295	-0.140
-435.719	-109.563	0.353	0.074
-434.705	516.442	-0.100	0.234
-433.690	-136.917	0.167	-0.019
-432.676	-200.000	0.038	-0.175
-431.661	668.302	-0.110	-0.284
-430.646	26.028	0.146	0.121
-429.632	-200.000	0.022	-0.167
-428.617	-200.000	-0.018	0.098
-427.603	-3.278	-0.037	-0.026
-426.588	-11.177	-0.092	0.061
-425.573	800.000	-0.027	0.099
-424.559	373.842	0.142	-0.289
-423.544	383.683	0.093	-0.192
-422.530	-147.538	0.334	-0.028
-421.515	236.996	-0.138	0.229
-420.500	-200.000	0.044	0.236
-419.486	-200.000	-0.029	0.289
-418.471	-66.815	0.110	0.043
-417.457	325.992	-0.162	0.308
-416.442	-81.692	-0.287	-0.094
-415.428	391.820	-0.087	0.179
-414.413	-140.541	-0.419	-0.043
-413.398	800.000	0.109	0.355
-412.384	-62.850	-0.132	0.055
-411.369	-200.000	-0.028	-0.212
-410.355	228.180	0.150	0.244
-409.340	25.811	-0.199	0.165
-408.325	-200.000	0.043	-0.447
-407.311	763.402	-0.104	0.281
-406.296	4.291	0.118	0.086
-405.282	800.000	0.060	-0.199
-404.267	-33.218	-0.118	-0.065
-403.252	-5.191	-0.107	0.074
-402.238	750.781	-0.046	-0.125
-401.223	311.960	-0.118	0.220
-400.209	-86.322	0.224	-0.069
-399.194	153.427	-0.066	0.091
-398.179	-200.000	0.001	-0.053
-397.165	-142.214	-0.138	-0.014
-396.150	-16.890	-0.373	0.235
-395.136	356.665	-0.062	-0.123
-394.121	-113.687	-0.110	-0.021
-393.106	-101.062	0.050	0.012
-392.092	-82.454	0.071	0.023
-391.077	-200.000	-0.012	-0.266
-390.063	-102.729	0.436	-0.104
-389.048	-6.764	0.311	0.211
-388.033	-160.539	0.399	0.021
-387.019	800.000	0.106	-0.328
-386.004	-200.000	0.025	-0.151
-384.990	127.004	0.110	0.139
-383.975	-43.200	0.078	-0.039
-382.960	313.363	0.127	0.239
-381.946	-63.271	-0.077	0.032
-380.931	-200.000	0.026	0.205
-379.917	364.887	-0.065	-0.130
-378.902	774.522	-0.036	0.099
-377.888	733.929	0.035	0.092
-376.873	-59.486	0.219	0.094
-375.858	-32.458	-0.294	0.163
-374.844	800.000	-0.039	-0.114
-373.829	155.330	0.098	0.135
-372.815	-9.858	-0.145	-0.096
-371.800	-141.616	-0.312	0.031
-370.785	-200.000	-0.028	0.284
-369.771	-82.617	-0.306	0.099
-368.756	-81.819	-0.119	-0.039
-367.742	-200.000	-0.003	0.103
-366.727	319.216	-0.128	-0.241
-365.712	36.445	-0.141	-0.123
-364.698	-98.181	-0.303	-0.077
-363.683	-153.911	0.189	-0.013
-362.669	165.840	0.174	-0.246
-361.654	40.115	0.106	0.095
-360.639	-179.005	0.430	-0.010
-359.625	-25.189	-0.189	0.112
-358.610	101.045	0.199	0.230
-357.596	49.521	0.217	0.203
-356.581	-65.332	0.115	0.046
-355.566	800.000	0.033	0.129
-354.552	170.530	0.091	0.129
-353.537	472.992	-0.111	0.248
-352.523	-192.120	0.171	-0.002
-351.508	14.738	-0.201	0.156
-350.493	-38.139	-0.151	-0.080
-349.479	291.915	-0.077	-0.139
-348.464	-76.949	0.106	-0.037
-347.450	-125.492	-0.167	-0.025
-346.435	-84.957	-0.094	0.029
-345.420	-163.891	0.047	-0.002
-344.406	754.653	0.018	-0.050
-343.391	-108.260	-0.005	-0.001
-342.377	800.000	-0.091	-0.299
-341.362	800.000	-0.092	-0.280
-340.348	134.221	0.079	-0.102
-339.333	146.843	0.220	-0.295
-338.318	-152.752	0.086	-0.006
-337.304	-98.373	-0.326	0.083
-336.289	407.845	-0.071	-0.150
-335.275	172.825	-0.167	-0.239
-334.260	-116.705	-0.045	0.008
-333.245	272.925	-0.138	0.242
-332.231	305.623	-0.113	0.209
-331.216	-76.772	0.262	0.091
-330.202	-57.772	0.172	0.075
-329.187	301.450	-0.118	0.217
-328.172	-100.785	0.032	-0.008
-327.158	-146.199	0.462	0.040
-326.143	38.811	0.053	-0.047
-325.129	318.726	-0.180	0.340
-324.114	800.000	0.063	-0.188
-323.099	350.587	0.145	-0.285
-322.085	-63.665	0.267	-0.109
-321.070	226.660	0.240	-0.387
-320.056	-31.958	-0.216	-0.120
-319.041	-146.349	-0.260	0.023
-318.026	-48.325	0.196	0.094
-317.012	800.000	-0.066	-0.230
-315.997	-200.000	0.009	-0.056
-314.983	-200.000	-0.051	-0.259
-313.968	-17.673	-0.459	0.286
-312.953	120.756	-0.053	-0.065
-311.939	-85.680	-0.337	0.104
-310.924	174.223	-0.099	0.142
-309.910	1.197	0.090	-0.064
-308.895	-200.000	0.057	0.291
-307.880	800.000	0.071	-0.204
-306.866	-96.420	0.196	0.051
-305.851	187.859	-0.138	0.205
-304.837	-59.548	-0.259	-0.111
-303.822	42.464	0.367	0.332
-302.807	705.440	0.144	0.377
-301.793	800.000	0.084	0.318
-300.778	243.896	0.161	0.268
-299.764	-200.000	-0.018	0.164
-298.749	112.941	0.163	-0.196
-297.735	279.759	0.107	-0.190
-296.720	-200.000	0.002	0.080
-295.705	-200.000	0.018	0.121
-294.691	-10.073	0.178	-0.118
-293.676	-1.216	0.156	0.110
-292.662	29.205	0.145	0.122
-291.647	-65.394	0.136	-0.054
-290.632	800.000	0.093	-0.295
-289.618	-157.206	0.389	0.023
-288.603	169.173	-0.011	0.015
-287.589	354.175	0.079	0.156
-286.574	214.073	-0.156	-0.244
-285.559	104.006	0.247	-0.288
-284.545	361.064	0.049	-0.097
-283.530	48.426	0.177	0.165
-282.516	800.000	-0.080	-0.250
-281.501	-65.064	-0.142	-0.057
-280.486	35.305	-0.147	-0.128
-279.472	-101.164	0.086	0.021
-278.457	108.060	-0.123	-0.145
-277.443	706.964	0.049	0.130
-276.428	50.055	0.145	0.136
-275.413	-200.000	-0.005	0.022
-274.399	43.470	0.148	-0.134
-273.384	87.847	0.172	0.189
-272.370	-200.000	0.047	-0.452
-271.355	-28.832	0.136	-0.077
-270.340	-136.619	-0.129	-0.015
-269.326	784.139	-0.069	-0.189
-268.311	312.323	0.045	0.084
-267.297	-200.000	0.080	0.354
-266.282	-128.035	0.253	-0.036
-265.267	-28.013	0.029	0.017
-264.253	-116.153	0.111	0.021
-263.238	-71.009	0.287	-0.107
-262.224	49.813	0.287	0.268
-261.209	-74.636	0.176	0.063
-260.195	800.000	-0.037	0.123
-259.180	123.269	-0.049	0.061
-258.165	-121.781	-0.223	0.037
-257.151	31.216	-0.268	-0.228
-256.136	-76.761	0.098	-0.034
-255.122	260.064	-0.222	-0.381
-254.107	-140.474	0.289	-0.030
-253.092	-176.481	0.243	0.006
-252.078	-143.444	0.259	0.025
-251.063	-3.068	0.395	0.273
-250.049	-45.901	-0.121	-0.059
-249.034	-200.000	-0.047	0.340
-248.019	-50.405	0.089	-0.041
-247.005	44.173	-0.204	-0.186
-245.990	-23.669	0.233	-0.138
-244.976	-31.420	-0.434	0.242
-243.961	-146.843	-0.242	0.021
-242.946	154.385	0.259	0.353
-241.932	50.429	0.095	0.089
-240.917	-200.000	-0.028	-0.247
-239.903	346.666	0.141	0.274
-238.888	-111.459	-0.083	-0.017
-237.873	-200.000	0.015	0.325
-236.859	265.919	0.035	0.061
-235.844	-73.412	0.428	0.155
-234.830	-200.000	-0.036	0.414
-233.815	800.000	0.047	-0.135
-232.800	-164.761	-0.256	0.011
-231.786	-59.947	0.097	0.041
-230.771	-9.461	-0.245	-0.162
-229.757	-200.000	-0.034	0.239
-228.742	88.393	-0.111	-0.122
-227.727	-44.367	-0.068	-0.034
-226.713	394.521	0.140	0.290
-225.698	-127.346	0.240	0.035
-224.684	81.924	0.234	0.251
-223.669	-43.392	0.130	-0.065
-222.655	-200.000	0.012	-0.241
-221.640	20.008	0.371	0.296
-220.625	83.725	-0.126	-0.136
-219.611	231.345	-0.051	0.083
-218.596	34.930	-0.128	0.111
-217.582	-14.782	0.262	-0.166
-216.567	95.731	0.133	-0.151
-215.552	-108.744	0.130	0.028
-214.538	286.830	0.057	-0.102
-213.523	27.292	0.259	-0.215
-212.509	-200.000	0.024	0.124
-211.494	-56.320	-0.324	0.143
-210.479	-200.000	-0.008	-0.056
-209.465	-200.000	-0.003	-0.033
-208.450	386.407	-0.035	-0.072
-207.436	-151.352	0.526	-0.039
-206.421	-11.908	0.171	0.111
-205.406	-50.604	0.126	-0.059
-204.392	78.751	-0.145	-0.153
-203.377	-131.563	0.116	-0.015
-202.363	-116.499	0.319	0.058
-201.348	-200.000	-0.026	0.268
-200.333	-20.848	-0.078	0.047
-199.319	68.217	-0.063	-0.064
-198.304	358.942	0.284	-0.562
-197.290	800.000	0.093	-0.403
-196.275	-41.003	-0.313	-0.160
-195.260	800.000	-0.030	-0.120
-194.246	800.000	0.070	0.245
-193.231	-72.440	0.028	0.010
-192.217	370.995	-0.032	0.064
-191.202	10.802	-0.073	-0.055
-190.187	-62.870	-0.189	0.077
-189.173	800.000	-0.065	0.203
-188.158	-82.469	-0.390	0.125
-187.144	569.583	0.063	-0.151
-186.129	800.000	0.103	-0.392
-185.114	-125.416	0.241	-0.036
-184.100	-8.176	-0.406	0.270
-183.085	-200.000	-0.271	0.000
-182.071	-36.354	0.062	0.033
-181.056	-129.982	-0.183	-0.025
-180.042	800.000	0.092	-0.281
-179.027	-48.287	0.102	0.049
-178.012	-200.000	-0.022	0.187
-176.998	194.079	-0.175	0.263
-175.983	-11.357	0.126	0.082
-174.969	-200.000	0.005	0.028
-173.954	66.571	0.075	0.075
-172.939	527.379	-0.064	-0.148
-171.925	270.345	-0.070	0.121
-170.910	66.794	0.200	0.201
-169.896	-52.209	-0.482	0.221
-168.881	800.000	0.009	0.027
-167.866	-125.525	-0.112	0.017
-166.852	-200.000	0.014	0.415
-165.837	-200.000	-0.011	0.335
-164.823	-200.000	0.006	0.138
-163.808	-5.795	-0.404	-0.273
-162.793	268.070	-0.118	-0.204
-161.779	559.757	-0.062	-0.149
-160.764	374.691	-0.016	-0.033
-159.750	-18.767	0.170	0.105
-158.735	800.000	0.084	0.327
-157.720	-200.000	-0.078	0.399
-156.706	-107.021	0.346	0.076
-155.691	-200.000	-0.073	-0.322
-154.677	800.000	0.018	-0.063
-153.662	800.000	0.059	-0.224
-152.647	402.828	-0.119	-0.248
-151.633	35.349	-0.169	-0.146
-150.618	-95.218	0.126	0.034
-149.604	94.887	0.208	0.233
-148.589	-200.000	0.093	0.426
-147.574	125.304	-0.188	0.234
-146.560	-155.308	-0.357	0.023
-145.545	97.622	0.142	0.161
-144.531	-200.000	0.068	0.316
-143.516	-36.359	0.048	-0.025
-142.502	-168.190	0.282	-0.011
-141.487	-68.623	0.184	-0.070
-140.472	-92.551	0.285	-0.079
-139.458	492.906	-0.133	-0.301
-138.443	92.377	-0.110	-0.123
-137.429	-200.000	0.037	-0.191
-136.414	-59.516	0.088	-0.037
-135.399	201.916	0.103	0.157
-134.385	-200.000	0.002	-0.231
-133.370	78.248	-0.155	0.164
-132.356	689.411	0.044	0.112
-131.341	-3.004	0.381	0.262
-130.326	476.925	0.145	-0.323
-129.312	121.022	0.344	0.422
-128.297	-22.475	0.222	0.133
-127.283	-200.000	-0.029	-0.271
-126.268	-83.958	-0.228	0.071
-125.253	50.899	-0.277	-0.259
-124.239	-200.000	-0.086	-0.516
-123.224	44.783	-0.180	-0.163
-122.210	-48.853	-0.335	0.158
-121.195	122.327	-0.232	0.286
-120.180	-200.000	-0.055	-0.357
-119.166	-27.171	0.206	-0.118
-118.151	121.430	-0.130	-0.160
-117.137	97.907	0.172	0.195
-116.122	-200.000	0.042	0.439
-115.107	-66.462	0.318	-0.125
-114.093	-156.937	0.106	0.006
-113.078	-15.754	-0.324	0.204
-112.064	-12.191	-0.160	-0.103
-111.049	-200.000	0.081	0.447
-110.034	-200.000	-0.070	-0.375
-109.020	-53.340	0.213	0.096
-108.005	-73.982	0.310	-0.111
-106.991	-200.000	-0.023	-0.187
-105.976	-200.000	0.001	0.028
-104.962	-22.661	0.384	0.229
-103.947	-59.950	0.249	-0.105
-102.932	800.000	0.056	-0.164
-101.918	-55.826	0.242	-0.106
-100.903	55.970	0.338	0.323
-99.889	563.097	0.048	0.116
-98.874	85.115	0.159	0.172
-97.859	200.286	0.107	0.162
-96.845	-78.970	0.035	0.012
-95.830	88.376	-0.011	0.012
-94.816	224.467	0.135	-0.214
-93.801	800.000	0.071	-0.210
-92.786	-144.399	-0.392	-0.036
-91.772	-85.680	-0.218	-0.067
-90.757	707.711	-0.132	0.344
-89.743	-104.609	-0.317	-0.072
-88.728	-200.000	0.033	-0.353
-87.713	296.524	-0.121	0.219
-86.699	-41.199	0.031	0.016
-85.684	-134.506	0.030	0.004
-84.670	-14.463	-0.163	0.103
-83.655	800.000	0.025	0.097
-82.640	-78.165	0.316	0.107
-81.626	-26.743	0.209	-0.120
-80.611	121.208	0.152	0.186
-79.597	111.429	0.055	0.065
-78.582	-200.000	-0.003	0.160
-77.567	478.998	0.064	0.142
-76.553	8.754	0.203	0.151
-75.538	-38.223	0.215	0.112
-74.524	-58.664	0.251	0.107
-73.509	451.059	-0.099	0.215
-72.494	-52.670	0.336	-0.153
-71.480	-166.467	-0.116	0.005
-70.465	-23.728	0.265	0.156
-69.451	228.272	0.135	0.217
-68.436	-98.966	0.083	0.021
-67.422	-12.297	-0.217	0.140
-66.407	-42.035	-0.339	-0.171
-65.392	-200.000	0.042	-0.282
-64.378	244.216	0.131	0.217
-63.363	97.393	0.069	0.078
-62.349	58.323	-0.317	0.305
-61.334	9.843	-0.752	-0.561
-60.319	60.993	0.477	0.466
-59.305	-200.000	-0.178	-1.165
-58.290	112.397	0.649	0.773
-57.276	800.000	0.530	1.490
-56.261	-200.000	95.461	592.021
-55.246	573.269	1362.004	3265.610
-54.232	163.125	2537.416	3505.914
-53.217	112.435	2156.253	2565.398
-52.203	42.878	1702.921	1526.226
-51.188	35.468	1516.609	1308.904
-50.173	33.037	1490.487	1269.988
-49.159	51.573	1538.950	1438.324
-48.144	53.630	1556.241	1468.483
-47.130	35.702	1516.400	1310.108
-46.115	32.572	1501.988	1276.439
-45.100	32.375	1498.138	1271.782
-44.086	32.309	1496.753	1270.109
-43.071	32.317	1494.466	1268.173
-42.057	32.176	1493.282	1266.168
-41.042	32.289	1491.721	1265.557
-40.027	32.311	1490.409	1264.542
-39.013	32.196	1488.712	1262.277
-37.998	32.194	1487.748	1261.396
-36.984	32.232	1486.458	1260.510
-35.969	32.246	1484.808	1259.152
-34.954	32.309	1483.642	1258.538
-33.940	32.323	1482.364	1257.493
-32.925	32.260	1480.715	1255.624
-31.911	32.334	1479.187	1254.771
-30.896	32.307	1478.027	1253.560
-29.881	32.333	1477.116	1252.909
-28.867	32.295	1475.646	1251.358
-27.852	32.286	1474.318	1250.124
-26.838	32.352	1472.355	1248.847
-25.823	32.375	1470.982	1247.785
-24.809	32.385	1469.376	1246.442
-23.794	32.333	1467.837	1244.745
-22.779	32.281	1466.969	1243.610
-21.765	32.377	1465.340	1242.815
-20.750	32.306	1464.635	1241.700
-19.736	32.198	1463.815	1240.246
-18.721	32.240	1462.266	1239.161
-17.706	32.278	1461.370	1238.603
-16.692	32.183	1460.464	1237.160
-15.677	32.224	1459.048	1236.178
-14.663	32.223	1458.116	1235.337
-13.648	32.239	1457.051	1234.490
-12.633	32.188	1456.308	1233.472
-11.619	32.155	1455.490	1232.514
-10.604	32.159	1454.768	1231.884
-9.590	32.139	1454.147	1231.178
-8.575	32.228	1452.512	1230.329
-7.560	32.194	1451.895	1229.532
-6.546	32.204	1451.023	1228.812
-5.531	32.167	1450.165	1227.791
-4.517	32.197	1449.281	1227.193
-3.502	32.250	1447.947	1226.357
-2.487	32.234	1446.804	1225.241
-1.473	32.238	1445.784	1224.350
-0.458	32.207	1444.826	1223.289
0.556	32.684	1434.864	1211.986
1.571	29.840	1410.917	1173.644
2.586	26.743	1357.026	1109.784
3.600	25.235	1279.628	1037.680
4.615	23.825	1230.778	990.131
5.629	20.458	1173.333	925.919
6.644	11.000	1086.985	810.786
7.659	3.319	1044.810	742.356
8.673	2.302	1039.556	733.677
9.688	2.171	1036.233	730.639
10.702	1.950	1034.249	728.125
11.717	2.078	1032.489	727.428
12.731	5.616	1036.887	747.373
13.746	15.432	1050.660	804.496
14.761	22.980	1060.859	848.624
15.775	25.102	1062.258	859.859
16.790	25.411	1062.464	861.431
17.804	25.233	1061.437	859.667
18.819	25.194	1060.350	858.524
19.834	25.068	1059.927	857.504
20.848	25.326	1059.389	858.228
21.863	25.390	1059.471	858.524
22.877	25.375	1059.010	858.003
23.892	25.254	1058.241	856.726
24.907	25.315	1057.151	856.058
25.921	25.338	1056.359	855.453
26.936	25.247	1055.782	854.476
27.950	25.262	1054.693	853.591
28.965	25.223	1053.722	852.544
29.980	24.985	1052.717	850.525
30.994	25.050	1051.372	849.669
32.009	25.232	1050.402	849.672
33.023	25.410	1049.537	849.740
34.038	25.264	1048.117	847.825
35.053	25.174	1047.677	846.970
36.067	25.306	1046.896	846.888
37.082	25.326	1045.869	846.077
38.096	25.303	1045.577	845.657
39.111	25.665	1044.367	846.305
40.126	25.563	1044.117	845.549
41.140	25.474	1042.750	843.949
42.155	25.232	1041.236	841.514
43.169	24.978	1040.144	839.367
44.184	24.935	1039.218	838.343
45.199	24.922	1038.248	837.427
46.213	24.970	1037.274	836.791
47.228	24.923	1036.594	835.946
48.242	25.101	1035.746	836.022
49.257	25.152	1035.169	835.718
50.271	25.389	1034.188	835.956
51.286	25.374	1033.571	835.313
52.301	25.494	1032.991	835.328
53.315	25.423	1032.291	834.358
54.330	25.362	1031.768	833.578
55.344	25.219	1030.837	832.091
56.359	25.376	1029.465	831.635
57.374	25.395	1028.588	830.941
58.388	25.032	1028.278	828.941
59.403	25.159	1027.412	828.757
60.417	25.035	1027.041	827.811
61.432	24.940	1025.664	826.190
62.447	24.920	1025.035	825.517
63.461	24.966	1024.813	825.476
64.476	25.103	1023.825	825.238
65.490	25.029	1022.656	823.883
66.505	25.138	1021.779	823.603
67.520	25.128	1020.781	822.679
68.534	25.112	1020.245	822.104
69.549	25.062	1019.165	820.932
70.563	24.584	1018.569	818.188
71.578	24.456	1017.788	816.904
72.593	24.692	1016.656	817.000
73.607	24.443	1015.451	814.826
74.622	24.499	1014.534	814.271
75.636	24.698	1014.271	814.896
76.651	24.882	1013.450	815.002
77.666	24.758	1012.685	813.750
78.680	24.667	1011.830	812.577
79.695	24.702	1011.276	812.220
80.709	24.807	1010.547	812.039
81.724	24.906	1009.737	811.764
82.739	24.837	1009.012	810.798
83.753	24.873	1008.282	810.301
84.768	25.089	1008.004	810.983
85.782	25.513	1007.128	812.124
86.797	25.594	1006.760	812.120
87.812	25.631	1005.370	811.096
88.826	25.433	1004.366	809.322
89.841	25.374	1003.912	808.618
90.855	25.533	1002.915	808.458
91.870	25.670	1002.011	808.276
92.884	25.626	1001.102	807.273
93.899	25.459	1000.232	805.749
94.914	25.363	998.974	804.236
95.928	25.487	998.686	804.487
96.943	25.394	998.146	803.565
97.957	25.243	996.707	801.663
98.972	25.026	995.372	799.547
99.987	24.736	994.694	797.640
101.001	24.988	993.798	797.976
102.016	25.050	994.099	798.422
103.030	25.215	992.802	798.043
104.045	25.257	991.652	797.236
105.060	25.101	990.286	795.375
106.074	24.968	989.109	793.767
107.089	24.857	988.663	792.849
108.103	25.170	988.632	794.139
109.118	25.405	987.512	794.207
110.133	25.077	986.289	791.705
111.147	25.131	984.988	790.833
112.162	24.901	984.438	789.305
113.176	24.738	983.072	787.423
114.191	24.889	982.824	787.819
115.206	25.045	981.472	787.353
116.220	24.743	980.168	784.911
117.235	24.515	979.604	783.388
118.249	24.647	979.137	783.525
119.264	24.532	978.528	782.466
120.279	24.663	977.339	782.017
121.293	24.567	976.906	781.184
122.308	24.556	976.663	780.871
123.322	24.665	975.756	780.553
124.337	24.670	974.322	779.360
125.352	24.432	973.094	777.270
126.366	24.227	971.286	774.868
127.381	23.951	969.783	772.399
128.395	24.450	970.049	774.711
129.410	24.995	969.819	776.820
130.424	25.161	968.947	776.774
131.439	25.198	968.018	776.123
132.454	25.116	966.964	774.854
133.468	25.037	966.728	774.255
134.483	25.082	965.526	773.417
135.497	25.143	964.560	772.838
136.512	25.324	964.475	773.479
137.527	25.469	963.271	773.072
138.541	25.350	962.727	772.056
139.556	25.375	961.862	771.399
140.570	25.462	961.148	771.131
141.585	25.449	960.348	770.367
142.600	25.549	959.630	770.152
143.614	25.413	958.731	768.778
144.629	25.484	958.012	768.437
145.643	25.797	957.074	768.955
146.658	25.652	955.811	767.254
147.673	25.543	954.658	765.796
148.687	25.236	954.260	764.103
149.702	25.278	952.774	763.021
150.716	25.286	951.840	762.240
151.731	25.211	950.876	761.085
152.746	25.230	950.362	760.686
153.760	25.448	949.804	761.096
154.775	25.546	949.400	761.118
155.789	25.603	948.456	760.534
156.804	25.709	946.907	759.672
157.819	25.523	946.453	758.455
158.833	25.537	945.750	757.884
159.848	25.692	944.979	757.851
160.862	25.814	944.489	757.907
161.877	25.478	943.365	755.525
162.892	25.382	942.567	754.417
163.906	25.662	941.371	754.565
164.921	25.587	940.634	753.596
165.935	25.475	939.486	752.141
166.950	25.632	938.654	752.062
167.964	25.650	937.652	751.271
168.979	25.583	936.863	750.293
169.994	25.448	936.078	749.034
171.008	25.441	934.802	747.916
172.023	25.572	934.544	748.189
173.037	25.752	933.479	748.019
174.052	25.594	932.443	746.467
175.067	25.342	931.489	744.594
176.081	25.400	930.390	743.887
177.096	25.332	930.437	743.580
178.110	25.470	928.985	742.924
179.125	25.197	928.213	741.113
180.140	24.989	926.783	739.046
181.154	24.961	926.397	738.557
182.169	24.954	926.201	738.306
183.183	25.223	926.040	739.223
184.198	25.740	924.969	740.428
185.213	25.413	924.557	738.690
186.227	25.481	923.727	738.241
187.242	25.476	923.775	738.192
188.256	25.535	922.689	737.502
189.271	25.687	921.930	737.451
190.286	25.705	921.486	737.105
191.300	25.648	920.178	735.762
192.315	24.990	919.366	732.358
193.329	24.272	917.428	727.820
194.344	23.844	916.234	725.064
195.359	24.370	916.870	727.646
196.373	25.373	917.116	731.867
197.388	25.569	916.829	732.373
198.402	25.460	916.257	731.409
199.417	25.360	915.725	730.513
200.432	25.389	915.806	730.630
201.446	25.369	914.442	729.394
202.461	25.063	913.752	727.536
203.475	25.106	913.341	727.320
204.490	24.680	911.772	724.280
205.504	23.656	909.628	718.371
206.519	23.994	909.547	719.614
207.534	24.875	910.106	723.556
208.548	25.292	909.107	724.381
209.563	25.609	908.810	725.356
210.577	25.451	908.449	724.368
211.592	25.171	907.453	722.382
212.607	25.479	907.617	723.690
213.621	25.777	907.034	724.359
214.636	25.615	906.517	723.230
215.650	25.632	905.999	722.820
216.665	25.593	904.995	721.801
217.680	25.646	904.528	721.577
218.694	25.777	904.116	721.708
219.709	25.520	902.886	719.633
220.723	25.120	902.090	717.335
221.738	25.241	901.821	717.542
222.753	25.575	901.005	718.165
223.767	25.403	900.651	717.133
224.782	25.468	899.992	716.802
225.796	25.576	899.521	716.793
226.811	25.730	898.782	716.756
227.826	25.290	897.834	714.186
228.840	24.498	896.404	709.838
229.855	24.443	895.905	709.162
230.869	24.711	895.531	709.865
231.884	24.442	894.487	707.911
232.899	24.480	893.841	707.485
233.913	25.176	894.225	710.486
234.928	25.498	893.718	711.296
235.942	25.224	893.258	709.783
236.957	25.350	892.281	709.441
237.972	25.101	891.374	707.675
238.986	25.000	890.823	706.776
240.001	25.123	890.120	706.641
241.015	25.108	889.355	705.913
242.030	25.306	888.455	705.913
243.045	25.310	888.781	706.125
244.059	25.452	888.038	706.029
245.074	25.647	887.506	706.310
246.088	25.591	886.815	705.479
247.103	25.226	885.956	703.303
248.117	25.233	885.681	703.050
249.132	25.798	885.260	704.867
250.147	26.198	885.234	706.348
251.161	26.292	884.427	706.007
252.176	26.503	884.198	706.585
253.190	26.362	883.353	705.299
254.205	26.518	882.621	705.260
255.220	26.635	882.600	705.637
256.234	26.514	882.134	704.731
257.249	26.456	881.451	703.897
258.263	26.256	880.695	702.454
259.278	26.333	879.954	702.098
260.293	26.290	879.949	701.868
261.307	26.457	879.036	701.723
262.322	26.311	878.446	700.624
263.336	26.256	877.974	699.973
264.351	25.702	876.522	696.610
265.366	24.808	874.158	691.217
266.380	24.338	873.580	688.884
267.395	25.151	873.777	692.116
268.409	25.991	874.072	695.531
269.424	25.933	873.459	694.757
270.439	26.114	873.019	695.043
271.453	26.188	872.507	694.858
272.468	26.073	872.216	694.126
273.482	26.303	871.661	694.506
274.497	26.422	871.326	694.633
275.512	26.306	869.875	692.971
276.526	25.775	868.289	689.614
277.541	25.950	867.810	689.842
278.555	26.136	868.133	690.750
279.570	25.983	867.474	689.577
280.585	25.990	866.436	688.721
281.599	25.944	865.968	688.110
282.614	26.050	865.630	688.185
283.628	25.618	864.480	685.564
284.643	25.235	863.729	683.451
285.657	25.681	864.043	685.338
286.672	25.648	862.875	684.223
287.687	25.081	861.933	681.261
288.701	25.408	862.144	682.612
289.716	25.914	861.795	684.197
290.730	25.546	860.822	681.968
291.745	25.431	859.794	680.656
292.760	25.217	858.884	679.067
293.774	25.172	858.733	678.718
294.789	26.030	859.305	682.357
295.803	26.769	859.287	685.076
296.818	26.789	858.734	684.650
297.833	26.916	858.002	684.486
298.847	26.389	857.305	681.881
299.862	26.135	856.163	679.954
300.876	26.435	855.542	680.531
301.891	26.637	855.604	681.279
302.906	26.601	854.812	680.454
303.920	26.335	853.851	678.631
304.935	26.157	852.924	677.164
305.949	26.592	852.812	678.648
306.964	26.900	852.258	679.301
307.979	26.435	851.677	677.036
308.993	26.508	851.239	676.902
310.008	26.720	851.296	677.679
311.022	26.969	850.463	677.888
312.037	26.733	849.678	676.320
313.052	26.380	849.448	674.762
314.066	26.235	848.566	673.460
315.081	25.582	847.032	669.752
316.095	24.829	846.151	666.196
317.110	25.448	846.083	668.387
318.125	26.459	846.279	672.240
319.139	25.819	845.068	668.843
320.154	24.641	843.620	663.270
321.168	24.307	842.806	661.330
322.183	24.897	843.188	663.762
323.197	25.892	843.377	667.539
324.212	26.252	842.952	668.474
325.227	26.306	842.575	668.319
326.241	26.590	841.918	668.787
327.256	26.403	841.433	667.650
328.270	26.319	840.643	666.654
329.285	26.195	840.346	665.902
330.300	26.055	839.337	664.531
331.314	25.919	838.718	663.480
332.329	25.929	838.383	663.195
333.343	26.323	838.096	664.356
334.358	26.669	837.377	664.997
335.373	26.531	836.921	664.069
336.387	26.720	836.162	664.100
337.402	26.886	836.054	664.567
338.416	27.003	836.083	664.958
339.431	27.003	835.050	664.079
340.446	26.976	834.922	663.820
341.460	27.249	834.458	664.388
342.475	27.184	833.614	663.420
343.489	26.998	833.022	662.213
344.504	27.073	832.427	661.953
345.519	27.218	831.919	662.022
346.533	27.400	831.928	662.632
347.548	27.448	831.586	662.476
348.562	27.472	831.086	662.104
349.577	27.399	830.573	661.371
350.592	27.429	829.430	660.513
351.606	27.276	829.448	659.912
352.621	27.233	829.417	659.673
353.635	27.154	828.582	658.664
354.650	27.129	828.088	658.123
355.665	26.790	826.679	655.721
356.679	25.788	825.374	651.007
357.694	25.818	824.602	650.448
358.708	26.448	824.346	652.462
359.723	26.375	823.973	651.847
360.738	26.495	824.065	652.293
361.752	27.167	823.707	654.373
362.767	27.194	823.076	653.911
363.781	27.494	823.275	655.092
364.796	27.594	823.466	655.545
365.810	27.607	822.792	654.995
366.825	27.755	822.493	655.232
367.840	27.784	822.438	655.235
368.854	27.600	821.217	653.542
369.869	27.098	820.513	651.128
370.883	26.953	819.890	650.057
371.898	27.331	819.085	650.714
372.913	27.090	818.368	649.224
373.927	27.068	818.141	648.909
374.942	27.288	817.385	649.037
375.956	27.344	816.523	648.492
376.971	27.333	816.340	648.250
377.986	27.464	816.071	648.447
379.000	27.807	815.210	648.926
380.015	27.728	814.731	648.207
381.029	27.548	814.514	647.335
382.044	27.510	813.878	646.640
383.059	27.600	813.089	646.273
384.073	27.737	812.722	646.411
385.088	27.777	812.083	645.986
386.102	27.798	811.800	645.779
387.117	27.366	811.360	643.844
388.132	27.454	810.260	643.224
389.146	27.303	809.406	641.958
390.161	26.849	808.555	639.625
391.175	26.801	808.511	639.362
392.190	27.293	808.381	640.938
393.205	27.266	807.971	640.463
394.219	26.255	806.185	635.435
395.234	24.734	803.549	627.966
396.248	24.021	802.464	624.559
397.263	25.031	803.910	629.180
398.278	26.828	805.273	636.502
399.292	27.219	805.292	637.835
400.307	27.086	804.325	636.546
401.321	26.995	803.694	635.672
402.336	26.923	803.741	635.400
403.350	27.360	803.552	636.724
404.365	27.818	803.339	638.102
405.380	28.029	803.406	638.835
406.394	28.330	802.976	639.485
407.409	28.576	802.552	639.951
408.423	28.499	802.095	639.262
409.438	28.316	801.302	637.936
410.453	28.393	800.830	637.770
411.467	28.569	800.593	638.140
412.482	28.461	800.080	637.298
413.496	28.514	799.276	636.784
414.511	28.517	799.037	636.547
415.526	28.538	798.778	636.360
416.540	28.417	798.576	635.721
417.555	28.401	797.656	634.879
418.569	28.061	797.316	633.374
419.584	28.089	796.598	632.845
420.599	28.001	796.601	632.486
421.613	111.250	1285.254	1457.934
422.628	95.885	1356.453	1458.053
