DTS Sentinel unit serial number:	SN413079Multiplexer serial number:	ORYXHardware model number:	OX4-SRSoftware version number:	ORYX F/W v4.00 Oryx Data Collector v3.7.2.0data status	okinstallation	princeton_trtdifferential loss correction	single-endedforward channel	channel 3reverse channel	N/Adate	2019/09/10time	23:06:11forward acquisition time	60.00reverse acquisition time	0.00gamma	496.2192k internal	0.2332k external	0.2332temperature offset calibration	0.9919default loss term (dB/km)	0.3790temperature slope calibration	1.0000multiplexer offset coefficient	1.0000multiplexer slope coefficient	1.0000fibre end	0.00T internal ref (°C)	29.98T ext. ref 1 (°C)	-0.30T ext. ref 2 (°C)	23.51length (m)	temperature (°C)	Stokes	anti-Stokes-747.200	34.400	0.147	0.129
-746.185	55.727	-0.149	0.145
-745.171	35.326	-0.251	-0.221
-744.156	-120.372	-0.265	-0.045
-743.142	-200.000	-0.087	0.423
-742.127	-92.470	-0.259	-0.073
-741.112	195.222	0.179	0.273
-740.098	48.447	0.244	0.230
-739.083	800.000	-0.012	0.052
-738.069	-50.994	-0.130	-0.061
-737.054	-8.301	0.234	0.158
-736.039	-57.255	-0.165	-0.073
-735.025	-28.113	0.203	0.118
-734.010	-200.000	0.014	-0.370
-732.996	-65.362	-0.315	-0.127
-731.981	-72.942	-0.226	0.084
-730.966	800.000	-0.081	-0.289
-729.952	281.715	0.141	-0.254
-728.937	-166.952	-0.228	-0.009
-727.923	27.394	-0.249	-0.210
-726.908	-200.000	-0.011	0.201
-725.894	-102.166	-0.231	-0.056
-724.879	800.000	-0.144	-0.487
-723.864	122.063	-0.112	0.140
-722.850	-200.000	-0.069	-0.317
-721.835	-182.309	-0.278	-0.005
-720.821	-114.942	0.185	-0.035
-719.806	-200.000	-0.041	-0.315
-718.791	-30.587	0.210	-0.120
-717.777	4.184	-0.199	0.147
-716.762	-52.821	0.190	0.088
-715.748	-41.425	0.237	0.123
-714.733	800.000	0.023	0.067
-713.718	-152.675	-0.126	-0.009
-712.704	-200.000	-0.047	-0.208
-711.689	-57.533	0.059	-0.026
-710.675	-88.541	0.176	-0.053
-709.660	-155.434	0.317	-0.021
-708.645	800.000	-0.019	0.066
-707.631	800.000	0.108	-0.410
-706.616	192.212	0.127	0.193
-705.602	-18.401	0.054	0.034
-704.587	324.815	-0.139	-0.266
-703.572	248.879	-0.113	0.192
-702.558	-85.200	-0.280	-0.088
-701.543	-184.081	0.275	-0.005
-700.529	-41.148	-0.091	-0.047
-699.514	-96.137	0.069	-0.018
-698.499	-186.196	0.217	-0.003
-697.485	-200.000	0.003	-0.014
-696.470	-200.000	0.002	0.350
-695.456	-58.148	0.312	0.137
-694.441	74.572	0.123	-0.130
-693.426	-27.019	0.061	0.036
-692.412	-119.074	0.285	0.050
-691.397	-200.000	0.024	-0.247
-690.383	272.289	-0.180	-0.318
-689.368	-139.090	-0.214	0.023
-688.354	-99.313	-0.059	-0.015
-687.339	166.034	-0.069	0.099
-686.324	-72.117	0.251	0.094
-685.310	152.108	0.192	0.263
-684.295	110.668	0.226	-0.272
-683.281	7.125	0.161	-0.120
-682.266	51.637	-0.077	-0.074
-681.251	-112.802	0.129	0.026
-680.237	-17.137	-0.448	-0.283
-679.222	63.738	0.108	-0.109
-678.208	800.000	-0.032	-0.114
-677.193	254.041	-0.021	-0.036
-676.178	37.612	0.119	-0.106
-675.164	372.610	-0.077	0.157
-674.149	-182.667	-0.160	0.003
-673.135	432.075	0.084	-0.184
-672.120	123.206	0.116	0.146
-671.105	213.855	-0.101	-0.160
-670.091	342.571	0.152	-0.299
-669.076	562.865	0.042	0.102
-668.062	241.044	-0.020	-0.034
-667.047	-200.000	-0.035	-0.262
-666.032	-48.477	0.201	0.097
-665.018	-200.000	-0.011	-0.423
-664.003	-46.907	-0.288	0.141
-662.989	206.029	0.030	-0.047
-661.974	-78.459	-0.410	-0.141
-660.959	-70.676	-0.283	0.107
-659.945	26.038	0.312	-0.261
-658.930	-44.594	-0.257	0.129
-657.916	-169.097	0.304	-0.011
-656.901	800.000	0.050	-0.142
-655.886	-200.000	-0.110	-0.509
-654.872	51.518	-0.229	-0.218
-653.857	-98.504	-0.265	0.068
-652.843	173.844	0.165	0.239
-651.828	43.124	0.283	-0.259
-650.814	121.260	-0.133	-0.166
-649.799	-71.865	0.092	0.034
-648.784	119.121	0.187	0.232
-647.770	247.875	-0.151	0.256
-646.755	-52.592	-0.156	0.072
-645.741	-152.826	-0.060	0.004
-644.726	254.037	-0.199	0.340
-643.711	-200.000	-0.008	0.168
-642.697	-116.377	-0.395	-0.073
-641.682	-77.748	-0.176	0.061
-640.668	74.853	0.075	0.079
-639.653	-200.000	-0.004	0.178
-638.638	144.335	0.107	0.143
-637.624	-192.621	0.230	-0.002
-636.609	-81.653	0.202	-0.066
-635.595	181.713	-0.112	0.165
-634.580	-10.572	0.208	-0.138
-633.565	-27.473	0.037	-0.021
-632.551	-200.000	-0.003	0.073
-631.536	298.712	-0.137	0.252
-630.522	-1.571	-0.211	-0.149
-629.507	92.778	-0.240	0.271
-628.492	-200.000	-0.096	0.450
-627.478	-7.928	0.100	-0.068
-626.463	139.920	0.091	-0.120
-625.449	-109.238	0.210	-0.045
-624.434	-200.000	-0.042	0.384
-623.419	-200.000	-0.053	0.299
-622.405	-200.000	0.003	-0.035
-621.390	37.259	0.210	0.187
-620.376	-18.675	-0.120	0.075
-619.361	-138.244	-0.190	-0.021
-618.346	137.543	0.216	0.283
-617.332	-200.000	0.054	-0.272
-616.317	66.021	0.255	-0.259
-615.303	-138.152	-0.364	-0.040
-614.288	-169.856	-0.152	0.005
-613.273	-70.117	-0.378	0.144
-612.259	-65.754	-0.094	-0.038
-611.244	800.000	0.035	0.124
-610.230	3.324	-0.439	0.320
-609.215	-200.000	0.039	0.181
-608.201	-66.808	-0.153	0.061
-607.186	317.201	-0.022	0.041
-606.171	800.000	-0.022	0.066
-605.157	-200.000	-0.041	0.243
-604.142	136.482	-0.112	0.146
-603.128	20.471	0.070	-0.057
-602.113	28.722	-0.258	0.219
-601.098	-42.373	0.150	0.077
-600.084	662.796	-0.050	0.128
-599.069	292.747	-0.092	-0.167
-598.055	-200.000	0.037	-0.305
-597.040	24.529	0.202	-0.167
-596.025	-120.332	0.218	0.037
-595.011	168.171	0.107	0.153
-593.996	5.302	-0.056	0.042
-592.982	-26.974	0.051	-0.030
-591.967	800.000	0.030	0.127
-590.952	177.945	0.108	-0.157
-589.938	-12.861	-0.102	0.067
-588.923	-5.770	0.165	-0.113
-587.909	-56.458	0.172	0.076
-586.894	25.855	0.136	-0.113
-585.879	-138.720	0.115	0.013
-584.865	-39.161	0.258	-0.136
-583.850	19.688	0.342	0.275
-582.836	-200.000	-0.063	-0.281
-581.821	-97.684	0.228	0.059
-580.806	-17.688	-0.158	0.099
-579.792	3.072	0.385	-0.280
-578.777	800.000	-0.073	-0.228
-577.763	-193.342	0.270	0.002
-576.748	-41.328	0.480	0.247
-575.733	40.435	-0.199	0.179
-574.719	-200.000	-0.039	-0.188
-573.704	-129.522	-0.077	0.011
-572.690	-66.952	0.215	0.085
-571.675	-21.510	0.026	0.016
-570.661	-38.588	0.319	0.169
-569.646	-85.373	-0.539	0.168
-568.631	80.959	-0.149	0.160
-567.617	-200.000	-0.078	-0.000
-566.602	-200.000	-0.083	0.444
-565.588	-22.228	0.346	0.209
-564.573	-200.000	0.024	0.149
-563.558	42.174	0.061	-0.055
-562.544	-28.978	0.126	-0.072
-561.529	-137.949	0.179	0.020
-560.515	16.479	-0.092	-0.073
-559.500	37.373	-0.022	0.019
-558.485	-200.000	-0.035	0.189
-557.471	-133.288	-0.412	-0.052
-556.456	-35.576	-0.130	-0.070
-555.442	-18.626	0.255	-0.159
-554.427	694.991	-0.186	-0.488
-553.412	-19.733	0.456	-0.282
-552.398	-22.848	-0.337	-0.203
-551.383	-200.000	0.009	0.391
-550.369	-200.000	-0.020	0.173
-549.354	-200.000	0.058	-0.297
-548.339	-38.312	0.128	-0.068
-547.325	-102.911	-0.214	0.051
-546.310	-135.150	-0.411	0.049
-545.296	119.642	-0.063	0.078
-544.281	123.887	-0.208	0.261
-543.266	-73.188	-0.126	0.046
-542.252	-107.819	-0.257	-0.056
-541.237	800.000	0.080	-0.242
-540.223	633.950	0.068	-0.173
-539.208	-200.000	-0.010	-0.409
-538.193	-172.896	0.117	-0.004
-537.179	-200.000	0.002	0.008
-536.164	-104.532	0.184	-0.042
-535.150	339.877	-0.148	-0.289
-534.135	117.401	0.109	0.134
-533.121	-67.742	0.161	0.063
-532.106	-200.000	-0.045	-0.210
-531.091	-31.652	0.102	0.057
-530.077	206.187	-0.242	-0.376
-529.062	-11.722	-0.109	-0.071
-528.048	-160.263	0.415	0.022
-527.033	-138.731	0.030	0.003
-526.018	44.324	-0.049	-0.045
-525.004	6.761	0.152	0.113
-523.989	-200.000	0.003	0.051
-522.975	320.335	0.190	0.360
-521.960	386.841	0.203	0.418
-520.945	-200.000	-0.024	-0.188
-519.931	-149.641	-0.242	-0.019
-518.916	535.416	-0.075	-0.178
-517.902	-147.174	-0.178	-0.015
-516.887	-200.000	-0.009	0.118
-515.872	-143.657	0.076	0.007
-514.858	-46.488	0.091	-0.044
-513.843	-200.000	0.007	-0.212
-512.829	800.000	0.035	0.098
-511.814	520.016	-0.066	-0.155
-510.799	-200.000	0.006	0.382
-509.785	-124.610	0.089	0.014
-508.770	227.994	0.074	0.121
-507.756	-72.565	-0.202	-0.074
-506.741	-143.095	-0.171	0.016
-505.726	-200.000	0.001	0.154
-504.712	39.042	-0.116	-0.103
-503.697	185.797	0.124	0.184
-502.683	23.017	-0.266	0.217
-501.668	-98.738	0.381	-0.097
-500.653	-200.000	0.052	0.254
-499.639	-61.924	0.059	0.025
-498.624	-78.552	0.153	0.052
-497.610	800.000	-0.054	0.200
-496.595	-77.742	0.333	0.115
-495.581	206.544	-0.116	0.180
-494.566	-200.000	0.018	0.278
-493.551	173.665	-0.126	-0.182
-492.537	-53.593	-0.138	0.063
-491.522	-103.167	0.097	-0.023
-490.508	800.000	0.070	0.206
-489.493	-108.778	-0.479	0.102
-488.478	800.000	-0.035	0.113
-487.464	65.986	-0.092	0.093
-486.449	-200.000	0.095	0.428
-485.435	800.000	-0.042	-0.130
-484.420	-114.733	0.063	0.012
-483.405	-102.936	0.210	-0.050
-482.391	-79.172	-0.270	-0.091
-481.376	134.012	-0.267	0.345
-480.362	-200.000	0.035	-0.166
-479.347	-40.289	-0.340	-0.176
-478.332	-18.978	-0.127	0.079
-477.318	641.383	-0.124	-0.314
-476.303	800.000	0.109	-0.378
-475.289	-46.974	0.174	-0.085
-474.274	326.376	0.056	-0.107
-473.259	-54.070	-0.298	0.135
-472.245	-200.000	-0.039	-0.401
-471.230	800.000	0.046	0.138
-470.216	-60.568	0.272	-0.115
-469.201	-57.658	0.200	-0.087
-468.186	-59.709	-0.406	-0.173
-467.172	-190.898	-0.416	-0.004
-466.157	-62.822	0.160	0.066
-465.143	-15.742	0.384	-0.244
-464.128	-114.656	-0.363	-0.069
-463.113	258.244	-0.139	0.239
-462.099	-200.000	0.012	0.076
-461.084	2.446	-0.226	0.163
-460.070	-130.353	0.158	0.021
-459.055	0.748	-0.355	-0.253
-458.040	-29.636	-0.143	0.081
-457.026	-94.419	-0.172	0.047
-456.011	-62.835	0.166	0.068
-454.997	82.601	-0.176	0.190
-453.982	-3.170	-0.219	-0.152
-452.968	209.754	-0.197	-0.307
-451.953	307.921	0.138	-0.256
-450.938	-200.000	-0.025	-0.440
-449.924	-176.363	0.252	0.007
-448.909	193.283	-0.088	0.132
-447.895	339.425	-0.137	-0.265
-446.880	-160.075	-0.257	0.014
-445.865	-50.467	-0.307	0.144
-444.851	-23.648	0.455	0.272
-443.836	148.111	0.019	0.025
-442.822	-48.564	0.178	-0.085
-441.807	-81.815	-0.102	-0.033
-440.792	109.971	-0.056	-0.067
-439.778	-76.674	0.153	-0.053
-438.763	-4.793	0.145	-0.099
-437.749	67.768	-0.277	-0.281
-436.734	-94.993	0.015	0.004
-435.719	-98.580	0.169	0.043
-434.705	42.922	-0.172	-0.156
-433.690	-38.380	0.128	-0.067
-432.676	800.000	0.042	-0.117
-431.661	334.633	0.026	0.051
-430.646	21.426	-0.149	-0.120
-429.632	10.098	0.266	0.201
-428.617	355.218	0.174	0.344
-427.603	-4.335	-0.051	-0.035
-426.588	-4.678	-0.193	-0.132
-425.573	594.690	-0.165	0.405
-424.559	-200.000	0.015	-0.179
-423.544	-200.000	-0.030	-0.224
-422.530	329.931	0.014	-0.027
-421.515	1.866	-0.040	0.028
-420.500	-103.720	0.196	0.046
-419.486	160.198	0.117	0.161
-418.471	78.291	0.146	0.155
-417.457	-24.536	0.212	-0.126
-416.442	217.101	0.169	0.268
-415.428	-174.287	-0.171	-0.005
-414.413	800.000	0.109	0.354
-413.398	-200.000	-0.008	-0.269
-412.384	-200.000	0.006	-0.181
-411.369	388.179	-0.120	-0.246
-410.355	-200.000	-0.019	-0.196
-409.340	-200.000	0.021	-0.285
-408.325	188.878	-0.213	-0.317
-407.311	-92.461	0.191	0.053
-406.296	271.553	-0.045	0.078
-405.282	-200.000	0.012	0.238
-404.267	72.145	-0.159	-0.164
-403.252	-189.292	0.189	0.002
-402.238	-124.264	0.177	-0.027
-401.223	-82.871	-0.287	0.092
-400.209	192.740	-0.087	-0.130
-399.194	-200.000	-0.041	-0.314
-398.179	800.000	-0.061	-0.211
-397.165	251.794	0.120	-0.202
-396.150	-200.000	-0.024	0.194
-395.136	199.752	0.015	-0.023
-394.121	-131.014	0.293	0.039
-393.106	517.294	-0.066	0.153
-392.092	177.402	-0.044	0.063
-391.077	-200.000	-0.042	-0.423
-390.063	-105.774	-0.534	-0.120
-389.048	-200.000	0.028	-0.143
-388.033	-112.402	-0.273	-0.054
-387.019	-50.390	0.189	-0.089
-386.004	800.000	-0.131	-0.456
-384.990	315.489	-0.141	0.264
-383.975	-200.000	-0.062	-0.310
-382.960	-149.492	-0.219	0.017
-381.946	-62.172	-0.170	-0.070
-380.931	-66.873	0.048	0.019
-379.917	172.787	0.157	-0.225
-378.902	74.543	-0.076	0.079
-377.888	-200.000	0.031	-0.283
-376.873	-200.000	0.002	-0.255
-375.858	-32.057	0.514	0.285
-374.844	-13.838	-0.092	-0.059
-373.829	432.743	0.128	-0.275
-372.815	-24.139	-0.136	-0.081
-371.800	-200.000	-0.039	-0.228
-370.785	-71.385	0.144	-0.054
-369.771	574.027	0.098	-0.237
-368.756	-99.650	-0.078	-0.019
-367.742	-200.000	-0.038	-0.186
-366.727	-200.000	0.053	-0.277
-365.712	-67.840	0.262	-0.102
-364.698	52.823	-0.139	0.132
-363.683	159.238	-0.172	0.237
-362.669	-200.000	0.008	-0.082
-361.654	161.435	0.146	-0.202
-360.639	-76.753	-0.100	0.035
-359.625	-185.464	-0.141	-0.002
-358.610	21.569	-0.074	-0.060
-357.596	-200.000	0.029	0.301
-356.581	-163.157	-0.258	-0.012
-355.566	-127.310	0.396	0.057
-354.552	-99.959	-0.173	0.043
-353.537	-200.000	-0.030	0.263
-352.523	272.290	0.025	0.044
-351.508	-200.000	-0.018	-0.138
-350.493	-12.490	-0.076	-0.049
-349.479	-101.495	0.138	0.033
-348.464	32.153	-0.085	-0.073
-347.450	-143.854	0.208	-0.019
-346.435	-91.997	0.133	0.037
-345.420	5.347	-0.288	-0.210
-344.406	800.000	0.032	0.132
-343.391	207.961	-0.268	0.414
-342.377	-100.666	0.201	0.049
-341.362	169.991	0.107	-0.152
-340.348	397.164	0.023	0.047
-339.333	-9.443	0.321	-0.212
-338.318	-29.447	0.114	-0.065
-337.304	72.355	0.064	0.066
-336.289	-132.064	0.040	0.005
-335.275	364.637	-0.076	0.151
-334.260	800.000	0.076	0.221
-333.245	143.728	0.200	0.265
-332.231	631.886	0.104	0.260
-331.216	800.000	0.058	-0.211
-330.202	-37.420	-0.224	-0.119
-329.187	-159.528	0.257	-0.014
-328.172	-200.000	-0.015	-0.195
-327.158	-110.694	0.214	0.044
-326.143	-55.641	-0.182	-0.081
-325.129	-87.092	0.131	-0.039
-324.114	124.636	0.216	0.269
-323.099	-135.528	0.358	0.042
-322.085	-118.596	-0.173	-0.030
-321.070	178.960	-0.158	-0.228
-320.056	800.000	-0.095	-0.298
-319.041	800.000	0.140	-0.465
-318.026	13.092	-0.248	-0.190
-317.012	10.500	-0.191	-0.144
-315.997	-200.000	-0.013	0.237
-314.983	558.605	0.022	-0.053
-313.968	219.394	0.158	-0.250
-312.953	-6.075	0.271	0.183
-311.939	-22.224	-0.195	-0.117
-310.924	-81.317	0.089	-0.029
-309.910	-68.309	-0.110	-0.042
-308.895	-91.062	0.258	-0.073
-307.880	-139.311	-0.164	0.017
-306.866	84.407	-0.378	0.409
-305.851	-130.878	-0.374	-0.050
-304.837	-12.385	-0.284	0.184
-303.822	37.557	0.259	-0.227
-302.807	-135.853	0.493	0.057
-301.793	163.071	-0.150	-0.209
-300.778	138.709	0.174	-0.225
-299.764	500.577	0.117	0.266
-298.749	-200.000	0.013	0.247
-297.735	36.035	0.155	-0.135
-296.720	103.991	-0.139	-0.162
-295.705	3.906	0.102	0.074
-294.691	-200.000	0.010	0.105
-293.676	800.000	-0.022	0.084
-292.662	-99.294	0.182	-0.045
-291.647	-50.155	0.169	-0.079
-290.632	-134.428	-0.227	0.028
-289.618	-105.526	0.181	-0.041
-288.603	64.033	-0.197	-0.196
-287.589	-47.261	0.068	-0.033
-286.574	354.040	-0.123	0.242
-285.559	344.894	0.050	0.098
-284.545	172.976	0.221	0.315
-283.530	244.278	0.194	0.323
-282.516	-26.390	0.083	0.048
-281.501	124.196	0.073	0.091
-280.486	800.000	-0.045	0.130
-279.472	800.000	-0.044	-0.159
-278.457	67.214	-0.327	0.329
-277.443	129.255	0.048	-0.060
-276.428	-200.000	0.024	-0.237
-275.413	137.539	-0.098	0.126
-274.399	789.720	0.064	0.174
-273.384	82.379	0.082	0.088
-272.370	-200.000	0.025	-0.134
-271.355	800.000	-0.104	-0.320
-270.340	800.000	0.104	-0.320
-269.326	-84.948	0.112	0.035
-268.311	-67.384	0.213	-0.083
-267.297	93.238	-0.260	0.291
-266.282	72.654	-0.208	0.214
-265.267	-122.050	0.453	0.073
-264.253	-127.261	0.121	0.017
-263.238	144.239	-0.230	0.303
-262.224	180.335	-0.094	0.136
-261.209	800.000	-0.087	-0.311
-260.195	33.895	0.123	-0.106
-259.180	800.000	-0.102	-0.306
-258.165	-125.169	0.284	-0.043
-257.151	-104.645	0.319	-0.073
-256.136	-96.116	-0.201	0.053
-255.122	-200.000	-0.031	-0.235
-254.107	-200.000	-0.034	0.210
-253.092	-21.124	-0.275	0.166
-252.078	-107.492	0.256	0.055
-251.063	-113.457	0.159	0.031
-250.049	168.851	0.210	-0.295
-249.034	-76.357	-0.112	0.039
-248.019	-73.284	0.312	-0.113
-247.005	-100.092	-0.187	0.046
-245.990	800.000	-0.042	0.167
-244.976	-65.273	0.195	0.078
-243.961	-31.096	0.245	0.136
-242.946	5.082	-0.066	0.048
-241.932	-200.000	-0.072	-0.378
-240.917	193.512	0.124	-0.185
-239.903	-82.224	-0.232	-0.075
-238.888	-84.307	-0.106	0.033
-237.873	738.336	0.104	-0.275
-236.859	579.074	0.102	-0.246
-235.844	-200.000	0.007	-0.263
-234.830	107.436	-0.154	-0.181
-233.815	-181.166	0.209	0.004
-232.800	29.457	-0.229	0.192
-231.786	54.764	0.164	-0.156
-230.771	-200.000	-0.020	-0.127
-229.757	800.000	-0.074	0.297
-228.742	-200.000	0.030	0.245
-227.727	-102.709	-0.227	0.053
-226.713	-137.780	0.346	0.038
-225.698	-50.939	0.206	0.095
-224.684	-42.600	0.315	0.158
-223.669	11.135	0.101	0.076
-222.655	210.228	-0.284	-0.439
-221.640	154.559	0.071	0.096
-220.625	-128.633	-0.087	-0.012
-219.611	63.356	0.148	-0.147
-218.596	106.287	-0.126	0.148
-217.582	-58.016	-0.265	-0.114
-216.567	-10.488	-0.324	0.212
-215.552	50.064	0.287	0.267
-214.538	80.916	0.189	0.201
-213.523	614.478	0.013	-0.033
-212.509	312.775	-0.107	-0.199
-211.494	-200.000	0.009	-0.130
-210.479	9.223	-0.217	-0.161
-209.465	454.091	0.063	0.138
-208.450	-85.453	0.298	-0.091
-207.436	90.653	-0.036	-0.040
-206.421	164.975	-0.099	0.138
-205.406	-200.000	-0.052	0.470
-204.392	800.000	0.050	0.182
-203.377	13.578	-0.181	-0.138
-202.363	-53.519	0.119	-0.054
-201.348	285.134	-0.210	0.372
-200.333	54.693	-0.136	-0.129
-199.319	323.093	0.024	0.046
-198.304	-200.000	0.027	0.196
-197.290	-200.000	0.008	0.226
-196.275	68.312	0.330	-0.333
-195.260	616.743	-0.047	0.115
-194.246	177.361	0.229	0.329
-193.231	-200.000	-0.036	-0.422
-192.217	-200.000	0.027	-0.296
-191.202	-50.835	-0.044	0.020
-190.187	293.190	-0.147	-0.264
-189.173	707.757	-0.065	-0.169
-188.158	-200.000	0.016	-0.212
-187.144	752.169	0.035	-0.094
-186.129	-1.012	-0.383	0.267
-185.114	250.792	-0.079	0.133
-184.100	-6.194	0.226	0.152
-183.085	-200.000	0.008	-0.040
-182.071	-36.477	0.141	-0.075
-181.056	800.000	-0.065	0.262
-180.042	137.892	0.056	0.073
-179.027	-200.000	-0.033	-0.150
-178.012	103.606	0.173	-0.200
-176.998	84.008	-0.167	-0.180
-175.983	-200.000	0.006	-0.336
-174.969	283.066	0.114	0.201
-173.954	-74.495	-0.205	-0.073
-172.939	2.521	0.175	0.124
-171.925	-87.401	0.298	-0.089
-170.910	-18.300	-0.078	0.048
-169.896	-9.896	-0.301	0.197
-168.881	800.000	0.022	-0.068
-167.866	-90.778	0.175	-0.050
-166.852	-101.871	-0.203	0.048
-165.837	170.035	-0.125	0.176
-164.823	66.671	-0.107	0.107
-163.808	-118.550	0.164	0.028
-162.793	81.464	-0.117	-0.125
-161.779	-200.000	-0.024	-0.185
-160.764	-112.501	0.479	0.094
-159.750	-200.000	0.027	-0.199
-158.735	174.230	-0.196	0.278
-157.720	-72.056	0.332	0.121
-156.706	59.821	-0.151	-0.147
-155.691	800.000	-0.049	0.200
-154.677	-13.126	-0.310	-0.198
-153.662	77.690	-0.086	-0.090
-152.647	166.882	-0.193	0.270
-151.633	-200.000	-0.036	0.201
-150.618	658.792	0.059	0.148
-149.604	-200.000	-0.010	-0.249
-148.589	-200.000	0.018	0.187
-147.574	-107.208	-0.097	0.021
-146.560	48.896	-0.090	-0.083
-145.545	44.196	0.145	-0.131
-144.531	617.781	0.069	-0.171
-143.516	-143.076	-0.395	0.038
-142.502	-79.105	0.127	-0.042
-141.487	-80.477	-0.196	0.064
-140.472	157.863	0.158	0.215
-139.458	-55.640	-0.074	-0.032
-138.443	71.852	-0.090	-0.092
-137.429	800.000	-0.062	-0.242
-136.414	112.666	-0.036	0.043
-135.399	-16.789	0.241	0.149
-134.385	800.000	0.023	0.079
-133.370	-69.404	0.234	0.088
-132.356	-200.000	-0.030	0.275
-131.341	126.668	0.335	-0.417
-130.326	-15.073	-0.314	0.197
-129.312	60.928	-0.150	-0.146
-128.297	574.099	-0.038	-0.091
-127.283	67.008	0.211	-0.211
-126.268	-200.000	0.004	0.084
-125.253	-87.430	0.065	0.019
-124.239	-10.214	-0.158	-0.103
-123.224	30.652	0.128	0.108
-122.210	97.574	0.092	0.104
-121.195	-179.508	-0.151	0.003
-120.180	800.000	0.037	0.141
-119.166	66.445	0.076	-0.076
-118.151	33.398	-0.137	0.117
-117.137	665.975	0.120	-0.304
-116.122	-200.000	-0.008	0.097
-115.107	198.611	-0.038	0.057
-114.093	-38.152	0.235	0.122
-113.078	-69.056	0.113	-0.043
-112.064	-140.983	0.098	0.010
-111.049	-27.507	-0.157	0.089
-110.034	-193.979	0.303	0.002
-109.020	800.000	-0.016	0.062
-108.005	-23.821	0.107	0.063
-106.991	-98.591	0.167	0.042
-105.976	22.374	-0.240	-0.193
-104.962	-200.000	0.016	-0.270
-103.947	362.142	-0.046	0.091
-102.932	800.000	0.049	-0.185
-101.918	-32.765	-0.228	-0.125
-100.903	-76.151	-0.179	0.062
-99.889	254.320	0.086	0.144
-98.874	800.000	0.040	0.149
-97.859	-200.000	0.047	-0.249
-96.845	349.757	0.115	-0.223
-95.830	800.000	0.027	-0.090
-94.816	337.025	0.087	0.166
-93.801	149.228	0.157	0.208
-92.786	39.253	0.212	0.186
-91.772	-172.546	0.089	0.003
-90.757	800.000	0.031	-0.095
-89.743	434.313	0.057	-0.122
-88.728	81.142	-0.098	0.104
-87.713	-145.054	-0.110	-0.010
-86.699	800.000	0.030	0.099
-85.684	117.075	-0.183	-0.221
-84.670	-200.000	0.042	-0.186
-83.655	32.320	0.312	0.264
-82.640	-200.000	-0.003	0.017
-81.626	-55.556	0.092	-0.040
-80.611	187.783	0.061	0.089
-79.597	426.940	0.050	-0.106
-78.582	-200.000	0.008	-0.205
-77.567	-62.929	0.067	-0.027
-76.553	-35.804	0.048	-0.026
-75.538	-200.000	-0.002	-0.251
-74.524	-77.403	0.252	-0.086
-73.509	10.683	0.106	0.079
-72.494	-97.089	-0.139	0.036
-71.480	-200.000	-0.058	-0.304
-70.465	-136.842	0.153	-0.017
-69.451	-200.000	-0.010	-0.185
-68.436	159.337	0.140	-0.191
-67.422	213.765	-0.203	0.315
-66.407	2.064	-0.216	-0.153
-65.392	278.217	0.112	-0.195
-64.378	286.431	-0.172	0.305
-63.363	159.159	0.064	-0.088
-62.349	800.000	0.135	0.373
-61.334	97.752	-0.916	-1.031
-60.319	-0.987	0.537	0.372
-59.305	800.000	-0.330	-0.957
-58.290	401.552	0.495	1.019
-57.276	156.199	0.883	1.194
-56.261	-200.000	104.967	615.091
-55.246	518.271	1490.708	3417.411
-54.232	179.277	2683.170	3845.085
-53.217	112.623	2174.037	2577.547
-52.203	40.641	1695.429	1496.427
-51.188	33.121	1505.315	1277.974
-50.173	30.799	1478.483	1239.709
-49.159	51.584	1534.025	1427.905
-48.144	52.404	1550.305	1448.564
-47.130	33.433	1506.732	1281.082
-46.115	30.216	1491.662	1246.638
-45.100	30.043	1488.255	1242.583
-44.086	30.059	1486.164	1240.896
-43.071	29.952	1483.914	1238.252
-42.057	29.900	1482.591	1236.752
-41.042	29.960	1481.098	1235.857
-40.027	29.948	1479.640	1234.513
-39.013	29.907	1478.454	1233.199
-37.998	29.910	1476.480	1231.524
-36.984	30.004	1475.577	1231.348
-35.969	29.963	1474.307	1229.969
-34.954	29.942	1473.285	1228.926
-33.940	29.950	1471.243	1227.226
-32.925	29.876	1470.751	1226.277
-31.911	29.995	1469.342	1225.843
-30.896	30.128	1467.303	1224.968
-29.881	30.018	1466.198	1223.272
-28.867	30.106	1464.957	1222.768
-27.852	29.980	1463.951	1221.050
-26.838	30.074	1462.015	1220.004
-25.823	30.085	1460.326	1218.623
-24.809	30.071	1458.656	1217.087
-23.794	29.973	1457.679	1215.581
-22.779	29.981	1456.639	1214.720
-21.765	30.038	1455.320	1213.941
-20.750	29.955	1454.627	1212.770
-19.736	30.076	1453.468	1212.550
-18.721	30.013	1452.732	1211.475
-17.706	30.031	1451.425	1210.455
-16.692	29.956	1450.273	1208.960
-15.677	30.005	1448.932	1208.111
-14.663	30.093	1448.116	1207.955
-13.648	29.984	1447.423	1206.621
-12.633	30.035	1446.327	1205.993
-11.619	29.983	1445.633	1205.029
-10.604	29.900	1444.576	1203.558
-9.590	29.927	1443.971	1203.178
-8.575	29.954	1442.818	1202.346
-7.560	29.968	1441.677	1201.442
-6.546	29.917	1441.030	1200.520
-5.531	29.911	1440.180	1199.728
-4.517	29.933	1439.158	1198.973
-3.502	29.932	1438.109	1198.041
-2.487	29.893	1436.924	1196.759
-1.473	29.897	1436.335	1196.247
-0.458	29.921	1434.840	1195.106
0.556	27.667	1425.291	1184.026
1.571	24.559	1400.309	1143.310
2.586	21.044	1341.078	1073.264
3.600	19.506	1259.485	998.981
4.615	18.364	1214.970	957.207
5.629	15.845	1160.042	900.395
6.644	7.718	1077.133	795.447
7.659	0.842	1037.617	732.967
8.673	-0.168	1032.230	724.228
9.688	-0.395	1029.265	720.993
10.702	-0.264	1027.342	720.212
11.717	-0.372	1025.520	718.353
12.731	2.536	1028.403	734.265
13.746	11.117	1040.864	784.589
14.761	17.943	1049.518	824.095
15.775	19.612	1050.539	832.876
16.790	19.733	1050.141	833.070
17.804	19.668	1049.095	831.857
18.819	19.446	1048.384	830.151
19.834	19.440	1048.166	829.875
20.848	19.455	1047.772	829.559
21.863	19.592	1046.873	829.436
22.877	19.570	1046.510	828.965
23.892	19.543	1046.330	828.624
24.907	19.395	1045.136	826.894
25.921	19.470	1044.527	826.699
26.936	19.572	1043.809	826.543
27.950	19.457	1042.519	824.902
28.965	19.471	1041.183	823.839
29.980	19.247	1039.492	821.356
30.994	19.393	1037.842	820.675
32.009	19.577	1037.474	821.188
33.023	19.692	1036.382	820.798
34.038	19.415	1035.121	818.412
35.053	19.408	1034.718	817.989
36.067	19.592	1033.992	818.214
37.082	19.566	1033.447	817.586
38.096	19.561	1032.512	816.750
39.111	19.767	1031.817	817.102
40.126	19.914	1030.923	817.016
41.140	19.805	1029.379	815.206
42.155	19.480	1027.942	812.468
43.169	19.237	1026.612	810.199
44.184	19.281	1025.737	809.645
45.199	19.370	1024.336	808.884
46.213	19.296	1023.693	807.959
47.228	19.248	1022.326	806.586
48.242	19.394	1021.574	806.604
49.257	19.319	1021.048	805.763
50.271	19.559	1019.550	805.633
51.286	19.499	1019.551	805.283
52.301	19.656	1018.311	804.961
53.315	19.625	1017.732	804.291
54.330	19.580	1016.953	803.392
55.344	19.550	1016.043	802.465
56.359	19.494	1015.394	801.621
57.374	19.459	1014.690	800.832
58.388	19.405	1013.498	799.567
59.403	19.357	1012.689	798.640
60.417	19.372	1012.362	798.376
61.432	19.417	1011.049	797.480
62.447	19.291	1010.086	796.067
63.461	19.490	1010.037	796.880
64.476	19.447	1009.061	795.838
65.490	19.559	1007.750	795.250
66.505	19.379	1006.979	793.745
67.520	19.408	1005.993	793.031
68.534	19.319	1005.754	792.359
69.549	19.472	1004.137	791.718
70.563	19.063	1003.027	788.901
71.578	18.959	1002.422	787.876
72.593	19.107	1001.255	787.570
73.607	18.981	1000.182	786.078
74.622	19.053	998.950	785.368
75.636	19.160	998.716	785.606
76.651	19.347	998.040	785.857
77.666	19.195	996.764	784.087
78.680	19.035	995.923	782.630
79.695	19.149	995.733	782.933
80.709	19.305	994.971	782.971
81.724	19.281	993.891	781.944
82.739	19.212	993.007	780.865
83.753	19.294	992.223	780.550
84.768	19.563	991.345	781.007
85.782	19.594	991.311	781.053
86.797	19.879	989.980	781.220
87.812	19.732	989.551	780.149
88.826	19.815	988.014	779.243
89.841	19.703	987.444	778.223
90.855	19.700	986.820	777.647
91.870	19.743	986.213	777.294
92.884	19.739	985.492	776.639
93.899	19.713	984.044	775.310
94.914	19.711	983.229	774.591
95.928	19.773	982.455	774.191
96.943	19.830	981.438	773.575
97.957	19.594	980.515	771.727
98.972	19.373	979.669	770.005
99.987	18.983	978.490	767.273
101.001	19.085	977.685	767.026
102.016	19.480	977.322	768.432
103.030	19.556	976.333	767.925
104.045	19.501	974.894	766.482
105.060	19.304	973.854	764.720
106.074	19.104	972.828	762.964
107.089	19.254	971.899	762.831
108.103	19.700	971.301	764.265
109.118	19.767	970.681	764.008
110.133	19.461	969.646	761.774
111.147	19.445	969.039	761.160
112.162	19.198	967.820	759.046
113.176	19.091	966.644	757.586
114.191	19.306	965.430	757.511
115.206	19.373	964.846	757.281
116.220	19.009	963.565	754.613
117.235	18.897	962.423	753.159
118.249	18.962	962.105	753.131
119.264	19.163	960.939	753.030
120.279	19.055	960.148	751.870
121.293	19.093	959.245	751.262
122.308	19.147	958.653	750.969
123.322	19.132	958.037	750.353
124.337	19.208	956.507	749.421
125.352	19.093	955.225	747.851
126.366	18.726	953.466	744.814
127.381	18.426	951.865	742.199
128.395	18.850	952.059	744.122
129.410	19.447	951.597	746.277
130.424	19.614	950.408	746.000
131.439	19.596	949.345	745.021
132.454	19.618	947.925	743.935
133.468	19.736	947.388	743.957
134.483	19.326	947.208	741.985
135.497	19.460	945.999	741.549
136.512	19.741	945.450	742.261
137.527	19.817	944.502	741.773
138.541	19.679	944.338	740.991
139.556	19.899	943.007	740.820
140.570	19.959	942.136	740.327
141.585	19.737	941.641	738.925
142.600	19.707	940.492	737.830
143.614	19.626	939.578	736.700
144.629	19.825	938.862	736.925
145.643	20.108	937.973	737.366
146.658	19.872	937.238	735.717
147.673	19.743	936.220	734.305
148.687	19.732	935.419	733.565
149.702	19.709	934.107	732.373
150.716	19.629	932.736	730.897
151.731	19.691	932.252	730.713
152.746	19.781	931.279	730.269
153.760	19.948	930.767	730.508
154.775	20.000	930.246	730.253
155.789	20.036	929.098	729.438
156.804	20.053	927.910	728.513
157.819	19.965	927.194	727.516
158.833	19.932	926.347	726.649
159.848	19.868	925.805	725.889
160.862	20.039	924.903	725.834
161.877	19.859	923.766	724.125
162.892	19.872	923.423	723.848
163.906	19.920	922.989	723.642
164.921	20.008	921.582	722.842
165.935	19.897	920.430	721.412
166.950	20.036	919.334	721.072
167.964	19.799	918.680	719.505
168.979	19.775	917.195	718.182
169.994	20.019	915.938	718.145
171.008	19.709	915.373	716.352
172.023	19.934	914.462	716.509
173.037	20.162	913.784	716.855
174.052	19.729	912.692	714.148
175.067	19.694	911.649	713.123
176.081	19.706	910.883	712.512
177.096	19.760	910.270	712.190
178.110	19.860	909.062	711.594
179.125	19.779	907.725	710.152
180.140	19.525	906.698	708.243
181.154	19.350	906.422	707.248
182.169	19.525	906.239	707.759
183.183	19.720	905.515	707.930
184.198	20.032	904.962	708.714
185.213	19.892	904.361	707.608
186.227	19.896	903.301	706.731
187.242	20.046	903.161	707.172
188.256	20.038	902.529	706.582
189.271	19.939	901.631	705.414
190.286	20.094	901.117	705.578
191.300	19.813	900.482	703.877
192.315	19.458	898.807	701.062
193.329	18.798	897.412	697.235
194.344	18.478	896.747	695.359
195.359	19.085	896.709	697.728
196.373	19.604	897.069	700.052
197.388	20.057	896.266	701.194
198.402	19.814	895.784	699.773
199.417	19.825	894.712	698.918
200.432	19.850	894.588	698.862
201.446	19.544	894.055	697.149
202.461	19.236	893.227	695.198
203.475	19.487	892.666	695.714
204.490	19.032	890.836	692.395
205.504	17.915	889.017	686.431
206.519	18.233	889.268	687.841
207.534	19.198	889.793	692.068
208.548	19.511	888.591	692.327
209.563	19.728	888.661	693.188
210.577	19.751	887.717	692.486
211.592	19.520	886.681	690.691
212.607	19.941	886.493	692.167
213.621	20.125	885.831	692.323
214.636	19.942	885.809	691.513
215.650	20.005	884.949	691.032
216.665	19.846	884.335	689.859
217.680	19.937	883.935	689.850
218.694	20.086	882.917	689.587
219.709	19.614	882.147	687.047
220.723	19.483	880.982	685.556
221.738	19.724	880.204	685.849
222.753	19.887	880.196	686.429
223.767	19.773	879.290	685.207
224.782	19.819	878.530	684.739
225.796	19.930	877.942	684.658
226.811	20.163	877.566	685.223
227.826	19.770	876.261	682.596
228.840	19.005	875.178	678.674
229.855	18.948	874.258	677.673
230.869	19.197	874.052	678.435
231.884	19.040	872.516	676.568
232.899	18.889	872.721	676.070
233.913	19.561	872.700	678.638
234.928	19.863	872.017	679.232
235.942	19.731	871.807	678.493
236.957	19.812	870.901	678.044
237.972	19.583	869.717	676.165
238.986	19.519	868.938	675.250
240.001	19.586	868.372	675.012
241.015	19.743	867.572	674.944
242.030	19.640	867.351	674.310
243.045	19.826	866.452	674.274
244.059	19.851	866.131	674.064
245.074	20.034	865.474	674.206
246.088	19.940	864.670	673.154
247.103	19.528	863.822	670.832
248.117	19.661	863.189	670.800
249.132	20.208	862.898	672.637
250.147	20.444	862.881	673.478
251.161	20.398	862.100	672.629
252.176	20.637	861.247	672.828
253.190	20.486	860.822	671.853
254.205	20.724	860.109	672.157
255.220	20.926	859.985	672.782
256.234	20.870	859.210	671.899
257.249	20.587	858.606	670.275
258.263	20.676	857.766	669.904
259.278	20.599	857.240	669.138
260.293	20.550	857.052	668.744
261.307	20.713	856.155	668.610
262.322	20.682	855.375	667.823
263.336	20.415	855.099	666.525
264.351	19.916	852.902	662.844
265.366	18.855	850.923	657.190
266.380	18.666	850.077	655.757
267.395	19.354	850.614	658.742
268.409	20.314	850.218	662.041
269.424	20.200	850.154	661.498
270.439	20.233	849.925	661.388
271.453	20.430	848.900	661.281
272.468	20.476	848.172	660.829
273.482	20.759	847.526	661.345
274.497	20.832	847.259	661.355
275.512	20.504	846.177	659.208
276.526	20.053	844.449	656.096
277.541	20.231	844.571	656.807
278.555	20.674	844.265	658.185
279.570	20.347	843.639	656.404
280.585	20.134	842.453	654.618
281.599	20.267	841.691	654.470
282.614	20.330	841.325	654.365
283.628	19.998	840.310	652.268
284.643	19.676	839.691	650.517
285.657	20.124	839.578	652.060
286.672	20.016	838.701	650.914
287.687	19.449	837.883	648.092
288.701	19.758	837.846	649.167
289.716	20.176	837.418	650.347
290.730	19.885	836.541	648.515
291.745	19.826	835.692	647.581
292.760	19.567	834.766	645.836
293.774	19.529	834.209	645.206
294.789	20.315	834.734	648.493
295.803	20.919	834.877	650.804
296.818	21.054	834.267	650.776
297.833	21.038	834.029	650.473
298.847	20.878	832.756	648.826
299.862	20.673	831.299	646.870
300.876	20.628	830.984	646.402
301.891	20.926	830.822	647.325
302.906	21.067	830.194	647.301
303.920	20.493	829.038	644.215
304.935	20.553	828.380	643.870
305.949	20.864	827.910	644.598
306.964	20.900	827.571	644.409
307.979	20.689	827.064	643.177
308.993	20.649	826.437	642.484
310.008	21.015	826.205	643.602
311.022	21.212	825.607	643.802
312.037	20.957	824.974	642.313
313.052	20.794	824.429	641.233
314.066	20.841	823.626	640.725
315.081	20.188	822.444	637.350
316.095	19.506	821.299	633.900
317.110	20.019	821.436	635.836
318.125	20.712	821.665	638.498
319.139	20.508	820.316	636.648
320.154	19.351	819.017	631.349
321.168	18.917	818.269	629.127
322.183	19.525	818.396	631.395
323.197	20.320	818.634	634.430
324.212	20.637	818.277	635.254
325.227	20.791	817.844	635.424
326.241	20.726	817.530	634.888
327.256	20.659	816.750	633.981
328.270	20.639	816.352	633.542
329.285	20.675	815.424	632.897
330.300	20.561	814.833	631.968
331.314	20.229	814.444	630.404
332.329	20.486	813.100	630.239
333.343	20.778	812.882	631.073
334.358	20.840	812.911	631.266
335.373	20.839	811.981	630.486
336.387	20.953	811.577	630.526
337.402	21.204	811.329	631.184
338.416	21.271	810.874	631.019
339.431	21.349	810.034	630.589
340.446	21.270	809.233	629.625
341.460	21.438	809.052	630.037
342.475	21.424	808.075	629.168
343.489	21.244	807.739	628.205
344.504	21.254	807.329	627.864
345.519	21.458	806.830	628.154
346.533	21.664	806.573	628.639
347.548	21.598	806.441	628.244
348.562	21.759	806.021	628.436
349.577	21.578	805.342	627.204
350.592	21.705	804.757	627.146
351.606	21.648	804.143	626.411
352.621	21.675	803.615	626.040
353.635	21.672	803.125	625.592
354.650	21.506	802.598	624.531
355.665	21.101	801.717	622.347
356.679	20.151	800.490	617.957
357.694	20.054	799.597	616.866
358.708	20.852	798.987	619.180
359.723	20.669	798.961	618.455
360.738	20.835	798.927	618.960
361.752	21.477	798.367	620.752
362.767	21.500	798.283	620.714
363.781	21.498	798.335	620.693
364.796	21.911	797.593	621.523
365.810	22.039	796.872	621.360
366.825	22.021	796.777	621.166
367.840	22.028	796.260	620.732
368.854	21.847	795.994	619.833
369.869	21.543	794.545	617.576
370.883	21.338	794.576	616.822
371.898	21.415	793.970	616.570
372.913	21.388	792.953	615.629
373.927	21.235	792.717	614.851
374.942	21.441	792.333	615.225
375.956	21.471	791.631	614.733
376.971	21.804	790.732	615.149
377.986	21.664	790.885	614.721
379.000	21.929	790.123	615.002
380.015	21.939	789.812	614.742
381.029	21.845	789.189	613.873
382.044	21.688	788.709	612.897
383.059	21.816	788.246	612.931
384.073	21.956	787.513	612.794
385.088	22.060	786.740	612.501
386.102	22.077	786.556	612.363
387.117	21.734	786.089	610.751
388.132	21.593	785.455	609.713
389.146	21.645	784.705	609.256
390.161	20.892	783.928	605.983
391.175	21.238	783.251	606.607
392.190	21.691	783.377	608.223
393.205	21.764	782.998	608.131
394.219	20.827	781.215	603.448
395.234	19.337	779.157	596.652
396.248	18.578	778.630	593.569
397.263	19.588	779.304	597.527
398.278	21.329	780.444	604.372
399.292	21.796	780.038	605.620
400.307	21.515	779.802	604.413
401.321	21.403	779.470	603.715
402.336	21.452	779.091	603.537
403.350	21.808	778.791	604.479
404.365	22.113	778.586	605.316
405.380	22.363	778.262	605.873
406.394	22.496	778.099	606.149
407.409	22.712	777.545	606.408
408.423	22.661	777.156	605.875
409.438	22.539	776.612	604.979
410.453	22.554	776.404	604.814
411.467	22.574	775.962	604.485
412.482	22.750	774.893	604.202
413.496	22.616	774.388	603.296
414.511	22.675	774.492	603.526
415.526	22.569	774.264	602.932
416.540	22.701	773.650	602.853
417.555	22.624	773.050	602.069
418.569	22.280	772.471	600.388
419.584	22.309	771.410	599.609
420.599	22.489	771.193	600.001
421.613	158.897	1360.923	1798.586
422.628	137.083	1446.816	1798.659
