DTS Sentinel unit serial number:	SN413079Multiplexer serial number:	ORYXHardware model number:	OX4-SRSoftware version number:	ORYX F/W v4.00 Oryx Data Collector v3.7.2.0data status	okinstallation	princeton_trtdifferential loss correction	single-endedforward channel	channel 3reverse channel	N/Adate	2019/09/12time	01:18:11forward acquisition time	60.00reverse acquisition time	0.00gamma	496.2192k internal	0.2320k external	0.2320temperature offset calibration	1.0069default loss term (dB/km)	0.3790temperature slope calibration	1.0000multiplexer offset coefficient	1.0000multiplexer slope coefficient	1.0000fibre end	0.00T internal ref (°C)	33.00T ext. ref 1 (°C)	2.09T ext. ref 2 (°C)	27.93length (m)	temperature (°C)	Stokes	anti-Stokes-747.200	150.419	0.241	0.331
-746.185	800.000	0.049	0.198
-745.171	-200.000	-0.048	0.308
-744.156	-50.999	-0.385	0.183
-743.142	-200.000	-0.016	-0.124
-742.127	-112.449	-0.418	0.084
-741.112	184.045	0.037	-0.055
-740.098	-70.653	-0.097	-0.037
-739.083	800.000	-0.025	0.099
-738.069	800.000	-0.024	-0.072
-737.054	556.538	-0.146	-0.356
-736.039	10.455	-0.430	-0.331
-735.025	141.166	-0.099	-0.132
-734.010	-70.716	-0.357	-0.136
-732.996	46.256	-0.141	-0.132
-731.981	137.613	0.051	-0.068
-730.966	-200.000	0.007	0.253
-729.952	260.111	0.202	-0.354
-728.937	8.838	-0.360	-0.274
-727.923	800.000	-0.046	-0.196
-726.908	-91.892	-0.178	-0.051
-725.894	-107.012	-0.396	0.088
-724.879	131.466	0.064	-0.083
-723.864	-200.000	-0.009	-0.269
-722.850	-7.815	-0.131	-0.089
-721.835	800.000	-0.048	0.183
-720.821	-200.000	0.031	-0.155
-719.806	242.126	0.065	0.110
-718.791	-171.087	0.098	-0.003
-717.777	55.690	-0.110	0.108
-716.762	-200.000	-0.011	0.257
-715.748	32.098	0.150	-0.131
-714.733	37.517	-0.330	0.296
-713.718	-200.000	-0.005	-0.224
-712.704	-90.675	-0.136	-0.040
-711.689	-53.271	0.110	0.051
-710.675	800.000	-0.081	0.251
-709.660	-124.157	0.338	-0.054
-708.645	99.555	-0.333	-0.389
-707.631	-37.009	-0.498	-0.269
-706.616	-200.000	0.160	-0.001
-705.602	-188.704	0.172	-0.002
-704.587	-72.542	-0.042	-0.016
-703.572	-200.000	-0.021	0.245
-702.558	124.201	-0.128	0.162
-701.543	168.653	0.075	-0.108
-700.529	800.000	0.124	-0.371
-699.514	204.855	-0.179	-0.280
-698.499	-200.000	-0.051	-0.425
-697.485	71.209	0.148	-0.155
-696.470	119.737	-0.161	0.201
-695.456	800.000	-0.044	0.192
-694.441	581.276	0.070	0.173
-693.426	236.773	-0.095	-0.159
-692.412	-30.243	-0.202	0.116
-691.397	-70.113	0.148	0.057
-690.383	800.000	-0.036	0.132
-689.368	-200.000	-0.029	0.180
-688.354	800.000	-0.023	-0.070
-687.339	133.433	0.213	-0.278
-686.324	72.511	-0.170	0.179
-685.310	170.279	-0.167	0.242
-684.295	516.470	0.150	-0.353
-683.281	800.000	-0.066	-0.245
-682.266	-106.916	0.208	0.047
-681.251	-93.657	0.283	-0.079
-680.237	286.998	0.045	-0.082
-679.222	189.941	-0.135	-0.204
-678.208	800.000	0.019	0.069
-677.193	-200.000	0.023	-0.112
-676.178	9.882	0.159	-0.122
-675.164	395.135	-0.059	0.124
-674.149	-200.000	-0.082	0.380
-673.135	201.222	-0.082	-0.127
-672.120	800.000	-0.011	-0.042
-671.105	-42.165	0.184	0.095
-670.091	574.721	-0.158	0.389
-669.076	-200.000	0.034	0.181
-668.062	800.000	-0.106	-0.297
-667.047	-200.000	0.041	-0.217
-666.032	-112.274	-0.224	-0.045
-665.018	100.845	-0.155	0.181
-664.003	-103.811	-0.294	-0.069
-662.989	-113.007	-0.291	-0.058
-661.974	-200.000	0.090	0.455
-660.959	-200.000	0.003	0.207
-659.945	137.851	0.090	-0.119
-658.930	-49.489	0.096	0.046
-657.916	-112.352	0.256	0.052
-656.901	-142.311	-0.166	0.017
-655.886	-82.466	-0.197	0.064
-654.872	-200.000	0.008	-0.054
-653.857	-72.541	-0.200	-0.074
-652.843	-36.438	-0.283	-0.153
-651.828	-10.104	0.186	-0.124
-650.814	7.644	-0.260	-0.196
-649.799	54.187	0.281	-0.272
-648.784	-8.564	0.086	0.058
-647.770	179.343	-0.064	0.095
-646.755	90.362	-0.143	0.161
-645.741	112.714	-0.093	-0.114
-644.726	-14.968	-0.246	0.159
-643.711	306.469	0.070	0.131
-642.697	800.000	-0.095	0.280
-641.682	579.820	-0.130	-0.321
-640.668	-200.000	-0.185	-0.001
-639.653	-200.000	-0.017	-0.095
-638.638	501.501	0.078	-0.182
-637.624	408.471	-0.132	0.281
-636.609	-96.390	-0.207	0.055
-635.595	-200.000	-0.033	0.279
-634.580	110.526	-0.119	0.145
-633.565	800.000	0.055	0.190
-632.551	127.639	-0.302	0.387
-631.536	800.000	-0.034	0.126
-630.522	-69.187	-0.129	-0.050
-629.507	-59.153	-0.248	-0.108
-628.492	-200.000	0.048	0.271
-627.478	239.715	-0.214	-0.359
-626.463	-200.000	0.012	-0.247
-625.449	222.996	0.129	-0.209
-624.434	-200.000	0.034	0.468
-623.419	-54.461	0.078	-0.036
-622.405	-35.213	0.378	-0.207
-621.390	-46.253	0.258	0.128
-620.376	195.965	-0.121	-0.186
-619.361	-148.226	0.368	-0.031
-618.346	259.879	-0.117	0.204
-617.332	-200.000	-0.015	-0.527
-616.317	-200.000	0.000	-0.302
-615.303	341.810	-0.050	-0.097
-614.288	5.433	-0.162	0.120
-613.273	-133.435	-0.274	0.035
-612.259	800.000	0.072	-0.215
-611.244	101.735	0.098	0.115
-610.230	17.365	0.421	0.337
-609.215	418.714	-0.062	-0.133
-608.201	176.570	-0.049	0.071
-607.186	102.218	0.170	-0.200
-606.171	569.024	0.062	0.152
-605.157	-47.280	0.111	-0.054
-604.142	-89.891	0.114	0.033
-603.128	-200.000	0.015	0.187
-602.113	357.547	0.054	0.107
-601.098	485.442	0.131	0.299
-600.084	800.000	-0.079	-0.311
-599.069	-70.848	-0.109	-0.041
-598.055	-62.538	-0.124	0.052
-597.040	90.112	-0.190	0.214
-596.025	235.248	0.282	0.469
-595.011	147.855	0.041	0.056
-593.996	99.336	0.267	-0.310
-592.982	-2.958	-0.281	-0.197
-591.967	153.028	-0.032	-0.044
-590.952	34.656	-0.248	-0.218
-589.938	800.000	0.026	-0.106
-588.923	-200.000	-0.015	-0.148
-587.909	232.728	0.100	-0.166
-586.894	102.206	-0.084	-0.099
-585.879	238.340	-0.136	-0.226
-584.865	-200.000	-0.004	0.028
-583.850	-200.000	0.026	0.197
-582.836	604.843	0.063	-0.157
-581.821	-5.171	0.245	-0.169
-580.806	-200.000	0.023	0.357
-579.792	-200.000	-0.024	0.544
-578.777	-57.591	-0.141	0.062
-577.763	281.629	-0.116	0.210
-576.748	77.794	-0.137	-0.146
-575.733	-124.983	-0.313	0.048
-574.719	-81.981	-0.023	0.008
-573.704	-126.321	0.110	0.016
-572.690	-2.313	0.094	-0.066
-571.675	40.218	0.226	0.204
-570.661	184.150	0.170	0.252
-569.646	-46.023	-0.184	0.091
-568.631	-129.476	0.089	-0.012
-567.617	729.283	-0.062	-0.166
-566.602	-97.212	-0.090	-0.024
-565.588	-160.330	-0.021	0.001
-564.573	-146.810	0.357	0.031
-563.558	-9.275	0.056	-0.037
-562.544	-107.473	0.027	0.006
-561.529	344.566	-0.096	-0.189
-560.515	-101.313	-0.281	-0.069
-559.500	800.000	0.086	-0.327
-558.485	-60.000	0.195	0.084
-557.471	-200.000	-0.018	-0.089
-556.456	344.777	-0.105	0.207
-555.442	-200.000	-0.059	-0.414
-554.427	232.963	-0.087	0.143
-553.412	616.559	-0.234	-0.588
-552.398	-93.387	0.263	-0.073
-551.383	-170.961	0.136	-0.005
-550.369	-123.957	-0.392	0.062
-549.354	-116.788	0.200	-0.037
-548.339	-200.000	0.001	0.146
-547.325	236.031	0.094	-0.156
-546.310	-17.912	-0.104	-0.066
-545.296	93.632	0.148	-0.168
-544.281	-40.626	0.211	-0.110
-543.266	-107.277	-0.445	0.098
-542.252	-76.702	-0.347	-0.122
-541.237	-139.760	-0.304	-0.032
-540.223	-38.294	0.129	0.069
-539.208	140.130	-0.130	-0.172
-538.193	350.974	-0.174	-0.346
-537.179	137.653	0.147	-0.193
-536.164	539.314	0.084	0.200
-535.150	-131.746	-0.363	-0.048
-534.135	-140.128	0.383	-0.040
-533.121	-13.287	0.219	-0.142
-532.106	-152.820	-0.210	0.015
-531.091	-200.000	-0.033	0.266
-530.077	800.000	0.058	-0.194
-529.062	-200.000	-0.031	0.253
-528.048	-62.136	-0.279	-0.117
-527.033	-33.949	-0.340	0.188
-526.018	-106.248	0.163	-0.037
-525.004	-111.662	0.188	0.038
-523.989	212.464	0.088	0.139
-522.975	186.836	-0.118	-0.176
-521.960	22.563	0.173	0.142
-520.945	-2.505	-0.157	-0.110
-519.931	-168.076	0.219	-0.009
-518.916	-165.646	0.005	0.000
-517.902	-200.000	-0.001	-0.067
-516.887	-200.000	0.050	0.256
-515.872	-200.000	-0.003	0.101
-514.858	-200.000	-0.047	-0.253
-513.843	-135.322	-0.313	0.037
-512.829	-114.517	0.308	0.059
-511.814	-98.211	-0.275	0.071
-510.799	800.000	-0.052	-0.180
-509.785	-150.266	0.158	0.012
-508.770	4.056	-0.090	-0.066
-507.756	186.118	-0.025	0.037
-506.741	800.000	0.065	0.260
-505.726	-3.108	-0.138	0.097
-504.712	9.156	-0.222	0.168
-503.697	-178.696	0.119	0.003
-502.683	164.722	0.099	0.140
-501.668	179.281	0.110	-0.161
-500.653	800.000	-0.030	-0.131
-499.639	17.934	-0.193	-0.154
-498.624	211.041	0.090	-0.142
-497.610	-142.121	-0.196	-0.020
-496.595	-104.092	-0.371	0.087
-495.581	-57.779	0.232	-0.102
-494.566	-151.479	-0.173	0.013
-493.551	-57.774	0.063	0.028
-492.537	303.319	-0.026	-0.048
-491.522	-122.203	-0.013	-0.002
-490.508	426.363	-0.138	-0.297
-489.493	95.583	-0.310	0.354
-488.478	50.515	0.113	-0.107
-487.464	-101.771	0.224	0.054
-486.449	9.372	0.152	0.115
-485.435	-200.000	-0.037	0.343
-484.420	-200.000	0.040	-0.273
-483.405	167.011	0.191	0.272
-482.391	301.359	-0.125	0.231
-481.376	16.470	-0.209	0.165
-480.362	-24.567	-0.343	0.205
-479.347	19.899	0.179	0.145
-478.332	104.799	-0.101	0.119
-477.318	-184.417	0.195	0.003
-476.303	89.510	-0.199	0.222
-475.289	100.160	-0.138	0.160
-474.274	514.021	0.090	-0.211
-473.259	87.910	-0.310	-0.344
-472.245	-100.133	0.090	0.023
-471.230	-200.000	-0.018	-0.099
-470.216	-140.976	0.063	0.006
-469.201	211.456	-0.122	0.193
-468.186	-34.400	0.221	-0.121
-467.172	250.640	0.044	-0.075
-466.157	-113.789	-0.228	-0.044
-465.143	-200.000	-0.001	-0.087
-464.128	-200.000	-0.001	0.070
-463.113	-200.000	-0.099	-0.470
-462.099	800.000	0.099	-0.308
-461.084	-200.000	0.007	0.033
-460.070	108.407	0.079	-0.094
-459.055	417.256	0.061	-0.131
-458.040	-93.255	-0.200	-0.055
-457.026	53.882	0.147	-0.141
-456.011	-121.533	0.405	-0.067
-454.997	601.777	-0.114	-0.283
-453.982	-8.861	-0.160	0.107
-452.968	-14.454	0.264	-0.170
-451.953	31.631	0.284	-0.244
-450.938	-200.000	-0.017	-0.208
-449.924	135.795	0.073	-0.095
-448.909	280.736	0.180	0.322
-447.895	-200.000	-0.007	-0.081
-446.880	87.175	0.133	0.147
-445.865	-85.236	-0.304	-0.095
-444.851	-26.559	-0.376	-0.220
-443.836	22.024	0.053	-0.043
-442.822	172.588	-0.068	-0.097
-441.807	75.532	0.129	0.136
-440.792	186.484	-0.150	-0.223
-439.778	800.000	-0.084	0.287
-438.763	-200.000	0.010	0.164
-437.749	-39.177	-0.247	-0.130
-436.734	-200.000	0.089	-0.449
-435.719	16.109	-0.202	-0.159
-434.705	-145.643	-0.335	0.030
-433.690	-31.699	-0.240	0.134
-432.676	800.000	-0.029	-0.127
-431.661	-200.000	-0.016	0.307
-430.646	-52.298	-0.227	-0.105
-429.632	64.258	0.231	-0.232
-428.617	-63.084	-0.331	-0.136
-427.603	97.481	0.096	0.110
-426.588	-96.292	-0.110	0.029
-425.573	142.885	0.043	0.057
-424.559	397.929	-0.157	-0.328
-423.544	800.000	0.111	0.316
-422.530	800.000	0.072	-0.205
-421.515	-200.000	0.021	-0.132
-420.500	800.000	-0.024	-0.073
-419.486	-116.263	-0.128	0.024
-418.471	-141.449	0.265	-0.027
-417.457	-138.036	0.223	0.025
-416.442	52.940	0.155	0.148
-415.428	-89.414	-0.166	-0.049
-414.413	65.094	-0.185	-0.186
-413.398	-1.847	0.162	0.114
-412.384	-200.000	0.006	-0.325
-411.369	225.362	-0.133	-0.215
-410.355	-163.752	0.176	0.008
-409.340	73.006	0.051	-0.053
-408.325	795.252	-0.028	0.076
-407.311	-46.279	0.392	-0.192
-406.296	-53.471	-0.180	0.082
-405.282	33.072	-0.403	-0.349
-404.267	800.000	0.115	0.360
-403.252	82.272	0.119	0.129
-402.238	200.619	-0.170	-0.261
-401.223	236.118	0.118	0.194
-400.209	95.917	-0.087	0.099
-399.194	82.550	0.247	-0.268
-398.179	-34.372	0.101	-0.055
-397.165	-77.921	0.280	0.096
-396.150	-136.759	0.063	-0.007
-395.136	-200.000	-0.001	-0.141
-394.121	-9.057	0.307	0.205
-393.106	-75.919	0.057	-0.020
-392.092	735.787	-0.013	0.035
-391.077	-172.114	-0.113	0.004
-390.063	-200.000	0.015	-0.088
-389.048	385.776	0.214	0.440
-388.033	46.946	-0.174	0.161
-387.019	-80.064	0.095	0.032
-386.004	486.612	0.079	0.179
-384.990	-89.014	0.297	0.088
-383.975	-71.897	-0.009	-0.003
-382.960	-61.725	-0.074	-0.031
-381.946	615.412	0.040	0.099
-380.931	-200.000	0.058	-0.280
-379.917	760.944	0.033	0.088
-378.902	-200.000	0.019	0.315
-377.888	-56.403	0.381	0.168
-376.873	-6.789	0.285	-0.194
-375.858	-200.000	-0.004	-0.070
-374.844	16.755	-0.217	0.171
-373.829	-111.940	-0.232	0.047
-372.815	308.301	0.173	0.321
-371.800	-200.000	0.007	0.130
-370.785	-176.694	0.289	0.007
-369.771	-200.000	0.035	-0.231
-368.756	-43.249	0.139	-0.070
-367.742	35.117	0.066	0.058
-366.727	473.915	-0.020	0.044
-365.712	19.388	0.143	-0.115
-364.698	-17.792	0.078	0.049
-363.683	60.306	0.071	0.070
-362.669	80.090	0.085	0.091
-361.654	83.557	0.304	0.330
-360.639	298.895	0.106	-0.194
-359.625	793.666	-0.093	-0.254
-358.610	-200.000	0.011	0.078
-357.596	27.590	-0.225	0.189
-356.581	-57.667	-0.280	0.122
-355.566	284.001	-0.172	0.308
-354.552	800.000	0.087	-0.274
-353.537	-39.254	0.216	-0.113
-352.523	-71.471	-0.182	0.068
-351.508	601.535	0.194	0.480
-350.493	-71.215	-0.349	0.131
-349.479	791.969	0.106	-0.289
-348.464	-200.000	-0.053	0.350
-347.450	128.325	-0.045	0.057
-346.435	-200.000	0.018	-0.240
-345.420	86.344	0.298	0.327
-344.406	788.000	-0.065	-0.177
-343.391	42.088	-0.173	-0.156
-342.377	-62.999	0.115	-0.047
-341.362	-128.890	-0.214	-0.030
-340.348	-35.506	0.270	0.146
-339.333	-200.000	-0.050	0.238
-338.318	-200.000	0.013	-0.505
-337.304	-50.480	-0.300	0.141
-336.289	73.872	0.068	0.071
-335.275	157.217	-0.151	0.207
-334.260	-144.951	0.089	0.008
-333.245	-107.363	0.044	-0.010
-332.231	-90.045	-0.262	-0.076
-331.216	-134.568	-0.136	0.017
-330.202	54.283	0.088	0.085
-329.187	650.563	-0.022	0.057
-328.172	119.318	0.171	0.211
-327.158	205.014	0.104	0.161
-326.143	87.003	-0.195	-0.214
-325.129	-45.222	0.361	0.178
-324.114	-200.000	0.021	0.155
-323.099	-92.209	0.300	0.084
-322.085	-200.000	0.033	0.178
-321.070	800.000	0.031	0.098
-320.056	-199.398	-0.325	-0.002
-319.041	-200.000	-0.010	-0.116
-318.026	113.684	0.238	0.288
-317.012	181.836	0.366	0.536
-315.997	19.140	-0.155	-0.124
-314.983	59.221	0.076	-0.074
-313.968	-91.325	-0.122	0.035
-312.953	280.688	-0.104	0.185
-311.939	-102.338	-0.187	0.045
-310.924	532.507	0.066	0.156
-309.910	-102.027	0.044	-0.010
-308.895	800.000	-0.099	-0.340
-307.880	800.000	0.110	0.344
-306.866	71.747	-0.177	0.183
-305.851	800.000	0.074	-0.226
-304.837	-200.000	0.039	-0.276
-303.822	20.134	0.235	0.188
-302.807	-69.184	-0.182	0.069
-301.793	20.712	0.326	0.262
-300.778	51.495	-0.163	-0.154
-299.764	323.120	-0.031	0.059
-298.749	8.453	-0.172	0.129
-297.735	132.341	-0.083	0.107
-296.720	-200.000	-0.065	0.418
-295.705	800.000	0.088	-0.249
-294.691	-92.918	0.084	-0.023
-293.676	-85.257	0.169	-0.052
-292.662	-97.695	-0.066	0.017
-291.647	25.305	-0.098	0.081
-290.632	-19.055	0.079	-0.049
-289.618	101.765	-0.175	0.203
-288.603	-105.776	0.163	-0.037
-287.589	176.883	0.200	0.288
-286.574	-158.950	0.149	0.008
-285.559	-25.084	-0.077	0.045
-284.545	800.000	-0.037	-0.162
-283.530	800.000	-0.092	-0.391
-282.516	-89.941	-0.198	0.057
-281.501	-100.243	0.449	0.111
-280.486	-200.000	-0.003	0.247
-279.472	800.000	0.078	-0.245
-278.457	169.511	0.105	0.149
-277.443	746.075	-0.032	-0.086
-276.428	-11.725	-0.191	-0.124
-275.413	-164.480	0.347	0.016
-274.399	777.244	-0.066	-0.179
-273.384	-71.700	0.097	-0.036
-272.370	-79.315	-0.218	-0.073
-271.355	-200.000	-0.013	-0.199
-270.340	800.000	0.022	0.087
-269.326	11.229	-0.118	-0.090
-268.311	-90.613	-0.161	-0.046
-267.297	-86.443	0.210	-0.064
-266.282	-164.299	0.386	0.018
-265.267	251.902	-0.074	0.126
-264.253	114.121	-0.125	-0.151
-263.238	-28.630	0.171	-0.097
-262.224	-200.000	0.002	-0.057
-261.209	-4.365	0.160	0.110
-260.195	-139.938	-0.149	-0.016
-259.180	-200.000	-0.019	-0.147
-258.165	13.716	-0.171	-0.131
-257.151	38.574	-0.045	-0.040
-256.136	-16.727	-0.121	-0.076
-255.122	-117.754	0.310	0.055
-254.107	-27.132	-0.289	0.167
-253.092	800.000	0.107	-0.397
-252.078	-140.083	-0.196	-0.020
-251.063	-31.926	-0.133	-0.074
-250.049	-82.096	0.162	-0.052
-249.034	800.000	0.084	-0.281
-248.019	38.155	0.050	0.044
-247.005	800.000	0.085	0.318
-245.990	177.634	-0.090	0.130
-244.976	-43.040	-0.243	-0.122
-243.961	228.548	0.140	0.226
-242.946	512.296	0.034	0.078
-241.932	800.000	-0.065	-0.246
-240.917	-200.000	0.119	-0.549
-239.903	-124.162	0.055	-0.009
-238.888	-7.735	0.108	-0.073
-237.873	800.000	-0.090	0.255
-236.859	-200.000	-0.064	0.279
-235.844	65.996	0.112	0.112
-234.830	257.556	0.134	0.229
-233.815	-200.000	0.013	0.255
-232.800	-144.280	-0.380	-0.035
-231.786	105.505	0.091	0.107
-230.771	-93.794	-0.110	-0.030
-229.757	34.164	-0.042	-0.036
-228.742	34.238	-0.277	-0.239
-227.727	-7.492	0.147	0.099
-226.713	-164.852	0.416	0.018
-225.698	-58.327	-0.147	0.063
-224.684	6.948	-0.050	0.037
-223.669	-44.842	-0.121	0.060
-222.655	378.572	0.077	0.156
-221.640	149.874	0.023	-0.030
-220.625	10.350	-0.168	-0.127
-219.611	-175.810	0.305	-0.008
-218.596	-200.000	-0.011	0.092
-217.582	131.199	0.220	-0.280
-216.567	-200.000	-0.029	-0.365
-215.552	-200.000	0.029	0.130
-214.538	769.033	0.026	0.070
-213.523	-200.000	-0.001	-0.126
-212.509	-95.239	-0.146	0.039
-211.494	-85.558	-0.312	-0.096
-210.479	449.441	0.055	0.121
-209.465	-114.751	-0.089	0.017
-208.450	-33.298	0.369	-0.202
-207.436	-165.166	0.215	0.009
-206.421	613.515	-0.059	0.145
-205.406	-200.000	0.007	0.127
-204.392	69.518	0.159	0.162
-203.377	-200.000	-0.006	0.057
-202.363	800.000	0.044	-0.189
-201.348	-18.481	-0.153	0.095
-200.333	669.746	-0.118	0.302
-199.319	-178.608	-0.056	-0.001
-198.304	-118.708	0.214	0.037
-197.290	-200.000	0.033	-0.290
-196.275	-96.477	-0.173	-0.045
-195.260	-0.232	0.161	-0.113
-194.246	-103.252	-0.225	-0.053
-193.231	-200.000	-0.032	-0.384
-192.217	-104.266	0.221	-0.051
-191.202	164.811	0.010	-0.014
-190.187	-144.165	-0.267	-0.025
-189.173	-129.643	0.366	-0.050
-188.158	-53.197	-0.171	-0.078
-187.144	487.818	-0.032	0.071
-186.129	319.689	-0.073	-0.137
-185.114	-200.000	-0.016	-0.164
-184.100	2.138	0.186	0.133
-183.085	-78.368	0.342	0.116
-182.071	-200.000	-0.090	0.392
-181.056	398.582	-0.074	-0.153
-180.042	-200.000	-0.021	0.093
-179.027	415.164	0.124	-0.262
-178.012	-71.505	0.291	0.108
-176.998	38.000	0.187	-0.164
-175.983	-50.171	-0.101	-0.047
-174.969	-92.816	0.392	0.108
-173.954	-151.739	-0.387	0.028
-172.939	-200.000	0.053	-0.337
-171.925	-200.000	0.010	0.077
-170.910	-165.165	0.378	0.017
-169.896	80.858	-0.295	-0.314
-168.881	-182.584	0.275	-0.005
-167.866	205.999	-0.088	-0.135
-166.852	-176.951	-0.271	-0.007
-165.837	800.000	-0.069	-0.288
-164.823	800.000	-0.040	-0.122
-163.808	204.576	0.056	-0.086
-162.793	-146.323	0.172	-0.015
-161.779	-131.376	-0.196	-0.026
-160.764	-112.111	-0.253	0.050
-159.750	-100.001	-0.421	0.104
-158.735	-120.530	0.157	0.026
-157.720	402.962	0.110	0.229
-156.706	-100.516	-0.220	0.054
-155.691	170.610	-0.263	-0.372
-154.677	107.893	-0.192	0.225
-153.662	800.000	0.101	0.433
-152.647	-56.174	0.085	-0.037
-151.633	-200.000	0.107	0.468
-150.618	-103.703	-0.196	-0.045
-149.604	-57.894	-0.380	-0.164
-148.589	-83.441	-0.183	-0.058
-147.574	-200.000	0.024	0.135
-146.560	724.517	-0.164	-0.432
-145.545	800.000	-0.124	0.407
-144.531	12.046	0.080	0.061
-143.516	-200.000	-0.020	0.243
-142.502	-63.753	-0.097	-0.039
-141.487	241.343	0.166	-0.273
-140.472	-74.402	0.359	-0.128
-139.458	-109.132	-0.241	0.051
-138.443	30.831	-0.151	0.128
-137.429	158.780	0.109	0.149
-136.414	174.811	0.237	0.338
-135.399	800.000	0.137	-0.463
-134.385	96.714	0.096	-0.108
-133.370	800.000	0.098	0.338
-132.356	800.000	0.061	0.178
-131.341	-120.026	-0.283	0.048
-130.326	123.014	0.145	-0.180
-129.312	-200.000	-0.026	-0.146
-128.297	-10.848	0.228	0.148
-127.283	-91.190	-0.193	0.055
-126.268	-41.593	-0.264	0.134
-125.253	426.621	-0.018	0.039
-124.239	-77.992	0.169	-0.058
-123.224	3.217	0.149	-0.107
-122.210	513.144	0.084	0.193
-121.195	457.142	-0.064	0.141
-120.180	41.001	0.013	-0.012
-119.166	603.448	-0.070	-0.173
-118.151	262.060	-0.030	-0.052
-117.137	80.089	-0.112	-0.119
-116.122	-64.301	-0.124	-0.050
-115.107	-73.412	0.294	0.106
-114.093	9.558	0.096	0.071
-113.078	163.825	-0.160	-0.222
-112.064	-7.896	0.206	-0.137
-111.049	-69.512	-0.152	-0.057
-110.034	100.842	0.257	-0.295
-109.020	-43.526	0.054	0.027
-108.005	-127.231	0.371	-0.054
-106.991	777.808	-0.066	0.178
-105.976	800.000	-0.022	0.071
-104.962	136.902	0.070	0.091
-103.947	-35.442	0.275	-0.148
-102.932	800.000	0.086	-0.284
-101.918	120.363	-0.059	-0.072
-100.903	664.782	0.068	0.173
-99.889	-111.656	0.441	-0.088
-98.874	-177.797	-0.216	0.005
-97.859	-63.387	-0.144	-0.058
-96.845	193.610	0.260	0.388
-95.830	100.966	-0.203	0.233
-94.816	329.575	-0.025	-0.047
-93.801	40.149	0.108	0.096
-92.786	-111.480	0.106	0.021
-91.772	-2.071	-0.347	-0.240
-90.757	800.000	-0.051	-0.144
-89.743	-53.053	0.167	-0.076
-88.728	-84.184	-0.201	0.063
-87.713	800.000	-0.039	-0.156
-86.699	148.622	0.125	-0.167
-85.684	-25.041	-0.226	-0.132
-84.670	-200.000	-0.026	0.401
-83.655	-66.166	0.244	-0.096
-82.640	100.788	-0.173	-0.198
-81.626	410.678	0.070	-0.145
-80.611	-200.000	-0.009	0.136
-79.597	-200.000	0.022	0.129
-78.582	800.000	-0.084	-0.233
-77.567	527.014	-0.029	0.067
-76.553	-200.000	-0.017	-0.082
-75.538	118.043	0.006	0.007
-74.524	-200.000	-0.025	0.273
-73.509	-42.013	0.217	0.109
-72.494	800.000	-0.114	-0.320
-71.480	692.280	0.089	0.230
-70.465	-99.391	-0.117	-0.029
-69.451	800.000	-0.083	-0.341
-68.436	-200.000	-0.300	-0.001
-67.422	-174.260	0.117	-0.003
-66.407	-12.356	0.413	-0.266
-65.392	800.000	-0.025	-0.104
-64.378	30.533	0.141	0.119
-63.363	-70.332	0.329	-0.123
-62.349	-200.000	0.004	-0.104
-61.334	117.368	-1.129	-1.367
-60.319	-67.437	0.278	0.107
-59.305	800.000	-0.260	-0.913
-58.290	156.513	0.566	0.769
-57.276	800.000	0.445	1.570
-56.261	-200.000	95.646	574.312
-55.246	550.102	1377.823	3252.378
-54.232	160.074	2553.509	3503.123
-53.217	110.943	2162.741	2562.563
-52.203	43.257	1707.156	1534.263
-51.188	36.226	1520.756	1318.834
-50.173	33.784	1494.130	1279.262
-49.159	52.988	1542.603	1452.623
-48.144	54.609	1560.663	1480.667
-47.130	36.419	1520.200	1319.463
-46.115	33.276	1504.980	1284.902
-45.100	33.164	1501.495	1281.116
-44.086	33.037	1500.027	1278.955
-43.071	33.025	1498.062	1277.145
-42.057	33.000	1496.570	1275.658
-41.042	33.105	1494.873	1274.867
-40.027	33.099	1493.427	1273.544
-39.013	33.022	1492.151	1271.884
-37.998	32.939	1491.125	1270.399
-36.984	32.946	1490.094	1269.521
-35.969	33.010	1488.592	1268.620
-34.954	33.034	1487.224	1267.564
-33.940	33.028	1485.965	1266.398
-32.925	33.077	1484.394	1265.337
-31.911	33.037	1483.200	1264.003
-30.896	33.147	1481.077	1262.882
-29.881	33.130	1480.583	1262.293
-28.867	33.130	1478.852	1260.766
-27.852	33.003	1477.683	1258.879
-26.838	33.104	1475.864	1257.951
-25.823	32.952	1474.854	1256.024
-24.809	32.979	1473.016	1254.590
-23.794	33.021	1471.384	1253.431
-22.779	33.149	1470.154	1253.180
-21.765	33.039	1469.257	1251.634
-20.750	33.085	1467.968	1250.797
-19.736	33.101	1467.116	1250.122
-18.721	32.984	1466.272	1248.584
-17.706	32.931	1465.023	1247.117
-16.692	32.977	1464.043	1246.539
-15.677	32.926	1463.196	1245.429
-14.663	32.935	1462.069	1244.483
-13.648	33.031	1460.732	1243.928
-12.633	32.889	1460.363	1242.627
-11.619	32.939	1459.733	1242.375
-10.604	32.877	1458.622	1240.967
-9.590	32.975	1457.719	1240.796
-8.575	32.990	1456.476	1239.789
-7.560	32.864	1456.134	1238.622
-6.546	32.996	1455.103	1238.563
-5.531	32.997	1454.217	1237.765
-4.517	32.929	1452.819	1236.081
-3.502	32.860	1452.396	1235.221
-2.487	32.944	1451.386	1234.861
-1.473	32.912	1450.189	1233.585
-0.458	32.957	1448.552	1232.435
0.556	33.581	1439.334	1222.024
1.571	30.767	1415.530	1183.839
2.586	27.670	1362.336	1120.261
3.600	26.144	1285.395	1048.049
4.615	24.963	1237.256	1002.104
5.629	21.187	1179.319	934.914
6.644	11.144	1092.041	815.598
7.659	3.293	1048.902	745.429
8.673	2.307	1043.298	736.631
9.688	2.059	1040.125	733.138
10.702	1.929	1038.555	731.342
11.717	2.045	1036.682	730.515
12.731	5.623	1041.085	750.726
13.746	15.632	1055.368	809.382
14.761	23.338	1064.804	853.838
15.775	24.992	1066.676	863.244
16.790	25.296	1066.407	864.413
17.804	25.083	1065.714	862.748
18.819	24.886	1065.102	861.232
19.834	25.119	1064.218	861.559
20.848	25.266	1063.500	861.610
21.863	25.305	1063.291	861.552
22.877	25.292	1062.434	860.717
23.892	25.327	1062.196	860.618
24.907	25.174	1061.183	858.986
25.921	25.220	1060.808	858.827
26.936	25.177	1060.016	857.903
27.950	25.200	1059.072	857.175
28.965	25.197	1057.533	855.837
29.980	25.014	1056.457	854.021
30.994	25.110	1054.766	853.032
32.009	25.207	1054.327	853.067
33.023	25.385	1053.423	853.102
34.038	25.089	1052.392	850.790
35.053	25.132	1051.829	850.462
36.067	25.259	1051.241	850.512
37.082	25.175	1050.439	849.392
38.096	25.361	1049.542	849.472
39.111	25.408	1048.944	849.135
40.126	25.508	1048.471	849.150
41.140	25.505	1046.751	847.667
42.155	25.107	1045.451	844.664
43.169	24.951	1044.265	842.895
44.184	24.990	1043.246	842.183
45.199	24.895	1042.516	841.071
46.213	24.830	1041.321	839.731
47.228	24.696	1040.998	838.767
48.242	25.033	1040.118	839.560
49.257	25.085	1039.307	839.079
50.271	25.157	1038.662	838.819
51.286	25.159	1038.233	838.408
52.301	25.269	1037.282	838.079
53.315	25.424	1036.387	838.004
54.330	25.211	1035.825	836.481
55.344	25.185	1034.946	835.575
56.359	25.223	1034.015	834.929
57.374	25.289	1032.983	834.330
58.388	25.145	1032.210	832.960
59.403	25.031	1031.568	831.842
60.417	25.046	1030.701	831.136
61.432	24.785	1030.221	829.465
62.447	24.797	1029.904	829.195
63.461	24.953	1028.943	829.067
64.476	25.050	1027.788	828.515
65.490	24.969	1027.133	827.540
66.505	24.890	1026.312	826.440
67.520	24.808	1025.611	825.424
68.534	24.922	1025.058	825.432
69.549	24.880	1023.764	824.120
70.563	24.502	1022.749	821.494
71.578	24.548	1021.612	820.721
72.593	24.569	1021.097	820.330
73.607	24.395	1019.693	818.331
74.622	24.477	1018.666	817.809
75.636	24.755	1018.235	818.662
76.651	24.687	1018.261	818.302
77.666	24.646	1017.054	817.070
78.680	24.582	1015.814	815.710
79.695	24.624	1015.014	815.186
80.709	24.764	1015.067	815.796
81.724	24.834	1014.045	815.220
82.739	24.843	1013.076	814.410
83.753	24.854	1011.986	813.512
84.768	25.074	1012.028	814.474
85.782	25.553	1010.948	815.708
86.797	25.613	1010.734	815.735
87.812	25.647	1009.297	814.655
88.826	25.421	1008.343	812.791
89.841	25.437	1007.946	812.471
90.855	25.490	1007.315	812.131
91.870	25.587	1006.364	811.732
92.884	25.414	1005.728	810.364
93.899	25.439	1004.526	809.436
94.914	25.186	1003.934	807.752
95.928	25.402	1003.024	807.920
96.943	25.406	1002.437	807.394
97.957	25.133	1001.198	805.096
98.972	24.879	1000.035	802.950
99.987	24.734	998.935	801.348
101.001	24.821	998.450	801.276
102.016	25.249	997.936	802.709
103.030	25.306	996.782	801.966
104.045	25.112	995.769	800.214
105.060	24.943	994.642	798.481
106.074	24.851	993.785	797.314
107.089	24.761	993.105	796.298
108.103	25.146	992.501	797.456
109.118	25.330	991.784	797.626
110.133	25.012	990.292	794.947
111.147	25.004	989.502	794.202
112.162	24.747	988.390	792.104
113.176	24.554	987.882	790.771
114.191	24.743	986.791	790.666
115.206	24.906	985.850	790.562
116.220	24.662	984.625	788.432
117.235	24.516	983.685	786.968
118.249	24.664	982.966	786.974
119.264	24.726	982.252	786.603
120.279	24.426	981.802	784.857
121.293	24.481	980.717	784.162
122.308	24.512	980.490	784.046
123.322	24.691	979.221	783.747
124.337	24.688	978.115	782.779
125.352	24.536	976.818	781.005
126.366	24.133	975.619	778.220
127.381	23.923	973.897	775.862
128.395	24.420	974.064	778.090
129.410	25.012	973.758	780.358
130.424	25.172	973.294	780.613
131.439	25.171	972.060	779.550
132.454	25.188	971.005	778.711
133.468	25.139	970.354	777.906
134.483	25.038	969.355	776.598
135.497	25.162	968.946	776.741
136.512	25.337	968.332	776.938
137.527	25.356	967.864	776.572
138.541	25.441	967.117	776.273
139.556	25.346	966.307	775.142
140.570	25.302	965.787	774.470
141.585	25.364	964.830	773.900
142.600	25.518	963.824	773.687
143.614	25.464	963.109	772.813
144.629	25.534	962.245	772.351
145.643	25.641	962.156	772.673
146.658	25.671	960.731	771.587
147.673	25.385	959.613	769.395
148.687	25.213	958.611	767.790
149.702	25.217	957.313	766.700
150.716	25.216	956.233	765.759
151.731	25.217	955.420	765.045
152.746	25.299	954.833	764.857
153.760	25.343	954.631	764.818
154.775	25.484	953.671	764.579
155.789	25.610	952.740	764.300
156.804	25.679	951.430	763.476
157.819	25.489	950.833	762.122
158.833	25.552	949.863	761.545
159.848	25.512	949.737	761.207
160.862	25.703	948.627	761.058
161.877	25.425	948.314	759.565
162.892	25.488	947.248	758.907
163.906	25.471	946.177	757.910
164.921	25.599	945.019	757.455
165.935	25.454	944.348	756.241
166.950	25.388	943.432	755.165
167.964	25.574	942.270	754.948
168.979	25.636	941.141	754.236
169.994	25.533	939.898	752.743
171.008	25.351	939.206	751.362
172.023	25.484	938.792	751.517
173.037	25.733	937.904	751.781
174.052	25.667	936.715	750.487
175.067	25.369	935.480	748.188
176.081	25.169	935.392	747.217
177.096	25.276	934.764	747.096
178.110	25.358	933.548	746.401
179.125	25.202	932.544	744.882
180.140	24.846	931.645	742.621
181.154	24.950	930.842	742.346
182.169	25.201	930.455	743.012
183.183	25.267	930.350	743.139
184.198	25.633	929.477	743.885
185.213	25.535	928.547	742.673
186.227	25.349	928.271	741.620
187.242	25.471	927.763	741.650
188.256	25.605	927.088	741.599
189.271	25.768	925.997	741.328
190.286	25.765	925.709	741.023
191.300	25.552	924.511	739.122
192.315	24.802	923.710	735.335
193.329	24.221	921.399	731.048
194.344	23.761	920.542	728.416
195.359	24.278	921.369	731.129
196.373	25.247	921.075	734.800
197.388	25.383	921.050	735.273
198.402	25.328	920.361	734.431
199.417	25.424	919.761	734.281
200.432	25.544	919.247	734.295
201.446	25.231	918.697	732.511
202.461	25.069	917.773	731.052
203.475	25.124	917.071	730.650
204.490	24.643	915.772	727.593
205.504	23.591	913.758	721.654
206.519	23.910	913.554	722.727
207.534	25.040	913.852	727.486
208.548	25.090	913.239	727.140
209.563	25.407	913.214	728.339
210.577	25.315	912.626	727.435
211.592	24.977	911.676	725.245
212.607	25.428	911.829	727.126
213.621	25.687	910.764	727.261
214.636	25.598	910.168	726.361
215.650	25.512	910.041	725.846
216.665	25.538	908.970	725.035
217.680	25.550	908.733	724.831
218.694	25.704	907.995	724.798
219.709	25.367	906.991	722.577
220.723	25.060	905.738	720.278
221.738	25.190	905.396	720.467
222.753	25.454	905.089	721.216
223.767	25.319	904.393	720.056
224.782	25.360	903.744	719.640
225.796	25.781	903.087	720.741
226.811	25.763	902.625	720.237
227.826	25.314	900.979	717.066
228.840	24.420	899.972	712.631
229.855	24.260	899.559	711.603
230.869	24.676	899.131	712.861
231.884	24.340	898.282	710.788
232.899	24.420	897.953	710.780
233.913	25.208	897.754	713.697
234.928	25.331	897.464	713.894
235.942	25.343	896.457	713.077
236.957	25.277	896.138	712.499
237.972	25.114	895.013	710.894
238.986	24.826	894.509	709.289
240.001	25.159	893.270	709.561
241.015	25.145	893.255	709.430
242.030	25.053	892.670	708.540
243.045	25.307	892.141	709.060
244.059	25.396	891.223	708.621
245.074	25.620	891.140	709.376
246.088	25.619	890.066	708.453
247.103	25.107	889.597	706.003
248.117	25.075	889.009	705.349
249.132	25.680	889.014	707.670
250.147	26.032	889.424	709.318
251.161	26.178	888.145	708.807
252.176	26.186	888.300	708.900
253.190	26.270	887.518	708.541
254.205	26.311	887.083	708.291
255.220	26.643	886.180	708.808
256.234	26.541	886.142	708.317
257.249	26.462	885.557	707.476
258.263	26.230	884.434	705.611
259.278	26.262	883.987	705.318
260.293	26.344	883.574	705.244
261.307	26.349	883.231	704.929
262.322	26.467	881.969	704.319
263.336	26.222	881.909	703.253
264.351	25.739	879.947	699.750
265.366	24.603	878.483	694.113
266.380	24.234	877.300	691.685
267.395	25.029	878.088	695.332
268.409	25.802	878.245	698.392
269.424	25.724	877.536	697.466
270.439	26.056	876.935	698.213
271.453	26.268	876.122	698.322
272.468	26.146	875.397	697.213
273.482	26.389	875.223	697.951
274.497	26.380	874.987	697.664
275.512	26.151	873.864	695.824
276.526	25.689	872.492	692.894
277.541	25.881	871.960	693.147
278.555	26.194	872.014	694.332
279.570	26.075	871.307	693.250
280.585	25.859	870.470	691.695
281.599	25.971	870.105	691.775
282.614	26.094	869.118	691.400
283.628	25.620	868.328	688.894
284.643	25.191	867.587	686.602
285.657	25.692	867.286	688.223
286.672	25.574	866.641	687.196
287.687	24.995	865.867	684.311
288.701	25.466	865.991	686.148
289.716	25.651	865.752	686.605
290.730	25.424	864.589	684.754
291.745	25.343	864.209	684.085
292.760	25.153	863.042	682.379
293.774	25.082	862.483	681.606
294.789	26.041	863.073	685.661
295.803	26.532	863.108	687.493
296.818	26.634	862.706	687.497
297.833	26.797	861.869	687.387
298.847	26.554	861.112	685.803
299.862	25.976	860.162	682.800
300.876	26.221	859.699	683.298
301.891	26.649	859.357	684.582
302.906	26.578	859.144	684.085
303.920	26.282	857.819	681.854
304.935	26.085	857.242	680.591
305.949	26.598	856.649	681.992
306.964	26.661	856.206	681.816
307.979	26.430	855.559	680.373
308.993	26.325	855.210	679.641
310.008	26.774	854.984	681.086
311.022	26.818	854.430	680.749
312.037	26.567	854.146	679.523
313.052	26.385	853.244	678.060
314.066	26.180	852.570	676.699
315.081	25.581	850.959	673.119
316.095	24.845	849.870	669.446
317.110	25.440	849.971	671.692
318.125	26.368	850.165	675.254
319.139	25.880	849.337	672.714
320.154	24.686	847.348	666.628
321.168	24.316	846.434	664.475
322.183	24.993	846.592	667.062
323.197	25.946	846.607	670.558
324.212	26.233	846.404	671.406
325.227	26.216	846.801	671.597
326.241	26.522	845.819	671.898
327.256	26.453	845.156	671.056
328.270	26.196	844.718	669.693
329.285	26.181	844.030	669.035
330.300	26.071	843.030	667.777
331.314	25.694	842.442	665.856
332.329	25.822	841.731	665.709
333.343	26.251	841.715	667.221
334.358	26.495	841.486	667.880
335.373	26.507	840.526	667.104
336.387	26.633	839.762	666.902
337.402	26.850	839.920	667.768
338.416	27.058	839.439	668.093
339.431	26.862	839.138	667.073
340.446	26.781	838.638	666.318
341.460	27.200	837.998	667.288
342.475	27.121	837.512	666.552
343.489	26.830	836.872	664.918
344.504	26.892	836.008	664.402
345.519	27.195	836.146	665.561
346.533	27.308	835.697	665.558
347.548	27.343	835.015	665.084
348.562	27.337	834.850	664.871
349.577	27.469	833.843	664.492
350.592	27.477	833.180	663.934
351.606	27.359	833.125	663.401
352.621	27.196	832.645	662.367
353.635	27.122	831.885	661.434
354.650	26.969	831.330	660.379
355.665	26.801	830.262	658.862
356.679	25.923	828.216	653.994
357.694	25.593	828.375	652.866
358.708	26.191	828.329	654.939
359.723	26.120	827.875	654.268
360.738	26.401	827.408	654.857
361.752	26.887	827.235	656.421
362.767	26.926	827.328	656.580
363.781	27.162	826.993	657.108
364.796	27.619	826.512	658.317
365.810	27.720	826.230	658.401
366.825	27.749	825.864	658.155
367.840	27.765	825.397	657.781
368.854	27.532	824.930	656.512
369.869	27.128	823.992	654.252
370.883	26.912	823.327	652.890
371.898	26.985	823.181	652.978
372.913	26.994	821.967	651.991
373.927	26.926	821.478	651.302
374.942	27.122	821.145	651.683
375.956	27.242	820.264	651.358
376.971	27.388	820.086	651.678
377.986	27.354	819.672	651.169
379.000	27.658	818.840	651.539
380.015	27.683	818.657	651.426
381.029	27.593	817.648	650.242
382.044	27.518	817.212	649.573
383.059	27.549	817.165	649.587
384.073	27.745	816.241	649.495
385.088	27.702	815.772	648.908
386.102	27.660	815.109	648.174
387.117	27.355	814.552	646.592
388.132	27.313	814.074	646.007
389.146	27.163	813.157	644.688
390.161	26.766	812.293	642.539
391.175	26.709	811.936	642.000
392.190	27.392	811.802	644.253
393.205	27.304	811.424	643.588
394.219	26.138	809.972	638.257
395.234	24.659	807.604	631.118
396.248	23.881	806.602	627.532
397.263	25.045	807.639	632.395
398.278	26.808	808.452	639.195
399.292	27.353	808.400	641.020
400.307	26.896	808.111	639.123
401.321	26.893	807.869	638.866
402.336	26.896	807.344	638.404
403.350	27.219	807.195	639.367
404.365	27.711	807.279	641.107
405.380	28.168	806.368	641.928
406.394	28.286	806.398	642.310
407.409	28.448	806.076	642.565
408.423	28.350	805.548	641.745
409.438	28.238	805.166	640.992
410.453	28.357	804.707	640.985
411.467	28.536	803.993	640.986
412.482	28.335	803.579	639.896
413.496	28.262	803.438	639.473
414.511	28.545	802.823	639.912
415.526	28.279	802.491	638.664
416.540	28.282	802.429	638.570
417.555	28.058	801.943	637.346
418.569	28.219	800.780	636.925
419.584	28.091	799.950	635.764
420.599	28.038	800.002	635.564
421.613	110.779	1284.418	1455.255
422.628	95.570	1354.956	1455.343
