DTS Sentinel unit serial number:	SN413079Multiplexer serial number:	ORYXHardware model number:	OX4-SRSoftware version number:	ORYX F/W v4.00 Oryx Data Collector v3.7.2.0data status	okinstallation	princeton_trtdifferential loss correction	single-endedforward channel	channel 3reverse channel	N/Adate	2019/09/12time	02:34:11forward acquisition time	60.00reverse acquisition time	0.00gamma	496.2192k internal	0.2321k external	0.2321temperature offset calibration	1.0068default loss term (dB/km)	0.3790temperature slope calibration	1.0000multiplexer offset coefficient	1.0000multiplexer slope coefficient	1.0000fibre end	0.00T internal ref (°C)	32.44T ext. ref 1 (°C)	2.08T ext. ref 2 (°C)	27.36length (m)	temperature (°C)	Stokes	anti-Stokes-747.200	-115.528	0.450	-0.086
-746.185	-144.550	-0.201	0.019
-745.171	-26.237	0.154	-0.092
-744.156	60.058	-0.146	0.146
-743.142	-200.000	0.051	0.262
-742.127	66.321	0.187	0.192
-741.112	-111.589	0.260	0.053
-740.098	-200.000	-0.056	0.279
-739.083	-170.554	-0.210	-0.007
-738.069	-152.034	0.113	-0.008
-737.054	-200.000	-0.025	-0.147
-736.039	-48.636	-0.276	-0.134
-735.025	281.997	0.093	0.169
-734.010	403.064	0.093	-0.198
-732.996	-83.506	-0.066	0.021
-731.981	161.977	0.046	-0.065
-730.966	-200.000	0.048	0.375
-729.952	-200.000	-0.011	-0.099
-728.937	-75.374	-0.136	-0.049
-727.923	463.521	-0.125	0.282
-726.908	-98.255	-0.184	0.048
-725.894	-43.029	-0.061	0.031
-724.879	466.904	0.043	-0.098
-723.864	423.492	-0.078	-0.169
-722.850	-69.220	-0.151	0.059
-721.835	-98.822	0.135	0.035
-720.821	774.630	-0.081	0.223
-719.806	-109.989	-0.164	-0.035
-718.791	40.294	-0.336	-0.305
-717.777	-75.576	0.106	-0.038
-716.762	349.057	0.100	0.199
-715.748	73.841	0.135	-0.143
-714.733	274.310	-0.101	-0.181
-713.718	-165.122	-0.308	-0.014
-712.704	15.513	0.138	-0.109
-711.689	800.000	-0.032	-0.098
-710.675	800.000	0.079	-0.223
-709.660	269.601	-0.071	-0.126
-708.645	800.000	-0.105	-0.400
-707.631	-200.000	-0.030	-0.331
-706.616	-157.838	-0.305	-0.018
-705.602	115.610	-0.075	0.093
-704.587	-56.104	0.206	-0.093
-703.572	773.781	-0.091	-0.249
-702.558	-200.000	-0.019	-0.124
-701.543	95.272	-0.120	0.138
-700.529	-200.000	-0.008	0.129
-699.514	-78.137	-0.235	0.082
-698.499	-26.778	-0.316	0.186
-697.485	-200.000	0.001	-0.075
-696.470	-200.000	-0.013	0.331
-695.456	-23.478	0.047	-0.028
-694.441	800.000	-0.006	-0.019
-693.426	168.495	0.201	0.289
-692.412	-200.000	-0.005	-0.485
-691.397	-8.456	-0.127	0.086
-690.383	125.268	0.307	0.390
-689.368	-36.514	-0.291	-0.158
-688.354	-136.330	0.089	-0.011
-687.339	427.854	-0.193	0.421
-686.324	800.000	-0.024	0.081
-685.310	231.649	0.133	-0.220
-684.295	-141.360	-0.241	-0.025
-683.281	-154.896	-0.408	-0.027
-682.266	165.062	-0.143	-0.204
-681.251	264.298	-0.088	-0.155
-680.237	-105.877	-0.156	-0.035
-679.222	-24.556	0.151	0.091
-678.208	-45.795	0.061	0.030
-677.193	-200.000	0.064	0.376
-676.178	625.820	-0.156	0.397
-675.164	12.392	-0.235	-0.183
-674.149	800.000	-0.044	-0.135
-673.135	800.000	0.014	-0.040
-672.120	310.326	0.060	0.113
-671.105	-200.000	0.004	0.047
-670.091	23.908	0.249	-0.207
-669.076	444.477	0.071	-0.158
-668.062	-67.567	-0.248	-0.098
-667.047	126.092	0.243	-0.309
-666.032	189.976	-0.090	-0.136
-665.018	-200.000	0.037	-0.224
-664.003	-200.000	0.015	0.175
-662.989	144.626	-0.060	-0.081
-661.974	-200.000	-0.012	-0.310
-660.959	36.832	-0.250	-0.223
-659.945	179.264	0.107	-0.158
-658.930	701.125	-0.048	0.127
-657.916	453.759	0.072	0.161
-656.901	762.986	0.100	-0.274
-655.886	19.454	0.182	-0.147
-654.872	-107.369	-0.116	0.026
-653.857	37.986	-0.173	0.155
-652.843	148.179	-0.143	-0.195
-651.828	-48.182	0.254	-0.124
-650.814	-135.009	0.130	0.016
-649.799	-200.000	-0.035	-0.260
-648.784	-95.613	-0.371	0.100
-647.770	-129.137	-0.178	0.025
-646.755	-135.569	0.132	0.016
-645.741	508.083	-0.047	-0.110
-644.726	-46.364	0.339	0.168
-643.711	-58.168	-0.147	0.064
-642.697	-10.995	0.201	0.134
-641.682	-151.894	-0.280	-0.021
-640.668	205.833	-0.024	0.038
-639.653	392.410	-0.066	0.139
-638.638	36.456	0.272	-0.241
-637.624	-200.000	-0.012	0.079
-636.609	-174.329	-0.106	-0.003
-635.595	-200.000	-0.007	-0.375
-634.580	-59.465	-0.183	-0.079
-633.565	-200.000	0.022	-0.222
-632.551	-46.687	0.272	-0.134
-631.536	435.934	-0.051	-0.111
-630.522	-21.690	-0.304	0.186
-629.507	739.476	-0.110	-0.298
-628.492	104.059	0.266	0.314
-627.478	-200.000	0.076	0.366
-626.463	-87.896	0.326	0.099
-625.449	-27.464	0.384	-0.225
-624.434	750.628	0.045	0.123
-623.419	84.170	0.157	-0.172
-622.405	800.000	-0.133	0.379
-621.390	-134.330	0.331	0.041
-620.376	66.412	-0.180	0.184
-619.361	-66.536	-0.326	0.130
-618.346	5.641	0.174	-0.129
-617.332	74.153	0.231	-0.244
-616.317	-102.678	0.195	-0.047
-615.303	-44.909	-0.116	-0.058
-614.288	30.824	0.232	0.199
-613.273	-96.972	0.137	-0.036
-612.259	281.330	-0.130	-0.234
-611.244	-200.000	0.007	-0.353
-610.230	115.401	-0.174	-0.214
-609.215	352.702	-0.060	0.120
-608.201	-13.334	-0.122	-0.079
-607.186	-200.000	0.011	0.294
-606.171	63.441	0.213	-0.215
-605.157	-60.625	-0.154	-0.066
-604.142	-200.000	-0.002	0.062
-603.128	107.942	-0.229	0.275
-602.113	304.494	-0.145	0.270
-601.098	-74.307	0.071	0.026
-600.084	-53.246	0.218	0.101
-599.069	800.000	0.050	-0.176
-598.055	350.452	-0.153	0.304
-597.040	800.000	0.080	0.286
-596.025	386.261	-0.077	0.159
-595.011	-182.839	-0.253	-0.005
-593.996	-114.142	-0.348	-0.068
-592.982	496.499	0.037	-0.086
-591.967	130.435	0.164	-0.211
-590.952	-200.000	-0.009	-0.578
-589.938	-82.642	-0.467	-0.152
-588.923	-20.043	0.128	0.079
-587.909	-200.000	-0.006	-0.360
-586.894	-200.000	0.008	-0.265
-585.879	-100.379	0.039	0.010
-584.865	800.000	0.085	-0.334
-583.850	-200.000	-0.056	-0.379
-582.836	-200.000	0.008	0.143
-581.821	43.156	-0.054	0.049
-580.806	104.150	-0.170	-0.200
-579.792	16.017	-0.116	-0.092
-578.777	275.367	-0.244	-0.434
-577.763	-92.444	-0.169	0.048
-576.748	-155.195	-0.515	0.034
-575.733	-200.000	-0.026	-0.367
-574.719	-180.145	-0.478	0.010
-573.704	-124.370	0.241	0.038
-572.690	800.000	0.024	-0.090
-571.675	-145.590	0.241	-0.022
-570.661	-46.501	-0.045	0.022
-569.646	-68.320	0.083	0.032
-568.631	575.263	-0.059	0.144
-567.617	-8.460	0.174	-0.118
-566.602	238.692	0.071	-0.118
-565.588	-164.368	-0.029	-0.001
-564.573	339.955	0.138	-0.270
-563.558	-200.000	-0.014	0.368
-562.544	-172.322	-0.043	0.001
-561.529	-45.737	-0.168	0.083
-560.515	559.995	0.020	0.049
-559.500	130.477	0.120	0.155
-558.485	800.000	0.033	-0.093
-557.471	-151.547	-0.288	-0.021
-556.456	-134.156	0.259	0.032
-555.442	79.996	0.188	0.203
-554.427	-30.328	-0.238	0.135
-553.412	-35.820	0.147	0.080
-552.398	483.094	0.051	0.117
-551.383	-7.736	0.369	0.250
-550.369	123.593	0.088	-0.111
-549.354	800.000	-0.051	0.176
-548.339	733.765	0.006	0.015
-547.325	145.741	-0.116	-0.156
-546.310	9.120	0.263	0.199
-545.296	506.856	-0.097	-0.226
-544.281	359.469	-0.093	0.186
-543.266	-90.436	-0.239	0.069
-542.252	-122.366	-0.097	-0.016
-541.237	-32.881	-0.079	-0.044
-540.223	383.649	0.077	0.159
-539.208	-63.243	-0.051	-0.021
-538.193	-200.000	0.034	-0.213
-537.179	124.184	-0.157	0.198
-536.164	-115.851	-0.145	0.027
-535.150	463.105	0.076	-0.169
-534.135	-200.000	0.009	0.128
-533.121	-102.215	0.223	-0.054
-532.106	-3.877	0.160	-0.111
-531.091	-15.958	-0.155	-0.099
-530.077	-150.964	0.217	-0.016
-529.062	107.793	-0.230	0.274
-528.048	4.456	-0.019	0.014
-527.033	362.622	-0.040	-0.081
-526.018	-132.279	0.195	0.025
-525.004	13.123	0.308	0.239
-523.989	208.017	-0.122	0.191
-522.975	164.529	0.102	-0.144
-521.960	-200.000	-0.031	-0.333
-520.945	7.536	0.138	0.103
-519.931	-22.436	-0.178	0.108
-518.916	238.922	-0.191	-0.318
-517.902	132.670	0.169	-0.218
-516.887	277.943	0.072	0.129
-515.872	-200.000	-0.100	0.488
-514.858	-200.000	0.009	-0.099
-513.843	-55.218	-0.007	0.003
-512.829	55.710	0.038	0.037
-511.814	800.000	0.097	-0.302
-510.799	35.373	-0.339	-0.298
-509.785	-102.450	-0.315	-0.076
-508.770	-138.965	-0.334	0.036
-507.756	800.000	-0.053	-0.175
-506.741	-6.549	0.266	-0.181
-505.726	793.838	0.072	0.199
-504.712	30.638	0.125	0.107
-503.697	-93.808	-0.382	-0.105
-502.683	-105.308	-0.120	0.027
-501.668	800.000	0.003	-0.011
-500.653	-26.118	-0.336	0.198
-499.639	-22.027	0.306	0.186
-498.624	-35.527	0.110	0.060
-497.610	800.000	0.085	0.331
-496.595	800.000	-0.059	0.193
-495.581	166.741	0.066	-0.094
-494.566	67.462	-0.177	0.181
-493.551	78.025	0.059	-0.063
-492.537	426.480	-0.124	0.268
-491.522	-163.884	-0.158	-0.007
-490.508	712.691	-0.046	-0.122
-489.493	-98.701	0.251	-0.064
-488.478	-158.326	-0.210	0.012
-487.464	-57.998	-0.163	0.071
-486.449	-200.000	0.013	-0.129
-485.435	-50.096	-0.235	0.111
-484.420	715.194	0.041	-0.109
-483.405	-200.000	0.024	-0.215
-482.391	800.000	0.075	0.247
-481.376	800.000	-0.021	0.075
-480.362	273.621	-0.056	-0.100
-479.347	-37.496	0.182	0.097
-478.332	-75.664	-0.227	0.081
-477.318	-200.000	0.002	0.138
-476.303	248.482	0.215	-0.364
-475.289	800.000	-0.036	0.141
-474.274	-46.256	-0.235	-0.115
-473.259	-71.775	-0.090	-0.033
-472.245	50.731	0.117	-0.111
-471.230	210.092	-0.125	0.197
-470.216	-133.705	0.200	0.025
-469.201	-79.106	0.128	-0.043
-468.186	-127.777	-0.008	-0.001
-467.172	-200.000	0.056	-0.601
-466.157	-200.000	0.069	-0.405
-465.143	530.137	-0.054	-0.127
-464.128	241.540	-0.055	-0.092
-463.113	-108.574	0.158	-0.034
-462.099	529.885	-0.067	0.158
-461.084	200.502	0.033	-0.051
-460.070	-1.982	0.102	0.072
-459.055	-11.757	-0.307	-0.201
-458.040	593.566	-0.130	-0.320
-457.026	800.000	-0.076	-0.281
-456.011	-19.117	0.158	-0.098
-454.997	-200.000	0.043	-0.328
-453.982	22.398	-0.101	0.083
-452.968	-101.152	0.280	0.068
-451.953	288.180	0.211	-0.381
-450.938	-200.000	0.029	-0.136
-449.924	18.983	0.253	-0.203
-448.909	247.582	0.126	0.212
-447.895	-200.000	-0.009	0.053
-446.880	-200.000	-0.011	-0.226
-445.865	-200.000	-0.018	0.383
-444.851	45.411	0.038	0.035
-443.836	58.392	-0.143	-0.140
-442.822	-111.347	0.109	0.022
-441.807	87.015	-0.081	-0.090
-440.792	0.975	0.075	0.053
-439.778	-37.631	0.258	-0.137
-438.763	-200.000	-0.015	-0.309
-437.749	-161.838	0.456	-0.023
-436.734	225.403	0.139	0.225
-435.719	112.358	0.167	-0.202
-434.705	45.083	0.101	-0.093
-433.690	715.407	0.049	0.130
-432.676	76.184	0.303	0.320
-431.661	173.846	-0.048	0.069
-430.646	214.866	0.138	0.218
-429.632	-109.050	0.083	0.018
-428.617	-42.467	-0.138	-0.070
-427.603	-64.027	0.086	0.035
-426.588	411.205	0.076	-0.161
-425.573	28.843	-0.193	0.163
-424.559	141.884	0.130	-0.172
-423.544	-32.562	0.192	0.107
-422.530	8.392	-0.252	-0.189
-421.515	564.172	-0.089	0.216
-420.500	800.000	0.114	0.357
-419.486	800.000	0.143	0.408
-418.471	-119.362	-0.103	-0.018
-417.457	-139.110	0.226	-0.024
-416.442	-71.811	0.210	-0.078
-415.428	-200.000	0.011	-0.229
-414.413	800.000	0.059	0.223
-413.398	-200.000	0.031	0.277
-412.384	15.478	0.235	-0.184
-411.369	-200.000	0.002	-0.106
-410.355	40.361	-0.236	-0.212
-409.340	189.997	-0.265	-0.396
-408.325	47.759	-0.229	-0.213
-407.311	155.325	0.137	-0.188
-406.296	-50.813	-0.164	0.077
-405.282	32.666	-0.110	0.095
-404.267	-200.000	0.051	0.232
-403.252	113.055	0.064	0.078
-402.238	195.098	0.214	0.325
-401.223	128.419	-0.097	0.124
-400.209	-109.550	0.296	0.062
-399.194	-71.931	-0.360	-0.134
-398.179	75.011	-0.169	0.177
-397.165	-112.731	0.381	0.075
-396.150	-78.784	-0.211	0.072
-395.136	-200.000	-0.005	0.048
-394.121	-200.000	0.032	0.210
-393.106	-131.583	-0.394	0.052
-392.092	22.740	0.207	0.169
-391.077	17.971	0.186	-0.148
-390.063	9.558	-0.060	0.046
-389.048	-12.193	0.236	-0.154
-388.033	-153.522	0.125	0.009
-387.019	479.907	-0.073	-0.165
-386.004	800.000	-0.110	0.370
-384.990	644.613	-0.110	0.281
-383.975	-87.489	-0.359	-0.108
-382.960	-200.000	0.022	0.100
-381.946	-67.616	-0.174	-0.068
-380.931	-60.813	0.221	0.093
-379.917	21.287	-0.166	0.135
-378.902	28.464	-0.232	-0.196
-377.888	-115.434	-0.160	-0.030
-376.873	-133.581	-0.240	-0.030
-375.858	614.204	-0.083	0.206
-374.844	-200.000	0.066	0.404
-373.829	152.634	-0.075	0.103
-372.815	373.808	-0.058	0.118
-371.800	-200.000	-0.009	0.450
-370.785	-94.022	0.274	-0.075
-369.771	-54.309	-0.302	0.137
-368.756	800.000	-0.059	-0.205
-367.742	290.690	-0.015	0.026
-366.727	-149.456	-0.064	-0.005
-365.712	401.371	0.146	0.304
-364.698	-200.000	-0.001	-0.293
-363.683	15.995	-0.199	0.156
-362.669	-119.450	0.218	0.038
-361.654	-200.000	-0.042	0.000
-360.639	-200.000	-0.061	-0.294
-359.625	-118.526	0.385	0.068
-358.610	-122.161	0.247	-0.040
-357.596	-38.335	0.053	0.028
-356.581	-14.705	0.187	0.120
-355.566	-200.000	-0.043	-0.285
-354.552	111.206	-0.164	-0.196
-353.537	186.343	0.283	-0.419
-352.523	800.000	0.038	0.152
-351.508	800.000	-0.031	-0.128
-350.493	38.581	0.203	0.180
-349.479	800.000	-0.054	-0.231
-348.464	-97.237	-0.284	-0.074
-347.450	-200.000	-0.007	-0.059
-346.435	-38.315	-0.205	-0.108
-345.420	-13.334	0.077	0.049
-344.406	-200.000	0.035	0.184
-343.391	-111.940	-0.277	-0.056
-342.377	400.754	0.080	-0.168
-341.362	60.744	-0.115	0.114
-340.348	12.086	0.327	-0.250
-339.333	-79.506	0.290	-0.097
-338.318	-61.509	-0.388	0.162
-337.304	-167.445	0.195	0.008
-336.289	-93.101	-0.313	0.087
-335.275	702.348	-0.175	-0.458
-334.260	800.000	0.054	0.222
-333.245	2.536	-0.170	0.123
-332.231	41.550	-0.153	-0.138
-331.216	-80.083	0.111	-0.037
-330.202	-66.997	-0.118	0.046
-329.187	66.284	-0.154	0.155
-328.172	70.758	-0.145	-0.149
-327.158	-54.963	0.136	0.061
-326.143	-130.405	-0.335	-0.045
-325.129	6.113	-0.239	0.176
-324.114	-152.922	-0.114	-0.008
-323.099	-200.000	0.028	-0.209
-322.085	-113.545	0.234	-0.045
-321.070	-93.289	-0.579	0.160
-320.056	-200.000	0.027	-0.290
-319.041	-200.000	0.032	0.259
-318.026	212.993	0.137	0.216
-317.012	-74.617	-0.296	-0.106
-315.997	-200.000	-0.004	0.142
-314.983	771.061	0.053	0.144
-313.968	-51.974	-0.202	-0.093
-312.953	449.974	0.107	0.235
-311.939	227.274	-0.038	0.061
-310.924	170.726	0.282	-0.402
-309.910	595.325	-0.074	0.183
-308.895	96.642	0.114	0.130
-307.880	-151.229	0.144	0.011
-306.866	-200.000	0.057	0.303
-305.851	-200.000	-0.026	-0.116
-304.837	-200.000	-0.052	0.470
-303.822	-5.166	0.125	0.086
-302.807	429.527	0.187	0.401
-301.793	800.000	-0.028	0.100
-300.778	-200.000	0.033	0.207
-299.764	-88.823	-0.220	-0.065
-298.749	-27.317	0.142	-0.082
-297.735	265.695	0.254	0.440
-296.720	413.880	0.150	-0.317
-295.705	-71.729	-0.216	-0.080
-294.691	-200.000	-0.039	-0.310
-293.676	-73.104	-0.296	-0.108
-292.662	175.924	-0.084	0.120
-291.647	-200.000	0.015	0.091
-290.632	463.476	-0.079	0.174
-289.618	-13.129	0.307	-0.198
-288.603	22.124	0.165	-0.134
-287.589	-144.603	0.178	-0.016
-286.574	-122.847	0.408	-0.065
-285.559	-59.482	0.259	0.110
-284.545	-5.888	-0.120	0.082
-283.530	-129.291	0.463	0.064
-282.516	106.951	-0.136	0.161
-281.501	-28.460	0.169	0.097
-280.486	489.525	0.135	-0.305
-279.472	305.426	-0.163	-0.301
-278.457	28.276	0.166	-0.140
-277.443	-100.387	-0.064	-0.016
-276.428	-200.000	0.008	-0.387
-275.413	23.726	0.078	-0.064
-274.399	156.828	-0.254	0.349
-273.384	175.205	0.174	-0.250
-272.370	65.613	-0.212	-0.213
-271.355	315.915	0.205	-0.384
-270.340	-5.772	-0.138	0.094
-269.326	522.119	0.088	0.205
-268.311	800.000	0.058	-0.226
-267.297	-200.000	0.005	-0.103
-266.282	-123.941	0.261	0.041
-265.267	198.061	-0.039	0.058
-264.253	-200.000	0.076	0.490
-263.238	-9.981	0.151	0.099
-262.224	-200.000	-0.021	-0.213
-261.209	-200.000	0.018	-0.189
-260.195	-79.218	0.086	-0.029
-259.180	-200.000	0.008	0.139
-258.165	24.936	0.157	-0.129
-257.151	148.254	-0.268	0.358
-256.136	324.229	0.203	0.384
-255.122	-25.703	-0.272	0.159
-254.107	22.621	0.341	-0.277
-253.092	263.900	0.039	0.068
-252.078	174.447	0.079	-0.113
-251.063	-200.000	-0.028	-0.411
-250.049	-5.272	-0.126	-0.086
-249.034	-200.000	-0.020	0.199
-248.019	93.777	-0.188	-0.211
-247.005	-45.547	0.163	-0.080
-245.990	-181.364	-0.166	-0.003
-244.976	-127.851	-0.027	0.004
-243.961	800.000	0.105	-0.290
-242.946	-5.281	0.151	0.103
-241.932	296.900	-0.095	0.173
-240.917	118.994	-0.278	0.340
-239.903	800.000	-0.038	-0.127
-238.888	-200.000	-0.007	0.307
-237.873	52.504	0.233	0.221
-236.859	239.606	0.118	-0.195
-235.844	-200.000	0.066	0.466
-234.830	-151.991	-0.255	0.018
-233.815	688.659	0.078	0.202
-232.800	-181.195	-0.301	-0.006
-231.786	106.836	-0.061	-0.072
-230.771	-200.000	0.161	-0.001
-229.757	-173.722	0.238	0.007
-228.742	-200.000	0.004	0.224
-227.727	-185.998	0.201	-0.003
-226.713	-66.817	0.174	-0.068
-225.698	-200.000	-0.006	0.314
-224.684	489.510	0.072	-0.164
-223.669	-83.478	0.343	0.109
-222.655	377.481	0.103	-0.208
-221.640	-8.610	-0.234	-0.156
-220.625	27.504	-0.231	-0.193
-219.611	-117.040	0.300	-0.054
-218.596	16.508	0.174	0.136
-217.582	609.673	-0.071	-0.176
-216.567	9.267	-0.285	0.213
-215.552	358.530	0.112	0.221
-214.538	-200.000	-0.004	0.150
-213.523	-34.430	-0.194	0.105
-212.509	776.489	0.042	-0.113
-211.494	30.764	-0.206	-0.174
-210.479	443.209	0.088	-0.191
-209.465	41.830	-0.174	-0.156
-208.450	-101.101	0.095	-0.023
-207.436	-110.593	0.221	0.045
-206.421	-115.018	-0.257	-0.048
-205.406	28.511	-0.164	-0.137
-204.392	800.000	-0.135	-0.393
-203.377	-24.020	0.164	-0.097
-202.363	800.000	0.069	0.216
-201.348	800.000	-0.047	-0.192
-200.333	-37.123	-0.223	0.118
-199.319	-131.005	0.173	-0.023
-198.304	-114.625	-0.244	0.046
-197.290	380.447	0.104	0.210
-196.275	-139.677	-0.263	0.028
-195.260	-28.250	-0.208	0.119
-194.246	-19.365	0.102	-0.063
-193.231	800.000	-0.062	-0.182
-192.217	-27.701	0.121	0.070
-191.202	82.372	-0.256	0.275
-190.187	11.218	-0.182	-0.137
-189.173	-180.232	-0.306	-0.006
-188.158	441.342	-0.032	-0.069
-187.144	7.847	0.192	-0.142
-186.129	-200.000	0.026	0.179
-185.114	58.515	-0.225	0.218
-184.100	800.000	0.153	0.467
-183.085	-200.000	-0.027	0.125
-182.071	-200.000	-0.005	-0.061
-181.056	-43.789	0.225	-0.112
-180.042	364.990	-0.132	0.262
-179.027	-79.692	-0.205	-0.068
-178.012	-200.000	-0.025	0.245
-176.998	-200.000	0.115	0.525
-175.983	191.772	-0.123	-0.183
-174.969	-135.228	-0.251	-0.030
-173.954	800.000	-0.045	-0.170
-172.939	12.838	0.273	0.208
-171.925	35.568	-0.078	0.067
-170.910	241.324	-0.041	-0.067
-169.896	-8.402	0.477	-0.317
-168.881	-20.331	-0.037	0.023
-167.866	-59.477	0.282	0.120
-166.852	406.732	0.163	0.340
-165.837	30.016	0.096	0.081
-164.823	180.164	0.140	0.203
-163.808	-200.000	0.011	-0.260
-162.793	-88.706	0.170	-0.050
-161.779	174.263	-0.025	0.036
-160.764	-43.597	-0.152	-0.076
-159.750	85.365	-0.055	-0.060
-158.735	-31.179	-0.086	-0.048
-157.720	-200.000	-0.001	-0.164
-156.706	48.584	-0.004	-0.004
-155.691	-139.422	-0.069	-0.007
-154.677	790.004	0.057	-0.154
-153.662	-24.736	0.076	0.045
-152.647	294.683	-0.099	-0.180
-151.633	276.925	-0.048	-0.085
-150.618	109.568	0.024	0.028
-149.604	1.716	0.127	0.091
-148.589	53.979	-0.249	-0.236
-147.574	-200.000	0.019	-0.148
-146.560	-17.761	0.318	0.197
-145.545	26.105	-0.169	0.139
-144.531	-21.553	0.061	0.037
-143.516	439.193	-0.041	-0.089
-142.502	345.909	-0.084	0.163
-141.487	800.000	0.102	0.411
-140.472	34.213	0.102	0.088
-139.458	507.187	-0.056	-0.129
-138.443	75.900	0.224	-0.233
-137.429	-149.651	0.540	-0.042
-136.414	6.526	0.131	0.096
-135.399	-36.629	0.058	-0.031
-134.385	6.751	-0.109	0.080
-133.370	40.976	0.197	0.175
-132.356	-142.785	0.211	-0.020
-131.341	647.765	-0.050	-0.126
-130.326	-139.320	-0.206	-0.022
-129.312	507.488	-0.062	-0.141
-128.297	-37.775	-0.470	0.247
-127.283	-200.000	0.016	-0.354
-126.268	-200.000	-0.023	0.320
-125.253	299.765	0.102	-0.186
-124.239	-200.000	-0.027	-0.138
-123.224	-68.591	0.286	-0.109
-122.210	800.000	0.045	0.167
-121.195	800.000	0.049	-0.176
-120.180	-176.362	-0.441	0.011
-119.166	-90.970	0.113	0.032
-118.151	198.438	0.128	0.193
-117.137	-200.000	0.017	0.170
-116.122	324.509	0.133	-0.251
-115.107	-16.146	0.203	-0.127
-114.093	-200.000	0.013	-0.296
-113.078	800.000	-0.045	0.134
-112.064	41.481	-0.139	0.124
-111.049	-47.927	0.355	0.169
-110.034	-200.000	-0.031	0.213
-109.020	136.462	0.106	0.136
-108.005	254.523	-0.098	-0.166
-106.991	800.000	0.087	0.262
-105.976	-66.263	0.333	0.131
-104.962	-63.732	0.169	0.068
-103.947	-200.000	-0.001	-0.184
-102.932	108.880	-0.030	-0.035
-101.918	-200.000	0.001	0.122
-100.903	800.000	-0.049	0.152
-99.889	81.819	-0.093	-0.099
-98.874	-83.845	-0.069	-0.022
-97.859	8.175	0.347	0.257
-96.845	312.293	-0.055	0.101
-95.830	-200.000	0.008	-0.074
-94.816	-200.000	0.046	-0.216
-93.801	800.000	-0.031	-0.092
-92.786	13.194	0.140	-0.107
-91.772	-21.561	0.045	0.027
-90.757	-177.146	-0.273	0.007
-89.743	693.173	0.151	0.391
-88.728	-26.733	0.045	-0.026
-87.713	663.047	0.061	0.154
-86.699	-36.468	0.430	0.228
-85.684	69.743	-0.052	0.052
-84.670	-46.060	0.304	-0.148
-83.655	-67.898	0.165	0.063
-82.640	-200.000	0.014	-0.303
-81.626	-72.455	-0.238	0.087
-80.611	-121.921	-0.084	-0.014
-79.597	800.000	-0.057	0.170
-78.582	-200.000	0.017	-0.106
-77.567	-151.234	-0.158	0.012
-76.553	-136.263	-0.236	-0.027
-75.538	-200.000	0.018	0.090
-74.524	47.139	0.181	-0.166
-73.509	-8.341	0.152	0.101
-72.494	-71.517	-0.191	-0.070
-71.480	588.211	0.125	0.303
-70.465	300.716	0.037	0.067
-69.451	756.484	0.055	-0.146
-68.436	-200.000	0.001	-0.037
-67.422	-200.000	-0.044	0.245
-66.407	-200.000	0.038	-0.240
-65.392	-33.221	-0.045	0.025
-64.378	-91.583	0.058	-0.016
-63.363	17.776	0.271	0.212
-62.349	-74.786	0.266	0.094
-61.334	153.070	-0.956	-1.287
-60.319	96.442	0.863	0.972
-59.305	-200.000	-0.152	-0.885
-58.290	627.372	0.435	1.080
-57.276	800.000	0.458	1.618
-56.261	-200.000	95.925	586.141
-55.246	563.912	1368.794	3261.590
-54.232	162.606	2540.428	3506.554
-53.217	112.193	2155.782	2563.655
-52.203	43.047	1703.248	1528.336
-51.188	35.639	1518.017	1311.744
-50.173	33.300	1491.444	1273.021
-49.159	51.914	1540.067	1442.181
-48.144	53.842	1557.386	1471.522
-47.130	35.689	1518.053	1311.903
-46.115	32.742	1502.821	1278.744
-45.100	32.531	1499.905	1274.785
-44.086	32.495	1497.617	1272.542
-43.071	32.570	1495.660	1271.338
-42.057	32.539	1493.892	1269.572
-41.042	32.518	1492.507	1268.205
-40.027	32.491	1491.192	1266.854
-39.013	32.454	1489.610	1265.213
-37.998	32.335	1489.061	1263.900
-36.984	32.433	1487.552	1263.224
-35.969	32.459	1486.067	1262.090
-34.954	32.530	1484.772	1261.412
-33.940	32.430	1483.604	1259.698
-32.925	32.497	1482.167	1258.882
-31.911	32.529	1480.306	1257.462
-30.896	32.475	1479.500	1256.365
-29.881	32.476	1478.367	1255.364
-28.867	32.485	1476.618	1253.885
-27.852	32.553	1474.942	1252.864
-26.838	32.564	1473.619	1251.766
-25.823	32.465	1472.394	1250.021
-24.809	32.538	1470.680	1249.001
-23.794	32.490	1468.976	1247.184
-22.779	32.443	1467.759	1245.789
-21.765	32.384	1467.319	1244.974
-20.750	32.474	1465.642	1244.102
-19.736	32.496	1464.627	1243.333
-18.721	32.423	1463.757	1242.062
-17.706	32.441	1462.461	1241.033
-16.692	32.378	1461.227	1239.523
-15.677	32.314	1460.804	1238.690
-14.663	32.448	1459.079	1238.063
-13.648	32.392	1458.611	1237.251
-12.633	32.376	1457.642	1236.272
-11.619	32.421	1456.715	1235.732
-10.604	32.394	1455.729	1234.669
-9.590	32.324	1455.165	1233.681
-8.575	32.460	1453.778	1233.351
-7.560	32.516	1453.105	1233.093
-6.546	32.401	1452.271	1231.587
-5.531	32.304	1451.751	1230.460
-4.517	32.427	1450.131	1229.842
-3.502	32.426	1449.267	1229.053
-2.487	32.392	1448.639	1228.253
-1.473	32.337	1447.705	1227.050
-0.458	32.411	1446.229	1226.234
0.556	32.960	1436.181	1214.806
1.571	30.033	1411.879	1175.601
2.586	26.955	1358.103	1111.905
3.600	25.343	1280.733	1039.143
4.615	23.919	1231.982	991.567
5.629	20.466	1174.058	926.484
6.644	10.807	1087.475	810.147
7.659	3.270	1045.987	742.910
8.673	2.298	1040.206	734.075
9.688	2.123	1037.075	730.966
10.702	1.933	1035.414	728.819
11.717	1.947	1033.408	727.412
12.731	5.696	1037.698	748.294
13.746	15.455	1051.523	805.221
14.761	23.101	1061.115	849.362
15.775	24.954	1063.372	860.003
16.790	25.391	1062.937	861.668
17.804	25.263	1061.924	860.157
18.819	25.117	1060.920	858.569
19.834	25.215	1060.517	858.639
20.848	25.299	1060.210	858.715
21.863	25.374	1059.892	858.739
22.877	25.320	1059.641	858.202
23.892	25.368	1058.469	857.409
24.907	25.189	1058.136	856.206
25.921	25.336	1057.217	856.091
26.936	25.326	1056.616	855.478
27.950	25.258	1055.002	853.775
28.965	25.269	1054.301	853.182
29.980	25.043	1053.183	851.127
30.994	25.046	1051.903	850.035
32.009	25.277	1050.966	850.295
33.023	25.417	1050.243	850.299
34.038	25.335	1049.029	848.850
35.053	25.165	1048.316	847.396
36.067	25.248	1048.047	847.494
37.082	25.322	1046.838	846.795
38.096	25.338	1046.083	846.184
39.111	25.381	1045.962	846.211
40.126	25.645	1044.750	846.397
41.140	25.665	1043.154	845.124
42.155	25.161	1041.894	841.666
43.169	24.965	1041.219	840.128
44.184	24.927	1039.931	838.836
45.199	24.977	1038.878	838.146
46.213	25.041	1037.490	837.249
47.228	24.917	1036.617	835.894
48.242	25.091	1036.575	836.595
49.257	25.137	1035.594	835.944
50.271	25.248	1034.949	835.869
51.286	25.284	1034.433	835.544
52.301	25.261	1033.912	834.943
53.315	25.459	1032.792	834.884
54.330	25.478	1031.734	834.045
55.344	25.237	1031.332	832.527
56.359	25.320	1030.574	832.227
57.374	25.270	1029.346	830.927
58.388	25.080	1028.810	829.545
59.403	25.012	1027.971	828.478
60.417	24.997	1027.351	827.835
61.432	24.849	1026.386	826.303
62.447	24.982	1025.450	826.090
63.461	25.048	1024.897	825.875
64.476	25.052	1024.646	825.617
65.490	25.079	1023.249	824.543
66.505	24.899	1022.785	823.268
67.520	24.972	1021.513	822.509
68.534	25.023	1021.261	822.467
69.549	25.066	1019.754	821.376
70.563	24.754	1018.508	818.872
71.578	24.591	1018.071	817.702
72.593	24.583	1017.284	816.961
73.607	24.350	1016.547	815.232
74.622	24.427	1015.329	814.537
75.636	24.734	1014.463	815.168
76.651	24.898	1014.220	815.648
77.666	24.780	1013.398	814.380
78.680	24.514	1012.607	812.461
79.695	24.663	1011.873	812.479
80.709	24.844	1011.026	812.544
81.724	24.914	1010.458	812.334
82.739	24.880	1009.811	811.590
83.753	24.812	1009.018	810.573
84.768	25.033	1008.675	811.226
85.782	25.398	1007.636	811.967
86.797	25.633	1006.792	812.278
87.812	25.682	1005.878	811.689
88.826	25.352	1004.898	809.341
89.841	25.436	1004.204	809.086
90.855	25.535	1003.892	809.211
91.870	25.628	1002.972	808.817
92.884	25.542	1001.966	807.546
93.899	25.482	1001.004	806.432
94.914	25.558	999.634	805.595
95.928	25.377	999.472	804.584
96.943	25.465	998.605	804.206
97.957	25.249	997.233	802.069
98.972	24.944	996.352	799.924
99.987	24.822	995.281	798.448
101.001	24.921	994.769	798.410
102.016	25.351	994.002	799.638
103.030	25.281	992.925	798.391
104.045	25.220	991.761	797.112
105.060	25.072	991.023	795.793
106.074	24.950	989.385	793.866
107.089	24.874	989.375	793.450
108.103	25.233	988.857	794.556
109.118	25.320	987.916	794.115
110.133	25.041	986.410	791.600
111.147	24.978	985.649	790.641
112.162	24.927	984.753	789.630
113.176	24.611	983.771	787.377
114.191	24.803	982.830	787.403
115.206	24.981	982.040	787.480
116.220	24.578	981.065	784.861
117.235	24.456	980.270	783.620
118.249	24.676	979.421	783.836
119.264	24.799	978.119	783.264
120.279	24.609	977.424	781.805
121.293	24.608	976.808	781.239
122.308	24.710	976.125	781.071
123.322	24.669	975.497	780.318
124.337	24.551	974.787	779.169
125.352	24.572	973.187	777.911
126.366	24.137	971.456	774.565
127.381	23.882	970.031	772.255
128.395	24.320	970.181	774.210
129.410	24.984	970.224	777.053
130.424	25.295	969.125	777.454
131.439	25.225	968.415	776.514
132.454	25.023	967.455	774.799
133.468	25.118	966.360	774.266
134.483	25.155	965.583	773.734
135.497	25.240	964.722	773.343
136.512	25.436	964.359	773.828
137.527	25.294	964.285	773.086
138.541	25.446	962.869	772.538
139.556	25.455	962.062	771.862
140.570	25.348	961.297	770.718
141.585	25.493	960.320	770.489
142.600	25.545	959.493	769.981
143.614	25.398	958.654	768.610
144.629	25.604	958.308	769.146
145.643	25.812	957.986	769.709
146.658	25.751	956.497	768.183
147.673	25.557	955.197	766.245
148.687	25.326	954.676	764.773
149.702	25.320	953.394	763.657
150.716	25.203	952.411	762.304
151.731	25.164	951.434	761.286
152.746	25.307	950.770	761.294
153.760	25.402	950.205	761.177
154.775	25.586	949.401	761.245
155.789	25.649	948.560	760.770
156.804	25.679	947.337	759.849
157.819	25.558	946.764	758.811
158.833	25.526	945.989	757.987
159.848	25.755	945.266	758.306
160.862	25.851	944.386	757.938
161.877	25.556	943.537	755.950
162.892	25.490	942.539	754.805
163.906	25.738	941.647	755.066
164.921	25.694	941.079	754.358
165.935	25.478	940.101	752.603
166.950	25.569	939.324	752.297
167.964	25.560	938.381	751.436
168.979	25.577	937.351	750.616
169.994	25.577	935.840	749.339
171.008	25.395	935.167	747.976
172.023	25.603	934.499	748.242
173.037	25.539	934.307	747.754
174.052	25.374	933.231	746.140
175.067	25.182	931.915	744.229
176.081	25.238	931.196	743.819
177.096	25.321	930.480	743.526
178.110	25.494	929.192	743.147
179.125	25.190	928.785	741.498
180.140	25.047	927.235	739.606
181.154	25.076	926.237	738.865
182.169	25.204	926.004	739.138
183.183	25.288	925.803	739.260
184.198	25.621	925.743	740.517
185.213	25.385	925.005	738.891
186.227	25.455	924.180	738.455
187.242	25.602	923.747	738.648
188.256	25.616	923.437	738.390
189.271	25.544	922.424	737.219
190.286	25.781	921.459	737.354
191.300	25.699	920.522	736.204
192.315	25.065	919.200	732.491
193.329	24.317	917.481	728.005
194.344	23.680	917.027	724.979
195.359	24.394	917.154	727.932
196.373	25.371	917.264	731.935
197.388	25.372	917.390	731.976
198.402	25.397	916.594	731.378
199.417	25.374	916.168	730.880
200.432	25.545	915.217	730.752
201.446	25.454	914.667	729.878
202.461	24.994	914.065	727.465
203.475	25.146	913.505	727.574
204.490	24.720	911.916	724.518
205.504	23.600	909.781	718.228
206.519	24.124	909.709	720.224
207.534	24.960	910.219	723.946
208.548	24.991	909.654	723.558
209.563	25.416	909.849	725.366
210.577	25.417	908.892	724.544
211.592	25.180	908.035	722.842
212.607	25.679	907.669	724.496
213.621	25.710	907.572	724.477
214.636	25.586	906.516	723.072
215.650	25.798	905.930	723.391
216.665	25.562	905.417	721.971
217.680	25.803	904.778	722.367
218.694	25.795	904.225	721.828
219.709	25.421	903.152	719.409
220.723	25.029	902.744	717.451
221.738	25.251	901.876	717.586
222.753	25.575	901.341	718.392
223.767	25.444	900.685	717.284
224.782	25.417	900.327	716.828
225.796	25.651	899.892	717.348
226.811	25.686	899.370	717.009
227.826	25.376	897.872	714.518
228.840	24.562	896.570	710.186
229.855	24.470	895.799	709.146
230.869	24.741	895.195	709.679
231.884	24.423	894.486	707.795
232.899	24.574	893.824	707.808
233.913	25.350	894.358	711.243
234.928	25.429	894.322	711.463
235.942	25.329	893.076	710.014
236.957	25.341	892.333	709.407
237.972	25.031	891.171	707.199
238.986	25.002	890.454	706.451
240.001	25.090	890.211	706.543
241.015	25.243	889.842	706.789
242.030	25.084	889.352	705.713
243.045	25.449	888.345	706.288
244.059	25.425	888.489	706.245
245.074	25.664	887.259	706.141
246.088	25.628	886.987	705.722
247.103	25.165	886.113	703.148
248.117	25.242	885.476	702.884
249.132	25.742	885.579	704.861
250.147	26.150	885.287	706.163
251.161	26.174	884.924	705.903
252.176	26.286	884.458	705.906
253.190	26.452	883.628	705.829
254.205	26.335	883.316	705.064
255.220	26.559	883.183	705.767
256.234	26.537	882.407	704.997
257.249	26.564	881.379	704.221
258.263	26.289	880.737	702.575
259.278	26.210	880.379	701.919
260.293	26.312	880.037	701.983
261.307	26.411	879.676	702.018
262.322	26.456	878.428	701.134
263.336	26.280	878.430	700.391
264.351	25.781	876.966	697.230
265.366	24.699	874.545	691.064
266.380	24.243	874.021	688.827
267.395	25.130	874.430	692.515
268.409	25.962	874.403	695.642
269.424	26.029	873.554	695.165
270.439	26.010	873.264	694.798
271.453	26.129	872.990	694.977
272.468	26.135	872.468	694.523
273.482	26.387	871.413	694.592
274.497	26.488	871.071	694.646
275.512	26.411	870.100	693.513
276.526	25.659	868.818	689.552
277.541	25.969	868.623	690.521
278.555	26.190	868.681	691.355
279.570	25.973	867.810	689.768
280.585	25.791	867.281	688.590
281.599	25.865	866.952	688.551
282.614	26.104	866.290	688.877
283.628	25.693	864.745	686.022
284.643	25.268	864.340	684.020
285.657	25.693	864.114	685.399
286.672	25.586	863.456	684.412
287.687	25.118	862.403	681.737
288.701	25.465	862.418	683.008
289.716	25.839	861.808	683.882
290.730	25.378	861.185	681.581
291.745	25.350	860.609	680.958
292.760	25.228	859.400	679.477
293.774	25.138	858.877	678.664
294.789	26.085	859.808	682.926
295.803	26.635	859.713	684.869
296.818	26.807	858.824	684.749
297.833	26.836	858.563	684.590
298.847	26.552	857.483	682.598
299.862	26.088	856.478	679.992
300.876	26.476	855.595	680.688
301.891	26.646	855.563	681.243
302.906	26.721	855.280	681.241
303.920	26.256	854.334	678.681
304.935	26.286	853.340	677.941
305.949	26.646	853.157	679.087
306.964	26.750	852.540	678.924
307.979	26.498	851.852	677.372
308.993	26.439	851.467	676.788
310.008	26.933	851.072	678.258
311.022	26.977	851.295	678.541
312.037	26.751	850.600	677.083
313.052	26.564	849.660	675.577
314.066	26.394	848.976	674.343
315.081	25.568	847.580	670.094
316.095	25.088	846.185	667.146
317.110	25.438	846.449	668.599
318.125	26.376	846.621	672.165
319.139	26.153	845.384	670.295
320.154	24.846	843.606	663.982
321.168	24.512	842.597	661.891
322.183	24.954	843.161	663.912
323.197	25.803	844.053	667.706
324.212	26.366	843.267	669.110
325.227	26.333	843.175	668.857
326.241	26.577	842.510	669.171
327.256	26.416	841.932	668.057
328.270	26.158	841.488	666.693
329.285	26.157	840.662	665.976
330.300	26.093	839.916	665.091
331.314	25.734	838.992	662.980
332.329	26.040	838.311	663.508
333.343	26.302	838.125	664.266
334.358	26.697	837.880	665.463
335.373	26.538	837.494	664.512
336.387	26.615	837.038	664.375
337.402	26.911	836.894	665.286
338.416	27.023	836.011	664.937
339.431	27.019	835.453	664.419
340.446	27.134	835.150	664.542
341.460	27.335	834.744	664.893
342.475	27.235	833.933	663.825
343.489	26.970	833.333	662.320
344.504	26.946	832.631	661.616
345.519	27.244	832.485	662.528
346.533	27.256	832.653	662.646
347.548	27.412	831.836	662.506
348.562	27.447	831.181	662.052
349.577	27.485	830.745	661.786
350.592	27.439	830.112	661.055
351.606	27.404	829.668	660.515
352.621	27.261	829.252	659.608
353.635	27.155	828.711	658.735
354.650	27.245	827.990	658.428
355.665	26.886	827.159	656.412
356.679	25.668	825.366	650.529
357.694	25.711	824.845	650.216
358.708	26.293	824.858	652.272
359.723	26.383	824.219	652.035
360.738	26.438	824.347	652.276
361.752	26.941	824.344	654.029
362.767	27.115	823.686	654.074
363.781	27.484	823.384	655.104
364.796	27.654	823.397	655.668
365.810	27.809	822.652	655.572
366.825	27.879	822.407	655.572
367.840	27.757	822.560	655.196
368.854	27.713	821.673	654.274
369.869	27.244	820.666	651.735
370.883	27.071	820.036	650.559
371.898	27.231	819.495	650.644
372.913	26.951	818.867	649.087
373.927	27.144	818.076	649.093
374.942	27.265	817.562	649.056
375.956	27.320	817.171	648.885
376.971	27.366	816.798	648.695
377.986	27.492	816.251	648.652
379.000	27.614	815.987	648.819
380.015	27.694	815.331	648.526
381.029	27.542	814.753	647.468
382.044	27.385	814.169	646.391
383.059	27.740	813.440	647.014
384.073	27.753	812.871	646.547
385.088	27.634	812.819	646.031
386.102	27.658	812.270	645.621
387.117	27.560	811.225	644.386
388.132	27.461	810.806	643.647
389.146	27.219	809.953	642.059
390.161	26.637	809.444	639.544
391.175	26.739	809.209	639.662
392.190	27.245	809.287	641.452
393.205	27.419	808.282	641.209
394.219	26.587	805.940	636.373
395.234	24.725	804.066	628.302
396.248	23.971	803.095	624.841
397.263	24.959	804.419	629.289
398.278	26.904	805.542	636.948
399.292	27.282	805.615	638.275
400.307	26.932	804.875	636.405
401.321	27.048	803.885	635.971
402.336	27.143	803.899	636.259
403.350	27.400	803.816	637.038
404.365	27.779	803.949	638.414
405.380	28.119	803.849	639.465
406.394	28.230	803.632	639.625
407.409	28.469	803.293	640.131
408.423	28.574	802.479	639.792
409.438	28.351	802.136	638.684
410.453	28.252	801.445	637.735
411.467	28.555	800.735	638.168
412.482	28.381	800.401	637.239
413.496	28.412	799.820	636.829
414.511	28.536	799.274	636.766
415.526	28.487	799.794	636.954
416.540	28.389	798.871	635.825
417.555	28.301	798.334	635.037
418.569	28.019	797.554	633.380
419.584	28.026	797.340	633.180
420.599	28.240	796.104	632.881
421.613	111.573	1284.522	1458.603
422.628	96.175	1355.695	1458.693
