DTS Sentinel unit serial number:	SN413079Multiplexer serial number:	ORYXHardware model number:	OX4-SRSoftware version number:	ORYX F/W v4.00 Oryx Data Collector v3.7.2.0data status	okinstallation	princeton_trtdifferential loss correction	single-endedforward channel	channel 3reverse channel	N/Adate	2019/09/12time	03:14:10forward acquisition time	60.00reverse acquisition time	0.00gamma	496.2192k internal	0.2321k external	0.2321temperature offset calibration	1.0071default loss term (dB/km)	0.3790temperature slope calibration	1.0000multiplexer offset coefficient	1.0000multiplexer slope coefficient	1.0000fibre end	0.00T internal ref (°C)	32.25T ext. ref 1 (°C)	2.12T ext. ref 2 (°C)	27.24length (m)	temperature (°C)	Stokes	anti-Stokes-747.200	-143.908	-0.102	-0.010
-746.185	190.825	0.055	0.083
-745.171	92.207	0.111	0.127
-744.156	100.186	-0.155	0.181
-743.142	-85.647	-0.162	-0.051
-742.127	-48.918	0.218	-0.105
-741.112	-77.102	0.178	0.063
-740.098	-200.000	-0.002	-0.057
-739.083	-90.452	-0.325	-0.095
-738.069	-91.317	0.226	-0.065
-737.054	211.765	0.103	-0.163
-736.039	344.263	-0.098	-0.195
-735.025	262.987	0.133	0.234
-734.010	24.912	-0.379	-0.318
-732.996	189.971	-0.195	-0.295
-731.981	-124.810	-0.181	0.028
-730.966	800.000	-0.024	0.104
-729.952	-2.437	0.076	0.054
-728.937	-83.570	0.125	-0.040
-727.923	-170.285	-0.332	0.012
-726.908	-64.299	-0.217	-0.089
-725.894	-200.000	-0.012	0.057
-724.879	-133.586	-0.434	0.055
-723.864	-3.246	-0.080	-0.056
-722.850	-14.826	-0.278	-0.180
-721.835	87.702	0.168	0.188
-720.821	-105.268	0.333	-0.077
-719.806	-65.979	-0.191	-0.077
-718.791	-200.000	-0.077	-0.417
-717.777	-118.617	-0.509	-0.091
-716.762	-77.480	-0.174	-0.061
-715.748	339.012	0.079	0.155
-714.733	-75.820	0.278	0.099
-713.718	-67.975	0.076	-0.030
-712.704	12.421	-0.344	0.267
-711.689	-8.563	0.217	-0.147
-710.675	124.065	-0.035	0.045
-709.660	324.784	0.178	0.343
-708.645	150.554	-0.036	0.050
-707.631	407.410	-0.132	-0.281
-706.616	800.000	0.053	-0.156
-705.602	-74.443	-0.142	0.052
-704.587	392.076	0.126	-0.265
-703.572	-200.000	-0.018	-0.148
-702.558	390.264	0.092	0.192
-701.543	387.466	0.092	0.192
-700.529	250.449	0.067	0.114
-699.514	6.635	-0.071	0.054
-698.499	565.476	0.079	-0.193
-697.485	728.481	0.070	-0.187
-696.470	18.994	-0.103	0.084
-695.456	800.000	0.083	0.310
-694.441	-28.092	-0.127	0.074
-693.426	800.000	0.066	0.183
-692.412	-200.000	-0.101	0.454
-691.397	-1.048	-0.039	-0.028
-690.383	-80.138	0.195	-0.066
-689.368	-66.169	-0.282	-0.113
-688.354	467.096	-0.096	-0.218
-687.339	49.725	0.118	-0.112
-686.324	-200.000	-0.017	-0.094
-685.310	-200.000	-0.041	-0.368
-684.295	18.555	0.128	0.103
-683.281	460.132	-0.100	-0.225
-682.266	-49.079	0.199	-0.096
-681.251	-113.445	-0.139	0.028
-680.237	203.121	-0.067	0.105
-679.222	-200.000	0.020	0.338
-678.208	-200.000	-0.044	-0.351
-677.193	30.986	0.198	-0.171
-676.178	60.489	0.115	-0.115
-675.164	-200.000	0.026	0.166
-674.149	-63.980	0.218	0.090
-673.135	-65.949	0.181	0.073
-672.120	800.000	-0.068	-0.243
-671.105	-200.000	0.016	-0.155
-670.091	-113.411	0.325	0.064
-669.076	-78.490	0.048	0.017
-668.062	218.162	0.155	-0.250
-667.047	-77.539	-0.222	0.077
-666.032	526.513	-0.044	-0.104
-665.018	483.264	0.082	-0.187
-664.003	800.000	0.065	0.284
-662.989	549.863	-0.090	0.216
-661.974	-200.000	-0.000	-0.209
-660.959	-200.000	0.042	-0.423
-659.945	149.947	-0.159	-0.218
-658.930	-78.458	0.306	-0.106
-657.916	-112.513	-0.226	0.045
-656.901	-200.000	0.006	0.136
-655.886	800.000	-0.064	0.245
-654.872	-200.000	-0.057	0.496
-653.857	-9.985	0.192	-0.128
-652.843	16.057	0.284	-0.225
-651.828	-200.000	0.021	-0.287
-650.814	-200.000	0.009	0.113
-649.799	407.637	-0.065	-0.137
-648.784	800.000	-0.039	-0.159
-647.770	-200.000	0.015	0.104
-646.755	-61.844	-0.156	0.066
-645.741	-83.011	0.395	-0.128
-644.726	-97.796	-0.205	0.053
-643.711	540.713	0.143	-0.343
-642.697	-153.631	-0.078	0.005
-641.682	-200.000	0.004	0.045
-640.668	318.986	0.102	0.196
-639.653	-150.999	0.431	0.033
-638.638	-200.000	-0.017	-0.233
-637.624	23.714	0.288	0.238
-636.609	227.259	0.098	0.160
-635.595	-200.000	0.009	0.190
-634.580	800.000	-0.098	0.299
-633.565	-122.744	-0.250	-0.041
-632.551	147.773	-0.184	0.249
-631.536	-116.350	-0.248	0.046
-630.522	-167.147	-0.122	0.005
-629.507	14.225	-0.043	0.034
-628.492	-47.516	0.114	0.056
-627.478	104.807	-0.077	-0.092
-626.463	-170.267	-0.270	-0.010
-625.449	63.437	0.081	0.081
-624.434	-33.535	0.141	0.078
-623.419	-4.715	-0.255	0.177
-622.405	105.645	0.047	-0.056
-621.390	-67.814	0.232	-0.091
-620.376	121.006	-0.168	-0.210
-619.361	409.732	0.080	-0.171
-618.346	800.000	-0.070	0.261
-617.332	454.463	-0.138	-0.307
-616.317	767.358	0.043	-0.118
-615.303	-169.203	0.033	-0.001
-614.288	800.000	0.010	0.033
-613.273	506.037	0.160	-0.372
-612.259	-131.871	0.162	-0.021
-611.244	-200.000	-0.005	-0.190
-610.230	113.296	-0.046	0.056
-609.215	77.041	-0.058	0.062
-608.201	-75.665	-0.146	-0.052
-607.186	-42.688	0.212	-0.109
-606.171	-2.165	-0.142	-0.100
-605.157	-48.751	-0.591	-0.285
-604.142	435.442	-0.034	0.075
-603.128	-60.330	0.302	-0.129
-602.113	-200.000	-0.056	-0.259
-601.098	-66.389	-0.150	0.060
-600.084	-137.205	-0.222	-0.025
-599.069	-63.679	0.374	-0.154
-598.055	-200.000	-0.016	0.127
-597.040	192.284	-0.227	-0.345
-596.025	800.000	0.129	-0.463
-595.011	364.573	-0.091	0.184
-593.996	-32.856	-0.038	0.021
-592.982	292.499	0.034	0.062
-591.967	360.883	-0.069	-0.139
-590.952	-37.321	0.137	-0.073
-589.938	38.940	0.099	-0.089
-588.923	-185.493	-0.027	0.000
-587.909	221.639	-0.070	-0.112
-586.894	-200.000	-0.017	-0.380
-585.879	-200.000	-0.006	-0.212
-584.865	162.633	0.086	-0.121
-583.850	147.591	-0.146	0.198
-582.836	-200.000	-0.033	0.171
-581.821	-82.071	0.238	-0.078
-580.806	75.969	-0.154	0.164
-579.792	-200.000	-0.016	-0.185
-578.777	-15.572	0.170	-0.109
-577.763	-200.000	0.004	0.075
-576.748	-200.000	-0.015	-0.151
-575.733	-19.272	0.211	-0.132
-574.719	8.735	-0.111	0.084
-573.704	800.000	0.022	-0.061
-572.690	-120.631	-0.055	0.009
-571.675	-200.000	0.000	-0.148
-570.661	49.519	-0.234	-0.221
-569.646	-64.665	-0.174	-0.071
-568.631	-200.000	-0.014	-0.111
-567.617	-135.108	-0.127	-0.015
-566.602	149.388	-0.213	-0.290
-565.588	-101.090	0.126	-0.031
-564.573	-200.000	-0.118	0.548
-563.558	800.000	0.024	0.071
-562.544	-200.000	-0.030	0.251
-561.529	-15.641	0.119	-0.076
-560.515	800.000	0.092	0.256
-559.500	-198.585	0.196	0.001
-558.485	616.946	-0.182	0.459
-557.471	800.000	0.020	0.073
-556.456	346.482	0.083	0.164
-555.442	800.000	0.035	-0.105
-554.427	800.000	-0.034	-0.142
-553.412	-200.000	0.006	0.066
-552.398	800.000	-0.039	-0.164
-551.383	-39.884	-0.107	0.056
-550.369	-2.217	0.087	0.061
-549.354	-200.000	0.030	0.183
-548.339	-29.854	0.335	0.192
-547.325	160.487	-0.093	-0.130
-546.310	95.950	-0.084	-0.096
-545.296	-165.456	0.171	0.007
-544.281	-102.012	-0.279	-0.067
-543.266	113.539	-0.295	-0.359
-542.252	800.000	0.045	0.172
-541.237	87.974	0.242	-0.269
-540.223	800.000	0.033	0.139
-539.208	27.878	-0.383	-0.324
-538.193	94.383	-0.068	-0.077
-537.179	-130.930	-0.363	0.049
-536.164	-200.000	-0.010	0.554
-535.150	-90.854	-0.533	0.154
-534.135	-21.038	0.325	0.199
-533.121	-200.000	-0.004	-0.121
-532.106	558.310	0.029	-0.071
-531.091	393.799	0.084	0.176
-530.077	329.295	-0.042	0.081
-529.062	-200.000	0.012	-0.178
-528.048	-7.267	0.253	-0.172
-527.033	-191.908	-0.266	0.003
-526.018	111.694	-0.076	0.091
-525.004	120.800	0.077	0.096
-523.989	-200.000	0.077	-0.373
-522.975	-100.501	-0.363	0.090
-521.960	-44.813	0.060	0.030
-520.945	-77.193	0.170	-0.059
-519.931	-200.000	0.022	0.195
-518.916	-88.938	0.180	-0.053
-517.902	617.033	-0.086	0.215
-516.887	-64.837	-0.260	0.105
-515.872	24.244	0.159	0.132
-514.858	-126.621	0.289	0.043
-513.843	156.438	0.125	-0.173
-512.829	716.553	0.122	0.324
-511.814	71.556	-0.102	0.106
-510.799	-4.576	-0.111	0.077
-509.785	355.517	-0.063	-0.125
-508.770	50.679	0.141	-0.134
-507.756	-144.454	0.073	0.007
-506.741	-200.000	-0.276	0.001
-505.726	800.000	0.075	0.290
-504.712	-200.000	0.041	-0.196
-503.697	-88.039	0.266	0.080
-502.683	-200.000	-0.071	0.363
-501.668	116.711	-0.055	-0.067
-500.653	-53.137	-0.199	-0.091
-499.639	7.757	-0.178	-0.134
-498.624	-131.886	0.180	-0.024
-497.610	-6.672	0.267	0.182
-496.595	-137.109	0.138	-0.016
-495.581	-167.232	0.334	-0.014
-494.566	797.490	-0.064	-0.176
-493.551	148.260	-0.061	0.083
-492.537	-9.657	0.046	-0.030
-491.522	-119.010	-0.150	0.026
-490.508	17.436	-0.131	-0.104
-489.493	421.417	0.117	-0.250
-488.478	800.000	-0.021	0.089
-487.464	766.807	-0.064	-0.174
-486.449	-90.466	-0.302	0.087
-485.435	-170.792	-0.148	-0.005
-484.420	187.725	0.062	0.093
-483.405	-16.545	-0.095	0.060
-482.391	-123.558	-0.038	0.006
-481.376	61.430	-0.326	-0.324
-480.362	48.285	0.113	-0.106
-479.347	359.684	-0.085	0.171
-478.332	208.474	0.026	-0.041
-477.318	109.208	-0.103	-0.124
-476.303	142.996	-0.294	-0.391
-475.289	800.000	0.064	-0.199
-474.274	98.154	-0.094	0.108
-473.259	-200.000	0.077	-0.347
-472.245	-200.000	0.056	-0.434
-471.230	-125.214	-0.172	-0.026
-470.216	-81.612	0.459	-0.151
-469.201	-151.954	0.427	-0.031
-468.186	-3.941	-0.201	0.139
-467.172	-98.722	-0.181	-0.046
-466.157	-65.916	-0.080	0.032
-465.143	800.000	-0.074	-0.300
-464.128	-25.901	-0.203	0.120
-463.113	-51.805	-0.357	0.166
-462.099	-42.460	-0.063	-0.032
-461.084	143.428	-0.112	-0.149
-460.070	-114.810	-0.196	-0.037
-459.055	800.000	0.074	0.212
-458.040	55.024	-0.224	0.216
-457.026	-126.946	-0.550	-0.081
-456.011	-100.511	0.186	-0.046
-454.997	-180.953	-0.105	-0.002
-453.982	121.684	-0.180	-0.224
-452.968	-200.000	0.012	-0.206
-451.953	-109.766	0.078	0.016
-450.938	-200.000	0.031	0.517
-449.924	-183.751	0.336	-0.006
-448.909	-200.000	0.027	0.180
-447.895	800.000	-0.049	-0.211
-446.880	-200.000	0.016	-0.313
-445.865	60.123	0.244	0.241
-444.851	482.648	-0.169	-0.384
-443.836	-38.707	0.060	0.032
-442.822	-28.380	0.177	-0.102
-441.807	-139.945	0.146	-0.015
-440.792	279.639	-0.077	-0.137
-439.778	-200.000	0.015	-0.330
-438.763	-200.000	0.013	0.143
-437.749	-110.291	-0.169	0.035
-436.734	-58.496	0.046	0.020
-435.719	-73.847	-0.030	-0.011
-434.705	302.454	-0.017	-0.031
-433.690	48.169	-0.081	0.076
-432.676	41.688	0.227	0.205
-431.661	184.590	-0.009	0.014
-430.646	16.736	0.158	-0.125
-429.632	-200.000	0.001	-0.230
-428.617	-137.950	0.166	0.018
-427.603	-135.250	-0.387	0.046
-426.588	197.182	-0.137	-0.209
-425.573	101.005	-0.025	-0.030
-424.559	291.760	-0.034	0.061
-423.544	-200.000	-0.016	0.105
-422.530	-200.000	0.021	-0.199
-421.515	-200.000	0.069	-0.393
-420.500	296.052	-0.151	-0.277
-419.486	-200.000	0.005	0.046
-418.471	127.548	0.045	-0.057
-417.457	800.000	0.037	-0.137
-416.442	99.541	-0.083	0.096
-415.428	-45.041	-0.435	0.216
-414.413	392.494	-0.161	0.333
-413.398	-86.811	0.296	0.090
-412.384	145.486	0.132	0.177
-411.369	56.543	-0.166	-0.161
-410.355	800.000	-0.122	0.374
-409.340	-200.000	-0.046	0.448
-408.325	-144.600	-0.164	0.015
-407.311	-192.265	0.102	-0.001
-406.296	-200.000	0.010	0.158
-405.282	-200.000	0.053	-0.347
-404.267	-141.619	0.020	0.002
-403.252	189.210	0.018	0.027
-402.238	-67.833	-0.291	0.113
-401.223	-200.000	-0.009	-0.143
-400.209	117.779	0.023	0.029
-399.194	133.644	0.105	0.135
-398.179	-65.572	-0.365	-0.146
-397.165	-200.000	-0.029	0.195
-396.150	131.259	0.132	0.169
-395.136	161.946	0.116	0.162
-394.121	15.933	-0.141	0.111
-393.106	800.000	-0.109	-0.430
-392.092	-22.470	-0.221	-0.134
-391.077	-200.000	0.025	-0.130
-390.063	-123.724	0.176	0.028
-389.048	-25.899	-0.190	0.112
-388.033	-65.883	-0.345	0.138
-387.019	320.433	-0.091	0.173
-386.004	-137.197	0.183	-0.021
-384.990	77.496	-0.288	0.306
-383.975	-31.500	-0.037	-0.021
-382.960	800.000	0.046	0.138
-381.946	-35.799	-0.285	-0.154
-380.931	597.596	0.105	-0.259
-379.917	800.000	-0.101	0.424
-378.902	19.722	0.493	-0.395
-377.888	-142.857	-0.148	0.014
-376.873	132.435	0.122	0.156
-375.858	-39.984	-0.288	-0.150
-374.844	416.901	0.105	-0.223
-373.829	104.233	-0.154	0.181
-372.815	43.061	0.165	-0.150
-371.800	-126.231	-0.323	0.048
-370.785	192.071	-0.138	0.207
-369.771	-53.851	0.096	-0.043
-368.756	96.683	0.053	0.061
-367.742	-200.000	-0.006	-0.177
-366.727	800.000	0.033	0.104
-365.712	-200.000	0.118	-0.000
-364.698	-194.438	-0.362	0.003
-363.683	-42.008	-0.199	-0.102
-362.669	144.076	0.308	0.409
-361.654	-5.856	0.179	0.122
-360.639	-157.438	0.368	-0.022
-359.625	-200.000	0.060	0.266
-358.610	636.585	0.072	0.183
-357.596	294.323	0.109	0.198
-356.581	123.348	-0.131	0.163
-355.566	-83.962	0.360	-0.114
-354.552	1.732	0.028	0.020
-353.537	283.513	0.092	0.165
-352.523	800.000	-0.024	-0.090
-351.508	211.938	-0.128	-0.201
-350.493	-109.532	0.160	-0.034
-349.479	-140.344	0.052	-0.005
-348.464	-95.598	0.267	-0.071
-347.450	112.563	0.071	-0.086
-346.435	-90.332	-0.107	0.031
-345.420	312.110	0.149	-0.278
-344.406	-60.003	-0.199	-0.085
-343.391	181.884	0.103	-0.151
-342.377	145.135	0.253	-0.337
-341.362	-78.442	0.207	0.071
-340.348	113.286	-0.114	-0.137
-339.333	35.006	-0.189	0.165
-338.318	274.521	-0.228	0.402
-337.304	-200.000	0.012	-0.131
-336.289	-200.000	-0.027	0.215
-335.275	-50.292	-0.203	0.095
-334.260	-38.291	0.047	0.025
-333.245	-123.604	0.132	0.021
-332.231	-200.000	0.012	-0.193
-331.216	30.249	0.056	0.048
-330.202	-131.250	0.071	0.009
-329.187	279.916	-0.050	-0.090
-328.172	-161.456	-0.132	-0.007
-327.158	220.094	0.106	-0.169
-326.143	-200.000	-0.008	0.143
-325.129	29.099	-0.106	-0.089
-324.114	172.955	0.136	0.195
-323.099	-36.576	-0.176	-0.094
-322.085	-200.000	0.017	0.122
-321.070	-200.000	0.013	-0.443
-320.056	-200.000	-0.104	0.000
-319.041	-200.000	-0.042	0.386
-318.026	-200.000	-0.049	-0.338
-317.012	-87.785	-0.278	-0.083
-315.997	800.000	-0.060	0.214
-314.983	671.746	0.120	-0.308
-313.968	-200.000	-0.006	-0.269
-312.953	800.000	0.074	0.245
-311.939	-200.000	-0.007	0.066
-310.924	-4.452	0.265	0.182
-309.910	459.110	0.111	-0.245
-308.895	278.257	-0.118	0.208
-307.880	-57.161	-0.203	-0.089
-306.866	800.000	0.024	-0.103
-305.851	28.400	-0.191	-0.160
-304.837	800.000	-0.054	0.235
-303.822	-102.333	0.317	-0.076
-302.807	800.000	-0.089	0.273
-301.793	215.162	0.191	0.300
-300.778	-200.000	0.028	-0.191
-299.764	91.609	-0.179	0.200
-298.749	-145.286	-0.204	0.018
-297.735	72.471	-0.196	-0.203
-296.720	-91.783	0.376	0.106
-295.705	-19.337	0.114	0.070
-294.691	91.510	-0.090	0.101
-293.676	800.000	-0.060	0.243
-292.662	-172.922	0.090	0.003
-291.647	73.153	0.243	-0.252
-290.632	800.000	-0.108	-0.347
-289.618	142.581	0.148	-0.195
-288.603	25.907	0.320	-0.265
-287.589	-39.283	0.431	0.224
-286.574	154.997	0.111	0.152
-285.559	76.959	-0.090	-0.094
-284.545	-36.715	0.160	-0.085
-283.530	-188.036	-0.110	-0.001
-282.516	-88.228	0.172	0.051
-281.501	-84.134	0.158	0.050
-280.486	388.489	-0.031	0.064
-279.472	-139.401	0.069	-0.007
-278.457	142.400	0.224	-0.295
-277.443	224.088	0.099	0.159
-276.428	69.085	0.149	0.152
-275.413	49.539	-0.073	-0.068
-274.399	-132.462	0.149	-0.019
-273.384	10.080	0.128	0.097
-272.370	129.167	0.157	0.199
-271.355	-40.074	-0.127	-0.065
-270.340	-200.000	0.027	0.453
-269.326	526.869	0.063	0.148
-268.311	-200.000	0.025	0.153
-267.297	124.246	0.126	0.158
-266.282	769.043	0.136	0.367
-265.267	87.152	-0.135	0.148
-264.253	-200.000	0.027	-0.164
-263.238	47.453	0.015	-0.014
-262.224	-125.053	-0.314	-0.048
-261.209	-48.637	0.168	0.080
-260.195	-103.546	0.174	-0.041
-259.180	-200.000	0.055	0.241
-258.165	334.671	-0.092	-0.176
-257.151	-62.549	-0.454	-0.187
-256.136	800.000	0.059	-0.206
-255.122	-200.000	-0.068	0.319
-254.107	193.546	0.071	0.107
-253.092	498.317	0.175	-0.399
-252.078	20.918	-0.252	0.202
-251.063	-85.663	0.407	0.125
-250.049	-184.369	-0.313	-0.005
-249.034	13.435	0.133	-0.102
-248.019	-200.000	0.017	0.169
-247.005	800.000	0.052	0.161
-245.990	-183.901	0.353	0.006
-244.976	-35.356	-0.325	0.175
-243.961	119.994	-0.213	0.262
-242.946	-88.997	-0.210	-0.061
-241.932	-152.897	0.409	-0.029
-240.917	32.013	0.238	-0.204
-239.903	-19.867	-0.240	-0.147
-238.888	-6.622	0.157	0.106
-237.873	800.000	0.073	-0.266
-236.859	-61.807	-0.151	0.063
-235.844	0.562	0.478	0.339
-234.830	-200.000	-0.047	0.227
-233.815	539.197	0.071	-0.167
-232.800	-187.008	0.168	-0.002
-231.786	113.602	0.131	-0.158
-230.771	228.222	0.151	-0.243
-229.757	-36.334	-0.047	0.025
-228.742	-124.734	0.113	0.017
-227.727	33.650	0.099	-0.085
-226.713	112.614	0.193	0.231
-225.698	-37.769	0.150	-0.079
-224.684	136.604	-0.149	0.192
-223.669	10.185	0.298	-0.224
-222.655	48.497	0.134	-0.125
-221.640	-46.715	-0.448	0.217
-220.625	440.539	0.067	-0.145
-219.611	800.000	0.086	-0.320
-218.596	800.000	0.122	-0.387
-217.582	69.599	0.090	0.091
-216.567	-200.000	0.017	-0.147
-215.552	429.079	-0.154	0.330
-214.538	10.027	-0.220	-0.166
-213.523	577.780	-0.129	-0.313
-212.509	11.536	0.115	0.087
-211.494	-143.281	-0.145	0.014
-210.479	3.336	0.304	0.219
-209.465	495.466	0.062	-0.141
-208.450	-200.000	-0.027	-0.375
-207.436	-120.865	-0.193	0.032
-206.421	-200.000	0.036	-0.202
-205.406	-71.879	-0.109	0.040
-204.392	-200.000	-0.063	0.314
-203.377	-200.000	-0.009	0.056
-202.363	-200.000	-0.032	0.310
-201.348	800.000	0.048	-0.158
-200.333	125.651	-0.049	0.061
-199.319	-11.850	0.347	0.225
-198.304	-117.408	-0.062	0.011
-197.290	-200.000	-0.020	-0.154
-196.275	-200.000	-0.020	0.192
-195.260	139.674	0.120	-0.157
-194.246	-62.313	0.178	0.073
-193.231	-126.274	-0.085	-0.012
-192.217	78.848	0.113	0.119
-191.202	-129.104	-0.071	-0.010
-190.187	-23.370	0.141	0.084
-189.173	39.650	-0.174	-0.154
-188.158	-200.000	0.060	0.375
-187.144	-200.000	0.019	-0.117
-186.129	314.991	0.012	0.022
-185.114	-69.800	-0.255	-0.096
-184.100	63.811	-0.143	0.142
-183.085	-73.782	0.108	0.039
-182.071	16.416	-0.221	-0.173
-181.056	800.000	-0.077	0.283
-180.042	-200.000	-0.039	0.340
-179.027	478.732	0.183	0.411
-178.012	-117.279	-0.346	-0.062
-176.998	33.737	0.145	0.125
-175.983	-52.582	0.432	-0.197
-174.969	-17.216	0.374	0.233
-173.954	-68.720	0.203	0.078
-172.939	-0.973	0.171	-0.120
-171.925	-200.000	-0.078	0.416
-170.910	-200.000	-0.004	0.067
-169.896	-200.000	0.203	-0.000
-168.881	-200.000	-0.030	-0.180
-167.866	-124.485	-0.258	0.040
-166.852	-118.612	-0.384	-0.067
-165.837	-200.000	0.069	-0.000
-164.823	-52.231	0.075	0.034
-163.808	221.234	-0.156	0.248
-162.793	354.870	0.066	0.129
-161.779	800.000	0.101	-0.289
-160.764	-200.000	0.016	0.173
-159.750	30.468	0.281	0.237
-158.735	-200.000	-0.024	-0.383
-157.720	-42.804	-0.082	-0.041
-156.706	-200.000	-0.047	0.226
-155.691	-200.000	0.013	0.073
-154.677	32.643	-0.294	0.251
-153.662	800.000	0.070	-0.242
-152.647	-200.000	-0.037	-0.208
-151.633	-99.045	0.294	-0.073
-150.618	-140.027	0.218	-0.023
-149.604	-200.000	-0.031	0.232
-148.589	-77.069	-0.106	-0.036
-147.574	-200.000	0.027	-0.349
-146.560	-200.000	-0.035	0.155
-145.545	-168.682	0.216	0.008
-144.531	-41.370	-0.099	0.051
-143.516	-200.000	-0.007	0.174
-142.502	153.573	0.165	0.223
-141.487	177.000	0.105	-0.151
-140.472	290.128	-0.056	0.101
-139.458	184.500	0.251	0.367
-138.443	736.790	0.006	-0.017
-137.429	-200.000	0.014	0.174
-136.414	-200.000	-0.009	-0.188
-135.399	-7.990	0.279	-0.185
-134.385	10.812	-0.293	-0.221
-133.370	800.000	0.029	-0.085
-132.356	59.841	0.069	0.067
-131.341	535.487	-0.116	0.272
-130.326	196.986	0.151	-0.227
-129.312	800.000	-0.043	-0.187
-128.297	-200.000	0.020	0.089
-127.283	110.866	0.064	-0.076
-126.268	-85.039	-0.130	0.040
-125.253	-162.358	-0.246	0.012
-124.239	-17.162	0.125	-0.078
-123.224	-70.583	-0.177	0.066
-122.210	-200.000	0.033	-0.219
-121.195	800.000	-0.074	0.239
-120.180	-200.000	0.023	0.165
-119.166	283.837	-0.110	0.196
-118.151	19.104	-0.097	-0.077
-117.137	-193.636	0.150	0.001
-116.122	26.573	-0.311	-0.257
-115.107	466.491	-0.058	0.128
-114.093	-114.218	0.364	-0.069
-113.078	748.339	0.032	-0.084
-112.064	28.650	0.076	0.064
-111.049	-111.400	0.226	0.045
-110.034	-200.000	0.056	-0.347
-109.020	-154.860	0.306	-0.020
-108.005	-40.156	-0.074	-0.038
-106.991	239.755	0.026	0.043
-105.976	-200.000	-0.022	-0.189
-104.962	-23.720	0.114	-0.068
-103.947	-1.220	-0.157	-0.109
-102.932	-200.000	0.036	-0.246
-101.918	6.198	-0.179	0.131
-100.903	10.439	-0.035	-0.026
-99.889	-200.000	-0.006	0.292
-98.874	16.224	-0.171	0.133
-97.859	-62.071	0.192	-0.079
-96.845	800.000	0.045	-0.183
-95.830	-140.460	0.183	-0.019
-94.816	-119.955	-0.322	-0.055
-93.801	-86.847	-0.232	0.070
-92.786	-0.609	-0.333	-0.232
-91.772	800.000	-0.156	-0.458
-90.757	609.097	-0.121	-0.298
-89.743	153.551	0.151	0.203
-88.728	-200.000	0.064	0.426
-87.713	34.623	-0.240	0.207
-86.699	-200.000	-0.012	-0.109
-85.684	167.797	-0.057	-0.079
-84.670	68.306	-0.160	-0.162
-83.655	302.340	0.065	-0.119
-82.640	-130.618	0.062	-0.008
-81.626	77.434	-0.311	-0.326
-80.611	129.228	0.143	0.180
-79.597	-106.318	0.097	0.021
-78.582	175.833	-0.016	0.023
-77.567	-200.000	0.002	-0.247
-76.553	167.585	-0.132	-0.185
-75.538	-136.159	-0.143	-0.016
-74.524	97.232	0.034	0.038
-73.509	-179.838	-0.128	-0.003
-72.494	-88.482	0.078	0.023
-71.480	-37.475	0.261	0.137
-70.465	12.031	0.237	-0.180
-69.451	-90.367	-0.539	-0.154
-68.436	33.920	-0.265	-0.227
-67.422	21.921	-0.190	0.153
-66.407	-146.185	0.176	-0.015
-65.392	-40.644	-0.277	-0.141
-64.378	800.000	-0.054	-0.194
-63.363	800.000	-0.039	-0.165
-62.349	-200.000	-0.023	-0.165
-61.334	40.353	-0.746	-0.661
-60.319	-13.816	0.366	0.233
-59.305	-200.000	-0.205	-1.074
-58.290	241.876	0.640	1.053
-57.276	208.328	0.915	1.407
-56.261	-200.000	95.503	591.336
-55.246	571.574	1364.660	3268.906
-54.232	162.979	2538.190	3506.490
-53.217	112.535	2155.976	2566.536
-52.203	42.908	1702.986	1526.875
-51.188	35.530	1516.297	1309.364
-50.173	33.212	1489.886	1270.956
-49.159	51.655	1539.000	1439.262
-48.144	53.667	1556.419	1469.255
-47.130	35.665	1516.478	1310.235
-46.115	32.502	1501.964	1276.243
-45.100	32.293	1498.825	1272.110
-44.086	32.412	1496.565	1270.945
-43.071	32.333	1494.520	1268.629
-42.057	32.256	1493.355	1267.068
-41.042	32.216	1491.544	1265.216
-40.027	32.258	1490.580	1264.628
-39.013	32.251	1488.765	1262.989
-37.998	32.219	1487.750	1261.865
-36.984	32.210	1486.867	1261.006
-35.969	32.208	1485.332	1259.643
-34.954	32.259	1483.337	1258.238
-33.940	32.246	1482.643	1257.512
-32.925	32.258	1480.961	1256.118
-31.911	32.327	1479.657	1255.422
-30.896	32.322	1478.046	1253.975
-29.881	32.371	1476.884	1253.267
-28.867	32.272	1475.744	1251.586
-27.852	32.321	1474.107	1250.477
-26.838	32.389	1472.521	1249.534
-25.823	32.344	1470.681	1247.622
-24.809	32.334	1469.567	1246.564
-23.794	32.200	1468.506	1244.725
-22.779	32.315	1466.757	1243.951
-21.765	32.255	1465.900	1242.779
-20.750	32.189	1464.684	1241.263
-19.736	32.187	1463.483	1240.184
-18.721	32.294	1462.093	1239.663
-17.706	32.193	1461.655	1238.573
-16.692	32.212	1460.315	1237.516
-15.677	32.248	1459.290	1236.836
-14.663	32.167	1458.645	1235.710
-13.648	32.280	1457.451	1235.392
-12.633	32.254	1455.883	1233.840
-11.619	32.147	1455.938	1233.135
-10.604	32.195	1455.039	1232.639
-9.590	32.215	1453.827	1231.696
-8.575	32.311	1452.659	1231.288
-7.560	32.302	1451.993	1230.612
-6.546	32.198	1451.231	1229.242
-5.531	32.252	1450.020	1228.516
-4.517	32.048	1449.977	1227.100
-3.502	32.144	1448.527	1226.448
-2.487	32.228	1447.074	1225.717
-1.473	32.216	1446.230	1224.874
-0.458	32.213	1444.791	1223.589
0.556	32.860	1434.922	1212.622
1.571	29.956	1411.043	1173.957
2.586	26.830	1357.498	1110.207
3.600	25.304	1279.426	1037.453
4.615	23.933	1230.878	990.368
5.629	20.423	1173.395	925.366
6.644	10.970	1086.321	809.779
7.659	3.392	1044.439	742.107
8.673	2.446	1038.879	733.561
9.688	2.143	1035.995	730.013
10.702	1.954	1034.354	727.891
11.717	1.918	1032.465	726.322
12.731	5.730	1036.424	747.245
13.746	15.431	1050.681	804.145
14.761	22.995	1060.632	848.135
15.775	25.291	1061.834	860.035
16.790	25.605	1061.726	861.374
17.804	25.452	1060.642	859.687
18.819	25.145	1060.417	857.960
19.834	25.328	1059.161	857.742
20.848	25.404	1059.123	857.998
21.863	25.369	1059.122	857.754
22.877	25.307	1059.095	857.363
23.892	25.420	1057.620	856.631
24.907	25.393	1056.796	855.760
25.921	25.515	1056.025	855.637
26.936	25.329	1055.576	854.317
27.950	25.321	1054.545	853.366
28.965	25.325	1052.978	852.044
29.980	25.246	1051.504	850.398
30.994	25.255	1050.677	849.700
32.009	25.435	1049.904	849.850
33.023	25.436	1049.387	849.360
34.038	25.244	1048.218	847.431
35.053	25.226	1047.241	846.485
36.067	25.396	1046.803	846.855
37.082	25.363	1045.885	845.881
38.096	25.420	1045.132	845.469
39.111	25.532	1044.457	845.372
40.126	25.631	1043.493	844.982
41.140	25.567	1042.390	843.715
42.155	25.394	1040.678	841.443
43.169	25.042	1039.820	839.028
44.184	25.013	1038.447	837.712
45.199	25.099	1037.889	837.588
46.213	24.922	1036.896	835.886
47.228	24.906	1035.754	834.817
48.242	25.233	1035.096	835.739
49.257	25.179	1034.882	835.236
50.271	25.263	1034.233	835.030
51.286	25.479	1033.540	835.404
52.301	25.407	1032.851	834.436
53.315	25.399	1032.213	833.812
54.330	25.397	1031.232	832.937
55.344	25.389	1030.505	832.236
56.359	25.392	1029.271	831.182
57.374	25.236	1028.699	829.922
58.388	25.203	1027.621	828.831
59.403	25.188	1026.909	828.110
60.417	25.181	1025.870	827.167
61.432	24.975	1025.214	825.616
62.447	25.057	1024.753	825.548
63.461	25.214	1023.683	825.339
64.476	25.151	1023.387	824.737
65.490	25.074	1022.839	823.867
66.505	25.052	1021.467	822.591
67.520	25.165	1020.602	822.338
68.534	25.183	1019.852	821.741
69.549	25.052	1018.665	820.116
70.563	24.742	1017.878	817.989
71.578	24.536	1017.003	816.272
72.593	24.670	1016.515	816.423
73.607	24.658	1015.252	815.279
74.622	24.547	1014.423	814.037
75.636	24.712	1013.808	814.223
76.651	24.989	1013.303	815.006
77.666	24.796	1012.586	813.478
78.680	24.722	1011.276	812.018
79.695	24.855	1010.616	812.019
80.709	24.845	1010.337	811.678
81.724	25.151	1009.408	812.246
82.739	24.932	1008.721	810.630
83.753	24.959	1008.039	810.133
84.768	25.206	1006.628	810.041
85.782	25.536	1006.474	811.335
86.797	25.722	1006.010	811.729
87.812	25.772	1005.027	811.089
88.826	25.466	1004.185	808.962
89.841	25.486	1003.661	808.559
90.855	25.606	1002.704	808.253
91.870	25.730	1001.857	808.056
92.884	25.688	1000.880	807.007
93.899	25.596	999.617	805.510
94.914	25.363	998.743	803.691
95.928	25.456	998.444	803.791
96.943	25.596	997.503	803.590
97.957	25.382	995.926	801.297
98.972	25.061	995.141	799.162
99.987	24.908	994.099	797.572
101.001	25.007	993.781	797.685
102.016	25.201	993.493	798.250
103.030	25.247	992.625	797.683
104.045	25.325	990.901	796.577
105.060	25.170	989.481	794.675
106.074	24.987	989.044	793.446
107.089	25.001	988.268	792.814
108.103	25.332	987.814	793.844
109.118	25.248	987.626	793.251
110.133	24.950	986.246	790.756
111.147	25.130	984.682	790.228
112.162	24.912	984.290	788.882
113.176	24.673	983.141	786.837
114.191	24.832	982.296	786.792
115.206	25.052	981.208	786.818
116.220	24.758	980.029	784.512
117.235	24.664	979.481	783.590
118.249	24.758	978.854	783.433
119.264	24.719	978.098	782.590
120.279	24.828	976.860	782.004
121.293	24.654	976.335	780.755
122.308	24.758	975.966	780.846
123.322	24.904	974.988	780.631
124.337	24.676	974.047	778.813
125.352	24.633	972.590	777.391
126.366	24.251	970.940	774.346
127.381	24.028	969.403	772.083
128.395	24.564	969.738	774.608
129.410	25.118	969.437	776.700
130.424	25.366	968.611	777.042
131.439	25.299	967.479	775.778
132.454	25.250	966.755	774.916
133.468	25.238	965.868	774.087
134.483	25.226	964.664	773.000
135.497	25.175	964.430	772.525
136.512	25.615	963.435	773.550
137.527	25.482	962.901	772.482
138.541	25.553	961.722	771.773
139.556	25.453	961.677	771.239
140.570	25.541	960.670	770.739
141.585	25.667	959.354	770.157
142.600	25.676	959.422	770.183
143.614	25.587	957.765	768.404
144.629	25.685	957.468	768.516
145.643	25.902	957.086	769.065
146.658	25.701	955.681	767.013
147.673	25.505	954.329	765.025
148.687	25.431	953.589	764.053
149.702	25.351	952.775	762.992
150.716	25.207	951.431	761.234
151.731	25.403	949.926	760.794
152.746	25.316	949.827	760.281
153.760	25.519	949.598	760.889
154.775	25.740	948.657	761.000
155.789	25.772	947.883	760.448
156.804	25.608	947.047	759.018
157.819	25.710	946.054	758.584
158.833	25.615	945.544	757.709
159.848	25.687	944.828	757.372
160.862	25.842	943.872	757.191
161.877	25.842	942.581	756.088
162.892	25.683	942.049	754.925
163.906	25.714	941.166	754.284
164.921	25.739	940.077	753.449
165.935	25.623	939.162	752.162
166.950	25.732	938.369	751.915
167.964	25.688	937.904	751.293
168.979	25.679	936.394	749.980
169.994	25.646	935.617	749.155
171.008	25.433	934.621	747.403
172.023	25.639	934.079	747.759
173.037	25.697	933.470	747.447
174.052	25.572	932.247	745.884
175.067	25.369	931.395	744.295
176.081	25.362	930.610	743.573
177.096	25.525	929.237	743.084
178.110	25.544	928.597	742.587
179.125	25.269	927.815	740.761
180.140	25.019	926.867	738.907
181.154	24.952	926.486	738.260
182.169	25.232	925.719	738.737
183.183	25.418	925.834	739.530
184.198	25.609	925.201	739.744
185.213	25.614	924.737	739.326
186.227	25.537	924.002	738.359
187.242	25.627	923.440	738.215
188.256	25.727	922.770	738.022
189.271	25.770	921.428	737.059
190.286	25.879	920.954	737.062
191.300	25.654	920.129	735.417
192.315	25.071	918.637	731.778
193.329	24.413	917.096	727.805
194.344	23.837	916.103	724.605
195.359	24.400	916.673	727.285
196.373	25.419	916.612	731.325
197.388	25.627	916.567	732.071
198.402	25.710	915.465	731.464
199.417	25.449	915.291	730.199
200.432	25.562	915.208	730.528
201.446	25.473	914.178	729.277
202.461	25.127	913.595	727.344
203.475	25.288	913.058	727.506
204.490	24.789	911.921	724.515
205.504	23.696	909.459	718.079
206.519	24.172	908.992	719.570
207.534	25.054	909.586	723.540
208.548	25.160	908.830	723.300
209.563	25.427	909.395	724.762
210.577	25.490	908.373	724.137
211.592	25.309	907.310	722.497
212.607	25.542	907.299	723.365
213.621	25.842	906.812	724.116
214.636	25.731	906.070	723.017
215.650	25.794	905.516	722.764
216.665	25.625	904.785	721.439
217.680	25.699	904.509	721.450
218.694	25.925	904.101	721.968
219.709	25.482	902.923	719.191
220.723	25.151	902.013	717.075
221.738	25.258	901.699	717.190
222.753	25.674	901.102	718.316
223.767	25.551	900.293	717.116
224.782	25.668	899.262	716.698
225.796	25.815	899.098	717.089
226.811	26.008	898.370	717.210
227.826	25.487	897.281	714.208
228.840	24.696	896.092	710.061
229.855	24.577	895.373	708.954
230.869	24.947	894.971	710.039
231.884	24.583	893.971	707.742
232.899	24.560	893.250	707.018
233.913	25.456	893.703	710.860
234.928	25.563	893.332	710.927
235.942	25.474	892.515	709.862
236.957	25.434	892.363	709.518
237.972	25.463	890.552	708.132
238.986	25.198	890.262	706.793
240.001	25.168	889.849	706.284
241.015	25.221	889.073	705.816
242.030	25.386	888.399	705.867
243.045	25.344	888.422	705.657
244.059	25.610	887.872	706.203
245.074	25.609	887.311	705.689
246.088	25.713	886.332	705.254
247.103	25.413	885.123	703.059
248.117	25.427	885.114	703.044
249.132	25.873	885.046	704.671
250.147	26.187	885.318	706.054
251.161	26.338	884.397	705.848
252.176	26.440	883.644	705.579
253.190	26.458	883.318	705.326
254.205	26.436	883.109	705.013
255.220	26.697	882.502	705.481
256.234	26.756	881.236	704.636
257.249	26.590	880.826	703.600
258.263	26.401	880.255	702.352
259.278	26.401	880.178	702.225
260.293	26.453	879.730	702.010
261.307	26.510	879.055	701.629
262.322	26.438	878.278	700.667
263.336	26.339	877.825	699.862
264.351	26.003	876.209	697.213
265.366	24.756	874.162	690.711
266.380	24.488	873.078	688.758
267.395	25.226	874.079	692.337
268.409	25.889	874.081	694.833
269.424	25.907	873.397	694.295
270.439	26.079	872.961	694.552
271.453	26.158	872.316	694.282
272.468	26.229	871.451	693.805
273.482	26.387	871.131	694.093
274.497	26.525	870.798	694.296
275.512	26.445	869.294	692.731
276.526	25.892	868.294	689.757
277.541	25.952	868.154	689.814
278.555	26.444	867.439	691.065
279.570	26.209	866.816	689.608
280.585	26.006	866.471	688.501
281.599	26.132	865.454	688.109
282.614	26.200	865.248	688.146
283.628	25.707	864.476	685.594
284.643	25.376	863.570	683.556
285.657	25.850	863.443	685.196
286.672	25.609	862.972	683.846
287.687	25.179	861.899	681.301
288.701	25.489	861.808	682.349
289.716	25.824	861.873	683.611
290.730	25.580	860.417	681.468
291.745	25.458	859.527	680.244
292.760	25.279	858.848	678.968
293.774	25.118	858.425	677.964
294.789	26.249	858.957	682.600
295.803	26.885	858.820	684.835
296.818	26.918	858.133	684.348
297.833	26.854	857.875	683.842
298.847	26.673	856.435	681.953
299.862	26.335	855.810	680.123
300.876	26.445	855.385	680.139
301.891	26.832	855.030	681.251
302.906	26.860	854.705	681.036
303.920	26.438	853.849	678.710
304.935	26.372	852.667	677.463
305.949	26.704	852.692	678.668
306.964	26.817	852.127	678.579
307.979	26.379	851.732	676.566
308.993	26.392	851.489	676.365
310.008	26.859	850.895	677.579
311.022	27.122	850.127	677.888
312.037	26.829	849.495	676.232
313.052	26.816	848.641	675.440
314.066	26.445	848.199	673.647
315.081	25.596	846.998	669.478
316.095	25.031	845.531	666.158
317.110	25.615	845.804	668.485
318.125	26.397	846.044	671.522
319.139	26.008	845.020	669.207
320.154	24.899	843.130	663.543
321.168	24.473	842.174	661.153
322.183	24.984	842.716	663.413
323.197	25.945	843.362	667.425
324.212	26.337	842.763	668.340
325.227	26.461	842.311	668.379
326.241	26.625	842.357	668.965
327.256	26.536	841.221	667.673
328.270	26.307	840.528	666.222
329.285	26.288	840.215	665.845
330.300	26.122	839.303	664.450
331.314	25.937	838.759	663.280
332.329	26.124	837.725	663.092
333.343	26.564	837.686	664.619
334.358	26.618	837.429	664.553
335.373	26.646	836.848	664.136
336.387	26.806	836.171	664.128
337.402	26.960	836.137	664.605
338.416	27.083	835.567	664.543
339.431	27.020	834.976	663.784
340.446	27.073	834.543	663.574
341.460	27.419	834.072	664.404
342.475	27.303	833.173	663.208
343.489	27.061	832.916	662.062
344.504	27.144	832.060	661.624
345.519	27.251	832.037	661.935
346.533	27.573	831.687	662.771
347.548	27.511	831.275	662.160
348.562	27.610	830.502	661.844
349.577	27.470	830.237	661.067
350.592	27.481	829.278	660.284
351.606	27.438	829.020	659.865
352.621	27.318	828.620	659.051
353.635	27.389	827.707	658.524
354.650	27.213	827.854	657.946
355.665	27.005	826.569	656.115
356.679	25.802	825.101	650.551
357.694	25.783	824.218	649.728
358.708	26.487	824.446	652.388
359.723	26.406	823.716	651.462
360.738	26.528	823.567	651.728
361.752	27.017	823.484	653.364
362.767	27.042	823.535	653.437
363.781	27.437	823.038	654.403
364.796	27.745	822.984	655.408
365.810	27.813	822.524	655.228
366.825	27.858	822.089	654.986
367.840	27.788	821.711	654.375
368.854	27.742	821.160	653.715
369.869	27.293	820.213	651.294
370.883	27.178	819.435	650.207
371.898	27.330	818.791	650.181
372.913	27.117	818.190	648.887
373.927	27.187	817.694	648.688
374.942	27.224	817.236	648.397
375.956	27.375	816.601	648.374
376.971	27.427	816.147	648.141
377.986	27.607	815.546	648.248
379.000	27.787	815.244	648.589
380.015	27.925	814.581	648.497
381.029	27.847	813.814	647.551
382.044	27.606	813.744	646.583
383.059	27.805	812.731	646.426
384.073	27.968	812.244	646.560
385.088	27.768	812.114	645.689
386.102	27.841	811.639	645.513
387.117	27.671	810.864	644.238
388.132	27.534	810.113	643.103
389.146	27.379	809.209	641.779
390.161	26.748	808.452	638.901
391.175	26.974	808.229	639.464
392.190	27.469	808.128	641.070
393.205	27.481	807.688	640.706
394.219	26.354	806.162	635.481
395.234	24.802	803.590	627.954
396.248	24.139	802.469	624.697
397.263	24.978	803.838	628.654
398.278	26.922	805.037	636.360
399.292	27.423	804.832	637.897
400.307	27.059	803.931	635.853
401.321	27.114	803.680	635.793
402.336	27.064	803.950	635.775
403.350	27.357	803.382	636.294
404.365	27.802	803.101	637.569
405.380	28.058	803.108	638.412
406.394	28.309	803.042	639.179
407.409	28.536	802.667	639.615
408.423	28.518	801.897	638.884
409.438	28.519	801.205	638.277
410.453	28.573	800.839	638.119
411.467	28.601	800.450	637.850
412.482	28.607	799.481	637.042
413.496	28.397	799.502	636.273
414.511	28.631	799.196	636.786
415.526	28.543	798.689	636.019
416.540	28.408	798.694	635.501
417.555	28.337	798.009	634.650
418.569	28.121	797.240	633.236
419.584	28.136	796.616	632.737
420.599	28.086	796.635	632.524
421.613	111.573	1284.940	1458.503
422.628	96.190	1356.091	1458.628
