DTS Sentinel unit serial number:	SN413079Multiplexer serial number:	ORYXHardware model number:	OX4-SRSoftware version number:	ORYX F/W v4.00 Oryx Data Collector v3.7.2.0data status	okinstallation	princeton_trtdifferential loss correction	single-endedforward channel	channel 3reverse channel	N/Adate	2019/09/11time	12:26:11forward acquisition time	60.00reverse acquisition time	0.00gamma	496.2192k internal	0.2294k external	0.2294temperature offset calibration	0.9934default loss term (dB/km)	0.3790temperature slope calibration	1.0000multiplexer offset coefficient	1.0000multiplexer slope coefficient	1.0000fibre end	0.00T internal ref (°C)	40.33T ext. ref 1 (°C)	0.22T ext. ref 2 (°C)	38.46length (m)	temperature (°C)	Stokes	anti-Stokes-747.200	676.486	-0.044	0.118
-746.185	-175.311	0.191	0.005
-745.171	-200.000	-0.002	-0.195
-744.156	800.000	-0.072	0.250
-743.142	382.300	-0.154	0.324
-742.127	-114.513	-0.068	-0.013
-741.112	44.007	-0.127	0.119
-740.098	158.552	0.087	0.123
-739.083	48.670	-0.159	-0.153
-738.069	138.210	-0.144	0.193
-737.054	-12.296	-0.238	-0.159
-736.039	99.935	-0.302	-0.357
-735.025	12.627	-0.160	0.126
-734.010	86.304	-0.278	-0.313
-732.996	-200.000	0.014	-0.131
-731.981	149.065	-0.179	0.248
-730.966	221.818	-0.074	-0.122
-729.952	-64.434	0.145	0.060
-728.937	-198.963	-0.224	0.001
-727.923	-16.914	-0.051	-0.033
-726.908	453.313	0.020	-0.045
-725.894	-88.851	-0.387	0.117
-724.879	-106.140	-0.031	0.007
-723.864	800.000	0.025	-0.083
-722.850	-101.874	0.110	-0.027
-721.835	294.049	0.054	-0.100
-720.821	-131.363	0.275	-0.037
-719.806	800.000	-0.017	-0.073
-718.791	800.000	0.082	-0.255
-717.777	800.000	0.076	-0.260
-716.762	-200.000	0.045	0.235
-715.748	-41.552	-0.134	0.071
-714.733	727.490	0.071	0.194
-713.718	174.550	0.187	-0.276
-712.704	-200.000	-0.009	0.136
-711.689	-104.270	-0.406	0.096
-710.675	-139.299	0.323	-0.035
-709.660	235.757	-0.094	-0.159
-708.645	-99.684	0.269	0.069
-707.631	399.174	0.195	-0.418
-706.616	15.969	-0.053	-0.042
-705.602	6.289	0.072	-0.054
-704.587	-200.000	0.056	0.269
-703.572	-40.076	-0.380	-0.202
-702.558	2.152	-0.261	-0.193
-701.543	190.405	-0.137	0.211
-700.529	196.008	0.116	0.180
-699.514	-138.745	-0.164	-0.018
-698.499	-38.094	0.375	0.203
-697.485	-200.000	-0.035	-0.501
-696.470	-104.418	-0.217	0.051
-695.456	470.022	0.047	0.108
-694.441	-118.145	-0.101	-0.018
-693.426	-154.649	-0.148	-0.010
-692.412	455.239	0.070	-0.159
-691.397	150.005	-0.028	-0.039
-690.383	-200.000	-0.047	0.000
-689.368	800.000	-0.077	0.245
-688.354	-132.766	0.143	-0.019
-687.339	800.000	0.051	0.193
-686.324	281.457	-0.068	-0.125
-685.310	82.157	-0.115	-0.127
-684.295	-24.399	-0.121	-0.074
-683.281	-71.579	-0.177	0.067
-682.266	-184.485	0.301	-0.005
-681.251	-200.000	0.008	-0.089
-680.237	-200.000	-0.008	0.333
-679.222	115.137	-0.193	0.240
-678.208	-13.495	-0.081	-0.053
-677.193	-19.218	-0.241	-0.153
-676.178	-28.412	-0.408	-0.240
-675.164	-200.000	0.006	-0.425
-674.149	-14.707	0.108	0.071
-673.135	314.817	-0.128	-0.245
-672.120	213.787	-0.175	-0.282
-671.105	-32.090	0.247	-0.141
-670.091	-140.210	-0.305	-0.033
-669.076	548.985	0.066	-0.162
-668.062	91.314	0.217	-0.248
-667.047	800.000	0.043	0.186
-666.032	-200.000	0.003	0.301
-665.018	88.206	-0.114	0.128
-664.003	242.772	-0.072	-0.123
-662.989	-124.242	-0.144	-0.023
-661.974	-64.727	-0.203	0.084
-660.959	-110.122	0.230	-0.049
-659.945	-19.030	-0.107	-0.068
-658.930	800.000	0.053	0.222
-657.916	-111.084	-0.073	-0.015
-656.901	96.072	-0.162	-0.188
-655.886	-200.000	0.023	-0.357
-654.872	800.000	-0.036	-0.129
-653.857	14.989	-0.206	-0.164
-652.843	15.177	0.136	-0.109
-651.828	159.433	-0.119	-0.169
-650.814	-128.277	0.098	-0.014
-649.799	-200.000	-0.033	0.192
-648.784	590.724	0.030	-0.075
-647.770	157.147	0.027	0.037
-646.755	800.000	0.076	-0.273
-645.741	1.657	0.150	-0.110
-644.726	-87.098	0.317	-0.098
-643.711	800.000	-0.041	0.123
-642.697	428.486	-0.129	0.284
-641.682	22.659	0.031	0.026
-640.668	-104.384	-0.173	0.041
-639.653	272.533	-0.202	-0.363
-638.638	-133.439	-0.081	-0.010
-637.624	-34.342	-0.341	0.191
-636.609	26.756	-0.051	-0.044
-635.595	233.985	-0.161	0.271
-634.580	800.000	-0.041	-0.138
-633.565	800.000	0.045	0.189
-632.551	-116.465	-0.100	0.019
-631.536	-200.000	0.013	0.196
-630.522	-200.000	-0.018	-0.227
-629.507	-114.362	-0.200	-0.039
-628.492	26.622	0.216	0.184
-627.478	24.185	0.273	-0.229
-626.463	113.612	-0.153	-0.190
-625.449	195.435	-0.112	-0.173
-624.434	43.987	0.169	0.157
-623.419	52.047	0.165	-0.160
-622.405	99.614	-0.054	0.063
-621.390	800.000	-0.074	-0.311
-620.376	1.629	0.301	-0.221
-619.361	-62.372	-0.173	-0.073
-618.346	-51.431	-0.053	0.025
-617.332	539.178	0.087	-0.210
-616.317	227.095	-0.028	0.046
-615.303	-200.000	0.035	-0.246
-614.288	82.603	-0.226	-0.250
-613.273	-112.498	-0.164	-0.033
-612.259	58.456	-0.249	-0.249
-611.244	91.498	0.116	-0.132
-610.230	8.074	0.137	-0.105
-609.215	-200.000	-0.022	-0.151
-608.201	28.583	-0.096	-0.082
-607.186	15.904	-0.162	0.130
-606.171	-39.600	-0.197	-0.105
-605.157	-200.000	0.057	0.447
-604.142	-200.000	0.086	0.526
-603.128	439.337	-0.149	-0.331
-602.113	1.710	0.195	0.143
-601.098	-200.000	0.036	0.504
-600.084	-35.146	-0.159	0.088
-599.069	-86.800	-0.160	0.050
-598.055	-200.000	-0.004	-0.338
-597.040	-200.000	-0.017	-0.136
-596.025	-200.000	0.001	0.065
-595.011	-25.933	-0.121	-0.072
-593.996	-200.000	-0.008	0.059
-592.982	-200.000	-0.010	0.149
-591.967	-131.381	0.131	-0.018
-590.952	-200.000	0.030	-0.208
-589.938	800.000	-0.077	0.340
-588.923	14.548	-0.022	0.017
-587.909	-64.741	-0.180	0.074
-586.894	235.971	-0.149	0.250
-585.879	343.156	-0.179	0.356
-584.865	45.007	-0.131	0.123
-583.850	502.658	0.102	0.240
-582.836	-96.717	0.161	0.043
-581.821	675.986	0.067	-0.176
-580.806	-85.652	-0.135	-0.043
-579.792	55.226	-0.088	0.087
-578.777	52.771	-0.048	-0.047
-577.763	159.585	0.145	-0.204
-576.748	447.904	0.077	-0.171
-575.733	5.767	-0.245	-0.184
-574.719	-154.385	0.171	-0.012
-573.704	-75.343	0.255	-0.092
-572.690	-85.751	0.172	-0.054
-571.675	105.635	-0.163	0.196
-570.661	-89.617	-0.202	0.060
-569.646	314.526	0.075	0.143
-568.631	-113.224	-0.461	0.092
-567.617	-14.228	-0.215	0.141
-566.602	800.000	0.111	-0.457
-565.588	707.610	-0.123	0.330
-564.573	-199.093	-0.288	-0.002
-563.558	-141.651	-0.478	0.049
-562.544	-13.364	0.110	-0.072
-561.529	-4.149	-0.297	-0.209
-560.515	-34.997	-0.134	-0.074
-559.500	-76.897	0.531	0.189
-558.485	-59.614	-0.299	0.130
-557.471	52.177	-0.187	0.181
-556.456	-31.481	0.342	-0.195
-555.442	344.888	0.120	0.240
-554.427	-21.798	0.249	0.154
-553.412	9.762	-0.188	-0.144
-552.398	-200.000	-0.027	0.220
-551.383	-200.000	-0.009	-0.213
-550.369	-166.458	0.274	0.012
-549.354	-61.453	0.214	0.091
-548.339	282.837	0.067	-0.122
-547.325	99.936	0.234	-0.275
-546.310	-77.686	-0.176	0.062
-545.296	28.923	0.132	-0.114
-544.281	381.285	-0.083	0.174
-543.266	94.775	0.196	-0.226
-542.252	-200.000	-0.023	-0.153
-541.237	528.921	-0.058	0.138
-540.223	-145.319	-0.218	-0.020
-539.208	-167.178	-0.331	-0.014
-538.193	536.061	-0.110	0.265
-537.179	516.619	0.093	0.220
-536.164	-37.468	0.138	-0.075
-535.150	-200.000	0.041	-0.325
-534.135	800.000	0.056	-0.193
-533.121	14.192	-0.130	-0.103
-532.106	224.871	0.169	-0.277
-531.091	-83.786	0.299	-0.097
-530.077	89.072	0.151	0.170
-529.062	-200.000	-0.014	-0.209
-528.048	-96.808	-0.085	0.023
-527.033	302.767	-0.106	-0.198
-526.018	116.323	-0.214	0.266
-525.004	168.634	0.255	0.369
-523.989	-95.713	-0.086	0.023
-522.975	800.000	-0.141	-0.422
-521.960	-10.803	0.093	-0.063
-520.945	-74.364	0.262	0.096
-519.931	43.289	0.076	0.070
-518.916	-21.360	0.092	0.057
-517.902	192.976	-0.050	-0.077
-516.887	620.322	-0.110	0.281
-515.872	24.659	-0.263	0.221
-514.858	29.062	-0.069	0.060
-513.843	202.689	-0.009	-0.013
-512.829	-200.000	0.061	-0.535
-511.814	-133.164	-0.122	0.016
-510.799	122.508	0.249	0.315
-509.785	-200.000	0.007	-0.451
-508.770	129.800	0.141	-0.182
-507.756	-200.000	-0.129	0.000
-506.741	-200.000	-0.015	0.300
-505.726	8.467	0.321	-0.245
-504.712	-200.000	0.018	-0.492
-503.697	121.243	0.103	0.130
-502.683	-200.000	-0.081	-0.461
-501.668	28.241	0.363	0.310
-500.653	67.895	-0.056	0.058
-499.639	-71.478	-0.432	0.164
-498.624	10.125	0.250	0.193
-497.610	89.481	0.081	0.091
-496.595	-44.480	-0.111	-0.056
-495.581	-23.400	-0.067	0.041
-494.566	-57.573	-0.287	0.128
-493.551	62.497	0.183	-0.185
-492.537	269.205	-0.067	0.120
-491.522	-26.335	-0.256	-0.152
-490.508	-28.538	-0.222	0.130
-489.493	191.161	0.098	0.149
-488.478	240.054	-0.229	0.387
-487.464	29.726	-0.261	-0.225
-486.449	-200.000	0.057	-0.256
-485.435	149.589	-0.163	-0.224
-484.420	-77.736	0.269	-0.094
-483.405	-119.018	0.263	-0.047
-482.391	-200.000	-0.018	-0.258
-481.376	-170.758	-0.117	0.004
-480.362	-193.936	-0.190	-0.002
-479.347	30.490	-0.156	-0.135
-478.332	56.615	0.140	0.138
-477.318	80.148	0.072	0.079
-476.303	-200.000	0.043	0.268
-475.289	800.000	-0.041	-0.133
-474.274	641.536	-0.034	0.088
-473.259	-5.226	-0.259	-0.180
-472.245	156.612	-0.188	0.262
-471.230	384.415	0.072	0.151
-470.216	230.196	-0.145	0.240
-469.201	115.358	0.037	0.046
-468.186	-200.000	0.033	-0.360
-467.172	550.006	-0.070	0.170
-466.157	-6.501	0.262	-0.181
-465.143	-23.737	0.113	0.069
-464.128	346.247	-0.084	0.167
-463.113	39.518	-0.220	0.200
-462.099	-200.000	0.003	-0.248
-461.084	-75.713	-0.293	-0.105
-460.070	800.000	-0.080	-0.319
-459.055	-51.047	-0.124	-0.059
-458.040	51.564	-0.272	-0.261
-457.026	-10.386	-0.196	-0.131
-456.011	54.903	-0.278	0.272
-454.997	49.448	0.104	0.099
-453.982	-79.904	-0.121	-0.041
-452.968	800.000	-0.060	0.192
-451.953	68.556	-0.097	-0.101
-450.938	116.799	0.289	0.359
-449.924	-200.000	0.054	0.474
-448.909	277.320	0.097	0.175
-447.895	-200.000	-0.020	0.174
-446.880	-34.661	-0.297	0.164
-445.865	-103.700	-0.145	-0.034
-444.851	64.063	0.278	-0.283
-443.836	547.813	0.042	0.100
-442.822	-192.811	0.329	0.003
-441.807	-79.841	-0.111	-0.038
-440.792	-200.000	-0.017	0.288
-439.778	112.741	0.187	0.229
-438.763	-82.597	-0.134	0.044
-437.749	-200.000	0.015	-0.395
-436.734	-34.484	-0.293	-0.162
-435.719	756.787	0.148	-0.404
-434.705	-200.000	-0.027	-0.339
-433.690	-200.000	-0.002	0.081
-432.676	-27.533	0.537	-0.315
-431.661	-200.000	0.003	-0.088
-430.646	-200.000	-0.020	-0.218
-429.632	-200.000	-0.012	0.343
-428.617	40.815	-0.046	0.042
-427.603	-136.018	-0.210	-0.025
-426.588	244.667	0.099	0.167
-425.573	130.182	0.103	0.133
-424.559	800.000	0.101	0.365
-423.544	800.000	0.091	0.264
-422.530	17.744	0.259	0.208
-421.515	186.364	-0.225	-0.338
-420.500	-44.110	-0.067	-0.034
-419.486	-68.447	-0.165	0.065
-418.471	132.880	0.095	0.124
-417.457	800.000	-0.096	0.375
-416.442	-63.637	-0.036	-0.015
-415.428	142.194	0.062	0.084
-414.413	800.000	0.021	-0.063
-413.398	4.269	-0.154	-0.114
-412.384	-57.306	0.303	0.134
-411.369	-165.624	-0.268	0.012
-410.355	83.531	-0.125	0.138
-409.340	105.160	0.161	-0.192
-408.325	-81.850	0.471	0.156
-407.311	93.490	-0.078	-0.090
-406.296	800.000	0.050	-0.174
-405.282	-113.933	0.165	0.032
-404.267	388.964	0.066	0.138
-403.252	798.979	0.031	-0.085
-402.238	183.949	0.171	0.256
-401.223	-52.576	-0.160	-0.075
-400.209	-49.399	-0.062	-0.030
-399.194	-74.673	0.188	0.068
-398.179	-108.413	-0.409	0.089
-397.165	8.268	-0.142	0.108
-396.150	-130.109	0.108	0.015
-395.136	-77.115	-0.086	0.030
-394.121	-200.000	-0.021	0.113
-393.106	8.875	0.222	-0.169
-392.092	528.714	-0.105	-0.249
-391.077	83.389	0.244	-0.268
-390.063	-200.000	0.010	-0.132
-389.048	-200.000	-0.033	0.151
-388.033	174.976	0.116	-0.170
-387.019	36.667	-0.116	0.103
-386.004	-171.525	0.180	-0.006
-384.990	134.444	0.125	-0.164
-383.975	-200.000	-0.056	0.275
-382.960	454.134	0.094	0.209
-381.946	138.741	-0.265	0.351
-380.931	99.232	0.193	-0.225
-379.917	-200.000	-0.031	-0.172
-378.902	-200.000	0.014	-0.212
-377.888	-109.285	-0.164	0.035
-376.873	62.865	-0.055	-0.055
-375.858	-130.993	0.211	-0.028
-374.844	-138.937	-0.198	-0.022
-373.829	-16.476	0.048	0.031
-372.815	-47.011	0.133	0.066
-371.800	-95.463	0.106	0.029
-370.785	121.187	-0.271	0.341
-369.771	129.345	-0.154	-0.198
-368.756	800.000	-0.070	-0.226
-367.742	-168.998	-0.076	0.003
-366.727	-157.528	-0.256	0.015
-365.712	-86.531	-0.088	-0.027
-364.698	2.940	0.100	-0.073
-363.683	155.136	0.108	0.149
-362.669	800.000	0.058	-0.237
-361.654	800.000	0.055	-0.218
-360.639	-72.712	0.129	0.048
-359.625	214.626	0.045	-0.071
-358.610	-103.538	0.224	-0.053
-357.596	-123.177	-0.118	-0.019
-356.581	316.486	0.130	-0.247
-355.566	-200.000	-0.060	-0.444
-354.552	25.544	-0.218	-0.183
-353.537	111.431	-0.106	0.128
-352.523	459.502	-0.029	0.066
-351.508	-105.116	-0.194	0.045
-350.493	77.827	0.210	0.226
-349.479	-127.368	-0.087	0.013
-348.464	-127.201	0.098	-0.014
-347.450	-124.239	-0.124	0.020
-346.435	800.000	0.070	-0.262
-345.420	634.916	0.145	-0.371
-344.406	-121.962	-0.330	0.055
-343.391	-91.602	-0.296	0.085
-342.377	782.015	-0.063	-0.175
-341.362	4.902	-0.250	-0.185
-340.348	-200.000	-0.095	0.572
-339.333	227.932	0.083	0.137
-338.318	42.267	-0.126	0.115
-337.304	-109.686	-0.272	0.058
-336.289	-187.429	0.196	-0.003
-335.275	-80.430	-0.063	0.021
-334.260	-98.048	-0.256	-0.066
-333.245	77.544	0.103	-0.110
-332.231	318.111	0.102	-0.194
-331.216	53.238	0.110	-0.106
-330.202	334.657	-0.125	0.244
-329.187	29.767	0.079	0.067
-328.172	424.312	-0.107	0.231
-327.158	-31.262	-0.128	-0.073
-326.143	-27.541	-0.152	-0.089
-325.129	566.765	-0.012	0.030
-324.114	-150.983	-0.159	0.012
-323.099	73.336	0.167	0.176
-322.085	800.000	0.015	0.043
-321.070	-200.000	0.010	0.097
-320.056	800.000	-0.033	-0.106
-319.041	81.262	0.165	0.179
-318.026	-20.139	0.114	-0.071
-317.012	-200.000	0.033	0.267
-315.997	-87.500	0.206	-0.063
-314.983	-39.209	0.252	-0.133
-313.968	-74.043	-0.355	-0.129
-312.953	-200.000	-0.049	0.252
-311.939	-200.000	-0.048	0.400
-310.924	-200.000	0.024	-0.294
-309.910	800.000	0.042	-0.170
-308.895	-147.132	-0.119	-0.010
-307.880	800.000	-0.028	0.090
-306.866	272.302	0.159	0.283
-305.851	-200.000	0.093	0.000
-304.837	-142.938	0.153	-0.015
-303.822	-200.000	0.050	-0.289
-302.807	516.549	0.137	0.323
-301.793	80.061	0.221	-0.239
-300.778	-131.030	-0.251	0.034
-299.764	4.722	0.117	0.086
-298.749	572.502	-0.029	0.070
-297.735	-50.485	0.025	-0.012
-296.720	-80.065	0.268	0.090
-295.705	647.715	-0.041	-0.104
-294.691	-134.049	0.248	-0.031
-293.676	-34.108	0.111	0.061
-292.662	-194.064	0.168	0.001
-291.647	-200.000	0.018	0.140
-290.632	148.449	-0.172	0.233
-289.618	196.210	-0.216	0.330
-288.603	-116.035	-0.308	-0.058
-287.589	150.947	0.132	-0.181
-286.574	-15.895	0.126	0.081
-285.559	-200.000	-0.023	-0.106
-284.545	800.000	-0.053	-0.197
-283.530	271.748	0.090	0.160
-282.516	147.078	-0.107	0.144
-281.501	488.438	0.026	-0.059
-280.486	-137.488	-0.399	-0.045
-279.472	-200.000	-0.013	-0.070
-278.457	310.844	0.065	-0.122
-277.443	67.011	-0.072	-0.074
-276.428	392.606	-0.030	0.062
-275.413	-36.572	0.208	-0.112
-274.399	-75.887	-0.225	0.080
-273.384	-158.064	0.372	-0.022
-272.370	227.252	0.139	0.227
-271.355	-200.000	0.014	-0.167
-270.340	-73.122	0.106	-0.039
-269.326	-200.000	0.027	0.182
-268.311	122.160	-0.154	-0.193
-267.297	-200.000	0.068	-0.326
-266.282	-34.919	-0.028	0.015
-265.267	54.293	0.272	-0.263
-264.253	-12.076	0.199	-0.131
-263.238	-107.402	-0.151	0.033
-262.224	133.928	-0.067	0.087
-261.209	-100.881	0.252	-0.062
-260.195	354.960	0.029	0.057
-259.180	-145.035	0.333	-0.030
-258.165	-129.920	0.184	-0.025
-257.151	321.195	-0.108	0.206
-256.136	-56.775	-0.331	-0.147
-255.122	-45.023	-0.025	0.013
-254.107	135.472	0.167	-0.218
-253.092	-45.346	0.161	-0.080
-252.078	311.806	-0.088	-0.166
-251.063	-110.229	0.156	0.033
-250.049	125.895	-0.195	0.247
-249.034	800.000	-0.084	0.253
-248.019	-200.000	-0.024	-0.195
-247.005	800.000	-0.078	0.307
-245.990	-162.337	-0.087	0.004
-244.976	-118.697	-0.180	-0.032
-243.961	149.394	0.120	0.163
-242.946	109.523	0.124	0.149
-241.932	699.134	0.055	-0.145
-240.917	1.202	-0.271	0.195
-239.903	48.105	0.244	0.229
-238.888	75.639	-0.157	0.167
-237.873	78.437	0.128	0.137
-236.859	13.281	0.299	-0.232
-235.844	446.308	0.100	-0.220
-234.830	-150.111	-0.084	0.007
-233.815	125.293	-0.047	0.059
-232.800	-113.504	-0.131	-0.026
-231.786	-200.000	-0.001	-0.235
-230.771	528.300	0.119	-0.281
-229.757	-68.934	-0.069	0.027
-228.742	-200.000	-0.004	-0.391
-227.727	223.615	0.152	0.246
-226.713	-73.446	0.264	0.097
-225.698	601.880	-0.053	0.132
-224.684	800.000	-0.036	0.123
-223.669	-199.891	0.195	-0.001
-222.655	92.246	0.359	-0.406
-221.640	-103.531	0.296	0.070
-220.625	-200.000	0.039	-0.248
-219.611	-130.014	-0.192	-0.026
-218.596	-0.599	-0.125	-0.089
-217.582	-200.000	-0.037	-0.181
-216.567	1.624	0.176	-0.127
-215.552	-200.000	0.031	-0.399
-214.538	-111.116	0.222	-0.046
-213.523	390.788	-0.045	0.093
-212.509	-164.524	0.193	0.009
-211.494	-57.423	-0.380	-0.167
-210.479	41.871	0.004	-0.004
-209.465	-57.794	0.367	-0.161
-208.450	-116.643	-0.365	0.067
-207.436	-200.000	0.081	0.365
-206.421	82.542	0.089	-0.097
-205.406	800.000	0.048	-0.177
-204.392	103.807	-0.105	0.123
-203.377	278.568	-0.149	0.267
-202.363	90.596	0.387	-0.434
-201.348	-83.738	0.146	0.047
-200.333	616.635	0.116	0.291
-199.319	-200.000	-0.013	0.097
-198.304	800.000	-0.056	-0.166
-197.290	240.247	-0.139	-0.231
-196.275	800.000	-0.107	0.345
-195.260	-71.120	-0.083	-0.031
-194.246	-190.420	0.120	-0.001
-193.231	75.216	-0.056	-0.059
-192.217	-182.815	-0.191	0.003
-191.202	75.317	-0.044	0.046
-190.187	35.599	0.035	0.030
-189.173	-200.000	0.031	-0.176
-188.158	800.000	0.082	0.307
-187.144	-200.000	0.015	-0.203
-186.129	-129.979	0.051	0.007
-185.114	632.494	0.078	-0.198
-184.100	242.583	-0.193	0.323
-183.085	53.204	0.377	0.361
-182.071	-200.000	-0.038	0.268
-181.056	-176.384	-0.191	0.005
-180.042	-87.517	0.102	-0.031
-179.027	158.640	0.075	-0.104
-178.012	-134.723	0.241	0.029
-176.998	-200.000	0.053	0.358
-175.983	526.016	-0.063	-0.149
-174.969	-49.629	0.185	-0.088
-173.954	50.479	0.235	-0.222
-172.939	-20.263	-0.169	-0.104
-171.925	-67.725	0.172	0.067
-170.910	-155.719	0.352	-0.023
-169.896	55.866	-0.404	0.392
-168.881	44.884	0.151	0.139
-167.866	0.572	-0.085	-0.061
-166.852	-0.659	-0.215	-0.152
-165.837	-200.000	-0.036	0.166
-164.823	-129.243	0.324	-0.045
-163.808	25.526	-0.044	0.037
-162.793	17.811	0.076	0.061
-161.779	289.161	-0.243	0.441
-160.764	-82.622	0.395	-0.128
-159.750	-101.845	-0.380	0.092
-158.735	-99.020	0.318	-0.081
-157.720	-156.987	0.423	0.026
-156.706	800.000	-0.055	-0.184
-155.691	-122.528	-0.178	0.029
-154.677	184.500	0.064	0.095
-153.662	800.000	0.082	0.237
-152.647	493.627	-0.054	-0.123
-151.633	-86.013	0.125	0.039
-150.618	-87.060	-0.169	-0.051
-149.604	475.747	0.034	-0.077
-148.589	360.109	-0.095	-0.191
-147.574	-57.370	-0.271	-0.119
-146.560	60.981	0.100	0.099
-145.545	-42.957	-0.357	0.181
-144.531	392.114	-0.132	0.273
-143.516	-200.000	0.020	-0.115
-142.502	-140.738	-0.549	0.057
-141.487	-178.270	0.204	0.005
-140.472	-200.000	0.001	-0.164
-139.458	800.000	0.036	-0.121
-138.443	-200.000	0.032	0.391
-137.429	-78.407	-0.285	0.098
-136.414	-9.531	0.108	0.072
-135.399	-173.980	0.196	-0.006
-134.385	-151.727	-0.050	-0.004
-133.370	-135.224	0.201	-0.024
-132.356	-158.851	-0.324	0.018
-131.341	-26.065	-0.144	0.084
-130.326	-1.795	-0.150	0.106
-129.312	-200.000	-0.020	0.089
-128.297	13.818	-0.350	0.272
-127.283	405.794	-0.089	0.189
-126.268	78.289	0.118	-0.126
-125.253	80.503	0.149	0.161
-124.239	-97.008	-0.074	0.019
-123.224	800.000	0.039	0.143
-122.210	529.847	-0.085	-0.201
-121.195	745.147	0.048	-0.128
-120.180	-67.041	-0.085	0.033
-119.166	-200.000	0.027	-0.220
-118.151	-122.559	-0.127	0.021
-117.137	335.386	-0.080	0.154
-116.122	568.174	0.102	-0.248
-115.107	800.000	0.076	0.215
-114.093	191.981	0.141	0.212
-113.078	6.115	-0.200	0.148
-112.064	-149.129	0.454	-0.036
-111.049	42.531	0.105	0.095
-110.034	80.778	0.251	0.270
-109.020	-11.210	-0.014	0.009
-108.005	-200.000	-0.010	0.067
-106.991	-200.000	0.005	0.256
-105.976	800.000	-0.054	-0.227
-104.962	387.008	-0.107	0.221
-103.947	163.896	0.192	-0.270
-102.932	-200.000	0.004	-0.022
-101.918	74.158	0.225	0.235
-100.903	191.736	-0.174	0.262
-99.889	-15.526	0.300	-0.191
-98.874	487.527	0.178	-0.404
-97.859	41.667	-0.219	-0.198
-96.845	-122.447	-0.369	-0.060
-95.830	337.769	-0.057	0.111
-94.816	-52.156	-0.096	0.044
-93.801	-129.621	0.252	0.035
-92.786	-140.114	-0.134	-0.014
-91.772	-59.893	0.404	-0.172
-90.757	61.535	0.047	-0.046
-89.743	-125.200	-0.149	0.023
-88.728	-121.992	-0.103	0.017
-87.713	87.003	0.128	0.141
-86.699	18.436	0.274	0.218
-85.684	-140.462	-0.289	-0.030
-84.670	-200.000	0.005	0.086
-83.655	-97.575	-0.186	-0.048
-82.640	-25.430	-0.226	-0.133
-81.626	-200.000	0.023	-0.544
-80.611	38.274	-0.326	0.290
-79.597	800.000	-0.020	0.065
-78.582	-39.263	0.275	0.144
-77.567	50.669	-0.249	0.235
-76.553	366.673	-0.082	-0.166
-75.538	-13.378	-0.397	-0.256
-74.524	71.266	0.176	0.182
-73.509	171.485	-0.134	0.191
-72.494	319.381	-0.129	0.243
-71.480	217.389	-0.175	0.278
-70.465	-200.000	-0.032	-0.332
-69.451	194.111	0.150	0.226
-68.436	259.646	-0.078	-0.134
-67.422	41.085	-0.239	-0.215
-66.407	-147.100	0.369	-0.031
-65.392	-158.174	0.060	-0.004
-64.378	-94.650	0.286	-0.078
-63.363	-104.591	0.260	-0.060
-62.349	-200.000	0.044	0.205
-61.334	16.953	-0.831	-0.656
-60.319	347.237	0.267	0.524
-59.305	800.000	0.219	-0.622
-58.290	375.595	0.296	0.600
-57.276	498.300	0.710	1.627
-56.261	-200.000	75.652	506.791
-55.246	527.392	1333.224	3128.982
-54.232	143.629	2586.784	3430.590
-53.217	114.387	2266.798	2747.822
-52.203	51.034	1789.487	1688.936
-51.188	43.711	1588.066	1446.681
-50.173	41.059	1557.804	1400.422
-49.159	56.682	1594.123	1544.323
-48.144	62.439	1614.295	1604.689
-47.130	44.141	1577.621	1439.994
-46.115	40.684	1563.687	1402.839
-45.100	40.497	1559.810	1397.986
-44.086	40.407	1557.978	1395.657
-43.071	40.407	1555.575	1393.447
-42.057	40.421	1553.402	1391.546
-41.042	40.363	1552.510	1390.288
-40.027	40.289	1551.363	1388.685
-39.013	40.331	1548.996	1386.806
-37.998	40.209	1548.614	1385.551
-36.984	40.322	1547.986	1385.723
-35.969	40.355	1546.047	1384.166
-34.954	40.440	1544.200	1383.049
-33.940	40.373	1542.603	1381.097
-32.925	40.332	1541.243	1379.540
-31.911	40.401	1539.823	1378.694
-30.896	40.393	1538.477	1377.380
-29.881	40.490	1537.188	1376.843
-28.867	40.372	1535.637	1374.580
-27.852	40.316	1534.700	1373.304
-26.838	40.416	1532.844	1372.278
-25.823	40.474	1531.223	1371.175
-24.809	40.387	1529.741	1369.194
-23.794	40.394	1528.203	1367.811
-22.779	40.333	1527.028	1366.283
-21.765	40.364	1526.219	1365.717
-20.750	40.369	1524.615	1364.263
-19.736	40.470	1523.606	1364.001
-18.721	40.352	1522.723	1362.341
-17.706	40.334	1521.692	1361.243
-16.692	40.308	1520.230	1359.701
-15.677	40.369	1519.115	1359.070
-14.663	40.230	1518.241	1357.282
-13.648	40.305	1517.051	1356.677
-12.633	40.351	1516.083	1356.075
-11.619	40.274	1515.428	1354.909
-10.604	40.259	1514.582	1353.992
-9.590	40.189	1513.321	1352.330
-8.575	40.151	1512.817	1351.570
-7.560	40.176	1511.518	1350.530
-6.546	40.336	1510.036	1350.238
-5.531	40.222	1509.929	1349.317
-4.517	40.184	1508.903	1348.085
-3.502	40.224	1507.846	1347.358
-2.487	40.240	1506.530	1346.235
-1.473	40.237	1505.260	1345.027
-0.458	40.293	1504.220	1344.430
0.556	38.715	1495.349	1336.598
1.571	36.511	1468.854	1298.017
2.586	33.382	1406.050	1222.249
3.600	31.675	1321.053	1137.896
4.615	29.650	1271.640	1083.381
5.629	23.946	1210.958	999.638
6.644	11.361	1115.382	855.094
7.659	1.794	1068.164	770.605
8.673	0.508	1061.985	759.613
9.688	0.219	1058.770	755.792
10.702	0.181	1056.781	754.119
11.717	-0.027	1055.566	752.141
12.731	4.205	1061.012	777.204
13.746	15.601	1077.660	847.082
14.761	22.482	1086.127	888.497
15.775	22.555	1084.782	887.688
16.790	22.423	1084.320	886.565
17.804	22.223	1083.479	884.792
18.819	21.930	1082.621	882.540
19.834	22.105	1081.843	882.709
20.848	22.108	1081.556	882.411
21.863	22.140	1081.146	882.157
22.877	22.177	1080.870	882.043
23.892	22.153	1080.258	881.343
24.907	21.963	1079.577	879.757
25.921	22.165	1078.648	879.932
26.936	21.998	1078.120	878.590
27.950	22.077	1076.449	877.544
28.965	22.113	1075.280	876.694
29.980	21.943	1073.637	874.431
30.994	21.910	1072.442	873.214
32.009	22.149	1071.503	873.562
33.023	22.297	1071.039	873.842
34.038	22.010	1069.613	871.178
35.053	21.907	1069.090	870.161
36.067	22.189	1068.057	870.643
37.082	22.054	1067.678	869.586
38.096	22.156	1066.733	869.246
39.111	22.180	1066.314	868.948
40.126	22.482	1065.041	869.324
41.140	22.346	1063.657	867.444
42.155	22.173	1062.078	865.228
43.169	21.768	1061.146	862.401
44.184	21.649	1060.840	861.493
45.199	21.810	1059.283	860.939
46.213	21.835	1058.205	860.112
47.228	21.693	1057.521	858.784
48.242	21.838	1057.196	859.156
49.257	22.009	1056.281	859.173
50.271	21.844	1055.698	857.812
51.286	22.189	1054.676	858.592
52.301	22.247	1053.525	857.862
53.315	22.143	1053.194	857.012
54.330	22.160	1052.738	856.646
55.344	22.028	1051.587	854.993
56.359	22.171	1050.370	854.624
57.374	22.109	1049.702	853.700
58.388	21.997	1048.675	852.248
59.403	21.858	1047.893	850.862
60.417	21.903	1046.603	849.957
61.432	21.793	1046.154	848.984
62.447	21.779	1045.462	848.279
63.461	21.825	1045.038	848.083
64.476	21.965	1043.999	847.841
65.490	21.925	1043.419	847.101
66.505	21.841	1042.030	845.493
67.520	21.821	1041.686	845.044
68.534	21.951	1040.463	844.602
69.549	21.807	1039.761	843.268
70.563	21.552	1038.421	840.883
71.578	21.419	1037.378	839.325
72.593	21.441	1036.801	838.887
73.607	21.339	1035.155	836.994
74.622	21.367	1034.399	836.441
75.636	21.571	1034.365	837.315
76.651	21.645	1033.977	837.283
77.666	21.567	1032.757	835.848
78.680	21.623	1031.102	834.700
79.695	21.510	1030.901	833.925
80.709	21.595	1030.553	833.977
81.724	21.791	1029.880	834.292
82.739	21.714	1028.923	833.076
83.753	21.726	1028.104	832.393
84.768	21.968	1027.457	832.947
85.782	22.159	1026.964	833.376
86.797	22.454	1025.915	833.849
87.812	22.476	1025.395	833.460
88.826	22.145	1024.503	831.093
89.841	22.200	1023.592	830.540
90.855	22.359	1022.259	830.139
91.870	22.482	1021.792	830.264
92.884	22.383	1020.798	828.917
93.899	22.179	1020.080	827.299
94.914	22.148	1018.949	826.165
95.928	22.291	1018.135	826.101
96.943	22.227	1017.824	825.477
97.957	22.077	1016.436	823.574
98.972	21.711	1015.265	820.840
99.987	21.590	1013.935	819.125
101.001	21.787	1013.395	819.539
102.016	22.006	1012.863	820.056
103.030	21.996	1012.331	819.508
104.045	21.988	1010.927	818.261
105.060	21.804	1009.789	816.411
106.074	21.650	1008.319	814.436
107.089	21.748	1007.772	814.378
108.103	22.092	1007.635	815.791
109.118	22.124	1006.636	815.056
110.133	21.900	1005.082	812.688
111.147	21.898	1004.345	812.014
112.162	21.839	1002.646	810.295
113.176	21.557	1001.770	808.212
114.191	21.656	1001.489	808.373
115.206	21.726	1000.527	807.849
116.220	21.572	998.878	805.737
117.235	21.413	998.131	804.330
118.249	21.450	997.570	803.976
119.264	21.585	996.634	803.774
120.279	21.455	995.894	802.508
121.293	21.280	995.571	801.373
122.308	21.549	994.126	801.369
123.322	21.558	993.436	800.787
124.337	21.470	992.553	799.601
125.352	21.490	991.047	798.409
126.366	21.041	989.299	794.882
127.381	20.624	987.996	791.866
128.395	21.351	987.396	794.622
129.410	21.828	987.396	796.722
130.424	21.899	986.933	796.600
131.439	22.057	985.737	796.279
132.454	21.874	984.802	794.625
133.468	22.084	983.670	794.591
134.483	21.877	983.321	793.303
135.497	22.097	981.857	793.044
136.512	22.182	981.919	793.407
137.527	22.187	980.887	792.527
138.541	22.240	980.225	792.161
139.556	22.323	979.340	791.750
140.570	22.349	978.603	791.199
141.585	22.299	977.509	790.022
142.600	22.501	976.825	790.304
143.614	22.231	975.996	788.354
144.629	22.381	975.107	788.238
145.643	22.582	974.582	788.641
146.658	22.467	973.287	787.013
147.673	22.320	971.905	785.170
148.687	22.339	970.772	784.269
149.702	22.090	970.282	782.694
150.716	22.034	969.008	781.346
151.731	22.038	967.888	780.392
152.746	22.032	967.395	779.901
153.760	22.225	966.785	780.197
154.775	22.217	966.527	779.885
155.789	22.482	965.470	780.134
156.804	22.447	964.304	778.969
157.819	22.321	963.563	777.746
158.833	22.355	962.540	777.002
159.848	22.373	962.161	776.707
160.862	22.458	961.372	776.374
161.877	22.455	960.018	775.199
162.892	22.313	959.274	773.904
163.906	22.430	958.669	773.863
164.921	22.476	956.984	772.634
165.935	22.288	956.286	771.179
166.950	22.398	955.342	770.833
167.964	22.395	954.486	770.061
168.979	22.365	953.594	769.140
169.994	22.310	952.333	767.815
171.008	22.118	951.527	766.261
172.023	22.360	950.481	766.403
173.037	22.533	949.815	766.553
174.052	22.264	948.974	764.638
175.067	22.009	948.107	762.764
176.081	22.132	946.764	762.148
177.096	22.280	946.241	762.301
178.110	22.206	945.573	761.378
179.125	22.088	944.271	759.751
180.140	21.774	942.970	757.277
181.154	21.785	942.655	757.007
182.169	21.938	942.134	757.182
183.183	22.141	941.811	757.730
184.198	22.429	941.505	758.659
185.213	22.498	940.138	757.786
186.227	22.208	939.918	756.296
187.242	22.383	939.547	756.680
188.256	22.326	938.949	755.888
189.271	22.289	937.491	754.489
190.286	22.444	937.119	754.788
191.300	22.329	936.263	753.540
192.315	21.807	934.804	750.064
193.329	21.192	933.030	745.951
194.344	20.839	931.942	743.505
195.359	21.325	931.950	745.520
196.373	22.130	932.256	749.133
197.388	22.506	931.942	750.415
198.402	22.233	931.672	748.970
199.417	22.254	930.729	748.233
200.432	22.397	930.367	748.487
201.446	22.176	929.654	746.907
202.461	21.859	928.939	744.921
203.475	21.911	928.232	744.509
204.490	21.573	926.393	741.537
205.504	20.482	924.654	735.463
206.519	20.809	924.503	736.660
207.534	21.712	924.909	740.740
208.548	21.985	924.101	741.178
209.563	22.164	924.136	741.897
210.577	22.273	923.560	741.828
211.592	21.985	922.273	739.518
212.607	22.360	922.105	740.897
213.621	22.470	921.878	741.111
214.636	22.274	921.372	739.813
215.650	22.437	920.611	739.821
216.665	22.531	919.576	739.319
217.680	22.337	919.381	738.283
218.694	22.557	918.861	738.723
219.709	22.279	917.745	736.596
220.723	21.837	916.770	733.901
221.738	22.058	916.087	734.214
222.753	22.313	916.062	735.194
223.767	22.188	915.381	734.061
224.782	22.298	914.522	733.763
225.796	22.412	913.942	733.708
226.811	22.625	913.348	734.052
227.826	22.171	912.242	731.210
228.840	21.544	910.519	727.161
229.855	21.400	909.976	726.066
230.869	21.644	909.382	726.539
231.884	21.204	908.849	724.225
232.899	21.254	908.286	723.921
233.913	22.135	908.301	727.518
234.928	22.273	907.792	727.614
235.942	22.174	906.991	726.501
236.957	22.158	906.508	725.982
237.972	22.023	905.228	724.336
238.986	21.732	904.749	722.690
240.001	21.853	904.087	722.596
241.015	22.016	903.351	722.615
242.030	21.964	903.099	722.133
243.045	22.177	902.196	722.225
244.059	22.210	901.923	722.079
245.074	22.362	901.765	722.510
246.088	22.335	901.018	721.738
247.103	22.083	899.673	719.566
248.117	21.993	899.171	718.731
249.132	22.544	899.420	721.123
250.147	22.917	899.044	722.282
251.161	22.879	898.484	721.613
252.176	23.143	897.900	722.158
253.190	23.138	897.217	721.526
254.205	23.161	896.553	721.021
255.220	23.259	896.531	721.338
256.234	23.317	896.000	721.083
257.249	23.176	894.642	719.353
258.263	23.094	894.219	718.619
259.278	23.041	893.574	717.819
260.293	23.119	893.097	717.688
261.307	23.214	892.535	717.558
262.322	23.124	891.777	716.521
263.336	22.926	891.235	715.220
264.351	22.573	889.994	712.736
265.366	21.471	888.187	706.773
266.380	20.942	887.036	703.662
267.395	21.728	887.470	707.118
268.409	22.734	887.521	711.154
269.424	22.600	887.245	710.326
270.439	22.767	886.661	710.469
271.453	22.893	885.998	710.381
272.468	22.990	885.139	710.021
273.482	23.046	885.092	710.143
274.497	23.216	884.423	710.228
275.512	23.068	883.379	708.735
276.526	22.481	881.898	705.134
277.541	22.725	881.292	705.564
278.555	23.043	881.245	706.733
279.570	22.632	881.048	704.872
280.585	22.571	879.825	703.585
281.599	22.664	879.361	703.524
282.614	22.861	878.809	703.807
283.628	22.379	877.741	700.968
284.643	22.030	877.154	699.048
285.657	22.395	877.171	700.452
286.672	22.371	876.350	699.638
287.687	21.922	874.788	696.549
288.701	22.118	874.841	697.306
289.716	22.632	874.676	699.153
290.730	22.273	873.711	696.899
291.745	22.079	872.995	695.495
292.760	21.933	871.794	693.901
293.774	21.789	871.695	693.193
294.789	22.679	872.411	697.219
295.803	23.386	872.268	699.837
296.818	23.604	871.402	699.939
297.833	23.480	871.099	699.145
298.847	23.284	870.077	697.493
299.862	22.963	869.187	695.456
300.876	23.104	868.773	695.617
301.891	23.381	868.396	696.341
302.906	23.501	867.686	696.180
303.920	23.244	866.782	694.387
304.935	23.048	865.892	692.843
305.949	23.303	865.498	693.467
306.964	23.452	865.113	693.681
307.979	23.145	864.782	692.151
308.993	23.167	863.946	691.506
310.008	23.434	863.833	692.400
311.022	23.674	863.395	692.921
312.037	23.380	862.977	691.380
313.052	23.115	861.986	689.493
314.066	23.195	861.282	689.179
315.081	22.485	859.874	685.230
316.095	21.808	858.383	681.353
317.110	22.375	858.625	683.686
318.125	23.230	858.747	687.041
319.139	22.794	857.900	684.615
320.154	21.732	856.109	679.012
321.168	21.253	854.800	676.059
322.183	21.771	855.448	678.517
323.197	22.818	855.441	682.501
324.212	23.068	855.105	683.141
325.227	23.108	855.307	683.394
326.241	23.239	854.776	683.417
327.256	23.175	854.552	682.931
328.270	23.116	853.368	681.697
329.285	23.119	852.636	681.061
330.300	22.889	852.157	679.732
331.314	22.701	851.187	678.178
332.329	22.693	850.745	677.737
333.343	23.123	849.712	678.501
334.358	23.360	850.093	679.653
335.373	23.423	849.377	679.265
336.387	23.534	848.651	679.047
337.402	23.517	848.698	678.962
338.416	23.803	847.990	679.427
339.431	23.754	847.482	678.774
340.446	23.787	846.712	678.224
341.460	23.977	846.669	678.852
342.475	23.915	846.355	678.305
343.489	23.828	845.076	676.886
344.504	23.638	844.671	675.782
345.519	23.942	844.625	676.840
346.533	24.198	843.820	677.109
347.548	24.100	843.693	676.577
348.562	24.173	843.240	676.428
349.577	24.223	842.868	676.259
350.592	24.218	841.393	674.997
351.606	24.159	841.080	674.463
352.621	24.015	841.063	673.846
353.635	23.934	840.485	673.016
354.650	23.995	839.699	672.556
355.665	23.503	838.828	669.943
356.679	22.592	837.077	665.049
357.694	22.362	836.814	663.913
358.708	23.059	836.681	666.376
359.723	23.120	835.873	665.903
360.738	23.260	835.739	666.264
361.752	23.698	835.627	667.765
362.767	23.860	835.236	668.001
363.781	24.051	835.100	668.553
364.796	24.301	835.226	669.533
365.810	24.434	834.719	669.564
366.825	24.556	834.178	669.531
367.840	24.651	833.715	669.456
368.854	24.408	833.029	667.937
369.869	23.874	832.416	665.387
370.883	23.805	831.584	664.406
371.898	23.832	831.081	664.044
372.913	23.739	830.273	662.992
373.927	23.707	829.729	662.382
374.942	23.890	829.102	662.505
375.956	24.018	828.940	662.791
376.971	24.215	827.889	662.626
377.986	24.253	827.322	662.253
379.000	24.506	827.008	662.886
380.015	24.469	826.737	662.472
381.029	24.327	825.960	661.263
382.044	24.218	825.236	660.221
383.059	24.451	825.028	660.861
384.073	24.482	824.663	660.624
385.088	24.400	824.009	659.738
386.102	24.430	823.405	659.308
387.117	24.300	822.311	657.893
388.132	24.003	822.183	656.638
389.146	24.030	821.484	656.118
390.161	23.467	820.484	653.191
391.175	23.317	820.238	652.385
392.190	24.124	820.126	655.208
393.205	24.126	819.669	654.791
394.219	23.197	817.908	649.918
395.234	21.531	816.086	642.304
396.248	20.919	814.382	638.662
397.263	21.882	815.077	642.682
398.278	23.682	816.467	650.319
399.292	24.180	816.627	652.211
400.307	23.819	815.733	650.120
401.321	23.813	815.175	649.595
402.336	23.755	815.251	649.387
403.350	23.927	815.206	649.921
404.365	24.564	814.868	651.923
405.380	24.815	814.567	652.539
406.394	25.012	814.354	653.027
407.409	25.143	814.030	653.187
408.423	25.205	813.796	653.167
409.438	25.011	813.175	651.906
410.453	24.993	812.542	651.276
411.467	25.083	812.217	651.284
412.482	25.163	811.451	650.905
413.496	25.166	810.818	650.349
414.511	25.215	810.494	650.210
415.526	25.003	810.448	649.346
416.540	25.141	809.962	649.400
417.555	24.985	809.581	648.472
418.569	24.718	808.528	646.604
419.584	24.768	808.044	646.340
420.599	24.895	807.684	646.453
421.613	94.069	1262.444	1382.531
422.628	80.717	1328.718	1382.655
