DTS Sentinel unit serial number:	SN413079Multiplexer serial number:	ORYXHardware model number:	OX4-SRSoftware version number:	ORYX F/W v4.00 Oryx Data Collector v3.7.2.0data status	okinstallation	princeton_trtdifferential loss correction	single-endedforward channel	channel 3reverse channel	N/Adate	2019/09/11time	01:06:11forward acquisition time	60.00reverse acquisition time	0.00gamma	496.2192k internal	0.2331k external	0.2331temperature offset calibration	0.9917default loss term (dB/km)	0.3790temperature slope calibration	1.0000multiplexer offset coefficient	1.0000multiplexer slope coefficient	1.0000fibre end	0.00T internal ref (°C)	29.12T ext. ref 1 (°C)	-0.30T ext. ref 2 (°C)	23.08length (m)	temperature (°C)	Stokes	anti-Stokes-747.200	355.312	-0.083	-0.166
-746.185	800.000	0.032	0.125
-745.171	660.462	0.163	0.422
-744.156	-200.000	0.078	0.394
-743.142	55.270	-0.079	0.077
-742.127	598.520	0.031	0.078
-741.112	63.572	0.211	0.213
-740.098	-50.363	-0.222	0.105
-739.083	-5.178	0.267	0.184
-738.069	-95.212	-0.051	-0.014
-737.054	77.355	-0.052	-0.056
-736.039	-151.145	-0.363	-0.027
-735.025	-113.217	0.504	-0.100
-734.010	-26.900	-0.196	-0.115
-732.996	41.506	0.049	0.045
-731.981	-1.760	0.217	0.153
-730.966	800.000	0.044	-0.128
-729.952	43.563	-0.229	-0.211
-728.937	-78.574	-0.132	-0.045
-727.923	-200.000	-0.027	-0.451
-726.908	209.548	0.114	-0.180
-725.894	-16.207	0.155	0.099
-724.879	34.081	0.224	0.196
-723.864	132.960	0.029	0.038
-722.850	-200.000	-0.073	0.494
-721.835	-200.000	-0.060	0.271
-720.821	-200.000	0.038	-0.180
-719.806	675.165	0.070	-0.182
-718.791	-200.000	-0.033	-0.422
-717.777	800.000	-0.065	-0.206
-716.762	-46.882	0.173	-0.085
-715.748	493.802	0.091	-0.210
-714.733	-78.793	0.267	0.092
-713.718	-200.000	0.000	-0.029
-712.704	142.352	-0.153	-0.205
-711.689	800.000	-0.019	0.077
-710.675	-85.976	0.243	-0.076
-709.660	394.339	0.105	0.220
-708.645	60.998	0.101	-0.101
-707.631	800.000	-0.081	-0.235
-706.616	-122.802	-0.484	0.079
-705.602	-6.212	0.211	-0.145
-704.587	535.235	-0.025	0.059
-703.572	318.391	0.121	0.231
-702.558	153.725	0.090	0.124
-701.543	-147.482	-0.251	-0.021
-700.529	-29.364	-0.197	0.113
-699.514	320.652	-0.131	0.250
-698.499	-105.402	0.154	0.035
-697.485	-148.864	0.214	0.017
-696.470	-88.803	-0.242	-0.072
-695.456	-18.942	0.146	-0.091
-694.441	-173.967	0.211	0.006
-693.426	143.469	-0.108	0.144
-692.412	-18.896	-0.236	0.147
-691.397	800.000	-0.082	-0.246
-690.383	-55.921	0.203	0.091
-689.368	-115.097	-0.230	0.044
-688.354	-200.000	-0.006	0.073
-687.339	-82.086	0.089	0.029
-686.324	2.896	-0.095	0.069
-685.310	-200.000	0.022	0.345
-684.295	381.846	-0.080	0.164
-683.281	-87.811	-0.251	-0.076
-682.266	-118.316	0.255	0.046
-681.251	-47.871	0.189	-0.092
-680.237	-200.000	-0.014	0.359
-679.222	-62.693	0.400	0.167
-678.208	-107.814	-0.211	0.046
-677.193	-150.901	-0.162	0.012
-676.178	800.000	0.063	0.203
-675.164	-90.551	-0.288	-0.084
-674.149	-94.494	0.441	0.121
-673.135	54.027	-0.275	-0.265
-672.120	-188.922	0.111	0.001
-671.105	24.209	-0.040	-0.033
-670.091	-200.000	0.009	-0.094
-669.076	29.165	-0.251	0.214
-668.062	-115.491	0.252	0.048
-667.047	800.000	-0.051	0.184
-666.032	-131.547	0.255	0.034
-665.018	518.629	0.090	0.212
-664.003	-88.282	-0.054	-0.016
-662.989	8.192	0.088	-0.066
-661.974	800.000	-0.048	0.160
-660.959	-52.299	-0.296	0.137
-659.945	8.063	-0.086	0.065
-658.930	-200.000	0.009	-0.234
-657.916	55.064	-0.150	0.145
-656.901	170.368	0.043	0.062
-655.886	-154.633	0.426	-0.028
-654.872	100.494	-0.081	0.095
-653.857	162.160	-0.199	-0.280
-652.843	-17.835	-0.612	-0.385
-651.828	-161.311	-0.334	-0.017
-650.814	35.029	0.066	0.058
-649.799	800.000	0.071	-0.245
-648.784	-90.228	-0.134	0.039
-647.770	-138.810	-0.198	-0.022
-646.755	9.117	0.072	-0.054
-645.741	-165.650	-0.246	0.011
-644.726	52.637	0.183	0.175
-643.711	397.849	0.024	0.050
-642.697	-83.419	0.161	-0.052
-641.682	-200.000	-0.002	-0.214
-640.668	-173.753	-0.214	0.006
-639.653	800.000	0.049	-0.166
-638.638	161.728	-0.207	-0.290
-637.624	-85.858	0.168	-0.052
-636.609	23.603	0.330	-0.273
-635.595	137.326	-0.097	0.127
-634.580	800.000	0.104	0.308
-633.565	-200.000	0.004	0.163
-632.551	800.000	0.015	0.046
-631.536	-131.750	0.271	0.036
-630.522	-147.301	0.077	-0.007
-629.507	800.000	0.071	0.217
-628.492	-84.681	0.111	0.035
-627.478	-76.162	-0.224	-0.079
-626.463	-200.000	-0.016	-0.181
-625.449	-80.274	-0.015	-0.005
-624.434	-98.366	-0.233	-0.060
-623.419	-155.886	0.346	-0.022
-622.405	154.744	-0.025	0.035
-621.390	288.039	0.087	-0.159
-620.376	-200.000	-0.343	0.000
-619.361	9.694	-0.046	0.035
-618.346	-52.750	-0.153	0.071
-617.332	68.288	-0.153	-0.157
-616.317	-174.301	-0.231	0.007
-615.303	-200.000	-0.069	0.412
-614.288	-200.000	-0.001	-0.069
-613.273	337.144	0.140	0.273
-612.259	160.283	0.117	-0.163
-611.244	-113.344	-0.049	-0.010
-610.230	500.114	-0.044	-0.102
-609.215	507.316	0.088	0.203
-608.201	60.284	-0.228	-0.226
-607.186	6.788	0.195	-0.145
-606.171	38.111	-0.385	-0.343
-605.157	-36.510	0.010	-0.005
-604.142	-200.000	-0.042	-0.218
-603.128	-142.761	-0.211	-0.021
-602.113	-200.000	-0.038	-0.178
-601.098	800.000	-0.097	-0.382
-600.084	-200.000	-0.025	-0.119
-599.069	103.436	-0.118	0.139
-598.055	24.957	-0.361	-0.299
-597.040	-99.792	0.079	-0.020
-596.025	-21.602	-0.354	0.216
-595.011	-55.541	-0.178	0.080
-593.996	0.660	-0.286	-0.205
-592.982	-200.000	-0.035	0.371
-591.967	-200.000	0.079	0.398
-590.952	6.400	-0.162	-0.120
-589.938	-200.000	-0.028	0.279
-588.923	-200.000	0.013	0.118
-587.909	-131.842	-0.082	0.011
-586.894	-200.000	0.005	-0.112
-585.879	800.000	0.055	-0.239
-584.865	-0.106	0.171	-0.122
-583.850	-100.002	0.472	-0.118
-582.836	459.868	-0.115	-0.255
-581.821	388.448	-0.075	-0.156
-580.806	71.564	0.136	0.141
-579.792	35.076	0.214	-0.188
-578.777	-149.525	0.309	0.024
-577.763	-85.637	0.214	0.066
-576.748	191.815	-0.078	0.118
-575.733	-46.240	-0.072	-0.035
-574.719	800.000	0.059	0.195
-573.704	100.084	-0.219	0.254
-572.690	-188.735	0.277	-0.003
-571.675	8.333	0.174	0.131
-570.661	-112.954	0.207	0.041
-569.646	28.171	-0.124	-0.105
-568.631	800.000	-0.052	0.190
-567.617	145.623	0.029	0.039
-566.602	-7.164	-0.196	0.133
-565.588	236.747	-0.096	-0.159
-564.573	800.000	-0.053	-0.168
-563.558	-55.670	-0.297	-0.133
-562.544	800.000	-0.034	0.116
-561.529	133.804	0.207	-0.268
-560.515	4.669	-0.161	-0.118
-559.500	-45.742	0.040	-0.020
-558.485	-200.000	-0.022	-0.167
-557.471	-131.227	-0.468	-0.062
-556.456	-200.000	-0.011	-0.363
-555.442	223.225	0.175	-0.283
-554.427	35.312	0.146	-0.128
-553.412	50.540	-0.078	-0.073
-552.398	-94.009	-0.139	0.038
-551.383	765.912	0.071	-0.193
-550.369	-55.618	-0.204	-0.091
-549.354	-200.000	-0.024	0.132
-548.339	30.415	-0.258	-0.221
-547.325	17.888	0.081	0.065
-546.310	9.859	-0.066	-0.050
-545.296	221.657	-0.122	0.196
-544.281	-112.000	-0.096	0.019
-543.266	-154.627	0.225	-0.015
-542.252	-85.345	0.176	0.055
-541.237	-74.151	-0.334	-0.121
-540.223	-80.021	-0.103	-0.034
-539.208	127.622	0.300	-0.381
-538.193	-200.000	-0.000	-0.060
-537.179	-85.576	0.190	0.059
-536.164	-200.000	-0.013	0.135
-535.150	-200.000	-0.015	-0.215
-534.135	-99.095	-0.147	0.037
-533.121	-110.021	0.249	0.052
-532.106	800.000	-0.084	-0.333
-531.091	113.152	-0.137	-0.166
-530.077	-88.852	0.239	-0.071
-529.062	-200.000	0.025	-0.112
-528.048	-200.000	0.002	-0.232
-527.033	-96.087	-0.091	0.024
-526.018	-200.000	0.011	-0.111
-525.004	5.833	-0.222	0.164
-523.989	-131.722	-0.108	0.014
-522.975	-200.000	0.058	0.309
-521.960	22.861	0.258	0.211
-520.945	-77.174	0.418	0.145
-519.931	91.843	-0.277	-0.311
-518.916	-200.000	0.024	-0.382
-517.902	-44.157	0.150	-0.075
-516.887	-8.769	-0.218	-0.146
-515.872	2.729	0.118	0.086
-514.858	-104.602	-0.088	-0.020
-513.843	288.637	-0.030	0.053
-512.829	-200.000	0.039	0.241
-511.814	98.362	-0.172	-0.197
-510.799	166.054	0.011	-0.015
-509.785	174.614	-0.090	0.130
-508.770	-92.828	0.416	-0.116
-507.756	275.547	-0.085	-0.150
-506.741	-7.248	0.130	-0.088
-505.726	-109.503	-0.163	-0.034
-504.712	-200.000	-0.015	0.105
-503.697	800.000	-0.066	-0.238
-502.683	800.000	0.023	0.098
-501.668	157.309	0.120	0.165
-500.653	-61.098	0.130	0.055
-499.639	-200.000	0.027	-0.444
-498.624	27.710	0.163	-0.137
-497.610	-0.288	-0.150	0.106
-496.595	686.681	0.049	-0.128
-495.581	800.000	-0.076	-0.259
-494.566	-160.524	-0.050	0.003
-493.551	-48.281	0.048	0.023
-492.537	-115.159	-0.203	0.038
-491.522	122.537	0.107	-0.133
-490.508	-147.682	-0.174	-0.015
-489.493	252.986	0.152	0.258
-488.478	-81.620	0.342	0.112
-487.464	-46.007	0.235	-0.116
-486.449	-5.532	-0.107	0.073
-485.435	167.852	0.154	-0.218
-484.420	17.698	0.178	0.141
-483.405	47.767	-0.187	0.174
-482.391	92.666	-0.160	-0.180
-481.376	-117.212	0.034	0.006
-480.362	26.959	0.042	0.035
-479.347	-0.036	-0.047	0.033
-478.332	-185.176	0.173	0.003
-477.318	800.000	0.034	0.107
-476.303	-122.525	-0.151	0.024
-475.289	250.915	-0.148	0.251
-474.274	800.000	0.045	-0.152
-473.259	42.922	-0.203	-0.184
-472.245	-72.179	-0.484	-0.179
-471.230	-200.000	0.067	-0.302
-470.216	218.395	-0.157	0.249
-469.201	800.000	-0.148	0.516
-468.186	182.204	-0.129	0.189
-467.172	-121.573	0.271	0.045
-466.157	0.850	-0.047	0.034
-465.143	800.000	-0.132	0.405
-464.128	789.550	-0.049	0.133
-463.113	-81.909	-0.241	-0.079
-462.099	-110.052	-0.298	0.062
-461.084	100.283	0.136	-0.157
-460.070	159.662	-0.090	0.124
-459.055	298.112	-0.106	-0.194
-458.040	-142.164	-0.230	0.023
-457.026	-77.596	0.265	-0.091
-456.011	-47.359	0.251	-0.122
-454.997	-56.671	-0.079	0.035
-453.982	-169.418	0.289	0.011
-452.968	41.334	0.133	0.120
-451.953	800.000	-0.138	0.398
-450.938	-200.000	-0.006	0.144
-449.924	-200.000	0.004	-0.182
-448.909	800.000	-0.061	0.210
-447.895	-136.514	-0.230	-0.027
-446.880	-41.912	-0.180	0.092
-445.865	-139.698	-0.324	-0.034
-444.851	-200.000	0.019	-0.436
-443.836	-200.000	0.053	-0.301
-442.822	-97.667	-0.181	0.047
-441.807	314.415	-0.038	0.071
-440.792	800.000	0.037	-0.148
-439.778	-200.000	0.028	-0.134
-438.763	800.000	0.067	-0.214
-437.749	44.511	0.222	0.203
-436.734	4.194	0.134	-0.098
-435.719	95.042	0.267	0.302
-434.705	-88.932	-0.171	-0.050
-433.690	-142.664	0.172	-0.017
-432.676	800.000	-0.092	0.287
-431.661	69.982	0.085	0.088
-430.646	-62.853	0.141	-0.058
-429.632	8.487	-0.321	-0.240
-428.617	800.000	0.070	0.297
-427.603	-159.160	0.339	0.019
-426.588	504.421	0.082	-0.189
-425.573	-200.000	0.017	-0.169
-424.559	-1.557	-0.147	-0.103
-423.544	182.320	0.173	-0.253
-422.530	197.558	-0.132	-0.200
-421.515	-68.831	-0.293	0.112
-420.500	26.144	-0.139	0.116
-419.486	-200.000	-0.021	-0.133
-418.471	-41.632	0.261	-0.133
-417.457	-98.005	0.204	-0.052
-416.442	102.701	0.172	0.200
-415.428	800.000	-0.044	0.192
-414.413	-200.000	0.002	0.092
-413.398	511.068	-0.103	0.238
-412.384	-200.000	0.009	-0.067
-411.369	155.282	-0.141	-0.192
-410.355	56.595	-0.244	0.236
-409.340	-21.657	0.348	0.210
-408.325	144.367	0.095	-0.126
-407.311	-27.623	0.102	0.059
-406.296	-200.000	-0.053	0.237
-405.282	208.687	-0.137	0.214
-404.267	-200.000	0.009	-0.135
-403.252	501.001	0.054	-0.123
-402.238	89.102	-0.155	-0.171
-401.223	-134.555	0.290	0.035
-400.209	-79.523	-0.235	0.079
-399.194	800.000	0.114	0.425
-398.179	800.000	-0.010	-0.043
-397.165	206.136	0.131	-0.203
-396.150	251.307	-0.077	0.131
-395.136	-19.508	-0.458	0.282
-394.121	-170.708	0.285	-0.010
-393.106	-200.000	-0.025	-0.138
-392.092	-200.000	0.033	0.241
-391.077	800.000	-0.068	-0.245
-390.063	194.843	-0.156	0.236
-389.048	-76.600	-0.097	0.034
-388.033	4.517	0.114	-0.083
-387.019	-158.257	-0.149	0.009
-386.004	358.556	-0.073	-0.144
-384.990	-112.826	0.234	0.046
-383.975	217.011	-0.148	-0.235
-382.960	800.000	-0.071	-0.275
-381.946	-200.000	-0.034	0.203
-380.931	-41.959	0.114	-0.058
-379.917	197.538	-0.251	0.380
-378.902	-200.000	0.009	-0.171
-377.888	800.000	0.055	0.186
-376.873	800.000	-0.054	0.224
-375.858	-91.958	0.371	-0.104
-374.844	-128.520	-0.366	0.051
-373.829	-28.745	0.362	0.206
-372.815	34.936	0.119	0.104
-371.800	-11.556	-0.042	0.027
-370.785	-11.736	0.253	0.164
-369.771	-200.000	0.018	0.291
-368.756	-56.250	-0.138	-0.061
-367.742	-67.886	-0.439	-0.170
-366.727	69.857	0.195	-0.199
-365.712	-82.546	0.194	-0.062
-364.698	-1.997	-0.164	0.114
-363.683	-32.558	-0.118	-0.065
-362.669	-200.000	-0.027	-0.288
-361.654	37.175	-0.091	0.080
-360.639	539.182	0.152	0.358
-359.625	567.905	0.124	-0.298
-358.610	235.536	0.072	-0.118
-357.596	-200.000	0.031	-0.222
-356.581	-116.143	-0.221	-0.041
-355.566	-200.000	-0.021	0.405
-354.552	7.704	0.133	0.099
-353.537	800.000	0.074	-0.282
-352.523	-200.000	0.024	0.105
-351.508	-3.541	-0.209	0.144
-350.493	-121.004	-0.244	-0.041
-349.479	-92.426	0.253	0.071
-348.464	169.911	0.216	0.306
-347.450	107.260	0.103	-0.122
-346.435	32.658	0.165	-0.141
-345.420	119.083	-0.257	-0.314
-344.406	800.000	0.104	-0.369
-343.391	-43.665	-0.202	-0.101
-342.377	140.343	0.215	0.281
-341.362	128.376	0.266	0.335
-340.348	-113.102	0.499	-0.098
-339.333	-200.000	0.003	0.074
-338.318	-77.502	-0.156	0.054
-337.304	149.754	-0.173	0.232
-336.289	87.446	0.302	0.331
-335.275	216.546	0.095	-0.150
-334.260	133.511	0.067	-0.086
-333.245	164.559	0.314	0.439
-332.231	-0.369	0.189	-0.133
-331.216	127.098	0.145	-0.182
-330.202	220.083	-0.225	0.357
-329.187	800.000	0.094	-0.318
-328.172	-22.395	0.031	0.019
-327.158	-86.571	0.303	0.092
-326.143	54.013	-0.193	0.184
-325.129	-155.731	-0.145	-0.009
-324.114	-87.900	-0.141	0.042
-323.099	-41.047	-0.095	-0.048
-322.085	73.445	0.203	-0.211
-321.070	-11.441	-0.072	0.047
-320.056	168.888	0.196	0.276
-319.041	-200.000	-0.023	0.180
-318.026	-200.000	0.035	0.253
-317.012	-114.962	0.081	-0.015
-315.997	-173.349	-0.256	-0.008
-314.983	151.629	0.170	0.229
-313.968	-51.532	0.237	0.109
-312.953	-173.129	0.341	-0.010
-311.939	226.207	-0.029	0.046
-310.924	214.805	-0.089	-0.140
-309.910	-164.013	0.107	0.005
-308.895	-166.143	-0.296	-0.012
-307.880	-200.000	-0.039	0.343
-306.866	163.360	0.190	0.265
-305.851	-64.800	-0.097	0.039
-304.837	-147.498	0.188	0.016
-303.822	-95.239	0.372	0.099
-302.807	103.784	0.196	0.228
-301.793	-94.329	-0.288	-0.078
-300.778	72.437	-0.090	0.092
-299.764	-200.000	0.011	-0.166
-298.749	800.000	-0.040	0.114
-297.735	800.000	-0.052	-0.149
-296.720	-9.912	-0.235	-0.154
-295.705	197.982	0.081	0.123
-294.691	42.586	-0.086	-0.078
-293.676	-114.137	-0.224	0.043
-292.662	581.306	-0.067	0.162
-291.647	-42.965	-0.056	0.028
-290.632	-108.647	-0.323	-0.069
-289.618	331.391	-0.050	0.095
-288.603	-93.112	0.256	-0.070
-287.589	-200.000	-0.007	0.299
-286.574	-27.688	0.286	0.164
-285.559	-61.381	0.202	-0.084
-284.545	-200.000	-0.043	0.227
-283.530	-200.000	-0.035	0.207
-282.516	73.519	0.268	-0.278
-281.501	-38.672	0.334	0.174
-280.486	-68.263	0.215	-0.083
-279.472	68.982	0.084	-0.086
-278.457	351.239	0.072	0.141
-277.443	267.925	-0.035	0.061
-276.428	-200.000	0.030	-0.243
-275.413	-19.233	0.039	0.024
-274.399	-169.283	0.419	-0.015
-273.384	800.000	0.091	0.256
-272.370	-79.905	-0.197	0.065
-271.355	51.077	0.081	-0.075
-270.340	5.665	0.144	0.105
-269.326	617.782	-0.097	-0.240
-268.311	-76.459	0.071	-0.025
-267.297	-200.000	0.002	0.142
-266.282	185.737	-0.197	0.290
-265.267	-49.652	0.543	0.255
-264.253	-200.000	0.016	0.108
-263.238	-174.469	0.167	-0.005
-262.224	-21.452	-0.170	-0.103
-261.209	91.557	0.279	0.310
-260.195	-155.836	-0.188	-0.012
-259.180	800.000	0.088	-0.316
-258.165	44.374	0.160	-0.145
-257.151	42.894	-0.202	-0.181
-256.136	800.000	-0.081	-0.249
-255.122	196.314	-0.056	-0.084
-254.107	199.952	-0.086	-0.130
-253.092	800.000	0.037	-0.109
-252.078	800.000	0.021	-0.076
-251.063	-200.000	0.008	-0.114
-250.049	-16.264	-0.348	-0.218
-249.034	-96.168	0.042	-0.011
-248.019	-1.640	0.167	-0.116
-247.005	800.000	0.086	-0.288
-245.990	524.259	0.106	-0.245
-244.976	-200.000	-0.060	-0.263
-243.961	189.450	0.057	0.085
-242.946	-200.000	-0.039	0.303
-241.932	-200.000	-0.009	0.318
-240.917	-99.283	0.142	-0.035
-239.903	30.728	-0.225	0.190
-238.888	-155.435	-0.286	-0.018
-237.873	-200.000	0.013	-0.198
-236.859	-200.000	0.035	-0.217
-235.844	25.037	0.171	-0.140
-234.830	-21.845	0.238	0.143
-233.815	-200.000	-0.028	0.167
-232.800	-74.630	0.329	0.117
-231.786	-191.896	0.122	-0.001
-230.771	79.065	-0.174	0.184
-229.757	86.992	0.030	0.033
-228.742	800.000	-0.068	-0.195
-227.727	-115.230	0.205	0.038
-226.713	800.000	-0.150	0.414
-225.698	-200.000	0.011	0.177
-224.684	48.309	-0.080	0.074
-223.669	-7.785	-0.100	0.066
-222.655	-156.791	0.281	0.017
-221.640	2.071	0.161	-0.114
-220.625	204.003	-0.308	-0.470
-219.611	90.622	-0.334	0.369
-218.596	-19.292	-0.349	0.213
-217.582	-172.855	-0.276	0.008
-216.567	-200.000	-0.027	0.175
-215.552	14.103	0.112	-0.086
-214.538	269.781	-0.116	0.202
-213.523	62.607	0.088	-0.087
-212.509	44.931	0.153	-0.139
-211.494	-200.000	-0.002	0.124
-210.479	448.355	-0.012	0.025
-209.465	225.795	0.094	0.151
-208.450	-200.000	-0.005	-0.153
-207.436	538.511	-0.103	0.241
-206.421	-105.789	0.240	0.053
-205.406	-38.488	0.268	-0.140
-204.392	-91.311	0.343	-0.097
-203.377	220.436	-0.084	0.132
-202.363	58.454	-0.146	0.141
-201.348	674.012	-0.062	0.160
-200.333	-200.000	0.056	0.255
-199.319	-53.825	0.174	-0.078
-198.304	593.866	0.086	0.210
-197.290	446.104	-0.086	-0.185
-196.275	-58.687	-0.157	0.067
-195.260	-116.005	0.133	-0.024
-194.246	372.541	-0.055	0.109
-193.231	136.165	-0.110	0.141
-192.217	51.451	-0.131	-0.123
-191.202	-114.907	-0.305	0.057
-190.187	-7.280	-0.159	0.106
-189.173	-61.538	-0.257	0.106
-188.158	-46.858	-0.204	-0.098
-187.144	-80.858	-0.151	0.049
-186.129	-38.869	0.326	0.169
-185.114	-83.636	0.363	0.114
-184.100	-200.000	0.022	-0.162
-183.085	-200.000	0.040	-0.360
-182.071	-82.896	-0.219	-0.070
-181.056	179.432	-0.069	-0.100
-180.042	383.265	0.219	-0.443
-179.027	-36.787	0.091	-0.048
-178.012	169.428	-0.105	0.147
-176.998	800.000	-0.108	0.309
-175.983	4.243	-0.387	0.279
-174.969	-116.107	-0.171	0.031
-173.954	142.142	0.130	-0.170
-172.939	800.000	0.024	-0.098
-171.925	-200.000	-0.006	-0.246
-170.910	-52.889	0.071	-0.032
-169.896	3.786	-0.112	-0.080
-168.881	-200.000	-0.002	0.115
-167.866	-51.721	-0.296	0.136
-166.852	64.255	-0.179	-0.177
-165.837	-173.473	-0.180	-0.005
-164.823	-175.562	0.134	0.004
-163.808	800.000	0.060	-0.219
-162.793	-200.000	0.065	-0.333
-161.779	105.397	0.255	-0.296
-160.764	-177.781	0.075	-0.002
-159.750	22.595	-0.104	-0.084
-158.735	441.640	-0.139	-0.300
-157.720	800.000	0.012	-0.050
-156.706	491.663	-0.063	-0.142
-155.691	39.139	0.154	0.136
-154.677	800.000	0.061	0.173
-153.662	-70.000	-0.132	0.050
-152.647	-42.130	0.111	0.056
-151.633	108.915	-0.219	0.257
-150.618	-200.000	0.029	-0.193
-149.604	95.364	-0.112	-0.125
-148.589	-17.448	0.331	-0.204
-147.574	-130.086	0.059	0.008
-146.560	-200.000	0.047	0.324
-145.545	182.204	0.116	0.168
-144.531	-165.718	0.405	0.017
-143.516	-70.476	0.386	0.144
-142.502	32.400	-0.104	0.089
-141.487	-200.000	-0.023	-0.539
-140.472	347.729	0.135	-0.261
-139.458	101.876	-0.178	-0.204
-138.443	-55.853	0.179	0.079
-137.429	-89.257	0.179	0.052
-136.414	422.835	-0.097	0.205
-135.399	-200.000	-0.025	0.171
-134.385	-135.341	0.337	-0.040
-133.370	115.421	0.066	-0.079
-132.356	-200.000	0.032	0.327
-131.341	-51.302	0.026	-0.012
-130.326	-200.000	0.022	0.127
-129.312	800.000	-0.028	-0.115
-128.297	-200.000	-0.013	0.209
-127.283	-108.486	-0.290	-0.061
-126.268	240.876	-0.124	-0.203
-125.253	-69.735	0.192	0.072
-124.239	364.320	0.183	-0.362
-123.224	686.704	0.108	-0.277
-122.210	35.038	-0.182	-0.156
-121.195	90.560	-0.146	0.161
-120.180	45.486	0.162	0.147
-119.166	-142.862	0.120	-0.011
-118.151	141.638	0.079	0.102
-117.137	-93.835	-0.106	0.029
-116.122	-200.000	0.015	0.104
-115.107	-164.514	-0.193	0.009
-114.093	-200.000	0.037	0.410
-113.078	26.488	-0.214	0.176
-112.064	46.701	0.195	-0.178
-111.049	12.729	-0.111	0.085
-110.034	-200.000	0.004	0.072
-109.020	-78.692	0.307	0.103
-108.005	-200.000	-0.000	-0.128
-106.991	-9.806	0.212	-0.139
-105.976	-200.000	0.014	0.161
-104.962	-130.555	0.186	0.025
-103.947	-200.000	0.005	0.297
-102.932	726.370	-0.091	0.238
-101.918	-64.505	0.217	-0.087
-100.903	800.000	-0.046	0.137
-99.889	800.000	-0.088	0.283
-98.874	800.000	-0.059	0.173
-97.859	-200.000	0.017	-0.090
-96.845	17.727	-0.285	-0.222
-95.830	-7.665	-0.077	0.051
-94.816	800.000	-0.055	-0.175
-93.801	-88.361	0.332	-0.097
-92.786	32.564	-0.154	-0.131
-91.772	56.829	0.109	-0.104
-90.757	-200.000	-0.011	0.195
-89.743	-58.393	0.073	-0.031
-88.728	-200.000	0.077	0.351
-87.713	159.413	-0.158	-0.216
-86.699	-56.795	0.253	-0.110
-85.684	-7.434	-0.195	0.129
-84.670	397.878	0.132	0.270
-83.655	341.970	-0.054	-0.103
-82.640	800.000	0.058	0.199
-81.626	-157.317	0.190	-0.011
-80.611	-61.815	-0.211	-0.086
-79.597	-200.000	-0.023	0.143
-78.582	800.000	0.025	-0.074
-77.567	-106.623	0.149	-0.033
-76.553	207.089	-0.105	0.161
-75.538	-200.000	0.004	0.063
-74.524	-56.317	-0.337	0.147
-73.509	301.633	-0.152	0.275
-72.494	800.000	-0.006	-0.024
-71.480	-31.601	0.376	-0.207
-70.465	-91.097	0.260	-0.073
-69.451	-5.476	-0.257	0.173
-68.436	-132.701	-0.265	0.033
-67.422	-136.685	-0.065	-0.007
-66.407	-87.800	0.191	-0.056
-65.392	-200.000	0.011	-0.133
-64.378	800.000	0.051	-0.199
-63.363	561.968	-0.077	-0.184
-62.349	404.060	0.097	-0.200
-61.334	64.611	-1.032	-1.020
-60.319	38.496	0.534	0.466
-59.305	396.778	-0.615	-1.259
-58.290	104.228	1.042	1.201
-57.276	800.000	0.560	1.605
-56.261	-200.000	107.496	626.221
-55.246	524.975	1514.114	3490.186
-54.232	176.000	2703.899	3844.775
-53.217	110.972	2182.744	2574.185
-52.203	39.791	1706.001	1499.636
-51.188	32.316	1519.219	1284.572
-50.173	29.924	1492.400	1245.772
-49.159	50.729	1549.238	1436.584
-48.144	50.880	1565.336	1452.491
-47.130	32.411	1520.771	1286.331
-46.115	29.460	1505.983	1253.760
-45.100	29.271	1502.569	1249.587
-44.086	29.185	1500.635	1247.344
-43.071	29.105	1498.678	1245.129
-42.057	29.029	1496.849	1243.046
-41.042	29.065	1495.411	1242.046
-40.027	29.159	1493.951	1241.419
-39.013	29.175	1492.078	1239.919
-37.998	29.018	1491.219	1238.097
-36.984	29.041	1489.401	1236.697
-35.969	29.058	1488.188	1235.751
-34.954	29.044	1487.295	1234.871
-33.940	29.166	1485.291	1233.974
-32.925	29.143	1484.707	1233.283
-31.911	29.124	1483.042	1231.726
-30.896	29.160	1481.631	1230.745
-29.881	29.210	1480.562	1230.140
-28.867	29.204	1479.429	1229.110
-27.852	29.132	1478.225	1227.587
-26.838	29.155	1476.926	1226.610
-25.823	29.218	1474.909	1225.308
-24.809	29.274	1473.230	1224.232
-23.794	29.124	1472.842	1222.868
-22.779	29.080	1471.454	1221.374
-21.765	29.117	1470.639	1220.895
-20.750	29.251	1468.849	1220.246
-19.736	29.206	1467.688	1218.935
-18.721	29.222	1466.303	1217.847
-17.706	29.147	1465.490	1216.624
-16.692	29.186	1464.226	1215.781
-15.677	29.128	1463.229	1214.527
-14.663	29.117	1462.635	1213.912
-13.648	29.052	1461.432	1212.437
-12.633	29.084	1460.536	1211.855
-11.619	29.144	1459.564	1211.397
-10.604	29.102	1458.886	1210.510
-9.590	29.065	1457.914	1209.411
-8.575	29.091	1457.391	1209.100
-7.560	29.045	1456.242	1207.798
-6.546	29.116	1455.032	1207.209
-5.531	29.094	1454.494	1206.571
-4.517	29.117	1453.338	1205.717
-3.502	29.109	1452.302	1204.755
-2.487	29.034	1451.699	1203.718
-1.473	28.973	1450.991	1202.683
-0.458	28.969	1449.938	1201.735
0.556	26.802	1439.973	1191.046
1.571	23.970	1414.625	1151.675
2.586	20.558	1355.345	1082.114
3.600	19.210	1273.403	1008.716
4.615	18.071	1228.874	966.916
5.629	15.646	1173.577	910.210
6.644	7.616	1090.061	804.819
7.659	0.848	1050.237	742.227
8.673	-0.143	1045.061	733.665
9.688	-0.285	1041.775	730.604
10.702	-0.468	1040.176	728.528
11.717	-0.304	1037.672	727.507
12.731	2.530	1040.763	743.375
13.746	11.267	1053.179	794.941
14.761	18.177	1062.418	835.723
15.775	19.976	1063.977	845.669
16.790	20.338	1063.705	847.146
17.804	19.986	1062.843	844.668
18.819	19.892	1061.793	843.299
19.834	20.100	1061.147	843.724
20.848	20.042	1061.637	843.758
21.863	20.072	1060.955	843.283
22.877	20.158	1060.364	843.158
23.892	20.024	1059.546	841.782
24.907	19.965	1058.530	840.614
25.921	20.021	1058.083	840.456
26.936	20.045	1057.178	839.778
27.950	20.019	1056.428	838.982
28.965	20.104	1054.779	838.012
29.980	19.937	1052.954	835.682
30.994	19.870	1051.629	834.231
32.009	19.992	1051.029	834.269
33.023	20.133	1050.547	834.493
34.038	19.902	1048.848	831.957
35.053	20.059	1047.716	831.744
36.067	20.079	1047.963	831.959
37.082	20.069	1046.757	830.883
38.096	20.189	1046.146	830.895
39.111	20.359	1045.054	830.770
40.126	20.439	1044.620	830.737
41.140	20.472	1042.646	829.250
42.155	20.086	1041.476	826.407
43.169	19.902	1040.051	824.323
44.184	19.785	1039.389	823.169
45.199	19.845	1038.305	822.526
46.213	19.937	1036.684	821.603
47.228	19.720	1036.436	820.304
48.242	19.806	1035.264	819.713
49.257	19.899	1034.391	819.389
50.271	20.115	1032.967	819.212
51.286	20.040	1032.935	818.755
52.301	20.195	1031.891	818.588
53.315	20.158	1030.994	817.628
54.330	20.137	1030.044	816.708
55.344	20.062	1029.130	815.557
56.359	20.090	1028.675	815.253
57.374	20.047	1027.462	814.020
58.388	19.973	1026.360	812.729
59.403	19.817	1025.829	811.503
60.417	20.089	1024.754	811.857
61.432	19.822	1023.769	809.753
62.447	19.758	1023.210	808.941
63.461	19.924	1022.598	809.161
64.476	19.929	1022.240	808.830
65.490	19.996	1021.107	808.171
66.505	20.017	1019.545	806.963
67.520	19.871	1019.187	805.932
68.534	19.922	1018.568	805.605
69.549	19.910	1017.423	804.574
70.563	19.675	1015.687	802.040
71.578	19.478	1015.549	800.943
72.593	19.527	1014.589	800.344
73.607	19.499	1012.718	798.668
74.622	19.469	1012.330	798.153
75.636	19.730	1011.824	798.890
76.651	19.876	1010.912	798.772
77.666	19.714	1010.169	797.368
78.680	19.607	1009.186	796.028
79.695	19.528	1008.827	795.309
80.709	19.691	1008.152	795.456
81.724	19.816	1006.898	794.974
82.739	19.695	1006.617	794.123
83.753	19.705	1005.508	793.222
84.768	20.041	1005.149	794.413
85.782	20.079	1004.887	794.308
86.797	20.372	1003.476	794.465
87.812	20.467	1002.360	793.945
88.826	20.297	1001.348	792.299
89.841	20.237	1000.700	791.439
90.855	20.238	1000.219	790.993
91.870	20.406	998.875	790.625
92.884	20.389	997.927	789.730
93.899	20.271	997.040	788.419
94.914	20.184	995.989	787.126
95.928	20.357	995.458	787.421
96.943	20.336	994.547	786.538
97.957	20.063	993.855	784.681
98.972	19.732	992.759	782.250
99.987	19.667	991.219	780.675
101.001	19.712	990.642	780.352
102.016	20.147	990.180	781.882
103.030	20.016	989.306	780.534
104.045	19.939	987.966	779.060
105.060	19.777	986.709	777.271
106.074	19.569	985.812	775.562
107.089	19.769	984.579	775.421
108.103	20.099	984.392	776.683
109.118	20.177	983.646	776.376
110.133	19.956	982.360	774.307
111.147	20.020	980.981	773.434
112.162	19.938	979.943	772.184
113.176	19.678	978.486	769.809
114.191	19.832	977.766	769.861
115.206	19.870	977.240	769.547
116.220	19.584	975.506	766.841
117.235	19.446	974.909	765.691
118.249	19.549	974.562	765.807
119.264	19.701	973.066	765.241
120.279	19.514	972.850	764.173
121.293	19.554	971.878	763.520
122.308	19.732	971.068	763.600
123.322	19.658	970.843	763.033
124.337	19.666	969.411	761.872
125.352	19.544	967.959	760.127
126.366	19.324	965.994	757.553
127.381	18.872	964.637	754.437
128.395	19.436	964.601	756.816
129.410	19.953	964.367	758.830
130.424	20.173	963.275	758.868
131.439	20.200	961.988	757.903
132.454	19.998	961.253	756.377
133.468	20.054	960.217	755.740
134.483	20.077	959.559	755.257
135.497	20.180	958.614	754.894
136.512	20.227	958.049	754.587
137.527	20.279	957.974	754.684
138.541	20.319	957.076	754.086
139.556	20.276	956.019	752.997
140.570	20.341	954.902	752.336
141.585	20.430	953.966	751.914
142.600	20.359	953.626	751.273
143.614	20.253	952.456	749.827
144.629	20.363	951.482	749.467
145.643	20.649	951.226	750.437
146.658	20.502	949.884	748.675
147.673	20.277	948.424	746.493
148.687	20.224	948.042	745.899
149.702	20.125	946.956	744.553
150.716	20.196	945.561	743.694
151.731	20.144	944.551	742.612
152.746	20.237	944.361	742.795
153.760	20.475	943.327	742.935
154.775	20.356	942.926	742.045
155.789	20.512	942.068	741.969
156.804	20.455	940.857	740.704
157.819	20.460	939.733	739.774
158.833	20.447	939.046	739.113
159.848	20.585	938.213	738.982
160.862	20.594	937.333	738.258
161.877	20.462	935.985	736.573
162.892	20.405	935.547	735.921
163.906	20.420	934.976	735.471
164.921	20.391	934.284	734.739
165.935	20.459	932.985	733.938
166.950	20.539	932.080	733.502
167.964	20.379	931.257	732.115
168.979	20.487	929.599	731.200
169.994	20.329	928.951	729.963
171.008	20.375	927.570	729.003
172.023	20.319	926.972	728.237
173.037	20.301	926.373	727.623
174.052	20.345	924.855	726.553
175.067	20.118	923.884	724.776
176.081	20.264	923.082	724.690
177.096	20.240	922.536	724.100
178.110	20.211	921.960	723.463
179.125	20.134	920.379	721.839
180.140	19.796	919.538	719.708
181.154	19.759	918.589	718.748
182.169	19.959	918.759	719.648
183.183	20.139	918.235	719.920
184.198	20.434	917.572	720.563
185.213	20.447	916.343	719.587
186.227	20.272	915.798	718.372
187.242	20.421	915.498	718.688
188.256	20.517	914.568	718.293
189.271	20.495	913.252	717.103
190.286	20.449	913.125	716.752
191.300	20.316	912.209	715.420
192.315	19.936	910.774	712.667
193.329	19.393	909.309	709.225
194.344	18.918	907.858	706.081
195.359	19.439	908.364	708.552
196.373	20.244	908.523	711.918
197.388	20.521	907.982	712.568
198.402	20.313	907.276	711.100
199.417	20.307	906.860	710.684
200.432	20.262	906.690	710.305
201.446	20.209	905.635	709.197
202.461	19.868	904.848	707.127
203.475	19.868	904.234	706.585
204.490	19.553	903.074	704.329
205.504	18.461	901.185	698.349
206.519	18.891	901.114	699.980
207.534	19.865	901.035	703.820
208.548	19.963	900.683	703.883
209.563	20.391	900.436	705.368
210.577	20.303	899.803	704.450
211.592	20.207	898.492	702.973
212.607	20.480	898.710	704.190
213.621	20.583	898.295	704.217
214.636	20.435	897.329	702.799
215.650	20.416	896.614	702.100
216.665	20.518	895.942	701.926
217.680	20.502	895.708	701.613
218.694	20.611	895.631	701.931
219.709	20.293	894.285	699.532
220.723	19.839	893.353	696.916
221.738	20.124	893.021	697.742
222.753	20.223	892.538	697.701
223.767	20.279	891.998	697.442
224.782	20.401	890.903	697.012
225.796	20.514	890.287	696.921
226.811	20.524	890.052	696.717
227.826	20.326	888.006	694.260
228.840	19.471	886.981	689.981
229.855	19.738	886.058	690.270
230.869	19.805	886.170	690.565
231.884	19.277	885.420	687.812
232.899	19.400	884.653	687.646
233.913	20.157	885.115	690.961
234.928	20.459	883.828	691.095
235.942	20.231	883.548	689.911
236.957	20.301	882.902	689.621
237.972	20.113	881.626	687.820
238.986	19.863	881.413	686.602
240.001	20.181	880.099	686.776
241.015	20.153	879.799	686.369
242.030	20.184	879.045	685.841
243.045	20.322	878.550	685.940
244.059	20.301	878.309	685.609
245.074	20.465	877.581	685.628
246.088	20.502	876.939	685.214
247.103	20.012	875.940	682.440
248.117	20.149	875.216	682.354
249.132	20.607	875.035	683.956
250.147	20.948	874.805	685.056
251.161	20.914	874.407	684.549
252.176	20.975	873.783	684.241
253.190	21.121	873.155	684.261
254.205	21.103	872.571	683.671
255.220	21.407	872.303	684.590
256.234	21.304	871.425	683.438
257.249	21.293	870.905	682.927
258.263	21.106	870.077	681.486
259.278	21.145	869.255	680.934
260.293	21.079	869.001	680.421
261.307	21.300	868.121	680.531
262.322	21.024	867.903	679.224
263.336	21.000	866.704	678.134
264.351	20.620	865.099	675.342
265.366	19.547	863.337	669.748
266.380	19.082	862.799	667.467
267.395	19.902	863.420	671.070
268.409	20.661	863.230	673.804
269.424	20.705	862.427	673.286
270.439	20.798	862.126	673.354
271.453	21.097	861.002	673.569
272.468	21.002	860.679	672.889
273.482	21.166	860.433	673.273
274.497	21.294	859.974	673.346
275.512	21.102	858.850	671.669
276.526	20.688	856.947	668.531
277.541	20.646	857.190	668.500
278.555	21.172	856.734	670.103
279.570	20.840	856.193	668.349
280.585	20.669	855.314	666.948
281.599	20.819	854.586	666.895
282.614	20.894	853.982	666.650
283.628	20.643	852.708	664.640
284.643	20.027	852.373	661.966
285.657	20.683	852.349	664.393
286.672	20.445	851.643	662.878
287.687	19.934	850.305	659.828
288.701	20.237	850.661	661.200
289.716	20.713	850.312	662.683
290.730	20.374	849.158	660.438
291.745	20.274	848.456	659.452
292.760	20.011	847.486	657.645
293.774	20.006	846.816	657.044
294.789	20.947	847.026	660.717
295.803	21.545	847.067	662.959
296.818	21.494	846.998	662.652
297.833	21.701	846.128	662.698
298.847	21.434	845.287	660.970
299.862	20.954	844.355	658.371
300.876	21.203	843.654	658.705
301.891	21.454	843.703	659.631
302.906	21.440	842.714	658.750
303.920	21.062	841.548	656.356
304.935	20.927	841.198	655.517
305.949	21.357	840.657	656.656
306.964	21.460	840.473	656.840
307.979	21.253	839.288	655.078
308.993	21.199	839.008	654.598
310.008	21.631	838.769	655.973
311.022	21.704	838.394	655.897
312.037	21.447	837.940	654.521
313.052	21.136	837.247	652.760
314.066	21.434	835.975	652.822
315.081	20.591	834.937	648.810
316.095	19.963	833.602	645.374
317.110	20.383	833.831	647.059
318.125	21.414	834.066	651.024
319.139	20.934	832.722	648.134
320.154	19.751	831.328	642.599
321.168	19.354	830.205	640.200
322.183	19.844	830.659	642.310
323.197	20.827	830.986	646.156
324.212	21.194	830.333	646.951
325.227	21.250	830.084	646.909
326.241	21.380	829.792	647.104
327.256	21.411	828.855	646.430
328.270	21.234	828.556	645.488
329.285	21.212	827.985	644.904
330.300	21.105	826.829	643.553
331.314	20.860	825.890	641.861
332.329	20.910	825.544	641.722
333.343	21.181	825.384	642.536
334.358	21.613	824.683	643.520
335.373	21.404	824.731	642.733
336.387	21.488	823.586	642.092
337.402	21.660	823.655	642.722
338.416	21.751	823.032	642.513
339.431	21.765	822.363	641.986
340.446	21.826	821.529	641.500
341.460	21.985	821.601	642.082
342.475	21.953	820.757	641.247
343.489	21.688	820.120	639.725
344.504	21.696	819.388	639.127
345.519	21.867	819.618	639.875
346.533	22.164	818.941	640.372
347.548	22.162	818.226	639.748
348.562	22.176	818.212	639.732
349.577	22.299	817.685	639.710
350.592	22.132	816.920	638.448
351.606	22.201	816.554	638.356
352.621	22.110	815.985	637.525
353.635	22.024	815.505	636.781
354.650	22.025	814.880	636.240
355.665	21.746	813.730	634.276
356.679	20.686	812.117	629.135
357.694	20.586	811.654	628.358
358.708	21.123	811.365	630.017
359.723	21.062	811.133	629.560
360.738	21.456	810.874	630.727
361.752	21.735	810.993	631.767
362.767	21.900	810.452	631.885
363.781	22.151	810.455	632.736
364.796	22.442	809.874	633.272
365.810	22.524	809.682	633.361
366.825	22.485	809.234	632.814
367.840	22.492	809.136	632.707
368.854	22.420	807.941	631.459
369.869	21.998	806.982	629.140
370.883	21.726	806.751	627.930
371.898	21.935	806.189	628.185
372.913	21.772	805.634	627.115
373.927	21.842	804.801	626.662
374.942	21.934	804.309	626.553
375.956	22.041	803.723	626.419
376.971	22.135	803.086	626.205
377.986	22.495	802.405	626.900
379.000	22.386	802.376	626.432
380.015	22.503	801.637	626.218
381.029	22.446	800.912	625.390
382.044	22.258	800.629	624.450
383.059	22.603	799.991	625.119
384.073	22.450	799.696	624.291
385.088	22.448	799.041	623.719
386.102	22.381	798.949	623.352
387.117	22.308	797.917	622.236
388.132	22.347	796.888	621.514
389.146	22.036	796.849	620.331
390.161	21.567	795.898	617.881
391.175	21.712	795.330	617.897
392.190	22.150	795.643	619.631
393.205	22.058	794.908	618.677
394.219	21.168	793.105	614.091
395.234	19.684	791.286	607.418
396.248	18.918	790.541	604.101
397.263	19.998	791.539	608.605
398.278	21.942	792.381	616.030
399.292	22.278	791.718	616.641
400.307	21.985	791.250	615.194
401.321	21.814	790.900	614.270
402.336	21.854	790.775	614.256
403.350	22.318	790.590	615.683
404.365	22.639	790.374	616.584
405.380	22.909	790.159	617.305
406.394	23.088	789.729	617.540
407.409	23.119	789.889	617.719
408.423	23.128	789.135	617.105
409.438	22.992	788.221	615.861
410.453	23.126	787.929	616.044
411.467	23.100	787.863	615.849
412.482	23.243	786.712	615.392
413.496	23.007	786.731	614.534
414.511	23.068	786.546	614.543
415.526	23.203	785.811	614.383
416.540	23.182	785.525	614.036
417.555	23.095	784.997	613.265
418.569	22.882	784.220	611.865
419.584	22.662	783.642	610.599
420.599	22.970	782.735	610.904
421.613	157.913	1363.702	1798.303
422.628	136.534	1448.335	1798.398
