DTS Sentinel unit serial number:	SN413079Multiplexer serial number:	ORYXHardware model number:	OX4-SRSoftware version number:	ORYX F/W v4.00 Oryx Data Collector v3.7.2.0data status	okinstallation	princeton_trtdifferential loss correction	single-endedforward channel	channel 3reverse channel	N/Adate	2019/09/11time	06:42:11forward acquisition time	60.00reverse acquisition time	0.00gamma	496.2192k internal	0.2329k external	0.2329temperature offset calibration	0.9907default loss term (dB/km)	0.3790temperature slope calibration	1.0000multiplexer offset coefficient	1.0000multiplexer slope coefficient	1.0000fibre end	0.00T internal ref (°C)	29.78T ext. ref 1 (°C)	-0.15T ext. ref 2 (°C)	24.70length (m)	temperature (°C)	Stokes	anti-Stokes-747.200	246.226	-0.061	0.104
-746.185	800.000	-0.101	0.427
-745.171	-101.731	0.258	-0.063
-744.156	-43.285	-0.321	0.164
-743.142	84.640	0.123	0.136
-742.127	-58.034	0.173	-0.076
-741.112	-139.027	-0.245	-0.027
-740.098	145.935	-0.087	0.118
-739.083	330.428	-0.127	0.247
-738.069	-122.948	0.054	-0.009
-737.054	-200.000	0.047	0.375
-736.039	800.000	-0.111	-0.314
-735.025	-200.000	0.021	0.200
-734.010	-88.932	-0.414	0.123
-732.996	93.275	-0.183	-0.208
-731.981	-200.000	0.020	0.148
-730.966	620.478	0.118	-0.298
-729.952	-200.000	-0.047	0.226
-728.937	179.779	-0.183	-0.269
-727.923	224.023	-0.154	0.250
-726.908	-94.811	-0.129	0.035
-725.894	137.972	0.127	-0.168
-724.879	84.626	0.169	-0.187
-723.864	-190.936	-0.385	-0.004
-722.850	-129.104	0.212	0.030
-721.835	-113.198	-0.189	0.037
-720.821	800.000	-0.138	-0.401
-719.806	-200.000	-0.018	-0.113
-718.791	390.234	-0.169	-0.352
-717.777	168.364	0.340	-0.487
-716.762	144.154	-0.096	0.129
-715.748	-93.311	-0.169	-0.047
-714.733	589.071	-0.070	0.174
-713.718	172.038	0.165	-0.238
-712.704	-53.108	0.078	0.036
-711.689	18.549	0.131	-0.105
-710.675	-200.000	-0.015	0.075
-709.660	105.794	-0.232	0.276
-708.645	-124.369	0.304	-0.048
-707.631	-180.494	0.232	0.005
-706.616	-200.000	0.031	0.388
-705.602	800.000	-0.063	-0.272
-704.587	-121.673	0.142	-0.024
-703.572	-58.908	-0.290	-0.126
-702.558	-200.000	0.005	-0.251
-701.543	-160.650	0.259	-0.014
-700.529	-19.328	0.264	0.165
-699.514	-35.895	0.189	-0.103
-698.499	175.992	-0.127	0.185
-697.485	174.113	-0.097	0.140
-696.470	333.899	-0.055	0.106
-695.456	-7.128	-0.330	-0.225
-694.441	195.521	-0.049	-0.075
-693.426	-39.639	-0.342	-0.180
-692.412	800.000	0.068	-0.280
-691.397	-200.000	-0.034	-0.275
-690.383	-19.913	-0.216	-0.134
-689.368	-44.996	0.114	-0.057
-688.354	-82.097	0.144	0.047
-687.339	-153.056	-0.186	0.013
-686.324	-78.201	0.258	-0.089
-685.310	20.605	0.395	-0.321
-684.295	172.788	-0.008	0.011
-683.281	-53.126	0.391	-0.180
-682.266	-200.000	0.041	-0.323
-681.251	289.005	-0.190	-0.346
-680.237	-43.270	-0.203	0.103
-679.222	-127.311	0.138	0.020
-678.208	204.527	0.119	-0.185
-677.193	-200.000	0.047	0.282
-676.178	-117.518	-0.031	-0.006
-675.164	-200.000	0.021	0.213
-674.149	-200.000	-0.019	0.099
-673.135	-136.089	0.104	-0.012
-672.120	763.138	-0.144	0.393
-671.105	-125.471	-0.275	0.042
-670.091	-72.644	0.118	0.044
-669.076	-12.644	0.141	-0.092
-668.062	800.000	-0.025	0.105
-667.047	310.213	0.174	-0.326
-666.032	-128.604	-0.119	-0.017
-665.018	355.975	0.168	0.335
-664.003	148.817	0.063	-0.086
-662.989	-72.996	0.279	0.103
-661.974	-200.000	-0.021	0.267
-660.959	-13.634	-0.224	0.146
-659.945	130.770	-0.139	-0.179
-658.930	-4.989	0.238	0.164
-657.916	800.000	-0.062	-0.185
-656.901	-28.921	-0.233	-0.135
-655.886	-200.000	-0.008	0.100
-654.872	-200.000	0.006	-0.057
-653.857	107.341	-0.096	-0.115
-652.843	17.730	-0.079	0.063
-651.828	-58.086	0.234	-0.102
-650.814	465.332	-0.067	0.151
-649.799	-173.268	-0.373	-0.011
-648.784	-200.000	-0.078	0.353
-647.770	-200.000	-0.004	-0.190
-646.755	-135.276	-0.337	0.041
-645.741	800.000	0.076	-0.230
-644.726	-200.000	0.014	-0.368
-643.711	-117.106	0.397	-0.073
-642.697	-139.599	0.203	0.022
-641.682	-65.236	-0.098	-0.039
-640.668	-104.229	0.351	-0.082
-639.653	1.705	-0.359	-0.260
-638.638	204.588	-0.066	0.102
-637.624	-129.195	0.402	0.056
-636.609	-104.993	0.115	-0.026
-635.595	23.275	-0.252	-0.208
-634.580	73.530	0.164	0.172
-633.565	800.000	0.073	-0.242
-632.551	310.554	0.026	-0.048
-631.536	-63.106	-0.119	-0.049
-630.522	518.869	0.020	0.046
-629.507	99.449	0.135	-0.156
-628.492	5.116	0.177	-0.131
-627.478	-45.664	0.089	-0.044
-626.463	-130.452	-0.549	-0.075
-625.449	108.763	-0.114	0.136
-624.434	329.309	0.031	0.059
-623.419	255.493	-0.013	0.022
-622.405	-122.118	-0.129	0.021
-621.390	800.000	0.090	-0.308
-620.376	-167.402	0.178	-0.007
-619.361	143.841	0.237	0.316
-618.346	-155.441	-0.116	0.008
-617.332	-200.000	0.004	0.049
-616.317	-45.119	-0.173	-0.086
-615.303	-200.000	0.006	0.059
-614.288	-107.207	0.343	-0.076
-613.273	-114.094	0.106	0.020
-612.259	-153.942	0.236	0.016
-611.244	171.101	0.133	-0.191
-610.230	248.458	-0.266	0.451
-609.215	800.000	0.053	0.205
-608.201	-88.402	0.128	-0.038
-607.186	-200.000	-0.041	0.436
-606.171	-200.000	-0.012	-0.061
-605.157	-116.376	0.703	0.130
-604.142	-113.025	0.246	0.049
-603.128	414.002	0.126	-0.270
-602.113	-52.727	0.183	0.085
-601.098	45.125	-0.239	0.221
-600.084	-64.661	-0.124	-0.050
-599.069	221.627	0.051	0.082
-598.055	-143.742	-0.367	-0.035
-597.040	800.000	0.038	-0.126
-596.025	334.453	-0.104	-0.202
-595.011	-200.000	-0.011	0.174
-593.996	-49.641	-0.296	-0.141
-592.982	235.416	0.057	0.094
-591.967	-8.119	0.102	0.069
-590.952	173.803	-0.249	-0.360
-589.938	-160.293	0.287	-0.015
-588.923	-74.028	-0.195	0.071
-587.909	-34.476	-0.207	0.114
-586.894	52.276	-0.190	-0.182
-585.879	800.000	0.141	0.433
-584.865	-115.226	-0.343	-0.065
-583.850	-200.000	0.008	-0.222
-582.836	70.299	0.206	-0.213
-581.821	-75.039	0.182	-0.065
-580.806	43.749	0.175	0.160
-579.792	-14.758	-0.143	0.092
-578.777	-2.284	-0.306	-0.215
-577.763	-25.672	-0.117	0.069
-576.748	-29.002	-0.033	0.019
-575.733	800.000	0.097	-0.365
-574.719	800.000	0.028	0.087
-573.704	-200.000	-0.011	-0.372
-572.690	-200.000	0.022	-0.371
-571.675	273.923	0.184	-0.326
-570.661	-200.000	0.035	-0.595
-569.646	-107.458	-0.160	0.035
-568.631	-84.026	-0.292	-0.093
-567.617	45.503	-0.305	0.281
-566.602	800.000	-0.039	0.127
-565.588	290.301	0.095	0.172
-564.573	-200.000	-0.070	0.382
-563.558	-75.865	0.205	0.072
-562.544	121.511	-0.059	-0.073
-561.529	179.072	0.142	0.207
-560.515	-18.142	0.122	0.076
-559.500	8.526	-0.181	0.136
-558.485	800.000	-0.065	-0.198
-557.471	66.175	-0.007	-0.007
-556.456	-200.000	-0.000	0.277
-555.442	134.640	0.132	0.172
-554.427	-200.000	-0.004	0.334
-553.412	286.791	0.097	-0.175
-552.398	-100.436	0.241	0.060
-551.383	-102.911	0.147	0.035
-550.369	121.875	-0.289	0.360
-549.354	760.324	-0.055	0.150
-548.339	-200.000	0.005	-0.189
-547.325	-53.156	-0.497	-0.228
-546.310	-200.000	-0.078	0.384
-545.296	-200.000	0.018	-0.092
-544.281	800.000	-0.094	0.377
-543.266	-104.816	-0.115	-0.026
-542.252	-95.964	0.189	-0.050
-541.237	271.964	-0.128	-0.225
-540.223	120.458	0.149	-0.185
-539.208	43.803	0.388	-0.355
-538.193	321.831	0.055	0.105
-537.179	556.411	-0.124	0.299
-536.164	300.019	0.126	-0.232
-535.150	36.391	-0.195	-0.172
-534.135	-2.849	0.230	-0.161
-533.121	-53.374	0.317	0.145
-532.106	800.000	-0.052	0.181
-531.091	-200.000	-0.027	0.150
-530.077	-200.000	0.048	0.385
-529.062	-200.000	-0.009	0.238
-528.048	-200.000	-0.036	0.174
-527.033	101.314	0.129	-0.150
-526.018	-200.000	0.007	-0.262
-525.004	175.578	-0.207	-0.300
-523.989	-64.969	-0.212	0.086
-522.975	34.022	-0.156	0.136
-521.960	-85.973	0.356	-0.110
-520.945	-102.075	-0.244	-0.059
-519.931	-92.047	-0.134	-0.038
-518.916	-153.051	-0.204	0.014
-517.902	-200.000	0.019	-0.159
-516.887	-106.521	0.082	0.018
-515.872	70.483	0.084	-0.086
-514.858	-200.000	-0.015	-0.108
-513.843	-5.530	-0.244	-0.167
-512.829	800.000	0.044	0.150
-511.814	23.010	-0.075	0.062
-510.799	-200.000	0.076	-0.370
-509.785	-200.000	0.044	0.260
-508.770	-200.000	0.016	-0.144
-507.756	-58.029	0.290	-0.126
-506.741	-53.382	0.322	0.147
-505.726	176.990	-0.062	0.090
-504.712	3.218	-0.240	0.174
-503.697	-23.979	0.232	-0.138
-502.683	-179.323	-0.137	-0.003
-501.668	-36.042	0.269	-0.145
-500.653	-76.174	0.304	-0.107
-499.639	388.829	-0.024	-0.050
-498.624	-139.440	-0.424	-0.045
-497.610	94.926	0.056	0.064
-496.595	161.520	0.213	-0.297
-495.581	-93.759	-0.283	0.078
-494.566	136.051	0.147	-0.191
-493.551	-60.403	-0.119	-0.050
-492.537	66.379	-0.144	0.146
-491.522	-66.079	0.122	-0.048
-490.508	344.565	-0.041	0.079
-489.493	66.151	-0.143	-0.145
-488.478	41.609	-0.259	0.234
-487.464	516.146	0.202	-0.471
-486.449	800.000	-0.031	0.124
-485.435	-68.398	0.139	0.054
-484.420	-58.339	0.109	-0.047
-483.405	-200.000	-0.005	0.414
-482.391	115.768	-0.231	-0.282
-481.376	-12.261	-0.182	0.119
-480.362	-107.291	0.144	-0.032
-479.347	800.000	-0.062	-0.238
-478.332	-23.710	-0.263	0.157
-477.318	36.441	-0.154	0.135
-476.303	-12.724	0.112	0.073
-475.289	-71.724	0.282	0.105
-474.274	-200.000	0.015	0.211
-473.259	-52.132	-0.166	0.077
-472.245	-31.293	0.142	0.080
-471.230	59.520	-0.221	-0.217
-470.216	-67.647	-0.197	0.077
-469.201	679.958	0.044	-0.114
-468.186	36.157	0.099	-0.087
-467.172	-68.258	-0.223	0.086
-466.157	-200.000	0.019	0.168
-465.143	-200.000	0.021	-0.208
-464.128	619.458	-0.056	0.141
-463.113	-132.386	-0.471	-0.060
-462.099	-104.111	0.150	-0.035
-461.084	778.417	0.016	0.044
-460.070	274.077	-0.082	0.145
-459.055	-94.214	-0.095	-0.026
-458.040	-200.000	-0.022	0.154
-457.026	93.619	0.084	-0.094
-456.011	-108.436	0.201	-0.043
-454.997	-200.000	0.003	0.283
-453.982	-48.671	0.136	-0.065
-452.968	800.000	0.139	-0.425
-451.953	-200.000	-0.015	-0.153
-450.938	-48.263	0.259	-0.124
-449.924	-156.214	-0.242	-0.015
-448.909	-2.555	-0.277	0.193
-447.895	162.335	0.065	-0.091
-446.880	-200.000	0.065	0.327
-445.865	150.117	0.097	0.130
-444.851	800.000	-0.048	-0.191
-443.836	120.072	-0.239	-0.295
-442.822	-200.000	-0.048	-0.375
-441.807	-200.000	0.442	0.000
-440.792	-28.820	-0.043	0.025
-439.778	-200.000	-0.044	0.300
-438.763	158.779	0.072	-0.100
-437.749	-44.914	-0.168	0.083
-436.734	537.049	-0.168	0.397
-435.719	800.000	-0.059	-0.210
-434.705	34.433	0.144	0.125
-433.690	-34.727	0.109	0.060
-432.676	-33.723	0.253	0.139
-431.661	-129.176	0.239	0.033
-430.646	-15.764	0.083	-0.053
-429.632	42.508	0.162	-0.147
-428.617	-4.004	-0.128	0.088
-427.603	254.150	-0.106	0.180
-426.588	-200.000	0.023	0.162
-425.573	405.480	-0.040	0.083
-424.559	-5.901	0.217	0.148
-423.544	-2.416	-0.111	0.078
-422.530	475.492	-0.105	0.237
-421.515	-13.257	0.232	-0.150
-420.500	800.000	0.094	0.282
-419.486	-26.851	-0.268	0.156
-418.471	-83.950	-0.233	0.074
-417.457	-200.000	0.007	-0.129
-416.442	-200.000	0.015	-0.112
-415.428	-99.312	0.049	0.012
-414.413	57.892	0.236	-0.230
-413.398	793.122	-0.135	0.369
-412.384	-200.000	-0.006	-0.076
-411.369	482.850	0.039	-0.088
-410.355	-200.000	0.082	-0.559
-409.340	-99.268	-0.324	0.081
-408.325	-168.380	0.481	0.018
-407.311	-200.000	-0.068	0.391
-406.296	-99.051	-0.238	0.060
-405.282	36.976	-0.045	-0.039
-404.267	-117.167	0.103	0.019
-403.252	169.720	-0.057	0.082
-402.238	-87.260	0.059	0.018
-401.223	-92.829	0.215	-0.060
-400.209	43.761	0.218	0.198
-399.194	-122.624	0.137	0.022
-398.179	800.000	0.037	-0.116
-397.165	69.503	-0.056	-0.057
-396.150	-31.491	-0.292	-0.163
-395.136	309.831	0.043	0.080
-394.121	47.927	0.119	0.111
-393.106	9.330	-0.168	0.126
-392.092	31.615	-0.093	-0.079
-391.077	36.631	0.105	-0.092
-390.063	-200.000	-0.016	0.176
-389.048	-156.887	-0.239	-0.015
-388.033	-83.261	-0.025	-0.008
-387.019	-51.982	0.207	0.095
-386.004	90.403	-0.090	0.100
-384.990	278.361	0.073	-0.129
-383.975	43.089	-0.209	-0.189
-382.960	-147.940	0.306	0.025
-381.946	800.000	0.088	0.280
-380.931	-36.800	-0.231	-0.123
-379.917	-200.000	0.016	0.138
-378.902	-136.522	0.181	-0.021
-377.888	-2.384	0.201	0.140
-376.873	-51.512	0.396	0.183
-375.858	-57.347	-0.236	0.103
-374.844	44.046	-0.146	-0.132
-373.829	126.475	-0.127	0.159
-372.815	-200.000	-0.077	-0.355
-371.800	-200.000	0.002	-0.226
-370.785	-95.185	0.207	0.055
-369.771	-48.588	0.094	0.045
-368.756	89.335	-0.254	0.281
-367.742	501.397	0.103	0.237
-366.727	-39.521	0.209	0.108
-365.712	-200.000	-0.014	0.107
-364.698	726.420	-0.172	0.456
-363.683	-200.000	0.015	-0.075
-362.669	130.839	-0.197	-0.251
-361.654	150.876	-0.156	0.211
-360.639	-114.055	-0.135	0.026
-359.625	-200.000	0.012	-0.076
-358.610	-200.000	0.008	0.163
-357.596	-6.026	0.376	-0.255
-356.581	-146.819	-0.238	-0.020
-355.566	125.378	-0.118	0.148
-354.552	208.732	-0.110	0.170
-353.537	-64.545	-0.124	-0.050
-352.523	292.085	0.099	-0.179
-351.508	-200.000	-0.022	-0.261
-350.493	50.088	0.035	-0.032
-349.479	-163.692	-0.321	0.015
-348.464	-8.798	0.185	-0.123
-347.450	30.381	0.184	-0.156
-346.435	30.800	-0.244	-0.207
-345.420	-51.599	0.129	-0.060
-344.406	-164.447	0.264	0.012
-343.391	67.580	-0.291	-0.295
-342.377	148.188	-0.111	-0.148
-341.362	-133.912	-0.177	-0.022
-340.348	-200.000	0.026	0.159
-339.333	-164.279	0.153	0.007
-338.318	-15.771	-0.244	-0.154
-337.304	-109.929	0.136	0.028
-336.289	-170.566	0.171	0.006
-335.275	-133.510	0.068	0.008
-334.260	800.000	0.032	-0.123
-333.245	144.717	-0.137	-0.182
-332.231	-126.555	0.196	-0.029
-331.216	-101.906	-0.156	-0.037
-330.202	-82.854	0.146	-0.047
-329.187	800.000	0.060	0.248
-328.172	-105.660	0.228	0.051
-327.158	28.260	0.056	0.047
-326.143	393.051	0.140	0.289
-325.129	-23.499	-0.099	0.059
-324.114	465.316	0.099	-0.219
-323.099	-200.000	0.006	-0.213
-322.085	-2.775	-0.088	0.061
-321.070	-140.257	-0.390	0.040
-320.056	-69.805	-0.364	-0.138
-319.041	-126.355	-0.458	0.068
-318.026	-196.217	0.229	0.002
-317.012	468.368	0.051	-0.113
-315.997	-200.000	-0.014	-0.157
-314.983	-45.218	-0.103	0.051
-313.968	32.294	0.233	0.199
-312.953	245.303	-0.085	0.142
-311.939	-43.320	-0.387	0.194
-310.924	-200.000	0.004	0.212
-309.910	-2.164	0.141	0.098
-308.895	-132.757	0.195	0.025
-307.880	-4.326	-0.178	-0.122
-306.866	-200.000	-0.053	-0.264
-305.851	258.107	-0.101	-0.172
-304.837	52.894	-0.104	0.098
-303.822	-200.000	-0.026	-0.161
-302.807	140.910	-0.053	-0.070
-301.793	25.966	-0.235	0.194
-300.778	114.034	-0.164	-0.198
-299.764	-200.000	-0.028	0.355
-298.749	342.583	-0.046	0.088
-297.735	-102.440	-0.080	-0.019
-296.720	-200.000	-0.029	0.382
-295.705	-155.163	-0.191	-0.012
-294.691	-200.000	0.005	-0.292
-293.676	-200.000	-0.022	-0.285
-292.662	-70.646	-0.308	-0.115
-291.647	-171.214	0.216	0.007
-290.632	276.992	-0.073	0.128
-289.618	283.219	0.079	-0.141
-288.603	-114.423	0.149	-0.028
-287.589	-25.988	-0.262	-0.152
-286.574	-114.637	0.571	0.108
-285.559	-20.301	0.158	0.096
-284.545	-143.083	-0.323	0.031
-283.530	11.330	-0.314	-0.238
-282.516	14.554	-0.054	-0.041
-281.501	48.722	-0.134	-0.124
-280.486	240.121	-0.104	-0.171
-279.472	561.799	0.038	-0.091
-278.457	-163.388	-0.230	0.011
-277.443	126.872	0.178	0.223
-276.428	-200.000	-0.000	0.166
-275.413	-200.000	-0.040	-0.245
-274.399	296.665	0.205	-0.372
-273.384	-200.000	0.024	0.372
-272.370	-200.000	0.034	-0.258
-271.355	-70.954	0.108	-0.040
-270.340	33.343	0.027	0.023
-269.326	253.422	-0.100	-0.169
-268.311	-96.487	-0.234	0.061
-267.297	185.298	0.046	-0.067
-266.282	-109.158	0.357	-0.075
-265.267	124.247	-0.040	0.050
-264.253	-200.000	-0.006	0.306
-263.238	-200.000	0.017	-0.104
-262.224	-78.289	-0.237	-0.081
-261.209	-19.370	-0.120	0.073
-260.195	9.214	0.203	-0.151
-259.180	72.579	0.084	0.086
-258.165	569.968	-0.072	-0.172
-257.151	85.747	-0.080	0.087
-256.136	199.027	0.235	-0.356
-255.122	-65.041	-0.257	0.103
-254.107	800.000	-0.008	-0.023
-253.092	-92.423	-0.467	0.130
-252.078	97.335	0.084	0.096
-251.063	-200.000	-0.040	-0.221
-250.049	-1.852	0.253	-0.176
-249.034	344.127	-0.099	-0.193
-248.019	800.000	-0.044	-0.151
-247.005	9.074	0.085	-0.063
-245.990	46.501	0.298	-0.273
-244.976	7.514	0.180	0.133
-243.961	666.845	0.021	0.054
-242.946	98.275	0.118	0.134
-241.932	800.000	0.029	0.110
-240.917	-31.129	0.318	-0.177
-239.903	162.990	-0.102	0.141
-238.888	35.244	-0.149	0.129
-237.873	-62.862	0.126	0.051
-236.859	-30.835	-0.044	0.025
-235.844	720.193	0.126	0.330
-234.830	-37.913	-0.208	0.109
-233.815	-200.000	-0.049	-0.213
-232.800	800.000	-0.030	0.089
-231.786	-94.185	0.038	-0.010
-230.771	492.560	0.060	-0.135
-229.757	800.000	-0.069	0.228
-228.742	-172.818	0.248	-0.008
-227.727	-136.109	-0.334	-0.039
-226.713	-126.064	0.275	0.041
-225.698	157.113	0.107	0.145
-224.684	113.875	0.181	0.217
-223.669	800.000	0.048	0.203
-222.655	234.691	-0.072	0.117
-221.640	357.550	0.211	0.415
-220.625	800.000	0.066	0.256
-219.611	-200.000	-0.017	-0.103
-218.596	301.544	-0.100	0.182
-217.582	800.000	0.070	0.276
-216.567	-41.185	0.259	-0.132
-215.552	752.260	0.075	0.201
-214.538	800.000	0.074	-0.275
-213.523	610.577	0.058	-0.143
-212.509	-200.000	-0.011	0.306
-211.494	-86.493	0.118	-0.036
-210.479	-20.502	-0.174	0.106
-209.465	51.141	0.253	0.237
-208.450	-52.980	0.063	0.028
-207.436	600.794	-0.055	-0.136
-206.421	-14.183	-0.041	0.026
-205.406	-35.243	0.172	-0.092
-204.392	-64.731	-0.349	0.140
-203.377	138.166	0.228	0.295
-202.363	18.602	-0.031	-0.025
-201.348	-200.000	-0.038	0.227
-200.333	120.972	0.050	-0.062
-199.319	-9.405	-0.095	0.063
-198.304	444.400	-0.082	-0.177
-197.290	678.214	0.125	0.320
-196.275	-200.000	-0.020	-0.453
-195.260	-200.000	0.037	-0.216
-194.246	451.857	0.182	-0.396
-193.231	800.000	0.013	-0.048
-192.217	250.670	-0.130	0.218
-191.202	-200.000	0.029	0.173
-190.187	-200.000	-0.012	-0.204
-189.173	-79.247	0.130	-0.043
-188.158	-78.151	0.387	-0.131
-187.144	-200.000	-0.031	0.332
-186.129	-73.607	-0.117	0.042
-185.114	-88.928	-0.102	-0.030
-184.100	-200.000	-0.005	-0.073
-183.085	-4.537	-0.087	-0.059
-182.071	458.256	0.091	-0.199
-181.056	-180.654	-0.221	0.004
-180.042	-200.000	-0.036	0.172
-179.027	-112.637	0.227	0.044
-178.012	-40.078	0.088	0.045
-176.998	142.015	-0.172	0.225
-175.983	571.325	0.025	-0.059
-174.969	366.344	0.051	0.100
-173.954	199.948	0.083	0.126
-172.939	0.617	0.173	-0.122
-171.925	-200.000	-0.009	-0.250
-170.910	-11.290	0.161	0.104
-169.896	-200.000	0.011	-0.205
-168.881	-127.454	-0.182	-0.026
-167.866	36.441	-0.236	-0.205
-166.852	-200.000	-0.053	-0.540
-165.837	-114.222	0.174	-0.033
-164.823	-142.399	-0.032	-0.003
-163.808	308.086	-0.159	-0.292
-162.793	79.674	-0.198	0.209
-161.779	33.968	-0.257	0.220
-160.764	-81.976	-0.253	-0.082
-159.750	-115.442	0.289	-0.054
-158.735	44.695	-0.162	-0.146
-157.720	253.208	0.339	0.570
-156.706	70.684	0.105	-0.107
-155.691	-67.529	0.319	-0.123
-154.677	325.865	-0.098	0.185
-153.662	22.128	0.206	-0.166
-152.647	-200.000	-0.053	-0.288
-151.633	800.000	0.045	0.190
-150.618	30.180	0.347	0.291
-149.604	800.000	0.056	0.213
-148.589	-18.240	0.431	0.265
-147.574	458.471	0.146	-0.319
-146.560	551.690	-0.082	0.194
-145.545	21.639	0.187	0.150
-144.531	180.429	-0.116	-0.168
-143.516	-71.585	-0.195	-0.072
-142.502	95.107	0.296	0.332
-141.487	-174.398	-0.160	0.005
-140.472	-66.545	0.338	0.132
-139.458	26.331	-0.127	-0.104
-138.443	135.591	0.128	-0.164
-137.429	-122.846	-0.090	0.014
-136.414	800.000	0.073	0.303
-135.399	-166.945	-0.234	0.009
-134.385	800.000	-0.055	-0.209
-133.370	-200.000	0.058	-0.357
-132.356	-200.000	-0.010	0.179
-131.341	800.000	0.072	0.249
-130.326	-36.706	-0.207	0.109
-129.312	-9.547	-0.216	0.142
-128.297	42.021	0.044	-0.039
-127.283	18.825	0.178	-0.140
-126.268	-200.000	-0.011	-0.088
-125.253	-110.968	-0.353	-0.071
-124.239	800.000	0.098	0.337
-123.224	-143.228	-0.351	-0.033
-122.210	56.173	0.205	-0.196
-121.195	-156.066	0.123	0.008
-120.180	800.000	-0.038	0.160
-119.166	41.602	0.141	0.126
-118.151	328.133	0.077	-0.145
-117.137	-200.000	0.072	-0.327
-116.122	-200.000	-0.001	-0.092
-115.107	-66.571	-0.155	0.060
-114.093	210.513	-0.092	0.141
-113.078	800.000	-0.186	0.690
-112.064	382.604	0.121	-0.244
-111.049	-200.000	0.023	-0.113
-110.034	-105.757	-0.085	-0.019
-109.020	-108.261	-0.030	0.006
-108.005	800.000	-0.052	-0.158
-106.991	97.213	0.240	-0.271
-105.976	377.074	0.143	0.288
-104.962	34.844	0.169	0.146
-103.947	-68.202	0.104	0.040
-102.932	61.062	0.118	-0.115
-101.918	276.171	0.040	0.070
-100.903	798.160	-0.132	0.357
-99.889	800.000	-0.035	0.110
-98.874	56.858	-0.089	0.085
-97.859	-136.146	0.147	-0.017
-96.845	70.387	0.252	0.256
-95.830	800.000	0.051	-0.204
-94.816	-200.000	0.058	-0.372
-93.801	-22.598	0.163	-0.097
-92.786	-82.527	0.211	-0.067
-91.772	83.523	-0.156	-0.167
-90.757	26.001	-0.188	0.154
-89.743	800.000	-0.133	0.496
-88.728	-200.000	-0.046	0.260
-87.713	-71.693	-0.079	0.029
-86.699	116.993	-0.074	0.089
-85.684	800.000	-0.047	-0.145
-84.670	-200.000	0.007	-0.042
-83.655	-200.000	0.022	0.281
-82.640	66.405	-0.018	-0.018
-81.626	-26.182	0.112	-0.065
-80.611	-200.000	0.008	0.072
-79.597	-83.465	-0.159	-0.050
-78.582	-63.420	0.380	-0.153
-77.567	-147.422	0.238	0.020
-76.553	33.597	-0.100	-0.085
-75.538	-51.373	-0.128	-0.059
-74.524	800.000	-0.070	-0.237
-73.509	603.156	-0.084	-0.205
-72.494	217.271	-0.225	-0.352
-71.480	-38.003	0.347	0.181
-70.465	107.069	0.047	0.055
-69.451	-80.547	0.137	-0.045
-68.436	-164.942	-0.083	0.004
-67.422	70.491	0.127	-0.129
-66.407	-200.000	-0.067	0.323
-65.392	800.000	0.104	0.388
-64.378	800.000	-0.034	-0.125
-63.363	31.584	-0.053	0.045
-62.349	43.347	-0.184	0.165
-61.334	202.913	-0.644	-0.976
-60.319	800.000	0.151	0.604
-59.305	-200.000	-0.129	-1.111
-58.290	148.865	0.804	1.066
-57.276	541.356	0.701	1.639
-56.261	-200.000	104.195	604.517
-55.246	502.980	1492.816	3383.513
-54.232	177.555	2691.329	3844.379
-53.217	111.736	2186.701	2587.401
-52.203	40.575	1703.464	1504.476
-51.188	32.952	1512.043	1283.784
-50.173	30.490	1485.438	1244.679
-49.159	51.041	1540.248	1431.422
-48.144	51.691	1557.458	1451.798
-47.130	33.206	1513.374	1286.442
-46.115	30.107	1498.456	1252.799
-45.100	29.853	1494.963	1248.118
-44.086	29.946	1492.139	1246.333
-43.071	29.804	1490.846	1244.252
-42.057	29.752	1489.371	1242.623
-41.042	29.805	1487.497	1241.361
-40.027	29.808	1486.356	1240.381
-39.013	29.717	1484.751	1238.386
-37.998	29.660	1483.520	1236.922
-36.984	29.759	1482.361	1236.573
-35.969	29.741	1481.156	1235.395
-34.954	29.638	1479.647	1233.399
-33.940	29.731	1477.952	1232.561
-32.925	29.849	1476.409	1232.014
-31.911	29.786	1475.578	1230.850
-30.896	29.820	1474.551	1230.168
-29.881	29.864	1473.036	1229.151
-28.867	29.862	1471.416	1227.734
-27.852	29.873	1470.207	1226.747
-26.838	29.935	1468.291	1225.515
-25.823	29.859	1466.839	1223.753
-24.809	29.901	1465.216	1222.626
-23.794	29.769	1464.427	1221.044
-22.779	29.849	1463.346	1220.626
-21.765	29.845	1462.299	1219.678
-20.750	29.848	1460.889	1218.475
-19.736	29.849	1460.196	1217.852
-18.721	29.704	1459.424	1216.206
-17.706	29.886	1457.330	1215.606
-16.692	29.825	1456.782	1214.700
-15.677	29.755	1455.449	1213.084
-14.663	29.728	1454.436	1212.017
-13.648	29.791	1453.584	1211.670
-12.633	29.746	1452.967	1210.809
-11.619	29.677	1452.405	1209.843
-10.604	29.761	1451.631	1209.700
-9.590	29.731	1450.139	1208.214
-8.575	29.673	1449.528	1207.279
-7.560	29.833	1447.952	1206.962
-6.546	29.854	1447.535	1206.703
-5.531	29.679	1447.217	1205.245
-4.517	29.689	1446.131	1204.362
-3.502	29.661	1444.807	1203.031
-2.487	29.807	1443.487	1202.831
-1.473	29.711	1443.003	1201.758
-0.458	29.690	1441.833	1200.595
0.556	27.376	1432.150	1190.449
1.571	24.658	1408.094	1152.846
2.586	21.772	1349.887	1087.221
3.600	20.253	1269.790	1013.750
4.615	19.026	1225.132	971.085
5.629	16.709	1170.339	915.068
6.644	8.577	1086.612	808.569
7.659	1.160	1046.043	742.112
8.673	0.009	1040.394	732.437
9.688	-0.146	1036.799	729.086
10.702	-0.244	1034.872	727.194
11.717	-0.209	1033.421	726.277
12.731	3.166	1037.145	745.197
13.746	12.004	1050.001	797.545
14.761	18.852	1058.690	837.566
15.775	20.677	1060.296	847.665
16.790	21.031	1059.797	848.913
17.804	20.896	1059.135	847.651
18.819	20.568	1058.733	845.658
19.834	20.680	1057.961	845.512
20.848	20.761	1057.721	845.637
21.863	20.918	1057.179	845.894
22.877	21.007	1056.247	845.506
23.892	20.898	1055.643	844.418
24.907	20.865	1054.769	843.485
25.921	20.865	1054.188	842.943
26.936	20.858	1053.558	842.332
27.950	20.749	1052.577	840.945
28.965	20.759	1051.525	840.079
29.980	20.667	1049.646	838.063
30.994	20.590	1048.199	836.460
32.009	20.976	1047.165	837.419
33.023	20.907	1046.452	836.442
34.038	20.697	1045.263	834.409
35.053	20.715	1044.466	833.784
36.067	20.900	1044.120	834.321
37.082	20.751	1043.599	833.121
38.096	20.994	1042.214	833.102
39.111	21.127	1041.797	833.329
40.126	21.167	1040.873	832.707
41.140	21.091	1039.422	831.112
42.155	20.844	1038.342	829.000
43.169	20.535	1037.102	826.464
44.184	20.575	1035.874	825.602
45.199	20.583	1034.696	824.628
46.213	20.444	1034.307	823.589
47.228	20.593	1032.559	822.830
48.242	20.618	1032.171	822.565
49.257	20.780	1031.208	822.488
50.271	20.751	1030.442	821.668
51.286	20.786	1030.086	821.476
52.301	20.792	1029.194	820.723
53.315	20.983	1027.849	820.474
54.330	20.939	1027.323	819.778
55.344	20.720	1026.729	818.199
56.359	20.752	1026.041	817.733
57.374	20.857	1024.801	817.165
58.388	20.809	1023.507	815.831
59.403	20.656	1023.140	814.750
60.417	20.765	1022.160	814.410
61.432	20.564	1021.161	812.604
62.447	20.551	1020.932	812.289
63.461	20.752	1020.218	812.588
64.476	20.649	1019.772	811.679
65.490	20.743	1018.552	811.072
66.505	20.637	1017.379	809.575
67.520	20.700	1016.920	809.433
68.534	20.794	1015.968	809.038
69.549	20.530	1015.149	807.090
70.563	20.302	1013.578	804.711
71.578	20.226	1012.784	803.656
72.593	20.291	1012.181	803.407
73.607	20.233	1010.658	801.861
74.622	20.009	1010.199	800.391
75.636	20.432	1009.080	801.387
76.651	20.622	1008.210	801.497
77.666	20.395	1008.033	800.242
78.680	20.326	1006.663	798.764
79.695	20.285	1006.510	798.386
80.709	20.387	1006.421	798.713
81.724	20.509	1005.176	798.212
82.739	20.558	1003.857	797.320
83.753	20.553	1003.197	796.702
84.768	20.759	1002.277	796.846
85.782	21.019	1001.923	797.684
86.797	21.156	1001.084	797.572
87.812	21.193	1000.095	796.880
88.826	21.008	999.452	795.455
89.841	21.014	998.746	794.849
90.855	21.102	997.775	794.407
91.870	21.041	997.542	793.872
92.884	21.176	995.898	793.108
93.899	21.014	995.096	791.662
94.914	20.959	994.040	790.502
95.928	21.062	993.438	790.422
96.943	21.008	992.761	789.567
97.957	20.810	991.494	787.595
98.972	20.721	990.251	786.138
99.987	20.435	989.138	783.895
101.001	20.514	988.845	783.947
102.016	20.805	988.344	784.795
103.030	20.885	987.156	784.139
104.045	20.721	986.172	782.553
105.060	20.672	984.732	781.119
106.074	20.369	983.714	778.884
107.089	20.467	983.454	779.049
108.103	20.946	982.842	780.641
109.118	20.938	982.157	779.993
110.133	20.779	980.532	777.921
111.147	20.698	979.971	777.047
112.162	20.584	978.479	775.286
113.176	20.353	977.339	773.286
114.191	20.429	976.761	773.101
115.206	20.421	976.196	772.550
116.220	20.271	974.276	770.296
117.235	20.208	973.303	769.177
118.249	20.308	972.931	769.259
119.264	20.339	972.065	768.642
120.279	20.254	970.975	767.336
121.293	20.216	970.270	766.544
122.308	20.284	969.824	766.423
123.322	20.319	968.806	765.704
124.337	20.346	967.764	764.934
125.352	20.162	966.705	763.218
126.366	19.824	965.133	760.427
127.381	19.533	963.609	757.882
128.395	20.026	963.264	759.706
129.410	20.758	962.827	762.503
130.424	20.820	962.307	762.293
131.439	20.907	960.952	761.530
132.454	20.740	960.255	760.182
133.468	20.771	959.207	759.421
134.483	20.756	957.992	758.325
135.497	20.772	957.519	757.953
136.512	20.937	957.469	758.567
137.527	21.012	956.130	757.763
138.541	21.088	955.355	757.413
139.556	20.968	954.707	756.310
140.570	21.095	954.076	756.295
141.585	20.982	953.554	755.323
142.600	21.102	952.752	755.144
143.614	21.033	951.523	753.803
144.629	21.023	951.196	753.437
145.643	21.315	950.535	754.103
146.658	21.154	949.250	752.323
147.673	21.042	947.891	750.700
148.687	21.045	946.719	749.717
149.702	20.795	945.974	747.986
150.716	20.874	945.168	747.622
151.731	20.939	943.660	746.644
152.746	20.847	943.230	745.844
153.760	21.024	942.640	746.066
154.775	21.232	941.790	746.216
155.789	21.176	941.266	745.498
156.804	21.265	940.050	744.849
157.819	21.178	938.850	743.461
158.833	21.162	938.162	742.783
159.848	21.240	937.447	742.480
160.862	21.233	936.352	741.520
161.877	21.234	935.322	740.643
162.892	21.062	934.807	739.439
163.906	21.195	934.390	739.606
164.921	21.083	933.484	738.349
165.935	21.144	931.928	737.313
166.950	21.185	931.046	736.722
167.964	21.209	930.208	736.094
168.979	21.236	929.005	735.191
169.994	21.269	927.333	733.944
171.008	21.007	926.851	732.396
172.023	21.154	926.332	732.538
173.037	21.283	925.815	732.604
174.052	21.100	924.654	730.854
175.067	20.923	923.746	729.333
176.081	20.848	922.915	728.299
177.096	20.982	922.143	728.184
178.110	21.010	921.069	727.390
179.125	20.791	920.075	725.628
180.140	20.597	918.734	723.696
181.154	20.688	918.276	723.651
182.169	20.732	917.903	723.476
183.183	20.880	917.596	723.784
184.198	21.193	917.167	724.684
185.213	21.158	916.271	723.765
186.227	21.207	915.672	723.429
187.242	21.213	914.801	722.702
188.256	21.201	914.506	722.358
189.271	21.124	913.597	721.258
190.286	21.360	913.046	721.733
191.300	21.295	911.672	720.313
192.315	20.619	910.884	716.841
193.329	19.798	909.555	712.355
194.344	19.590	908.229	710.397
195.359	20.201	908.425	712.999
196.373	20.966	908.741	716.328
197.388	21.226	908.577	717.205
198.402	21.124	907.927	716.208
199.417	20.849	907.547	714.720
200.432	20.906	906.762	714.271
201.446	20.910	905.960	713.591
202.461	20.623	904.802	711.443
203.475	20.689	904.983	711.791
204.490	20.176	902.958	708.042
205.504	19.184	901.086	702.466
206.519	19.662	901.097	704.362
207.534	20.747	900.909	708.574
208.548	20.702	900.987	708.387
209.563	20.956	900.805	709.216
210.577	21.025	899.978	708.783
211.592	20.778	899.184	707.092
212.607	21.101	898.939	708.149
213.621	21.127	898.520	707.860
214.636	21.187	897.549	707.277
215.650	21.319	897.182	707.459
216.665	21.246	896.257	706.373
217.680	21.276	895.712	705.999
218.694	21.246	895.566	705.700
219.709	20.821	894.439	703.036
220.723	20.762	893.249	701.799
221.738	20.818	892.846	701.648
222.753	21.045	892.414	702.160
223.767	21.047	891.354	701.273
224.782	21.017	890.809	700.659
225.796	21.176	890.526	701.013
226.811	21.386	889.742	701.177
227.826	21.022	888.530	698.701
228.840	20.154	887.095	694.039
229.855	20.106	886.713	693.488
230.869	20.342	886.450	694.165
231.884	20.090	885.120	692.053
232.899	19.983	884.807	691.320
233.913	20.850	885.480	695.249
234.928	21.093	884.632	695.488
235.942	20.880	884.183	694.225
236.957	21.121	883.071	694.252
237.972	20.836	882.045	692.250
238.986	20.768	881.244	691.290
240.001	20.747	881.250	691.151
241.015	20.702	880.513	690.332
242.030	20.749	879.770	689.876
243.045	21.039	879.331	690.620
244.059	21.057	878.621	690.070
245.074	21.114	878.217	689.916
246.088	21.072	877.883	689.430
247.103	20.651	876.734	686.804
248.117	20.697	876.344	686.617
249.132	21.277	876.229	688.756
250.147	21.765	875.375	689.944
251.161	21.654	875.324	689.404
252.176	21.993	874.746	690.222
253.190	21.883	873.990	689.132
254.205	21.919	873.639	688.936
255.220	22.177	872.879	689.290
256.234	22.183	872.203	688.715
257.249	22.020	871.756	687.665
258.263	21.741	871.501	686.309
259.278	21.715	870.714	685.528
260.293	21.830	870.261	685.562
261.307	21.950	869.933	685.709
262.322	21.865	868.847	684.461
263.336	21.870	867.758	683.562
264.351	21.206	866.655	680.049
265.366	20.161	864.763	674.440
266.380	19.697	863.906	671.908
267.395	20.594	864.706	675.960
268.409	21.391	864.371	678.735
269.424	21.362	863.693	678.028
270.439	21.608	863.224	678.553
271.453	21.833	862.252	678.601
272.468	21.853	861.378	677.930
273.482	22.007	861.504	678.564
274.497	22.021	860.925	678.103
275.512	21.715	860.153	676.254
276.526	21.348	858.587	673.549
277.541	21.562	857.906	673.780
278.555	21.716	858.117	674.477
279.570	21.530	857.272	673.037
280.585	21.400	856.919	672.203
281.599	21.575	855.959	672.063
282.614	21.643	855.576	671.965
283.628	21.230	854.643	669.588
284.643	20.749	854.077	667.240
285.657	21.258	853.973	669.050
286.672	21.147	853.015	667.815
287.687	20.592	852.174	664.976
288.701	21.033	851.680	666.217
289.716	21.492	851.687	667.919
290.730	21.127	850.587	665.606
291.745	20.880	850.144	664.258
292.760	20.901	848.766	663.201
293.774	20.727	848.426	662.214
294.789	21.706	849.042	666.361
295.803	22.271	849.135	668.526
296.818	22.294	848.646	668.170
297.833	22.391	847.954	667.931
298.847	22.083	846.661	665.687
299.862	21.704	845.959	663.641
300.876	21.935	845.258	663.907
301.891	22.276	845.275	665.150
302.906	22.207	844.683	664.367
303.920	21.714	843.507	661.521
304.935	21.810	842.667	661.165
305.949	22.049	842.401	661.800
306.964	22.295	841.749	662.154
307.979	22.073	840.892	660.586
308.993	21.881	840.745	659.692
310.008	22.386	840.443	661.295
311.022	22.402	840.374	661.243
312.037	22.209	839.675	659.909
313.052	22.110	838.470	658.532
314.066	21.997	838.146	657.796
315.081	21.422	836.498	654.292
316.095	20.682	835.271	650.512
317.110	21.070	835.786	652.306
318.125	21.942	835.725	655.456
319.139	21.610	834.702	653.360
320.154	20.417	833.064	647.575
321.168	19.999	832.091	645.204
322.183	20.784	831.980	647.982
323.197	21.619	832.498	651.437
324.212	21.797	832.152	651.772
325.227	22.029	831.989	652.448
326.241	22.164	831.301	652.350
327.256	21.864	831.396	651.254
328.270	21.792	830.318	650.086
329.285	21.753	829.639	649.350
330.300	21.589	828.999	648.184
331.314	21.580	827.798	647.155
332.329	21.605	827.329	646.824
333.343	21.907	827.247	647.821
334.358	22.189	826.888	648.521
335.373	22.176	826.158	647.841
336.387	22.138	826.104	647.603
337.402	22.553	825.418	648.535
338.416	22.424	825.203	647.836
339.431	22.515	824.132	647.271
340.446	22.713	823.710	647.608
341.460	22.703	823.677	647.488
342.475	22.703	822.923	646.841
343.489	22.417	822.221	645.184
344.504	22.577	821.284	644.975
345.519	22.693	821.281	645.340
346.533	22.956	820.776	645.849
347.548	22.972	820.283	645.461
348.562	22.862	820.153	644.899
349.577	23.024	819.527	644.941
350.592	22.902	818.984	644.014
351.606	22.912	818.399	643.533
352.621	22.805	818.216	642.941
353.635	22.742	817.459	642.061
354.650	22.886	816.444	641.730
355.665	22.353	815.703	639.155
356.679	21.332	814.323	634.313
357.694	21.357	813.416	633.642
358.708	21.882	813.629	635.655
359.723	21.817	813.005	634.877
360.738	22.099	812.672	635.578
361.752	22.539	812.731	637.160
362.767	22.529	812.518	636.902
363.781	22.807	812.232	637.626
364.796	23.224	812.006	638.895
365.810	23.135	811.739	638.310
366.825	23.292	811.315	638.486
367.840	23.245	811.099	638.090
368.854	23.096	810.304	636.871
369.869	22.708	809.247	634.588
370.883	22.668	808.433	633.749
371.898	22.671	808.362	633.650
372.913	22.508	807.558	632.380
373.927	22.617	807.008	632.282
374.942	22.793	806.310	632.309
375.956	22.814	805.994	632.081
376.971	22.934	805.503	632.072
377.986	22.993	805.067	631.883
379.000	23.304	804.445	632.448
380.015	23.210	804.192	631.860
381.029	23.011	803.257	630.359
382.044	22.972	802.585	629.637
383.059	23.155	802.240	629.963
384.073	23.209	802.129	630.010
385.088	23.150	801.527	629.272
386.102	23.157	800.922	628.769
387.117	23.134	800.011	627.915
388.132	22.792	799.971	626.614
389.146	22.702	799.096	625.554
390.161	22.201	797.796	622.705
391.175	22.274	797.952	623.031
392.190	22.805	797.647	624.619
393.205	22.940	797.245	624.726
394.219	21.842	795.814	619.671
395.234	20.279	793.504	612.309
396.248	19.588	792.736	609.225
397.263	20.793	793.419	613.947
398.278	22.408	794.689	620.572
399.292	22.858	794.387	621.869
400.307	22.465	794.019	620.141
401.321	22.489	793.513	619.774
402.336	22.588	793.154	619.789
403.350	22.749	793.067	620.230
404.365	23.291	792.981	622.013
405.380	23.563	792.524	622.555
406.394	23.822	792.547	623.424
407.409	24.003	792.031	623.597
408.423	23.907	791.451	622.750
409.438	23.637	791.097	621.471
410.453	23.787	790.293	621.310
411.467	23.999	789.940	621.718
412.482	23.882	789.133	620.618
413.496	23.823	788.768	620.073
414.511	24.020	788.344	620.371
415.526	23.900	788.056	619.671
416.540	23.776	787.724	618.923
417.555	23.747	787.187	618.345
418.569	23.608	786.311	617.118
419.584	23.572	785.895	616.613
420.599	23.517	785.851	616.334
421.613	156.701	1365.268	1797.739
422.628	135.515	1449.669	1797.832
