DTS Sentinel unit serial number:	SN413079Multiplexer serial number:	ORYXHardware model number:	OX4-SRSoftware version number:	ORYX F/W v4.00 Oryx Data Collector v3.7.2.0data status	okinstallation	princeton_trtdifferential loss correction	single-endedforward channel	channel 3reverse channel	N/Adate	2019/09/10time	21:02:11forward acquisition time	60.00reverse acquisition time	0.00gamma	496.2192k internal	0.2328k external	0.2328temperature offset calibration	0.9919default loss term (dB/km)	0.3790temperature slope calibration	1.0000multiplexer offset coefficient	1.0000multiplexer slope coefficient	1.0000fibre end	0.00T internal ref (°C)	31.58T ext. ref 1 (°C)	-0.32T ext. ref 2 (°C)	24.74length (m)	temperature (°C)	Stokes	anti-Stokes-747.200	-15.321	0.143	-0.092
-746.185	-153.999	-0.408	-0.028
-745.171	782.876	-0.095	-0.261
-744.156	21.471	-0.067	-0.055
-743.142	38.400	-0.249	-0.224
-742.127	-74.655	0.109	-0.039
-741.112	84.934	0.171	0.188
-740.098	-83.469	-0.185	-0.060
-739.083	58.379	0.257	-0.254
-738.069	-200.000	0.037	0.178
-737.054	-15.395	0.180	0.116
-736.039	208.260	-0.113	-0.179
-735.025	-91.525	0.236	0.068
-734.010	130.953	-0.099	0.128
-732.996	-200.000	0.018	0.160
-731.981	355.222	0.059	-0.118
-730.966	294.527	0.127	0.233
-729.952	-21.135	-0.325	-0.200
-728.937	-200.000	0.046	-0.436
-727.923	760.709	-0.150	-0.410
-726.908	-181.903	0.229	0.004
-725.894	800.000	-0.037	-0.123
-724.879	-38.880	0.116	0.061
-723.864	-2.779	-0.301	-0.212
-722.850	511.098	-0.069	0.161
-721.835	-18.237	0.149	0.094
-720.821	-39.178	-0.241	0.127
-719.806	800.000	-0.112	-0.382
-718.791	486.109	0.069	0.159
-717.777	800.000	-0.055	-0.240
-716.762	21.518	0.110	-0.090
-715.748	-200.000	-0.033	-0.204
-714.733	613.087	0.025	-0.064
-713.718	303.352	-0.160	-0.298
-712.704	-83.796	-0.142	0.046
-711.689	-200.000	-0.022	-0.170
-710.675	-25.833	0.214	0.127
-709.660	800.000	0.016	-0.068
-708.645	800.000	-0.002	-0.007
-707.631	608.623	0.171	0.428
-706.616	131.407	-0.120	-0.155
-705.602	-200.000	0.028	-0.143
-704.587	-200.000	-0.040	-0.218
-703.572	-135.109	0.316	0.038
-702.558	-73.988	0.215	0.078
-701.543	800.000	-0.067	0.238
-700.529	289.315	-0.112	-0.204
-699.514	5.851	0.315	-0.234
-698.499	368.531	-0.078	-0.158
-697.485	-163.900	0.140	0.007
-696.470	-4.177	-0.253	-0.176
-695.456	609.167	0.132	0.330
-694.441	-98.726	0.106	-0.027
-693.426	91.372	0.048	-0.054
-692.412	-148.065	-0.168	-0.014
-691.397	-200.000	-0.008	0.162
-690.383	127.338	0.206	0.263
-689.368	0.917	-0.259	-0.187
-688.354	800.000	-0.100	0.369
-687.339	-101.318	0.293	-0.072
-686.324	19.431	0.228	-0.184
-685.310	-92.849	0.246	-0.069
-684.295	50.912	-0.101	0.096
-683.281	113.241	0.130	0.158
-682.266	33.501	-0.291	-0.254
-681.251	-200.000	0.011	0.090
-680.237	-109.763	-0.120	-0.025
-679.222	72.837	0.047	-0.049
-678.208	23.877	-0.108	-0.090
-677.193	487.484	0.076	-0.174
-676.178	-35.976	0.144	0.079
-675.164	-171.424	-0.278	-0.009
-674.149	-200.000	0.026	-0.237
-673.135	320.424	0.032	-0.060
-672.120	11.789	-0.054	0.042
-671.105	72.230	0.156	0.163
-670.091	-200.000	-0.035	0.251
-669.076	-200.000	0.024	0.127
-668.062	111.001	0.049	-0.059
-667.047	-141.458	-0.198	-0.020
-666.032	108.954	-0.091	-0.109
-665.018	11.469	0.361	0.278
-664.003	25.797	-0.152	0.127
-662.989	709.264	-0.048	0.127
-661.974	59.559	-0.095	0.094
-660.959	-200.000	-0.068	-0.362
-659.945	-200.000	0.030	-0.224
-658.930	158.742	-0.195	0.272
-657.916	-137.455	-0.337	-0.038
-656.901	-143.929	0.177	-0.017
-655.886	-35.980	0.093	0.050
-654.872	-95.751	0.381	-0.102
-653.857	108.524	-0.164	-0.197
-652.843	-200.000	-0.040	-0.184
-651.828	-126.578	-0.362	0.054
-650.814	800.000	-0.064	0.227
-649.799	49.283	0.156	0.148
-648.784	-121.026	-0.122	0.021
-647.770	-167.122	-0.304	0.012
-646.755	87.145	0.077	0.086
-645.741	-37.510	-0.143	0.077
-644.726	705.000	-0.120	-0.318
-643.711	-25.507	-0.122	-0.072
-642.697	-88.129	0.308	0.093
-641.682	-178.267	-0.399	-0.009
-640.668	-170.723	-0.157	-0.005
-639.653	99.071	-0.192	-0.223
-638.638	-200.000	-0.014	0.349
-637.624	-200.000	-0.018	0.126
-636.609	-55.243	-0.192	0.086
-635.595	-70.371	-0.327	-0.124
-634.580	-200.000	0.051	-0.380
-633.565	-97.303	-0.076	-0.020
-632.551	-95.905	0.216	-0.058
-631.536	54.314	-0.168	-0.162
-630.522	16.958	0.395	0.314
-629.507	-26.737	-0.214	0.126
-628.492	-148.512	-0.145	0.012
-627.478	527.119	0.222	0.525
-626.463	14.878	-0.086	0.068
-625.449	30.399	-0.099	-0.085
-624.434	800.000	0.117	-0.340
-623.419	55.437	0.212	0.206
-622.405	-14.641	0.103	-0.067
-621.390	800.000	-0.087	0.242
-620.376	-200.000	-0.057	0.331
-619.361	116.470	0.204	0.251
-618.346	-126.799	0.152	-0.023
-617.332	383.311	-0.055	0.113
-616.317	106.339	-0.247	0.294
-615.303	7.719	-0.149	0.112
-614.288	800.000	-0.017	0.058
-613.273	-181.880	-0.181	-0.003
-612.259	88.751	-0.020	0.022
-611.244	-67.554	0.171	-0.067
-610.230	360.152	-0.074	0.148
-609.215	-200.000	0.016	0.133
-608.201	800.000	0.046	0.171
-607.186	-75.900	-0.204	0.072
-606.171	432.087	0.136	0.296
-605.157	-35.797	-0.153	0.083
-604.142	456.388	-0.034	-0.076
-603.128	800.000	0.100	0.315
-602.113	-90.221	0.097	-0.028
-601.098	135.142	-0.107	-0.140
-600.084	800.000	0.118	-0.386
-599.069	555.520	-0.151	-0.365
-598.055	160.667	-0.081	-0.113
-597.040	-131.703	0.091	0.012
-596.025	627.582	-0.055	0.138
-595.011	-124.228	0.014	-0.002
-593.996	174.881	0.139	0.202
-592.982	174.057	0.142	-0.205
-591.967	800.000	-0.067	0.248
-590.952	74.728	0.144	-0.152
-589.938	800.000	0.016	0.063
-588.923	29.366	-0.099	-0.084
-587.909	35.521	-0.268	0.236
-586.894	82.848	-0.248	0.270
-585.879	-176.190	-0.269	-0.007
-584.865	800.000	-0.031	0.119
-583.850	36.468	-0.167	0.147
-582.836	-44.726	0.573	-0.286
-581.821	-94.148	0.220	0.060
-580.806	16.676	0.286	0.227
-579.792	-184.239	0.226	0.004
-578.777	438.623	-0.160	0.349
-577.763	-200.000	-0.036	-0.266
-576.748	-200.000	-0.002	-0.156
-575.733	98.423	-0.157	-0.181
-574.719	-200.000	-0.032	0.167
-573.704	19.829	-0.265	-0.213
-572.690	132.945	-0.183	0.236
-571.675	115.077	0.204	0.249
-570.661	110.002	-0.164	0.197
-569.646	-46.106	0.038	-0.019
-568.631	-120.999	-0.139	-0.023
-567.617	-114.979	0.149	-0.028
-566.602	-109.190	-0.197	-0.042
-565.588	70.007	0.256	-0.264
-564.573	-166.349	0.679	0.029
-563.558	800.000	-0.057	0.196
-562.544	-137.194	-0.117	0.013
-561.529	262.683	-0.081	0.141
-560.515	-103.673	0.205	-0.048
-559.500	36.168	0.084	-0.074
-558.485	446.713	-0.246	0.541
-557.471	244.840	0.083	-0.139
-556.456	57.329	-0.064	0.062
-555.442	368.546	0.151	-0.306
-554.427	54.034	-0.126	-0.121
-553.412	246.020	-0.088	-0.149
-552.398	-47.312	-0.091	-0.045
-551.383	164.191	0.059	0.083
-550.369	266.879	-0.138	0.241
-549.354	50.972	0.071	0.067
-548.339	110.762	0.187	-0.225
-547.325	-200.000	0.032	-0.303
-546.310	800.000	-0.058	0.215
-545.296	-0.963	-0.235	-0.166
-544.281	309.060	-0.125	-0.234
-543.266	-200.000	-0.043	-0.293
-542.252	-57.635	0.157	0.069
-541.237	98.772	-0.220	0.254
-540.223	-200.000	-0.003	-0.034
-539.208	-200.000	0.025	-0.177
-538.193	86.553	-0.161	-0.178
-537.179	80.586	-0.063	-0.068
-536.164	-200.000	-0.050	-0.260
-535.150	-98.444	-0.507	0.130
-534.135	71.842	-0.284	-0.295
-533.121	585.757	-0.002	-0.005
-532.106	-78.047	-0.273	-0.094
-531.091	139.291	0.227	-0.299
-530.077	534.675	0.130	-0.309
-529.062	800.000	0.119	0.416
-528.048	-200.000	-0.065	-0.330
-527.033	382.498	0.075	-0.154
-526.018	-133.939	0.338	-0.042
-525.004	-107.778	-0.173	0.038
-523.989	77.185	0.211	0.224
-522.975	-54.647	-0.280	0.126
-521.960	4.467	0.197	-0.144
-520.945	-200.000	-0.003	-0.239
-519.931	68.335	0.162	-0.166
-518.916	534.045	0.149	-0.353
-517.902	-200.000	-0.079	0.446
-516.887	0.619	-0.137	-0.098
-515.872	-17.263	-0.132	0.083
-514.858	-154.452	0.131	0.009
-513.843	-138.914	0.275	0.030
-512.829	34.023	-0.097	0.084
-511.814	-5.876	-0.040	-0.027
-510.799	-200.000	0.030	-0.238
-509.785	800.000	0.042	-0.143
-508.770	-200.000	0.029	0.229
-507.756	-168.325	-0.325	-0.013
-506.741	165.769	-0.101	-0.143
-505.726	689.485	-0.180	-0.470
-504.712	318.946	-0.037	-0.071
-503.697	352.490	-0.026	0.051
-502.683	381.061	-0.098	0.201
-501.668	-46.848	-0.354	-0.173
-500.653	800.000	0.061	-0.215
-499.639	39.037	0.059	-0.053
-498.624	-39.578	-0.218	-0.114
-497.610	-200.000	-0.005	-0.071
-496.595	-46.133	0.313	0.154
-495.581	-40.380	-0.290	0.151
-494.566	-28.730	-0.392	0.225
-493.551	260.699	-0.160	0.276
-492.537	117.927	-0.313	0.385
-491.522	-62.615	0.276	0.114
-490.508	-164.054	-0.252	-0.012
-489.493	-40.647	-0.262	0.136
-488.478	188.832	-0.155	0.232
-487.464	12.061	0.225	0.173
-486.449	800.000	-0.050	-0.186
-485.435	-2.536	-0.144	-0.101
-484.420	29.961	-0.052	-0.044
-483.405	-190.257	0.185	0.002
-482.391	-101.939	-0.160	0.038
-481.376	-102.816	0.480	0.114
-480.362	6.025	0.112	0.083
-479.347	49.134	-0.178	-0.167
-478.332	-61.724	-0.089	0.037
-477.318	296.570	-0.024	-0.044
-476.303	-130.071	0.368	-0.050
-475.289	14.043	0.044	0.034
-474.274	800.000	0.019	-0.067
-473.259	800.000	-0.092	-0.337
-472.245	-104.761	-0.142	0.033
-471.230	-83.318	-0.118	0.038
-470.216	-88.458	0.176	0.052
-469.201	-200.000	-0.241	0.000
-468.186	-135.421	0.087	-0.010
-467.172	800.000	0.052	-0.220
-466.157	-114.468	0.343	0.066
-465.143	336.330	-0.069	-0.133
-464.128	-29.246	0.204	0.116
-463.113	-94.653	-0.277	0.075
-462.099	-200.000	-0.023	-0.312
-461.084	520.079	0.082	-0.192
-460.070	-20.959	-0.121	-0.074
-459.055	-200.000	-0.038	-0.371
-458.040	206.413	0.026	0.041
-457.026	339.265	0.118	0.230
-456.011	135.265	0.072	0.093
-454.997	8.953	0.278	-0.209
-453.982	-2.990	0.299	-0.208
-452.968	-78.156	0.330	-0.113
-451.953	-200.000	-0.024	-0.207
-450.938	53.322	-0.159	-0.152
-449.924	197.442	-0.207	-0.316
-448.909	67.155	-0.185	-0.188
-447.895	52.111	0.149	0.142
-446.880	207.612	-0.147	0.229
-445.865	-136.710	-0.258	0.030
-444.851	-200.000	-0.017	0.238
-443.836	800.000	0.054	0.223
-442.822	800.000	-0.067	0.229
-441.807	800.000	-0.066	0.194
-440.792	-200.000	-0.018	-0.154
-439.778	-42.138	0.146	-0.074
-438.763	23.244	-0.174	0.142
-437.749	-9.989	-0.126	-0.084
-436.734	-200.000	-0.055	0.445
-435.719	-157.758	0.285	-0.017
-434.705	399.710	-0.140	-0.292
-433.690	158.372	0.070	0.097
-432.676	800.000	-0.010	0.031
-431.661	800.000	0.019	0.084
-430.646	198.112	0.108	0.164
-429.632	-136.299	-0.433	0.050
-428.617	-68.204	0.128	-0.049
-427.603	-110.821	0.285	-0.059
-426.588	-123.153	0.147	0.024
-425.573	-11.950	-0.121	-0.079
-424.559	-66.897	0.130	-0.051
-423.544	-102.254	0.463	0.111
-422.530	41.383	0.221	0.199
-421.515	-200.000	0.033	0.218
-420.500	83.141	0.188	0.203
-419.486	73.409	-0.247	0.257
-418.471	22.057	0.017	0.014
-417.457	236.487	0.158	-0.260
-416.442	-20.019	-0.369	-0.226
-415.428	251.345	-0.155	0.263
-414.413	-28.144	0.236	-0.136
-413.398	-188.767	-0.131	-0.002
-412.384	126.901	-0.312	-0.393
-411.369	-1.941	0.029	-0.020
-410.355	800.000	0.062	-0.217
-409.340	800.000	-0.028	0.097
-408.325	136.444	0.107	-0.138
-407.311	-200.000	-0.033	-0.428
-406.296	12.666	-0.117	-0.089
-405.282	212.256	0.127	-0.199
-404.267	-33.837	0.080	0.044
-403.252	40.809	-0.302	0.271
-402.238	-63.907	-0.286	0.116
-401.223	387.068	0.055	-0.114
-400.209	-43.121	-0.164	0.083
-399.194	-85.937	0.153	0.047
-398.179	105.852	0.200	0.236
-397.165	10.916	-0.274	0.208
-396.150	-41.896	0.187	-0.095
-395.136	-200.000	0.002	-0.078
-394.121	400.215	0.109	-0.228
-393.106	-69.646	-0.060	0.023
-392.092	-4.950	0.164	-0.112
-391.077	22.169	0.053	0.043
-390.063	-188.152	0.031	0.000
-389.048	-200.000	-0.009	-0.050
-388.033	-200.000	-0.030	0.579
-387.019	690.412	0.063	-0.164
-386.004	800.000	-0.053	-0.170
-384.990	800.000	0.086	0.270
-383.975	-175.733	-0.379	-0.010
-382.960	-71.006	-0.124	0.046
-381.946	299.839	0.164	0.300
-380.931	-125.679	0.168	0.025
-379.917	-31.681	0.215	-0.120
-378.902	-18.908	0.271	-0.168
-377.888	-12.569	-0.168	-0.109
-376.873	800.000	0.081	0.259
-375.858	-99.681	0.401	-0.100
-374.844	-115.317	-0.269	0.050
-373.829	156.663	-0.194	-0.267
-372.815	32.679	0.080	-0.069
-371.800	52.172	0.083	0.079
-370.785	424.236	-0.108	0.231
-369.771	685.350	-0.107	-0.277
-368.756	-180.131	0.380	-0.008
-367.742	-200.000	0.045	-0.398
-366.727	-85.033	-0.133	-0.041
-365.712	145.132	0.144	0.191
-364.698	231.109	0.100	-0.162
-363.683	179.487	0.039	-0.057
-362.669	96.063	-0.096	0.109
-361.654	368.474	0.031	-0.062
-360.639	40.210	0.285	0.255
-359.625	800.000	0.051	0.214
-358.610	-200.000	-0.029	0.132
-357.596	-200.000	-0.005	0.294
-356.581	94.487	-0.104	0.117
-355.566	-77.850	0.202	-0.069
-354.552	-153.485	0.327	-0.023
-353.537	299.769	0.153	0.280
-352.523	800.000	-0.015	0.058
-351.508	29.622	0.119	-0.101
-350.493	-191.357	0.151	0.002
-349.479	148.046	-0.077	0.103
-348.464	85.030	0.211	-0.230
-347.450	800.000	0.057	-0.199
-346.435	279.206	0.174	0.308
-345.420	-200.000	0.024	0.181
-344.406	763.500	0.036	-0.096
-343.391	-200.000	-0.004	0.038
-342.377	-4.854	0.125	0.085
-341.362	800.000	0.015	-0.045
-340.348	-17.489	-0.251	0.157
-339.333	800.000	0.107	-0.452
-338.318	-200.000	-0.049	-0.419
-337.304	-29.068	0.395	-0.225
-336.289	800.000	0.030	-0.096
-335.275	3.670	0.110	-0.080
-334.260	-109.473	0.033	-0.007
-333.245	-0.838	-0.093	0.065
-332.231	-200.000	0.002	0.042
-331.216	-48.039	-0.256	-0.123
-330.202	-200.000	0.032	-0.261
-329.187	-64.564	0.364	0.146
-328.172	-200.000	0.037	-0.211
-327.158	-83.652	0.362	0.115
-326.143	121.821	-0.025	0.030
-325.129	-71.325	0.317	0.118
-324.114	-92.735	-0.637	-0.177
-323.099	-121.803	0.376	0.061
-322.085	37.221	0.252	0.221
-321.070	800.000	0.060	0.212
-320.056	800.000	0.085	-0.270
-319.041	-200.000	0.006	0.028
-318.026	37.808	-0.213	-0.187
-317.012	69.265	0.017	0.018
-315.997	266.238	-0.102	0.176
-314.983	317.129	-0.126	0.237
-313.968	-11.335	-0.194	0.126
-312.953	-110.754	0.258	-0.053
-311.939	636.114	0.135	-0.339
-310.924	-200.000	-0.025	0.153
-309.910	800.000	0.038	0.114
-308.895	-200.000	-0.011	0.157
-307.880	-110.344	-0.093	-0.019
-306.866	11.272	0.138	0.105
-305.851	-200.000	-0.008	0.396
-304.837	54.152	-0.257	0.244
-303.822	-32.316	0.154	-0.085
-302.807	800.000	-0.041	-0.164
-301.793	800.000	-0.040	0.123
-300.778	66.218	-0.103	0.103
-299.764	-0.582	-0.078	-0.055
-298.749	316.285	-0.140	0.262
-297.735	415.333	-0.126	0.266
-296.720	100.402	-0.144	-0.166
-295.705	421.807	0.176	-0.375
-294.691	-69.779	0.270	0.102
-293.676	-106.426	-0.148	-0.033
-292.662	183.785	0.151	0.221
-291.647	-108.403	-0.430	-0.092
-290.632	-48.423	0.170	0.081
-289.618	-200.000	-0.015	-0.067
-288.603	54.551	-0.069	-0.066
-287.589	-163.237	-0.218	-0.010
-286.574	-131.624	-0.170	0.022
-285.559	-200.000	0.004	0.024
-284.545	9.675	-0.227	-0.170
-283.530	-200.000	0.011	-0.255
-282.516	158.028	-0.076	-0.104
-281.501	-100.606	0.215	-0.052
-280.486	37.840	0.292	0.257
-279.472	-200.000	0.018	0.497
-278.457	-101.182	-0.164	0.040
-277.443	800.000	0.062	0.211
-276.428	293.991	0.032	-0.058
-275.413	83.655	0.127	-0.137
-274.399	-56.059	-0.513	0.226
-273.384	87.380	0.259	-0.284
-272.370	-189.272	-0.385	-0.004
-271.355	263.784	-0.075	-0.129
-270.340	207.731	0.138	-0.214
-269.326	-164.464	-0.173	-0.008
-268.311	-172.202	-0.339	0.011
-267.297	188.820	-0.120	-0.178
-266.282	-38.449	0.380	-0.199
-265.267	208.818	-0.161	-0.250
-264.253	-200.000	-0.019	0.123
-263.238	-200.000	-0.005	0.311
-262.224	-47.721	-0.158	0.076
-261.209	7.117	0.280	0.207
-260.195	-11.644	0.131	-0.085
-259.180	-200.000	-0.008	0.234
-258.165	-54.576	-0.034	0.015
-257.151	610.136	0.070	-0.174
-256.136	-87.259	-0.147	-0.044
-255.122	3.705	-0.370	-0.267
-254.107	74.168	0.136	-0.141
-253.092	127.683	-0.127	-0.159
-252.078	-29.322	0.218	-0.123
-251.063	-200.000	0.021	-0.163
-250.049	-63.566	0.219	0.089
-249.034	-117.258	0.232	0.042
-248.019	142.703	0.140	-0.185
-247.005	-200.000	0.057	-0.441
-245.990	366.075	-0.123	-0.245
-244.976	87.775	-0.083	0.091
-243.961	319.310	0.120	-0.224
-242.946	128.523	0.241	-0.303
-241.932	-119.242	-0.391	-0.067
-240.917	-146.411	-0.410	-0.035
-239.903	-136.126	-0.331	-0.038
-238.888	-45.959	0.269	0.131
-237.873	254.055	0.182	0.307
-236.859	-98.330	0.330	0.084
-235.844	-127.561	0.194	-0.028
-234.830	-81.948	-0.157	-0.051
-233.815	-149.042	-0.135	-0.011
-232.800	-113.305	-0.117	-0.023
-231.786	48.895	-0.244	0.227
-230.771	42.050	-0.228	0.204
-229.757	-57.623	0.253	-0.109
-228.742	-100.398	0.294	0.072
-227.727	-200.000	-0.103	-0.566
-226.713	595.652	0.067	-0.164
-225.698	127.643	0.244	-0.307
-224.684	-43.957	-0.138	-0.068
-223.669	-182.580	-0.153	0.003
-222.655	141.941	0.262	0.343
-221.640	-35.312	-0.197	0.106
-220.625	14.873	0.167	0.129
-219.611	221.888	-0.070	-0.111
-218.596	49.064	0.047	0.043
-217.582	-200.000	-0.013	-0.114
-216.567	270.042	0.150	0.260
-215.552	-110.882	0.146	0.030
-214.538	-137.625	-0.078	0.009
-213.523	-99.326	-0.268	0.067
-212.509	-2.287	-0.293	0.203
-211.494	-22.481	-0.099	0.059
-210.479	174.886	-0.320	-0.458
-209.465	-200.000	-0.053	-0.386
-208.450	800.000	-0.100	0.284
-207.436	-192.761	0.011	0.000
-206.421	-50.893	-0.130	0.060
-205.406	-200.000	-0.012	0.596
-204.392	100.407	0.192	0.220
-203.377	130.258	0.257	-0.325
-202.363	68.213	0.206	-0.209
-201.348	215.291	-0.048	-0.076
-200.333	167.778	0.122	0.171
-199.319	186.746	-0.201	-0.295
-198.304	-1.297	0.168	-0.117
-197.290	-28.697	0.059	-0.034
-196.275	555.480	-0.078	-0.185
-195.260	-200.000	0.002	0.285
-194.246	-200.000	0.028	0.131
-193.231	-29.614	0.202	0.114
-192.217	-53.394	-0.260	0.117
-191.202	665.007	-0.042	0.106
-190.187	94.257	0.261	-0.292
-189.173	-25.153	0.326	-0.191
-188.158	-118.760	-0.065	0.011
-187.144	314.390	0.075	-0.139
-186.129	-137.752	-0.108	-0.012
-185.114	637.754	0.117	0.292
-184.100	-36.193	-0.432	0.230
-183.085	-15.442	0.153	-0.096
-182.071	-200.000	0.006	0.054
-181.056	-72.494	0.119	-0.043
-180.042	-175.596	-0.062	0.002
-179.027	-10.531	-0.127	0.083
-178.012	-141.787	-0.173	0.017
-176.998	329.785	-0.043	0.081
-175.983	31.571	0.151	0.128
-174.969	-154.211	0.211	0.014
-173.954	-48.875	0.202	-0.095
-172.939	-68.686	0.016	-0.006
-171.925	-87.195	-0.264	0.079
-170.910	-111.230	-0.243	0.049
-169.896	89.046	0.208	-0.229
-168.881	26.606	0.212	-0.175
-167.866	800.000	-0.069	-0.296
-166.852	332.543	0.135	-0.257
-165.837	112.084	-0.114	0.135
-164.823	-200.000	-0.043	0.311
-163.808	-34.807	-0.247	0.133
-162.793	100.094	0.116	-0.132
-161.779	83.663	0.268	-0.288
-160.764	-65.634	0.230	0.091
-159.750	-146.046	0.328	-0.029
-158.735	-141.894	-0.250	0.025
-157.720	55.667	0.123	0.117
-156.706	-6.125	0.158	0.106
-155.691	554.771	0.090	0.214
-154.677	675.330	0.106	0.271
-153.662	-124.188	0.177	-0.027
-152.647	-38.680	-0.174	0.091
-151.633	-111.011	0.063	-0.013
-150.618	-66.652	-0.408	0.159
-149.604	83.265	0.161	-0.173
-148.589	-28.101	-0.092	-0.052
-147.574	-75.362	-0.094	0.033
-146.560	510.664	0.092	0.211
-145.545	366.409	-0.080	0.158
-144.531	-11.052	0.101	0.065
-143.516	549.716	0.104	-0.245
-142.502	-58.927	-0.431	0.183
-141.487	389.585	-0.051	-0.105
-140.472	98.548	-0.193	-0.219
-139.458	-200.000	0.114	0.000
-138.443	-52.239	-0.240	0.109
-137.429	-174.853	-0.505	0.014
-136.414	492.399	0.124	0.280
-135.399	-200.000	-0.018	0.185
-134.385	154.859	-0.075	-0.102
-133.370	-71.031	-0.134	-0.050
-132.356	800.000	0.050	-0.181
-131.341	-104.450	0.189	0.043
-130.326	172.838	-0.095	-0.135
-129.312	-62.943	-0.171	0.069
-128.297	-200.000	0.017	-0.078
-127.283	-28.739	-0.134	0.076
-126.268	488.661	-0.087	0.196
-125.253	171.684	0.220	-0.311
-124.239	-12.899	0.143	-0.091
-123.224	98.830	0.204	-0.232
-122.210	-54.743	-0.270	0.120
-121.195	-87.720	-0.399	-0.118
-120.180	-151.427	0.039	-0.003
-119.166	-200.000	-0.012	0.249
-118.151	-200.000	0.046	-0.233
-117.137	286.348	-0.189	-0.336
-116.122	-144.081	0.294	0.027
-115.107	-119.346	-0.115	0.020
-114.093	-115.399	0.324	0.060
-113.078	9.209	0.242	-0.180
-112.064	-200.000	-0.020	0.339
-111.049	79.196	-0.316	0.333
-110.034	-46.525	-0.081	0.039
-109.020	-6.653	-0.083	-0.056
-108.005	-9.124	0.142	-0.093
-106.991	215.230	0.079	-0.123
-105.976	747.048	-0.044	0.115
-104.962	-117.482	-0.151	-0.027
-103.947	-50.773	0.297	0.137
-102.932	441.956	0.081	0.175
-101.918	163.656	-0.121	-0.167
-100.903	800.000	-0.008	-0.027
-99.889	73.127	-0.263	-0.270
-98.874	471.503	-0.131	0.289
-97.859	-77.377	0.169	0.058
-96.845	-84.800	0.087	-0.027
-95.830	-73.102	0.029	-0.010
-94.816	800.000	-0.060	-0.191
-93.801	202.063	-0.219	0.331
-92.786	-24.383	-0.186	0.109
-91.772	-118.541	-0.233	0.040
-90.757	-148.052	-0.496	-0.040
-89.743	708.498	-0.041	-0.107
-88.728	555.840	0.053	-0.125
-87.713	23.667	-0.061	-0.049
-86.699	-45.585	0.225	-0.109
-85.684	-200.000	-0.012	0.066
-84.670	-163.693	0.281	-0.013
-83.655	-200.000	-0.048	-0.355
-82.640	-96.201	0.196	-0.051
-81.626	-200.000	0.025	0.296
-80.611	-55.726	-0.164	0.072
-79.597	-136.016	0.071	-0.008
-78.582	16.043	0.172	-0.133
-77.567	156.741	0.103	0.140
-76.553	-93.627	-0.047	-0.013
-75.538	-8.660	-0.131	0.087
-74.524	175.747	-0.210	-0.299
-73.509	168.579	0.314	-0.440
-72.494	-138.002	0.138	-0.015
-71.480	597.191	0.056	-0.136
-70.465	-200.000	-0.011	-0.084
-69.451	586.752	-0.162	-0.391
-68.436	120.200	-0.021	0.025
-67.422	365.899	0.111	0.220
-66.407	340.395	0.078	-0.149
-65.392	-113.897	0.388	-0.074
-64.378	800.000	0.073	-0.253
-63.363	14.052	0.075	0.057
-62.349	-44.061	0.215	-0.106
-61.334	-3.704	-1.122	-0.765
-60.319	96.663	0.515	0.579
-59.305	-200.000	0.129	-1.093
-58.290	322.788	0.653	1.220
-57.276	476.586	0.650	1.442
-56.261	-200.000	97.518	609.184
-55.246	613.722	1395.770	3429.134
-54.232	194.162	2585.996	3844.292
-53.217	116.450	2163.483	2602.190
-52.203	42.374	1702.163	1518.128
-51.188	34.811	1516.076	1300.874
-50.173	32.339	1489.794	1261.717
-49.159	51.323	1540.289	1434.476
-48.144	53.100	1557.231	1462.333
-47.130	34.973	1515.925	1301.645
-46.115	31.850	1501.839	1268.407
-45.100	31.690	1497.990	1264.025
-44.086	31.686	1495.946	1262.222
-43.071	31.599	1494.067	1260.004
-42.057	31.588	1492.715	1258.739
-41.042	31.595	1491.336	1257.574
-40.027	31.499	1490.181	1255.903
-39.013	31.519	1488.721	1254.762
-37.998	31.493	1487.301	1253.336
-36.984	31.539	1486.068	1252.555
-35.969	31.613	1484.506	1251.685
-34.954	31.626	1482.919	1250.387
-33.940	31.592	1482.036	1249.362
-32.925	31.658	1480.394	1248.373
-31.911	31.627	1479.504	1247.366
-30.896	31.637	1478.209	1246.291
-29.881	31.746	1476.269	1245.331
-28.867	31.685	1475.266	1244.028
-27.852	31.635	1473.768	1242.386
-26.838	31.579	1472.415	1240.820
-25.823	31.574	1470.979	1239.533
-24.809	31.553	1468.887	1237.582
-23.794	31.635	1467.975	1237.305
-22.779	31.612	1466.618	1235.962
-21.765	31.630	1465.277	1234.901
-20.750	31.657	1463.920	1233.882
-19.736	31.578	1463.385	1232.863
-18.721	31.519	1462.489	1231.675
-17.706	31.574	1461.113	1230.825
-16.692	31.610	1459.764	1229.874
-15.677	31.552	1459.064	1228.857
-14.663	31.578	1457.798	1227.912
-13.648	31.478	1457.230	1226.731
-12.633	31.631	1455.537	1226.255
-11.619	31.529	1455.547	1225.547
-10.604	31.573	1454.281	1224.721
-9.590	31.567	1454.072	1224.462
-8.575	31.532	1452.684	1223.015
-7.560	31.457	1452.095	1221.982
-6.546	31.620	1450.953	1222.032
-5.531	31.477	1450.403	1220.587
-4.517	31.550	1449.130	1219.944
-3.502	31.542	1448.269	1219.118
-2.487	31.502	1447.072	1217.800
-1.473	31.521	1446.279	1217.213
-0.458	31.557	1444.657	1216.031
0.556	29.158	1434.922	1203.871
1.571	26.003	1408.477	1161.302
2.586	22.296	1346.664	1087.366
3.600	20.778	1264.423	1012.058
4.615	19.493	1220.078	969.263
5.629	16.679	1165.282	910.537
6.644	8.081	1080.597	801.233
7.659	0.807	1040.139	735.872
8.673	-0.279	1034.140	726.308
9.688	-0.280	1031.314	724.251
10.702	-0.392	1029.528	722.396
11.717	-0.339	1027.513	721.171
12.731	2.480	1030.960	737.111
13.746	11.362	1042.682	788.522
14.761	17.826	1051.942	826.878
15.775	18.974	1051.679	832.160
16.790	19.080	1051.064	832.109
17.804	18.806	1050.626	830.365
18.819	18.489	1049.588	827.938
19.834	18.653	1048.887	828.104
20.848	18.741	1048.583	828.215
21.863	18.659	1048.082	827.354
22.877	18.738	1047.369	827.096
23.892	18.578	1046.953	825.927
24.907	18.608	1045.887	825.157
25.921	18.583	1045.760	824.863
26.936	18.643	1044.702	824.245
27.950	18.693	1043.352	823.343
28.965	18.765	1041.704	822.315
29.980	18.597	1040.492	820.482
30.994	18.494	1039.066	818.793
32.009	18.548	1038.466	818.508
33.023	18.771	1037.697	818.893
34.038	18.568	1035.981	816.501
35.053	18.479	1035.540	815.653
36.067	18.659	1034.979	815.998
37.082	18.724	1034.082	815.525
38.096	18.862	1033.002	815.257
39.111	18.958	1032.157	814.971
40.126	18.952	1031.447	814.312
41.140	18.894	1030.097	812.901
42.155	18.715	1028.863	811.010
43.169	18.418	1027.370	808.358
44.184	18.459	1026.447	807.755
45.199	18.603	1025.074	807.278
46.213	18.493	1024.036	805.877
47.228	18.398	1023.424	804.877
48.242	18.387	1022.660	804.151
49.257	18.575	1021.254	803.857
50.271	18.674	1020.456	803.620
51.286	18.646	1020.135	803.166
52.301	18.783	1018.891	802.756
53.315	18.819	1017.719	801.927
54.330	18.678	1017.437	800.978
55.344	18.614	1016.852	800.150
56.359	18.860	1015.649	800.276
57.374	18.709	1014.942	798.947
58.388	18.464	1013.921	796.934
59.403	18.569	1012.581	796.296
60.417	18.687	1012.171	796.449
61.432	18.478	1011.125	794.591
62.447	18.409	1010.496	793.706
63.461	18.490	1009.716	793.396
64.476	18.580	1009.232	793.361
65.490	18.652	1007.685	792.411
66.505	18.438	1006.806	790.660
67.520	18.533	1005.853	790.281
68.534	18.530	1005.486	789.907
69.549	18.623	1004.097	789.176
70.563	18.319	1002.851	786.729
71.578	18.168	1002.249	785.492
72.593	18.308	1001.497	785.477
73.607	18.147	1000.536	783.914
74.622	18.210	999.571	783.377
75.636	18.299	999.398	783.579
76.651	18.565	998.048	783.671
77.666	18.380	997.582	782.387
78.680	18.263	996.506	780.940
79.695	18.296	996.008	780.633
80.709	18.374	995.231	780.308
81.724	18.397	995.203	780.325
82.739	18.446	993.975	779.514
83.753	18.555	992.806	779.025
84.768	18.570	992.539	778.815
85.782	18.851	991.515	779.217
86.797	19.048	990.371	779.142
87.812	18.967	989.506	778.024
88.826	18.773	988.926	776.624
89.841	18.775	988.104	775.916
90.855	18.854	987.327	775.593
91.870	18.852	986.609	774.952
92.884	18.924	985.529	774.360
93.899	18.734	984.862	772.911
94.914	18.769	983.739	772.119
95.928	18.821	983.008	771.713
96.943	18.834	982.253	771.108
97.957	18.591	981.052	769.011
98.972	18.584	979.741	767.881
99.987	18.135	978.420	764.770
101.001	18.230	978.175	764.936
102.016	18.525	977.937	766.003
103.030	18.734	976.894	766.049
104.045	18.665	975.254	764.389
105.060	18.451	974.002	762.388
106.074	18.455	972.933	761.500
107.089	18.432	971.966	760.576
108.103	18.688	972.036	761.699
109.118	18.897	970.719	761.526
110.133	18.629	969.481	759.300
111.147	18.491	968.853	758.133
112.162	18.442	967.829	757.047
113.176	18.306	966.364	755.232
114.191	18.435	965.358	754.948
115.206	18.501	964.468	754.475
116.220	18.259	963.355	752.474
117.235	18.072	962.286	750.753
118.249	18.287	961.805	751.256
119.264	18.378	960.715	750.735
120.279	18.187	960.031	749.296
121.293	18.333	959.212	749.233
122.308	18.284	958.871	748.684
123.322	18.423	957.276	747.980
124.337	18.410	956.432	747.195
125.352	18.174	955.543	745.407
126.366	18.047	953.184	742.950
127.381	17.661	951.708	740.059
128.395	18.117	951.624	741.904
129.410	18.646	951.467	744.012
130.424	18.790	950.413	743.744
131.439	18.925	949.067	743.212
132.454	18.684	948.374	741.560
133.468	18.659	947.683	740.846
134.483	18.640	946.640	739.883
135.497	18.729	945.817	739.559
136.512	18.899	945.191	739.737
137.527	18.902	944.815	739.388
138.541	18.932	943.907	738.743
139.556	18.993	942.880	738.137
140.570	18.921	942.245	737.262
141.585	19.075	941.170	737.018
142.600	18.979	940.515	736.029
143.614	18.862	939.298	734.511
144.629	19.019	938.730	734.673
145.643	19.189	938.129	734.863
146.658	18.990	937.342	733.331
147.673	18.971	935.643	731.856
148.687	18.909	934.776	730.849
149.702	18.834	934.006	729.865
150.716	18.683	933.027	728.395
151.731	18.738	932.255	727.959
152.746	18.906	930.995	727.625
153.760	19.025	930.633	727.781
154.775	19.176	929.685	727.613
155.789	19.133	928.982	726.816
156.804	19.126	927.933	725.903
157.819	19.032	927.229	724.889
158.833	19.024	926.488	724.212
159.848	19.151	925.522	723.928
160.862	19.246	924.499	723.464
161.877	19.078	923.887	722.216
162.892	18.927	923.024	720.845
163.906	19.196	922.323	721.361
164.921	19.060	921.845	720.352
165.935	19.269	920.371	720.010
166.950	19.224	919.259	718.887
167.964	19.124	918.070	717.479
168.979	18.982	917.749	716.573
169.994	19.099	916.492	716.013
171.008	18.824	915.817	714.279
172.023	19.080	915.114	714.731
173.037	19.161	914.116	714.226
174.052	18.768	912.948	711.621
175.067	18.775	911.755	710.659
176.081	18.943	910.936	710.653
177.096	19.015	910.232	710.337
178.110	19.073	909.646	710.056
179.125	18.848	908.585	708.239
180.140	18.532	907.570	706.084
181.154	18.593	907.037	705.857
182.169	18.684	906.525	705.769
183.183	18.812	906.053	705.867
184.198	19.140	905.059	706.375
185.213	18.957	904.705	705.285
186.227	18.927	904.135	704.655
187.242	19.176	903.356	705.005
188.256	19.093	902.677	704.072
189.271	19.078	902.101	703.502
190.286	19.312	900.950	703.496
191.300	19.165	899.996	702.091
192.315	18.589	898.707	698.676
193.329	18.019	897.402	695.281
194.344	17.663	896.629	693.171
195.359	18.254	896.559	695.461
196.373	18.913	897.158	698.541
197.388	19.212	896.602	699.262
198.402	18.951	896.079	697.734
199.417	18.889	895.117	696.672
200.432	19.012	894.049	696.276
201.446	18.718	893.652	694.714
202.461	18.497	892.994	693.249
203.475	18.604	892.401	693.161
204.490	18.065	890.861	689.728
205.504	17.105	888.996	684.355
206.519	17.610	889.075	686.390
207.534	18.534	889.100	690.071
208.548	18.573	888.929	690.033
209.563	19.066	888.424	691.562
210.577	18.997	887.665	690.633
211.592	18.721	887.027	688.968
212.607	19.048	886.979	690.179
213.621	19.030	886.374	689.576
214.636	19.078	885.792	689.254
215.650	19.161	884.727	688.697
216.665	19.132	883.835	687.828
217.680	19.126	883.909	687.799
218.694	19.128	883.160	687.162
219.709	18.812	882.224	685.114
220.723	18.544	881.221	683.207
221.738	18.788	880.877	683.853
222.753	18.926	880.425	683.989
223.767	19.086	878.976	683.439
224.782	18.977	878.454	682.538
225.796	19.182	877.710	682.715
226.811	19.271	877.195	682.606
227.826	18.965	876.173	680.538
228.840	18.213	874.353	676.096
229.855	18.145	873.818	675.351
230.869	18.456	873.382	676.182
231.884	18.200	872.610	674.514
232.899	18.035	872.486	673.711
233.913	18.926	872.430	677.119
234.928	19.147	871.722	677.379
235.942	18.983	871.585	676.566
236.957	19.081	870.412	675.983
237.972	18.820	869.127	673.902
238.986	18.632	869.054	673.046
240.001	18.920	868.114	673.388
241.015	18.961	867.307	672.863
242.030	18.912	866.635	672.091
243.045	18.989	866.262	672.039
244.059	19.087	865.874	672.065
245.074	19.242	865.271	672.142
246.088	19.212	864.522	671.383
247.103	18.803	863.521	668.955
248.117	18.864	863.195	668.877
249.132	19.342	862.862	670.423
250.147	19.411	862.785	670.569
251.161	19.638	861.675	670.528
252.176	19.845	860.660	670.484
253.190	19.796	860.278	669.938
254.205	19.645	860.149	669.191
255.220	19.955	859.631	669.928
256.234	19.851	859.026	668.996
257.249	19.796	858.276	668.140
258.263	19.661	857.657	667.080
259.278	19.676	857.027	666.586
260.293	19.857	856.422	666.755
261.307	19.913	855.761	666.395
262.322	19.677	855.372	665.125
263.336	19.697	854.469	664.445
264.351	19.290	852.840	661.557
265.366	18.198	850.851	655.772
266.380	17.741	849.982	653.293
267.395	18.594	850.380	656.806
268.409	19.485	850.535	660.279
269.424	19.323	850.061	659.235
270.439	19.477	849.532	659.355
271.453	19.612	848.658	659.131
272.468	19.721	847.702	658.746
273.482	19.752	847.855	658.925
274.497	19.819	847.240	658.644
275.512	19.819	845.866	657.520
276.526	19.239	844.704	654.356
277.541	19.393	843.976	654.317
278.555	19.761	843.852	655.560
279.570	19.482	843.099	653.858
280.585	19.202	842.213	652.056
281.599	19.373	841.910	652.408
282.614	19.671	841.021	652.787
283.628	19.177	840.274	650.287
284.643	18.924	839.274	648.498
285.657	19.212	839.339	649.579
286.672	19.057	838.680	648.428
287.687	18.720	837.333	646.062
288.701	19.008	837.491	647.207
289.716	19.433	836.887	648.284
290.730	19.110	835.946	646.284
291.745	18.984	835.431	645.357
292.760	18.746	834.433	643.636
293.774	18.658	833.893	642.831
294.789	19.470	834.323	646.148
295.803	20.000	834.296	648.055
296.818	20.208	833.751	648.351
297.833	20.245	833.304	648.086
298.847	19.936	831.876	645.764
299.862	19.810	831.026	644.577
300.876	19.887	830.641	644.510
301.891	20.084	830.046	644.723
302.906	20.179	829.246	644.399
303.920	19.707	828.388	641.920
304.935	19.707	827.541	641.207
305.949	19.940	827.158	641.720
306.964	20.088	826.752	641.895
307.979	19.905	826.159	640.701
308.993	19.875	825.711	640.187
310.008	20.254	825.285	641.199
311.022	20.282	824.771	640.848
312.037	20.104	824.620	640.017
313.052	19.985	823.636	638.757
314.066	19.845	823.180	637.832
315.081	19.225	821.777	634.404
316.095	18.767	820.377	631.585
317.110	19.135	820.767	633.180
318.125	19.974	820.858	636.282
319.139	19.603	820.087	634.264
320.154	18.669	818.117	629.259
321.168	18.175	817.640	627.027
322.183	18.766	817.475	629.013
323.197	19.595	817.723	632.183
324.212	19.900	817.558	633.114
325.227	19.952	817.044	632.849
326.241	20.057	816.459	632.723
327.256	19.923	815.905	631.752
328.270	19.861	815.264	630.972
329.285	19.811	814.615	630.232
330.300	19.759	813.668	629.254
331.314	19.554	813.242	628.123
332.329	19.672	812.033	627.564
333.343	19.887	811.956	628.230
334.358	20.029	811.890	628.637
335.373	20.071	811.202	628.201
336.387	20.343	810.245	628.388
337.402	20.342	810.087	628.209
338.416	20.462	809.869	628.418
339.431	20.495	808.833	627.676
340.446	20.403	808.600	627.107
341.460	20.609	808.154	627.449
342.475	20.552	807.418	626.619
343.489	20.332	806.684	625.201
344.504	20.289	806.282	624.680
345.519	20.701	805.702	625.654
346.533	20.801	805.640	625.910
347.548	20.808	805.448	625.733
348.562	20.888	804.648	625.344
349.577	20.916	803.985	624.871
350.592	20.903	803.553	624.434
351.606	20.978	803.081	624.280
352.621	20.827	802.411	623.164
353.635	20.747	802.275	622.717
354.650	20.683	801.633	621.935
355.665	20.530	800.369	620.353
356.679	19.496	799.148	615.667
357.694	19.303	798.765	614.628
358.708	19.782	798.855	616.350
359.723	19.914	797.823	615.969
360.738	20.046	797.397	616.057
361.752	20.449	797.356	617.402
362.767	20.574	797.097	617.590
363.781	20.757	796.887	618.024
364.796	20.980	796.870	618.748
365.810	21.105	796.172	618.595
366.825	21.187	795.788	618.530
367.840	21.085	795.592	617.963
368.854	20.899	794.646	616.516
369.869	20.661	793.632	614.834
370.883	20.582	792.785	613.844
371.898	20.672	792.827	614.140
372.913	20.551	791.907	612.947
373.927	20.383	791.390	611.898
374.942	20.595	791.036	612.319
375.956	20.783	790.478	612.496
376.971	20.903	789.892	612.406
377.986	20.870	789.517	611.945
379.000	21.070	789.200	612.348
380.015	20.972	788.982	611.783
381.029	20.943	787.716	610.645
382.044	20.974	787.026	610.163
383.059	21.057	786.910	610.310
384.073	21.141	786.360	610.124
385.088	21.154	785.869	609.735
386.102	21.188	785.482	609.497
387.117	21.009	785.074	608.504
388.132	20.879	784.684	607.694
389.146	20.765	783.891	606.626
390.161	20.301	782.770	604.092
391.175	20.303	782.280	603.666
392.190	20.752	782.454	605.311
393.205	20.678	781.844	604.526
394.219	19.939	780.517	600.885
395.234	18.596	778.233	594.421
396.248	17.966	777.440	591.582
397.263	18.905	778.338	595.466
398.278	20.451	779.636	601.769
399.292	21.109	779.145	603.610
400.307	20.770	778.435	601.837
401.321	20.658	778.093	601.134
402.336	20.668	777.718	600.822
403.350	20.881	777.818	601.583
404.365	21.333	777.111	602.543
405.380	21.379	777.506	602.955
406.394	21.619	777.040	603.366
407.409	21.822	776.186	603.349
408.423	21.821	775.668	602.888
409.438	21.614	775.285	601.828
410.453	21.612	774.660	601.282
411.467	21.797	774.476	601.719
412.482	21.713	773.739	600.808
413.496	21.721	773.470	600.573
414.511	21.837	773.242	600.739
415.526	21.805	772.882	600.298
416.540	21.750	772.436	599.708
417.555	21.655	771.639	598.712
418.569	21.511	771.197	597.823
419.584	21.427	770.584	597.008
420.599	21.443	770.042	596.593
421.613	158.259	1360.018	1797.491
422.628	136.482	1445.980	1797.584
