DTS Sentinel unit serial number:	SN413079Multiplexer serial number:	ORYXHardware model number:	OX4-SRSoftware version number:	ORYX F/W v4.00 Oryx Data Collector v3.7.2.0data status	okinstallation	princeton_trtdifferential loss correction	single-endedforward channel	channel 3reverse channel	N/Adate	2019/09/11time	00:38:11forward acquisition time	60.00reverse acquisition time	0.00gamma	496.2192k internal	0.2331k external	0.2331temperature offset calibration	0.9918default loss term (dB/km)	0.3790temperature slope calibration	1.0000multiplexer offset coefficient	1.0000multiplexer slope coefficient	1.0000fibre end	0.00T internal ref (°C)	29.19T ext. ref 1 (°C)	-0.29T ext. ref 2 (°C)	22.95length (m)	temperature (°C)	Stokes	anti-Stokes-747.200	-200.000	0.020	-0.244
-746.185	678.504	-0.075	0.195
-745.171	-200.000	0.017	0.386
-744.156	-137.699	-0.110	-0.012
-743.142	-200.000	0.030	0.281
-742.127	-200.000	-0.010	0.368
-741.112	800.000	0.067	0.270
-740.098	-200.000	-0.025	-0.164
-739.083	-101.899	0.291	-0.071
-738.069	-99.246	-0.281	0.072
-737.054	-200.000	-0.024	-0.133
-736.039	-200.000	-0.003	0.058
-735.025	71.937	0.198	0.207
-734.010	91.179	-0.088	-0.099
-732.996	-200.000	-0.045	-0.313
-731.981	22.455	-0.490	-0.403
-730.966	800.000	-0.057	0.182
-729.952	-200.000	-0.021	-0.120
-728.937	10.681	0.128	0.098
-727.923	-56.660	0.133	0.059
-726.908	-200.000	0.036	-0.253
-725.894	-200.000	0.010	-0.258
-724.879	-122.775	-0.334	-0.054
-723.864	-200.000	-0.015	0.369
-722.850	254.763	0.031	0.053
-721.835	-86.961	-0.215	-0.066
-720.821	750.066	-0.039	-0.105
-719.806	-8.577	0.165	0.112
-718.791	503.209	0.063	-0.147
-717.777	-62.112	0.116	-0.049
-716.762	82.278	-0.198	-0.216
-715.748	736.749	0.116	-0.312
-714.733	-200.000	-0.002	-0.121
-713.718	164.971	0.072	0.103
-712.704	-159.914	0.404	0.022
-711.689	-200.000	-0.033	-0.302
-710.675	-128.513	-0.452	0.064
-709.660	-114.469	0.286	-0.055
-708.645	-3.842	-0.060	-0.042
-707.631	-110.773	-0.243	0.050
-706.616	5.599	-0.036	0.027
-705.602	800.000	-0.091	0.360
-704.587	-93.123	0.399	0.112
-703.572	-68.086	-0.248	-0.097
-702.558	-200.000	0.036	-0.214
-701.543	-118.676	-0.352	0.062
-700.529	800.000	0.058	0.241
-699.514	-200.000	-0.007	0.103
-698.499	-200.000	0.080	0.461
-697.485	243.948	0.204	0.345
-696.470	-200.000	-0.031	0.234
-695.456	38.344	-0.037	0.033
-694.441	20.808	0.178	0.145
-693.426	324.290	0.161	0.308
-692.412	404.844	-0.175	-0.371
-691.397	-149.822	-0.221	0.017
-690.383	-120.592	0.086	-0.015
-689.368	650.532	-0.111	-0.285
-688.354	312.567	-0.097	0.183
-687.339	120.513	0.140	-0.174
-686.324	800.000	0.062	0.219
-685.310	321.408	-0.146	0.278
-684.295	-46.629	0.167	0.082
-683.281	800.000	0.058	0.246
-682.266	-114.551	-0.233	0.045
-681.251	-84.089	-0.196	0.062
-680.237	-72.117	0.162	-0.060
-679.222	800.000	0.038	-0.139
-678.208	-42.378	0.235	-0.120
-677.193	-200.000	-0.046	0.258
-676.178	-42.149	0.110	-0.056
-675.164	62.034	-0.261	-0.261
-674.149	-129.977	0.470	-0.065
-673.135	-167.987	0.233	-0.009
-672.120	6.962	-0.129	-0.097
-671.105	-189.331	0.185	-0.002
-670.091	-200.000	-0.027	-0.265
-669.076	800.000	0.043	-0.146
-668.062	297.501	-0.035	0.064
-667.047	-66.504	-0.058	-0.023
-666.032	499.602	-0.025	0.058
-665.018	174.228	-0.172	-0.250
-664.003	315.277	-0.074	0.139
-662.989	501.524	0.134	-0.311
-661.974	-78.133	0.208	-0.072
-660.959	277.804	-0.017	0.031
-659.945	275.261	-0.077	0.137
-658.930	47.439	-0.310	0.290
-657.916	-200.000	0.032	0.165
-656.901	-147.763	-0.139	-0.012
-655.886	309.153	-0.080	-0.150
-654.872	-92.939	-0.087	-0.024
-653.857	-176.863	0.303	-0.008
-652.843	-25.724	-0.282	-0.167
-651.828	-200.000	0.013	-0.077
-650.814	18.750	0.161	-0.129
-649.799	-174.937	-0.360	0.010
-648.784	800.000	-0.021	-0.090
-647.770	-200.000	0.039	-0.347
-646.755	-143.479	0.182	0.017
-645.741	-61.293	-0.293	0.124
-644.726	-94.808	-0.198	0.054
-643.711	-68.509	0.248	0.097
-642.697	69.282	-0.174	0.180
-641.682	7.838	-0.342	0.257
-640.668	-70.586	0.141	-0.053
-639.653	164.280	0.008	0.011
-638.638	-200.000	0.007	-0.200
-637.624	-109.039	-0.216	-0.046
-636.609	-80.749	0.403	-0.134
-635.595	-153.248	-0.245	-0.017
-634.580	197.712	-0.172	-0.263
-633.565	-200.000	-0.003	-0.037
-632.551	71.061	0.108	-0.113
-631.536	-101.940	-0.252	-0.061
-630.522	147.849	0.150	-0.203
-629.507	-200.000	-0.000	-0.055
-628.492	-105.137	-0.242	0.056
-627.478	-200.000	-0.049	0.458
-626.463	-200.000	-0.032	0.199
-625.449	-200.000	0.046	-0.216
-624.434	-200.000	0.033	0.253
-623.419	-200.000	-0.025	-0.144
-622.405	-61.598	-0.048	0.020
-621.390	128.899	-0.139	0.178
-620.376	43.610	-0.084	0.077
-619.361	-200.000	-0.027	-0.236
-618.346	-14.924	-0.020	-0.013
-617.332	-200.000	0.024	-0.322
-616.317	-1.067	0.174	-0.123
-615.303	3.300	0.212	-0.155
-614.288	-114.156	0.277	0.054
-613.273	110.651	-0.259	-0.312
-612.259	-29.228	-0.179	-0.103
-611.244	30.817	-0.040	-0.034
-610.230	180.503	0.237	0.348
-609.215	234.279	-0.107	0.176
-608.201	-14.866	-0.228	0.146
-607.186	-6.778	-0.082	0.056
-606.171	229.209	0.146	-0.239
-605.157	80.762	-0.054	-0.058
-604.142	123.636	0.342	-0.429
-603.128	-84.518	-0.166	0.053
-602.113	-98.349	-0.247	0.063
-601.098	-142.797	0.347	0.034
-600.084	-51.651	0.096	0.045
-599.069	40.289	-0.057	-0.051
-598.055	-135.738	0.059	-0.007
-597.040	800.000	-0.062	0.210
-596.025	800.000	0.025	-0.090
-595.011	-61.892	0.194	0.081
-593.996	311.779	0.033	0.063
-592.982	339.059	-0.201	-0.392
-591.967	-200.000	0.017	-0.414
-590.952	176.158	-0.065	0.095
-589.938	480.207	-0.043	0.098
-588.923	112.669	0.191	0.231
-587.909	82.322	-0.135	0.147
-586.894	-88.262	-0.303	0.091
-585.879	-200.000	-0.011	0.408
-584.865	49.398	0.139	-0.130
-583.850	800.000	-0.028	-0.123
-582.836	-3.486	-0.128	-0.089
-581.821	281.177	0.063	-0.113
-580.806	174.514	0.056	-0.081
-579.792	800.000	0.011	0.036
-578.777	-118.598	-0.162	0.029
-577.763	-112.173	0.427	-0.086
-576.748	-50.609	0.095	0.045
-575.733	212.091	0.110	-0.173
-574.719	800.000	-0.037	-0.134
-573.704	-79.016	-0.154	-0.052
-572.690	-15.428	0.369	0.236
-571.675	116.397	-0.192	0.235
-570.661	-67.459	0.450	-0.176
-569.646	-200.000	-0.071	0.505
-568.631	-7.390	-0.166	0.112
-567.617	-200.000	-0.027	0.424
-566.602	-83.087	0.307	0.099
-565.588	-105.920	-0.310	0.070
-564.573	-119.665	-0.388	0.067
-563.558	-200.000	-0.013	0.151
-562.544	105.023	0.053	0.063
-561.529	-124.475	-0.246	0.038
-560.515	-91.536	-0.391	0.112
-559.500	256.324	0.107	0.183
-558.485	800.000	-0.088	-0.288
-557.471	-14.419	-0.067	-0.043
-556.456	-174.184	0.281	0.008
-555.442	-6.089	-0.174	0.119
-554.427	-200.000	-0.005	-0.112
-553.412	-200.000	0.002	0.204
-552.398	-200.000	0.080	0.407
-551.383	43.085	-0.235	-0.215
-550.369	-4.473	-0.182	-0.125
-549.354	35.499	-0.204	0.179
-548.339	-181.504	-0.045	-0.001
-547.325	282.539	-0.113	-0.203
-546.310	-200.000	0.022	0.188
-545.296	133.334	0.283	-0.365
-544.281	-67.503	0.212	0.083
-543.266	-200.000	0.011	0.202
-542.252	79.190	0.265	-0.283
-541.237	-56.287	0.131	0.058
-540.223	73.150	0.227	0.237
-539.208	-126.587	-0.220	0.033
-538.193	60.510	-0.128	0.127
-537.179	-153.659	-0.011	0.001
-536.164	83.581	-0.307	-0.334
-535.150	10.405	0.200	-0.152
-534.135	57.252	0.217	0.212
-533.121	18.375	0.178	-0.142
-532.106	-14.780	-0.280	-0.179
-531.091	180.515	0.147	-0.216
-530.077	86.494	-0.148	-0.162
-529.062	47.486	-0.196	0.183
-528.048	89.874	0.319	-0.356
-527.033	208.965	0.150	-0.235
-526.018	-119.221	0.290	0.050
-525.004	-29.508	0.336	0.192
-523.989	175.012	-0.075	0.108
-522.975	-15.269	0.161	-0.103
-521.960	-200.000	0.001	0.033
-520.945	-153.940	-0.395	0.027
-519.931	-200.000	-0.033	-0.160
-518.916	170.315	-0.092	-0.132
-517.902	-25.712	0.264	0.155
-516.887	7.598	0.199	0.148
-515.872	-200.000	-0.029	-0.293
-514.858	-0.463	0.141	0.100
-513.843	-149.347	0.159	0.013
-512.829	800.000	-0.071	0.281
-511.814	-98.796	0.445	0.113
-510.799	800.000	-0.064	0.267
-509.785	-113.033	0.044	0.009
-508.770	142.389	-0.032	0.042
-507.756	-45.999	-0.095	0.047
-506.741	-37.615	-0.066	-0.035
-505.726	-118.955	0.155	0.027
-504.712	-113.224	0.422	0.083
-503.697	-113.824	-0.499	0.097
-502.683	151.471	-0.098	-0.133
-501.668	800.000	-0.071	0.208
-500.653	7.683	-0.195	-0.146
-499.639	143.204	-0.074	0.098
-498.624	-85.226	-0.201	0.063
-497.610	-200.000	0.001	0.104
-496.595	90.413	0.065	0.073
-495.581	371.257	0.067	0.136
-494.566	19.985	0.332	-0.267
-493.551	-33.904	0.178	0.098
-492.537	-200.000	0.010	0.208
-491.522	-200.000	-0.036	-0.381
-490.508	800.000	0.074	-0.218
-489.493	-188.997	0.125	0.002
-488.478	-200.000	0.030	0.373
-487.464	-0.423	-0.013	0.009
-486.449	-64.859	-0.275	-0.111
-485.435	98.416	-0.136	-0.156
-484.420	85.530	0.200	-0.219
-483.405	800.000	0.031	0.104
-482.391	-96.850	0.255	0.067
-481.376	-94.469	-0.285	0.077
-480.362	196.374	0.132	0.200
-479.347	-83.749	-0.083	-0.027
-478.332	-40.147	-0.079	0.041
-477.318	54.401	-0.145	0.139
-476.303	-200.000	0.037	-0.300
-475.289	-140.233	-0.044	-0.005
-474.274	-50.324	-0.101	-0.048
-473.259	-146.525	0.101	0.009
-472.245	-25.956	0.232	0.136
-471.230	-3.936	-0.056	0.039
-470.216	-200.000	0.072	0.333
-469.201	-98.421	0.116	0.030
-468.186	171.563	0.208	0.297
-467.172	-8.486	0.192	0.128
-466.157	-200.000	0.072	0.528
-465.143	496.087	0.073	-0.168
-464.128	53.436	-0.055	-0.052
-463.113	800.000	-0.030	0.121
-462.099	-58.152	-0.450	-0.195
-461.084	-144.703	-0.365	0.033
-460.070	668.580	0.025	-0.064
-459.055	-144.819	0.163	0.015
-458.040	685.305	0.037	-0.096
-457.026	-126.346	0.103	-0.015
-456.011	337.001	-0.064	0.124
-454.997	385.350	-0.025	-0.052
-453.982	-97.668	0.082	-0.021
-452.968	-200.000	-0.025	0.241
-451.953	-92.579	-0.245	-0.068
-450.938	-78.605	0.067	0.023
-449.924	-27.100	0.198	0.115
-448.909	83.099	-0.152	-0.165
-447.895	-184.237	0.093	0.002
-446.880	122.892	-0.178	-0.221
-445.865	221.034	0.099	-0.158
-444.851	-200.000	-0.016	-0.110
-443.836	-172.013	-0.238	-0.008
-442.822	-50.464	-0.078	-0.037
-441.807	800.000	-0.056	-0.187
-440.792	-110.591	-0.110	0.023
-439.778	-39.162	-0.314	-0.164
-438.763	8.898	0.272	0.204
-437.749	-51.723	0.186	-0.086
-436.734	-106.799	-0.377	0.083
-435.719	108.291	-0.169	0.200
-434.705	-85.073	0.360	0.112
-433.690	-117.005	0.452	0.082
-432.676	-94.593	-0.254	0.069
-431.661	-26.922	-0.279	0.162
-430.646	77.622	-0.216	0.228
-429.632	194.786	-0.184	0.278
-428.617	-183.995	0.046	0.001
-427.603	-200.000	-0.013	0.266
-426.588	800.000	-0.066	-0.198
-425.573	-123.712	0.215	0.034
-424.559	-55.197	-0.194	-0.087
-423.544	174.364	0.022	0.032
-422.530	-200.000	0.028	-0.224
-421.515	-144.719	-0.345	-0.032
-420.500	542.006	0.064	-0.152
-419.486	173.978	0.218	0.312
-418.471	66.725	0.117	-0.119
-417.457	-125.368	-0.413	-0.063
-416.442	544.437	-0.068	-0.160
-415.428	318.702	0.131	0.246
-414.413	-128.419	0.126	-0.018
-413.398	-86.428	-0.254	-0.078
-412.384	-105.782	0.101	-0.023
-411.369	-45.338	-0.179	-0.088
-410.355	268.965	-0.107	-0.187
-409.340	-26.495	-0.209	0.122
-408.325	23.113	0.101	-0.083
-407.311	-200.000	0.005	0.132
-406.296	-200.000	-0.021	0.248
-405.282	-200.000	0.053	-0.289
-404.267	668.158	-0.037	-0.094
-403.252	73.937	-0.182	-0.190
-402.238	-173.729	0.076	0.002
-401.223	800.000	0.120	-0.336
-400.209	36.669	-0.357	0.313
-399.194	-200.000	-0.066	0.296
-398.179	-102.517	-0.199	0.047
-397.165	-200.000	-0.412	0.002
-396.150	800.000	-0.056	0.159
-395.136	-106.015	-0.373	-0.083
-394.121	-14.508	-0.249	-0.159
-393.106	-118.177	0.250	0.044
-392.092	-114.000	-0.391	0.075
-391.077	180.257	-0.203	0.296
-390.063	-144.111	0.260	-0.024
-389.048	-200.000	-0.023	-0.445
-388.033	-169.551	0.295	-0.011
-387.019	-200.000	0.006	-0.549
-386.004	123.342	-0.118	-0.147
-384.990	-105.004	0.236	0.054
-383.975	-200.000	-0.035	0.161
-382.960	-20.024	-0.398	-0.244
-381.946	-200.000	0.037	0.256
-380.931	-44.772	0.313	-0.155
-379.917	-127.624	0.281	0.040
-378.902	-118.691	-0.380	-0.067
-377.888	-200.000	-0.048	0.297
-376.873	50.076	0.221	-0.207
-375.858	-150.219	0.243	-0.019
-374.844	219.822	-0.154	0.245
-373.829	401.885	-0.122	0.255
-372.815	-98.450	-0.209	0.053
-371.800	247.356	-0.185	-0.310
-370.785	-168.694	0.167	0.006
-369.771	26.987	-0.073	-0.061
-368.756	-104.283	-0.096	-0.022
-367.742	119.711	-0.072	0.089
-366.727	53.581	-0.224	0.213
-365.712	800.000	-0.087	-0.333
-364.698	-7.212	0.166	-0.112
-363.683	-200.000	-0.002	-0.093
-362.669	-200.000	0.010	0.165
-361.654	-200.000	-0.005	-0.350
-360.639	-57.119	-0.255	-0.111
-359.625	-156.091	0.180	0.011
-358.610	-109.490	0.037	0.008
-357.596	-12.864	0.228	0.147
-356.581	51.808	0.311	-0.293
-355.566	-163.033	-0.164	-0.008
-354.552	-200.000	-0.006	0.199
-353.537	-23.341	-0.052	-0.031
-352.523	-54.088	0.194	0.088
-351.508	192.489	0.119	-0.178
-350.493	-200.000	-0.022	-0.106
-349.479	-57.372	-0.362	-0.158
-348.464	-61.464	0.164	-0.068
-347.450	145.410	0.186	-0.247
-346.435	-200.000	0.016	0.115
-345.420	458.771	-0.076	0.167
-344.406	-84.512	0.157	-0.049
-343.391	134.135	0.128	0.164
-342.377	-142.558	-0.244	-0.024
-341.362	45.057	0.228	-0.208
-340.348	-200.000	0.048	-0.215
-339.333	26.670	0.136	0.112
-338.318	-200.000	-0.029	0.241
-337.304	254.248	0.087	0.148
-336.289	774.785	0.142	-0.383
-335.275	-66.986	-0.139	0.054
-334.260	407.215	-0.101	0.212
-333.245	46.377	0.135	-0.124
-332.231	19.709	-0.049	0.039
-331.216	-200.000	0.034	0.156
-330.202	29.507	-0.187	0.158
-329.187	-170.447	0.151	0.005
-328.172	800.000	-0.115	0.393
-327.158	-63.666	0.163	-0.066
-326.143	109.459	0.083	-0.099
-325.129	-32.490	0.331	-0.183
-324.114	800.000	-0.029	-0.081
-323.099	-140.685	-0.195	-0.020
-322.085	2.387	-0.260	0.187
-321.070	586.966	0.151	-0.369
-320.056	-89.142	0.271	-0.079
-319.041	-155.066	-0.112	0.007
-318.026	-73.788	-0.072	-0.026
-317.012	29.297	0.219	-0.184
-315.997	-200.000	0.010	0.072
-314.983	-126.625	-0.373	-0.055
-313.968	-38.601	0.075	-0.039
-312.953	-110.206	-0.369	-0.076
-311.939	-200.000	-0.006	0.159
-310.924	-123.033	-0.102	-0.016
-309.910	32.494	0.179	0.153
-308.895	-200.000	0.029	-0.299
-307.880	32.439	0.096	0.082
-306.866	-95.993	0.284	0.075
-305.851	-200.000	0.024	-0.178
-304.837	-65.983	0.198	-0.078
-303.822	-74.482	-0.299	-0.107
-302.807	-85.901	-0.264	0.081
-301.793	193.381	-0.019	-0.029
-300.778	-71.621	-0.309	-0.114
-299.764	-45.786	0.112	-0.055
-298.749	-71.147	0.334	0.124
-297.735	-94.365	-0.435	-0.118
-296.720	92.947	0.148	-0.165
-295.705	-186.964	0.279	-0.004
-294.691	-80.710	0.215	0.071
-293.676	414.004	-0.109	-0.229
-292.662	5.009	-0.272	-0.198
-291.647	84.640	-0.343	0.371
-290.632	548.752	0.095	0.225
-289.618	-114.000	-0.178	-0.034
-288.603	8.024	-0.087	0.064
-287.589	99.477	0.148	-0.169
-286.574	241.917	0.165	0.273
-285.559	41.994	0.299	-0.268
-284.545	-200.000	0.001	0.086
-283.530	122.725	-0.029	-0.036
-282.516	-200.000	-0.002	0.055
-281.501	-145.736	0.255	-0.023
-280.486	119.782	-0.191	0.234
-279.472	-68.426	-0.157	0.060
-278.457	-26.288	0.325	0.189
-277.443	-200.000	0.014	-0.102
-276.428	-52.187	-0.289	-0.132
-275.413	-200.000	0.010	-0.082
-274.399	-92.472	0.376	-0.104
-273.384	-116.298	0.302	0.055
-272.370	-103.611	0.359	-0.083
-271.355	-66.533	0.370	0.145
-270.340	-83.240	0.358	-0.114
-269.326	171.052	0.045	-0.064
-268.311	-200.000	-0.057	0.536
-267.297	-139.787	0.222	-0.023
-266.282	200.872	-0.227	0.345
-265.267	342.747	-0.054	-0.105
-264.253	800.000	-0.100	-0.278
-263.238	545.383	-0.104	-0.246
-262.224	-39.381	0.262	-0.136
-261.209	-200.000	0.011	-0.225
-260.195	115.504	0.209	0.252
-259.180	-200.000	0.018	-0.128
-258.165	-77.355	0.129	-0.044
-257.151	196.554	0.103	0.155
-256.136	99.127	0.079	-0.090
-255.122	158.012	0.101	-0.138
-254.107	-146.410	0.112	0.010
-253.092	-59.172	-0.137	0.058
-252.078	142.589	-0.129	0.169
-251.063	-72.007	-0.197	0.072
-250.049	-124.768	0.223	-0.034
-249.034	156.192	-0.017	0.023
-248.019	88.244	0.186	0.204
-247.005	-151.879	-0.167	0.012
-245.990	800.000	0.024	-0.079
-244.976	36.211	0.233	-0.203
-243.961	-84.070	-0.200	-0.063
-242.946	800.000	-0.141	0.409
-241.932	2.250	-0.152	0.108
-240.917	22.923	0.195	-0.158
-239.903	-200.000	0.017	-0.077
-238.888	800.000	-0.010	0.038
-237.873	-95.955	-0.181	0.048
-236.859	302.379	0.022	0.040
-235.844	-39.405	0.363	0.188
-234.830	-44.917	0.018	-0.009
-233.815	118.347	0.229	-0.278
-232.800	5.269	-0.264	-0.192
-231.786	-200.000	-0.025	0.168
-230.771	-200.000	-0.011	-0.272
-229.757	-79.327	-0.097	0.032
-228.742	398.254	0.042	0.087
-227.727	100.879	-0.072	0.082
-226.713	44.540	-0.146	0.132
-225.698	195.629	0.045	-0.068
-224.684	-47.375	-0.459	-0.220
-223.669	336.987	-0.018	-0.034
-222.655	-102.931	0.259	0.061
-221.640	-8.459	0.044	-0.029
-220.625	144.748	-0.074	0.097
-219.611	214.148	0.080	-0.125
-218.596	-170.796	-0.060	-0.002
-217.582	274.978	0.125	0.219
-216.567	-179.926	-0.230	-0.005
-215.552	-112.932	-0.217	-0.042
-214.538	-81.822	0.380	-0.123
-213.523	346.951	-0.042	-0.082
-212.509	-127.451	0.125	-0.018
-211.494	-200.000	0.020	0.394
-210.479	-163.519	-0.263	-0.012
-209.465	-133.416	0.270	-0.033
-208.450	-200.000	0.040	0.221
-207.436	33.125	-0.082	-0.070
-206.421	-184.187	0.166	0.003
-205.406	-18.111	-0.092	-0.057
-204.392	-50.981	-0.139	0.064
-203.377	-200.000	0.068	-0.346
-202.363	-8.500	-0.153	0.101
-201.348	-53.521	-0.149	0.067
-200.333	166.876	-0.181	-0.252
-199.319	4.487	-0.260	0.188
-198.304	800.000	0.073	-0.208
-197.290	-40.253	0.171	0.088
-196.275	-200.000	0.011	0.094
-195.260	-68.604	-0.410	0.156
-194.246	-188.632	0.223	0.003
-193.231	580.118	-0.129	-0.311
-192.217	-18.096	0.154	0.095
-191.202	-144.829	0.051	-0.005
-190.187	-51.397	-0.182	-0.084
-189.173	-200.000	0.008	0.057
-188.158	800.000	0.070	0.232
-187.144	796.510	-0.062	0.169
-186.129	-31.025	0.255	-0.142
-185.114	-200.000	-0.040	0.214
-184.100	130.385	-0.261	0.330
-183.085	119.047	0.184	0.224
-182.071	-116.514	0.368	-0.067
-181.056	33.612	-0.323	-0.276
-180.042	-200.000	0.100	-0.579
-179.027	-200.000	0.077	-0.438
-178.012	-93.428	-0.512	0.140
-176.998	800.000	-0.097	0.340
-175.983	41.461	0.126	-0.112
-174.969	248.818	0.147	-0.245
-173.954	-133.831	0.293	-0.036
-172.939	-75.193	-0.228	0.080
-171.925	-135.323	0.209	0.025
-170.910	800.000	0.055	-0.176
-169.896	-200.000	-0.001	0.274
-168.881	-139.321	-0.037	0.004
-167.866	-74.697	0.145	-0.051
-166.852	-106.517	0.445	0.098
-165.837	-87.940	-0.102	0.030
-164.823	-101.232	0.266	-0.064
-163.808	520.985	-0.108	0.248
-162.793	-33.539	-0.410	0.223
-161.779	-0.934	0.207	-0.144
-160.764	-130.729	0.233	-0.031
-159.750	628.047	-0.105	-0.261
-158.735	-200.000	0.006	0.276
-157.720	-62.733	0.222	0.091
-156.706	-7.277	-0.303	-0.202
-155.691	-146.865	0.327	-0.028
-154.677	-74.774	0.200	-0.071
-153.662	71.305	0.104	-0.106
-152.647	-78.567	0.215	0.072
-151.633	-200.000	-0.016	-0.087
-150.618	83.920	0.307	0.329
-149.604	-105.469	0.267	0.060
-148.589	-102.110	0.335	-0.079
-147.574	-123.390	0.045	-0.007
-146.560	-9.363	0.220	0.144
-145.545	29.061	-0.382	-0.319
-144.531	-41.286	0.404	-0.205
-143.516	800.000	-0.104	-0.395
-142.502	144.987	-0.131	0.172
-141.487	-200.000	-0.048	0.272
-140.472	-150.030	0.101	0.008
-139.458	102.733	-0.068	0.078
-138.443	800.000	0.065	-0.244
-137.429	-6.544	-0.175	-0.117
-136.414	-200.000	0.224	0.001
-135.399	-22.573	0.174	0.104
-134.385	43.481	-0.334	0.300
-133.370	-78.192	-0.236	0.080
-132.356	800.000	0.143	0.440
-131.341	800.000	-0.021	0.084
-130.326	154.573	0.115	-0.155
-129.312	55.534	0.089	0.085
-128.297	800.000	-0.058	0.204
-127.283	-28.060	0.344	0.195
-126.268	800.000	0.052	0.184
-125.253	9.507	-0.238	-0.177
-124.239	-200.000	-0.001	0.185
-123.224	-99.770	0.254	-0.063
-122.210	652.808	0.056	0.142
-121.195	24.386	-0.200	-0.162
-120.180	800.000	0.093	0.369
-119.166	613.659	-0.060	0.147
-118.151	675.174	0.099	-0.251
-117.137	404.551	0.108	0.223
-116.122	-70.234	-0.258	0.096
-115.107	51.638	-0.027	0.026
-114.093	59.804	0.372	0.360
-113.078	800.000	-0.063	-0.258
-112.064	15.415	-0.231	-0.178
-111.049	-200.000	-0.091	-0.477
-110.034	43.329	-0.217	-0.195
-109.020	752.922	-0.018	0.047
-108.005	-30.248	0.059	-0.033
-106.991	255.990	-0.045	-0.076
-105.976	-162.443	-0.275	0.013
-104.962	23.002	0.186	0.150
-103.947	-45.150	0.250	0.122
-102.932	-98.600	-0.104	0.026
-101.918	-78.949	-0.098	0.033
-100.903	143.237	-0.132	0.173
-99.889	-200.000	-0.027	-0.122
-98.874	216.009	0.024	0.037
-97.859	7.957	0.241	0.177
-96.845	-105.929	-0.040	0.009
-95.830	800.000	0.100	-0.337
-94.816	40.043	-0.236	0.208
-93.801	143.310	-0.211	-0.275
-92.786	253.836	0.111	0.187
-91.772	288.648	-0.177	-0.315
-90.757	-45.838	0.368	-0.178
-89.743	-53.887	0.127	-0.057
-88.728	-121.168	-0.170	-0.028
-87.713	-130.929	0.202	0.027
-86.699	-140.200	-0.186	0.019
-85.684	-200.000	0.047	0.221
-84.670	-118.985	0.188	-0.032
-83.655	105.429	-0.093	-0.108
-82.640	27.416	-0.271	-0.223
-81.626	-170.916	0.151	0.005
-80.611	-119.363	-0.090	0.015
-79.597	800.000	0.071	-0.247
-78.582	-200.000	-0.011	0.079
-77.567	-90.890	-0.198	0.056
-76.553	800.000	0.070	0.268
-75.538	30.229	0.177	-0.148
-74.524	120.859	-0.043	-0.052
-73.509	-3.363	-0.088	0.060
-72.494	42.226	-0.197	0.175
-71.480	800.000	0.039	0.140
-70.465	296.129	0.166	-0.299
-69.451	353.445	-0.063	-0.122
-68.436	-79.741	0.058	0.019
-67.422	21.756	0.188	-0.150
-66.407	529.093	0.074	0.172
-65.392	-161.982	0.174	-0.009
-64.378	160.408	0.122	-0.166
-63.363	-48.723	-0.135	0.064
-62.349	-61.028	-0.283	-0.117
-61.334	-1.970	-0.960	-0.661
-60.319	-24.025	0.788	0.462
-59.305	800.000	-0.270	-0.927
-58.290	200.992	0.803	1.210
-57.276	220.557	0.945	1.485
-56.261	-200.000	106.557	621.580
-55.246	519.604	1511.198	3468.916
-54.232	176.375	2701.283	3844.695
-53.217	110.109	2180.420	2564.039
-52.203	39.769	1704.110	1497.850
-51.188	32.373	1517.038	1283.150
-50.173	30.071	1490.604	1245.294
-49.159	50.592	1547.373	1433.962
-48.144	50.829	1563.780	1450.733
-47.130	32.506	1519.187	1285.677
-46.115	29.496	1504.214	1252.563
-45.100	29.337	1501.081	1248.831
-44.086	29.272	1498.983	1246.597
-43.071	29.186	1496.466	1243.868
-42.057	29.169	1494.740	1242.274
-41.042	29.210	1493.512	1241.477
-40.027	29.243	1491.898	1240.309
-39.013	29.176	1490.488	1238.637
-37.998	28.987	1489.845	1236.782
-36.984	29.097	1488.601	1236.439
-35.969	29.185	1487.077	1235.717
-34.954	29.216	1485.292	1234.395
-33.940	29.195	1484.167	1233.265
-32.925	29.151	1482.901	1231.872
-31.911	29.268	1481.454	1231.406
-30.896	29.319	1479.964	1230.455
-29.881	29.243	1479.276	1229.331
-28.867	29.242	1477.867	1228.102
-27.852	29.270	1476.683	1227.258
-26.838	29.200	1475.075	1225.407
-25.823	29.267	1473.555	1224.538
-24.809	29.248	1472.072	1223.132
-23.794	29.250	1470.356	1221.673
-22.779	29.139	1469.611	1220.269
-21.765	29.292	1468.069	1219.949
-20.750	29.285	1467.219	1219.147
-19.736	29.221	1465.909	1217.588
-18.721	29.162	1465.049	1216.436
-17.706	29.268	1463.916	1216.148
-16.692	29.190	1462.799	1214.656
-15.677	29.195	1461.663	1213.701
-14.663	29.118	1461.247	1212.800
-13.648	29.203	1459.986	1212.266
-12.633	29.157	1458.846	1210.966
-11.619	29.073	1458.324	1209.933
-10.604	28.999	1457.797	1208.961
-9.590	29.196	1456.351	1209.004
-8.575	29.157	1455.245	1207.784
-7.560	29.246	1454.322	1207.553
-6.546	29.186	1453.699	1206.596
-5.531	29.201	1452.851	1205.940
-4.517	29.092	1452.272	1204.698
-3.502	29.193	1451.070	1204.316
-2.487	29.284	1449.538	1203.590
-1.473	29.162	1448.741	1202.089
-0.458	29.129	1447.368	1200.687
0.556	26.957	1438.182	1190.476
1.571	24.118	1412.553	1150.840
2.586	20.752	1353.197	1081.511
3.600	19.243	1271.523	1007.327
4.615	18.143	1227.179	965.906
5.629	15.620	1172.053	908.803
6.644	7.536	1088.459	803.164
7.659	0.833	1048.657	740.976
8.673	-0.155	1042.942	732.056
9.688	-0.388	1039.871	728.704
10.702	-0.279	1037.957	727.826
11.717	-0.338	1036.127	726.192
12.731	2.585	1039.500	742.674
13.746	11.300	1051.921	794.081
14.761	18.243	1060.419	834.396
15.775	19.922	1062.209	843.926
16.790	20.159	1061.700	844.602
17.804	19.940	1061.405	843.226
18.819	19.825	1060.416	841.806
19.834	19.885	1059.557	841.338
20.848	19.893	1059.480	841.245
21.863	20.078	1058.639	841.401
22.877	20.005	1058.512	840.869
23.892	20.106	1057.185	840.233
24.907	19.768	1056.963	838.341
25.921	20.014	1056.500	839.093
26.936	20.062	1055.078	838.120
27.950	20.041	1054.058	837.133
28.965	19.956	1053.031	835.832
29.980	19.848	1051.132	833.731
30.994	19.711	1050.040	832.133
32.009	20.085	1048.846	832.911
33.023	20.072	1048.140	832.217
34.038	19.749	1047.395	829.998
35.053	19.916	1046.001	829.624
36.067	20.046	1045.139	829.485
37.082	20.096	1044.784	829.372
38.096	20.037	1044.234	828.577
39.111	19.997	1043.799	827.971
40.126	20.338	1042.576	828.555
41.140	20.312	1040.929	827.049
42.155	19.924	1039.716	824.162
43.169	19.878	1038.001	822.512
44.184	19.673	1037.408	820.996
45.199	19.751	1036.383	820.482
46.213	19.747	1035.027	819.318
47.228	19.774	1034.107	818.644
48.242	19.742	1033.658	818.067
49.257	19.757	1032.840	817.418
50.271	19.940	1031.312	816.998
51.286	20.042	1030.759	816.971
52.301	20.093	1030.066	816.588
53.315	20.063	1029.166	815.663
54.330	19.951	1028.630	814.638
55.344	20.094	1027.461	814.312
56.359	19.955	1026.812	813.071
57.374	20.073	1025.607	812.599
58.388	19.935	1024.373	810.902
59.403	19.884	1024.047	810.337
60.417	19.873	1022.899	809.303
61.432	19.718	1022.179	807.938
62.447	19.678	1021.393	807.058
63.461	19.880	1020.661	807.349
64.476	19.938	1020.040	807.058
65.490	19.826	1019.278	805.862
66.505	19.651	1018.546	804.397
67.520	19.795	1017.636	804.276
68.534	20.002	1016.520	804.286
69.549	19.895	1015.306	802.756
70.563	19.509	1014.418	800.195
71.578	19.492	1013.749	799.520
72.593	19.542	1012.968	799.062
73.607	19.391	1011.740	797.326
74.622	19.239	1011.299	796.205
75.636	19.561	1010.279	796.816
76.651	19.826	1009.424	797.293
77.666	19.742	1008.688	796.258
78.680	19.600	1007.501	794.598
79.695	19.544	1007.369	794.164
80.709	19.716	1006.499	794.199
81.724	19.705	1005.904	793.607
82.739	19.672	1004.755	792.482
83.753	19.809	1003.847	792.320
84.768	19.941	1003.319	792.441
85.782	20.271	1002.207	792.999
86.797	20.260	1002.194	792.866
87.812	20.291	1000.915	791.928
88.826	20.199	999.382	790.226
89.841	20.242	999.265	790.257
90.855	20.248	998.260	789.420
91.870	20.256	997.342	788.662
92.884	20.234	996.858	788.109
93.899	20.034	996.149	786.573
94.914	20.112	994.806	785.794
95.928	20.160	994.247	785.501
96.943	20.238	993.212	784.965
97.957	19.965	991.787	782.536
98.972	19.797	990.598	780.772
99.987	19.531	990.047	779.070
101.001	19.566	989.214	778.500
102.016	19.995	988.218	779.582
103.030	20.084	987.681	779.489
104.045	19.879	986.507	777.571
105.060	19.701	984.767	775.335
106.074	19.576	983.693	773.860
107.089	19.564	983.407	773.511
108.103	19.985	982.930	774.954
109.118	20.175	981.958	774.967
110.133	19.830	980.743	772.400
111.147	19.759	979.791	771.265
112.162	19.682	978.647	769.952
113.176	19.567	977.227	768.254
114.191	19.630	976.402	767.819
115.206	19.628	975.739	767.222
116.220	19.390	974.435	765.074
117.235	19.387	973.377	764.160
118.249	19.515	972.631	764.074
119.264	19.532	971.632	763.299
120.279	19.417	970.864	762.117
121.293	19.555	969.697	761.742
122.308	19.538	969.545	761.481
123.322	19.588	968.814	761.061
124.337	19.553	967.313	759.661
125.352	19.609	965.978	758.789
126.366	19.167	963.879	755.138
127.381	18.850	962.840	752.865
128.395	19.186	963.029	754.419
129.410	19.952	962.482	757.278
130.424	20.070	961.729	757.134
131.439	19.987	960.571	755.792
132.454	19.930	959.343	754.511
133.468	19.976	958.800	754.215
134.483	20.036	957.486	753.377
135.497	19.967	957.007	752.636
136.512	20.159	956.251	752.805
137.527	20.247	955.487	752.523
138.541	20.250	954.893	752.001
139.556	20.200	953.953	750.977
140.570	20.343	953.066	750.830
141.585	20.277	952.203	749.799
142.600	20.294	951.565	749.302
143.614	20.161	950.540	747.858
144.629	20.370	949.799	748.109
145.643	20.420	949.387	747.932
146.658	20.437	947.908	746.773
147.673	20.169	946.825	744.705
148.687	20.210	945.548	743.810
149.702	20.028	944.965	742.505
150.716	20.060	943.618	741.517
151.731	20.013	942.701	740.529
152.746	20.153	942.067	740.566
153.760	20.308	941.678	740.853
154.775	20.262	941.447	740.412
155.789	20.356	939.905	739.535
156.804	20.450	939.008	739.161
157.819	20.257	937.987	737.475
158.833	20.304	937.164	736.962
159.848	20.466	936.506	737.065
160.862	20.607	935.420	736.742
161.877	20.401	934.680	735.222
162.892	20.340	934.000	734.365
163.906	20.420	932.825	733.714
164.921	20.379	932.598	733.298
165.935	20.385	931.156	732.123
166.950	20.409	929.996	731.250
167.964	20.465	929.113	730.725
168.979	20.409	928.031	729.574
169.994	20.408	926.631	728.403
171.008	20.077	926.335	726.718
172.023	20.340	925.433	727.051
173.037	20.306	924.814	726.356
174.052	20.031	923.587	724.179
175.067	20.078	922.519	723.476
176.081	20.140	921.742	723.058
177.096	20.240	920.887	722.741
178.110	20.336	919.637	722.095
179.125	20.045	918.906	720.249
180.140	19.870	917.957	718.715
181.154	19.889	917.236	718.167
182.169	19.859	917.026	717.812
183.183	20.000	916.672	718.057
184.198	20.309	916.049	718.785
185.213	20.283	915.235	717.973
186.227	20.272	914.687	717.437
187.242	20.361	913.894	717.119
188.256	20.447	913.429	717.046
189.271	20.389	912.417	715.948
190.286	20.546	911.797	716.045
191.300	20.348	910.821	714.401
192.315	19.865	909.565	711.365
193.329	19.289	907.624	707.424
194.344	18.823	907.228	705.140
195.359	19.393	907.266	707.443
196.373	20.193	907.043	710.488
197.388	20.389	907.213	711.359
198.402	20.282	906.021	709.926
199.417	20.186	905.670	709.195
200.432	20.362	904.871	709.225
201.446	20.022	904.249	707.287
202.461	19.819	903.631	705.912
203.475	19.780	903.413	705.519
204.490	19.458	901.460	702.622
205.504	18.259	899.768	696.363
206.519	18.845	899.451	698.442
207.534	19.714	899.856	702.224
208.548	19.921	898.994	702.330
209.563	20.110	899.408	703.357
210.577	20.192	898.323	702.779
211.592	20.098	897.383	701.603
212.607	20.408	896.786	702.327
213.621	20.437	896.700	702.316
214.636	20.426	895.816	701.519
215.650	20.465	895.423	701.306
216.665	20.436	894.741	700.592
217.680	20.392	894.496	700.159
218.694	20.499	893.646	699.863
219.709	20.159	892.775	697.753
220.723	19.921	891.601	695.816
221.738	20.117	891.372	696.362
222.753	20.437	890.429	696.849
223.767	20.165	889.898	695.280
224.782	20.300	889.260	695.261
225.796	20.395	888.951	695.337
226.811	20.366	888.674	694.943
227.826	20.095	886.849	692.374
228.840	19.339	885.507	688.249
229.855	19.315	885.116	687.789
230.869	19.538	884.610	688.223
231.884	19.191	883.777	686.129
232.899	19.261	883.414	686.065
233.913	20.078	883.803	689.562
234.928	20.516	882.870	690.512
235.942	20.188	881.869	688.367
236.957	20.180	881.353	687.872
237.972	19.885	880.506	685.983
238.986	19.674	880.321	684.938
240.001	19.981	879.452	685.419
241.015	20.115	878.625	685.244
242.030	20.103	877.912	684.580
243.045	20.184	877.589	684.586
244.059	20.275	876.697	684.189
245.074	20.540	876.015	684.641
246.088	20.382	875.741	683.742
247.103	19.873	874.888	681.013
248.117	19.921	874.174	680.587
249.132	20.495	873.812	682.499
250.147	20.728	873.665	683.239
251.161	20.829	872.978	683.037
252.176	20.922	872.369	682.866
253.190	21.053	871.522	682.653
254.205	21.110	870.779	682.234
255.220	21.358	870.538	682.956
256.234	21.158	869.998	681.688
257.249	21.179	869.403	681.243
258.263	20.937	868.824	679.788
259.278	20.994	868.248	679.498
260.293	21.066	867.824	679.387
261.307	21.167	866.911	679.005
262.322	21.024	866.237	677.862
263.336	21.109	864.907	677.090
264.351	20.510	864.069	674.053
265.366	19.212	862.234	667.533
266.380	19.020	861.208	665.939
267.395	19.851	861.818	669.568
268.409	20.661	861.953	672.746
269.424	20.634	861.358	672.120
270.439	20.757	860.866	672.150
271.453	20.871	859.977	671.838
272.468	20.804	859.378	671.052
273.482	21.109	858.958	671.837
274.497	21.233	858.371	671.798
275.512	20.956	857.253	669.800
276.526	20.420	855.856	666.592
277.541	20.708	855.497	667.356
278.555	20.941	855.509	668.200
279.570	20.706	854.543	666.487
280.585	20.712	853.316	665.495
281.599	20.754	853.340	665.614
282.614	20.807	852.873	665.394
283.628	20.353	851.793	662.761
284.643	20.113	851.392	661.474
285.657	20.536	850.910	662.651
286.672	20.458	849.721	661.371
287.687	19.978	849.261	659.127
288.701	20.262	849.331	660.203
289.716	20.751	848.530	661.381
290.730	20.267	847.760	658.887
291.745	20.130	847.342	657.981
292.760	20.047	845.774	656.394
293.774	19.947	845.544	655.776
294.789	20.795	846.204	659.444
295.803	21.358	846.421	661.688
296.818	21.528	845.192	661.311
297.833	21.657	844.690	661.344
298.847	21.343	843.894	659.477
299.862	21.033	842.963	657.525
300.876	21.242	842.400	657.815
301.891	21.291	842.385	657.930
302.906	21.432	841.547	657.746
303.920	21.033	839.963	654.953
304.935	20.927	839.499	654.136
305.949	21.319	839.430	655.493
306.964	21.545	838.451	655.518
307.979	21.345	837.988	654.351
308.993	21.283	837.776	653.892
310.008	21.426	837.653	654.277
311.022	21.511	837.162	654.153
312.037	21.406	836.684	653.328
313.052	21.195	835.609	651.645
314.066	21.200	834.791	650.967
315.081	20.631	833.335	647.657
316.095	20.015	831.886	644.181
317.110	20.457	832.637	646.352
318.125	21.174	833.018	649.257
319.139	20.869	831.639	646.993
320.154	19.743	830.117	641.575
321.168	19.232	829.352	639.033
322.183	19.917	829.084	641.309
323.197	20.669	829.789	644.585
324.212	21.090	829.123	645.567
325.227	21.147	829.103	645.705
326.241	21.370	828.573	646.060
327.256	21.288	827.931	645.198
328.270	21.234	827.204	644.376
329.285	20.945	826.520	642.722
330.300	20.890	825.676	641.805
331.314	20.820	824.980	640.951
332.329	20.785	824.440	640.346
333.343	21.176	824.297	641.615
334.358	21.369	823.838	641.911
335.373	21.240	823.248	640.921
336.387	21.430	822.631	641.078
337.402	21.636	822.348	641.556
338.416	21.778	821.914	641.680
339.431	21.601	821.475	640.635
340.446	21.637	820.824	640.202
341.460	21.913	820.542	640.935
342.475	21.661	819.989	639.527
343.489	21.774	818.897	639.030
344.504	21.617	818.241	637.887
345.519	21.885	817.935	638.569
346.533	22.028	818.037	639.112
347.548	22.160	817.166	638.855
348.562	22.259	816.672	638.773
349.577	21.914	816.513	637.338
350.592	22.078	815.909	637.406
351.606	22.087	815.277	636.887
352.621	22.119	814.758	636.541
353.635	21.977	814.124	635.475
354.650	21.859	813.603	634.587
355.665	21.747	812.360	633.155
356.679	20.662	810.984	628.114
357.694	20.323	810.676	626.595
358.708	21.112	810.481	629.237
359.723	21.057	809.600	628.297
360.738	21.327	809.488	629.128
361.752	21.703	809.566	630.486
362.767	21.790	809.347	630.573
363.781	21.988	809.013	630.967
364.796	22.281	808.794	631.794
365.810	22.325	808.338	631.539
366.825	22.359	808.120	631.434
367.840	22.416	807.545	631.133
368.854	22.318	807.042	630.333
369.869	21.933	805.879	627.991
370.883	21.777	805.234	626.878
371.898	21.990	804.603	627.093
372.913	21.804	803.912	625.834
373.927	21.789	803.242	625.203
374.942	21.674	803.443	624.895
375.956	22.020	802.704	625.496
376.971	22.005	802.239	625.026
377.986	22.008	801.882	624.703
379.000	22.329	800.831	624.970
380.015	22.385	800.504	624.856
381.029	22.287	799.575	623.728
382.044	22.257	799.082	623.181
383.059	22.286	799.006	623.171
384.073	22.350	798.413	622.880
385.088	22.345	798.012	622.494
386.102	22.391	797.566	622.255
387.117	22.303	796.854	621.331
388.132	22.020	796.517	620.017
389.146	21.986	795.509	619.058
390.161	21.548	794.473	616.653
391.175	21.533	794.142	616.287
392.190	21.939	794.504	617.946
393.205	22.175	793.673	618.074
394.219	21.101	792.085	613.013
395.234	19.585	790.245	606.215
396.248	18.870	789.187	602.842
397.263	20.111	789.993	607.759
398.278	21.725	791.059	614.189
399.292	22.097	791.049	615.429
400.307	21.871	790.629	614.258
401.321	21.836	790.087	613.660
402.336	21.927	789.505	613.471
403.350	22.162	789.428	614.178
404.365	22.634	789.231	615.620
405.380	22.843	788.982	616.102
406.394	23.151	788.460	616.713
407.409	23.210	788.251	616.701
408.423	23.053	787.710	615.676
409.438	22.936	787.308	614.898
410.453	23.057	786.687	614.780
411.467	22.956	786.399	614.150
412.482	23.073	785.428	613.742
413.496	23.136	785.435	613.914
414.511	23.162	784.985	613.596
415.526	23.234	784.472	613.391
416.540	23.115	784.010	612.563
417.555	23.134	783.599	612.255
418.569	22.718	783.069	610.345
419.584	22.775	782.462	610.015
420.599	22.764	782.003	609.568
421.613	158.102	1363.317	1798.546
422.628	136.687	1447.995	1798.629
