DTS Sentinel unit serial number:	SN413079Multiplexer serial number:	ORYXHardware model number:	OX4-SRSoftware version number:	ORYX F/W v4.00 Oryx Data Collector v3.7.2.0data status	okinstallation	princeton_trtdifferential loss correction	single-endedforward channel	channel 3reverse channel	N/Adate	2019/09/11time	03:10:11forward acquisition time	60.00reverse acquisition time	0.00gamma	496.2192k internal	0.2331k external	0.2331temperature offset calibration	0.9913default loss term (dB/km)	0.3790temperature slope calibration	1.0000multiplexer offset coefficient	1.0000multiplexer slope coefficient	1.0000fibre end	0.00T internal ref (°C)	29.31T ext. ref 1 (°C)	-0.31T ext. ref 2 (°C)	24.03length (m)	temperature (°C)	Stokes	anti-Stokes-747.200	222.390	0.096	0.155
-746.185	-200.000	0.012	0.221
-745.171	149.306	-0.308	0.419
-744.156	-25.778	0.308	0.183
-743.142	438.027	-0.070	-0.153
-742.127	218.866	-0.276	0.444
-741.112	-47.358	0.119	0.058
-740.098	-189.194	0.121	-0.001
-739.083	70.834	-0.122	-0.127
-738.069	-156.601	-0.303	0.019
-737.054	-88.307	0.253	-0.076
-736.039	-200.000	-0.039	0.308
-735.025	-160.621	0.117	-0.006
-734.010	-111.392	-0.311	0.064
-732.996	-200.000	0.001	-0.152
-731.981	-200.000	0.015	-0.161
-730.966	-21.005	0.267	-0.164
-729.952	-200.000	-0.041	-0.370
-728.937	157.561	-0.026	0.036
-727.923	800.000	0.073	0.265
-726.908	-146.156	0.279	0.025
-725.894	800.000	-0.033	0.124
-724.879	-129.597	-0.199	-0.028
-723.864	39.083	-0.180	-0.162
-722.850	687.706	0.049	0.129
-721.835	-200.000	0.004	-0.201
-720.821	-133.812	0.188	-0.023
-719.806	-163.005	-0.272	0.013
-718.791	39.551	0.111	-0.100
-717.777	-143.043	0.285	-0.028
-716.762	-148.942	0.325	0.026
-715.748	800.000	0.101	0.306
-714.733	53.593	0.123	0.118
-713.718	261.333	-0.160	-0.279
-712.704	0.137	0.190	0.136
-711.689	-154.092	-0.328	-0.022
-710.675	-47.053	-0.166	-0.081
-709.660	-200.000	-0.049	-0.397
-708.645	-154.209	0.133	0.009
-707.631	-200.000	-0.002	0.111
-706.616	-85.016	0.213	-0.067
-705.602	-4.028	0.407	0.284
-704.587	-200.000	0.013	0.216
-703.572	37.124	-0.036	-0.032
-702.558	-84.785	-0.147	0.046
-701.543	800.000	-0.075	-0.303
-700.529	800.000	-0.095	-0.294
-699.514	-13.410	-0.297	0.193
-698.499	-200.000	-0.003	0.194
-697.485	50.573	0.163	0.155
-696.470	-122.145	0.135	-0.022
-695.456	-115.374	0.088	-0.017
-694.441	-200.000	0.002	0.026
-693.426	-200.000	-0.056	0.326
-692.412	53.298	0.214	0.206
-691.397	8.052	0.200	0.150
-690.383	563.861	-0.117	-0.284
-689.368	-23.942	-0.265	0.159
-688.354	-200.000	-0.019	0.160
-687.339	424.745	-0.041	-0.089
-686.324	139.104	-0.316	0.418
-685.310	616.943	-0.088	0.222
-684.295	21.960	0.190	-0.155
-683.281	554.298	0.014	0.033
-682.266	-68.067	-0.116	0.046
-681.251	497.750	-0.085	0.197
-680.237	244.619	0.092	-0.155
-679.222	-65.987	0.096	-0.039
-678.208	-200.000	-0.011	0.352
-677.193	-19.581	-0.252	-0.156
-676.178	-171.529	0.141	0.005
-675.164	-200.000	0.012	-0.131
-674.149	17.225	-0.093	0.074
-673.135	-200.000	0.012	0.067
-672.120	-137.508	0.344	0.039
-671.105	-200.000	-0.014	-0.305
-670.091	800.000	-0.072	-0.276
-669.076	-200.000	-0.001	0.056
-668.062	339.418	-0.027	0.052
-667.047	-200.000	0.030	0.231
-666.032	554.800	0.028	-0.067
-665.018	50.064	0.201	-0.191
-664.003	138.641	0.213	0.280
-662.989	189.374	0.123	-0.185
-661.974	98.251	-0.042	-0.049
-660.959	256.634	0.170	-0.293
-659.945	-117.425	-0.321	0.058
-658.930	-99.585	-0.154	0.039
-657.916	138.957	0.103	-0.135
-656.901	-67.848	0.221	-0.086
-655.886	-200.000	-0.049	0.280
-654.872	-200.000	-0.042	-0.366
-653.857	-87.940	-0.113	-0.034
-652.843	-89.396	0.258	0.076
-651.828	73.212	-0.042	0.044
-650.814	76.298	-0.310	0.329
-649.799	-34.250	0.272	-0.149
-648.784	-161.884	-0.160	-0.008
-647.770	53.216	-0.247	0.237
-646.755	800.000	0.085	-0.244
-645.741	-200.000	-0.002	-0.224
-644.726	174.732	-0.200	0.290
-643.711	-163.561	-0.192	-0.009
-642.697	548.307	-0.090	-0.217
-641.682	-31.692	-0.349	-0.196
-640.668	-200.000	0.006	-0.293
-639.653	-200.000	0.038	0.250
-638.638	103.521	0.056	-0.066
-637.624	-45.569	-0.121	-0.060
-636.609	-94.451	0.008	-0.002
-635.595	-200.000	-0.034	0.150
-634.580	-150.976	0.235	-0.018
-633.565	5.201	-0.394	0.291
-632.551	-200.000	-0.014	0.110
-631.536	51.427	-0.045	-0.043
-630.522	800.000	-0.085	0.317
-629.507	-76.950	0.330	-0.115
-628.492	713.260	0.124	0.329
-627.478	-102.858	-0.071	-0.017
-626.463	278.175	0.135	-0.241
-625.449	256.556	0.086	-0.148
-624.434	162.755	-0.165	0.232
-623.419	800.000	0.038	-0.115
-622.405	-118.846	-0.251	0.044
-621.390	-200.000	-0.001	0.008
-620.376	-200.000	-0.029	-0.276
-619.361	-200.000	0.058	-0.381
-618.346	74.706	-0.219	0.231
-617.332	252.466	0.143	0.245
-616.317	-49.149	0.201	-0.096
-615.303	209.856	-0.261	0.410
-614.288	104.059	-0.099	-0.116
-613.273	139.740	0.056	0.073
-612.259	485.161	0.055	-0.127
-611.244	-147.735	0.467	-0.039
-610.230	800.000	-0.086	-0.267
-609.215	800.000	-0.100	-0.316
-608.201	-174.533	0.056	-0.002
-607.186	-69.591	-0.254	0.097
-606.171	-200.000	0.061	0.320
-605.157	-55.783	-0.205	0.091
-604.142	180.271	0.188	-0.276
-603.128	43.002	0.199	0.182
-602.113	-200.000	-0.052	-0.265
-601.098	800.000	-0.032	0.133
-600.084	-139.828	-0.406	0.043
-599.069	-101.347	-0.138	0.034
-598.055	-94.621	-0.161	0.044
-597.040	-200.000	-0.075	0.368
-596.025	-52.641	-0.038	-0.017
-595.011	143.456	-0.055	0.073
-593.996	-200.000	-0.003	-0.110
-592.982	-200.000	-0.025	0.240
-591.967	-18.583	0.063	0.039
-590.952	-153.275	-0.375	0.026
-589.938	800.000	0.003	0.010
-588.923	101.549	-0.022	0.026
-587.909	104.166	-0.116	0.137
-586.894	657.162	-0.046	-0.119
-585.879	273.752	0.077	0.137
-584.865	-112.454	-0.204	-0.041
-583.850	800.000	0.062	0.231
-582.836	608.257	0.111	0.278
-581.821	35.091	0.227	-0.199
-580.806	376.454	0.056	0.114
-579.792	25.489	0.201	0.167
-578.777	-200.000	-0.024	-0.219
-577.763	194.614	0.070	0.106
-576.748	367.313	0.081	-0.163
-575.733	-177.560	-0.212	-0.005
-574.719	-118.628	0.409	0.072
-573.704	299.877	0.075	-0.137
-572.690	-38.400	-0.150	0.079
-571.675	-137.400	0.126	0.014
-570.661	-30.157	0.089	0.051
-569.646	-200.000	-0.034	-0.188
-568.631	-37.739	-0.328	-0.175
-567.617	-153.516	-0.077	-0.005
-566.602	-200.000	-0.017	-0.084
-565.588	-2.318	-0.194	0.136
-564.573	800.000	-0.093	-0.265
-563.558	-2.876	-0.223	0.156
-562.544	147.353	0.095	0.128
-561.529	104.558	0.072	0.084
-560.515	-68.711	0.205	-0.079
-559.500	-61.982	0.097	0.040
-558.485	-107.904	-0.135	0.029
-557.471	-121.240	-0.319	0.053
-556.456	349.455	-0.114	0.224
-555.442	-143.694	0.083	0.008
-554.427	422.412	-0.067	-0.144
-553.412	152.827	-0.050	-0.069
-552.398	-200.000	-0.004	-0.192
-551.383	-68.279	-0.310	-0.120
-550.369	145.693	-0.195	-0.261
-549.354	391.858	-0.016	0.034
-548.339	-54.118	0.108	0.049
-547.325	-131.777	0.147	-0.019
-546.310	201.554	-0.103	0.158
-545.296	-200.000	0.002	-0.447
-544.281	224.545	-0.045	-0.072
-543.266	116.354	-0.167	0.205
-542.252	490.004	0.123	0.281
-541.237	337.988	-0.029	-0.056
-540.223	592.954	-0.088	-0.217
-539.208	-200.000	0.058	0.279
-538.193	800.000	-0.067	0.230
-537.179	-65.262	-0.043	-0.017
-536.164	229.199	-0.061	-0.099
-535.150	110.423	-0.229	0.274
-534.135	168.167	0.201	-0.286
-533.121	-200.000	0.025	-0.288
-532.106	-12.436	0.111	0.072
-531.091	163.927	0.099	-0.139
-530.077	800.000	-0.045	-0.133
-529.062	-70.980	0.085	0.032
-528.048	-163.966	0.469	0.022
-527.033	-59.785	0.285	0.122
-526.018	-5.950	-0.166	-0.113
-525.004	800.000	-0.080	-0.222
-523.989	83.038	0.103	-0.112
-522.975	136.163	-0.130	0.168
-521.960	-200.000	-0.051	0.716
-520.945	206.544	-0.153	0.238
-519.931	-200.000	-0.040	0.197
-518.916	-1.117	-0.074	-0.052
-517.902	-93.216	0.188	0.052
-516.887	-151.099	-0.284	0.021
-515.872	-40.196	-0.376	0.195
-514.858	84.849	-0.222	-0.243
-513.843	64.126	0.113	0.113
-512.829	684.167	0.041	0.107
-511.814	363.378	0.042	-0.084
-510.799	80.304	-0.206	-0.221
-509.785	-143.799	0.442	0.042
-508.770	800.000	-0.015	0.044
-507.756	-142.729	0.369	0.036
-506.741	-18.557	0.223	-0.139
-505.726	32.415	0.294	0.253
-504.712	160.482	-0.144	-0.200
-503.697	-200.000	-0.033	0.313
-502.683	447.405	-0.046	-0.101
-501.668	359.102	-0.048	-0.096
-500.653	-73.531	-0.190	-0.069
-499.639	-200.000	0.010	0.148
-498.624	180.770	0.109	0.160
-497.610	-0.818	-0.140	0.099
-496.595	-156.114	0.281	0.018
-495.581	800.000	-0.033	0.135
-494.566	-112.039	0.167	-0.033
-493.551	-6.303	-0.197	-0.134
-492.537	-176.130	0.284	0.007
-491.522	-86.263	-0.336	-0.103
-490.508	-98.369	0.266	0.068
-489.493	26.092	0.305	-0.254
-488.478	47.366	0.213	-0.198
-487.464	428.930	0.149	-0.322
-486.449	-110.165	0.182	0.038
-485.435	-31.636	-0.375	-0.210
-484.420	90.661	0.200	0.223
-483.405	-18.245	0.045	0.028
-482.391	-147.165	0.211	-0.018
-481.376	474.066	-0.099	-0.223
-480.362	-200.000	0.001	0.094
-479.347	-92.365	0.121	-0.034
-478.332	800.000	-0.071	-0.209
-477.318	-200.000	-0.050	-0.275
-476.303	-69.717	-0.249	0.095
-475.289	-57.880	0.347	-0.151
-474.274	-119.532	-0.129	-0.022
-473.259	-108.092	0.107	-0.023
-472.245	-86.365	-0.059	0.018
-471.230	-20.284	-0.061	0.038
-470.216	378.894	-0.087	0.178
-469.201	70.282	0.128	0.132
-468.186	-129.100	0.276	-0.038
-467.172	800.000	0.066	0.279
-466.157	280.139	0.054	-0.096
-465.143	211.059	0.034	-0.054
-464.128	800.000	-0.131	0.478
-463.113	224.746	0.176	-0.283
-462.099	-125.556	0.145	0.022
-461.084	-200.000	-0.011	0.145
-460.070	16.856	0.098	-0.077
-459.055	-200.000	-0.041	0.221
-458.040	-152.078	0.082	0.006
-457.026	800.000	0.063	0.210
-456.011	628.183	-0.083	-0.210
-454.997	-114.488	0.115	0.022
-453.982	-200.000	-0.006	-0.105
-452.968	134.831	-0.053	0.068
-451.953	-60.986	-0.221	-0.093
-450.938	-159.962	0.230	-0.013
-449.924	-101.651	-0.241	-0.058
-448.909	-118.262	-0.305	0.054
-447.895	-64.090	0.095	0.039
-446.880	-65.125	0.106	-0.042
-445.865	212.788	0.197	0.310
-444.851	19.569	-0.361	0.289
-443.836	670.472	-0.139	-0.358
-442.822	250.654	0.132	0.223
-441.807	677.272	0.045	-0.116
-440.792	80.179	0.190	-0.203
-439.778	800.000	0.049	0.202
-438.763	-68.780	-0.116	0.044
-437.749	140.054	-0.172	-0.225
-436.734	-75.704	-0.392	-0.138
-435.719	-150.538	0.370	-0.028
-434.705	-40.520	-0.091	-0.047
-433.690	-13.532	-0.245	-0.158
-432.676	-200.000	0.007	0.087
-431.661	151.187	0.159	-0.216
-430.646	-128.581	-0.088	0.012
-429.632	800.000	0.148	0.436
-428.617	800.000	-0.081	0.342
-427.603	420.050	0.111	0.236
-426.588	-113.953	0.040	-0.008
-425.573	359.244	0.133	0.265
-424.559	6.919	0.091	0.067
-423.544	-173.168	-0.255	0.008
-422.530	326.626	0.089	-0.170
-421.515	800.000	-0.049	-0.203
-420.500	-200.000	-0.037	-0.251
-419.486	125.251	-0.067	-0.084
-418.471	-61.152	-0.264	0.111
-417.457	57.303	-0.040	-0.039
-416.442	118.651	0.176	0.216
-415.428	-200.000	0.356	0.002
-414.413	155.245	0.173	0.236
-413.398	-90.412	-0.136	0.039
-412.384	7.885	0.316	0.235
-411.369	-116.500	-0.244	-0.045
-410.355	-74.709	0.217	0.078
-409.340	-200.000	0.014	0.256
-408.325	95.693	-0.194	0.220
-407.311	800.000	0.058	0.176
-406.296	-77.384	-0.242	-0.084
-405.282	-14.076	0.046	-0.029
-404.267	180.417	0.081	-0.117
-403.252	78.328	-0.082	0.087
-402.238	-23.292	0.292	0.174
-401.223	89.218	0.151	-0.167
-400.209	-108.034	0.180	0.039
-399.194	53.388	-0.181	0.172
-398.179	-200.000	0.012	0.084
-397.165	-200.000	-0.016	0.207
-396.150	-125.790	0.363	-0.054
-395.136	-200.000	0.013	0.111
-394.121	133.776	0.150	-0.193
-393.106	88.331	0.228	0.252
-392.092	704.513	-0.060	-0.157
-391.077	-200.000	-0.003	0.116
-390.063	132.301	0.071	0.091
-389.048	418.593	-0.134	0.284
-388.033	800.000	-0.044	-0.138
-387.019	154.110	0.086	-0.117
-386.004	-7.878	-0.104	0.070
-384.990	180.004	0.079	0.115
-383.975	-39.927	0.296	0.154
-382.960	-200.000	-0.013	0.163
-381.946	-200.000	-0.016	-0.166
-380.931	188.985	0.171	0.254
-379.917	-200.000	0.044	-0.420
-378.902	-64.073	-0.163	0.066
-377.888	-41.489	0.132	-0.068
-376.873	-200.000	-0.061	0.316
-375.858	444.805	-0.125	0.271
-374.844	800.000	0.026	0.092
-373.829	-200.000	0.030	0.222
-372.815	404.752	0.160	0.335
-371.800	48.556	0.069	-0.064
-370.785	-175.326	0.334	0.009
-369.771	-200.000	-0.016	0.210
-368.756	669.844	-0.030	-0.076
-367.742	-68.456	0.246	-0.095
-366.727	-18.909	-0.085	-0.053
-365.712	-43.482	0.152	-0.076
-364.698	-106.790	-0.014	0.003
-363.683	112.555	0.061	0.073
-362.669	48.531	-0.156	0.145
-361.654	800.000	0.054	0.212
-360.639	213.113	0.106	0.166
-359.625	214.837	0.137	0.215
-358.610	-145.459	-0.317	-0.028
-357.596	228.438	-0.105	-0.169
-356.581	-200.000	0.025	0.190
-355.566	16.465	-0.096	0.075
-354.552	-32.789	0.196	-0.108
-353.537	-179.892	-0.215	0.005
-352.523	800.000	0.026	0.095
-351.508	413.393	-0.052	-0.109
-350.493	-105.845	-0.130	0.029
-349.479	202.013	0.271	0.414
-348.464	53.167	-0.146	-0.138
-347.450	-50.671	0.088	-0.041
-346.435	-200.000	-0.025	-0.359
-345.420	54.384	-0.086	-0.082
-344.406	-57.539	-0.320	-0.139
-343.391	-33.627	-0.060	-0.033
-342.377	-176.194	0.096	-0.002
-341.362	96.992	0.083	-0.095
-340.348	-94.262	0.123	-0.033
-339.333	-200.000	0.004	0.079
-338.318	-97.313	-0.187	-0.048
-337.304	-200.000	-0.006	0.337
-336.289	-200.000	0.086	0.424
-335.275	180.150	0.195	-0.283
-334.260	-200.000	-0.005	-0.297
-333.245	26.354	-0.228	-0.188
-332.231	95.103	-0.206	-0.232
-331.216	800.000	0.149	0.414
-330.202	-106.572	0.154	-0.034
-329.187	8.905	-0.196	-0.146
-328.172	-200.000	0.006	-0.091
-327.158	-200.000	-0.042	0.358
-326.143	-181.011	-0.162	-0.003
-325.129	-193.037	-0.156	-0.001
-324.114	800.000	-0.053	-0.220
-323.099	120.850	-0.090	0.111
-322.085	800.000	0.049	0.172
-321.070	-85.135	-0.421	-0.130
-320.056	230.283	0.163	0.264
-319.041	-200.000	0.032	-0.283
-318.026	112.497	0.085	0.102
-317.012	-200.000	0.029	0.408
-315.997	-124.566	0.236	0.036
-314.983	-5.362	0.265	-0.180
-313.968	-126.895	-0.062	-0.009
-312.953	-200.000	-0.004	0.123
-311.939	800.000	0.070	0.226
-310.924	201.677	-0.017	0.027
-309.910	-87.535	0.045	-0.013
-308.895	-91.669	-0.205	0.058
-307.880	-110.283	-0.324	-0.067
-306.866	-74.937	-0.112	-0.040
-305.851	-29.559	-0.318	-0.180
-304.837	800.000	-0.042	-0.157
-303.822	-200.000	0.024	0.175
-302.807	-0.184	0.232	-0.163
-301.793	800.000	0.018	0.063
-300.778	2.267	-0.233	-0.167
-299.764	354.872	-0.269	-0.529
-298.749	-27.550	-0.181	-0.104
-297.735	-5.876	0.138	-0.093
-296.720	-200.000	0.008	-0.263
-295.705	-23.650	0.127	-0.075
-294.691	429.796	-0.072	0.153
-293.676	11.124	-0.127	0.096
-292.662	-142.628	-0.544	0.053
-291.647	82.705	-0.183	0.196
-290.632	250.419	0.094	-0.157
-289.618	800.000	0.013	0.048
-288.603	97.396	0.299	-0.339
-287.589	-149.790	0.124	-0.010
-286.574	172.149	0.088	-0.125
-285.559	110.955	-0.084	0.100
-284.545	-21.852	-0.100	-0.060
-283.530	151.416	0.185	-0.249
-282.516	-200.000	0.024	-0.225
-281.501	-79.086	-0.221	0.074
-280.486	134.504	-0.195	0.250
-279.472	24.349	0.017	-0.014
-278.457	-63.488	0.139	-0.056
-277.443	-1.012	-0.098	-0.069
-276.428	-200.000	0.040	0.211
-275.413	79.957	0.190	0.202
-274.399	-122.198	0.224	0.036
-273.384	293.798	0.078	-0.141
-272.370	800.000	0.055	0.197
-271.355	-41.155	-0.057	-0.029
-270.340	-91.428	0.224	0.063
-269.326	638.961	-0.072	0.181
-268.311	-88.311	-0.290	-0.086
-267.297	-168.909	0.089	0.003
-266.282	179.651	-0.177	-0.256
-265.267	-200.000	0.034	-0.200
-264.253	80.638	0.143	-0.153
-263.238	25.446	-0.249	-0.205
-262.224	51.226	-0.134	-0.125
-261.209	-27.604	-0.040	0.023
-260.195	8.298	-0.134	0.100
-259.180	-81.891	0.207	-0.067
-258.165	13.420	-0.116	0.089
-257.151	72.556	0.066	0.068
-256.136	-48.823	0.170	0.081
-255.122	-54.349	0.048	-0.021
-254.107	-24.935	-0.036	0.021
-253.092	298.732	-0.110	-0.200
-252.078	309.560	0.121	-0.223
-251.063	-200.000	0.030	-0.242
-250.049	-56.010	-0.284	-0.125
-249.034	800.000	-0.081	0.232
-248.019	-200.000	0.011	0.216
-247.005	690.410	-0.121	0.313
-245.990	104.186	-0.188	-0.218
-244.976	-82.494	-0.297	0.095
-243.961	381.345	-0.072	-0.146
-242.946	-31.232	0.078	-0.043
-241.932	20.585	0.393	-0.313
-240.917	-136.957	-0.008	-0.001
-239.903	73.650	-0.244	-0.253
-238.888	35.938	-0.080	0.069
-237.873	117.602	-0.303	0.368
-236.859	-3.992	-0.082	0.056
-235.844	-200.000	0.028	-0.261
-234.830	-41.518	0.095	0.048
-233.815	800.000	-0.107	-0.333
-232.800	-73.655	-0.205	-0.074
-231.786	-33.812	-0.171	0.093
-230.771	176.702	-0.085	0.122
-229.757	-103.933	0.253	0.058
-228.742	-38.237	0.434	0.227
-227.727	-200.000	0.026	0.366
-226.713	800.000	-0.057	0.208
-225.698	412.152	0.192	-0.402
-224.684	-47.514	0.062	0.030
-223.669	800.000	-0.082	-0.247
-222.655	-58.917	-0.118	-0.050
-221.640	-75.635	0.344	-0.121
-220.625	-79.229	0.114	-0.038
-219.611	-10.665	0.048	0.032
-218.596	-80.292	0.156	-0.051
-217.582	17.945	0.227	0.178
-216.567	38.271	0.315	-0.276
-215.552	-102.629	-0.203	-0.048
-214.538	-200.000	0.002	-0.129
-213.523	-200.000	-0.023	-0.258
-212.509	800.000	-0.123	0.428
-211.494	181.264	-0.034	-0.049
-210.479	-200.000	-0.033	-0.372
-209.465	-71.065	0.120	0.044
-208.450	11.267	-0.347	-0.262
-207.436	-136.784	-0.164	0.019
-206.421	-49.145	-0.161	0.076
-205.406	-95.606	0.396	-0.104
-204.392	204.684	0.133	-0.203
-203.377	-200.000	-0.122	0.543
-202.363	707.659	0.115	-0.300
-201.348	369.763	-0.189	-0.377
-200.333	800.000	-0.115	-0.401
-199.319	6.459	-0.353	0.258
-198.304	-47.799	0.214	0.102
-197.290	250.034	0.134	0.225
-196.275	48.060	-0.100	-0.092
-195.260	476.022	0.107	-0.239
-194.246	314.985	-0.055	0.103
-193.231	18.753	0.173	0.136
-192.217	-142.086	0.262	-0.026
-191.202	20.197	0.093	-0.074
-190.187	28.123	0.116	0.096
-189.173	800.000	0.080	-0.282
-188.158	800.000	0.069	-0.237
-187.144	770.417	0.073	-0.196
-186.129	249.928	0.082	0.138
-185.114	-200.000	0.042	-0.387
-184.100	-15.408	0.181	0.114
-183.085	800.000	-0.023	0.096
-182.071	16.780	-0.145	-0.113
-181.056	800.000	0.046	0.140
-180.042	3.501	0.142	-0.102
-179.027	373.242	-0.154	-0.308
-178.012	800.000	-0.048	-0.142
-176.998	416.825	-0.051	0.108
-175.983	-200.000	-0.026	0.139
-174.969	40.177	0.194	-0.172
-173.954	3.997	-0.046	-0.033
-172.939	10.778	-0.234	0.176
-171.925	-31.972	0.330	-0.182
-170.910	-200.000	-0.020	-0.232
-169.896	-81.151	-0.053	-0.017
-168.881	297.459	0.103	-0.186
-167.866	800.000	-0.057	-0.214
-166.852	-116.216	0.171	-0.031
-165.837	172.756	0.237	0.336
-164.823	497.545	-0.087	0.197
-163.808	-4.483	0.088	-0.060
-162.793	-25.624	-0.131	0.076
-161.779	128.451	-0.100	-0.126
-160.764	-200.000	0.024	0.215
-159.750	800.000	0.089	-0.251
-158.735	206.256	-0.169	-0.259
-157.720	181.072	0.116	-0.167
-156.706	-133.546	0.029	-0.004
-155.691	129.627	0.204	-0.256
-154.677	19.301	-0.140	0.111
-153.662	-200.000	0.046	0.289
-152.647	306.301	-0.061	-0.112
-151.633	110.047	0.030	-0.036
-150.618	179.011	-0.087	-0.125
-149.604	-107.826	0.494	-0.106
-148.589	-153.977	0.148	0.010
-147.574	794.150	0.051	-0.137
-146.560	-200.000	-0.021	0.124
-145.545	236.953	-0.102	-0.166
-144.531	75.244	-0.210	0.218
-143.516	177.451	0.059	-0.085
-142.502	-45.190	0.292	0.143
-141.487	-155.925	0.100	0.006
-140.472	551.490	-0.214	0.506
-139.458	-185.635	0.172	0.003
-138.443	113.963	-0.146	0.174
-137.429	-200.000	-0.060	0.340
-136.414	224.129	-0.134	0.213
-135.399	-200.000	0.010	0.215
-134.385	-200.000	-0.029	0.365
-133.370	141.624	-0.219	-0.285
-132.356	110.015	0.157	0.185
-131.341	-81.336	-0.360	-0.117
-130.326	-104.506	0.231	0.052
-129.312	281.957	0.190	0.335
-128.297	-63.695	0.102	0.041
-127.283	787.267	0.068	0.182
-126.268	13.721	0.162	0.124
-125.253	-57.748	-0.169	-0.073
-124.239	-200.000	0.010	-0.183
-123.224	-49.155	0.113	-0.053
-122.210	-9.822	-0.289	0.189
-121.195	43.641	-0.127	0.114
-120.180	777.873	-0.082	0.221
-119.166	-200.000	0.019	0.290
-118.151	195.837	0.124	0.186
-117.137	-121.619	0.261	-0.043
-116.122	800.000	-0.061	-0.235
-115.107	134.084	0.155	-0.198
-114.093	-122.599	0.229	-0.037
-113.078	47.796	0.127	-0.116
-112.064	245.812	0.136	-0.224
-111.049	117.274	0.161	-0.195
-110.034	403.093	0.088	0.182
-109.020	25.700	0.120	-0.098
-108.005	-149.138	0.155	-0.012
-106.991	88.603	0.011	-0.012
-105.976	-88.234	-0.215	0.063
-104.962	55.605	0.079	-0.075
-103.947	-88.406	0.302	0.089
-102.932	-15.492	-0.297	0.186
-101.918	-25.223	0.347	-0.202
-100.903	-200.000	0.027	0.251
-99.889	59.596	-0.180	0.174
-98.874	-41.865	0.011	0.005
-97.859	-200.000	0.006	-0.179
-96.845	-102.380	-0.278	0.065
-95.830	-200.000	0.019	0.157
-94.816	-200.000	-0.017	0.134
-93.801	-7.911	0.150	-0.099
-92.786	-8.488	-0.233	0.154
-91.772	40.959	-0.081	0.071
-90.757	107.802	0.126	0.148
-89.743	-177.988	0.506	0.012
-88.728	-32.137	0.081	-0.044
-87.713	-108.704	-0.187	-0.039
-86.699	-101.117	0.196	-0.047
-85.684	742.029	0.056	-0.147
-84.670	800.000	0.054	0.199
-83.655	388.767	-0.044	0.089
-82.640	76.987	-0.114	-0.119
-81.626	800.000	-0.035	0.144
-80.611	800.000	0.041	0.142
-79.597	-200.000	0.037	0.241
-78.582	-200.000	-0.046	-0.214
-77.567	-178.520	0.135	0.003
-76.553	800.000	0.038	0.116
-75.538	-129.230	0.127	0.017
-74.524	-118.926	-0.077	-0.013
-73.509	-38.110	-0.062	-0.032
-72.494	-200.000	-0.010	0.105
-71.480	-133.060	0.189	-0.023
-70.465	-200.000	0.066	0.291
-69.451	-191.225	-0.108	-0.001
-68.436	800.000	-0.058	0.236
-67.422	-170.623	-0.228	-0.008
-66.407	572.984	0.055	0.131
-65.392	418.102	0.149	0.311
-64.378	357.461	-0.167	-0.327
-63.363	75.505	0.085	0.087
-62.349	-100.073	-0.170	-0.042
-61.334	67.309	-0.965	-0.964
-60.319	800.000	0.164	0.570
-59.305	800.000	-0.286	-1.079
-58.290	443.121	0.384	0.824
-57.276	800.000	0.449	1.318
-56.261	-200.000	106.296	614.818
-55.246	505.826	1511.804	3431.509
-54.232	176.320	2702.331	3845.010
-53.217	109.970	2184.801	2567.549
-52.203	40.028	1704.558	1499.952
-51.188	32.370	1516.386	1282.362
-50.173	30.215	1488.953	1244.670
-49.159	51.199	1545.132	1435.756
-48.144	51.324	1561.947	1452.173
-47.130	32.625	1517.648	1284.965
-46.115	29.738	1502.738	1252.759
-45.100	29.394	1499.750	1247.896
-44.086	29.450	1496.822	1245.787
-43.071	29.268	1495.602	1243.494
-42.057	29.339	1493.228	1241.951
-41.042	29.296	1492.232	1240.780
-40.027	29.330	1490.632	1239.630
-39.013	29.354	1488.982	1238.369
-37.998	29.375	1487.334	1237.088
-36.984	29.302	1486.672	1236.003
-35.969	29.288	1485.320	1234.734
-34.954	29.202	1483.990	1233.006
-33.940	29.313	1482.214	1232.225
-32.925	29.319	1481.104	1231.288
-31.911	29.333	1480.032	1230.444
-30.896	29.345	1478.788	1229.440
-29.881	29.433	1477.289	1228.732
-28.867	29.474	1475.759	1227.686
-27.852	29.311	1475.023	1225.938
-26.838	29.348	1473.124	1224.559
-25.823	29.364	1471.784	1223.500
-24.809	29.418	1469.882	1222.227
-23.794	29.271	1468.790	1220.302
-22.779	29.407	1467.608	1220.168
-21.765	29.334	1466.942	1219.083
-20.750	29.440	1465.316	1218.382
-19.736	29.340	1464.372	1216.889
-18.721	29.255	1463.598	1215.641
-17.706	29.287	1462.250	1214.679
-16.692	29.325	1460.933	1213.793
-15.677	29.349	1459.879	1213.027
-14.663	29.302	1459.093	1212.012
-13.648	29.283	1457.896	1210.848
-12.633	29.223	1457.557	1210.120
-11.619	29.325	1456.198	1209.614
-10.604	29.163	1455.562	1207.978
-9.590	29.246	1454.666	1207.733
-8.575	29.343	1453.524	1207.366
-7.560	29.218	1453.097	1206.146
-6.546	29.281	1452.199	1205.765
-5.531	29.277	1451.368	1205.003
-4.517	29.266	1450.681	1204.314
-3.502	29.302	1449.217	1203.281
-2.487	29.204	1448.405	1201.920
-1.473	29.240	1447.382	1201.263
-0.458	29.263	1446.028	1200.240
0.556	27.038	1436.285	1189.813
1.571	24.235	1411.398	1151.015
2.586	21.221	1352.064	1083.857
3.600	19.858	1271.295	1011.059
4.615	18.729	1226.888	969.287
5.629	16.243	1172.709	912.971
6.644	8.020	1088.727	806.062
7.659	1.098	1047.457	741.655
8.673	-0.159	1042.638	732.050
9.688	-0.411	1039.005	728.211
10.702	-0.332	1037.236	727.291
11.717	-0.317	1035.370	725.992
12.731	3.043	1038.911	744.706
13.746	11.857	1051.607	796.804
14.761	18.557	1060.166	835.990
15.775	20.447	1061.936	846.532
16.790	20.642	1061.511	847.069
17.804	20.356	1060.861	845.080
18.819	20.242	1059.753	843.571
19.834	20.264	1059.634	843.506
20.848	20.436	1059.230	843.946
21.863	20.540	1058.663	843.924
22.877	20.471	1058.047	843.026
23.892	20.347	1057.759	842.118
24.907	20.379	1056.726	841.378
25.921	20.400	1055.635	840.535
26.936	20.446	1055.113	840.271
27.950	20.362	1054.088	838.970
28.965	20.374	1052.922	838.028
29.980	20.387	1050.980	836.468
30.994	20.274	1049.535	834.705
32.009	20.486	1048.932	835.167
33.023	20.584	1048.092	834.899
34.038	20.341	1046.479	832.372
35.053	20.192	1046.043	831.239
36.067	20.490	1045.376	832.064
37.082	20.504	1044.792	831.591
38.096	20.491	1044.003	830.828
39.111	20.597	1043.273	830.681
40.126	20.690	1042.278	830.254
41.140	20.611	1041.022	828.807
42.155	20.418	1039.720	826.778
43.169	20.124	1038.357	824.223
44.184	20.115	1036.706	822.797
45.199	20.246	1035.591	822.460
46.213	20.175	1034.590	821.256
47.228	20.127	1033.811	820.337
48.242	20.203	1032.725	819.761
49.257	20.338	1031.914	819.685
50.271	20.360	1031.504	819.388
51.286	20.420	1030.992	819.191
52.301	20.578	1029.761	818.886
53.315	20.484	1029.804	818.404
54.330	20.477	1028.219	817.044
55.344	20.333	1027.836	815.987
56.359	20.426	1026.787	815.518
57.374	20.485	1025.871	814.995
58.388	20.260	1024.812	813.030
59.403	20.310	1023.456	812.115
60.417	20.293	1023.005	811.605
61.432	20.006	1022.396	809.711
62.447	20.142	1021.483	809.551
63.461	20.168	1021.450	809.573
64.476	20.241	1020.436	809.038
65.490	20.390	1019.131	808.629
66.505	20.328	1018.450	807.726
67.520	20.385	1017.099	806.848
68.534	20.358	1016.771	806.391
69.549	20.299	1015.596	805.116
70.563	19.889	1014.284	802.105
71.578	19.790	1013.529	800.975
72.593	19.808	1012.707	800.338
73.607	19.724	1011.122	798.628
74.622	19.767	1010.647	798.379
75.636	20.118	1009.551	799.061
76.651	20.188	1009.095	798.952
77.666	20.115	1008.173	797.819
78.680	19.961	1006.990	796.102
79.695	19.920	1007.086	795.920
80.709	20.059	1006.191	795.781
81.724	20.193	1005.072	795.439
82.739	20.076	1004.357	794.266
83.753	20.193	1003.465	794.028
84.768	20.388	1002.797	794.322
85.782	20.637	1002.215	794.928
86.797	20.799	1001.631	795.132
87.812	20.714	1000.629	793.880
88.826	20.535	999.741	792.291
89.841	20.594	998.620	791.601
90.855	20.575	997.876	790.852
91.870	20.628	996.776	790.152
92.884	20.528	996.311	789.258
93.899	20.482	995.333	788.208
94.914	20.464	994.518	787.407
95.928	20.610	993.481	787.180
96.943	20.527	993.253	786.556
97.957	20.386	991.929	784.800
98.972	20.174	990.329	782.508
99.987	19.937	989.478	780.697
101.001	20.086	988.320	780.384
102.016	20.334	988.241	781.367
103.030	20.488	987.069	781.065
104.045	20.320	986.129	779.499
105.060	20.321	984.682	778.290
106.074	20.071	983.434	776.114
107.089	19.966	982.981	775.218
108.103	20.445	982.568	776.967
109.118	20.627	981.265	776.683
110.133	20.308	980.358	774.471
111.147	20.201	979.724	773.425
112.162	20.040	978.622	771.771
113.176	19.951	977.306	770.266
114.191	20.032	976.592	769.995
115.206	20.044	975.735	769.305
116.220	19.945	974.431	767.771
117.235	19.753	973.508	766.126
118.249	19.727	973.392	765.851
119.264	19.983	971.629	765.529
120.279	19.878	970.903	764.425
121.293	19.842	969.916	763.421
122.308	19.978	969.182	763.376
123.322	19.974	968.381	762.661
124.337	19.968	966.991	761.471
125.352	19.825	966.005	759.999
126.366	19.440	964.266	756.876
127.381	19.233	962.707	754.676
128.395	19.614	963.131	756.610
129.410	20.303	962.600	759.145
130.424	20.499	961.418	759.001
131.439	20.417	960.282	757.680
132.454	20.388	959.131	756.578
133.468	20.398	958.318	755.913
134.483	20.240	957.718	754.685
135.497	20.287	957.137	754.365
136.512	20.331	956.380	753.892
137.527	20.533	955.719	754.180
138.541	20.575	954.863	753.620
139.556	20.676	953.238	752.711
140.570	20.452	953.036	751.515
141.585	20.533	952.204	751.142
142.600	20.662	951.391	750.989
143.614	20.588	950.082	749.574
144.629	20.522	949.827	749.018
145.643	20.899	949.021	749.942
146.658	20.744	947.886	748.310
147.673	20.659	946.292	746.621
148.687	20.558	945.347	745.379
149.702	20.350	944.617	743.843
150.716	20.396	943.818	743.344
151.731	20.419	942.683	742.484
152.746	20.443	941.968	741.960
153.760	20.461	941.706	741.765
154.775	20.767	940.427	741.993
155.789	20.720	939.668	741.131
156.804	20.846	938.587	740.746
157.819	20.646	937.905	739.295
158.833	20.623	937.176	738.556
159.848	20.706	936.715	738.481
160.862	20.956	935.464	738.489
161.877	20.697	934.885	736.868
162.892	20.707	933.855	736.035
163.906	20.940	932.958	736.248
164.921	20.837	931.999	734.992
165.935	20.772	930.754	733.668
166.950	20.798	929.893	733.034
167.964	20.767	929.244	732.327
168.979	20.597	928.030	730.594
169.994	20.687	926.757	729.902
171.008	20.659	925.631	728.834
172.023	20.686	925.031	728.410
173.037	20.802	924.502	728.415
174.052	20.584	923.362	726.541
175.067	20.452	922.306	725.095
176.081	20.500	921.632	724.703
177.096	20.563	920.341	723.885
178.110	20.632	920.194	723.993
179.125	20.365	918.833	721.748
180.140	20.087	917.892	719.792
181.154	20.204	916.975	719.493
182.169	20.341	916.948	719.975
183.183	20.497	916.225	719.993
184.198	20.906	915.673	721.187
185.213	20.640	915.005	719.497
186.227	20.446	914.816	718.482
187.242	20.692	914.244	718.987
188.256	20.821	912.996	718.473
189.271	20.732	912.157	717.383
190.286	20.861	911.873	717.625
191.300	20.738	910.576	716.037
192.315	20.190	909.606	712.956
193.329	19.656	907.837	709.317
194.344	19.217	906.884	706.710
195.359	19.678	907.518	709.033
196.373	20.466	907.389	712.098
197.388	20.627	907.308	712.632
198.402	20.764	906.055	712.146
199.417	20.436	906.241	710.887
200.432	20.598	905.421	710.843
201.446	20.479	904.581	709.633
202.461	20.123	903.650	707.391
203.475	20.273	903.255	707.631
204.490	19.777	901.659	704.297
205.504	18.762	899.746	698.611
206.519	19.216	899.442	700.162
207.534	20.147	899.522	703.944
208.548	20.149	899.692	704.024
209.563	20.664	899.441	705.855
210.577	20.598	898.449	704.746
211.592	20.396	897.449	703.082
212.607	20.707	897.276	704.141
213.621	20.763	897.021	704.107
214.636	20.696	896.277	703.191
215.650	20.920	895.801	703.657
216.665	20.672	895.207	702.130
217.680	20.925	894.366	702.425
218.694	20.986	894.095	702.396
219.709	20.581	892.774	699.668
220.723	20.243	891.866	697.536
221.738	20.422	891.736	698.092
222.753	20.750	890.850	698.652
223.767	20.638	890.160	697.602
224.782	20.694	889.357	697.133
225.796	20.684	889.014	696.762
226.811	20.852	888.588	697.041
227.826	20.562	887.031	694.601
228.840	19.880	885.362	690.511
229.855	19.708	885.042	689.512
230.869	19.947	884.586	690.050
231.884	19.587	883.781	687.929
232.899	19.691	883.334	687.931
233.913	20.441	883.458	690.951
234.928	20.572	882.888	690.965
235.942	20.464	882.409	690.101
236.957	20.641	881.407	689.959
237.972	20.396	880.596	688.291
238.986	20.383	879.680	687.463
240.001	20.463	878.886	687.098
241.015	20.236	878.464	685.811
242.030	20.471	877.881	686.222
243.045	20.628	877.531	686.507
244.059	20.578	877.271	686.047
245.074	20.837	876.452	686.368
246.088	20.715	875.661	685.205
247.103	20.365	874.364	682.754
248.117	20.507	873.556	682.619
249.132	20.936	874.295	684.823
250.147	21.193	873.541	685.181
251.161	21.274	873.340	685.279
252.176	21.479	872.553	685.407
253.190	21.377	871.488	684.109
254.205	21.537	871.227	684.470
255.220	21.675	870.602	684.457
256.234	21.624	870.465	684.089
257.249	21.682	869.044	683.139
258.263	21.261	868.990	681.395
259.278	21.240	868.370	680.766
260.293	21.492	867.311	680.855
261.307	21.535	866.975	680.701
262.322	21.426	866.541	679.876
263.336	21.203	865.874	678.425
264.351	20.887	863.809	675.523
265.366	19.746	862.166	669.759
266.380	19.335	861.476	667.575
267.395	20.215	862.148	671.445
268.409	20.981	862.253	674.430
269.424	21.104	861.475	674.237
270.439	21.121	860.954	673.834
271.453	21.331	859.852	673.725
272.468	21.195	859.632	672.968
273.482	21.451	858.937	673.348
274.497	21.570	858.561	673.452
275.512	21.313	857.707	671.733
276.526	20.874	855.909	668.583
277.541	20.951	856.087	668.959
278.555	21.411	855.685	670.351
279.570	21.134	854.952	668.655
280.585	20.931	854.361	667.356
281.599	21.028	853.963	667.358
282.614	21.191	853.451	667.524
283.628	20.737	852.044	664.629
284.643	20.429	851.239	662.769
285.657	20.712	851.714	664.160
286.672	20.608	850.899	663.066
287.687	20.290	849.539	660.739
288.701	20.597	849.898	662.127
289.716	21.094	848.979	663.245
290.730	20.555	848.240	660.561
291.745	20.473	847.541	659.647
292.760	20.375	846.562	658.454
293.774	20.263	846.126	657.630
294.789	21.229	846.707	661.689
295.803	21.757	846.590	663.537
296.818	21.880	845.904	663.407
297.833	22.027	845.340	663.461
298.847	21.653	844.383	661.241
299.862	21.333	843.198	659.046
300.876	21.469	843.259	659.547
301.891	21.886	842.335	660.337
302.906	21.851	841.581	659.555
303.920	21.420	840.950	657.382
304.935	21.272	839.850	655.910
305.949	21.449	840.264	656.840
306.964	21.829	839.633	657.713
307.979	21.617	838.907	656.294
308.993	21.595	838.265	655.651
310.008	21.933	837.994	656.645
311.022	22.049	837.592	656.707
312.037	21.800	836.907	655.178
313.052	21.670	836.146	654.042
314.066	21.563	835.838	653.344
315.081	20.862	834.418	649.562
316.095	20.219	832.858	645.895
317.110	20.743	833.114	647.991
318.125	21.526	833.210	650.922
319.139	21.097	832.233	648.506
320.154	20.022	830.832	643.364
321.168	19.753	829.660	641.403
322.183	20.260	829.924	643.433
323.197	21.151	830.080	646.798
324.212	21.377	830.019	647.532
325.227	21.535	829.779	647.871
326.241	21.779	828.819	647.966
327.256	21.607	828.117	646.727
328.270	21.443	828.165	646.099
329.285	21.403	827.498	645.375
330.300	21.265	826.239	643.826
331.314	20.922	825.848	642.203
332.329	21.146	824.883	642.218
333.343	21.519	824.723	643.408
334.358	21.727	824.512	643.953
335.373	21.710	823.812	643.286
336.387	21.748	823.525	643.146
337.402	21.991	823.258	643.769
338.416	22.088	822.918	643.804
339.431	22.007	822.020	642.745
340.446	21.966	821.534	642.160
341.460	22.360	820.813	642.979
342.475	22.339	819.923	642.150
343.489	22.074	819.614	640.882
344.504	22.028	819.341	640.447
345.519	22.283	818.833	640.922
346.533	22.425	818.434	641.069
347.548	22.464	818.091	640.887
348.562	22.484	817.818	640.689
349.577	22.658	817.203	640.783
350.592	22.520	816.393	639.590
351.606	22.472	815.993	639.045
352.621	22.404	815.509	638.362
353.635	22.328	814.899	637.552
354.650	22.328	814.184	636.937
355.665	22.086	813.128	635.178
356.679	21.075	811.687	630.348
357.694	20.813	811.013	628.822
358.708	21.562	810.984	631.447
359.723	21.312	811.004	630.505
360.738	21.705	810.524	631.491
361.752	22.074	810.480	632.732
362.767	22.267	809.924	632.936
363.781	22.555	809.626	633.684
364.796	22.635	809.310	633.667
365.810	22.651	809.142	633.539
366.825	22.853	808.575	633.761
367.840	22.669	808.560	633.034
368.854	22.658	807.627	632.209
369.869	22.257	806.777	630.052
370.883	22.043	806.177	628.761
371.898	22.248	805.738	629.094
372.913	22.074	804.861	627.732
373.927	22.135	804.088	627.294
374.942	22.152	803.896	627.147
375.956	22.338	803.248	627.249
376.971	22.553	802.598	627.453
377.986	22.621	802.275	627.387
379.000	22.713	802.014	627.455
380.015	22.746	801.169	626.856
381.029	22.648	800.412	625.860
382.044	22.620	799.895	625.299
383.059	22.798	799.625	625.666
384.073	22.832	799.444	625.590
385.088	22.912	798.619	625.172
386.102	22.847	798.198	624.557
387.117	22.527	797.792	623.053
388.132	22.586	796.750	622.393
389.146	22.420	796.286	621.389
390.161	21.827	795.224	618.415
391.175	21.784	795.435	618.369
392.190	22.345	795.091	620.027
393.205	22.544	794.615	620.299
394.219	21.564	792.648	615.268
395.234	19.923	790.639	607.894
396.248	19.231	789.610	604.621
397.263	20.348	790.529	609.194
398.278	22.157	791.831	616.497
399.292	22.697	791.410	618.007
400.307	22.295	790.540	615.866
401.321	22.186	790.580	615.462
402.336	22.345	789.888	615.424
403.350	22.532	790.270	616.321
404.365	22.965	789.775	617.393
405.380	23.223	789.583	618.089
406.394	23.377	789.482	618.494
407.409	23.411	789.088	618.249
408.423	23.420	788.529	617.786
409.438	23.371	788.075	617.206
410.453	23.492	787.284	616.955
411.467	23.506	787.210	616.891
412.482	23.458	786.627	616.212
413.496	23.523	785.819	615.751
414.511	23.460	785.885	615.530
415.526	23.511	785.083	615.021
416.540	23.516	784.824	614.783
417.555	23.506	784.096	614.122
418.569	23.217	783.482	612.587
419.584	23.126	782.970	611.819
420.599	23.121	782.677	611.518
421.613	157.745	1364.397	1798.818
422.628	136.367	1449.126	1798.898
