DTS Sentinel unit serial number:	SN413079Multiplexer serial number:	ORYXHardware model number:	OX4-SRSoftware version number:	ORYX F/W v4.00 Oryx Data Collector v3.7.2.0data status	okinstallation	princeton_trtdifferential loss correction	single-endedforward channel	channel 3reverse channel	N/Adate	2019/09/10time	20:58:10forward acquisition time	60.00reverse acquisition time	0.00gamma	496.2192k internal	0.2328k external	0.2328temperature offset calibration	0.9921default loss term (dB/km)	0.3790temperature slope calibration	1.0000multiplexer offset coefficient	1.0000multiplexer slope coefficient	1.0000fibre end	0.00T internal ref (°C)	31.64T ext. ref 1 (°C)	-0.31T ext. ref 2 (°C)	24.97length (m)	temperature (°C)	Stokes	anti-Stokes-747.200	800.000	-0.054	0.156
-746.185	-200.000	0.003	0.201
-745.171	207.207	0.198	-0.312
-744.156	-200.000	-0.008	-0.226
-743.142	-69.764	-0.134	0.051
-742.127	183.036	0.091	-0.135
-741.112	92.732	0.128	0.145
-740.098	-200.000	0.041	0.275
-739.083	-188.577	-0.262	0.003
-738.069	180.781	-0.137	0.203
-737.054	29.834	0.168	0.144
-736.039	543.206	-0.209	-0.502
-735.025	-96.076	0.382	0.102
-734.010	-148.069	-0.288	-0.024
-732.996	80.519	-0.138	-0.150
-731.981	116.352	0.236	-0.291
-730.966	-33.768	-0.370	-0.206
-729.952	-143.861	0.123	0.012
-728.937	144.468	-0.168	0.226
-727.923	800.000	-0.060	-0.227
-726.908	-200.000	0.003	0.045
-725.894	-22.077	-0.416	-0.254
-724.879	-130.122	-0.046	0.006
-723.864	-174.265	0.183	0.005
-722.850	40.019	-0.255	-0.231
-721.835	800.000	0.062	-0.225
-720.821	-34.378	0.040	-0.022
-719.806	-46.046	0.303	-0.150
-718.791	-112.760	-0.231	0.046
-717.777	-200.000	-0.026	0.296
-716.762	-47.178	-0.110	-0.054
-715.748	566.084	0.108	0.263
-714.733	-3.217	0.249	-0.175
-713.718	-200.000	-0.019	0.205
-712.704	0.459	-0.115	0.083
-711.689	-103.905	-0.198	-0.047
-710.675	-146.269	0.406	-0.036
-709.660	73.189	0.095	-0.100
-708.645	-41.986	0.232	-0.120
-707.631	76.184	0.140	0.149
-706.616	-97.526	-0.301	0.079
-705.602	58.805	-0.281	-0.278
-704.587	23.667	0.203	0.168
-703.572	624.978	0.059	0.150
-702.558	31.819	-0.095	-0.082
-701.543	142.025	0.060	0.080
-700.529	73.360	-0.293	0.309
-699.514	157.024	0.249	0.346
-698.499	-107.808	-0.252	-0.055
-697.485	224.669	-0.169	0.275
-696.470	800.000	-0.046	0.136
-695.456	-124.035	-0.150	-0.024
-694.441	404.568	-0.045	-0.094
-693.426	407.658	0.121	-0.258
-692.412	74.660	-0.151	-0.160
-691.397	-51.453	0.183	0.086
-690.383	81.305	-0.119	-0.129
-689.368	-133.568	-0.100	-0.013
-688.354	166.075	-0.200	-0.285
-687.339	800.000	0.084	-0.256
-686.324	-10.826	-0.209	0.139
-685.310	-129.026	-0.211	-0.030
-684.295	-173.103	-0.307	-0.009
-683.281	-60.596	-0.233	0.099
-682.266	30.332	0.083	0.072
-681.251	-119.987	-0.206	0.036
-680.237	-54.955	0.316	-0.143
-679.222	128.707	-0.074	0.095
-678.208	800.000	-0.141	-0.528
-677.193	336.168	0.041	-0.079
-676.178	71.599	-0.277	0.289
-675.164	194.816	-0.075	0.114
-674.149	-89.229	0.545	0.162
-673.135	-200.000	-0.007	0.139
-672.120	1.966	-0.131	0.095
-671.105	70.891	-0.204	0.212
-670.091	302.916	-0.126	-0.234
-669.076	-83.258	0.249	0.080
-668.062	-107.286	0.200	0.044
-667.047	-60.001	0.298	-0.128
-666.032	675.463	0.100	0.261
-665.018	-119.993	-0.159	-0.027
-664.003	-37.130	-0.112	-0.060
-662.989	-53.567	-0.060	-0.028
-661.974	152.072	-0.024	0.033
-660.959	21.219	-0.307	-0.250
-659.945	339.195	-0.209	0.409
-658.930	-200.000	-0.044	-0.192
-657.916	-68.955	-0.143	0.055
-656.901	-200.000	0.022	0.097
-655.886	-14.617	-0.279	0.180
-654.872	800.000	0.144	-0.446
-653.857	800.000	0.104	-0.376
-652.843	-55.264	0.218	0.098
-651.828	800.000	0.022	-0.093
-650.814	-66.241	-0.140	0.056
-649.799	169.934	-0.099	0.141
-648.784	-165.759	-0.205	-0.009
-647.770	800.000	0.059	-0.228
-646.755	-200.000	0.007	-0.250
-645.741	326.812	-0.136	0.262
-644.726	36.898	-0.168	0.149
-643.711	-96.813	0.267	-0.070
-642.697	-200.000	0.050	-0.231
-641.682	256.211	0.235	-0.405
-640.668	63.691	-0.113	-0.114
-639.653	-97.246	-0.401	0.105
-638.638	-79.729	-0.198	0.067
-637.624	-147.583	0.056	0.005
-636.609	214.521	-0.088	-0.140
-635.595	800.000	-0.098	0.288
-634.580	-147.583	-0.149	0.013
-633.565	31.173	-0.273	0.235
-632.551	-148.387	-0.299	-0.025
-631.536	735.285	0.025	-0.067
-630.522	100.537	0.133	-0.155
-629.507	-30.537	-0.302	-0.172
-628.492	32.227	-0.168	-0.145
-627.478	-200.000	0.024	0.162
-626.463	-60.968	0.236	-0.100
-625.449	800.000	-0.033	-0.143
-624.434	460.100	0.164	0.366
-623.419	-145.463	0.378	0.034
-622.405	-123.308	-0.161	-0.026
-621.390	777.831	-0.020	-0.056
-620.376	-200.000	-0.015	-0.105
-619.361	-76.038	-0.163	0.058
-618.346	-84.938	-0.238	-0.075
-617.332	29.148	-0.030	-0.026
-616.317	-42.075	0.078	0.040
-615.303	-200.000	-0.019	0.134
-614.288	-37.585	-0.181	0.097
-613.273	72.662	0.245	0.257
-612.259	-115.688	0.273	-0.051
-611.244	1.056	-0.269	0.194
-610.230	-18.358	-0.071	0.044
-609.215	-44.083	-0.435	-0.219
-608.201	104.717	-0.021	-0.024
-607.186	8.548	0.196	-0.148
-606.171	-38.820	0.202	-0.107
-605.157	-151.271	0.336	-0.025
-604.142	697.952	-0.047	0.125
-603.128	-182.225	-0.174	-0.003
-602.113	-140.682	0.152	0.016
-601.098	-200.000	-0.050	0.270
-600.084	-22.467	0.078	0.047
-599.069	372.354	-0.091	-0.185
-598.055	718.733	0.118	-0.313
-597.040	263.892	0.193	-0.336
-596.025	318.336	-0.221	0.419
-595.011	-30.110	-0.220	-0.125
-593.996	800.000	-0.089	0.320
-592.982	20.558	0.205	0.166
-591.967	-70.398	-0.126	0.048
-590.952	133.870	0.063	-0.082
-589.938	-83.856	-0.351	0.112
-588.923	-128.514	0.339	0.048
-587.909	-44.575	-0.127	0.064
-586.894	800.000	0.160	-0.467
-585.879	-200.000	0.000	-0.081
-584.865	-11.905	-0.240	0.157
-583.850	-53.288	-0.078	-0.036
-582.836	369.838	-0.094	0.191
-581.821	800.000	0.114	0.342
-580.806	124.651	0.107	-0.134
-579.792	191.784	0.068	-0.102
-578.777	-92.302	0.137	0.039
-577.763	-200.000	0.024	-0.127
-576.748	-8.553	-0.040	-0.027
-575.733	-34.294	-0.402	0.221
-574.719	39.011	0.191	0.171
-573.704	125.715	0.196	-0.248
-572.690	568.473	-0.081	-0.198
-571.675	-200.000	0.043	-0.230
-570.661	134.671	-0.168	0.218
-569.646	146.392	0.221	-0.298
-568.631	1.139	0.179	0.128
-567.617	-140.065	-0.083	-0.009
-566.602	800.000	0.130	-0.424
-565.588	251.253	0.076	-0.129
-564.573	122.378	-0.093	0.117
-563.558	134.505	0.171	-0.223
-562.544	-70.133	-0.387	-0.147
-561.529	102.269	-0.126	-0.148
-560.515	-33.809	-0.270	0.149
-559.500	421.179	-0.109	0.235
-558.485	-57.923	-0.146	-0.064
-557.471	44.924	-0.058	0.053
-556.456	-200.000	-0.012	0.171
-555.442	179.735	0.146	0.213
-554.427	-67.261	-0.364	0.143
-553.412	-64.167	0.081	0.033
-552.398	-52.213	-0.172	-0.080
-551.383	-0.415	-0.040	0.028
-550.369	-124.103	-0.243	-0.038
-549.354	523.330	0.096	0.226
-548.339	-200.000	-0.001	0.199
-547.325	-6.180	0.062	-0.042
-546.310	-85.397	-0.491	-0.153
-545.296	461.659	-0.088	0.196
-544.281	-54.999	0.295	-0.133
-543.266	-14.531	0.062	-0.040
-542.252	-130.739	-0.273	0.037
-541.237	155.871	-0.060	0.083
-540.223	-113.060	0.164	0.032
-539.208	269.438	-0.043	0.076
-538.193	-200.000	0.007	-0.243
-537.179	-15.095	-0.039	0.025
-536.164	316.818	-0.108	0.204
-535.150	228.712	0.073	0.120
-534.135	17.084	-0.218	-0.172
-533.121	-87.553	-0.278	0.084
-532.106	29.939	-0.281	0.239
-531.091	-167.932	-0.318	-0.012
-530.077	-139.214	-0.143	-0.015
-529.062	-115.052	-0.261	0.050
-528.048	-70.294	0.051	-0.019
-527.033	181.699	0.246	0.362
-526.018	800.000	-0.092	0.263
-525.004	-127.365	-0.306	0.044
-523.989	-200.000	0.020	0.215
-522.975	-200.000	-0.000	-0.087
-521.960	-113.439	0.581	0.114
-520.945	209.698	-0.064	0.101
-519.931	-95.345	0.157	-0.042
-518.916	-120.996	-0.302	0.051
-517.902	134.526	-0.049	-0.064
-516.887	800.000	0.097	0.361
-515.872	800.000	0.054	-0.192
-514.858	800.000	0.041	-0.171
-513.843	420.614	0.062	-0.133
-512.829	-200.000	-0.006	0.146
-511.814	-200.000	0.028	-0.170
-510.799	-200.000	0.052	-0.275
-509.785	-200.000	-0.002	0.085
-508.770	-85.135	0.333	-0.104
-507.756	800.000	0.024	-0.090
-506.741	-200.000	-0.061	-0.338
-505.726	800.000	0.063	-0.264
-504.712	85.485	-0.161	-0.177
-503.697	-200.000	-0.039	0.433
-502.683	0.116	-0.276	0.196
-501.668	-27.032	0.331	-0.193
-500.653	-150.052	-0.491	-0.038
-499.639	-27.986	0.076	-0.044
-498.624	-200.000	0.031	-0.186
-497.610	-63.179	-0.126	-0.052
-496.595	-69.026	-0.200	0.077
-495.581	-69.174	0.171	-0.066
-494.566	-40.820	0.110	0.057
-493.551	-200.000	-0.036	-0.169
-492.537	537.864	-0.102	0.243
-491.522	-200.000	-0.010	-0.074
-490.508	159.460	-0.221	0.307
-489.493	-77.215	-0.359	-0.125
-488.478	-83.181	0.032	0.010
-487.464	49.245	0.255	-0.239
-486.449	64.982	0.150	-0.151
-485.435	94.882	-0.158	-0.180
-484.420	-200.000	0.055	-0.392
-483.405	60.482	0.141	-0.140
-482.391	-126.592	0.323	0.048
-481.376	260.200	0.099	-0.171
-480.362	586.222	-0.083	-0.204
-479.347	800.000	0.128	0.363
-478.332	-200.000	0.000	-0.112
-477.318	51.722	-0.314	-0.298
-476.303	-152.451	-0.184	0.013
-475.289	83.246	-0.077	0.084
-474.274	-73.100	-0.176	0.064
-473.259	429.403	-0.036	-0.078
-472.245	-99.120	-0.142	0.036
-471.230	-11.354	-0.174	0.114
-470.216	244.119	-0.179	-0.300
-469.201	11.143	-0.056	-0.043
-468.186	-29.125	-0.106	0.060
-467.172	436.804	0.084	-0.182
-466.157	-26.813	0.116	0.068
-465.143	-25.723	0.283	0.166
-464.128	-93.014	-0.160	0.044
-463.113	-72.244	-0.159	-0.059
-462.099	329.626	0.049	0.094
-461.084	800.000	0.083	-0.239
-460.070	-61.359	0.362	-0.152
-459.055	283.938	-0.129	0.231
-458.040	-90.630	0.495	0.143
-457.026	-169.469	0.293	-0.011
-456.011	-37.701	0.142	0.075
-454.997	-48.230	-0.196	-0.094
-453.982	-12.099	0.148	0.097
-452.968	800.000	-0.050	-0.150
-451.953	-144.767	-0.319	0.029
-450.938	241.738	0.050	0.083
-449.924	-200.000	0.003	0.116
-448.909	-155.112	-0.038	-0.003
-447.895	77.153	0.171	-0.181
-446.880	-174.672	-0.094	-0.003
-445.865	-200.000	-0.003	0.196
-444.851	-129.460	-0.085	-0.012
-443.836	800.000	0.150	0.411
-442.822	-107.656	-0.323	-0.070
-441.807	158.237	0.349	0.482
-440.792	16.142	0.225	-0.176
-439.778	11.972	0.136	-0.104
-438.763	-150.246	0.258	0.020
-437.749	269.695	-0.138	-0.241
-436.734	-52.770	0.119	-0.055
-435.719	7.470	-0.076	0.057
-434.705	-128.639	0.346	-0.049
-433.690	139.606	-0.215	-0.282
-432.676	-143.052	0.103	-0.010
-431.661	800.000	0.023	-0.100
-430.646	-125.986	-0.031	-0.005
-429.632	-200.000	-0.047	0.219
-428.617	-27.158	0.437	-0.254
-427.603	550.393	-0.204	-0.486
-426.588	170.796	-0.303	0.433
-425.573	220.952	0.110	0.175
-424.559	-200.000	0.012	0.351
-423.544	65.029	0.185	-0.186
-422.530	185.951	0.050	-0.074
-421.515	-56.767	0.065	0.028
-420.500	800.000	0.069	-0.199
-419.486	-61.662	0.357	0.149
-418.471	-59.477	0.019	0.008
-417.457	25.869	0.281	0.233
-416.442	-26.023	-0.128	0.075
-415.428	800.000	-0.053	0.192
-414.413	-54.066	-0.191	-0.086
-413.398	56.901	-0.261	0.253
-412.384	-76.253	-0.358	0.126
-411.369	-200.000	0.009	0.233
-410.355	-63.939	-0.174	0.071
-409.340	-155.584	0.310	0.020
-408.325	-200.000	-0.024	0.206
-407.311	243.176	0.126	0.210
-406.296	-4.333	-0.147	-0.101
-405.282	36.208	0.185	-0.162
-404.267	-54.289	-0.330	0.149
-403.252	-200.000	0.006	-0.122
-402.238	182.465	0.328	-0.481
-401.223	439.434	0.080	-0.174
-400.209	179.757	-0.047	0.068
-399.194	-136.625	-0.187	-0.022
-398.179	-38.506	0.160	-0.084
-397.165	-52.844	0.335	0.153
-396.150	-130.058	-0.185	0.025
-395.136	250.327	-0.085	-0.143
-394.121	121.360	-0.036	0.044
-393.106	-40.886	-0.151	0.078
-392.092	-102.448	0.174	0.041
-391.077	-97.016	0.222	-0.058
-390.063	-2.213	0.146	-0.102
-389.048	-79.708	-0.282	-0.094
-388.033	-57.425	0.151	-0.066
-387.019	-200.000	0.079	-0.472
-386.004	20.628	-0.170	-0.137
-384.990	-200.000	0.012	-0.177
-383.975	-200.000	0.014	0.253
-382.960	-48.348	-0.242	0.116
-381.946	-200.000	0.031	-0.195
-380.931	-56.362	0.128	-0.057
-379.917	46.737	-0.009	0.008
-378.902	-200.000	0.013	-0.250
-377.888	-67.456	0.035	0.014
-376.873	284.975	-0.067	0.120
-375.858	36.812	0.102	-0.089
-374.844	-175.914	-0.213	0.006
-373.829	-65.867	0.389	0.154
-372.815	211.206	0.131	-0.205
-371.800	800.000	-0.098	-0.317
-370.785	77.771	-0.041	-0.044
-369.771	79.368	-0.263	-0.280
-368.756	-14.662	-0.126	-0.081
-367.742	-200.000	0.006	0.067
-366.727	800.000	0.065	0.187
-365.712	299.143	0.164	0.300
-364.698	288.652	0.132	0.238
-363.683	413.942	0.116	-0.246
-362.669	-62.799	0.245	0.101
-361.654	-113.013	0.244	-0.048
-360.639	581.802	-0.072	-0.175
-359.625	-200.000	-0.001	0.096
-358.610	-137.496	0.338	-0.038
-357.596	-200.000	0.030	0.132
-356.581	88.536	-0.174	-0.192
-355.566	-34.962	0.169	0.091
-354.552	753.661	0.150	-0.402
-353.537	-83.000	-0.335	-0.107
-352.523	-200.000	-0.028	0.227
-351.508	-20.641	-0.110	0.067
-350.493	66.699	-0.018	0.018
-349.479	31.037	-0.216	0.184
-348.464	-137.621	0.283	0.032
-347.450	-36.955	-0.024	-0.013
-346.435	-200.000	0.041	-0.287
-345.420	-200.000	0.025	-0.454
-344.406	-140.655	0.118	0.012
-343.391	406.810	-0.113	-0.237
-342.377	-44.155	-0.347	-0.173
-341.362	75.853	0.238	-0.250
-340.348	-200.000	-0.049	-0.295
-339.333	-43.114	0.342	0.172
-338.318	200.806	-0.068	-0.104
-337.304	-79.198	0.151	0.051
-336.289	359.235	0.091	-0.181
-335.275	800.000	-0.098	0.358
-334.260	-87.066	-0.079	-0.024
-333.245	-137.395	0.314	-0.035
-332.231	-200.000	-0.002	0.026
-331.216	-6.172	-0.188	-0.127
-330.202	-200.000	0.002	0.308
-329.187	-58.871	-0.323	-0.138
-328.172	-198.631	-0.479	-0.003
-327.158	-91.578	-0.157	-0.044
-326.143	-34.099	-0.025	0.014
-325.129	-111.594	-0.197	-0.040
-324.114	-74.047	0.376	-0.135
-323.099	205.857	0.081	0.125
-322.085	800.000	0.059	-0.171
-321.070	-130.116	-0.491	0.066
-320.056	800.000	-0.033	-0.099
-319.041	739.515	-0.041	0.110
-318.026	800.000	-0.046	-0.163
-317.012	433.899	0.151	0.326
-315.997	-177.729	-0.272	-0.007
-314.983	343.058	0.068	0.131
-313.968	752.381	-0.067	0.179
-312.953	-93.271	-0.386	0.106
-311.939	93.048	0.189	-0.211
-310.924	175.015	0.218	0.313
-309.910	-129.681	0.226	-0.031
-308.895	-52.863	0.326	0.149
-307.880	65.856	-0.039	-0.039
-306.866	540.939	0.033	0.078
-305.851	800.000	0.117	-0.345
-304.837	-79.201	0.328	-0.110
-303.822	309.551	-0.056	-0.104
-302.807	-93.822	-0.368	-0.100
-301.793	-200.000	0.005	-0.106
-300.778	-94.581	-0.173	-0.047
-299.764	-122.618	-0.069	-0.011
-298.749	323.187	-0.114	0.216
-297.735	60.092	0.333	-0.326
-296.720	-34.759	0.094	-0.051
-295.705	-97.700	-0.200	0.051
-294.691	71.590	-0.184	0.189
-293.676	381.059	0.104	-0.211
-292.662	189.167	-0.221	-0.328
-291.647	-95.442	0.499	-0.133
-290.632	164.624	0.141	0.197
-289.618	-128.492	0.064	-0.009
-288.603	336.495	-0.071	0.136
-287.589	-32.236	-0.290	0.160
-286.574	706.645	0.139	-0.362
-285.559	402.890	0.037	0.078
-284.545	17.709	-0.102	0.081
-283.530	-12.316	0.054	-0.035
-282.516	361.823	-0.050	0.099
-281.501	36.465	-0.146	0.128
-280.486	-200.000	-0.016	0.207
-279.472	800.000	-0.050	-0.164
-278.457	800.000	-0.079	-0.257
-277.443	-33.613	0.289	-0.158
-276.428	-200.000	-0.013	-0.246
-275.413	800.000	-0.066	-0.213
-274.399	-84.154	0.077	0.024
-273.384	2.532	0.297	-0.213
-272.370	719.317	0.139	-0.366
-271.355	-107.355	-0.050	-0.011
-270.340	-29.383	-0.397	-0.225
-269.326	9.666	0.177	0.133
-268.311	-143.326	0.361	0.034
-267.297	-51.633	-0.088	-0.041
-266.282	800.000	0.157	0.430
-265.267	-109.045	0.177	0.037
-264.253	800.000	0.108	-0.317
-263.238	336.007	-0.058	0.111
-262.224	-200.000	0.022	0.136
-261.209	88.247	-0.034	-0.037
-260.195	800.000	-0.027	-0.087
-259.180	-110.800	0.189	0.039
-258.165	-18.073	-0.279	0.173
-257.151	135.004	-0.082	0.106
-256.136	-113.990	0.212	-0.041
-255.122	-200.000	0.037	-0.372
-254.107	800.000	-0.027	0.080
-253.092	57.155	0.138	0.133
-252.078	-60.668	0.516	-0.216
-251.063	131.437	-0.241	0.306
-250.049	-200.000	0.030	0.180
-249.034	28.644	-0.220	-0.184
-248.019	800.000	-0.009	0.025
-247.005	-200.000	-0.041	0.336
-245.990	-54.555	-0.202	0.090
-244.976	116.608	-0.106	0.128
-243.961	104.608	0.263	-0.306
-242.946	141.050	0.155	-0.203
-241.932	-74.394	-0.299	-0.107
-240.917	55.664	-0.295	0.283
-239.903	201.433	-0.164	0.250
-238.888	364.251	0.078	-0.155
-237.873	38.658	-0.102	-0.090
-236.859	800.000	0.074	-0.272
-235.844	-200.000	0.054	0.334
-234.830	32.247	0.267	0.227
-233.815	-119.432	0.207	0.035
-232.800	-200.000	0.029	-0.222
-231.786	-200.000	0.006	0.094
-230.771	-119.736	-0.589	0.100
-229.757	-57.155	-0.230	-0.100
-228.742	-100.742	0.147	-0.036
-227.727	-120.834	0.306	0.051
-226.713	-153.520	0.180	0.012
-225.698	699.657	-0.024	0.062
-224.684	142.230	0.090	0.118
-223.669	-108.897	0.230	0.049
-222.655	-62.216	-0.261	0.107
-221.640	-74.625	0.221	-0.078
-220.625	-132.918	0.386	0.048
-219.611	-129.097	0.182	0.025
-218.596	-8.811	0.259	-0.172
-217.582	-79.163	0.243	0.082
-216.567	107.155	0.106	0.124
-215.552	90.027	0.031	-0.034
-214.538	104.360	-0.135	0.157
-213.523	22.237	-0.253	0.204
-212.509	-200.000	0.043	-0.272
-211.494	-200.000	0.059	-0.317
-210.479	-43.085	0.165	-0.083
-209.465	800.000	-0.066	0.184
-208.450	-102.276	-0.336	0.080
-207.436	800.000	0.107	0.362
-206.421	107.998	-0.052	-0.062
-205.406	29.998	0.232	0.195
-204.392	-200.000	-0.022	0.124
-203.377	11.656	0.166	-0.126
-202.363	554.105	0.050	0.119
-201.348	123.125	0.220	0.272
-200.333	548.036	-0.024	-0.057
-199.319	166.377	0.058	0.082
-198.304	774.749	0.068	0.184
-197.290	800.000	-0.076	-0.236
-196.275	-77.732	0.422	0.144
-195.260	-61.968	0.193	0.080
-194.246	800.000	-0.068	-0.276
-193.231	183.497	0.255	0.372
-192.217	800.000	0.128	0.522
-191.202	-56.568	0.407	0.178
-190.187	-132.312	0.259	0.033
-189.173	800.000	0.035	-0.141
-188.158	800.000	0.093	0.278
-187.144	-150.162	0.274	0.021
-186.129	640.396	-0.082	0.205
-185.114	73.215	0.135	-0.139
-184.100	80.470	-0.309	0.328
-183.085	295.863	-0.118	-0.213
-182.071	-61.947	-0.067	0.027
-181.056	59.508	-0.071	0.069
-180.042	4.815	-0.203	0.147
-179.027	-200.000	0.052	0.243
-178.012	-77.371	-0.297	-0.102
-176.998	599.356	-0.109	-0.267
-175.983	378.599	0.092	0.185
-174.969	-15.642	0.099	0.062
-173.954	-19.535	0.206	0.126
-172.939	-200.000	-0.042	-0.182
-171.925	-110.708	0.065	-0.013
-170.910	800.000	-0.090	-0.311
-169.896	-143.738	-0.424	0.040
-168.881	-53.844	0.166	0.075
-167.866	620.311	-0.113	0.281
-166.852	-200.000	-0.049	0.273
-165.837	-41.755	0.114	-0.058
-164.823	-139.028	0.065	-0.007
-163.808	-154.936	0.318	0.021
-162.793	-200.000	-0.011	0.223
-161.779	-153.653	-0.256	0.017
-160.764	-200.000	-0.041	0.225
-159.750	-154.159	0.385	-0.026
-158.735	-37.254	-0.435	0.229
-157.720	-200.000	0.029	-0.149
-156.706	213.447	-0.287	-0.447
-155.691	800.000	-0.025	0.104
-154.677	-59.152	-0.161	0.068
-153.662	-200.000	0.005	0.072
-152.647	800.000	-0.085	0.239
-151.633	25.067	-0.115	0.094
-150.618	191.014	0.110	-0.164
-149.604	-79.725	0.130	0.043
-148.589	-1.107	-0.325	-0.227
-147.574	446.851	-0.144	0.313
-146.560	243.180	0.059	-0.097
-145.545	800.000	-0.019	0.063
-144.531	-52.810	-0.247	0.112
-143.516	-7.116	-0.272	0.182
-142.502	245.890	0.080	-0.132
-141.487	-200.000	0.035	0.328
-140.472	-100.065	0.157	-0.038
-139.458	-58.412	0.070	-0.030
-138.443	-113.408	-0.247	-0.048
-137.429	-200.000	-0.004	-0.141
-136.414	-22.255	0.092	0.055
-135.399	715.660	0.062	-0.161
-134.385	186.983	0.094	0.138
-133.370	-5.275	0.095	0.064
-132.356	94.160	-0.242	0.270
-131.341	587.275	0.037	-0.090
-130.326	117.606	-0.075	-0.091
-129.312	128.571	0.082	-0.103
-128.297	8.222	-0.089	0.066
-127.283	206.998	-0.245	-0.376
-126.268	-200.000	-0.008	-0.318
-125.253	-53.212	0.161	0.073
-124.239	800.000	0.137	0.414
-123.224	-200.000	-0.003	0.302
-122.210	-200.000	-0.005	0.152
-121.195	-94.977	0.344	-0.091
-120.180	800.000	-0.088	0.317
-119.166	290.011	-0.052	0.092
-118.151	-180.462	-0.043	-0.001
-117.137	-42.791	0.164	-0.082
-116.122	606.382	0.256	-0.627
-115.107	-200.000	-0.004	0.359
-114.093	-105.616	0.123	0.027
-113.078	-5.516	0.157	-0.106
-112.064	-141.265	-0.406	-0.041
-111.049	-172.612	-0.311	0.010
-110.034	229.699	-0.063	-0.102
-109.020	79.277	0.066	0.069
-108.005	-200.000	-0.064	0.388
-106.991	725.010	-0.049	-0.129
-105.976	-166.760	0.219	0.009
-104.962	478.516	0.087	0.194
-103.947	-110.838	-0.261	-0.053
-102.932	-200.000	0.023	-0.155
-101.918	-166.201	0.346	0.014
-100.903	-67.846	0.068	-0.026
-99.889	232.252	0.040	-0.064
-98.874	-200.000	-0.005	0.259
-97.859	100.229	-0.247	0.282
-96.845	800.000	-0.132	0.456
-95.830	539.667	0.033	-0.077
-94.816	381.654	-0.061	-0.123
-93.801	3.078	-0.029	-0.021
-92.786	230.338	0.163	-0.261
-91.772	86.855	0.114	-0.124
-90.757	65.140	-0.247	0.245
-89.743	800.000	0.045	-0.164
-88.728	43.648	-0.124	0.112
-87.713	800.000	0.107	0.310
-86.699	800.000	-0.067	0.265
-85.684	-148.927	0.408	0.032
-84.670	185.729	0.142	-0.208
-83.655	97.333	-0.135	-0.153
-82.640	97.649	-0.130	0.147
-81.626	800.000	-0.107	-0.299
-80.611	-51.872	-0.179	-0.082
-79.597	324.173	0.153	0.287
-78.582	39.958	-0.178	-0.157
-77.567	-88.642	-0.418	0.122
-76.553	412.769	-0.067	0.140
-75.538	-167.840	-0.211	0.008
-74.524	-53.910	0.339	-0.152
-73.509	59.000	-0.196	0.190
-72.494	143.709	-0.057	0.075
-71.480	-53.793	0.099	0.044
-70.465	182.431	-0.127	-0.184
-69.451	-23.193	0.135	0.080
-68.436	105.288	-0.126	-0.146
-67.422	-42.939	-0.183	0.091
-66.407	178.237	0.069	-0.099
-65.392	323.770	-0.059	0.111
-64.378	-46.219	-0.038	0.018
-63.363	79.522	-0.094	0.099
-62.349	-200.000	0.028	-0.177
-61.334	52.210	-0.759	-0.710
-60.319	-13.946	0.523	0.331
-59.305	466.650	-0.461	-1.013
-58.290	34.809	1.007	0.864
-57.276	291.714	1.034	1.847
-56.261	-200.000	97.112	610.263
-55.246	613.829	1396.761	3431.688
-54.232	193.931	2587.036	3843.696
-53.217	116.799	2165.333	2607.304
-52.203	42.507	1703.551	1520.318
-51.188	34.850	1517.155	1302.028
-50.173	32.414	1490.534	1262.802
-49.159	51.794	1541.157	1438.424
-48.144	53.475	1558.544	1466.074
-47.130	35.146	1516.743	1303.481
-46.115	31.930	1502.841	1269.754
-45.100	31.695	1499.452	1265.253
-44.086	31.704	1497.363	1263.499
-43.071	31.687	1495.374	1261.661
-42.057	31.643	1493.748	1259.938
-41.042	31.733	1492.290	1259.262
-40.027	31.728	1491.178	1258.245
-39.013	31.639	1489.222	1255.943
-37.998	31.547	1488.297	1254.498
-36.984	31.613	1487.086	1253.867
-35.969	31.709	1485.340	1252.990
-34.954	31.618	1484.666	1251.766
-33.940	31.652	1482.717	1250.295
-32.925	31.576	1481.769	1248.943
-31.911	31.683	1480.400	1248.450
-30.896	31.668	1479.020	1247.138
-29.881	31.719	1477.751	1246.357
-28.867	31.833	1476.156	1245.718
-27.852	31.695	1475.085	1243.849
-26.838	31.609	1473.676	1242.046
-25.823	31.705	1471.885	1241.120
-24.809	31.698	1470.155	1239.566
-23.794	31.690	1468.904	1238.413
-22.779	31.669	1467.552	1237.082
-21.765	31.702	1466.395	1236.277
-20.750	31.795	1465.219	1235.845
-19.736	31.695	1464.235	1234.312
-18.721	31.780	1462.541	1233.390
-17.706	31.618	1461.702	1231.571
-16.692	31.605	1461.406	1231.187
-15.677	31.613	1459.982	1229.990
-14.663	31.574	1459.248	1229.065
-13.648	31.633	1458.138	1228.472
-12.633	31.633	1456.754	1227.258
-11.619	31.600	1456.708	1226.954
-10.604	31.559	1455.872	1225.928
-9.590	31.512	1455.123	1224.943
-8.575	31.637	1453.869	1224.660
-7.560	31.588	1453.330	1223.835
-6.546	31.594	1452.421	1223.059
-5.531	31.559	1451.243	1221.793
-4.517	31.618	1450.209	1221.254
-3.502	31.607	1449.131	1220.229
-2.487	31.582	1447.904	1218.981
-1.473	31.529	1447.472	1218.228
-0.458	31.634	1445.640	1217.318
0.556	29.328	1435.633	1205.338
1.571	26.176	1409.680	1163.180
2.586	22.484	1347.853	1089.278
3.600	20.820	1265.180	1012.709
4.615	19.517	1220.588	969.612
5.629	16.936	1165.188	911.665
6.644	8.126	1080.890	801.517
7.659	0.983	1039.803	736.345
8.673	-0.159	1034.744	727.170
9.688	-0.429	1031.440	723.480
10.702	-0.394	1029.452	722.189
11.717	-0.258	1027.124	721.146
12.731	2.480	1030.573	736.691
13.746	11.400	1043.122	788.883
14.761	17.945	1051.173	826.687
15.775	19.006	1051.696	832.163
16.790	18.940	1051.358	831.501
17.804	18.816	1050.320	830.008
18.819	18.682	1049.358	828.528
19.834	18.642	1048.906	827.902
20.848	18.659	1048.215	827.369
21.863	18.791	1047.869	827.656
22.877	18.749	1047.431	827.039
23.892	18.740	1046.561	826.234
24.907	18.472	1046.466	824.795
25.921	18.760	1045.097	825.026
26.936	18.716	1044.683	824.415
27.950	18.526	1043.872	822.794
28.965	18.611	1042.195	821.803
29.980	18.643	1040.521	820.564
30.994	18.496	1039.228	818.771
32.009	18.680	1038.470	818.979
33.023	18.819	1037.128	818.508
34.038	18.562	1036.146	816.440
35.053	18.517	1035.314	815.497
36.067	18.681	1034.839	815.829
37.082	18.809	1033.718	815.480
38.096	18.884	1033.024	815.219
39.111	18.920	1032.716	815.076
40.126	18.955	1031.536	814.234
41.140	19.037	1029.783	813.170
42.155	18.775	1028.288	810.679
43.169	18.536	1027.265	808.676
44.184	18.488	1026.611	807.862
45.199	18.520	1025.393	806.982
46.213	18.482	1024.334	805.897
47.228	18.352	1023.518	804.575
48.242	18.559	1022.185	804.428
49.257	18.610	1021.425	803.994
50.271	18.632	1020.808	803.545
51.286	18.786	1020.013	803.568
52.301	18.758	1019.285	802.793
53.315	18.763	1018.378	802.027
54.330	18.757	1017.536	801.265
55.344	18.700	1016.812	800.362
56.359	18.761	1015.610	799.627
57.374	18.599	1015.031	798.347
58.388	18.658	1013.583	797.413
59.403	18.613	1013.056	796.717
60.417	18.719	1012.258	796.510
61.432	18.335	1011.487	794.053
62.447	18.398	1010.838	793.765
63.461	18.617	1009.877	793.953
64.476	18.531	1009.293	793.028
65.490	18.569	1008.331	792.377
66.505	18.599	1007.114	791.489
67.520	18.578	1006.217	790.619
68.534	18.545	1005.655	789.955
69.549	18.493	1004.451	788.699
70.563	18.371	1003.041	786.961
71.578	18.153	1002.343	785.343
72.593	18.220	1002.127	785.410
73.607	18.121	1000.850	783.886
74.622	18.135	1000.036	783.246
75.636	18.331	999.236	783.445
76.651	18.477	998.460	783.435
77.666	18.329	997.523	781.956
78.680	18.220	996.943	780.932
79.695	18.263	996.068	780.376
80.709	18.439	995.553	780.707
81.724	18.538	995.159	780.779
82.739	18.530	993.764	779.576
83.753	18.470	992.988	778.627
84.768	18.678	992.317	778.975
85.782	18.776	991.833	778.972
86.797	19.064	990.797	779.394
87.812	19.032	989.855	778.441
88.826	18.813	988.900	776.629
89.841	18.772	988.122	775.766
90.855	18.897	987.625	775.870
91.870	18.954	986.294	775.012
92.884	18.945	985.295	774.119
93.899	18.871	984.490	773.086
94.914	18.826	983.322	771.897
95.928	18.859	982.548	771.372
96.943	18.922	981.560	770.806
97.957	18.722	980.688	769.160
98.972	18.536	979.316	767.183
99.987	18.166	978.608	764.905
101.001	18.268	978.166	764.947
102.016	18.584	977.815	766.020
103.030	18.640	976.631	765.275
104.045	18.607	975.805	764.409
105.060	18.414	974.097	762.147
106.074	18.329	972.236	760.246
107.089	18.338	972.344	760.302
108.103	18.690	971.863	761.421
109.118	18.785	970.841	760.972
110.133	18.489	969.846	758.815
111.147	18.627	968.504	758.308
112.162	18.531	967.490	757.024
113.176	18.309	966.070	754.868
114.191	18.488	965.081	754.815
115.206	18.586	964.257	754.536
116.220	18.255	963.392	752.336
117.235	18.184	962.322	751.124
118.249	18.190	961.539	750.472
119.264	18.376	960.794	750.639
120.279	18.200	959.760	748.995
121.293	18.201	959.015	748.352
122.308	18.396	958.286	748.571
123.322	18.477	957.400	748.165
124.337	18.370	956.261	746.741
125.352	18.360	954.841	745.522
126.366	17.909	953.263	742.264
127.381	17.688	951.535	739.895
128.395	18.168	951.111	741.580
129.410	18.715	951.128	743.900
130.424	18.807	950.068	743.404
131.439	18.925	948.875	742.915
132.454	18.697	948.184	741.323
133.468	18.772	947.289	740.880
134.483	18.612	946.299	739.354
135.497	18.662	945.866	739.163
136.512	18.922	945.085	739.608
137.527	18.924	944.664	739.221
138.541	18.913	943.699	738.352
139.556	19.002	942.978	738.106
140.570	19.047	942.129	737.568
141.585	19.028	941.039	736.567
142.600	18.968	940.154	735.554
143.614	18.791	939.706	734.381
144.629	18.901	938.894	734.153
145.643	19.141	938.272	734.625
146.658	19.152	937.042	733.644
147.673	19.164	935.185	732.175
148.687	18.881	934.750	730.569
149.702	18.818	933.967	729.624
150.716	18.781	932.688	728.404
151.731	18.804	931.884	727.810
152.746	18.850	930.935	727.195
153.760	19.033	930.499	727.564
154.775	19.050	930.169	727.314
155.789	19.093	928.937	726.470
156.804	19.053	928.087	725.573
157.819	19.115	926.744	724.717
158.833	19.062	925.920	723.787
159.848	19.070	925.352	723.312
160.862	19.086	924.554	722.691
161.877	19.051	923.481	721.644
162.892	18.952	923.167	720.917
163.906	19.221	922.318	721.319
164.921	19.081	921.502	720.032
165.935	19.090	920.272	719.042
166.950	19.184	919.033	718.403
167.964	19.057	918.212	717.168
168.979	19.127	917.205	716.613
169.994	18.971	916.137	715.065
171.008	18.969	915.170	714.237
172.023	19.077	914.696	714.254
173.037	19.170	913.936	713.980
174.052	19.014	912.393	712.066
175.067	18.710	911.891	710.356
176.081	18.873	911.123	710.366
177.096	19.024	910.292	710.280
178.110	19.080	909.415	709.766
179.125	18.873	907.996	707.742
180.140	18.736	906.995	706.336
181.154	18.724	906.208	705.612
182.169	18.654	905.939	705.051
183.183	18.779	905.995	705.547
184.198	19.184	904.981	706.357
185.213	19.027	904.408	705.203
186.227	19.004	903.842	704.603
187.242	19.081	903.284	704.424
188.256	19.139	902.435	703.936
189.271	19.081	901.459	702.875
190.286	19.172	900.870	702.725
191.300	19.203	899.823	701.970
192.315	18.644	898.634	698.707
193.329	18.100	897.212	695.327
194.344	17.749	896.390	693.202
195.359	18.279	896.621	695.473
196.373	18.889	896.956	698.150
197.388	19.085	896.803	698.764
198.402	18.906	895.288	696.798
199.417	18.897	894.541	696.119
200.432	18.952	894.625	696.343
201.446	18.805	893.563	694.860
202.461	18.458	892.601	692.650
203.475	18.440	892.109	692.135
204.490	17.981	891.274	689.571
205.504	17.123	889.014	684.306
206.519	17.681	888.666	686.226
207.534	18.682	888.859	690.344
208.548	18.619	888.108	689.446
209.563	18.946	888.234	690.794
210.577	18.934	887.662	690.241
211.592	18.642	886.762	688.309
212.607	19.003	886.666	689.620
213.621	19.110	885.999	689.471
214.636	19.170	885.068	688.926
215.650	19.233	884.515	688.687
216.665	19.156	883.891	687.831
217.680	19.061	883.479	687.071
218.694	19.262	882.938	687.390
219.709	18.776	881.900	684.586
220.723	18.583	880.885	682.967
221.738	18.905	880.290	683.728
222.753	18.957	880.037	683.676
223.767	18.926	879.171	682.821
224.782	19.040	878.440	682.645
225.796	19.210	878.006	682.922
226.811	19.320	877.446	682.860
227.826	18.815	875.936	679.626
228.840	18.215	874.411	676.016
229.855	18.255	874.129	675.895
230.869	18.496	873.758	676.499
231.884	18.072	872.843	674.061
232.899	18.180	872.541	674.193
233.913	18.915	872.536	677.025
234.928	19.113	871.876	677.230
235.942	19.033	871.197	676.328
236.957	19.057	870.328	675.690
237.972	18.794	869.668	674.085
238.986	18.829	868.183	673.011
240.001	18.853	868.033	672.930
241.015	18.956	867.099	672.550
242.030	18.976	866.453	672.066
243.045	19.018	866.404	672.131
244.059	19.018	866.045	671.796
245.074	19.123	865.374	671.624
246.088	19.195	864.233	670.960
247.103	18.788	863.333	668.617
248.117	18.761	862.828	668.063
249.132	19.369	862.628	670.214
250.147	19.499	862.181	670.313
251.161	19.652	861.467	670.289
252.176	19.799	860.871	670.337
253.190	19.606	860.629	669.340
254.205	19.657	859.883	668.898
255.220	19.930	859.536	669.626
256.234	19.907	858.819	668.919
257.249	19.938	857.920	668.281
258.263	19.605	857.806	666.845
259.278	19.628	856.830	666.116
260.293	19.805	856.341	666.360
261.307	19.992	855.427	666.311
262.322	19.777	854.695	664.855
263.336	19.700	854.090	664.028
264.351	19.153	853.074	661.082
265.366	18.178	850.772	655.503
266.380	17.641	849.789	652.631
267.395	18.682	850.096	656.798
268.409	19.325	850.272	659.336
269.424	19.388	849.614	659.008
270.439	19.418	849.431	658.921
271.453	19.744	848.353	659.269
272.468	19.668	848.152	658.767
273.482	19.868	847.427	658.906
274.497	19.912	847.095	658.757
275.512	19.813	845.553	657.122
276.526	19.191	844.634	653.990
277.541	19.328	844.341	654.224
278.555	19.756	843.569	655.190
279.570	19.641	842.768	654.074
280.585	19.268	842.218	652.178
281.599	19.305	841.868	651.992
282.614	19.578	841.033	652.320
283.628	19.278	839.891	650.242
284.643	18.961	838.913	648.231
285.657	19.218	839.216	649.377
286.672	19.196	838.837	648.946
287.687	18.693	837.257	645.775
288.701	19.029	837.174	646.914
289.716	19.327	836.932	647.791
290.730	19.113	835.686	645.969
291.745	18.971	834.731	644.639
292.760	18.805	834.241	643.583
293.774	18.750	833.398	642.668
294.789	19.583	834.048	646.233
295.803	20.162	833.918	648.238
296.818	20.230	833.491	648.104
297.833	20.370	832.810	648.039
298.847	20.166	831.733	646.383
299.862	19.875	830.839	644.549
300.876	19.866	830.148	643.922
301.891	20.170	829.880	644.787
302.906	20.224	829.054	644.290
303.920	19.713	828.225	641.691
304.935	19.579	827.413	640.509
305.949	20.028	827.143	641.907
306.964	20.156	826.741	642.012
307.979	20.020	826.094	640.950
308.993	19.837	825.882	640.052
310.008	20.095	825.979	641.025
311.022	20.331	824.891	640.996
312.037	20.176	824.063	639.723
313.052	20.057	823.460	638.762
314.066	20.037	822.820	638.134
315.081	19.417	821.593	634.843
316.095	18.659	820.627	631.256
317.110	19.293	820.698	633.586
318.125	20.093	820.455	636.279
319.139	19.564	819.670	633.675
320.154	18.603	818.126	628.903
321.168	18.203	817.650	627.017
322.183	18.806	817.382	628.963
323.197	19.578	817.812	632.067
324.212	19.685	817.360	632.052
325.227	19.935	816.860	632.523
326.241	20.116	816.092	632.530
327.256	20.058	815.514	631.818
328.270	20.063	814.910	631.311
329.285	19.846	814.536	630.174
330.300	19.823	813.716	629.403
331.314	19.649	812.983	628.145
332.329	19.544	812.430	627.282
333.343	19.988	811.719	628.287
334.358	20.165	811.917	629.029
335.373	20.084	810.993	627.964
336.387	20.254	810.511	628.151
337.402	20.419	810.173	628.428
338.416	20.460	809.803	628.233
339.431	20.446	808.759	627.320
340.446	20.503	808.119	626.971
341.460	20.616	807.741	627.031
342.475	20.544	807.293	626.369
343.489	20.367	806.468	625.037
344.504	20.345	806.061	624.586
345.519	20.480	806.018	624.985
346.533	20.766	805.600	625.633
347.548	20.861	804.891	625.367
348.562	20.939	804.571	625.344
349.577	20.891	803.977	624.655
350.592	20.799	803.335	623.769
351.606	21.048	802.713	624.122
352.621	21.045	802.513	623.900
353.635	20.726	801.985	622.296
354.650	20.666	801.030	621.284
355.665	20.282	800.466	619.420
356.679	19.232	798.982	614.477
357.694	19.262	798.182	613.913
358.708	19.925	798.247	616.271
359.723	19.925	797.445	615.597
360.738	20.072	797.709	616.267
361.752	20.514	797.296	617.467
362.767	20.527	797.427	617.559
363.781	20.804	796.449	617.730
364.796	21.027	796.448	618.466
365.810	21.044	796.174	618.258
366.825	21.203	795.599	618.321
367.840	21.034	795.380	617.495
368.854	20.979	794.413	616.498
369.869	20.727	793.727	615.019
370.883	20.518	793.209	613.825
371.898	20.508	792.797	613.416
372.913	20.569	791.645	612.684
373.927	20.384	791.170	611.612
374.942	20.776	790.847	612.689
375.956	20.765	790.103	612.020
376.971	20.860	789.688	611.977
377.986	21.004	789.235	612.077
379.000	21.137	788.912	612.239
380.015	21.172	788.556	612.031
381.029	20.921	787.917	610.604
382.044	20.911	787.333	610.060
383.059	20.927	787.269	610.013
384.073	21.041	786.196	609.528
385.088	21.063	786.079	609.459
386.102	21.074	785.155	608.726
387.117	21.156	784.757	608.649
388.132	20.948	784.418	607.608
389.146	20.786	783.782	606.496
390.161	20.392	782.606	604.165
391.175	20.246	782.366	603.417
392.190	20.884	782.121	605.391
393.205	20.700	781.656	604.342
394.219	19.803	780.231	600.073
395.234	18.457	778.516	594.040
396.248	18.018	777.259	591.509
397.263	19.055	777.831	595.480
398.278	20.611	779.105	601.794
399.292	21.087	779.104	603.387
400.307	20.585	778.698	601.284
401.321	20.691	778.079	601.118
402.336	20.801	777.511	601.004
403.350	21.112	777.489	602.008
404.365	21.246	777.691	602.574
405.380	21.685	776.527	603.131
406.394	21.729	776.636	603.312
407.409	21.843	776.032	603.182
408.423	21.835	775.627	602.786
409.438	21.577	775.080	601.423
410.453	21.589	774.582	601.024
411.467	21.829	774.274	601.555
412.482	21.798	774.079	601.244
413.496	21.715	773.016	600.082
414.511	21.726	773.072	600.108
415.526	21.891	772.182	599.931
416.540	21.791	771.821	599.253
417.555	21.769	771.348	598.759
418.569	21.442	770.990	597.312
419.584	21.355	770.523	596.600
420.599	21.500	769.763	596.451
421.613	158.197	1360.022	1796.844
422.628	136.412	1446.038	1796.927
