DTS Sentinel unit serial number:	SN413079Multiplexer serial number:	ORYXHardware model number:	OX4-SRSoftware version number:	ORYX F/W v4.00 Oryx Data Collector v3.7.2.0data status	okinstallation	princeton_trtdifferential loss correction	single-endedforward channel	channel 3reverse channel	N/Adate	2019/09/11time	20:50:10forward acquisition time	60.00reverse acquisition time	0.00gamma	496.2192k internal	0.2306k external	0.2306temperature offset calibration	1.0035default loss term (dB/km)	0.3790temperature slope calibration	1.0000multiplexer offset coefficient	1.0000multiplexer slope coefficient	1.0000fibre end	0.00T internal ref (°C)	36.95T ext. ref 1 (°C)	1.57T ext. ref 2 (°C)	30.78length (m)	temperature (°C)	Stokes	anti-Stokes-747.200	584.954	-0.080	0.201
-746.185	229.398	-0.115	0.191
-745.171	-18.006	-0.042	0.027
-744.156	-107.296	0.038	-0.008
-743.142	800.000	-0.054	0.176
-742.127	711.221	0.064	0.171
-741.112	81.927	0.214	0.236
-740.098	-59.436	-0.223	0.097
-739.083	125.626	0.083	-0.107
-738.069	128.815	0.130	0.168
-737.054	603.442	-0.097	0.246
-736.039	-28.614	-0.351	-0.206
-735.025	-107.719	0.289	0.064
-734.010	-200.000	0.003	0.237
-732.996	663.777	-0.094	-0.247
-731.981	616.941	0.138	-0.351
-730.966	-83.109	0.199	0.065
-729.952	355.261	0.070	-0.142
-728.937	24.831	-0.231	-0.194
-727.923	-8.994	-0.182	-0.124
-726.908	-116.991	0.047	-0.009
-725.894	-63.760	-0.106	0.044
-724.879	44.757	0.233	0.218
-723.864	-200.000	-0.008	-0.060
-722.850	800.000	0.091	-0.264
-721.835	-73.848	-0.343	-0.127
-720.821	55.302	-0.158	-0.155
-719.806	26.402	-0.092	-0.078
-718.791	800.000	-0.046	0.176
-717.777	639.665	0.089	-0.229
-716.762	800.000	0.062	-0.246
-715.748	172.505	-0.033	-0.049
-714.733	-57.281	0.091	-0.041
-713.718	-200.000	0.076	-0.389
-712.704	339.846	-0.116	-0.229
-711.689	-109.356	-0.156	-0.034
-710.675	-200.000	0.043	0.194
-709.660	227.522	-0.053	-0.087
-708.645	222.248	0.082	0.134
-707.631	-113.502	-0.137	-0.027
-706.616	800.000	-0.047	0.177
-705.602	286.179	-0.180	0.329
-704.587	-5.977	-0.212	0.147
-703.572	41.470	-0.137	-0.126
-702.558	-39.523	-0.123	0.065
-701.543	800.000	-0.048	0.172
-700.529	-30.142	-0.151	-0.087
-699.514	-200.000	-0.029	0.244
-698.499	-112.229	0.175	-0.036
-697.485	-144.662	-0.227	-0.021
-696.470	91.552	-0.121	0.138
-695.456	123.252	-0.133	-0.169
-694.441	-36.132	-0.091	0.050
-693.426	-200.000	0.035	0.176
-692.412	800.000	-0.061	-0.173
-691.397	2.250	-0.173	-0.127
-690.383	41.944	0.222	-0.204
-689.368	800.000	-0.042	0.171
-688.354	152.179	-0.102	0.141
-687.339	-154.494	-0.262	-0.018
-686.324	696.207	0.023	0.060
-685.310	59.447	-0.195	-0.195
-684.295	-67.713	0.169	0.067
-683.281	76.344	-0.236	0.253
-682.266	-9.949	-0.055	0.037
-681.251	112.150	-0.122	0.149
-680.237	-200.000	0.052	0.246
-679.222	-200.000	0.018	-0.114
-678.208	-200.000	0.080	-0.448
-677.193	-200.000	-0.035	-0.245
-676.178	-200.000	-0.027	0.429
-675.164	525.816	0.106	-0.253
-674.149	-161.251	-0.341	-0.018
-673.135	376.186	0.107	0.221
-672.120	191.595	-0.059	-0.091
-671.105	800.000	0.082	-0.233
-670.091	-128.084	0.285	-0.041
-669.076	-25.160	-0.042	0.025
-668.062	-155.909	0.415	0.027
-667.047	-200.000	0.036	-0.178
-666.032	-108.118	0.332	0.073
-665.018	-1.973	-0.187	0.134
-664.003	78.488	-0.162	0.176
-662.989	87.246	-0.113	0.126
-661.974	-66.209	-0.318	-0.128
-660.959	-62.482	-0.229	-0.096
-659.945	-54.392	0.114	-0.052
-658.930	-76.186	-0.199	0.071
-657.916	-196.391	0.186	0.001
-656.901	-125.863	-0.275	0.042
-655.886	497.663	-0.054	0.125
-654.872	-51.811	0.069	-0.032
-653.857	17.979	0.096	0.077
-652.843	-107.523	-0.196	-0.044
-651.828	43.501	-0.139	0.129
-650.814	14.595	0.257	0.204
-649.799	-71.837	0.065	-0.025
-648.784	359.934	0.115	-0.233
-647.770	-69.807	-0.175	-0.068
-646.755	-89.601	-0.177	-0.053
-645.741	15.770	-0.205	0.164
-644.726	-45.829	0.162	-0.081
-643.711	-200.000	-0.026	-0.383
-642.697	-40.910	-0.288	-0.151
-641.682	-90.828	-0.108	0.032
-640.668	-200.000	-0.051	-0.276
-639.653	-40.770	-0.067	-0.035
-638.638	72.563	0.034	-0.036
-637.624	123.249	0.200	0.254
-636.609	-20.440	-0.159	0.099
-635.595	66.167	0.273	0.281
-634.580	129.037	-0.069	0.089
-633.565	200.092	0.217	-0.338
-632.551	800.000	0.120	-0.353
-631.536	460.672	-0.088	0.198
-630.522	-77.741	-0.157	-0.055
-629.507	71.081	-0.277	-0.291
-628.492	-200.000	-0.024	0.353
-627.478	-200.000	0.027	-0.151
-626.463	737.645	-0.100	0.271
-625.449	-200.000	-0.050	0.284
-624.434	-197.351	0.096	-0.001
-623.419	-93.511	-0.400	-0.112
-622.405	33.827	-0.083	0.073
-621.390	-17.009	-0.205	-0.131
-620.376	-23.804	0.235	-0.143
-619.361	608.069	0.024	0.062
-618.346	49.035	0.385	-0.366
-617.332	-135.316	0.350	0.042
-616.317	800.000	-0.049	0.186
-615.303	-200.000	-0.075	-0.526
-614.288	433.979	0.216	0.476
-613.273	-47.250	-0.107	0.053
-612.259	58.387	0.209	0.207
-611.244	175.591	0.122	0.178
-610.230	-200.000	-0.025	0.141
-609.215	63.748	-0.134	-0.136
-608.201	-92.783	0.241	-0.068
-607.186	800.000	-0.068	0.200
-606.171	-33.285	0.166	0.093
-605.157	-78.847	-0.257	0.088
-604.142	133.323	-0.082	0.107
-603.128	303.872	-0.208	0.390
-602.113	-53.809	0.021	-0.010
-601.098	-200.000	0.003	-0.146
-600.084	79.741	-0.110	0.120
-599.069	-26.478	0.168	0.099
-598.055	-142.504	-0.257	0.025
-597.040	-46.793	-0.190	0.094
-596.025	-27.654	0.143	-0.084
-595.011	-146.631	-0.394	-0.035
-593.996	-83.273	0.270	-0.088
-592.982	56.002	0.207	-0.203
-591.967	-157.036	0.528	0.033
-590.952	800.000	0.060	0.168
-589.938	-200.000	-0.036	0.162
-588.923	-200.000	-0.077	-0.366
-587.909	-5.395	-0.263	0.183
-586.894	458.031	0.101	0.227
-585.879	800.000	-0.030	-0.105
-584.865	3.385	0.136	-0.100
-583.850	-200.000	0.004	-0.089
-582.836	-200.000	0.016	-0.440
-581.821	-200.000	-0.023	-0.103
-580.806	114.751	-0.267	0.329
-579.792	-64.878	-0.077	0.032
-578.777	48.369	-0.145	0.138
-577.763	192.326	0.120	-0.183
-576.748	800.000	0.105	-0.297
-575.733	-116.572	-0.491	-0.091
-574.719	-115.153	0.148	0.028
-573.704	800.000	0.073	0.215
-572.690	138.916	-0.197	0.261
-571.675	800.000	0.096	-0.344
-570.661	-49.011	0.211	0.102
-569.646	376.348	0.032	0.066
-568.631	103.675	-0.145	0.172
-567.617	-138.430	0.367	-0.041
-566.602	233.599	-0.205	0.341
-565.588	60.678	-0.048	-0.048
-564.573	-96.522	0.071	-0.019
-563.558	149.693	-0.096	0.131
-562.544	-81.100	-0.038	-0.013
-561.529	-63.929	-0.137	0.057
-560.515	-99.020	-0.024	-0.006
-559.500	164.473	0.193	-0.275
-558.485	181.876	-0.140	-0.208
-557.471	-179.370	0.134	-0.003
-556.456	75.695	0.211	0.225
-555.442	-43.037	0.239	-0.123
-554.427	-200.000	-0.049	-0.560
-553.412	464.708	0.074	-0.167
-552.398	72.787	0.148	-0.156
-551.383	-200.000	0.019	-0.303
-550.369	800.000	-0.043	0.175
-549.354	49.979	0.116	-0.110
-548.339	-8.902	0.121	0.082
-547.325	-52.185	0.245	-0.115
-546.310	-32.807	0.149	0.084
-545.296	516.767	-0.109	0.258
-544.281	65.038	0.213	0.217
-543.266	419.987	-0.118	-0.255
-542.252	61.005	0.192	0.192
-541.237	-124.739	0.155	0.024
-540.223	-106.812	0.168	-0.038
-539.208	302.985	-0.158	0.295
-538.193	-139.624	0.456	0.049
-537.179	6.784	-0.145	0.109
-536.164	85.699	0.197	-0.218
-535.150	800.000	-0.147	0.455
-534.135	494.885	-0.198	0.458
-533.121	-200.000	0.162	0.000
-532.106	368.146	-0.155	0.317
-531.091	-68.029	0.247	0.097
-530.077	58.779	-0.069	-0.069
-529.062	138.733	-0.080	-0.107
-528.048	-200.000	-0.027	-0.506
-527.033	-57.062	-0.186	-0.083
-526.018	211.883	-0.053	0.084
-525.004	27.458	0.329	-0.279
-523.989	60.252	-0.369	-0.368
-522.975	800.000	-0.155	-0.444
-521.960	-92.841	0.176	-0.050
-520.945	-24.349	-0.119	0.072
-519.931	-65.025	-0.259	-0.106
-518.916	41.791	0.220	0.201
-517.902	800.000	-0.041	-0.116
-516.887	-200.000	0.035	-0.328
-515.872	-33.603	-0.156	0.087
-514.858	65.367	0.154	0.157
-513.843	327.843	-0.135	-0.261
-512.829	-193.844	-0.457	-0.004
-511.814	-113.979	-0.204	-0.040
-510.799	800.000	-0.011	-0.037
-509.785	334.675	0.020	0.039
-508.770	333.567	-0.223	-0.435
-507.756	322.678	0.031	0.059
-506.741	246.905	0.078	-0.133
-505.726	-200.000	0.044	0.227
-504.712	-0.488	-0.095	0.068
-503.697	60.366	0.122	-0.121
-502.683	-192.186	-0.449	-0.004
-501.668	24.654	0.194	0.162
-500.653	-159.385	0.245	-0.014
-499.639	-200.000	-0.008	-0.179
-498.624	521.790	0.124	0.294
-497.610	800.000	0.010	0.033
-496.595	-200.000	-0.010	-0.159
-495.581	-84.621	-0.142	0.045
-494.566	-85.102	0.334	0.105
-493.551	-200.000	0.056	0.325
-492.537	229.382	-0.147	0.242
-491.522	-200.000	-0.013	0.136
-490.508	127.241	-0.218	-0.279
-489.493	-134.761	-0.005	-0.001
-488.478	-7.199	0.413	0.282
-487.464	29.265	0.123	-0.105
-486.449	97.334	0.267	-0.308
-485.435	-79.800	0.164	0.055
-484.420	-2.873	-0.166	-0.117
-483.405	-56.105	0.089	-0.040
-482.391	-52.976	0.345	-0.160
-481.376	-157.794	-0.074	0.004
-480.362	729.387	0.073	-0.197
-479.347	-20.752	0.166	-0.103
-478.332	-112.168	-0.328	0.066
-477.318	298.660	-0.131	0.243
-476.303	95.698	-0.045	-0.052
-475.289	32.050	-0.192	-0.166
-474.274	-200.000	0.007	-0.052
-473.259	99.694	-0.037	0.043
-472.245	-200.000	0.030	-0.268
-471.230	55.703	-0.142	0.139
-470.216	-28.263	0.051	-0.030
-469.201	79.176	0.125	0.135
-468.186	-41.220	0.210	-0.109
-467.172	8.045	-0.288	-0.218
-466.157	133.026	0.087	-0.113
-465.143	437.593	0.038	-0.084
-464.128	272.176	-0.095	0.169
-463.113	7.261	0.123	0.092
-462.099	-89.634	-0.076	0.023
-461.084	348.024	-0.150	0.297
-460.070	-200.000	0.104	-0.468
-459.055	-134.160	-0.345	0.043
-458.040	-36.828	-0.326	-0.176
-457.026	70.001	-0.082	-0.085
-456.011	139.556	-0.128	0.169
-454.997	-200.000	0.040	-0.188
-453.982	28.445	0.115	0.098
-452.968	-200.000	-0.024	0.139
-451.953	-200.000	-0.079	0.371
-450.938	-97.812	0.395	-0.103
-449.924	-2.202	-0.201	0.142
-448.909	-200.000	-0.110	0.488
-447.895	-124.761	0.420	-0.065
-446.880	88.140	-0.054	-0.060
-445.865	-66.396	-0.164	0.066
-444.851	61.139	0.084	0.084
-443.836	-200.000	0.022	0.115
-442.822	768.187	-0.088	0.240
-441.807	-200.000	0.040	-0.219
-440.792	-106.016	-0.419	-0.095
-439.778	128.554	0.037	0.047
-438.763	-73.567	0.109	-0.040
-437.749	-117.409	0.163	0.030
-436.734	493.673	0.116	0.268
-435.719	100.750	-0.112	0.131
-434.705	1.202	0.190	-0.137
-433.690	-200.000	0.031	0.325
-432.676	800.000	-0.059	0.208
-431.661	-65.856	0.294	0.118
-430.646	157.209	0.408	-0.567
-429.632	239.174	0.058	0.096
-428.617	189.993	0.093	-0.140
-427.603	-84.732	-0.236	0.075
-426.588	73.407	0.187	0.197
-425.573	160.841	0.085	0.119
-424.559	-112.230	0.134	-0.027
-423.544	154.951	-0.145	-0.201
-422.530	-83.354	-0.180	-0.058
-421.515	293.213	0.070	-0.129
-420.500	-200.000	-0.008	0.035
-419.486	-121.274	-0.062	0.010
-418.471	-200.000	-0.008	0.246
-417.457	-48.062	0.147	-0.071
-416.442	237.295	-0.167	-0.279
-415.428	151.509	0.147	-0.201
-414.413	-146.140	0.489	0.043
-413.398	-33.279	-0.237	0.132
-412.384	-4.182	0.157	0.109
-411.369	115.563	0.137	0.169
-410.355	-200.000	-0.033	-0.275
-409.340	5.264	0.020	-0.015
-408.325	-134.180	0.195	-0.024
-407.311	-200.000	0.034	0.201
-406.296	246.490	-0.147	-0.250
-405.282	-137.742	-0.195	0.022
-404.267	-4.520	-0.181	0.125
-403.252	-200.000	0.075	-0.421
-402.238	-132.717	0.119	-0.015
-401.223	-108.063	-0.306	0.067
-400.209	317.628	-0.156	-0.296
-399.194	-115.167	-0.133	0.025
-398.179	-156.983	-0.313	0.019
-397.165	-83.137	-0.165	0.053
-396.150	-19.637	-0.160	0.099
-395.136	-80.483	-0.223	0.075
-394.121	-111.809	0.038	0.008
-393.106	12.511	0.372	0.288
-392.092	66.284	0.053	-0.054
-391.077	-163.059	-0.091	0.004
-390.063	26.394	0.209	0.175
-389.048	23.339	0.253	0.208
-388.033	800.000	0.040	0.174
-387.019	-200.000	-0.002	0.355
-386.004	-77.077	0.244	-0.085
-384.990	181.041	0.070	-0.103
-383.975	-23.780	0.205	0.123
-382.960	-115.146	0.131	-0.025
-381.946	-14.803	-0.110	0.071
-380.931	117.313	0.104	-0.129
-379.917	675.203	-0.104	0.272
-378.902	188.838	0.154	0.232
-377.888	-200.000	0.025	-0.361
-376.873	254.997	0.273	0.469
-375.858	800.000	0.044	0.179
-374.844	-42.486	-0.351	-0.179
-373.829	-200.000	0.049	-0.237
-372.815	245.307	0.209	0.353
-371.800	-200.000	0.035	0.322
-370.785	181.158	0.081	0.119
-369.771	-133.469	-0.281	0.035
-368.756	37.544	0.239	0.212
-367.742	800.000	-0.011	0.050
-366.727	-76.389	0.073	0.026
-365.712	488.417	0.046	-0.105
-364.698	90.940	-0.107	0.120
-363.683	-200.000	-0.041	0.303
-362.669	-200.000	-0.002	0.103
-361.654	-200.000	0.028	-0.170
-360.639	30.360	-0.160	0.137
-359.625	-169.384	0.231	-0.009
-358.610	127.579	0.126	-0.160
-357.596	31.988	-0.201	-0.174
-356.581	29.963	-0.358	-0.306
-355.566	-119.157	-0.100	0.017
-354.552	-32.196	0.208	0.116
-353.537	-104.818	0.246	-0.057
-352.523	-71.586	-0.219	0.082
-351.508	335.731	-0.181	-0.351
-350.493	-199.593	0.170	0.001
-349.479	-200.000	0.015	0.090
-348.464	-200.000	0.000	-0.202
-347.450	-17.744	-0.387	0.243
-346.435	800.000	0.059	-0.183
-345.420	-157.864	0.246	-0.015
-344.406	321.512	-0.121	-0.230
-343.391	-164.879	0.262	-0.012
-342.377	34.746	-0.279	0.244
-341.362	-176.685	-0.124	-0.003
-340.348	143.831	-0.210	0.280
-339.333	172.155	-0.346	0.498
-338.318	800.000	-0.042	0.126
-337.304	220.442	0.040	-0.064
-336.289	-86.564	0.143	-0.044
-335.275	101.534	0.075	0.087
-334.260	-49.875	-0.148	-0.070
-333.245	-111.061	0.454	-0.093
-332.231	547.755	-0.076	-0.183
-331.216	108.282	-0.148	0.176
-330.202	-200.000	0.029	0.152
-329.187	-51.969	0.392	-0.182
-328.172	-141.066	-0.197	-0.020
-327.158	-107.602	0.168	-0.037
-326.143	-40.078	-0.271	0.142
-325.129	-146.229	-0.012	-0.001
-324.114	-118.780	-0.082	0.015
-323.099	-4.180	-0.204	0.141
-322.085	-200.000	0.009	0.379
-321.070	-153.206	0.114	0.008
-320.056	-25.048	0.343	-0.204
-319.041	-56.867	-0.269	0.119
-318.026	800.000	0.035	0.122
-317.012	529.486	-0.084	-0.199
-315.997	800.000	0.084	-0.271
-314.983	-200.000	-0.049	-0.223
-313.968	318.248	0.258	-0.488
-312.953	-40.349	-0.167	-0.087
-311.939	-126.590	-0.235	-0.035
-310.924	259.801	0.070	0.122
-309.910	-44.249	0.207	-0.104
-308.895	-65.498	0.316	-0.127
-307.880	753.601	0.082	-0.222
-306.866	18.028	0.245	0.195
-305.851	331.850	-0.043	-0.083
-304.837	780.227	0.067	0.184
-303.822	556.288	0.033	-0.080
-302.807	-55.318	0.013	0.006
-301.793	362.549	-0.077	-0.154
-300.778	-58.385	0.002	-0.001
-299.764	93.732	0.040	-0.045
-298.749	-158.370	0.126	-0.007
-297.735	155.801	0.065	0.089
-296.720	554.097	0.040	0.096
-295.705	-200.000	0.011	-0.107
-294.691	28.177	0.024	-0.020
-293.676	59.364	-0.297	-0.292
-292.662	-200.000	-0.040	0.230
-291.647	452.245	0.138	0.304
-290.632	-16.830	-0.188	0.119
-289.618	37.011	-0.235	0.208
-288.603	711.247	-0.037	-0.098
-287.589	-46.498	-0.046	0.022
-286.574	-57.076	-0.214	0.094
-285.559	-29.398	-0.404	-0.231
-284.545	-200.000	-0.023	-0.265
-283.530	131.118	-0.083	0.107
-282.516	442.979	0.100	-0.220
-281.501	208.991	-0.075	-0.118
-280.486	-200.000	0.014	0.123
-279.472	-200.000	-0.031	-0.211
-278.457	36.135	0.259	0.228
-277.443	-200.000	-0.020	0.215
-276.428	-143.475	-0.167	0.016
-275.413	-200.000	-0.024	-0.230
-274.399	11.206	0.252	-0.193
-273.384	-131.336	0.120	0.016
-272.370	-145.508	-0.260	-0.023
-271.355	-200.000	-0.045	0.204
-270.340	364.740	-0.067	-0.135
-269.326	-85.591	-0.254	-0.079
-268.311	-117.095	-0.209	0.038
-267.297	687.970	-0.083	-0.218
-266.282	49.584	-0.243	-0.228
-265.267	-120.419	-0.054	-0.009
-264.253	-163.657	0.109	0.005
-263.238	-200.000	0.023	-0.187
-262.224	343.797	-0.118	0.230
-261.209	-87.011	0.044	-0.013
-260.195	-87.737	0.166	0.050
-259.180	85.999	-0.145	0.159
-258.165	-157.856	0.365	0.022
-257.151	-110.881	0.094	-0.019
-256.136	46.175	-0.145	0.134
-255.122	-74.785	-0.290	0.104
-254.107	-107.137	0.125	0.028
-253.092	-152.838	0.069	0.005
-252.078	9.911	-0.025	-0.019
-251.063	110.055	-0.196	-0.235
-250.049	93.598	0.028	-0.032
-249.034	150.568	0.151	-0.205
-248.019	385.307	-0.116	0.238
-247.005	14.669	-0.162	-0.126
-245.990	280.840	0.042	-0.075
-244.976	800.000	0.124	0.436
-243.961	-6.942	-0.239	0.162
-242.946	-143.550	0.472	-0.045
-241.932	540.749	0.120	-0.284
-240.917	20.785	0.089	-0.072
-239.903	-200.000	-0.035	-0.234
-238.888	125.672	-0.043	-0.054
-237.873	174.972	0.047	0.068
-236.859	-69.281	-0.290	-0.111
-235.844	-200.000	-0.003	0.108
-234.830	405.488	-0.088	0.186
-233.815	200.242	0.059	-0.090
-232.800	-200.000	-0.010	-0.061
-231.786	162.123	-0.108	-0.151
-230.771	-23.391	-0.249	0.149
-229.757	-76.273	0.438	-0.154
-228.742	212.794	-0.189	0.297
-227.727	92.034	0.171	0.192
-226.713	-200.000	0.037	-0.226
-225.698	487.008	0.069	-0.157
-224.684	3.621	-0.160	0.116
-223.669	104.317	-0.020	-0.023
-222.655	60.841	0.107	0.106
-221.640	-126.152	0.279	0.042
-220.625	495.528	-0.037	0.085
-219.611	9.480	0.154	-0.116
-218.596	-150.786	-0.411	0.031
-217.582	-17.943	-0.218	-0.136
-216.567	-200.000	0.002	0.097
-215.552	800.000	0.026	-0.078
-214.538	800.000	-0.078	-0.225
-213.523	-87.675	0.289	-0.087
-212.509	-72.712	0.448	0.164
-211.494	-94.169	0.063	0.017
-210.479	-83.309	-0.151	-0.048
-209.465	-31.567	-0.140	0.079
-208.450	603.900	-0.065	-0.161
-207.436	104.210	0.154	-0.181
-206.421	-200.000	-0.003	0.021
-205.406	-166.331	0.254	0.011
-204.392	800.000	0.088	0.249
-203.377	270.318	-0.084	0.147
-202.363	-99.881	-0.110	0.027
-201.348	-63.601	-0.217	-0.089
-200.333	-1.159	0.373	-0.263
-199.319	-73.648	-0.312	-0.113
-198.304	-73.033	0.151	0.055
-197.290	31.679	-0.161	0.138
-196.275	-190.321	-0.097	-0.001
-195.260	59.832	-0.079	-0.078
-194.246	-22.788	-0.469	0.282
-193.231	-58.604	-0.107	-0.046
-192.217	-88.538	-0.227	0.067
-191.202	-200.000	0.030	-0.322
-190.187	800.000	0.058	-0.225
-189.173	-33.508	0.245	-0.135
-188.158	-200.000	0.025	-0.147
-187.144	800.000	-0.023	-0.075
-186.129	-200.000	0.006	-0.187
-185.114	800.000	-0.085	0.236
-184.100	-114.706	-0.080	0.015
-183.085	438.079	-0.105	0.228
-182.071	-17.858	0.295	0.184
-181.056	-200.000	-0.015	-0.281
-180.042	127.696	0.084	-0.106
-179.027	-116.849	0.161	0.029
-178.012	-200.000	-0.049	-0.312
-176.998	23.137	0.178	-0.146
-175.983	-88.813	-0.214	-0.063
-174.969	-141.709	-0.035	-0.003
-173.954	-18.619	0.127	-0.079
-172.939	210.095	0.073	-0.114
-171.925	249.925	-0.282	0.476
-170.910	800.000	0.155	-0.495
-169.896	647.708	0.135	0.344
-168.881	385.019	-0.019	-0.039
-167.866	-119.583	0.266	0.046
-166.852	346.981	-0.124	-0.243
-165.837	175.873	0.133	0.192
-164.823	-150.847	-0.137	0.010
-163.808	197.992	-0.066	0.100
-162.793	-200.000	-0.046	0.262
-161.779	35.152	-0.027	-0.024
-160.764	311.001	-0.112	0.208
-159.750	-93.511	0.230	0.063
-158.735	-106.204	-0.203	0.045
-157.720	77.393	-0.052	0.055
-156.706	377.589	-0.063	-0.127
-155.691	-137.959	-0.153	-0.017
-154.677	-200.000	0.021	0.187
-153.662	800.000	0.018	-0.076
-152.647	800.000	-0.058	0.178
-151.633	-75.518	0.213	0.075
-150.618	67.397	-0.148	0.150
-149.604	-200.000	-0.025	-0.189
-148.589	-98.706	0.332	0.084
-147.574	-156.618	0.130	-0.008
-146.560	-200.000	-0.055	0.000
-145.545	56.603	0.247	-0.238
-144.531	234.325	0.066	0.108
-143.516	-200.000	-0.030	0.342
-142.502	800.000	0.049	0.180
-141.487	143.151	0.035	0.047
-140.472	800.000	0.035	-0.138
-139.458	352.530	-0.144	0.283
-138.443	-200.000	0.027	0.128
-137.429	-200.000	0.012	-0.119
-136.414	-20.881	0.252	0.153
-135.399	-84.902	0.326	-0.102
-134.385	-200.000	-0.032	0.406
-133.370	-149.150	0.177	-0.014
-132.356	-130.187	0.212	0.029
-131.341	191.952	-0.136	-0.204
-130.326	-139.894	-0.202	-0.021
-129.312	-133.283	0.278	0.035
-128.297	768.900	-0.056	-0.151
-127.283	-200.000	-0.101	-0.637
-126.268	146.044	0.078	-0.103
-125.253	98.337	0.051	-0.059
-124.239	31.619	-0.091	0.078
-123.224	56.343	0.089	-0.086
-122.210	-200.000	-0.041	0.293
-121.195	800.000	0.023	-0.091
-120.180	22.626	0.050	0.040
-119.166	-104.251	-0.061	-0.014
-118.151	-200.000	0.010	-0.178
-117.137	101.975	0.235	-0.272
-116.122	-200.000	-0.017	-0.119
-115.107	112.963	0.093	0.111
-114.093	207.414	0.149	0.231
-113.078	800.000	0.025	-0.098
-112.064	420.626	0.056	-0.120
-111.049	-200.000	0.001	-0.075
-110.034	-119.032	0.440	0.076
-109.020	132.137	-0.017	-0.021
-108.005	-26.634	-0.369	-0.214
-106.991	-122.071	0.153	-0.025
-105.976	-104.681	0.171	0.039
-104.962	-63.547	0.072	-0.029
-103.947	-78.230	0.121	-0.041
-102.932	800.000	0.005	-0.018
-101.918	-20.655	0.223	-0.136
-100.903	81.412	0.083	0.089
-99.889	-200.000	0.015	0.068
-98.874	-103.816	-0.337	0.078
-97.859	136.600	-0.167	0.216
-96.845	-103.729	0.146	-0.034
-95.830	443.758	0.038	0.082
-94.816	1.838	0.030	0.021
-93.801	-200.000	0.024	0.164
-92.786	121.897	-0.179	-0.221
-91.772	-200.000	-0.007	0.096
-90.757	-28.922	-0.422	0.240
-89.743	-19.132	0.300	0.185
-88.728	102.464	0.108	0.125
-87.713	-200.000	0.001	-0.105
-86.699	-200.000	-0.001	-0.118
-85.684	-200.000	-0.067	0.000
-84.670	-13.662	-0.191	-0.122
-83.655	-200.000	0.040	0.229
-82.640	800.000	-0.063	-0.219
-81.626	-120.419	-0.475	0.080
-80.611	-147.193	0.346	0.029
-79.597	739.520	-0.019	-0.051
-78.582	800.000	-0.088	0.242
-77.567	-125.339	0.255	0.039
-76.553	-18.540	0.386	-0.238
-75.538	800.000	-0.044	-0.141
-74.524	213.990	0.081	-0.128
-73.509	61.860	0.280	-0.276
-72.494	183.797	-0.086	-0.127
-71.480	-8.581	0.160	-0.107
-70.465	387.411	-0.137	0.280
-69.451	-48.628	0.169	0.080
-68.436	215.875	0.232	0.365
-67.422	-72.245	-0.326	-0.120
-66.407	106.150	-0.474	-0.556
-65.392	362.506	0.036	-0.071
-64.378	198.783	-0.168	0.255
-63.363	101.585	-0.242	0.279
-62.349	-51.764	0.419	0.193
-61.334	-28.265	-0.816	-0.467
-60.319	-78.618	0.487	0.165
-59.305	295.591	-0.534	-0.968
-58.290	559.325	0.372	0.890
-57.276	800.000	0.338	1.342
-56.261	-200.000	89.809	519.994
-55.246	507.438	1363.078	3131.771
-54.232	152.362	2571.960	3476.450
-53.217	114.659	2193.877	2647.450
-52.203	47.074	1730.637	1594.122
-51.188	40.050	1538.894	1369.032
-50.173	37.580	1510.927	1327.279
-49.159	55.060	1558.698	1490.735
-48.144	59.036	1578.700	1537.377
-47.130	40.460	1535.469	1368.604
-46.115	37.228	1519.901	1332.533
-45.100	36.995	1516.956	1328.302
-44.086	36.943	1514.651	1325.874
-43.071	36.876	1512.768	1323.718
-42.057	36.828	1511.384	1322.127
-41.042	36.778	1510.280	1320.768
-40.027	36.867	1508.909	1320.120
-39.013	36.883	1507.460	1318.911
-37.998	36.866	1506.013	1317.474
-36.984	36.909	1504.999	1316.830
-35.969	36.934	1503.396	1315.544
-34.954	36.974	1501.623	1314.215
-33.940	36.966	1500.273	1312.924
-32.925	37.015	1498.431	1311.590
-31.911	37.025	1497.560	1310.846
-30.896	37.001	1496.580	1309.772
-29.881	37.001	1495.511	1308.787
-28.867	36.984	1494.043	1307.332
-27.852	37.074	1492.045	1306.140
-26.838	36.958	1490.820	1304.233
-25.823	37.043	1489.010	1303.169
-24.809	37.045	1487.541	1301.845
-23.794	36.939	1485.843	1299.596
-22.779	36.918	1485.365	1298.988
-21.765	37.021	1483.964	1298.404
-20.750	37.030	1482.573	1297.194
-19.736	36.946	1481.809	1295.913
-18.721	36.980	1480.342	1294.803
-17.706	37.018	1479.418	1294.199
-16.692	36.948	1478.135	1292.559
-15.677	37.069	1477.192	1292.487
-14.663	37.005	1476.127	1291.081
-13.648	36.929	1475.164	1289.680
-12.633	36.897	1473.744	1288.172
-11.619	36.930	1473.363	1288.012
-10.604	36.830	1472.560	1286.591
-9.590	36.915	1471.156	1285.877
-8.575	36.814	1471.243	1285.235
-7.560	36.950	1469.771	1284.798
-6.546	36.957	1468.831	1283.970
-5.531	36.873	1468.630	1283.189
-4.517	36.843	1467.191	1281.681
-3.502	36.867	1466.226	1280.949
-2.487	36.814	1465.196	1279.648
-1.473	36.835	1464.029	1278.717
-0.458	36.916	1462.817	1278.139
0.556	36.740	1453.226	1266.026
1.571	33.636	1425.874	1222.123
2.586	29.845	1364.338	1145.852
3.600	27.914	1281.291	1064.766
4.615	26.222	1234.421	1016.214
5.629	22.018	1176.733	946.042
6.644	11.445	1088.209	821.831
7.659	3.016	1043.382	747.073
8.673	1.837	1037.815	737.316
9.688	1.489	1034.973	733.553
10.702	1.449	1033.005	731.901
11.717	1.486	1031.756	731.130
12.731	5.149	1035.775	751.574
13.746	15.269	1050.903	811.712
14.761	22.945	1059.860	855.892
15.775	24.350	1060.865	863.438
16.790	24.608	1060.297	864.145
17.804	24.419	1059.725	862.690
18.819	24.140	1059.029	860.699
19.834	24.304	1058.332	860.847
20.848	24.294	1058.102	860.534
21.863	24.478	1057.244	860.649
22.877	24.503	1057.073	860.556
23.892	24.480	1056.280	859.723
24.907	24.384	1055.400	858.469
25.921	24.407	1054.804	858.018
26.936	24.322	1054.234	857.068
27.950	24.351	1052.978	856.110
28.965	24.418	1051.798	855.396
29.980	24.405	1050.063	853.851
30.994	24.232	1049.138	852.195
32.009	24.401	1048.741	852.605
33.023	24.583	1047.851	852.676
34.038	24.381	1046.311	850.385
35.053	24.249	1046.282	849.656
36.067	24.373	1045.629	849.642
37.082	24.489	1044.617	849.292
38.096	24.493	1044.060	848.786
39.111	24.608	1043.244	848.595
40.126	24.800	1042.326	848.680
41.140	24.515	1041.190	846.333
42.155	24.336	1039.690	844.191
43.169	24.013	1038.302	841.463
44.184	23.987	1037.741	840.810
45.199	24.249	1036.093	840.635
46.213	24.090	1035.205	839.093
47.228	24.167	1034.052	838.444
48.242	24.213	1033.565	838.194
49.257	24.276	1032.929	837.898
50.271	24.264	1032.197	837.175
51.286	24.424	1031.502	837.285
52.301	24.647	1030.736	837.635
53.315	24.573	1029.964	836.588
54.330	24.486	1029.548	835.769
55.344	24.349	1028.647	834.323
56.359	24.428	1027.501	833.690
57.374	24.393	1026.653	832.766
58.388	24.286	1025.676	831.397
59.403	24.188	1025.035	830.347
60.417	24.203	1024.618	830.007
61.432	23.939	1023.621	827.898
62.447	24.003	1023.175	827.764
63.461	24.196	1022.387	827.946
64.476	24.326	1021.227	827.540
65.490	24.203	1020.597	826.386
66.505	24.017	1020.049	825.008
67.520	24.077	1019.229	824.545
68.534	24.157	1018.619	824.349
69.549	24.138	1017.189	823.034
70.563	23.690	1016.393	820.249
71.578	23.503	1015.815	818.845
72.593	23.688	1015.022	818.987
73.607	23.570	1013.436	817.093
74.622	23.577	1012.657	816.424
75.636	23.754	1012.176	816.775
76.651	24.053	1011.233	817.317
77.666	23.939	1010.200	815.889
78.680	23.724	1009.358	814.149
79.695	23.767	1009.324	814.246
80.709	23.915	1008.371	814.083
81.724	24.038	1007.921	814.211
82.739	24.004	1006.819	813.092
83.753	24.029	1006.058	812.519
84.768	24.295	1005.162	812.938
85.782	24.602	1004.872	814.028
86.797	24.771	1004.133	814.129
87.812	24.682	1003.407	813.064
88.826	24.502	1002.240	811.227
89.841	24.502	1001.566	810.611
90.855	24.572	1001.042	810.433
91.870	24.656	1000.171	810.039
92.884	24.673	999.224	809.274
93.899	24.499	998.443	807.782
94.914	24.390	997.356	806.343
95.928	24.595	996.620	806.598
96.943	24.580	995.493	805.546
97.957	24.322	994.805	803.758
98.972	23.980	993.485	801.081
99.987	23.945	992.635	800.166
101.001	23.978	991.918	799.666
102.016	24.278	991.577	800.668
103.030	24.453	990.308	800.358
104.045	24.409	989.305	799.277
105.060	24.102	988.455	797.148
106.074	24.014	987.268	795.727
107.089	24.039	986.318	795.002
108.103	24.247	986.381	795.913
109.118	24.374	985.081	795.359
110.133	24.201	983.845	793.522
111.147	23.983	982.919	791.734
112.162	24.091	981.891	791.315
113.176	23.719	980.769	788.690
114.191	23.914	980.160	788.995
115.206	24.112	978.954	788.833
116.220	23.784	977.765	786.352
117.235	23.533	976.883	784.463
118.249	23.704	976.654	784.965
119.264	23.884	975.618	784.859
120.279	23.573	975.055	782.966
121.293	23.716	974.355	782.961
122.308	23.927	973.015	782.743
123.322	23.904	972.495	782.157
124.337	23.750	971.180	780.353
125.352	23.674	970.223	779.181
126.366	23.358	968.245	776.142
127.381	23.088	966.861	773.784
128.395	23.379	967.393	775.412
129.410	24.143	966.957	778.334
130.424	24.277	966.136	778.188
131.439	24.337	964.949	777.426
132.454	24.213	963.971	776.032
133.468	24.249	963.365	775.629
134.483	24.178	962.252	774.357
135.497	24.249	961.818	774.245
136.512	24.462	961.025	774.463
137.527	24.471	960.353	773.894
138.541	24.557	959.475	773.490
139.556	24.593	958.646	772.909
140.570	24.563	958.000	772.190
141.585	24.485	956.910	770.907
142.600	24.673	956.560	771.368
143.614	24.684	955.130	770.194
144.629	24.612	954.479	769.292
145.643	24.866	954.035	769.956
146.658	24.690	953.244	768.493
147.673	24.584	951.714	766.736
148.687	24.413	950.501	764.959
149.702	24.273	949.956	763.853
150.716	24.263	948.674	762.713
151.731	24.200	947.329	761.295
152.746	24.306	947.071	761.475
153.760	24.376	946.501	761.244
154.775	24.818	945.585	762.324
155.789	24.599	945.254	761.059
156.804	24.732	943.784	760.373
157.819	24.551	943.006	758.911
158.833	24.534	942.398	758.281
159.848	24.669	942.107	758.551
160.862	24.718	940.951	757.762
161.877	24.717	939.598	756.603
162.892	24.544	938.970	755.298
163.906	24.737	938.152	755.389
164.921	24.646	937.502	754.414
165.935	24.482	936.456	752.815
166.950	24.585	935.138	752.123
167.964	24.676	934.329	751.786
168.979	24.621	933.377	750.725
169.994	24.564	931.936	749.259
171.008	24.421	931.033	747.868
172.023	24.537	930.622	747.956
173.037	24.774	930.007	748.389
174.052	24.474	928.720	746.035
175.067	24.309	927.657	744.423
176.081	24.311	926.870	743.735
177.096	24.486	926.206	743.866
178.110	24.356	925.343	742.566
179.125	24.248	924.435	741.322
180.140	23.984	923.260	739.218
181.154	24.106	922.421	738.988
182.169	24.262	921.788	739.060
183.183	24.327	922.033	739.463
184.198	24.662	921.483	740.343
185.213	24.642	920.234	739.193
186.227	24.432	920.012	738.081
187.242	24.712	919.499	738.758
188.256	24.611	918.782	737.701
189.271	24.543	917.866	736.622
190.286	24.766	917.492	737.175
191.300	24.577	916.453	735.498
192.315	24.116	914.982	732.357
193.329	23.479	913.276	728.309
194.344	22.861	912.760	725.296
195.359	23.514	912.921	728.043
196.373	24.350	913.267	731.684
197.388	24.598	913.158	732.550
198.402	24.508	912.413	731.518
199.417	24.389	911.819	730.489
200.432	24.498	911.301	730.457
201.446	24.381	910.517	729.286
202.461	24.028	909.560	727.013
203.475	24.301	909.015	727.626
204.490	23.829	907.765	724.637
205.504	22.721	905.711	718.424
206.519	22.935	905.766	719.275
207.534	24.034	905.908	723.797
208.548	24.105	905.331	723.561
209.563	24.433	905.434	724.910
210.577	24.524	904.273	724.287
211.592	24.195	903.682	722.415
212.607	24.545	903.299	723.463
213.621	24.838	902.873	724.244
214.636	24.669	901.938	722.745
215.650	24.571	901.647	722.054
216.665	24.770	900.536	721.904
217.680	24.635	900.535	721.292
218.694	24.685	900.147	721.122
219.709	24.556	899.032	719.643
220.723	24.110	898.163	717.087
221.738	24.371	897.464	717.517
222.753	24.443	896.970	717.349
223.767	24.494	896.516	717.126
224.782	24.591	895.719	716.813
225.796	24.662	895.320	716.716
226.811	24.845	894.733	716.916
227.826	24.330	893.635	713.912
228.840	23.636	891.939	709.720
229.855	23.497	891.278	708.577
230.869	23.816	891.221	709.743
231.884	23.556	890.043	707.706
232.899	23.607	889.306	707.259
233.913	24.221	890.049	710.234
234.928	24.547	889.558	711.080
235.942	24.362	888.738	709.623
236.957	24.318	888.218	708.973
237.972	24.081	886.864	706.886
238.986	23.999	886.315	706.064
240.001	24.087	886.020	706.114
241.015	24.173	885.535	706.006
242.030	24.179	884.568	705.198
243.045	24.419	884.483	706.015
244.059	24.361	883.583	705.006
245.074	24.613	883.271	705.690
246.088	24.595	882.656	705.063
247.103	24.204	881.465	702.509
248.117	24.314	880.369	702.006
249.132	24.815	880.511	704.029
250.147	25.125	880.703	705.342
251.161	25.233	880.202	705.302
252.176	25.367	879.984	705.591
253.190	25.399	878.902	704.789
254.205	25.341	878.834	704.441
255.220	25.565	878.078	704.652
256.234	25.540	877.277	703.847
257.249	25.388	876.510	702.579
258.263	25.311	876.397	702.122
259.278	25.290	875.429	701.204
260.293	25.335	875.458	701.340
261.307	25.490	874.505	701.122
262.322	25.410	874.030	700.366
263.336	25.272	873.232	699.126
264.351	24.824	872.005	696.339
265.366	23.795	870.013	690.690
266.380	23.231	869.427	687.971
267.395	24.115	869.593	691.475
268.409	25.011	869.763	695.027
269.424	24.742	869.498	693.711
270.439	25.036	868.748	694.190
271.453	25.173	868.322	694.318
272.468	25.134	867.304	693.294
273.482	25.219	867.327	693.580
274.497	25.486	866.794	694.122
275.512	25.229	865.703	692.194
276.526	24.783	864.053	689.097
277.541	24.872	864.173	689.476
278.555	25.225	863.609	690.324
279.570	25.156	862.706	689.276
280.585	24.783	862.356	687.502
281.599	25.129	861.791	688.317
282.614	25.066	861.681	687.926
283.628	24.705	860.347	685.419
284.643	24.287	859.782	683.304
285.657	24.693	859.474	684.554
286.672	24.652	858.492	683.556
287.687	24.225	857.558	681.119
288.701	24.399	857.684	681.827
289.716	24.900	857.439	683.482
290.730	24.533	856.296	681.112
291.745	24.430	855.550	680.066
292.760	24.301	854.794	678.913
293.774	24.163	854.015	677.709
294.789	25.016	854.986	681.669
295.803	25.807	854.571	684.283
296.818	25.730	854.235	683.659
297.833	26.019	853.513	684.120
298.847	25.587	852.547	681.649
299.862	25.202	851.783	679.518
300.876	25.416	851.421	679.977
301.891	25.658	851.386	680.807
302.906	25.730	850.653	680.434
303.920	25.275	849.336	677.603
304.935	25.340	848.514	677.132
305.949	25.555	848.524	677.889
306.964	25.683	847.683	677.640
307.979	25.502	846.975	676.333
308.993	25.364	847.085	675.843
310.008	25.504	847.043	676.275
311.022	25.745	846.304	676.532
312.037	25.735	845.657	675.916
313.052	25.528	844.741	674.348
314.066	25.233	844.493	672.983
315.081	24.784	842.355	669.542
316.095	23.974	841.175	665.514
317.110	24.382	841.727	667.418
318.125	25.376	842.136	671.405
319.139	24.968	840.989	668.905
320.154	23.807	838.970	662.914
321.168	23.358	838.015	660.426
322.183	23.872	838.755	662.865
323.197	24.966	838.897	666.999
324.212	25.191	838.427	667.402
325.227	25.479	838.038	668.105
326.241	25.424	837.937	667.761
327.256	25.300	837.385	666.800
328.270	25.284	836.702	666.138
329.285	25.169	836.260	665.303
330.300	25.183	834.787	664.121
331.314	24.740	834.347	662.074
332.329	24.937	833.705	662.234
333.343	25.389	833.483	663.669
334.358	25.668	833.062	664.307
335.373	25.682	832.529	663.873
336.387	25.643	831.887	663.161
337.402	25.848	832.024	663.965
338.416	25.871	831.565	663.626
339.431	26.112	830.711	663.770
340.446	26.027	830.273	663.052
341.460	26.307	829.719	663.576
342.475	26.101	829.421	662.525
343.489	25.987	828.334	661.179
344.504	25.975	828.356	661.094
345.519	26.342	827.804	661.941
346.533	26.493	827.343	662.063
347.548	26.359	827.170	661.377
348.562	26.606	826.370	661.582
349.577	26.452	825.911	660.594
350.592	26.346	825.439	659.773
351.606	26.210	825.013	658.876
352.621	26.174	824.779	658.499
353.635	26.172	824.216	657.984
354.650	26.178	823.382	657.281
355.665	25.851	822.415	655.263
356.679	24.796	820.460	649.820
357.694	24.684	820.273	649.208
358.708	25.293	820.055	651.185
359.723	25.339	819.395	650.772
360.738	25.338	819.709	650.958
361.752	25.860	819.424	652.567
362.767	25.961	819.295	652.771
363.781	26.367	818.342	653.422
364.796	26.489	818.684	654.077
365.810	26.580	818.479	654.185
366.825	26.818	818.087	654.674
367.840	26.748	817.612	653.984
368.854	26.585	816.765	652.660
369.869	26.256	816.044	650.840
370.883	26.045	815.355	649.475
371.898	26.103	814.696	649.102
372.913	26.129	813.798	648.421
373.927	26.064	813.251	647.694
374.942	26.088	812.893	647.440
375.956	26.302	812.533	647.863
376.971	26.425	811.843	647.697
377.986	26.630	811.308	647.943
379.000	26.664	810.789	647.594
380.015	26.617	810.686	647.288
381.029	26.678	809.864	646.789
382.044	26.607	809.067	645.844
383.059	26.848	808.903	646.516
384.073	26.732	808.079	645.388
385.088	26.619	807.924	644.803
386.102	26.478	807.378	643.810
387.117	26.558	806.387	643.245
388.132	26.344	805.939	642.072
389.146	26.278	805.236	641.219
390.161	25.712	804.092	638.245
391.175	25.719	804.127	638.243
392.190	26.218	804.257	640.057
393.205	26.309	803.473	639.698
394.219	25.421	801.669	635.070
395.234	23.679	799.580	627.211
396.248	23.045	798.347	623.950
397.263	23.987	799.508	628.129
398.278	25.877	800.751	635.728
399.292	26.386	800.304	637.108
400.307	26.082	800.013	635.750
401.321	25.884	799.364	634.481
402.336	26.058	799.304	634.990
403.350	26.243	799.201	635.502
404.365	26.942	798.781	637.570
405.380	27.094	798.502	637.824
406.394	27.352	798.276	638.492
407.409	27.554	798.335	639.192
408.423	27.402	797.606	638.016
409.438	27.163	797.248	636.839
410.453	27.254	796.938	636.852
411.467	27.596	796.189	637.393
412.482	27.421	795.782	636.399
413.496	27.086	795.433	634.893
414.511	27.365	795.316	635.720
415.526	27.343	794.807	635.179
416.540	27.416	793.981	634.716
417.555	27.241	793.842	633.941
418.569	26.979	793.298	632.537
419.584	27.034	792.463	632.008
420.599	27.137	792.124	632.040
421.613	104.781	1274.973	1428.410
422.628	89.975	1345.322	1428.531
