DTS Sentinel unit serial number:	SN413079Multiplexer serial number:	ORYXHardware model number:	OX4-SRSoftware version number:	ORYX F/W v4.00 Oryx Data Collector v3.7.2.0data status	okinstallation	princeton_trtdifferential loss correction	single-endedforward channel	channel 3reverse channel	N/Adate	2019/09/11time	06:54:10forward acquisition time	60.00reverse acquisition time	0.00gamma	496.2192k internal	0.2329k external	0.2329temperature offset calibration	0.9902default loss term (dB/km)	0.3790temperature slope calibration	1.0000multiplexer offset coefficient	1.0000multiplexer slope coefficient	1.0000fibre end	0.00T internal ref (°C)	30.00T ext. ref 1 (°C)	-0.12T ext. ref 2 (°C)	25.40length (m)	temperature (°C)	Stokes	anti-Stokes-747.200	317.839	0.057	-0.108
-746.185	126.492	-0.049	0.063
-745.171	-200.000	0.004	0.193
-744.156	324.121	0.104	0.199
-743.142	110.816	0.385	0.467
-742.127	183.176	0.094	0.140
-741.112	800.000	-0.044	-0.164
-740.098	405.347	0.009	-0.020
-739.083	-38.850	-0.256	0.136
-738.069	-133.978	-0.273	0.034
-737.054	-200.000	-0.021	-0.191
-736.039	5.039	-0.407	0.302
-735.025	151.546	-0.167	0.230
-734.010	10.349	0.182	0.140
-732.996	-64.041	-0.465	-0.191
-731.981	-85.866	0.295	0.092
-730.966	36.494	-0.147	-0.131
-729.952	-169.404	0.209	0.008
-728.937	458.207	-0.129	-0.288
-727.923	34.304	0.233	-0.204
-726.908	444.628	0.082	-0.182
-725.894	800.000	-0.038	-0.164
-724.879	800.000	0.108	0.372
-723.864	-141.127	-0.249	-0.026
-722.850	86.736	0.262	-0.291
-721.835	-35.826	-0.369	-0.201
-720.821	-23.685	-0.264	-0.159
-719.806	-33.091	-0.097	-0.054
-718.791	-200.000	0.038	-0.254
-717.777	800.000	-0.008	0.032
-716.762	-179.122	-0.198	-0.004
-715.748	780.747	0.092	0.253
-714.733	-1.883	-0.115	-0.082
-713.718	800.000	0.047	-0.203
-712.704	-200.000	-0.013	-0.060
-711.689	484.890	-0.101	-0.232
-710.675	-200.000	0.015	0.332
-709.660	35.198	-0.299	0.264
-708.645	-143.934	0.280	-0.027
-707.631	80.129	-0.150	-0.162
-706.616	-10.019	0.267	-0.178
-705.602	-200.000	-0.009	-0.096
-704.587	245.019	0.069	-0.116
-703.572	403.070	0.113	-0.239
-702.558	383.208	-0.040	-0.084
-701.543	52.038	-0.137	0.132
-700.529	106.423	-0.073	-0.087
-699.514	-151.668	0.106	-0.008
-698.499	193.675	-0.058	-0.089
-697.485	84.820	0.098	-0.108
-696.470	800.000	-0.032	0.122
-695.456	-129.123	0.036	0.005
-694.441	-157.577	0.163	0.010
-693.426	-137.220	0.282	-0.032
-692.412	26.579	0.301	-0.253
-691.397	72.900	-0.172	-0.180
-690.383	-116.239	-0.400	-0.075
-689.368	-31.736	-0.351	-0.198
-688.354	-200.000	-0.064	-0.334
-687.339	-121.416	0.221	0.037
-686.324	515.921	0.133	-0.311
-685.310	800.000	-0.064	0.237
-684.295	733.437	-0.093	-0.250
-683.281	298.933	-0.190	-0.352
-682.266	-138.853	0.397	-0.043
-681.251	214.760	0.130	-0.207
-680.237	800.000	0.124	-0.485
-679.222	92.838	-0.137	-0.156
-678.208	8.658	-0.082	0.062
-677.193	-164.226	0.270	0.012
-676.178	-50.977	-0.038	-0.018
-675.164	137.669	-0.142	-0.187
-674.149	-53.009	0.124	-0.057
-673.135	59.380	0.247	-0.245
-672.120	160.146	0.059	-0.082
-671.105	652.167	-0.136	-0.351
-670.091	300.417	-0.138	-0.256
-669.076	-143.370	0.222	0.021
-668.062	6.737	-0.240	0.179
-667.047	-200.000	-0.018	-0.202
-666.032	-200.000	-0.014	-0.313
-665.018	-47.688	0.240	0.117
-664.003	156.274	-0.047	-0.065
-662.989	634.782	-0.044	0.113
-661.974	-34.837	0.183	0.100
-660.959	-74.465	-0.030	-0.011
-659.945	800.000	-0.112	-0.412
-658.930	-98.802	0.099	0.025
-657.916	800.000	0.028	-0.113
-656.901	-52.936	-0.415	-0.192
-655.886	141.404	-0.080	-0.106
-654.872	223.985	-0.026	-0.041
-653.857	-92.197	0.031	-0.009
-652.843	-200.000	-0.003	0.022
-651.828	135.086	-0.058	-0.076
-650.814	377.268	-0.094	0.193
-649.799	9.691	0.268	-0.204
-648.784	-181.047	0.309	-0.006
-647.770	186.844	0.107	-0.159
-646.755	27.746	-0.211	0.178
-645.741	181.396	-0.018	0.027
-644.726	-76.333	-0.058	-0.021
-643.711	-102.527	-0.038	-0.009
-642.697	-195.894	-0.080	-0.001
-641.682	-13.001	0.442	-0.289
-640.668	-25.239	0.312	-0.185
-639.653	-178.148	-0.082	-0.002
-638.638	-13.382	0.169	-0.110
-637.624	-81.081	0.119	0.039
-636.609	167.102	0.192	-0.273
-635.595	-200.000	-0.008	0.060
-634.580	-5.507	0.132	0.091
-633.565	-135.738	-0.127	0.015
-632.551	-73.328	-0.237	0.087
-631.536	800.000	0.081	0.233
-630.522	-141.199	0.340	0.035
-629.507	800.000	0.035	0.147
-628.492	-101.142	0.256	0.063
-627.478	67.796	-0.162	-0.167
-626.463	3.200	0.042	-0.031
-625.449	-79.748	-0.074	-0.025
-624.434	16.347	-0.122	-0.097
-623.419	-75.933	-0.167	-0.059
-622.405	-133.776	-0.176	-0.022
-621.390	800.000	0.031	-0.100
-620.376	-200.000	0.073	0.342
-619.361	-33.895	0.155	0.085
-618.346	-200.000	0.033	0.162
-617.332	-174.730	0.303	-0.009
-616.317	205.582	-0.168	-0.262
-615.303	-96.282	-0.251	0.067
-614.288	-200.000	0.034	-0.160
-613.273	-157.863	-0.123	-0.007
-612.259	-200.000	0.047	-0.209
-611.244	-42.751	0.293	-0.149
-610.230	238.287	0.135	-0.224
-609.215	-200.000	-0.008	-0.502
-608.201	351.061	-0.053	-0.105
-607.186	-138.040	-0.298	-0.033
-606.171	-124.925	-0.346	0.053
-605.157	158.912	0.162	-0.226
-604.142	800.000	-0.046	-0.189
-603.128	53.344	-0.084	-0.081
-602.113	800.000	-0.015	-0.059
-601.098	-127.960	0.282	-0.041
-600.084	121.219	0.018	-0.022
-599.069	-100.454	-0.175	-0.043
-598.055	81.179	-0.221	-0.239
-597.040	-45.413	0.225	-0.112
-596.025	-200.000	-0.019	0.134
-595.011	800.000	-0.113	-0.313
-593.996	-70.014	0.055	-0.021
-592.982	11.359	-0.228	-0.175
-591.967	-50.886	0.191	0.090
-590.952	-200.000	0.019	0.126
-589.938	695.917	-0.048	0.127
-588.923	652.891	0.080	0.204
-587.909	-104.117	-0.392	-0.091
-586.894	163.651	-0.138	0.194
-585.879	26.159	0.291	0.243
-584.865	-200.000	0.015	-0.152
-583.850	-32.546	-0.295	0.164
-582.836	-200.000	0.039	-0.220
-581.821	800.000	-0.070	-0.304
-580.806	-137.630	0.097	0.011
-579.792	-5.170	0.197	0.136
-578.777	380.150	-0.068	0.140
-577.763	-69.700	0.257	0.098
-576.748	-200.000	0.015	-0.106
-575.733	-85.061	0.232	-0.073
-574.719	-78.647	0.129	0.044
-573.704	153.664	-0.305	-0.418
-572.690	-126.742	0.177	-0.026
-571.675	-73.199	0.238	-0.087
-570.661	-64.955	0.274	0.111
-569.646	146.563	0.153	-0.205
-568.631	0.887	-0.052	-0.037
-567.617	165.640	-0.055	0.078
-566.602	60.655	0.073	-0.073
-565.588	-161.836	0.497	0.025
-564.573	800.000	0.101	-0.300
-563.558	-23.719	-0.232	0.139
-562.544	800.000	0.055	-0.182
-561.529	-123.317	0.320	-0.051
-560.515	11.926	-0.091	0.070
-559.500	87.011	0.222	0.246
-558.485	-149.091	-0.310	-0.025
-557.471	69.491	-0.114	-0.118
-556.456	800.000	0.111	-0.354
-555.442	432.351	0.155	-0.336
-554.427	-200.000	-0.012	-0.300
-553.412	800.000	-0.044	-0.191
-552.398	98.901	-0.090	-0.104
-551.383	-200.000	0.022	-0.386
-550.369	566.089	-0.173	0.420
-549.354	-91.109	0.150	-0.043
-548.339	800.000	0.083	-0.307
-547.325	60.099	0.311	-0.308
-546.310	-157.000	-0.495	-0.030
-545.296	-59.707	0.152	-0.065
-544.281	-12.174	0.102	0.067
-543.266	-128.997	-0.315	0.044
-542.252	73.377	-0.030	-0.032
-541.237	-152.369	0.219	0.016
-540.223	-75.591	0.157	0.056
-539.208	-130.201	0.225	0.031
-538.193	800.000	-0.042	-0.175
-537.179	-200.000	0.020	0.148
-536.164	459.291	-0.052	-0.116
-535.150	-150.413	-0.083	-0.006
-534.135	-68.285	-0.287	-0.111
-533.121	-200.000	0.079	0.393
-532.106	-8.173	0.244	-0.164
-531.091	537.605	-0.135	-0.320
-530.077	800.000	0.178	0.529
-529.062	-53.886	-0.260	0.118
-528.048	-200.000	-0.022	0.393
-527.033	-88.345	-0.168	0.050
-526.018	-200.000	0.004	-0.035
-525.004	7.355	0.356	0.265
-523.989	178.491	0.204	0.297
-522.975	-99.504	-0.174	0.044
-521.960	118.026	-0.133	-0.164
-520.945	-123.791	-0.324	0.051
-519.931	343.877	0.058	-0.114
-518.916	-95.371	-0.241	0.065
-517.902	-94.126	0.271	-0.074
-516.887	800.000	-0.035	0.152
-515.872	33.483	-0.160	0.139
-514.858	124.424	-0.154	-0.194
-513.843	800.000	0.019	0.054
-512.829	-30.550	-0.232	0.131
-511.814	-65.491	0.160	0.064
-510.799	-20.954	-0.093	0.057
-509.785	-84.454	-0.276	-0.087
-508.770	-33.673	-0.213	0.117
-507.756	-15.622	0.209	-0.133
-506.741	-76.696	-0.314	0.110
-505.726	-53.627	-0.187	0.085
-504.712	-2.894	0.110	-0.077
-503.697	-120.582	0.251	-0.042
-502.683	297.763	0.150	-0.276
-501.668	166.611	-0.136	-0.192
-500.653	-200.000	0.021	0.320
-499.639	800.000	0.006	0.026
-498.624	-46.923	0.246	-0.120
-497.610	22.258	-0.286	0.233
-496.595	-177.243	0.420	0.010
-495.581	81.089	-0.120	0.129
-494.566	-200.000	0.039	0.213
-493.551	315.585	0.077	0.145
-492.537	-97.982	0.204	0.053
-491.522	-42.093	-0.212	-0.108
-490.508	-137.619	0.286	-0.032
-489.493	31.000	-0.194	-0.166
-488.478	82.037	-0.046	0.050
-487.464	-134.495	0.353	-0.043
-486.449	-163.492	-0.122	-0.006
-485.435	218.140	0.011	0.018
-484.420	800.000	-0.071	-0.220
-483.405	204.586	0.123	0.190
-482.391	56.882	0.185	0.180
-481.376	-200.000	-0.023	-0.226
-480.362	359.187	-0.089	-0.177
-479.347	-200.000	-0.044	0.250
-478.332	164.457	-0.182	0.256
-477.318	-200.000	0.043	-0.351
-476.303	-25.510	0.107	0.063
-475.289	184.594	0.029	-0.043
-474.274	227.111	0.170	-0.275
-473.259	84.251	0.255	0.277
-472.245	159.366	0.147	0.204
-471.230	321.377	0.046	0.088
-470.216	-49.607	-0.074	0.035
-469.201	800.000	-0.031	-0.104
-468.186	138.813	0.060	-0.078
-467.172	-64.321	0.145	-0.059
-466.157	800.000	-0.051	-0.176
-465.143	-148.700	-0.463	-0.038
-464.128	-131.641	0.233	-0.031
-463.113	509.377	-0.183	0.424
-462.099	-67.961	0.028	-0.011
-461.084	37.828	-0.145	0.129
-460.070	-71.898	-0.420	0.156
-459.055	217.857	0.131	-0.208
-458.040	173.754	-0.104	-0.150
-457.026	-151.962	-0.326	0.024
-456.011	-80.548	0.258	0.086
-454.997	-83.982	0.177	0.056
-453.982	-89.886	0.247	0.072
-452.968	33.433	-0.258	-0.223
-451.953	98.991	0.132	-0.152
-450.938	663.414	0.082	-0.211
-449.924	199.686	0.194	0.296
-448.909	-200.000	-0.001	-0.145
-447.895	-200.000	-0.049	0.269
-446.880	-200.000	0.008	0.145
-445.865	800.000	0.106	0.445
-444.851	-200.000	-0.052	-0.229
-443.836	468.416	0.077	-0.173
-442.822	192.870	-0.038	0.058
-441.807	44.758	-0.241	-0.221
-440.792	-200.000	-0.018	0.147
-439.778	800.000	-0.070	0.263
-438.763	160.426	0.149	-0.207
-437.749	5.088	-0.583	-0.427
-436.734	345.280	-0.063	0.124
-435.719	253.177	0.112	0.190
-434.705	800.000	0.049	0.190
-433.690	-200.000	0.045	0.223
-432.676	72.890	-0.141	0.147
-431.661	66.220	-0.188	0.190
-430.646	292.668	0.286	0.518
-429.632	-200.000	0.010	0.204
-428.617	424.569	-0.046	0.099
-427.603	-155.628	-0.177	0.011
-426.588	125.424	-0.136	-0.171
-425.573	-76.612	-0.310	-0.108
-424.559	-50.920	-0.317	-0.148
-423.544	199.055	0.102	-0.155
-422.530	-200.000	0.047	-0.241
-421.515	78.187	-0.155	0.164
-420.500	-113.743	-0.272	0.053
-419.486	800.000	-0.117	0.368
-418.471	-2.490	-0.093	0.065
-417.457	-65.968	-0.192	-0.076
-416.442	325.843	0.026	0.049
-415.428	2.114	-0.400	0.287
-414.413	-200.000	-0.009	0.239
-413.398	-108.496	0.192	-0.041
-412.384	21.009	-0.145	0.117
-411.369	-115.167	-0.159	0.030
-410.355	290.152	0.108	0.195
-409.340	-138.703	0.288	-0.031
-408.325	-17.377	-0.289	0.181
-407.311	-93.476	-0.133	0.037
-406.296	54.941	-0.032	-0.030
-405.282	-86.545	-0.237	-0.072
-404.267	-114.238	-0.155	0.030
-403.252	22.049	0.160	0.130
-402.238	-181.570	0.153	0.003
-401.223	-200.000	-0.038	-0.181
-400.209	800.000	0.012	0.039
-399.194	344.327	0.118	-0.230
-398.179	6.170	0.254	-0.187
-397.165	-39.565	0.129	0.067
-396.150	-35.085	0.114	-0.062
-395.136	-200.000	-0.016	0.233
-394.121	134.872	0.234	0.302
-393.106	222.311	0.081	-0.129
-392.092	-200.000	-0.042	-0.333
-391.077	-15.566	0.157	-0.099
-390.063	125.429	-0.192	0.241
-389.048	-200.000	-0.014	0.289
-388.033	215.639	0.019	-0.030
-387.019	-200.000	-0.027	-0.157
-386.004	800.000	-0.022	0.088
-384.990	75.397	0.160	-0.168
-383.975	-159.852	-0.381	-0.021
-382.960	42.796	0.067	-0.061
-381.946	800.000	0.092	-0.252
-380.931	151.211	-0.081	-0.109
-379.917	297.027	0.063	-0.115
-378.902	-78.258	-0.297	0.101
-377.888	796.765	0.089	-0.243
-376.873	10.608	0.220	-0.167
-375.858	800.000	-0.051	-0.142
-374.844	-30.479	0.402	0.226
-373.829	33.734	0.231	0.199
-372.815	-98.215	-0.462	0.118
-371.800	-200.000	-0.050	0.272
-370.785	-200.000	0.013	-0.152
-369.771	197.453	0.121	-0.183
-368.756	-200.000	0.010	-0.251
-367.742	130.514	0.064	0.081
-366.727	-113.853	-0.213	0.041
-365.712	3.834	-0.126	0.091
-364.698	-8.818	-0.101	0.067
-363.683	-200.000	0.015	0.128
-362.669	-200.000	-0.012	-0.122
-361.654	-200.000	-0.021	-0.133
-360.639	-25.552	-0.135	-0.079
-359.625	265.977	-0.152	-0.264
-358.610	-200.000	-0.016	-0.163
-357.596	-114.697	0.238	-0.045
-356.581	661.505	-0.128	-0.328
-355.566	53.002	0.171	0.163
-354.552	-30.573	0.178	0.100
-353.537	-124.066	-0.244	0.038
-352.523	113.536	0.292	0.351
-351.508	61.491	0.248	0.245
-350.493	221.959	0.108	0.172
-349.479	17.563	-0.040	0.032
-348.464	-200.000	0.009	0.404
-347.450	-137.437	-0.132	0.015
-346.435	38.952	0.139	0.123
-345.420	-200.000	0.047	0.299
-344.406	-200.000	0.022	0.290
-343.391	-43.965	-0.076	-0.038
-342.377	-200.000	-0.068	-0.319
-341.362	445.708	-0.071	-0.155
-340.348	-200.000	-0.032	0.141
-339.333	-200.000	0.028	0.211
-338.318	-28.108	0.132	-0.076
-337.304	-200.000	0.007	-0.317
-336.289	-143.830	-0.483	-0.045
-335.275	-78.901	0.020	-0.007
-334.260	-10.766	0.108	0.070
-333.245	231.729	0.017	-0.027
-332.231	800.000	-0.091	-0.321
-331.216	800.000	-0.043	0.132
-330.202	-200.000	-0.040	0.237
-329.187	376.007	-0.039	0.078
-328.172	-19.779	0.137	-0.084
-327.158	28.785	-0.255	0.214
-326.143	-186.589	0.262	-0.004
-325.129	140.057	-0.042	0.055
-324.114	762.997	-0.078	0.211
-323.099	-65.812	-0.412	0.163
-322.085	-10.894	0.229	0.150
-321.070	-94.694	0.134	0.036
-320.056	-200.000	0.058	-0.254
-319.041	-200.000	0.001	0.251
-318.026	800.000	-0.074	0.265
-317.012	-200.000	-0.056	-0.256
-315.997	-94.402	-0.200	-0.054
-314.983	800.000	-0.064	0.262
-313.968	-150.022	0.154	0.012
-312.953	-200.000	0.057	0.347
-311.939	800.000	-0.069	-0.277
-310.924	-200.000	0.337	0.001
-309.910	173.877	-0.189	0.271
-308.895	-200.000	-0.049	0.531
-307.880	706.596	0.123	0.322
-306.866	100.084	0.180	-0.207
-305.851	-35.607	-0.348	-0.187
-304.837	-73.312	0.270	-0.098
-303.822	-120.838	-0.204	0.034
-302.807	-200.000	0.004	0.108
-301.793	-75.479	-0.377	-0.133
-300.778	-200.000	0.045	-0.391
-299.764	-148.860	-0.296	-0.024
-298.749	519.312	0.106	0.245
-297.735	-44.142	-0.271	0.135
-296.720	-118.762	-0.170	-0.030
-295.705	-200.000	-0.046	0.366
-294.691	-200.000	0.031	-0.263
-293.676	-23.797	0.255	0.151
-292.662	800.000	-0.147	0.415
-291.647	46.560	0.056	0.051
-290.632	-103.923	0.164	-0.038
-289.618	-76.670	-0.147	-0.051
-288.603	4.646	-0.107	-0.078
-287.589	60.222	-0.223	-0.218
-286.574	-28.382	-0.200	0.114
-285.559	-99.793	0.311	-0.077
-284.545	-18.539	0.273	-0.168
-283.530	-38.431	0.166	0.087
-282.516	800.000	-0.059	-0.243
-281.501	-70.502	0.120	-0.045
-280.486	-200.000	0.022	0.106
-279.472	9.699	-0.164	0.123
-278.457	751.603	-0.077	0.207
-277.443	-50.026	0.175	0.082
-276.428	-141.268	-0.161	0.016
-275.413	376.483	-0.048	0.097
-274.399	-117.180	0.266	-0.048
-273.384	-194.271	-0.372	0.003
-272.370	48.177	-0.351	0.325
-271.355	-163.139	0.233	-0.011
-270.340	-200.000	-0.054	-0.262
-269.326	-33.803	-0.351	-0.191
-268.311	89.034	-0.246	0.271
-267.297	-200.000	0.043	0.228
-266.282	666.022	0.033	0.084
-265.267	-189.874	0.263	-0.003
-264.253	83.264	-0.127	0.136
-263.238	44.452	-0.084	0.076
-262.224	800.000	-0.032	0.117
-261.209	9.423	-0.204	-0.152
-260.195	-133.280	0.120	-0.015
-259.180	800.000	-0.019	-0.070
-258.165	176.888	0.232	-0.334
-257.151	358.459	0.114	-0.225
-256.136	-153.252	-0.032	0.002
-255.122	178.408	-0.136	-0.196
-254.107	-200.000	0.009	-0.161
-253.092	-200.000	-0.042	0.410
-252.078	-101.541	0.096	-0.023
-251.063	11.677	0.201	0.152
-250.049	-200.000	0.009	0.146
-249.034	-200.000	-0.041	-0.205
-248.019	800.000	-0.037	-0.111
-247.005	-192.352	-0.098	0.001
-245.990	-172.533	-0.033	-0.001
-244.976	-146.721	0.167	0.014
-243.961	-200.000	0.016	0.302
-242.946	38.167	-0.094	0.083
-241.932	41.768	0.134	0.120
-240.917	-184.616	0.194	-0.003
-239.903	-39.841	-0.156	-0.081
-238.888	-61.395	0.232	0.096
-237.873	67.113	0.105	-0.106
-236.859	-200.000	0.005	-0.037
-235.844	147.500	0.256	-0.341
-234.830	22.853	0.099	0.080
-233.815	159.500	0.177	0.244
-232.800	-200.000	-0.004	0.266
-231.786	-61.419	-0.344	0.143
-230.771	-200.000	-0.035	-0.240
-229.757	-33.810	-0.098	-0.054
-228.742	270.703	-0.237	0.412
-227.727	-93.878	0.185	0.050
-226.713	-114.496	0.230	0.044
-225.698	75.632	-0.120	-0.125
-224.684	477.859	0.093	0.209
-223.669	2.567	0.133	0.095
-222.655	-63.267	-0.393	-0.160
-221.640	123.672	0.257	-0.318
-220.625	-173.388	-0.095	0.003
-219.611	255.980	0.195	-0.331
-218.596	105.461	0.054	-0.062
-217.582	571.899	-0.142	0.342
-216.567	-85.081	0.143	-0.044
-215.552	-16.048	0.242	-0.152
-214.538	-81.047	0.172	0.056
-213.523	-158.977	-0.040	-0.002
-212.509	361.703	-0.248	-0.491
-211.494	-105.981	-0.143	-0.032
-210.479	-200.000	-0.042	-0.382
-209.465	-77.838	0.212	0.072
-208.450	-200.000	0.018	-0.093
-207.436	-109.979	-0.112	-0.023
-206.421	78.652	0.171	-0.180
-205.406	196.943	-0.081	-0.122
-204.392	-200.000	-0.005	0.258
-203.377	-164.345	-0.236	0.011
-202.363	-95.754	0.339	-0.089
-201.348	30.803	0.178	0.150
-200.333	800.000	-0.035	-0.111
-199.319	-28.927	0.092	0.052
-198.304	-13.436	0.174	-0.111
-197.290	148.012	-0.220	-0.292
-196.275	578.355	0.037	0.089
-195.260	800.000	-0.046	-0.193
-194.246	-70.063	0.248	0.093
-193.231	72.196	0.165	-0.170
-192.217	-139.776	-0.008	-0.001
-191.202	246.888	0.122	0.203
-190.187	-200.000	0.005	0.075
-189.173	109.376	0.190	0.225
-188.158	-4.957	-0.054	0.037
-187.144	-59.696	-0.266	-0.112
-186.129	-200.000	-0.022	-0.135
-185.114	435.865	0.116	-0.249
-184.100	209.937	-0.335	-0.519
-183.085	-89.117	0.126	0.037
-182.071	-200.000	0.017	0.443
-181.056	-200.000	0.025	0.129
-180.042	-200.000	-0.008	0.330
-179.027	301.694	-0.156	0.284
-178.012	800.000	0.063	-0.188
-176.998	27.850	-0.094	-0.078
-175.983	-30.748	-0.212	-0.118
-174.969	-22.260	0.226	-0.135
-173.954	378.051	0.033	0.066
-172.939	176.938	-0.235	0.337
-171.925	21.274	0.247	-0.198
-170.910	155.280	-0.141	-0.191
-169.896	612.577	-0.028	-0.069
-168.881	-170.777	-0.206	-0.007
-167.866	-94.446	0.089	0.024
-166.852	-153.499	-0.224	-0.015
-165.837	351.282	0.032	-0.063
-164.823	-16.865	-0.103	0.064
-163.808	726.518	-0.100	0.264
-162.793	41.356	0.258	-0.230
-161.779	-12.155	-0.257	-0.166
-160.764	800.000	0.016	-0.066
-159.750	343.223	0.096	-0.184
-158.735	-4.563	0.235	0.160
-157.720	-113.455	0.128	-0.025
-156.706	-133.523	0.302	0.037
-155.691	-200.000	-0.084	-0.429
-154.677	24.026	-0.062	0.050
-153.662	61.240	-0.135	-0.132
-152.647	153.805	0.058	0.078
-151.633	6.734	-0.109	0.080
-150.618	32.001	0.221	0.188
-149.604	-55.802	0.418	-0.184
-148.589	473.026	0.087	0.194
-147.574	-87.957	0.259	0.077
-146.560	396.548	-0.129	-0.264
-145.545	-25.451	0.364	0.212
-144.531	524.583	-0.062	0.143
-143.516	800.000	-0.025	-0.084
-142.502	14.504	-0.094	0.073
-141.487	-149.992	-0.302	0.023
-140.472	-69.303	0.461	0.174
-139.458	-120.974	-0.072	-0.012
-138.443	102.727	-0.064	-0.074
-137.429	307.266	0.103	0.189
-136.414	-91.148	0.353	-0.100
-135.399	-129.107	-0.123	0.017
-134.385	51.384	-0.091	-0.085
-133.370	800.000	0.047	-0.162
-132.356	-148.251	0.099	0.008
-131.341	-200.000	-0.013	0.107
-130.326	21.633	0.170	0.136
-129.312	725.497	-0.067	-0.177
-128.297	-132.537	0.350	0.044
-127.283	-46.197	-0.446	0.216
-126.268	22.887	-0.197	-0.159
-125.253	-122.713	-0.065	-0.010
-124.239	-12.159	0.336	-0.216
-123.224	-74.961	-0.265	-0.093
-122.210	-200.000	-0.002	0.146
-121.195	-44.626	-0.286	-0.141
-120.180	800.000	-0.026	-0.081
-119.166	76.951	-0.180	0.188
-118.151	-200.000	0.003	-0.249
-117.137	-112.906	0.135	0.026
-116.122	-59.173	-0.146	0.062
-115.107	-77.961	0.129	0.044
-114.093	-142.987	-0.184	0.017
-113.078	6.072	0.292	-0.213
-112.064	-90.186	-0.371	-0.106
-111.049	-11.642	-0.081	-0.052
-110.034	-200.000	-0.003	-0.378
-109.020	-131.006	0.216	0.028
-108.005	-23.145	-0.181	-0.107
-106.991	-200.000	-0.044	0.255
-105.976	134.924	0.137	0.175
-104.962	800.000	0.021	0.086
-103.947	-200.000	0.017	-0.105
-102.932	-46.685	0.076	-0.036
-101.918	-200.000	0.014	0.078
-100.903	-26.345	0.160	-0.092
-99.889	-50.300	0.277	-0.129
-98.874	-200.000	-0.053	0.281
-97.859	285.741	-0.047	-0.084
-96.845	-13.326	0.051	0.033
-95.830	-170.715	-0.407	0.014
-94.816	-200.000	-0.054	0.271
-93.801	444.261	0.048	-0.104
-92.786	55.190	0.096	0.091
-91.772	203.230	-0.061	0.093
-90.757	-58.733	-0.001	0.000
-89.743	-111.463	-0.264	0.053
-88.728	-200.000	-0.058	-0.258
-87.713	-114.690	0.072	0.013
-86.699	800.000	-0.028	0.111
-85.684	-200.000	0.013	-0.271
-84.670	-86.889	0.292	-0.088
-83.655	765.998	-0.145	0.387
-82.640	188.308	-0.184	0.270
-81.626	218.706	0.243	0.382
-80.611	800.000	-0.102	0.340
-79.597	-53.569	0.083	0.037
-78.582	151.368	-0.223	-0.298
-77.567	311.958	0.040	-0.074
-76.553	-129.887	-0.059	-0.008
-75.538	55.669	0.188	-0.178
-74.524	-165.681	-0.468	0.020
-73.509	-106.299	0.183	0.040
-72.494	237.321	0.144	0.234
-71.480	-53.564	0.144	0.065
-70.465	-200.000	-0.008	-0.217
-69.451	1.753	0.138	-0.097
-68.436	-200.000	-0.058	-0.348
-67.422	-200.000	0.008	0.070
-66.407	-126.101	-0.286	0.042
-65.392	-21.385	0.346	-0.207
-64.378	800.000	-0.054	0.151
-63.363	-45.939	-0.086	0.042
-62.349	15.402	0.159	-0.122
-61.334	40.376	-1.028	-0.907
-60.319	164.641	0.400	0.553
-59.305	-200.000	-0.035	-1.267
-58.290	279.466	0.686	1.201
-57.276	-200.000	0.364	1.674
-56.261	-200.000	102.699	601.361
-55.246	509.394	1473.247	3357.179
-54.232	180.166	2673.947	3844.392
-53.217	112.168	2185.159	2589.681
-52.203	40.742	1704.606	1506.964
-51.188	33.034	1514.057	1286.236
-50.173	30.783	1486.876	1248.025
-49.159	50.857	1540.620	1430.725
-48.144	51.718	1558.201	1452.884
-47.130	33.478	1514.881	1289.753
-46.115	30.393	1499.811	1256.043
-45.100	30.147	1496.650	1251.686
-44.086	30.117	1494.478	1249.617
-43.071	29.995	1492.683	1247.247
-42.057	29.983	1490.731	1245.484
-41.042	30.009	1489.327	1244.436
-40.027	29.980	1487.812	1242.928
-39.013	30.004	1486.284	1241.760
-37.998	29.911	1485.401	1240.352
-36.984	30.018	1483.721	1239.613
-35.969	29.885	1482.431	1237.600
-34.954	29.997	1480.830	1236.959
-33.940	30.011	1479.606	1235.987
-32.925	29.969	1478.819	1234.997
-31.911	29.949	1477.268	1233.519
-30.896	30.150	1475.445	1233.285
-29.881	30.106	1474.626	1232.262
-28.867	30.125	1473.232	1231.176
-27.852	30.125	1472.024	1230.113
-26.838	30.086	1470.369	1228.423
-25.823	30.106	1468.500	1226.949
-24.809	30.035	1467.324	1225.444
-23.794	30.037	1465.813	1224.150
-22.779	30.027	1464.827	1223.211
-21.765	30.002	1463.794	1222.132
-20.750	30.040	1462.773	1221.481
-19.736	30.056	1461.515	1220.490
-18.721	29.942	1460.788	1219.084
-17.706	29.963	1459.259	1217.896
-16.692	30.011	1458.122	1217.215
-15.677	30.050	1457.047	1216.525
-14.663	30.014	1456.409	1215.709
-13.648	29.986	1455.469	1214.689
-12.633	30.031	1454.860	1214.429
-11.619	29.959	1453.448	1212.732
-10.604	29.921	1453.010	1212.069
-9.590	29.864	1452.089	1210.878
-8.575	30.023	1450.811	1210.803
-7.560	29.971	1449.761	1209.545
-6.546	29.987	1448.914	1208.892
-5.531	29.882	1448.375	1207.709
-4.517	29.938	1447.666	1207.434
-3.502	29.948	1446.170	1206.202
-2.487	30.002	1445.449	1205.904
-1.473	29.942	1444.406	1204.597
-0.458	29.961	1442.922	1203.434
0.556	27.531	1434.003	1193.770
1.571	25.038	1409.657	1157.323
2.586	22.041	1351.724	1091.072
3.600	20.683	1270.932	1017.827
4.615	19.412	1226.347	974.854
5.629	16.882	1171.672	917.634
6.644	8.644	1087.553	810.128
7.659	1.339	1046.440	743.748
8.673	0.070	1041.116	733.709
9.688	-0.166	1037.793	730.157
10.702	-0.256	1036.068	728.444
11.717	-0.107	1034.255	727.825
12.731	3.245	1038.249	746.854
13.746	12.237	1050.973	799.931
14.761	18.860	1059.871	839.080
15.775	20.710	1061.557	849.376
16.790	20.931	1061.278	850.158
17.804	20.874	1060.001	848.783
18.819	20.673	1059.427	847.268
19.834	20.729	1058.828	846.986
20.848	20.858	1058.656	847.404
21.863	20.811	1058.274	846.792
22.877	20.932	1057.432	846.635
23.892	20.868	1056.900	845.820
24.907	20.746	1056.009	844.439
25.921	20.758	1055.845	844.295
26.936	20.839	1054.234	843.321
27.950	20.865	1053.414	842.720
28.965	20.764	1052.390	841.335
29.980	20.699	1050.378	839.338
30.994	20.653	1049.326	838.205
32.009	20.792	1048.783	838.366
33.023	20.885	1048.045	838.149
34.038	20.734	1046.772	836.328
35.053	20.734	1045.720	835.418
36.067	20.802	1045.651	835.610
37.082	20.864	1044.584	834.982
38.096	20.930	1043.476	834.338
39.111	21.078	1043.099	834.672
40.126	21.212	1042.165	834.493
41.140	21.220	1040.354	833.006
42.155	20.846	1039.693	830.618
43.169	20.459	1038.077	827.414
44.184	20.506	1036.472	826.284
45.199	20.549	1036.376	826.338
46.213	20.548	1035.008	825.170
47.228	20.476	1033.717	823.725
48.242	20.666	1033.001	823.985
49.257	20.723	1032.744	823.974
50.271	20.696	1031.708	822.946
51.286	21.014	1030.481	823.396
52.301	20.946	1030.102	822.701
53.315	20.914	1029.398	821.916
54.330	20.887	1028.724	821.179
55.344	20.870	1027.644	820.165
56.359	20.897	1026.571	819.363
57.374	20.906	1025.972	818.852
58.388	20.722	1024.786	816.969
59.403	20.724	1024.030	816.306
60.417	20.600	1023.518	815.241
61.432	20.489	1022.676	813.981
62.447	20.597	1021.670	813.614
63.461	20.746	1020.988	813.695
64.476	20.728	1020.395	813.067
65.490	20.741	1019.451	812.304
66.505	20.615	1018.383	810.790
67.520	20.576	1017.569	809.889
68.534	20.758	1016.544	809.850
69.549	20.531	1015.880	808.192
70.563	20.227	1014.580	805.675
71.578	20.196	1013.926	804.940
72.593	20.170	1013.183	804.161
73.607	20.115	1011.609	802.582
74.622	20.155	1010.652	801.941
75.636	20.423	1009.935	802.538
76.651	20.452	1009.849	802.534
77.666	20.338	1008.973	801.237
78.680	20.292	1007.894	800.099
79.695	20.373	1007.299	799.929
80.709	20.441	1006.623	799.637
81.724	20.477	1005.826	799.094
82.739	20.503	1004.682	798.234
83.753	20.409	1004.054	797.234
84.768	20.791	1003.610	798.566
85.782	20.857	1003.076	798.373
86.797	21.152	1001.766	798.608
87.812	21.139	1001.119	797.962
88.826	20.951	999.922	796.080
89.841	20.961	999.312	795.567
90.855	21.145	998.191	795.444
91.870	21.083	997.413	794.470
92.884	21.087	997.028	794.114
93.899	20.885	995.786	792.135
94.914	20.837	994.939	791.173
95.928	21.064	994.343	791.662
96.943	21.009	993.657	790.793
97.957	20.700	992.316	788.259
98.972	20.583	990.964	786.584
99.987	20.311	989.835	784.392
101.001	20.528	989.226	784.817
102.016	20.824	988.823	785.766
103.030	20.855	988.018	785.197
104.045	20.573	987.160	783.173
105.060	20.622	985.368	781.902
106.074	20.487	984.220	780.314
107.089	20.495	983.449	779.672
108.103	20.745	983.786	780.993
109.118	20.983	982.730	781.152
110.133	20.662	981.570	778.722
111.147	20.691	980.166	777.668
112.162	20.504	978.898	775.760
113.176	20.390	977.551	774.114
114.191	20.467	977.165	774.085
115.206	20.641	976.299	774.106
116.220	20.269	975.117	771.444
117.235	20.037	974.489	769.852
118.249	20.181	973.810	769.887
119.264	20.263	972.769	769.359
120.279	20.091	972.194	768.074
121.293	20.332	970.996	768.125
122.308	20.400	970.487	767.954
123.322	20.361	969.705	767.096
124.337	20.398	968.384	766.145
125.352	20.199	967.010	764.113
126.366	19.932	965.447	761.640
127.381	19.527	964.114	758.737
128.395	20.076	963.791	760.827
129.410	20.720	963.552	763.396
130.424	20.779	962.567	762.807
131.439	20.822	961.641	762.193
132.454	20.789	960.999	761.475
133.468	20.784	959.851	760.476
134.483	20.644	959.343	759.397
135.497	20.812	958.539	759.423
136.512	20.950	957.848	759.412
137.527	21.118	956.794	759.237
138.541	20.944	956.842	758.453
139.556	21.004	955.743	757.774
140.570	20.875	955.311	756.807
141.585	21.024	953.974	756.326
142.600	21.124	953.201	756.080
143.614	20.849	952.269	754.084
144.629	21.091	952.003	754.852
145.643	21.313	950.991	754.945
146.658	21.137	949.983	753.314
147.673	21.060	948.814	751.992
148.687	20.858	947.938	750.360
149.702	20.861	946.557	749.214
150.716	20.699	945.593	747.690
151.731	20.561	945.385	746.865
152.746	20.834	944.341	747.146
153.760	21.022	943.185	746.968
154.775	21.182	942.736	747.232
155.789	21.269	941.587	746.630
156.804	21.217	940.570	745.535
157.819	21.111	939.907	744.491
158.833	21.174	938.795	743.810
159.848	21.229	938.542	743.780
160.862	21.286	937.684	743.277
161.877	21.292	936.585	742.367
162.892	21.075	935.822	740.773
163.906	21.267	935.075	740.931
164.921	21.172	934.250	739.809
165.935	21.159	932.869	738.594
166.950	21.088	931.969	737.517
167.964	21.162	930.846	736.874
168.979	21.259	929.623	736.253
169.994	21.150	928.750	735.034
171.008	20.924	928.039	733.456
172.023	21.156	927.249	733.743
173.037	21.227	926.407	733.310
174.052	21.130	925.287	731.951
175.067	20.830	924.168	729.746
176.081	20.904	923.330	729.327
177.096	20.943	922.833	729.035
178.110	20.975	922.079	728.506
179.125	20.799	920.827	726.719
180.140	20.440	919.669	724.244
181.154	20.531	919.068	724.087
182.169	20.687	918.692	724.375
183.183	20.793	918.452	724.565
184.198	21.165	917.987	725.681
185.213	21.015	917.049	724.253
186.227	21.131	916.063	723.889
187.242	21.006	916.246	723.449
188.256	21.141	915.038	722.991
189.271	21.035	914.433	722.012
190.286	21.282	913.786	722.458
191.300	21.200	912.885	721.343
192.315	20.609	911.531	717.771
193.329	19.862	910.090	713.493
194.344	19.502	909.043	711.127
195.359	20.071	909.363	713.660
196.373	20.832	909.326	716.701
197.388	21.030	909.150	717.311
198.402	21.035	908.356	716.643
199.417	20.745	908.338	715.371
200.432	20.994	907.512	715.680
201.446	20.766	906.706	714.048
202.461	20.533	905.945	712.432
203.475	20.612	905.475	712.323
204.490	20.300	903.659	709.555
205.504	19.276	901.571	703.674
206.519	19.709	901.333	705.190
207.534	20.567	901.909	709.082
208.548	20.715	901.071	708.961
209.563	21.059	901.171	710.378
210.577	20.965	900.477	709.388
211.592	20.785	899.483	707.811
212.607	21.070	899.829	709.177
213.621	21.321	899.029	709.502
214.636	21.232	898.419	708.597
215.650	21.333	897.583	708.285
216.665	20.997	897.360	706.688
217.680	21.164	896.570	706.678
218.694	21.269	896.515	706.994
219.709	20.929	894.941	704.320
220.723	20.504	894.196	701.955
221.738	20.806	893.600	702.643
222.753	20.963	893.765	703.345
223.767	21.026	892.409	702.466
224.782	21.061	891.637	701.940
225.796	21.162	891.592	702.249
226.811	21.409	890.321	702.175
227.826	20.894	889.632	699.504
228.840	20.198	887.914	695.304
229.855	20.172	887.369	694.710
230.869	20.309	887.113	694.995
231.884	20.125	885.931	693.272
232.899	20.196	885.593	693.232
233.913	20.869	885.967	696.153
234.928	21.088	885.256	696.408
235.942	20.856	884.784	695.049
236.957	21.049	883.840	695.015
237.972	20.616	882.780	692.395
238.986	20.717	881.931	692.072
240.001	20.807	881.646	692.145
241.015	20.805	880.977	691.548
242.030	20.879	880.499	691.408
243.045	20.990	880.206	691.557
244.059	21.030	879.641	691.210
245.074	21.212	878.576	691.029
246.088	21.055	878.389	690.203
247.103	20.715	877.346	687.977
248.117	20.722	876.893	687.589
249.132	21.351	876.739	689.889
250.147	21.761	876.401	691.179
251.161	21.575	875.797	689.911
252.176	21.873	875.158	690.517
253.190	21.908	874.761	690.283
254.205	21.799	874.140	689.301
255.220	21.931	874.108	689.734
256.234	22.049	872.858	689.153
257.249	21.874	872.424	688.059
258.263	21.626	872.105	686.777
259.278	21.926	870.940	686.974
260.293	21.910	870.839	686.768
261.307	21.967	869.996	686.268
262.322	21.878	869.218	685.244
263.336	21.698	868.898	684.229
264.351	21.248	867.648	681.430
265.366	20.086	865.438	675.110
266.380	19.692	864.272	672.607
267.395	20.695	865.297	677.251
268.409	21.317	865.208	679.539
269.424	21.453	864.405	679.378
270.439	21.468	864.176	679.197
271.453	21.731	863.506	679.630
272.468	21.687	862.492	678.601
273.482	21.857	862.214	678.978
274.497	21.909	861.934	678.901
275.512	21.893	860.402	677.573
276.526	21.189	859.318	673.944
277.541	21.314	859.280	674.335
278.555	21.861	858.758	675.975
279.570	21.609	857.883	674.254
280.585	21.384	857.107	672.720
281.599	21.431	857.154	672.877
282.614	21.584	856.276	672.720
283.628	21.280	854.726	670.274
284.643	20.825	854.192	668.053
285.657	21.238	854.540	669.848
286.672	21.175	853.550	668.771
287.687	20.601	852.616	665.787
288.701	21.051	852.305	667.203
289.716	21.359	852.218	668.256
290.730	21.104	851.370	666.555
291.745	20.958	850.663	665.388
292.760	20.654	849.816	663.506
293.774	20.697	849.189	663.121
294.789	21.508	849.974	666.767
295.803	22.132	850.072	669.164
296.818	22.203	849.305	668.770
297.833	22.202	848.766	668.283
298.847	22.123	847.269	666.747
299.862	21.787	846.393	664.723
300.876	21.928	846.303	665.130
301.891	22.255	845.735	665.860
302.906	22.282	845.343	665.597
303.920	22.011	843.791	663.293
304.935	21.781	843.479	662.119
305.949	22.157	843.261	663.311
306.964	22.221	842.642	663.005
307.979	21.884	842.145	661.285
308.993	22.074	841.273	661.258
310.008	22.441	840.914	662.296
311.022	22.367	841.086	662.095
312.037	22.128	840.478	660.660
313.052	21.992	839.753	659.520
314.066	21.939	839.158	658.797
315.081	21.183	837.433	654.549
316.095	20.488	836.202	650.927
317.110	21.055	836.489	653.218
318.125	21.999	836.297	656.540
319.139	21.666	835.303	654.459
320.154	20.438	833.690	648.555
321.168	19.995	833.216	646.475
322.183	20.591	833.342	648.741
323.197	21.446	833.791	652.224
324.212	21.675	833.318	652.648
325.227	21.792	832.918	652.712
326.241	22.101	832.542	653.509
327.256	21.927	832.033	652.405
328.270	21.769	831.520	651.359
329.285	21.669	830.778	650.347
330.300	21.629	829.956	649.499
331.314	21.473	829.293	648.345
332.329	21.564	828.480	647.988
333.343	21.960	828.028	649.041
334.358	22.150	827.958	649.633
335.373	22.066	827.197	648.669
336.387	22.053	827.125	648.507
337.402	22.386	826.389	649.099
338.416	22.556	826.097	649.440
339.431	22.551	825.369	648.792
340.446	22.509	824.570	647.950
341.460	22.575	824.484	648.070
342.475	22.701	824.102	648.176
343.489	22.383	823.074	646.141
344.504	22.457	822.440	645.857
345.519	22.649	822.351	646.436
346.533	22.891	821.997	646.986
347.548	22.860	821.833	646.687
348.562	23.073	820.981	646.739
349.577	22.817	820.613	645.454
350.592	22.899	819.616	644.915
351.606	22.982	819.272	644.888
352.621	22.796	819.208	644.102
353.635	22.720	818.458	643.178
354.650	22.770	817.871	642.842
355.665	22.407	817.166	640.910
356.679	21.313	815.347	635.453
357.694	21.203	815.005	634.727
358.708	21.797	815.162	636.954
359.723	21.696	814.348	635.894
360.738	22.122	813.919	637.046
361.752	22.464	813.881	638.203
362.767	22.633	813.580	638.520
363.781	22.865	813.395	639.157
364.796	23.145	813.304	640.044
365.810	23.173	812.816	639.703
366.825	23.291	812.487	639.815
367.840	23.263	812.090	639.346
368.854	22.920	811.570	637.642
369.869	22.734	810.588	636.142
370.883	22.511	809.920	634.759
371.898	22.670	809.340	634.822
372.913	22.499	808.759	633.694
373.927	22.497	807.975	633.016
374.942	22.744	807.382	633.383
375.956	22.641	807.014	632.667
376.971	22.859	806.399	632.910
377.986	22.957	806.102	632.972
379.000	23.023	805.909	633.001
380.015	23.085	805.250	632.650
381.029	23.041	804.399	631.768
382.044	22.925	803.941	630.937
383.059	23.097	803.396	631.070
384.073	23.175	802.896	630.897
385.088	23.152	802.523	630.468
386.102	23.159	802.007	630.030
387.117	23.018	801.090	628.752
388.132	22.980	800.436	628.050
389.146	22.977	799.460	627.218
390.161	22.172	799.062	623.993
391.175	22.383	798.530	624.269
392.190	22.699	799.108	625.787
393.205	22.776	798.202	625.297
394.219	21.942	796.135	620.674
395.234	20.375	794.267	613.628
396.248	19.653	793.313	610.288
397.263	20.843	794.017	614.980
398.278	22.389	795.442	621.494
399.292	22.939	795.318	623.282
400.307	22.503	794.698	621.203
401.321	22.584	793.978	620.870
402.336	22.518	793.907	620.530
403.350	22.866	793.908	621.699
404.365	23.214	793.608	622.633
405.380	23.645	793.820	624.260
406.394	23.762	793.306	624.212
407.409	23.968	792.612	624.335
408.423	23.943	792.080	623.771
409.438	23.782	792.051	623.129
410.453	23.689	791.396	622.234
411.467	23.913	790.798	622.491
412.482	23.802	790.504	621.816
413.496	23.679	789.984	620.921
414.511	23.839	789.578	621.107
415.526	23.875	789.330	620.983
416.540	23.818	788.884	620.379
417.555	23.855	788.209	619.924
418.569	23.494	786.973	617.638
419.584	23.580	786.965	617.877
420.599	23.632	786.502	617.641
421.613	156.424	1365.563	1797.944
422.628	135.278	1449.916	1798.023
