DTS Sentinel unit serial number:	SN413079Multiplexer serial number:	ORYXHardware model number:	OX4-SRSoftware version number:	ORYX F/W v4.00 Oryx Data Collector v3.7.2.0data status	okinstallation	princeton_trtdifferential loss correction	single-endedforward channel	channel 3reverse channel	N/Adate	2019/09/11time	23:46:10forward acquisition time	60.00reverse acquisition time	0.00gamma	496.2192k internal	0.2318k external	0.2318temperature offset calibration	1.0058default loss term (dB/km)	0.3790temperature slope calibration	1.0000multiplexer offset coefficient	1.0000multiplexer slope coefficient	1.0000fibre end	0.00T internal ref (°C)	34.00T ext. ref 1 (°C)	1.97T ext. ref 2 (°C)	27.31length (m)	temperature (°C)	Stokes	anti-Stokes-747.200	-73.631	-0.322	0.119
-746.185	55.330	-0.236	0.231
-745.171	-1.240	-0.139	0.100
-744.156	578.979	-0.181	0.448
-743.142	212.753	-0.146	0.233
-742.127	-89.932	0.101	0.030
-741.112	-67.226	-0.217	-0.086
-740.098	231.069	0.145	0.240
-739.083	23.434	0.363	-0.302
-738.069	691.747	0.055	0.147
-737.054	39.168	0.127	-0.115
-736.039	-151.121	-0.351	0.027
-735.025	800.000	-0.054	0.175
-734.010	-42.129	-0.248	-0.128
-732.996	-54.089	-0.108	-0.050
-731.981	-51.509	-0.189	0.089
-730.966	227.884	0.144	-0.237
-729.952	-38.697	-0.277	0.148
-728.937	-54.472	-0.087	-0.040
-727.923	4.160	-0.226	-0.167
-726.908	800.000	-0.109	-0.449
-725.894	59.274	-0.070	-0.070
-724.879	0.936	-0.167	0.121
-723.864	-101.143	0.114	0.028
-722.850	-81.595	0.056	0.019
-721.835	348.867	-0.028	-0.057
-720.821	-183.743	0.045	-0.001
-719.806	-200.000	-0.006	-0.055
-718.791	259.649	-0.123	0.215
-717.777	-55.307	0.049	0.022
-716.762	-83.586	0.060	0.019
-715.748	-154.827	0.067	-0.004
-714.733	28.940	0.111	-0.095
-713.718	-65.096	0.247	-0.101
-712.704	428.425	-0.031	-0.068
-711.689	-10.420	0.170	-0.114
-710.675	-90.856	0.088	-0.026
-709.660	-83.062	-0.282	-0.092
-708.645	288.284	-0.113	0.206
-707.631	-92.547	-0.254	-0.072
-706.616	-200.000	-0.048	0.215
-705.602	-38.711	0.115	0.061
-704.587	-200.000	0.013	-0.144
-703.572	83.904	-0.177	-0.195
-702.558	48.338	-0.143	-0.135
-701.543	504.950	-0.057	0.133
-700.529	800.000	0.042	-0.127
-699.514	-54.605	0.150	-0.069
-698.499	-73.044	-0.042	-0.016
-697.485	133.783	-0.126	0.165
-696.470	-200.000	-0.017	-0.206
-695.456	-71.317	0.174	0.066
-694.441	69.789	0.278	-0.290
-693.426	-200.000	0.068	0.310
-692.412	-75.508	-0.136	0.049
-691.397	-200.000	0.015	-0.177
-690.383	125.657	0.124	0.158
-689.368	237.315	-0.110	0.184
-688.354	242.298	-0.066	0.112
-687.339	-30.813	0.099	0.056
-686.324	-121.059	-0.206	-0.035
-685.310	766.041	-0.047	0.129
-684.295	65.337	-0.155	0.158
-683.281	800.000	0.030	-0.084
-682.266	-53.677	0.004	0.002
-681.251	-136.908	0.146	-0.017
-680.237	-95.774	0.278	0.075
-679.222	124.417	-0.175	0.223
-678.208	-130.835	-0.291	-0.039
-677.193	-200.000	0.100	-0.458
-676.178	-19.702	0.168	-0.105
-675.164	-200.000	-0.005	-0.251
-674.149	-46.376	-0.145	-0.072
-673.135	800.000	0.009	0.035
-672.120	800.000	0.033	-0.114
-671.105	-111.471	-0.246	0.051
-670.091	-32.806	0.373	-0.209
-669.076	-200.000	-0.015	0.101
-668.062	-106.203	0.189	-0.043
-667.047	-118.914	-0.252	-0.045
-666.032	-135.022	0.109	0.013
-665.018	800.000	-0.056	-0.158
-664.003	800.000	-0.038	-0.143
-662.989	391.632	-0.040	0.084
-661.974	-71.142	-0.160	0.061
-660.959	-116.618	-0.531	0.099
-659.945	275.312	0.080	-0.143
-658.930	-173.986	-0.399	0.012
-657.916	-84.000	0.251	0.080
-656.901	112.311	0.135	0.164
-655.886	-165.549	-0.220	-0.010
-654.872	-200.000	-0.002	-0.024
-653.857	100.496	0.196	0.230
-652.843	-200.000	0.016	-0.123
-651.828	-8.474	-0.211	0.143
-650.814	-101.313	0.149	0.037
-649.799	-116.685	-0.106	-0.020
-648.784	-85.144	-0.221	-0.070
-647.770	-68.470	-0.249	0.097
-646.755	-0.530	-0.240	0.171
-645.741	-39.481	0.165	0.087
-644.726	38.543	-0.166	0.149
-643.711	-1.186	-0.023	0.016
-642.697	800.000	0.105	0.323
-641.682	-200.000	0.008	-0.343
-640.668	30.246	0.122	-0.105
-639.653	-200.000	0.014	-0.089
-638.638	18.276	0.088	-0.071
-637.624	334.165	0.097	0.190
-636.609	-16.352	-0.194	0.124
-635.595	-81.681	-0.175	0.058
-634.580	19.730	0.405	-0.328
-633.565	-200.000	-0.021	-0.220
-632.551	800.000	-0.040	-0.141
-631.536	800.000	-0.057	-0.226
-630.522	102.802	0.140	-0.165
-629.507	-20.091	-0.079	-0.049
-628.492	20.507	-0.062	-0.050
-627.478	140.475	0.098	-0.130
-626.463	55.020	0.233	0.227
-625.449	-47.961	0.194	0.094
-624.434	32.513	-0.093	0.081
-623.419	-149.467	0.507	-0.041
-622.405	479.774	-0.029	0.067
-621.390	24.487	-0.165	-0.137
-620.376	-36.971	-0.261	-0.141
-619.361	-200.000	-0.030	0.139
-618.346	-200.000	0.015	-0.146
-617.332	800.000	0.040	0.130
-616.317	187.746	0.110	-0.165
-615.303	171.392	0.147	-0.213
-614.288	219.848	-0.114	-0.184
-613.273	649.758	0.056	-0.143
-612.259	176.877	-0.106	0.155
-611.244	537.481	0.084	0.201
-610.230	-200.000	-0.028	0.254
-609.215	242.678	-0.057	0.096
-608.201	-53.773	-0.211	0.097
-607.186	122.643	-0.185	-0.233
-606.171	-117.266	-0.269	0.049
-605.157	227.896	0.163	0.267
-604.142	800.000	0.040	-0.122
-603.128	48.934	-0.301	0.284
-602.113	295.260	0.126	-0.232
-601.098	-122.547	-0.186	0.030
-600.084	448.058	0.098	-0.218
-599.069	-145.046	0.181	0.017
-598.055	-103.538	-0.265	-0.063
-597.040	-200.000	0.004	0.210
-596.025	614.180	-0.064	0.161
-595.011	100.300	0.247	0.289
-593.996	126.070	-0.093	-0.119
-592.982	282.415	-0.211	0.381
-591.967	800.000	-0.080	0.248
-590.952	179.665	-0.210	0.309
-589.938	-100.195	-0.125	-0.031
-588.923	71.675	0.174	0.182
-587.909	-11.883	0.111	-0.073
-586.894	21.361	-0.165	-0.135
-585.879	-33.996	0.190	0.105
-584.865	100.612	-0.287	-0.335
-583.850	-200.000	0.002	0.165
-582.836	800.000	0.088	-0.247
-581.821	-200.000	0.020	0.193
-580.806	-200.000	-0.021	-0.109
-579.792	800.000	-0.072	-0.214
-578.777	-103.321	-0.175	0.041
-577.763	200.754	0.038	0.059
-576.748	-58.866	0.199	-0.087
-575.733	9.004	-0.233	0.177
-574.719	-200.000	-0.010	-0.073
-573.704	-63.809	-0.048	-0.020
-572.690	267.804	0.124	0.218
-571.675	-108.929	0.131	-0.028
-570.661	-167.845	0.115	0.005
-569.646	-86.981	-0.155	-0.048
-568.631	-119.137	-0.259	-0.045
-567.617	92.324	-0.092	0.105
-566.602	-94.343	0.206	0.057
-565.588	155.663	-0.098	-0.136
-564.573	-106.999	-0.018	0.004
-563.558	-127.175	0.025	-0.004
-562.544	-200.000	0.032	-0.164
-561.529	120.543	0.082	-0.103
-560.515	-200.000	-0.009	0.233
-559.500	800.000	-0.128	0.480
-558.485	11.858	-0.173	0.134
-557.471	800.000	-0.046	0.136
-556.456	16.609	0.273	-0.217
-555.442	-114.734	0.125	0.024
-554.427	800.000	-0.081	0.280
-553.412	213.773	-0.022	-0.035
-552.398	80.656	-0.260	0.282
-551.383	800.000	-0.055	0.221
-550.369	-43.276	-0.081	0.041
-549.354	-29.921	-0.218	-0.125
-548.339	-114.013	-0.270	-0.053
-547.325	-75.065	0.033	-0.012
-546.310	-119.818	0.262	0.045
-545.296	-117.186	0.358	0.065
-544.281	251.104	0.148	0.252
-543.266	-25.132	0.076	0.045
-542.252	85.518	-0.157	0.173
-541.237	78.949	0.107	0.115
-540.223	191.845	0.110	0.167
-539.208	-200.000	-0.016	0.359
-538.193	-11.320	-0.173	-0.114
-537.179	-200.000	-0.051	-0.262
-536.164	-3.156	0.238	-0.166
-535.150	330.238	-0.007	0.013
-534.135	448.684	-0.004	0.009
-533.121	-200.000	-0.049	0.335
-532.106	128.402	0.176	0.224
-531.091	73.536	0.029	0.030
-530.077	105.111	-0.248	0.294
-529.062	800.000	0.068	0.234
-528.048	-200.000	-0.042	0.374
-527.033	197.298	0.195	0.299
-526.018	-20.702	-0.246	-0.151
-525.004	-116.384	-0.240	0.044
-523.989	-133.921	0.174	0.022
-522.975	217.715	-0.090	-0.144
-521.960	156.838	0.223	-0.309
-520.945	-57.629	0.266	-0.117
-519.931	-67.012	0.328	-0.130
-518.916	800.000	-0.082	-0.232
-517.902	16.976	-0.135	-0.107
-516.887	46.850	0.040	0.037
-515.872	-166.368	0.050	-0.002
-514.858	137.269	-0.195	-0.256
-513.843	595.028	0.025	0.061
-512.829	-3.651	-0.100	0.070
-511.814	167.315	0.066	-0.094
-510.799	-1.638	0.030	-0.021
-509.785	-13.649	-0.038	-0.025
-508.770	-200.000	0.041	-0.199
-507.756	-104.686	0.167	0.039
-506.741	-200.000	-0.082	0.601
-505.726	-8.101	-0.300	-0.202
-504.712	-34.528	-0.192	-0.105
-503.697	240.074	-0.090	-0.151
-502.683	-159.124	0.406	0.023
-501.668	-22.839	0.091	-0.055
-500.653	-131.557	0.286	0.038
-499.639	-200.000	0.015	-0.275
-498.624	-87.491	-0.237	0.072
-497.610	-26.637	-0.378	-0.222
-496.595	-12.777	0.250	0.163
-495.581	-6.894	0.212	0.144
-494.566	-24.573	0.146	0.087
-493.551	544.648	0.070	0.167
-492.537	21.789	0.213	0.174
-491.522	-200.000	-0.001	0.177
-490.508	238.770	-0.183	-0.304
-489.493	-0.247	-0.088	-0.063
-488.478	-200.000	-0.009	-0.285
-487.464	-200.000	0.071	0.432
-486.449	-89.722	-0.109	0.032
-485.435	-64.444	0.463	0.189
-484.420	-48.516	0.255	-0.123
-483.405	-200.000	-0.037	-0.327
-482.391	-127.517	0.182	-0.026
-481.376	76.815	-0.135	-0.144
-480.362	-200.000	-0.075	0.000
-479.347	-200.000	0.032	-0.390
-478.332	-88.897	-0.323	0.096
-477.318	-153.321	0.185	-0.013
-476.303	-119.888	0.167	-0.029
-475.289	-21.682	-0.177	-0.108
-474.274	-200.000	-0.035	-0.170
-473.259	15.504	0.075	-0.059
-472.245	-161.295	-0.095	-0.005
-471.230	44.690	0.253	0.233
-470.216	-188.749	0.167	0.002
-469.201	-40.948	0.192	-0.099
-468.186	20.021	0.189	0.152
-467.172	-52.314	0.096	0.045
-466.157	730.716	0.114	-0.306
-465.143	70.688	0.036	-0.037
-464.128	-200.000	0.181	0.000
-463.113	17.203	0.122	0.097
-462.099	22.996	0.183	0.151
-461.084	-6.641	-0.333	-0.227
-460.070	101.609	-0.138	-0.161
-459.055	-200.000	0.012	0.056
-458.040	800.000	-0.039	-0.154
-457.026	59.700	0.075	-0.074
-456.011	800.000	-0.129	0.394
-454.997	-200.000	0.021	-0.207
-453.982	-139.461	-0.342	0.037
-452.968	254.277	-0.159	-0.271
-451.953	-101.224	-0.258	0.063
-450.938	800.000	0.033	-0.123
-449.924	-141.710	-0.152	-0.015
-448.909	-94.521	0.287	0.078
-447.895	-154.645	-0.196	-0.013
-446.880	-200.000	0.072	-0.346
-445.865	-98.943	-0.173	0.044
-444.851	-113.687	0.083	0.016
-443.836	800.000	0.059	-0.203
-442.822	266.531	-0.081	0.141
-441.807	40.928	0.215	-0.194
-440.792	-54.223	-0.454	-0.206
-439.778	4.678	-0.282	-0.207
-438.763	800.000	-0.032	-0.107
-437.749	362.997	0.066	0.133
-436.734	28.808	-0.111	-0.094
-435.719	97.480	-0.066	0.075
-434.705	-82.268	0.262	0.085
-433.690	-200.000	0.019	0.309
-432.676	-40.928	-0.308	-0.159
-431.661	-55.336	-0.248	-0.111
-430.646	-200.000	0.027	0.226
-429.632	472.959	-0.063	-0.142
-428.617	60.384	-0.221	0.218
-427.603	-24.104	0.144	-0.086
-426.588	756.681	-0.075	0.202
-425.573	487.326	0.090	0.205
-424.559	172.786	-0.158	0.227
-423.544	-200.000	-0.020	-0.262
-422.530	-66.913	-0.040	-0.016
-421.515	226.979	-0.194	-0.315
-420.500	800.000	0.057	-0.167
-419.486	81.425	0.149	0.161
-418.471	800.000	-0.098	-0.310
-417.457	276.716	0.081	-0.144
-416.442	81.842	0.252	0.272
-415.428	-124.775	-0.523	-0.081
-414.413	-145.403	0.166	0.015
-413.398	800.000	-0.129	0.384
-412.384	-84.522	0.091	0.029
-411.369	32.435	0.207	0.179
-410.355	-58.810	-0.028	0.012
-409.340	-51.635	0.197	-0.092
-408.325	800.000	0.063	-0.237
-407.311	203.963	0.200	-0.309
-406.296	61.682	-0.215	-0.213
-405.282	-44.295	-0.038	-0.019
-404.267	140.513	0.191	0.252
-403.252	-200.000	-0.005	-0.573
-402.238	-83.812	0.460	-0.147
-401.223	94.389	-0.160	0.181
-400.209	14.015	-0.178	0.138
-399.194	-200.000	0.066	-0.444
-398.179	-200.000	-0.024	0.286
-397.165	-53.720	0.176	-0.080
-396.150	-133.151	0.072	-0.009
-395.136	-71.045	-0.448	0.168
-394.121	-115.133	0.275	-0.052
-393.106	-52.133	-0.175	-0.081
-392.092	-134.656	0.142	0.017
-391.077	154.760	0.101	0.139
-390.063	144.464	-0.081	0.108
-389.048	432.491	0.099	-0.214
-388.033	-200.000	0.053	-0.292
-387.019	-200.000	0.025	0.149
-386.004	448.195	0.116	-0.255
-384.990	-11.849	-0.180	-0.118
-383.975	-200.000	0.026	0.141
-382.960	-200.000	-0.012	-0.144
-381.946	-119.249	0.169	-0.029
-380.931	-75.978	-0.190	-0.067
-379.917	397.293	0.084	0.176
-378.902	-33.751	-0.042	-0.023
-377.888	800.000	-0.023	0.095
-376.873	37.397	-0.055	-0.049
-375.858	-200.000	0.073	-0.331
-374.844	-117.205	0.213	-0.039
-373.829	-91.765	-0.228	-0.065
-372.815	-106.610	0.312	0.069
-371.800	-87.168	-0.115	0.035
-370.785	79.398	0.054	-0.057
-369.771	-173.658	-0.175	-0.005
-368.756	800.000	0.085	0.256
-367.742	-92.411	-0.323	0.091
-366.727	244.281	-0.087	-0.146
-365.712	134.039	-0.080	0.104
-364.698	443.066	-0.170	-0.371
-363.683	186.274	-0.186	0.275
-362.669	-5.955	0.222	-0.152
-361.654	6.714	0.236	-0.175
-360.639	29.462	0.285	0.242
-359.625	155.064	-0.141	-0.193
-358.610	453.176	0.080	0.176
-357.596	48.517	-0.193	0.180
-356.581	-200.000	-0.022	0.256
-355.566	69.787	-0.122	-0.125
-354.552	2.435	-0.201	-0.145
-353.537	17.761	0.032	0.025
-352.523	-164.771	0.053	-0.002
-351.508	-64.601	0.320	0.129
-350.493	-200.000	0.004	-0.103
-349.479	-200.000	-0.045	0.199
-348.464	800.000	-0.038	-0.155
-347.450	1.044	-0.093	-0.067
-346.435	462.883	0.035	0.078
-345.420	-200.000	0.056	-0.320
-344.406	-56.830	0.197	0.087
-343.391	32.407	0.274	0.236
-342.377	800.000	0.057	-0.208
-341.362	123.826	-0.086	0.107
-340.348	62.317	0.355	0.354
-339.333	33.802	0.286	0.248
-338.318	114.742	0.193	0.234
-337.304	-200.000	0.012	0.078
-336.289	271.958	0.091	0.159
-335.275	-200.000	0.062	-0.289
-334.260	282.899	-0.038	-0.067
-333.245	507.149	-0.099	-0.229
-332.231	244.472	-0.247	0.413
-331.216	800.000	0.092	0.327
-330.202	-122.137	0.123	-0.020
-329.187	-53.066	-0.169	-0.077
-328.172	105.060	-0.144	0.169
-327.158	-200.000	0.019	-0.126
-326.143	800.000	-0.081	-0.271
-325.129	-19.441	0.235	0.145
-324.114	-78.689	0.284	-0.096
-323.099	168.732	0.247	0.350
-322.085	-33.389	0.150	-0.082
-321.070	272.986	0.203	0.357
-320.056	-200.000	-0.058	0.291
-319.041	-200.000	0.044	-0.282
-318.026	-200.000	0.006	-0.314
-317.012	313.951	0.115	-0.216
-315.997	800.000	0.061	0.169
-314.983	-123.837	-0.285	0.045
-313.968	-155.646	-0.035	-0.002
-312.953	100.557	-0.081	0.094
-311.939	67.453	0.074	0.075
-310.924	-200.000	-0.005	-0.306
-309.910	89.684	-0.179	-0.198
-308.895	-37.740	-0.352	0.187
-307.880	-29.531	0.223	0.127
-306.866	438.955	0.109	-0.237
-305.851	-115.219	0.248	0.047
-304.837	125.682	0.169	0.212
-303.822	800.000	-0.065	0.262
-302.807	-4.437	-0.173	-0.119
-301.793	-45.440	-0.090	0.044
-300.778	630.680	0.090	-0.227
-299.764	-31.972	-0.139	-0.077
-298.749	-200.000	-0.228	0.000
-297.735	-30.336	0.180	-0.102
-296.720	-117.433	-0.191	0.034
-295.705	-78.402	-0.276	-0.094
-294.691	-113.020	-0.148	-0.029
-293.676	401.444	0.203	0.425
-292.662	287.568	-0.043	0.077
-291.647	-5.599	-0.385	-0.262
-290.632	-194.533	0.165	0.001
-289.618	-27.517	-0.122	-0.071
-288.603	-200.000	0.019	-0.268
-287.589	800.000	0.033	0.099
-286.574	-147.223	0.210	0.018
-285.559	317.862	-0.213	0.400
-284.545	-119.566	-0.208	0.036
-283.530	800.000	0.065	0.232
-282.516	140.017	0.077	0.102
-281.501	36.065	0.125	0.109
-280.486	800.000	0.083	-0.304
-279.472	-140.850	-0.187	0.019
-278.457	130.424	-0.191	0.243
-277.443	-200.000	-0.050	-0.256
-276.428	-77.792	0.107	0.037
-275.413	226.931	-0.011	0.017
-274.399	-122.217	-0.169	0.027
-273.384	23.501	-0.240	-0.196
-272.370	-93.572	-0.273	-0.075
-271.355	-99.555	-0.052	-0.013
-270.340	-80.290	0.125	-0.041
-269.326	-200.000	-0.034	0.251
-268.311	145.822	0.182	0.242
-267.297	-129.367	-0.206	0.028
-266.282	-5.221	0.177	-0.121
-265.267	-200.000	-0.008	0.058
-264.253	-200.000	0.009	-0.112
-263.238	37.153	0.277	-0.243
-262.224	-137.466	-0.310	0.035
-261.209	-164.635	0.296	0.013
-260.195	-36.053	0.184	0.099
-259.180	-200.000	-0.045	0.278
-258.165	99.077	-0.095	-0.109
-257.151	-71.918	0.275	-0.102
-256.136	118.490	-0.119	-0.146
-255.122	-84.984	-0.298	0.093
-254.107	14.692	0.070	-0.055
-253.092	-195.746	0.065	-0.000
-252.078	-196.738	0.118	-0.001
-251.063	223.577	0.104	-0.166
-250.049	-86.376	-0.167	0.051
-249.034	75.023	-0.093	0.097
-248.019	-34.104	-0.171	0.093
-247.005	-141.512	-0.220	0.022
-245.990	274.612	-0.046	0.081
-244.976	800.000	0.124	-0.385
-243.961	50.203	0.234	0.219
-242.946	800.000	-0.096	0.339
-241.932	17.992	0.104	-0.083
-240.917	345.056	0.069	-0.134
-239.903	-200.000	-0.019	-0.087
-238.888	-72.680	0.224	-0.082
-237.873	-74.678	0.193	0.069
-236.859	-31.347	-0.210	-0.117
-235.844	56.661	0.223	0.216
-234.830	800.000	-0.094	0.294
-233.815	-22.078	0.191	0.115
-232.800	17.236	-0.118	-0.093
-231.786	-132.467	-0.361	-0.046
-230.771	-134.711	0.165	-0.020
-229.757	-48.454	0.248	-0.119
-228.742	455.619	0.071	-0.157
-227.727	455.587	0.083	-0.182
-226.713	-200.000	0.011	-0.343
-225.698	-200.000	-0.119	-0.545
-224.684	-65.817	0.214	0.085
-223.669	-68.504	-0.094	-0.036
-222.655	64.906	0.019	-0.019
-221.640	-85.128	0.134	0.041
-220.625	200.724	0.161	0.245
-219.611	-200.000	0.029	-0.280
-218.596	385.458	-0.132	-0.269
-217.582	21.351	-0.173	-0.140
-216.567	-29.308	-0.188	0.107
-215.552	247.766	0.075	0.126
-214.538	-75.086	-0.265	0.094
-213.523	-168.940	-0.330	0.012
-212.509	6.594	-0.118	-0.087
-211.494	141.493	-0.102	-0.134
-210.479	403.331	-0.171	0.357
-209.465	35.326	0.227	0.197
-208.450	-100.993	-0.073	-0.018
-207.436	100.209	0.124	-0.142
-206.421	257.793	0.072	0.123
-205.406	-3.810	0.225	0.155
-204.392	-200.000	-0.033	-0.187
-203.377	18.638	0.237	0.188
-202.363	-58.715	-0.359	0.154
-201.348	728.146	-0.062	-0.164
-200.333	-75.132	0.103	-0.036
-199.319	-69.578	-0.257	0.097
-198.304	102.281	-0.215	-0.248
-197.290	800.000	0.094	0.363
-196.275	-200.000	0.033	-0.153
-195.260	-55.304	0.230	0.102
-194.246	-200.000	0.000	0.056
-193.231	169.918	-0.179	0.253
-192.217	57.394	0.271	-0.262
-191.202	800.000	0.083	0.247
-190.187	103.425	0.020	0.023
-189.173	-107.306	0.256	0.056
-188.158	55.285	0.312	-0.299
-187.144	-90.355	-0.173	-0.050
-186.129	800.000	0.067	0.215
-185.114	-35.414	-0.218	0.117
-184.100	-176.184	-0.165	0.004
-183.085	800.000	-0.092	-0.273
-182.071	-156.926	0.101	-0.006
-181.056	3.001	-0.089	0.064
-180.042	-200.000	-0.020	-0.101
-179.027	56.564	-0.182	-0.175
-178.012	-161.606	0.347	0.018
-176.998	-35.775	-0.209	-0.112
-175.983	-99.400	-0.400	-0.100
-174.969	-35.688	-0.182	-0.098
-173.954	273.078	0.133	0.232
-172.939	92.922	0.118	-0.132
-171.925	169.516	0.162	0.230
-170.910	800.000	0.053	0.173
-169.896	256.708	0.101	-0.171
-168.881	-9.434	0.189	-0.125
-167.866	63.883	0.059	0.059
-166.852	-52.455	-0.095	0.043
-165.837	-200.000	0.007	-0.240
-164.823	15.451	0.095	-0.073
-163.808	43.197	0.230	-0.207
-162.793	800.000	0.062	-0.212
-161.779	-176.606	0.478	0.012
-160.764	-143.180	-0.255	0.024
-159.750	-34.015	0.133	-0.072
-158.735	50.957	-0.025	0.024
-157.720	-200.000	-0.028	-0.355
-156.706	26.192	-0.326	-0.269
-155.691	148.150	0.140	0.186
-154.677	-171.575	-0.073	-0.002
-153.662	315.089	0.051	0.096
-152.647	258.042	-0.239	0.407
-151.633	-140.194	-0.022	-0.002
-150.618	88.592	-0.077	0.084
-149.604	-131.278	0.413	0.054
-148.589	800.000	-0.080	-0.247
-147.574	-118.702	-0.228	-0.040
-146.560	-200.000	0.014	-0.381
-145.545	15.714	0.155	0.120
-144.531	-74.848	0.104	-0.037
-143.516	51.535	-0.157	-0.147
-142.502	800.000	0.062	0.213
-141.487	163.538	-0.160	0.222
-140.472	-122.959	0.132	-0.021
-139.458	12.029	0.049	0.037
-138.443	-118.376	-0.300	-0.053
-137.429	-118.182	0.187	-0.033
-136.414	-19.767	0.118	-0.072
-135.399	-121.230	-0.069	-0.011
-134.385	-200.000	-0.000	0.208
-133.370	136.060	-0.159	-0.205
-132.356	-200.000	-0.017	-0.110
-131.341	-60.943	-0.235	-0.098
-130.326	-140.473	0.176	-0.018
-129.312	800.000	0.046	0.127
-128.297	528.160	0.054	-0.127
-127.283	800.000	-0.043	-0.119
-126.268	88.217	0.279	-0.306
-125.253	103.443	-0.157	-0.182
-124.239	391.026	-0.158	0.324
-123.224	37.914	0.078	0.068
-122.210	121.290	-0.170	0.210
-121.195	-105.094	-0.190	0.043
-120.180	-200.000	-0.053	-0.332
-119.166	470.493	-0.064	0.142
-118.151	80.205	0.060	0.064
-117.137	144.465	0.213	0.280
-116.122	29.998	-0.100	-0.084
-115.107	-112.082	0.075	-0.015
-114.093	-145.217	0.215	0.019
-113.078	800.000	0.048	0.144
-112.064	37.397	0.324	-0.284
-111.049	195.410	-0.152	0.229
-110.034	-68.274	-0.276	0.106
-109.020	61.817	0.168	-0.165
-108.005	28.283	-0.135	0.112
-106.991	22.843	-0.479	0.388
-105.976	-200.000	0.003	0.021
-104.962	-200.000	-0.014	-0.134
-103.947	-200.000	0.014	0.129
-102.932	-78.351	0.146	0.050
-101.918	-200.000	0.008	0.165
-100.903	95.092	-0.401	0.451
-99.889	800.000	0.096	-0.276
-98.874	-200.000	0.005	-0.206
-97.859	762.137	-0.068	-0.181
-96.845	171.899	0.133	0.189
-95.830	-32.386	-0.348	0.192
-94.816	128.481	0.122	0.154
-93.801	-32.676	0.193	0.106
-92.786	-140.073	0.399	-0.041
-91.772	229.370	-0.118	-0.189
-90.757	-200.000	0.016	-0.159
-89.743	119.768	0.097	0.118
-88.728	131.032	-0.090	-0.114
-87.713	720.046	0.057	-0.149
-86.699	686.611	0.073	0.187
-85.684	16.561	0.165	-0.129
-84.670	-200.000	-0.009	0.189
-83.655	81.776	-0.128	0.136
-82.640	-143.488	-0.137	0.013
-81.626	10.777	-0.190	0.143
-80.611	250.117	-0.024	0.040
-79.597	169.987	-0.230	-0.325
-78.582	-62.116	0.454	0.187
-77.567	-200.000	0.073	0.354
-76.553	146.931	0.070	0.092
-75.538	182.061	0.242	-0.351
-74.524	-109.175	-0.132	0.028
-73.509	800.000	0.075	-0.298
-72.494	9.944	-0.066	0.050
-71.480	85.820	-0.335	0.363
-70.465	-114.692	0.234	-0.044
-69.451	81.768	0.066	-0.070
-68.436	-12.682	-0.083	0.054
-67.422	67.108	0.182	-0.182
-66.407	-112.988	0.097	0.019
-65.392	45.068	0.154	0.140
-64.378	-65.665	0.290	-0.115
-63.363	-200.000	-0.024	-0.159
-62.349	-62.248	-0.144	-0.059
-61.334	10.034	-1.201	-0.899
-60.319	112.721	0.382	0.456
-59.305	-200.000	0.109	-0.733
-58.290	284.769	0.521	0.924
-57.276	377.173	0.767	1.544
-56.261	-200.000	96.697	579.403
-55.246	545.207	1385.378	3261.365
-54.232	155.544	2578.683	3498.236
-53.217	111.569	2173.607	2583.172
-52.203	44.112	1712.208	1546.707
-51.188	37.124	1524.811	1329.698
-50.173	34.772	1498.320	1290.677
-49.159	53.828	1547.603	1464.349
-48.144	56.590	1566.088	1500.736
-47.130	37.418	1523.493	1330.350
-46.115	34.336	1507.900	1295.761
-45.100	34.037	1505.211	1291.368
-44.086	34.032	1502.919	1289.316
-43.071	33.988	1501.075	1287.391
-42.057	33.971	1499.978	1286.280
-41.042	33.992	1498.018	1284.688
-40.027	34.015	1496.665	1283.636
-39.013	34.004	1495.067	1282.141
-37.998	33.987	1493.933	1280.999
-36.984	33.978	1492.665	1279.799
-35.969	33.980	1491.632	1278.877
-34.954	34.007	1490.193	1277.775
-33.940	34.106	1488.445	1276.891
-32.925	33.993	1487.461	1275.237
-31.911	34.101	1485.890	1274.563
-30.896	33.977	1485.025	1272.942
-29.881	34.087	1483.293	1272.144
-28.867	34.080	1481.914	1270.862
-27.852	34.026	1480.762	1269.466
-26.838	34.002	1479.115	1267.838
-25.823	34.006	1477.948	1266.815
-24.809	34.034	1476.061	1265.334
-23.794	34.104	1474.427	1264.349
-22.779	33.988	1473.773	1262.970
-21.765	34.059	1472.184	1262.030
-20.750	34.117	1470.639	1261.035
-19.736	34.024	1470.198	1259.991
-18.721	33.976	1469.356	1258.907
-17.706	33.907	1468.561	1257.716
-16.692	33.959	1466.902	1256.591
-15.677	33.993	1465.805	1255.823
-14.663	33.999	1465.338	1255.417
-13.648	34.091	1464.074	1254.891
-12.633	33.933	1463.709	1253.485
-11.619	33.949	1463.003	1252.932
-10.604	34.012	1461.624	1252.119
-9.590	33.924	1461.005	1250.959
-8.575	34.067	1459.551	1250.604
-7.560	33.938	1459.224	1249.430
-6.546	33.949	1458.421	1248.759
-5.531	33.892	1457.391	1247.454
-4.517	33.974	1456.325	1247.030
-3.502	33.898	1456.073	1246.272
-2.487	33.834	1455.055	1244.927
-1.473	33.987	1453.083	1244.191
-0.458	33.917	1452.209	1242.938
0.556	34.303	1442.887	1232.229
1.571	31.268	1417.800	1191.370
2.586	27.928	1358.902	1121.318
3.600	26.278	1278.316	1045.188
4.615	25.114	1231.488	1000.325
5.629	21.755	1174.258	935.849
6.644	11.536	1087.225	815.624
7.659	3.361	1043.740	743.609
8.673	2.160	1038.264	733.877
9.688	1.998	1034.889	730.651
10.702	1.858	1033.333	728.816
11.717	1.864	1031.553	727.527
12.731	5.886	1035.877	749.757
13.746	15.908	1051.033	809.037
14.761	23.378	1059.838	851.795
15.775	24.814	1061.872	860.264
16.790	25.160	1060.885	861.048
17.804	24.962	1059.816	859.155
18.819	24.771	1059.272	857.723
19.834	24.889	1058.799	857.830
20.848	24.967	1058.143	857.596
21.863	25.255	1057.585	858.447
22.877	24.996	1057.707	857.230
23.892	25.026	1057.087	856.794
24.907	25.036	1055.707	855.647
25.921	24.969	1055.245	854.880
26.936	24.960	1054.544	854.192
27.950	24.910	1053.437	852.980
28.965	24.903	1052.456	852.078
29.980	24.857	1050.512	850.211
30.994	24.710	1049.792	848.855
32.009	25.146	1048.881	850.111
33.023	25.131	1048.304	849.499
34.038	24.854	1047.093	847.130
35.053	24.931	1046.186	846.683
36.067	25.016	1045.804	846.703
37.082	25.092	1044.356	845.814
38.096	25.018	1044.209	845.269
39.111	25.083	1043.869	845.226
40.126	25.312	1042.739	845.316
41.140	25.238	1041.473	843.869
42.155	24.793	1040.209	840.678
43.169	24.608	1039.127	838.859
44.184	24.577	1037.865	837.622
45.199	24.519	1037.323	836.839
46.213	24.644	1035.505	835.881
47.228	24.513	1035.307	835.038
48.242	24.767	1034.678	835.643
49.257	24.827	1034.023	835.317
50.271	24.805	1033.379	834.620
51.286	25.248	1032.028	835.518
52.301	25.028	1031.590	834.070
53.315	24.910	1031.421	833.307
54.330	25.028	1030.518	833.054
55.344	24.985	1029.479	831.942
56.359	24.945	1028.399	830.810
57.374	24.964	1028.186	830.650
58.388	24.833	1027.051	829.052
59.403	24.719	1026.421	827.942
60.417	24.829	1024.927	827.172
61.432	24.758	1024.313	826.279
62.447	24.715	1023.988	825.743
63.461	24.801	1023.151	825.390
64.476	24.865	1022.371	824.983
65.490	24.821	1021.566	824.060
66.505	24.739	1020.398	822.666
67.520	24.701	1019.508	821.704
68.534	24.866	1019.098	822.056
69.549	24.558	1018.545	820.123
70.563	24.252	1017.100	817.488
71.578	24.293	1015.966	816.690
72.593	24.277	1015.354	816.051
73.607	24.024	1014.885	814.443
74.622	24.081	1013.342	813.394
75.636	24.361	1012.533	813.950
76.651	24.639	1011.966	814.691
77.666	24.404	1011.427	813.116
78.680	24.275	1010.477	811.691
79.695	24.444	1009.395	811.521
80.709	24.512	1009.138	811.548
81.724	24.702	1008.345	811.701
82.739	24.638	1007.520	810.676
83.753	24.549	1006.924	809.720
84.768	24.826	1006.181	810.309
85.782	25.137	1005.348	810.970
86.797	25.365	1004.732	811.433
87.812	25.289	1003.946	810.383
88.826	25.056	1003.367	808.795
89.841	25.075	1002.359	807.995
90.855	25.233	1001.633	808.051
91.870	25.211	1000.943	807.321
92.884	25.300	1000.034	806.918
93.899	25.242	998.977	805.732
94.914	25.065	998.422	804.422
95.928	25.194	997.506	804.189
96.943	25.292	996.283	803.571
97.957	24.967	995.279	801.238
98.972	24.682	994.349	799.142
99.987	24.506	993.203	797.367
101.001	24.489	993.054	797.099
102.016	24.821	992.283	797.893
103.030	24.909	991.086	797.249
104.045	24.868	990.281	796.350
105.060	24.816	988.493	794.612
106.074	24.680	987.780	793.365
107.089	24.637	986.585	792.143
108.103	24.938	986.774	793.558
109.118	25.047	986.093	793.421
110.133	24.648	985.043	790.745
111.147	24.718	983.644	789.862
112.162	24.586	982.730	788.472
113.176	24.421	981.563	786.739
114.191	24.568	980.732	786.653
115.206	24.560	980.058	786.004
116.220	24.307	979.125	784.073
117.235	24.157	977.777	782.268
118.249	24.469	977.074	783.007
119.264	24.417	976.511	782.256
120.279	24.232	976.036	780.998
121.293	24.283	974.937	780.270
122.308	24.407	974.389	780.308
123.322	24.323	973.747	779.355
124.337	24.343	972.459	778.341
125.352	24.334	971.211	777.234
126.366	23.909	969.320	773.804
127.381	23.616	967.888	771.320
128.395	24.037	968.481	773.553
129.410	24.701	967.919	775.923
130.424	24.861	967.337	776.080
131.439	24.909	965.695	774.901
132.454	24.927	964.678	774.094
133.468	24.905	964.336	773.656
134.483	24.902	963.814	773.155
135.497	24.951	962.732	772.432
136.512	25.203	962.287	773.094
137.527	25.141	961.899	772.446
138.541	25.058	961.363	771.590
139.556	25.091	960.573	771.026
140.570	25.177	959.317	770.323
141.585	25.143	958.547	769.491
142.600	25.302	957.527	769.284
143.614	25.093	956.975	767.878
144.629	25.260	955.945	767.695
145.643	25.518	955.445	768.332
146.658	25.350	954.397	766.701
147.673	25.101	953.120	764.548
148.687	25.131	952.175	763.851
149.702	24.978	951.226	762.369
150.716	24.919	949.987	761.058
151.731	24.835	949.292	760.076
152.746	24.992	948.581	760.108
153.760	25.155	948.080	760.330
154.775	25.215	947.622	760.147
155.789	25.159	947.219	759.519
156.804	25.283	945.896	758.919
157.819	25.261	944.647	757.757
158.833	25.294	944.688	757.859
159.848	25.381	943.547	757.243
160.862	25.480	942.829	757.018
161.877	25.349	941.545	755.370
162.892	25.233	940.970	754.353
163.906	25.227	940.400	753.806
164.921	25.140	939.659	752.778
165.935	25.266	937.896	751.827
166.950	25.297	937.126	751.274
167.964	25.370	936.104	750.692
168.979	25.315	935.079	749.574
169.994	25.253	933.824	748.243
171.008	25.056	933.209	746.863
172.023	25.148	932.703	746.778
173.037	25.284	932.269	746.930
174.052	25.228	930.620	745.309
175.067	25.032	929.342	743.408
176.081	24.852	929.327	742.584
177.096	24.975	928.323	742.226
178.110	25.051	927.666	741.949
179.125	24.986	926.183	740.426
180.140	24.639	925.412	738.312
181.154	24.634	924.754	737.701
182.169	24.877	924.295	738.270
183.183	25.032	923.926	738.551
184.198	25.403	923.341	739.548
185.213	25.226	922.909	738.409
186.227	25.075	922.425	737.333
187.242	25.257	921.956	737.640
188.256	25.273	921.232	737.062
189.271	25.439	920.064	736.741
190.286	25.343	919.761	736.043
191.300	25.190	918.509	734.349
192.315	24.592	917.487	731.020
193.329	23.966	915.691	726.969
194.344	23.536	914.724	724.378
195.359	24.280	914.964	727.541
196.373	24.953	915.524	730.669
197.388	25.319	914.887	731.589
198.402	25.103	914.534	730.364
199.417	24.920	914.040	729.158
200.432	25.293	913.505	730.183
201.446	25.058	912.769	728.575
202.461	24.862	911.688	726.854
203.475	24.901	911.217	726.570
204.490	24.497	909.377	723.406
205.504	23.424	907.417	717.442
206.519	23.606	908.003	718.577
207.534	24.685	908.152	723.000
208.548	24.752	907.658	722.811
209.563	25.075	907.393	723.842
210.577	25.121	906.634	723.359
211.592	24.937	905.532	721.671
212.607	25.221	905.620	722.824
213.621	25.494	905.231	723.548
214.636	25.383	904.384	722.359
215.650	25.317	904.389	722.034
216.665	25.294	902.965	720.743
217.680	25.193	902.981	720.286
218.694	25.329	902.371	720.280
219.709	25.169	901.162	718.611
220.723	24.758	900.222	716.151
221.738	25.086	899.478	716.809
222.753	25.151	899.453	716.988
223.767	25.041	898.538	715.754
224.782	25.279	897.786	716.043
225.796	25.417	897.681	716.447
226.811	25.495	897.179	716.290
227.826	25.079	895.831	713.497
228.840	24.309	894.422	709.248
229.855	24.185	893.837	708.230
230.869	24.616	893.258	709.419
231.884	24.159	892.375	706.844
232.899	24.188	891.874	706.499
233.913	25.099	892.077	710.207
234.928	25.180	891.591	710.078
235.942	24.922	891.268	708.739
236.957	25.005	890.397	708.312
237.972	24.902	889.289	706.960
238.986	24.635	888.587	705.284
240.001	24.760	887.922	705.189
241.015	24.816	887.570	705.065
242.030	24.934	886.819	704.874
243.045	25.013	886.425	704.806
244.059	25.037	886.351	704.781
245.074	25.271	885.895	705.275
246.088	25.312	884.765	704.474
247.103	24.904	883.832	702.072
248.117	24.867	883.409	701.525
249.132	25.473	883.316	703.763
250.147	25.760	883.420	704.908
251.161	25.712	882.840	704.197
252.176	25.922	882.356	704.568
253.190	25.951	881.497	703.934
254.205	26.206	881.086	704.540
255.220	26.159	880.971	704.199
256.234	26.221	879.930	703.548
257.249	26.099	879.565	702.720
258.263	25.889	878.834	701.256
259.278	25.895	878.345	700.827
260.293	26.084	877.752	701.024
261.307	26.238	876.680	700.704
262.322	26.145	876.251	699.940
263.336	25.812	875.812	698.237
264.351	25.537	874.056	695.708
265.366	24.314	872.436	689.633
266.380	23.919	871.415	687.240
267.395	24.807	871.868	690.967
268.409	25.705	871.773	694.295
269.424	25.738	871.257	693.951
270.439	25.711	870.952	693.544
271.453	26.025	869.862	693.822
272.468	25.771	869.590	692.566
273.482	25.904	869.425	692.885
274.497	26.148	868.797	693.260
275.512	25.861	867.914	691.391
276.526	25.432	866.173	688.302
277.541	25.484	866.359	688.589
278.555	26.015	865.771	690.093
279.570	25.773	865.067	688.545
280.585	25.470	864.473	686.854
281.599	25.611	864.242	687.146
282.614	25.804	863.781	687.456
283.628	25.397	862.280	684.648
284.643	24.862	861.931	682.273
285.657	25.438	861.444	684.021
286.672	25.244	860.902	682.792
287.687	24.700	859.951	679.908
288.701	25.065	859.979	681.257
289.716	25.549	859.428	682.601
290.730	25.204	858.399	680.415
291.745	25.097	858.001	679.635
292.760	24.958	856.725	678.035
293.774	24.760	856.459	677.016
294.789	25.700	857.109	681.029
295.803	26.232	857.174	683.034
296.818	26.414	856.390	683.033
297.833	26.635	855.580	683.161
298.847	26.298	854.625	681.068
299.862	25.773	854.100	678.614
300.876	26.108	853.666	679.469
301.891	26.342	853.626	680.256
302.906	26.349	852.774	679.546
303.920	25.974	851.685	677.210
304.935	25.844	851.088	676.185
305.949	26.341	850.567	677.575
306.964	26.365	850.339	677.424
307.979	26.070	849.645	675.706
308.993	26.013	848.902	674.844
310.008	26.509	848.868	676.611
311.022	26.604	848.399	676.534
312.037	26.487	847.464	675.290
313.052	26.223	847.096	673.951
314.066	25.926	846.477	672.295
315.081	25.405	844.710	668.889
316.095	24.599	843.833	665.137
317.110	25.100	843.886	666.986
318.125	26.090	844.039	670.729
319.139	25.556	843.349	668.137
320.154	24.657	840.926	662.827
321.168	23.981	840.639	660.035
322.183	24.578	840.936	662.423
323.197	25.587	841.164	666.287
324.212	25.841	840.722	666.817
325.227	26.147	840.293	667.548
326.241	26.192	839.831	667.290
327.256	26.090	839.414	666.522
328.270	25.955	838.937	665.585
329.285	25.779	838.326	664.392
330.300	25.646	837.501	663.191
331.314	25.330	836.624	661.276
332.329	25.493	836.136	661.429
333.343	26.054	835.576	662.989
334.358	26.308	835.305	663.649
335.373	26.291	834.839	663.159
336.387	26.308	834.159	662.621
337.402	26.485	834.130	663.190
338.416	26.576	833.631	663.067
339.431	26.696	832.573	662.605
340.446	26.676	832.636	662.524
341.460	26.877	832.486	663.082
342.475	26.925	831.393	662.327
343.489	26.793	830.605	661.159
344.504	26.538	830.535	660.116
345.519	26.894	829.694	660.683
346.533	27.023	829.660	661.069
347.548	27.047	829.312	660.819
348.562	27.159	828.828	660.783
349.577	26.990	828.312	659.700
350.592	26.948	827.554	658.886
351.606	27.075	826.617	658.541
352.621	27.120	826.454	658.517
353.635	26.930	825.956	657.372
354.650	26.986	825.060	656.803
355.665	26.484	824.740	654.676
356.679	25.405	823.000	649.338
357.694	25.391	822.378	648.738
358.708	26.033	822.236	650.886
359.723	25.978	822.007	650.451
360.738	26.217	821.311	650.701
361.752	26.513	821.516	651.875
362.767	26.857	821.092	652.717
363.781	26.977	821.042	653.052
364.796	27.393	820.756	654.263
365.810	27.432	820.396	654.056
366.825	27.335	820.043	653.370
367.840	27.469	820.080	653.822
368.854	27.344	818.981	652.439
369.869	26.978	817.798	650.131
370.883	26.695	817.741	649.014
371.898	26.810	817.021	648.797
372.913	26.682	816.565	647.919
373.927	26.824	815.718	647.698
374.942	26.882	815.023	647.293
375.956	27.083	814.438	647.491
376.971	27.236	813.871	647.526
377.986	27.311	813.439	647.391
379.000	27.419	812.916	647.301
380.015	27.469	812.857	647.375
381.029	27.281	812.028	645.990
382.044	27.352	811.366	645.660
383.059	27.455	811.228	645.857
384.073	27.563	810.362	645.492
385.088	27.332	810.205	644.493
386.102	27.265	809.478	643.622
387.117	27.255	808.672	642.886
388.132	27.119	808.321	642.071
389.146	26.860	807.580	640.513
390.161	26.404	806.539	638.021
391.175	26.442	806.115	637.764
392.190	27.085	806.065	639.932
393.205	27.032	805.631	639.343
394.219	26.059	804.006	634.578
395.234	24.330	802.008	626.872
396.248	23.463	800.847	622.867
397.263	24.668	801.795	627.784
398.278	26.449	803.288	635.157
399.292	27.004	802.692	636.575
400.307	26.673	801.925	634.752
401.321	26.616	801.710	634.324
402.336	26.818	801.429	634.754
403.350	27.043	801.640	635.651
404.365	27.380	801.438	636.616
405.380	27.590	801.484	637.329
406.394	27.853	801.168	637.940
407.409	28.044	800.651	638.141
408.423	27.986	800.249	637.562
409.438	28.056	799.262	636.962
410.453	28.030	799.203	636.768
411.467	28.111	798.866	636.726
412.482	28.115	798.067	636.047
413.496	27.939	797.823	635.182
414.511	28.056	797.446	635.232
415.526	27.999	797.032	634.651
416.540	27.975	796.855	634.368
417.555	27.953	796.357	633.840
418.569	27.774	794.943	632.039
419.584	27.636	794.631	631.258
420.599	27.761	794.085	631.200
421.613	109.808	1281.632	1450.316
422.628	94.550	1352.666	1450.442
