DTS Sentinel unit serial number:	SN413079Multiplexer serial number:	ORYXHardware model number:	OX4-SRSoftware version number:	ORYX F/W v4.00 Oryx Data Collector v3.7.2.0data status	okinstallation	princeton_trtdifferential loss correction	single-endedforward channel	channel 3reverse channel	N/Adate	2019/09/10time	22:34:11forward acquisition time	60.00reverse acquisition time	0.00gamma	496.2192k internal	0.2331k external	0.2331temperature offset calibration	0.9922default loss term (dB/km)	0.3790temperature slope calibration	1.0000multiplexer offset coefficient	1.0000multiplexer slope coefficient	1.0000fibre end	0.00T internal ref (°C)	30.31T ext. ref 1 (°C)	-0.29T ext. ref 2 (°C)	23.79length (m)	temperature (°C)	Stokes	anti-Stokes-747.200	201.889	0.146	0.227
-746.185	-143.675	-0.255	-0.024
-745.171	-61.669	-0.064	0.027
-744.156	-39.939	-0.133	0.070
-743.142	-200.000	-0.047	-0.258
-742.127	-200.000	-0.025	0.284
-741.112	-200.000	-0.013	-0.063
-740.098	95.394	-0.210	0.241
-739.083	-97.590	-0.123	0.032
-738.069	-65.584	-0.225	0.091
-737.054	-200.000	-0.002	-0.009
-736.039	-200.000	-0.020	0.133
-735.025	28.832	-0.183	0.156
-734.010	-163.585	0.082	-0.004
-732.996	-135.947	-0.362	0.043
-731.981	141.013	-0.184	0.245
-730.966	11.875	0.201	0.155
-729.952	-25.023	-0.297	-0.177
-728.937	-26.813	-0.209	-0.123
-727.923	-200.000	-0.008	-0.221
-726.908	-40.814	-0.450	0.234
-725.894	-52.055	0.141	-0.066
-724.879	-86.700	-0.318	0.098
-723.864	78.057	0.119	0.128
-722.850	154.351	-0.051	0.071
-721.835	8.928	0.280	-0.213
-720.821	478.669	-0.084	-0.190
-719.806	61.512	0.150	-0.150
-718.791	-200.000	-0.001	-0.261
-717.777	32.422	-0.060	0.052
-716.762	219.985	-0.173	-0.278
-715.748	143.206	0.073	-0.098
-714.733	800.000	0.043	0.132
-713.718	184.695	-0.178	0.265
-712.704	-18.207	0.243	-0.153
-711.689	-200.000	0.020	-0.090
-710.675	55.593	0.059	0.058
-709.660	136.585	0.029	-0.038
-708.645	10.661	-0.176	-0.135
-707.631	-89.222	-0.132	0.039
-706.616	-64.748	-0.145	-0.059
-705.602	-114.282	0.271	0.053
-704.587	29.954	-0.197	-0.169
-703.572	488.581	-0.125	-0.288
-702.558	370.481	0.088	0.179
-701.543	-63.928	0.049	0.020
-700.529	-24.944	-0.036	-0.021
-699.514	126.394	0.167	-0.212
-698.499	-12.264	0.163	-0.107
-697.485	-200.000	0.006	0.166
-696.470	-47.621	-0.097	0.047
-695.456	-73.285	-0.453	0.166
-694.441	42.255	0.200	-0.183
-693.426	-97.818	0.177	0.046
-692.412	800.000	-0.011	-0.047
-691.397	33.657	0.324	-0.283
-690.383	174.480	0.122	-0.177
-689.368	22.885	-0.263	0.216
-688.354	-48.006	-0.352	0.171
-687.339	50.995	-0.237	-0.225
-686.324	-81.703	-0.430	-0.142
-685.310	618.699	0.042	0.106
-684.295	800.000	-0.114	0.341
-683.281	-200.000	0.003	-0.232
-682.266	800.000	0.080	0.269
-681.251	800.000	0.043	0.161
-680.237	168.672	0.270	0.387
-679.222	-138.845	0.189	0.021
-678.208	-200.000	-0.014	-0.196
-677.193	-200.000	0.072	-0.464
-676.178	800.000	0.040	0.175
-675.164	-200.000	0.001	0.196
-674.149	29.575	-0.127	-0.109
-673.135	-200.000	0.014	-0.332
-672.120	800.000	-0.034	0.110
-671.105	-200.000	-0.005	0.085
-670.091	-80.562	0.149	-0.050
-669.076	-156.493	-0.236	-0.015
-668.062	800.000	-0.112	-0.481
-667.047	114.318	0.180	0.219
-666.032	-200.000	-0.033	0.234
-665.018	-123.545	-0.383	-0.061
-664.003	-200.000	-0.056	0.269
-662.989	-200.000	-0.012	-0.192
-661.974	148.376	0.188	-0.255
-660.959	75.929	0.224	-0.238
-659.945	135.317	0.058	-0.076
-658.930	-200.000	-0.001	0.389
-657.916	-65.696	0.152	0.061
-656.901	-49.625	0.465	0.222
-655.886	253.063	0.158	0.271
-654.872	-200.000	-0.018	-0.446
-653.857	-110.390	0.198	-0.041
-652.843	-36.909	0.188	0.101
-651.828	-78.800	-0.293	-0.100
-650.814	-20.113	-0.383	0.237
-649.799	349.356	0.232	0.459
-648.784	-119.053	-0.143	-0.025
-647.770	518.580	0.132	-0.309
-646.755	-96.924	-0.142	0.037
-645.741	800.000	-0.039	-0.121
-644.726	800.000	0.007	-0.023
-643.711	-200.000	-0.043	0.339
-642.697	101.945	-0.216	0.253
-641.682	-39.319	0.214	0.113
-640.668	-200.000	0.006	-0.283
-639.653	176.037	-0.112	0.163
-638.638	-34.840	-0.291	0.159
-637.624	-72.702	-0.392	-0.145
-636.609	-65.027	-0.291	0.118
-635.595	-80.000	-0.159	0.053
-634.580	800.000	-0.119	0.440
-633.565	-2.934	0.109	-0.076
-632.551	52.693	-0.207	0.199
-631.536	588.365	0.055	-0.136
-630.522	103.635	0.190	-0.224
-629.507	52.759	-0.219	-0.210
-628.492	-187.394	0.249	0.003
-627.478	-78.359	-0.119	0.041
-626.463	-22.765	0.144	-0.087
-625.449	33.678	0.217	-0.189
-624.434	313.006	0.066	-0.123
-623.419	-24.688	0.330	-0.197
-622.405	46.404	-0.016	-0.015
-621.390	-2.021	0.110	0.077
-620.376	159.859	-0.122	-0.171
-619.361	800.000	0.051	0.153
-618.346	-200.000	-0.032	0.246
-617.332	-137.386	-0.301	0.034
-616.317	-200.000	0.014	-0.466
-615.303	24.845	-0.166	-0.138
-614.288	-108.792	0.206	-0.044
-613.273	800.000	-0.034	0.151
-612.259	-103.758	0.487	0.114
-611.244	-200.000	-0.013	0.251
-610.230	23.097	-0.030	-0.025
-609.215	-200.000	0.010	-0.116
-608.201	124.587	-0.300	-0.379
-607.186	-179.999	-0.237	0.005
-606.171	-82.158	0.180	0.059
-605.157	450.878	0.130	-0.288
-604.142	-62.169	-0.199	0.083
-603.128	2.605	0.173	0.125
-602.113	-108.385	-0.313	-0.068
-601.098	-200.000	-0.093	0.452
-600.084	-200.000	0.007	-0.174
-599.069	321.925	0.056	0.108
-598.055	99.285	-0.129	0.149
-597.040	800.000	0.004	0.014
-596.025	-200.000	0.002	0.125
-595.011	-129.321	0.134	-0.019
-593.996	155.252	0.194	0.267
-592.982	-72.505	0.282	-0.104
-591.967	344.100	0.090	-0.176
-590.952	-101.410	0.209	-0.051
-589.938	-9.277	0.304	0.203
-588.923	-22.241	-0.065	-0.039
-587.909	49.900	-0.103	0.097
-586.894	-200.000	-0.063	0.351
-585.879	-91.299	-0.359	0.103
-584.865	-162.648	0.169	-0.008
-583.850	72.724	-0.089	-0.093
-582.836	-148.681	0.308	0.025
-581.821	371.788	-0.111	-0.225
-580.806	94.103	0.104	-0.118
-579.792	-28.165	0.022	-0.013
-578.777	267.574	-0.127	0.222
-577.763	-106.940	-0.224	0.050
-576.748	126.285	0.133	0.169
-575.733	385.045	-0.059	-0.122
-574.719	800.000	0.149	0.467
-573.704	-200.000	-0.022	-0.382
-572.690	27.024	0.189	0.159
-571.675	-55.124	0.172	-0.077
-570.661	95.615	0.025	0.028
-569.646	34.106	0.140	0.122
-568.631	67.351	-0.153	-0.156
-567.617	-66.759	0.143	0.057
-566.602	-158.883	0.289	0.016
-565.588	-49.532	-0.129	0.061
-564.573	360.803	-0.161	-0.323
-563.558	-200.000	0.035	0.296
-562.544	291.876	0.037	-0.068
-561.529	-200.000	-0.016	0.189
-560.515	-100.201	0.105	0.026
-559.500	800.000	-0.055	-0.200
-558.485	26.736	0.187	-0.157
-557.471	246.266	-0.151	0.254
-556.456	-30.470	0.135	0.077
-555.442	-138.699	0.180	0.020
-554.427	633.132	0.122	-0.309
-553.412	-165.925	-0.344	-0.015
-552.398	-80.296	-0.067	0.022
-551.383	-200.000	-0.010	-0.217
-550.369	-24.281	-0.203	-0.121
-549.354	198.301	0.036	-0.055
-548.339	239.031	-0.083	0.138
-547.325	-99.894	-0.137	-0.034
-546.310	-26.818	-0.157	0.091
-545.296	2.334	0.179	0.129
-544.281	-26.190	0.151	-0.088
-543.266	125.880	-0.120	-0.151
-542.252	-21.403	-0.033	-0.020
-541.237	-31.657	0.097	-0.055
-540.223	800.000	-0.065	0.204
-539.208	193.068	-0.049	-0.074
-538.193	800.000	0.096	-0.274
-537.179	-29.882	-0.154	0.088
-536.164	-82.266	0.328	-0.106
-535.150	-14.717	0.072	-0.046
-534.135	140.647	-0.288	0.380
-533.121	-200.000	0.008	-0.047
-532.106	29.362	0.140	-0.119
-531.091	0.702	-0.046	-0.033
-530.077	-66.421	-0.116	0.046
-529.062	-200.000	0.009	0.057
-528.048	800.000	0.020	0.072
-527.033	-200.000	-0.038	0.226
-526.018	108.425	0.126	-0.150
-525.004	-81.621	0.126	0.041
-523.989	-200.000	-0.079	-0.401
-522.975	-85.762	0.052	-0.016
-521.960	-126.924	-0.212	-0.031
-520.945	0.712	0.362	0.259
-519.931	-175.306	-0.167	-0.005
-518.916	-69.989	-0.257	0.098
-517.902	-48.052	-0.180	0.087
-516.887	19.763	-0.192	-0.154
-515.872	31.049	0.219	0.187
-514.858	-24.741	0.175	-0.104
-513.843	-25.384	-0.288	-0.170
-512.829	-33.949	0.039	-0.021
-511.814	181.696	-0.077	-0.113
-510.799	68.039	0.205	0.209
-509.785	477.600	0.083	0.186
-508.770	391.716	0.093	-0.193
-507.756	-117.952	0.302	-0.054
-506.741	368.844	0.061	-0.124
-505.726	-162.793	-0.265	-0.013
-504.712	800.000	-0.013	0.049
-503.697	134.039	0.045	-0.058
-502.683	470.892	0.052	-0.117
-501.668	96.037	-0.231	-0.263
-500.653	-200.000	0.005	0.064
-499.639	403.204	-0.092	-0.192
-498.624	-140.164	-0.257	-0.027
-497.610	557.399	0.079	-0.189
-496.595	800.000	-0.052	-0.191
-495.581	-16.343	-0.145	-0.091
-494.566	-200.000	0.034	0.401
-493.551	32.628	0.092	-0.079
-492.537	39.485	-0.346	-0.309
-491.522	112.002	-0.069	0.083
-490.508	-124.020	0.082	-0.013
-489.493	-200.000	-0.007	0.150
-488.478	65.289	-0.072	0.072
-487.464	-59.649	0.092	-0.039
-486.449	-129.591	-0.154	0.021
-485.435	-200.000	-0.038	-0.247
-484.420	482.265	0.153	-0.345
-483.405	-50.722	-0.181	-0.085
-482.391	225.501	0.171	0.275
-481.376	-6.499	0.109	0.074
-480.362	-20.435	0.160	-0.098
-479.347	7.139	-0.040	-0.030
-478.332	-7.531	-0.185	0.125
-477.318	-200.000	-0.001	0.163
-476.303	17.171	0.141	-0.111
-475.289	-200.000	-0.008	0.077
-474.274	-200.000	0.056	0.279
-473.259	-129.166	-0.093	0.013
-472.245	-200.000	0.008	0.154
-471.230	150.838	-0.111	0.150
-470.216	16.035	0.196	0.154
-469.201	-70.949	-0.221	0.083
-468.186	327.731	-0.045	-0.087
-467.172	-121.067	-0.229	0.038
-466.157	67.218	-0.063	-0.064
-465.143	-56.485	-0.127	0.056
-464.128	-146.177	-0.142	0.012
-463.113	-19.289	0.240	0.148
-462.099	-101.909	0.136	-0.033
-461.084	-126.390	0.150	-0.022
-460.070	-93.510	-0.087	-0.024
-459.055	-200.000	0.029	-0.215
-458.040	22.535	0.211	-0.171
-457.026	44.658	0.099	0.090
-456.011	-45.350	0.112	-0.055
-454.997	-176.887	0.083	0.002
-453.982	64.548	-0.256	-0.257
-452.968	-123.311	-0.211	0.034
-451.953	-35.033	-0.137	-0.075
-450.938	83.114	0.233	-0.252
-449.924	35.115	0.247	0.215
-448.909	-140.937	0.347	-0.035
-447.895	15.056	-0.139	0.109
-446.880	-200.000	-0.005	-0.345
-445.865	50.884	-0.078	0.074
-444.851	-200.000	0.010	0.237
-443.836	-200.000	-0.094	0.491
-442.822	-80.604	-0.247	-0.082
-441.807	800.000	0.062	0.206
-440.792	23.729	-0.127	0.104
-439.778	-12.950	-0.119	-0.077
-438.763	-118.811	0.160	0.028
-437.749	-102.015	0.032	-0.008
-436.734	15.115	0.153	0.119
-435.719	800.000	0.023	-0.090
-434.705	-14.678	-0.247	0.158
-433.690	-0.253	0.181	-0.128
-432.676	-52.950	-0.160	-0.073
-431.661	472.101	-0.041	-0.091
-430.646	39.878	0.028	0.025
-429.632	-103.264	0.120	0.028
-428.617	-134.458	0.249	-0.030
-427.603	-200.000	-0.012	0.275
-426.588	246.298	0.060	0.101
-425.573	-200.000	0.020	-0.343
-424.559	120.579	0.208	0.257
-423.544	800.000	0.102	-0.356
-422.530	800.000	0.033	0.101
-421.515	800.000	0.021	0.071
-420.500	800.000	0.115	-0.461
-419.486	-200.000	-0.077	0.435
-418.471	-69.442	0.136	0.052
-417.457	266.193	0.121	0.209
-416.442	118.118	-0.213	0.261
-415.428	42.243	-0.209	0.189
-414.413	33.317	-0.219	0.189
-413.398	-58.115	0.263	-0.114
-412.384	788.872	0.146	0.398
-411.369	-103.292	-0.070	0.016
-410.355	-61.175	-0.313	-0.131
-409.340	-2.253	0.166	-0.116
-408.325	5.336	0.401	-0.294
-407.311	147.244	-0.049	-0.065
-406.296	661.702	-0.070	0.179
-405.282	10.786	-0.160	-0.121
-404.267	64.504	-0.227	-0.227
-403.252	17.762	0.388	-0.306
-402.238	118.990	-0.155	-0.190
-401.223	-82.075	0.108	-0.035
-400.209	72.362	-0.194	-0.200
-399.194	76.159	-0.051	-0.053
-398.179	-127.301	0.470	-0.068
-397.165	800.000	0.093	-0.270
-396.150	227.843	0.058	0.094
-395.136	22.766	-0.042	0.034
-394.121	-200.000	-0.031	0.213
-393.106	-134.290	-0.126	-0.015
-392.092	65.669	-0.305	-0.307
-391.077	-143.466	0.268	-0.025
-390.063	-12.270	-0.122	-0.079
-389.048	-10.216	0.109	-0.072
-388.033	176.287	-0.055	0.079
-387.019	-200.000	0.018	0.291
-386.004	800.000	-0.009	0.025
-384.990	29.692	0.232	-0.196
-383.975	-200.000	-0.022	-0.181
-382.960	666.782	0.107	0.275
-381.946	-200.000	-0.061	0.281
-380.931	-200.000	-0.070	-0.332
-379.917	-120.261	-0.327	-0.055
-378.902	-154.098	-0.087	0.006
-377.888	-200.000	-0.026	0.117
-376.873	-123.439	0.210	0.033
-375.858	109.541	0.201	-0.238
-374.844	5.632	0.118	0.087
-373.829	623.168	0.030	-0.074
-372.815	33.355	0.155	-0.133
-371.800	-15.253	-0.219	-0.139
-370.785	-197.235	0.203	0.001
-369.771	230.019	0.020	-0.033
-368.756	-143.321	-0.261	-0.025
-367.742	-30.321	0.133	-0.075
-366.727	114.653	-0.138	0.167
-365.712	82.029	0.047	0.050
-364.698	122.892	0.038	0.048
-363.683	-145.790	0.178	-0.016
-362.669	400.209	0.099	-0.206
-361.654	179.262	-0.172	-0.250
-360.639	-68.872	-0.191	0.073
-359.625	475.277	0.079	-0.178
-358.610	60.277	-0.303	0.297
-357.596	-126.071	-0.367	0.055
-356.581	-124.559	0.278	0.043
-355.566	-192.212	-0.080	0.001
-354.552	-87.360	-0.102	0.031
-353.537	-27.125	0.084	-0.048
-352.523	-200.000	-0.013	0.055
-351.508	116.693	0.197	0.240
-350.493	-40.474	-0.324	0.167
-349.479	-121.723	0.324	-0.053
-348.464	-27.499	0.151	0.087
-347.450	542.705	0.132	0.311
-346.435	96.723	0.219	0.249
-345.420	38.920	0.211	-0.186
-344.406	-85.713	-0.103	0.032
-343.391	164.824	0.056	0.078
-342.377	184.331	-0.112	-0.164
-341.362	800.000	0.066	0.261
-340.348	-146.910	0.287	0.024
-339.333	208.591	-0.064	0.100
-338.318	-22.583	0.314	-0.188
-337.304	-200.000	-0.011	-0.110
-336.289	-2.984	0.297	-0.205
-335.275	-72.273	-0.261	0.096
-334.260	800.000	-0.110	0.445
-333.245	150.814	-0.124	0.168
-332.231	259.048	-0.180	0.308
-331.216	-150.672	0.259	0.020
-330.202	240.484	0.155	0.255
-329.187	-200.000	-0.041	0.269
-328.172	8.455	0.145	0.108
-327.158	-165.509	-0.377	-0.016
-326.143	-66.825	-0.197	0.077
-325.129	-32.808	0.183	-0.101
-324.114	800.000	-0.042	0.137
-323.099	-97.790	-0.152	0.039
-322.085	-37.439	-0.302	-0.159
-321.070	-95.244	0.164	0.044
-320.056	48.190	0.126	-0.116
-319.041	0.936	-0.094	0.067
-318.026	-200.000	0.055	0.259
-317.012	-200.000	0.012	0.232
-315.997	800.000	0.049	-0.137
-314.983	-72.977	-0.077	0.028
-313.968	800.000	0.126	0.440
-312.953	-69.799	0.075	0.028
-311.939	800.000	0.068	-0.233
-310.924	-131.055	0.109	0.014
-309.910	33.213	0.211	-0.181
-308.895	127.181	-0.049	-0.061
-307.880	-171.486	-0.150	-0.005
-306.866	249.309	-0.157	-0.263
-305.851	671.765	0.165	-0.424
-304.837	130.934	0.159	0.201
-303.822	-131.983	-0.392	0.051
-302.807	-122.533	0.210	0.034
-301.793	-79.843	-0.236	-0.079
-300.778	348.137	0.185	0.361
-299.764	147.958	0.268	-0.357
-298.749	800.000	-0.028	0.101
-297.735	-37.000	-0.328	-0.174
-296.720	800.000	-0.144	0.452
-295.705	-102.661	-0.347	-0.082
-294.691	-200.000	0.056	-0.382
-293.676	-98.380	0.247	-0.062
-292.662	-102.033	-0.252	-0.060
-291.647	669.815	0.103	-0.263
-290.632	-56.636	0.162	0.071
-289.618	-108.791	0.276	0.058
-288.603	233.337	-0.042	0.069
-287.589	-22.917	-0.190	0.113
-286.574	-107.971	0.236	0.051
-285.559	-31.131	0.126	-0.070
-284.545	777.116	-0.118	-0.319
-283.530	-200.000	0.049	-0.481
-282.516	-200.000	-0.049	-0.300
-281.501	41.184	-0.272	-0.243
-280.486	290.988	0.026	0.046
-279.472	659.579	-0.176	-0.447
-278.457	38.610	-0.044	-0.039
-277.443	87.822	-0.280	0.306
-276.428	32.289	0.116	-0.099
-275.413	143.079	0.051	0.067
-274.399	-108.122	-0.046	0.010
-273.384	54.658	-0.064	0.061
-272.370	-200.000	0.002	0.193
-271.355	-73.533	0.441	-0.159
-270.340	-200.000	0.015	0.107
-269.326	-97.367	0.124	0.032
-268.311	-62.024	0.232	-0.096
-267.297	-110.541	-0.294	0.060
-266.282	-200.000	-0.033	0.296
-265.267	427.857	0.159	0.340
-264.253	105.465	-0.278	-0.325
-263.238	-68.212	-0.074	-0.028
-262.224	756.454	-0.081	-0.216
-261.209	-22.479	0.216	0.129
-260.195	118.471	-0.161	0.196
-259.180	-200.000	0.041	0.186
-258.165	-31.384	-0.137	0.076
-257.151	800.000	-0.021	-0.061
-256.136	132.605	0.025	0.032
-255.122	57.164	-0.110	0.106
-254.107	-69.928	0.048	0.018
-253.092	367.196	0.086	-0.171
-252.078	49.957	-0.093	0.087
-251.063	-55.950	0.157	-0.069
-250.049	40.717	-0.113	-0.100
-249.034	59.845	-0.195	0.190
-248.019	-133.635	-0.101	0.012
-247.005	703.778	-0.074	0.193
-245.990	-49.204	-0.289	0.136
-244.976	282.743	-0.066	-0.118
-243.961	-95.976	0.449	-0.118
-242.946	-200.000	-0.004	0.117
-241.932	-89.816	-0.268	-0.077
-240.917	-200.000	-0.081	0.398
-239.903	-77.835	0.367	0.125
-238.888	7.387	-0.215	0.158
-237.873	-142.276	0.253	0.025
-236.859	-189.366	-0.213	0.002
-235.844	-61.030	-0.375	0.156
-234.830	-122.877	0.131	-0.021
-233.815	57.403	-0.095	-0.092
-232.800	-59.654	-0.138	-0.058
-231.786	-72.151	-0.190	0.070
-230.771	-155.398	0.261	-0.017
-229.757	-2.415	0.013	-0.009
-228.742	-77.175	0.148	0.051
-227.727	-17.110	0.151	-0.094
-226.713	374.427	-0.132	-0.264
-225.698	-29.949	0.186	-0.105
-224.684	145.739	0.105	0.139
-223.669	123.256	0.057	-0.070
-222.655	-59.610	-0.097	-0.041
-221.640	-26.368	-0.155	-0.090
-220.625	800.000	0.064	-0.220
-219.611	90.123	-0.141	-0.156
-218.596	-113.059	0.249	-0.048
-217.582	-65.371	-0.202	0.080
-216.567	-71.215	-0.172	-0.064
-215.552	253.961	-0.122	0.205
-214.538	-102.541	-0.487	0.115
-213.523	309.466	0.271	-0.499
-212.509	-193.672	-0.342	-0.003
-211.494	-200.000	0.013	0.439
-210.479	153.839	0.051	0.069
-209.465	-139.436	-0.288	-0.030
-208.450	-182.429	0.242	0.004
-207.436	-200.000	-0.065	-0.345
-206.421	-12.118	0.088	-0.057
-205.406	-24.782	0.201	-0.118
-204.392	61.233	0.112	-0.109
-203.377	-14.030	-0.193	-0.123
-202.363	-55.813	0.093	0.041
-201.348	-200.000	-0.026	0.252
-200.333	-38.061	0.026	0.014
-199.319	239.024	0.059	-0.096
-198.304	147.795	-0.015	0.020
-197.290	-133.440	-0.116	0.014
-196.275	227.037	0.186	0.297
-195.260	134.579	0.094	0.120
-194.246	800.000	0.078	0.266
-193.231	74.792	0.246	-0.255
-192.217	304.183	0.082	-0.150
-191.202	51.542	0.146	-0.136
-190.187	-156.649	-0.215	-0.013
-189.173	-200.000	0.020	0.165
-188.158	-101.843	0.238	0.057
-187.144	-200.000	0.024	0.119
-186.129	-200.000	-0.014	-0.095
-185.114	-43.377	0.253	0.126
-184.100	-200.000	-0.005	-0.279
-183.085	10.907	0.119	-0.090
-182.071	245.235	0.182	-0.302
-181.056	142.602	-0.029	0.038
-180.042	48.228	-0.324	-0.299
-179.027	168.198	-0.128	-0.179
-178.012	304.635	-0.139	0.255
-176.998	684.003	-0.055	-0.142
-175.983	-61.039	0.069	-0.029
-174.969	-58.615	-0.339	-0.145
-173.954	-4.621	-0.234	0.159
-172.939	-136.929	-0.118	-0.013
-171.925	-102.146	-0.120	-0.028
-170.910	-63.055	0.158	-0.064
-169.896	-73.720	0.290	0.104
-168.881	-111.087	-0.481	-0.097
-167.866	218.425	-0.065	0.102
-166.852	-152.752	0.501	0.035
-165.837	22.936	-0.149	-0.120
-164.823	151.750	-0.135	0.181
-163.808	-175.679	0.349	-0.009
-162.793	82.711	0.199	0.212
-161.779	-200.000	-0.065	0.310
-160.764	-182.915	-0.201	-0.004
-159.750	-54.570	-0.323	-0.144
-158.735	192.556	0.155	-0.231
-157.720	211.210	0.302	-0.467
-156.706	0.050	0.220	-0.154
-155.691	252.507	-0.096	-0.160
-154.677	223.101	0.014	-0.022
-153.662	94.833	-0.182	0.203
-152.647	-27.191	-0.194	0.111
-151.633	-128.351	0.211	0.030
-150.618	800.000	0.039	-0.157
-149.604	114.542	0.133	0.159
-148.589	565.114	0.160	0.380
-147.574	-83.669	0.164	-0.052
-146.560	-200.000	0.044	0.197
-145.545	-200.000	-0.020	-0.232
-144.531	132.111	-0.146	-0.185
-143.516	76.166	0.213	0.222
-142.502	75.723	-0.163	0.170
-141.487	-49.340	0.382	0.179
-140.472	-13.870	-0.309	0.196
-139.458	-74.845	-0.136	-0.048
-138.443	36.412	0.180	0.156
-137.429	203.973	0.178	-0.271
-136.414	-70.990	0.253	0.094
-135.399	-66.729	0.572	-0.223
-134.385	235.535	0.052	-0.085
-133.370	-200.000	-0.024	0.201
-132.356	121.965	0.301	-0.370
-131.341	-200.000	-0.072	0.327
-130.326	-48.743	-0.203	-0.096
-129.312	609.210	0.051	0.126
-128.297	-200.000	0.017	0.221
-127.283	-99.490	0.165	0.041
-126.268	52.667	0.074	-0.070
-125.253	497.146	-0.095	-0.214
-124.239	688.550	-0.105	-0.269
-123.224	349.849	0.077	-0.150
-122.210	800.000	-0.032	-0.128
-121.195	-10.764	0.188	0.122
-120.180	134.881	0.032	0.041
-119.166	-33.477	0.247	-0.134
-118.151	65.700	0.136	0.136
-117.137	142.182	0.074	0.097
-116.122	800.000	0.107	0.408
-115.107	-200.000	0.040	-0.308
-114.093	-97.880	0.375	0.095
-113.078	-148.718	-0.095	-0.008
-112.064	-200.000	-0.050	0.239
-111.049	-50.982	0.189	-0.087
-110.034	800.000	0.089	0.279
-109.020	-170.411	-0.184	0.006
-108.005	2.402	-0.180	0.128
-106.991	46.557	-0.102	0.093
-105.976	64.236	-0.054	0.053
-104.962	-31.391	0.175	-0.097
-103.947	31.546	0.129	0.109
-102.932	13.873	0.195	0.149
-101.918	800.000	-0.041	0.155
-100.903	408.927	0.108	0.224
-99.889	140.665	-0.072	0.094
-98.874	347.560	-0.076	0.147
-97.859	359.664	0.054	-0.106
-96.845	482.317	0.147	-0.329
-95.830	-179.033	-0.115	0.003
-94.816	800.000	-0.166	-0.455
-93.801	-77.979	0.031	-0.011
-92.786	-58.138	-0.422	-0.181
-91.772	-177.166	0.474	0.012
-90.757	273.841	0.092	-0.159
-89.743	-200.000	0.010	-0.323
-88.728	-76.808	-0.238	-0.082
-87.713	-21.005	0.073	-0.044
-86.699	-41.182	-0.276	-0.140
-85.684	-106.287	0.294	0.065
-84.670	-16.607	0.148	0.092
-83.655	511.249	-0.045	0.103
-82.640	-45.062	-0.238	0.116
-81.626	163.728	-0.224	0.309
-80.611	-143.597	0.268	-0.025
-79.597	31.429	-0.114	0.096
-78.582	800.000	-0.049	-0.132
-77.567	298.433	0.092	-0.165
-76.553	471.417	-0.140	-0.309
-75.538	32.590	0.066	0.056
-74.524	91.270	-0.173	0.191
-73.509	800.000	-0.077	-0.230
-72.494	8.959	0.237	-0.175
-71.480	-102.430	0.215	-0.050
-70.465	-200.000	-0.009	0.198
-69.451	-93.592	-0.272	-0.074
-68.436	-127.881	0.474	-0.067
-67.422	-200.000	-0.008	-0.207
-66.407	147.360	-0.208	-0.274
-65.392	800.000	-0.058	0.240
-64.378	64.866	-0.286	-0.283
-63.363	-35.744	-0.150	0.080
-62.349	77.783	-0.281	0.293
-61.334	49.975	-0.879	-0.813
-60.319	56.385	0.308	0.293
-59.305	300.759	-0.444	-0.804
-58.290	93.463	0.800	0.887
-57.276	-200.000	-0.025	1.519
-56.261	-200.000	103.581	615.107
-55.246	526.472	1469.685	3392.124
-54.232	182.268	2663.325	3845.561
-53.217	113.505	2170.366	2581.646
-52.203	41.054	1693.860	1498.668
-51.188	33.397	1504.113	1279.257
-50.173	31.143	1477.169	1241.324
-49.159	52.230	1531.802	1430.663
-48.144	52.820	1549.083	1450.744
-47.130	33.671	1505.893	1282.427
-46.115	30.567	1490.833	1248.734
-45.100	30.357	1487.321	1244.336
-44.086	30.296	1485.584	1242.428
-43.071	30.437	1483.170	1241.298
-42.057	30.321	1481.231	1238.853
-41.042	30.370	1479.587	1237.759
-40.027	30.390	1478.492	1236.922
-39.013	30.403	1476.446	1235.252
-37.998	30.355	1475.823	1234.361
-36.984	30.248	1475.158	1233.048
-35.969	30.291	1473.416	1231.823
-34.954	30.294	1472.148	1230.734
-33.940	30.296	1470.659	1229.457
-32.925	30.387	1469.252	1228.834
-31.911	30.265	1468.641	1227.468
-30.896	30.465	1466.779	1227.183
-29.881	30.360	1465.687	1225.529
-28.867	30.351	1464.628	1224.535
-27.852	30.357	1462.857	1223.043
-26.838	30.325	1461.649	1221.773
-25.823	30.354	1459.812	1220.379
-24.809	30.462	1458.031	1219.553
-23.794	30.401	1456.392	1217.732
-22.779	30.347	1455.481	1216.570
-21.765	30.315	1454.719	1215.675
-20.750	30.410	1453.709	1215.405
-19.736	30.308	1452.426	1213.620
-18.721	30.378	1451.427	1213.192
-17.706	30.395	1450.671	1212.622
-16.692	30.284	1449.997	1211.289
-15.677	30.379	1448.465	1210.578
-14.663	30.273	1447.909	1209.373
-13.648	30.308	1446.810	1208.634
-12.633	30.295	1445.581	1207.476
-11.619	30.209	1445.261	1206.602
-10.604	30.250	1444.085	1205.838
-9.590	30.303	1442.776	1205.040
-8.575	30.246	1442.693	1204.557
-7.560	30.180	1441.631	1203.191
-6.546	30.162	1441.086	1202.574
-5.531	30.192	1440.160	1201.949
-4.517	30.270	1438.816	1201.281
-3.502	30.341	1437.531	1200.620
-2.487	30.304	1436.535	1199.504
-1.473	30.193	1435.619	1197.974
-0.458	30.256	1434.493	1197.394
0.556	28.079	1424.503	1186.089
1.571	25.052	1398.975	1145.417
2.586	21.566	1338.879	1074.752
3.600	19.929	1257.998	1000.285
4.615	18.839	1213.834	959.007
5.629	16.156	1158.806	901.136
6.644	7.814	1076.201	795.272
7.659	0.885	1036.262	732.252
8.673	-0.041	1030.526	723.677
9.688	-0.249	1027.477	720.474
10.702	-0.380	1026.195	718.882
11.717	-0.489	1024.434	717.062
12.731	2.648	1027.247	734.007
13.746	11.483	1039.651	785.469
14.761	18.164	1048.328	824.261
15.775	19.458	1049.392	831.260
16.790	19.605	1048.562	831.237
17.804	19.497	1047.264	829.615
18.819	19.228	1046.778	827.866
19.834	19.405	1045.884	827.932
20.848	19.415	1045.636	827.713
21.863	19.317	1045.670	827.195
22.877	19.402	1045.047	827.038
23.892	19.314	1044.518	826.124
24.907	19.208	1043.577	824.799
25.921	19.249	1042.780	824.294
26.936	19.302	1042.109	823.940
27.950	19.501	1040.620	823.641
28.965	19.391	1039.648	822.275
29.980	19.212	1038.072	820.103
30.994	19.313	1036.010	818.884
32.009	19.417	1035.899	819.217
33.023	19.490	1034.913	818.710
34.038	19.234	1033.644	816.423
35.053	19.171	1033.131	815.646
36.067	19.503	1031.947	816.207
37.082	19.410	1031.422	815.280
38.096	19.556	1030.827	815.427
39.111	19.505	1030.444	814.812
40.126	19.747	1028.566	814.398
41.140	19.666	1027.517	813.114
42.155	19.396	1026.510	810.973
43.169	19.269	1024.848	808.992
44.184	19.241	1023.766	807.936
45.199	19.194	1023.074	807.098
46.213	19.225	1021.716	806.100
47.228	19.004	1020.853	804.314
48.242	19.052	1020.010	803.805
49.257	19.265	1018.899	803.851
50.271	19.535	1017.816	804.185
51.286	19.434	1017.569	803.447
52.301	19.562	1016.267	802.943
53.315	19.296	1015.996	801.420
54.330	19.373	1015.169	801.057
55.344	19.481	1014.150	800.682
56.359	19.449	1013.188	799.704
57.374	19.539	1012.389	799.417
58.388	19.115	1011.710	796.851
59.403	19.237	1010.755	796.592
60.417	19.273	1009.938	796.044
61.432	19.192	1009.097	794.936
62.447	19.054	1008.106	793.449
63.461	19.301	1007.704	794.199
64.476	19.270	1007.102	793.511
65.490	19.261	1005.908	792.461
66.505	19.183	1004.758	791.128
67.520	19.211	1003.903	790.510
68.534	19.243	1003.573	790.328
69.549	19.193	1002.194	788.944
70.563	18.968	1001.081	786.967
71.578	18.735	1000.525	785.394
72.593	18.939	999.296	785.296
73.607	18.722	998.252	783.415
74.622	18.843	997.662	783.435
75.636	19.062	996.845	783.722
76.651	19.301	995.624	783.777
77.666	19.067	995.366	782.442
78.680	18.955	994.347	781.062
79.695	19.123	993.175	780.835
80.709	19.096	993.159	780.632
81.724	19.077	992.570	780.013
82.739	19.140	991.144	779.108
83.753	19.033	990.542	778.084
84.768	19.482	989.942	779.571
85.782	19.601	988.958	779.265
86.797	19.851	988.096	779.644
87.812	19.600	987.446	777.930
88.826	19.582	986.278	776.861
89.841	19.576	985.470	776.126
90.855	19.677	984.988	776.131
91.870	19.638	984.061	775.161
92.884	19.680	983.180	774.585
93.899	19.441	982.036	772.543
94.914	19.379	981.195	771.537
95.928	19.464	980.512	771.313
96.943	19.544	979.939	771.153
97.957	19.399	978.272	769.121
98.972	19.118	977.641	767.308
99.987	18.917	976.352	765.332
101.001	18.910	976.299	765.191
102.016	19.321	975.458	766.293
103.030	19.452	974.231	765.845
104.045	19.378	972.957	764.447
105.060	19.126	972.006	762.513
106.074	18.967	970.634	760.667
107.089	19.166	969.814	760.836
108.103	19.537	969.608	762.244
109.118	19.577	968.682	761.626
110.133	19.377	967.715	759.919
111.147	19.290	966.538	758.546
112.162	19.300	965.332	757.575
113.176	19.088	964.132	755.634
114.191	19.103	963.119	754.841
115.206	19.248	962.307	754.774
116.220	18.825	961.639	752.329
117.235	18.884	960.165	751.366
118.249	19.119	958.888	751.327
119.264	19.091	958.331	750.702
120.279	18.862	957.377	748.894
121.293	18.915	957.127	748.861
122.308	19.145	956.031	748.939
123.322	19.119	955.298	748.185
124.337	19.081	953.796	746.777
125.352	19.002	952.709	745.515
126.366	18.559	950.668	741.939
127.381	18.289	949.568	739.846
128.395	18.789	949.013	741.507
129.410	19.269	949.089	743.572
130.424	19.339	948.325	743.209
131.439	19.330	946.999	742.069
132.454	19.340	946.173	741.397
133.468	19.435	944.652	740.548
134.483	19.391	944.199	739.938
135.497	19.456	943.567	739.655
136.512	19.581	943.070	739.737
137.527	19.685	942.088	739.345
138.541	19.561	941.610	738.373
139.556	19.615	940.746	737.863
140.570	19.727	939.756	737.498
141.585	19.620	938.905	736.309
142.600	19.700	938.273	736.090
143.614	19.615	936.997	734.663
144.629	19.702	936.507	734.584
145.643	19.845	935.995	734.723
146.658	19.797	934.412	733.211
147.673	19.635	933.666	731.874
148.687	19.542	932.712	730.672
149.702	19.594	931.479	729.859
150.716	19.517	930.481	728.688
151.731	19.460	929.904	727.932
152.746	19.556	928.791	727.400
153.760	19.875	928.052	728.100
154.775	19.860	927.561	727.586
155.789	19.847	926.529	726.659
156.804	19.922	925.827	726.357
157.819	19.729	924.685	724.589
158.833	19.824	923.896	724.304
159.848	19.910	922.946	723.854
160.862	19.799	922.433	722.923
161.877	19.811	921.752	722.379
162.892	19.626	920.988	720.941
163.906	19.826	920.015	720.949
164.921	19.670	919.358	719.724
165.935	19.796	917.988	719.109
166.950	19.806	917.081	718.378
167.964	19.932	916.154	718.111
168.979	19.854	914.997	716.816
169.994	19.774	913.772	715.463
171.008	19.660	912.653	714.052
172.023	19.776	912.180	714.100
173.037	19.913	911.375	713.970
174.052	19.651	910.228	711.929
175.067	19.480	909.319	710.450
176.081	19.663	908.166	710.239
177.096	19.699	907.771	710.017
178.110	19.782	906.672	709.435
179.125	19.522	905.848	707.663
180.140	19.210	904.735	705.450
181.154	19.196	904.521	705.166
182.169	19.286	903.777	704.892
183.183	19.442	903.357	705.137
184.198	19.894	902.782	706.473
185.213	19.695	902.205	705.147
186.227	19.698	901.133	704.257
187.242	19.905	900.648	704.658
188.256	19.840	899.838	703.700
189.271	19.745	898.939	702.546
190.286	19.906	898.575	702.857
191.300	19.593	897.912	701.004
192.315	19.285	896.629	698.694
193.329	18.771	894.783	695.112
194.344	18.315	894.045	692.633
195.359	19.009	894.139	695.452
196.373	19.667	894.224	698.115
197.388	19.800	893.795	698.257
198.402	19.645	892.932	696.897
199.417	19.583	892.584	696.311
200.432	19.579	892.048	695.817
201.446	19.435	891.344	694.624
202.461	19.156	890.560	692.831
203.475	19.215	890.074	692.626
204.490	18.762	888.470	689.499
205.504	17.639	886.798	683.639
206.519	18.251	886.771	686.012
207.534	19.159	887.435	690.106
208.548	19.372	886.327	690.036
209.563	19.625	886.133	690.833
210.577	19.494	885.394	689.675
211.592	19.444	884.284	688.548
212.607	19.867	884.192	690.103
213.621	19.753	884.109	689.524
214.636	19.840	882.817	688.801
215.650	19.896	882.501	688.716
216.665	19.905	881.532	687.936
217.680	19.930	881.280	687.777
218.694	20.030	880.410	687.432
219.709	19.544	879.468	684.710
220.723	19.341	878.583	683.157
221.738	19.397	878.734	683.436
222.753	19.670	877.836	683.756
223.767	19.515	876.969	682.410
224.782	19.626	876.381	682.328
225.796	19.962	875.295	682.749
226.811	19.927	875.139	682.430
227.826	19.510	873.743	679.640
228.840	18.856	872.113	675.740
229.855	18.768	871.992	675.239
230.869	19.075	871.585	676.070
231.884	18.797	870.323	673.942
232.899	18.790	869.885	673.515
233.913	19.614	869.918	676.711
234.928	19.750	869.544	676.893
235.942	19.679	868.509	675.748
236.957	19.874	868.053	676.096
237.972	19.506	866.970	673.756
238.986	19.221	866.757	672.420
240.001	19.335	865.963	672.187
241.015	19.444	865.351	672.080
242.030	19.608	864.426	671.940
243.045	19.717	863.961	671.944
244.059	19.782	863.803	672.011
245.074	19.875	863.156	671.809
246.088	19.661	862.685	670.555
247.103	19.378	861.486	668.466
248.117	19.555	861.053	668.755
249.132	19.905	860.874	669.915
250.147	20.356	860.119	671.009
251.161	20.186	859.876	670.105
252.176	20.372	859.017	670.094
253.190	20.370	858.713	669.788
254.205	20.424	858.140	669.490
255.220	20.691	857.243	669.760
256.234	20.579	856.970	669.056
257.249	20.603	855.823	668.196
258.263	20.471	855.213	667.154
259.278	20.456	854.899	666.789
260.293	20.432	854.568	666.383
261.307	20.492	853.820	665.970
262.322	20.446	853.008	665.102
263.336	20.378	852.356	664.273
264.351	19.733	850.859	660.583
265.366	18.774	848.781	655.256
266.380	18.295	847.740	652.567
267.395	19.186	847.963	656.077
268.409	20.102	848.225	659.709
269.424	20.162	847.436	659.265
270.439	20.302	847.099	659.477
271.453	20.273	846.534	658.868
272.468	20.229	846.329	658.486
273.482	20.578	845.477	659.085
274.497	20.558	845.304	658.818
275.512	20.414	843.831	657.066
276.526	19.825	842.689	653.893
277.541	20.035	842.495	654.477
278.555	20.380	842.071	655.396
279.570	20.287	841.090	654.221
280.585	19.911	840.492	652.280
281.599	20.161	839.937	652.737
282.614	20.256	839.382	652.605
283.628	19.871	838.488	650.404
284.643	19.514	837.520	648.255
285.657	19.912	837.603	649.756
286.672	19.781	836.662	648.476
287.687	19.380	835.466	645.993
288.701	19.544	835.709	646.737
289.716	20.095	834.868	648.089
290.730	19.686	834.455	646.185
291.745	19.508	833.718	644.891
292.760	19.514	832.403	643.839
293.774	19.305	831.891	642.608
294.789	20.205	832.805	646.612
295.803	20.710	832.417	648.134
296.818	20.765	832.183	648.100
297.833	21.020	831.244	648.258
298.847	20.524	830.628	645.879
299.862	20.426	829.133	644.296
300.876	20.600	829.049	644.819
301.891	20.894	828.679	645.564
302.906	20.805	828.045	644.682
303.920	20.463	826.642	642.268
304.935	20.196	826.232	640.906
305.949	20.662	825.959	642.359
306.964	20.920	825.206	642.668
307.979	20.633	824.661	641.130
308.993	20.705	824.265	641.033
310.008	20.965	823.704	641.494
311.022	21.004	823.616	641.513
312.037	20.693	823.342	640.099
313.052	20.566	822.117	638.625
314.066	20.512	821.796	638.120
315.081	20.025	820.176	635.021
316.095	19.341	819.023	631.568
317.110	19.823	819.122	633.354
318.125	20.628	818.932	636.095
319.139	20.283	818.130	634.155
320.154	19.160	816.741	628.925
321.168	18.734	816.110	626.828
322.183	19.407	815.610	628.843
323.197	20.205	816.290	632.218
324.212	20.493	815.695	632.753
325.227	20.539	815.447	632.671
326.241	20.700	815.329	633.109
327.256	20.679	814.562	632.381
328.270	20.718	813.787	631.867
329.285	20.453	813.107	630.320
330.300	20.478	812.360	629.778
331.314	20.138	811.604	627.905
332.329	20.383	810.829	628.135
333.343	20.688	810.405	628.854
334.358	20.736	810.031	628.682
335.373	20.818	809.430	628.455
336.387	20.861	809.374	628.512
337.402	21.019	808.899	628.654
338.416	21.284	808.305	629.092
339.431	21.180	807.672	628.170
340.446	21.155	806.781	627.331
341.460	21.333	806.547	627.735
342.475	21.322	805.996	627.209
343.489	21.003	805.320	625.485
344.504	20.998	804.734	624.956
345.519	21.328	804.581	625.964
346.533	21.396	804.344	625.968
347.548	21.466	804.005	625.897
348.562	21.618	803.515	626.004
349.577	21.456	803.002	624.971
350.592	21.386	802.439	624.226
351.606	21.356	802.329	623.981
352.621	21.537	801.433	623.874
353.635	21.500	800.634	623.066
354.650	21.289	800.323	622.018
355.665	20.970	799.129	619.898
356.679	19.999	797.602	615.214
357.694	20.008	796.926	614.667
358.708	20.468	797.151	616.421
359.723	20.457	796.440	615.777
360.738	20.870	795.838	616.719
361.752	21.241	795.794	617.944
362.767	21.352	795.420	617.991
363.781	21.469	795.549	618.449
364.796	21.624	795.555	618.948
365.810	21.704	794.946	618.701
366.825	21.831	794.756	618.946
367.840	21.675	794.454	618.107
368.854	21.591	793.421	616.951
369.869	21.254	792.646	615.107
370.883	21.254	791.768	614.374
371.898	21.387	791.161	614.315
372.913	21.139	790.834	613.135
373.927	21.074	790.289	612.432
374.942	21.278	789.556	612.524
375.956	21.536	789.401	613.255
376.971	21.486	788.855	612.601
377.986	21.599	788.466	612.638
379.000	21.679	787.902	612.425
380.015	21.743	787.584	612.347
381.029	21.557	787.034	611.219
382.044	21.396	786.375	610.091
383.059	21.755	785.600	610.685
384.073	21.733	785.337	610.350
385.088	21.837	784.727	610.184
386.102	21.936	784.000	609.910
387.117	21.747	783.809	609.051
388.132	21.477	782.998	607.429
389.146	21.475	782.327	606.847
390.161	20.925	781.364	604.142
391.175	20.909	781.303	603.986
392.190	21.378	781.358	605.599
393.205	21.620	780.744	605.906
394.219	20.662	778.935	601.141
395.234	19.157	776.752	594.213
396.248	18.537	776.007	591.452
397.263	19.589	776.730	595.581
398.278	21.358	777.764	602.424
399.292	21.747	777.633	603.610
400.307	21.458	777.327	602.322
401.321	21.175	776.859	600.935
402.336	21.319	776.354	600.984
403.350	21.602	776.281	601.848
404.365	21.968	775.965	602.807
405.380	22.087	776.140	603.299
406.394	22.334	775.534	603.621
407.409	22.485	774.975	603.651
408.423	22.466	774.429	603.106
409.438	22.350	774.006	602.327
410.453	22.532	773.560	602.550
411.467	22.583	773.079	602.294
412.482	22.409	772.939	601.539
413.496	22.432	772.095	600.906
414.511	22.664	771.503	601.183
415.526	22.485	771.242	600.317
416.540	22.647	771.008	600.633
417.555	22.483	770.481	599.613
418.569	22.320	769.480	598.227
419.584	21.998	769.451	597.055
420.599	22.174	768.888	597.165
421.613	158.774	1361.593	1798.962
422.628	136.870	1447.980	1799.052
