DTS Sentinel unit serial number:	SN413079Multiplexer serial number:	ORYXHardware model number:	OX4-SRSoftware version number:	ORYX F/W v4.00 Oryx Data Collector v3.7.2.0data status	okinstallation	princeton_trtdifferential loss correction	single-endedforward channel	channel 3reverse channel	N/Adate	2019/09/11time	09:54:10forward acquisition time	60.00reverse acquisition time	0.00gamma	496.2192k internal	0.2302k external	0.2302temperature offset calibration	0.9941default loss term (dB/km)	0.3790temperature slope calibration	1.0000multiplexer offset coefficient	1.0000multiplexer slope coefficient	1.0000fibre end	0.00T internal ref (°C)	35.19T ext. ref 1 (°C)	0.14T ext. ref 2 (°C)	32.42length (m)	temperature (°C)	Stokes	anti-Stokes-747.200	-200.000	0.012	0.101
-746.185	-62.493	0.172	0.073
-745.171	42.627	0.183	0.170
-744.156	800.000	-0.066	-0.272
-743.142	-85.138	0.020	-0.006
-742.127	225.645	-0.111	0.184
-741.112	311.364	-0.068	0.129
-740.098	393.937	0.050	-0.107
-739.083	130.400	0.133	-0.174
-738.069	-20.385	-0.290	-0.182
-737.054	103.730	0.106	-0.127
-736.039	-34.918	-0.290	0.161
-735.025	-40.517	0.280	-0.148
-734.010	295.141	-0.140	-0.261
-732.996	-118.261	-0.357	0.065
-731.981	165.813	0.091	0.131
-730.966	180.560	-0.067	-0.100
-729.952	800.000	-0.069	-0.210
-728.937	-200.000	-0.198	0.000
-727.923	199.514	-0.068	-0.106
-726.908	38.623	-0.090	-0.082
-725.894	-27.249	-0.185	0.110
-724.879	800.000	-0.057	0.227
-723.864	-200.000	0.008	-0.275
-722.850	499.883	-0.067	-0.157
-721.835	-200.000	-0.045	-0.310
-720.821	113.784	-0.127	-0.157
-719.806	-153.404	-0.540	-0.038
-718.791	-17.329	0.095	0.061
-717.777	-90.105	-0.127	0.038
-716.762	800.000	-0.041	-0.117
-715.748	169.891	-0.037	0.054
-714.733	190.621	0.118	-0.181
-713.718	123.028	-0.109	-0.139
-712.704	-186.323	0.110	0.002
-711.689	33.644	0.178	0.157
-710.675	-112.838	-0.279	0.056
-709.660	89.753	-0.226	0.256
-708.645	-101.690	-0.086	-0.021
-707.631	-52.170	-0.222	0.105
-706.616	599.864	0.201	0.508
-705.602	-172.502	0.231	0.007
-704.587	-200.000	-0.012	-0.081
-703.572	-200.000	-0.004	0.222
-702.558	148.668	0.222	0.305
-701.543	-200.000	0.074	-0.491
-700.529	-96.420	-0.138	-0.037
-699.514	99.985	0.082	0.097
-698.499	800.000	-0.040	-0.124
-697.485	-25.883	0.259	0.155
-696.470	54.071	-0.032	-0.032
-695.456	-32.516	-0.065	0.037
-694.441	-200.000	0.006	-0.074
-693.426	-89.602	0.196	0.059
-692.412	369.485	0.049	0.101
-691.397	-96.897	-0.200	-0.054
-690.383	-77.150	0.213	0.075
-689.368	-50.527	0.083	0.040
-688.354	-84.995	0.142	-0.045
-687.339	-114.030	0.191	0.038
-686.324	800.000	-0.077	-0.254
-685.310	-200.000	0.062	-0.320
-684.295	55.503	-0.095	0.093
-683.281	769.984	-0.033	-0.090
-682.266	470.587	-0.073	0.166
-681.251	146.890	-0.198	-0.271
-680.237	-114.305	-0.118	-0.023
-679.222	-200.000	-0.023	0.175
-678.208	800.000	-0.057	-0.185
-677.193	67.434	0.316	0.328
-676.178	-26.027	0.171	-0.102
-675.164	101.585	0.105	-0.124
-674.149	-106.221	-0.041	0.009
-673.135	171.080	-0.237	0.345
-672.120	-158.902	0.248	0.014
-671.105	202.188	-0.071	-0.111
-670.091	-99.337	-0.150	0.039
-669.076	111.223	-0.243	-0.298
-668.062	5.630	0.133	-0.100
-667.047	-88.523	-0.272	0.082
-666.032	-90.222	-0.235	-0.070
-665.018	-4.278	-0.110	0.077
-664.003	772.469	0.096	0.267
-662.989	-200.000	0.010	0.268
-661.974	30.047	0.138	-0.119
-660.959	148.691	-0.143	0.196
-659.945	800.000	-0.085	-0.258
-658.930	-17.219	-0.130	-0.083
-657.916	77.676	0.194	-0.210
-656.901	167.377	-0.065	0.094
-655.886	-200.000	0.015	-0.111
-654.872	-200.000	0.029	-0.190
-653.857	58.753	0.136	-0.136
-652.843	159.843	0.127	0.179
-651.828	-161.335	0.144	-0.008
-650.814	-200.000	-0.020	-0.209
-649.799	-33.778	-0.262	-0.147
-648.784	95.227	0.128	-0.148
-647.770	736.633	0.073	-0.199
-646.755	800.000	-0.054	0.241
-645.741	-200.000	0.024	-0.144
-644.726	-200.000	-0.025	-0.347
-643.711	-200.000	-0.311	-0.001
-642.697	340.653	0.053	-0.105
-641.682	-200.000	-0.054	0.245
-640.668	51.368	0.104	-0.101
-639.653	-200.000	-0.050	-0.362
-638.638	338.518	-0.129	-0.256
-637.624	16.881	0.076	-0.061
-636.609	14.558	-0.208	0.165
-635.595	655.151	-0.050	-0.130
-634.580	-200.000	0.016	0.259
-633.565	-39.881	-0.171	0.091
-632.551	263.726	-0.193	-0.341
-631.536	258.748	-0.110	0.193
-630.522	-200.000	0.052	-0.373
-629.507	-175.505	0.216	-0.006
-628.492	-200.000	0.063	0.361
-627.478	-101.876	-0.286	0.070
-626.463	-134.865	-0.102	-0.013
-625.449	-102.536	0.107	-0.026
-624.434	349.561	-0.063	0.125
-623.419	800.000	0.036	0.104
-622.405	-200.000	-0.047	-0.279
-621.390	800.000	0.070	0.213
-620.376	-200.000	0.044	0.303
-619.361	153.324	-0.102	-0.141
-618.346	-78.024	0.321	-0.112
-617.332	-200.000	0.057	-0.265
-616.317	167.178	-0.147	0.211
-615.303	-106.833	-0.077	-0.017
-614.288	800.000	0.058	0.257
-613.273	94.505	-0.059	0.068
-612.259	-200.000	-0.063	-0.294
-611.244	-200.000	-0.230	-0.001
-610.230	-16.835	-0.268	0.171
-609.215	41.822	0.075	-0.069
-608.201	-0.535	-0.076	-0.055
-607.186	124.255	-0.111	0.142
-606.171	-200.000	-0.005	0.280
-605.157	406.646	0.072	-0.153
-604.142	8.851	-0.235	0.180
-603.128	61.337	0.135	0.136
-602.113	90.246	0.101	0.115
-601.098	800.000	-0.079	-0.314
-600.084	-200.000	-0.005	-0.246
-599.069	-146.494	-0.507	0.045
-598.055	800.000	0.057	-0.247
-597.040	305.616	0.019	-0.036
-596.025	24.761	-0.118	-0.099
-595.011	-58.839	-0.240	-0.105
-593.996	-56.404	0.078	-0.035
-592.982	62.806	-0.112	-0.114
-591.967	-44.888	-0.207	-0.105
-590.952	607.790	0.082	0.207
-589.938	800.000	0.095	0.279
-588.923	122.959	0.067	-0.085
-587.909	136.186	-0.151	0.199
-586.894	222.251	0.111	-0.181
-585.879	-112.385	0.282	0.057
-584.865	186.082	-0.048	0.073
-583.850	69.235	-0.238	-0.248
-582.836	-200.000	-0.028	-0.157
-581.821	124.250	0.076	-0.097
-580.806	-133.649	-0.334	0.042
-579.792	270.121	0.090	0.161
-578.777	-135.414	-0.090	-0.011
-577.763	-69.399	-0.067	-0.026
-576.748	-200.000	0.032	0.270
-575.733	37.625	0.243	-0.219
-574.719	-200.000	-0.054	0.300
-573.704	48.946	-0.147	-0.140
-572.690	-38.561	-0.085	0.045
-571.675	-85.389	0.217	-0.069
-570.661	800.000	0.016	0.061
-569.646	-175.495	0.042	-0.001
-568.631	-29.884	0.302	0.174
-567.617	-77.902	0.272	0.095
-566.602	95.001	0.128	-0.147
-565.588	-131.957	0.196	-0.026
-564.573	800.000	-0.083	-0.314
-563.558	786.391	-0.144	0.400
-562.544	226.731	-0.210	0.346
-561.529	-21.833	-0.115	-0.071
-560.515	625.381	-0.065	-0.166
-559.500	759.458	-0.012	-0.033
-558.485	120.065	0.130	-0.163
-557.471	799.612	-0.078	-0.218
-556.456	155.251	-0.145	0.202
-555.442	-26.076	-0.248	0.148
-554.427	-144.725	0.244	-0.023
-553.412	94.074	-0.228	-0.262
-552.398	-75.549	-0.453	-0.163
-551.383	-70.369	0.230	0.088
-550.369	-153.024	0.115	-0.008
-549.354	-200.000	-0.043	0.253
-548.339	109.346	0.091	-0.111
-547.325	-14.485	0.170	-0.111
-546.310	-200.000	-0.040	-0.244
-545.296	590.578	0.056	-0.140
-544.281	86.591	-0.176	0.196
-543.266	-185.681	-0.148	0.002
-542.252	-18.849	-0.191	-0.120
-541.237	106.839	0.204	0.245
-540.223	220.608	0.143	-0.232
-539.208	-138.771	0.150	0.016
-538.193	-200.000	-0.017	0.186
-537.179	39.414	0.033	0.030
-536.164	-200.000	-0.053	-0.335
-535.150	39.765	0.224	-0.203
-534.135	506.177	0.140	0.328
-533.121	744.525	-0.063	-0.173
-532.106	0.051	0.265	0.191
-531.091	-200.000	0.065	0.296
-530.077	10.835	0.253	-0.195
-529.062	432.076	-0.165	-0.362
-528.048	-200.000	-0.031	-0.411
-527.033	202.369	-0.015	-0.023
-526.018	-38.592	0.193	-0.103
-525.004	800.000	-0.102	0.353
-523.989	-200.000	-0.026	0.255
-522.975	-177.806	-0.026	0.001
-521.960	800.000	-0.136	0.404
-520.945	-93.396	-0.094	0.026
-519.931	-76.858	0.097	-0.034
-518.916	-43.766	0.171	0.087
-517.902	-106.497	-0.214	0.048
-516.887	800.000	0.098	-0.416
-515.872	-36.390	-0.251	0.137
-514.858	200.558	0.059	0.092
-513.843	-18.091	0.461	-0.292
-512.829	-133.395	-0.354	0.045
-511.814	-200.000	-0.003	-0.094
-510.799	-200.000	-0.040	-0.192
-509.785	-176.145	-0.172	0.005
-508.770	-90.967	0.322	-0.094
-507.756	395.858	0.056	0.118
-506.741	184.565	-0.083	-0.124
-505.726	17.001	0.177	-0.142
-504.712	444.872	-0.022	0.049
-503.697	-200.000	-0.012	0.225
-502.683	-3.893	0.185	0.129
-501.668	-200.000	0.045	-0.235
-500.653	-57.827	-0.175	-0.077
-499.639	-7.371	-0.213	-0.146
-498.624	-91.499	-0.175	-0.050
-497.610	-200.000	0.016	0.165
-496.595	-6.524	-0.120	0.082
-495.581	-200.000	-0.030	-0.176
-494.566	-200.000	0.009	0.258
-493.551	800.000	0.053	-0.198
-492.537	-31.798	-0.335	-0.190
-491.522	-35.339	-0.127	-0.070
-490.508	800.000	-0.057	0.222
-489.493	10.798	-0.136	0.104
-488.478	-79.139	0.156	-0.054
-487.464	-85.599	-0.406	0.127
-486.449	-200.000	0.042	-0.286
-485.435	579.342	-0.108	0.267
-484.420	800.000	0.093	0.351
-483.405	-52.929	-0.104	0.048
-482.391	155.881	0.138	0.192
-481.376	463.394	0.157	-0.355
-480.362	-111.987	0.098	0.020
-479.347	518.015	0.123	0.291
-478.332	165.124	-0.195	-0.277
-477.318	-34.002	-0.217	0.121
-476.303	622.981	-0.142	0.362
-475.289	-200.000	-0.021	0.128
-474.274	577.423	0.121	-0.299
-473.259	-127.634	-0.333	0.049
-472.245	51.321	-0.286	-0.274
-471.230	-22.038	-0.107	0.065
-470.216	12.048	0.161	-0.125
-469.201	800.000	-0.028	-0.098
-468.186	-200.000	0.021	-0.101
-467.172	55.771	-0.111	0.108
-466.157	-200.000	-0.058	0.258
-465.143	-128.774	0.459	-0.065
-464.128	-55.321	0.095	0.043
-463.113	800.000	-0.059	0.206
-462.099	758.390	-0.104	0.284
-461.084	58.050	0.258	0.254
-460.070	-144.187	-0.081	0.008
-459.055	276.221	0.136	-0.244
-458.040	-30.419	-0.142	0.081
-457.026	-200.000	-0.020	0.143
-456.011	206.139	0.055	0.086
-454.997	-164.458	0.122	0.006
-453.982	-55.464	-0.407	-0.184
-452.968	-103.984	0.278	-0.065
-451.953	158.416	0.044	0.062
-450.938	-152.160	-0.213	-0.016
-449.924	800.000	-0.029	0.120
-448.909	547.747	-0.190	0.458
-447.895	17.065	0.147	0.117
-446.880	800.000	-0.044	0.177
-445.865	-4.673	-0.051	-0.036
-444.851	610.154	0.103	0.258
-443.836	-177.629	-0.253	-0.006
-442.822	41.790	0.171	0.156
-441.807	-200.000	0.020	-0.343
-440.792	-92.138	0.116	-0.033
-439.778	127.258	-0.102	0.130
-438.763	-200.000	0.031	-0.232
-437.749	697.998	0.059	0.156
-436.734	-125.672	-0.232	0.035
-435.719	-128.248	0.294	0.042
-434.705	435.176	0.052	0.114
-433.690	800.000	-0.038	0.121
-432.676	-131.226	0.206	-0.028
-431.661	-200.000	0.008	-0.366
-430.646	-46.087	0.237	-0.118
-429.632	104.669	-0.102	-0.121
-428.617	30.716	-0.089	0.077
-427.603	229.506	0.085	0.140
-426.588	-134.095	-0.145	0.018
-425.573	-200.000	0.003	-0.403
-424.559	445.801	0.016	-0.035
-423.544	-32.796	-0.110	0.062
-422.530	-166.829	-0.244	-0.010
-421.515	125.105	-0.184	-0.233
-420.500	-115.691	0.271	-0.051
-419.486	218.139	-0.069	-0.111
-418.471	88.915	0.132	-0.148
-417.457	448.187	0.055	-0.121
-416.442	-169.559	-0.202	0.007
-415.428	129.785	0.052	-0.067
-414.413	-200.000	-0.025	0.430
-413.398	0.679	0.196	-0.141
-412.384	42.037	0.152	0.139
-411.369	800.000	0.068	-0.233
-410.355	510.931	-0.036	0.085
-409.340	694.442	0.089	-0.236
-408.325	16.363	-0.167	-0.132
-407.311	-0.640	0.203	-0.145
-406.296	-186.368	0.411	-0.006
-405.282	-200.000	-0.043	-0.217
-404.267	-200.000	-0.024	-0.271
-403.252	50.252	0.213	0.203
-402.238	800.000	0.053	-0.217
-401.223	-200.000	-0.042	0.288
-400.209	800.000	0.036	0.132
-399.194	-61.783	0.168	0.071
-398.179	-140.919	-0.204	0.021
-397.165	181.729	0.096	0.141
-396.150	107.338	-0.118	-0.142
-395.136	-200.000	0.028	0.192
-394.121	-112.937	-0.074	0.015
-393.106	103.846	0.170	0.201
-392.092	-200.000	-0.001	-0.071
-391.077	120.596	0.171	-0.214
-390.063	-54.896	0.351	-0.159
-389.048	13.930	-0.055	0.043
-388.033	16.535	-0.260	0.207
-387.019	134.934	0.191	-0.250
-386.004	-95.388	-0.402	0.109
-384.990	-200.000	-0.018	0.127
-383.975	-200.000	-0.015	0.215
-382.960	-99.956	-0.179	-0.045
-381.946	-106.774	-0.137	0.031
-380.931	247.415	0.110	0.187
-379.917	-23.309	-0.414	0.250
-378.902	-156.351	0.345	0.022
-377.888	-71.991	-0.124	0.046
-376.873	-112.294	0.195	-0.039
-375.858	-152.063	0.088	-0.006
-374.844	-57.041	0.119	0.053
-373.829	800.000	-0.127	0.367
-372.815	185.201	0.143	-0.213
-371.800	56.871	0.062	-0.061
-370.785	-178.204	-0.400	-0.009
-369.771	-200.000	-0.032	-0.191
-368.756	136.392	0.119	0.155
-367.742	-0.591	-0.214	-0.152
-366.727	632.391	0.057	-0.146
-365.712	-90.361	0.305	-0.089
-364.698	-154.471	0.040	0.003
-363.683	252.011	-0.060	0.103
-362.669	63.284	-0.335	-0.337
-361.654	-122.536	0.224	0.036
-360.639	21.088	0.135	-0.110
-359.625	-200.000	-0.037	-0.183
-358.610	67.459	-0.286	-0.294
-357.596	459.620	0.210	-0.470
-356.581	-176.630	0.079	-0.002
-355.566	-5.323	0.361	-0.249
-354.552	-127.257	0.178	0.026
-353.537	277.385	0.132	-0.235
-352.523	-109.328	-0.358	-0.076
-351.508	142.895	0.213	-0.284
-350.493	116.208	-0.226	-0.278
-349.479	-60.510	0.181	-0.077
-348.464	-46.847	-0.164	0.081
-347.450	649.414	-0.079	0.203
-346.435	-200.000	-0.009	0.144
-345.420	-59.214	0.060	-0.026
-344.406	-200.000	0.009	0.075
-343.391	64.139	-0.046	0.047
-342.377	428.632	0.134	-0.291
-341.362	25.315	0.111	0.092
-340.348	-200.000	-0.017	-0.105
-339.333	800.000	-0.065	0.223
-338.318	70.018	-0.183	0.189
-337.304	-96.076	0.293	-0.078
-336.289	800.000	-0.025	0.097
-335.275	-10.882	-0.198	-0.131
-334.260	328.080	0.074	-0.143
-333.245	800.000	-0.035	0.124
-332.231	-6.608	-0.182	0.124
-331.216	270.515	-0.073	0.128
-330.202	-200.000	0.005	-0.374
-329.187	22.673	0.221	0.182
-328.172	-200.000	0.016	-0.078
-327.158	-114.021	0.124	0.024
-326.143	800.000	0.063	-0.249
-325.129	-200.000	-0.012	-0.278
-324.114	453.200	-0.052	-0.114
-323.099	-200.000	0.002	-0.049
-322.085	-200.000	0.050	0.257
-321.070	-112.744	0.170	0.034
-320.056	378.967	-0.052	0.108
-319.041	284.161	-0.065	0.118
-318.026	-155.172	-0.274	-0.018
-317.012	-73.735	-0.264	-0.096
-315.997	38.853	-0.197	-0.176
-314.983	-200.000	-0.013	-0.239
-313.968	116.071	0.066	-0.081
-312.953	385.899	0.056	-0.117
-311.939	-39.864	0.173	-0.091
-310.924	13.845	-0.263	-0.205
-309.910	64.691	0.037	-0.037
-308.895	-200.000	-0.032	0.156
-307.880	386.227	-0.183	0.378
-306.866	355.433	0.100	0.200
-305.851	-94.949	0.056	-0.015
-304.837	-34.331	0.311	-0.171
-303.822	63.798	-0.008	0.008
-302.807	-113.313	0.111	0.022
-301.793	-89.411	0.220	-0.065
-300.778	-132.070	-0.138	0.018
-299.764	-181.581	0.250	-0.005
-298.749	800.000	-0.046	-0.170
-297.735	-200.000	-0.008	0.060
-296.720	291.652	-0.162	0.296
-295.705	-200.000	0.000	0.202
-294.691	-6.910	0.090	-0.061
-293.676	8.273	-0.202	0.152
-292.662	800.000	0.052	-0.152
-291.647	633.462	-0.164	0.416
-290.632	-36.712	0.108	-0.058
-289.618	800.000	0.056	-0.191
-288.603	-144.885	-0.126	0.012
-287.589	-200.000	-0.028	0.136
-286.574	108.904	0.061	0.073
-285.559	-145.643	0.357	-0.032
-284.545	138.910	0.169	-0.223
-283.530	29.549	-0.036	0.030
-282.516	-141.959	0.248	0.025
-281.501	-6.555	-0.313	0.213
-280.486	331.080	-0.157	0.302
-279.472	158.403	0.061	-0.084
-278.457	-45.189	0.408	-0.203
-277.443	-80.231	-0.346	0.116
-276.428	-130.863	-0.096	0.013
-275.413	-31.819	0.227	0.127
-274.399	-134.353	0.307	0.038
-273.384	-136.580	-0.066	-0.008
-272.370	1.297	-0.332	-0.239
-271.355	246.000	0.223	0.375
-270.340	11.742	0.160	-0.123
-269.326	336.911	-0.088	0.171
-268.311	95.744	0.232	0.265
-267.297	17.006	-0.296	-0.235
-266.282	145.841	0.026	0.035
-265.267	800.000	-0.099	0.283
-264.253	-200.000	-0.021	0.119
-263.238	-200.000	-0.022	-0.137
-262.224	119.451	0.210	-0.261
-261.209	-42.050	-0.260	-0.133
-260.195	254.063	-0.171	0.292
-259.180	584.921	-0.089	0.219
-258.165	-14.982	0.210	0.134
-257.151	-134.322	-0.236	-0.029
-256.136	800.000	0.059	-0.254
-255.122	795.683	-0.049	0.135
-254.107	-130.545	-0.202	-0.027
-253.092	-17.975	0.243	0.152
-252.078	290.400	0.169	0.307
-251.063	-127.520	-0.279	0.041
-250.049	-43.985	0.169	0.085
-249.034	-57.795	0.100	0.044
-248.019	104.600	0.154	0.181
-247.005	-101.098	0.116	0.029
-245.990	800.000	0.086	-0.260
-244.976	-1.929	-0.188	-0.132
-243.961	22.101	0.155	0.127
-242.946	-200.000	-0.043	0.483
-241.932	-200.000	0.091	-0.457
-240.917	294.623	0.032	0.058
-239.903	-55.772	-0.202	-0.090
-238.888	-121.134	0.018	-0.003
-237.873	-32.874	0.164	-0.091
-236.859	34.463	-0.199	0.174
-235.844	-61.364	-0.132	0.055
-234.830	800.000	0.034	-0.138
-233.815	-171.316	-0.403	-0.014
-232.800	800.000	-0.018	-0.059
-231.786	297.887	0.073	0.133
-230.771	318.380	-0.006	0.012
-229.757	-113.721	-0.159	-0.031
-228.742	800.000	0.049	0.175
-227.727	-200.000	0.007	0.194
-226.713	-111.129	0.459	-0.094
-225.698	800.000	0.052	-0.165
-224.684	478.687	-0.032	-0.073
-223.669	-46.271	-0.297	-0.146
-222.655	37.696	-0.147	-0.130
-221.640	800.000	0.082	0.272
-220.625	-46.254	0.089	0.044
-219.611	-200.000	0.000	-0.040
-218.596	80.994	0.062	-0.067
-217.582	-142.663	0.263	-0.026
-216.567	386.751	-0.036	-0.074
-215.552	-200.000	0.013	0.368
-214.538	43.166	-0.044	-0.040
-213.523	-162.589	-0.260	-0.013
-212.509	-83.839	0.089	0.028
-211.494	-11.266	-0.185	0.122
-210.479	-78.234	-0.234	-0.080
-209.465	66.293	-0.194	0.197
-208.450	-200.000	0.039	0.388
-207.436	-18.281	0.286	0.179
-206.421	-200.000	-0.021	-0.164
-205.406	-164.583	0.317	0.014
-204.392	-97.845	0.198	-0.051
-203.377	-200.000	-0.003	-0.025
-202.363	-100.254	0.108	0.027
-201.348	124.449	-0.097	-0.122
-200.333	-131.652	0.306	0.040
-199.319	800.000	-0.077	0.324
-198.304	308.833	0.070	-0.130
-197.290	-109.807	-0.102	-0.021
-196.275	723.172	-0.128	-0.339
-195.260	-200.000	-0.033	0.243
-194.246	-25.537	-0.139	-0.082
-193.231	-38.082	0.067	0.036
-192.217	-144.844	0.236	0.022
-191.202	-89.123	0.051	-0.015
-190.187	-62.041	0.308	-0.128
-189.173	-71.895	-0.259	-0.096
-188.158	163.263	-0.091	0.127
-187.144	354.813	0.121	-0.239
-186.129	-92.343	-0.141	0.039
-185.114	-178.623	-0.116	0.003
-184.100	-69.376	-0.350	-0.134
-183.085	48.282	-0.316	-0.295
-182.071	-0.447	-0.259	0.183
-181.056	-73.660	0.284	-0.103
-180.042	-200.000	-0.030	0.181
-179.027	-50.140	0.151	-0.071
-178.012	-200.000	-0.017	0.218
-176.998	-200.000	0.027	0.266
-175.983	-200.000	0.034	-0.148
-174.969	-164.284	0.268	0.012
-173.954	-100.764	0.091	-0.022
-172.939	-200.000	-0.020	-0.333
-171.925	125.003	0.144	0.181
-170.910	-36.950	0.021	0.011
-169.896	-85.089	0.275	0.086
-168.881	50.655	-0.211	-0.199
-167.866	43.058	-0.052	0.047
-166.852	166.016	-0.072	-0.102
-165.837	-91.709	0.258	-0.073
-164.823	-122.587	0.269	0.043
-163.808	-45.589	0.290	0.143
-162.793	-111.808	-0.068	0.014
-161.779	-9.256	-0.085	-0.056
-160.764	-124.338	0.231	0.036
-159.750	-119.120	0.117	0.020
-158.735	-45.642	0.195	-0.096
-157.720	-91.124	0.180	0.051
-156.706	800.000	-0.102	0.428
-155.691	215.481	0.252	0.398
-154.677	-200.000	0.011	0.168
-153.662	483.319	0.038	-0.087
-152.647	-200.000	-0.017	-0.130
-151.633	-149.574	0.135	-0.011
-150.618	-110.678	-0.261	-0.054
-149.604	-8.682	0.141	0.094
-148.589	-80.434	-0.250	0.083
-147.574	295.397	0.046	-0.083
-146.560	471.975	0.080	0.180
-145.545	800.000	0.006	0.019
-144.531	687.357	0.160	0.418
-143.516	13.367	0.296	0.229
-142.502	203.221	0.131	0.202
-141.487	-115.718	0.309	-0.058
-140.472	-115.453	0.204	0.038
-139.458	396.998	0.081	-0.168
-138.443	-155.472	-0.339	-0.022
-137.429	-138.913	0.203	0.022
-136.414	-171.021	0.448	-0.015
-135.399	-66.323	-0.186	0.073
-134.385	-112.326	-0.109	0.022
-133.370	-200.000	0.015	-0.182
-132.356	-126.144	0.413	0.062
-131.341	-142.726	-0.333	0.032
-130.326	334.157	0.149	0.286
-129.312	-160.843	-0.051	0.003
-128.297	800.000	0.049	-0.145
-127.283	-51.047	-0.206	-0.096
-126.268	216.079	-0.055	-0.086
-125.253	800.000	-0.066	0.257
-124.239	800.000	0.057	0.158
-123.224	800.000	-0.043	-0.160
-122.210	-37.782	0.209	0.111
-121.195	7.195	0.078	-0.058
-120.180	-200.000	0.030	0.568
-119.166	19.865	-0.145	-0.116
-118.151	-200.000	-0.037	0.179
-117.137	-200.000	-0.018	0.368
-116.122	-54.116	0.150	-0.068
-115.107	-200.000	0.043	0.236
-114.093	705.297	0.042	0.110
-113.078	-105.452	-0.386	-0.087
-112.064	-29.201	-0.272	-0.155
-111.049	450.018	0.165	-0.362
-110.034	276.229	0.069	-0.122
-109.020	-200.000	0.016	0.101
-108.005	19.652	0.132	0.106
-106.991	1.093	0.312	-0.223
-105.976	-12.585	-0.389	-0.253
-104.962	-40.544	-0.344	-0.177
-103.947	570.328	0.035	0.085
-102.932	183.334	-0.109	0.160
-101.918	75.616	-0.293	-0.308
-100.903	800.000	-0.073	0.295
-99.889	156.158	-0.033	-0.045
-98.874	160.705	-0.127	0.177
-97.859	59.357	-0.085	0.083
-96.845	-200.000	-0.035	-0.241
-95.830	800.000	-0.026	0.108
-94.816	-200.000	-0.047	0.302
-93.801	-200.000	0.035	-0.178
-92.786	122.035	0.078	-0.096
-91.772	-140.226	-0.473	-0.049
-90.757	-29.367	0.385	-0.219
-89.743	12.901	-0.096	-0.074
-88.728	800.000	-0.058	0.217
-87.713	-200.000	0.019	0.330
-86.699	-53.534	-0.173	0.079
-85.684	-99.721	0.125	-0.031
-84.670	87.463	-0.119	0.130
-83.655	-70.895	-0.210	-0.078
-82.640	-53.658	-0.268	0.122
-81.626	-137.192	0.252	0.028
-80.611	-57.996	0.289	0.125
-79.597	113.301	0.072	-0.087
-78.582	260.718	-0.168	0.289
-77.567	-86.732	-0.307	-0.093
-76.553	251.081	0.028	0.047
-75.538	8.734	-0.083	-0.062
-74.524	-57.590	-0.411	0.179
-73.509	-200.000	-0.052	0.000
-72.494	10.788	0.105	-0.079
-71.480	38.027	-0.042	0.037
-70.465	74.455	-0.078	-0.082
-69.451	-28.553	-0.223	0.128
-68.436	269.203	-0.076	0.132
-67.422	273.357	-0.112	-0.196
-66.407	267.906	0.164	-0.285
-65.392	-200.000	-0.005	0.083
-64.378	-200.000	0.002	0.285
-63.363	99.511	0.161	-0.185
-62.349	800.000	-0.032	0.120
-61.334	22.088	-0.889	-0.720
-60.319	-5.243	0.158	0.108
-59.305	621.448	-0.267	-0.666
-58.290	328.812	0.344	0.656
-57.276	648.777	0.500	1.269
-56.261	-200.000	91.395	511.330
-55.246	558.924	1367.486	3274.221
-54.232	184.793	2609.013	3837.488
-53.217	115.700	2229.577	2704.947
-52.203	45.029	1760.337	1608.491
-51.188	38.258	1566.993	1384.028
-50.173	35.869	1538.748	1342.391
-49.159	52.471	1587.784	1503.290
-48.144	56.090	1606.650	1546.784
-47.130	38.637	1563.496	1383.401
-46.115	35.420	1547.990	1347.085
-45.100	35.290	1544.657	1343.225
-44.086	35.237	1542.743	1341.131
-43.071	35.229	1540.546	1339.115
-42.057	35.113	1538.859	1336.788
-41.042	35.165	1537.753	1336.136
-40.027	35.143	1536.447	1334.794
-39.013	35.136	1534.890	1333.336
-37.998	35.147	1533.411	1332.075
-36.984	35.140	1532.532	1331.214
-35.969	35.168	1530.972	1330.001
-34.954	35.181	1529.905	1329.106
-33.940	35.178	1527.640	1327.067
-32.925	35.172	1526.545	1326.023
-31.911	35.246	1524.995	1325.135
-30.896	35.292	1523.791	1324.356
-29.881	35.300	1522.534	1323.264
-28.867	35.255	1520.533	1321.163
-27.852	35.238	1519.712	1320.282
-26.838	35.320	1517.987	1319.291
-25.823	35.311	1516.002	1317.455
-24.809	35.291	1514.763	1316.188
-23.794	35.198	1513.670	1314.549
-22.779	35.138	1512.880	1313.396
-21.765	35.253	1511.064	1312.556
-20.750	35.276	1510.167	1311.881
-19.736	35.156	1508.743	1309.773
-18.721	35.153	1507.811	1308.892
-17.706	35.138	1506.802	1307.860
-16.692	35.247	1505.189	1307.150
-15.677	35.064	1505.037	1305.723
-14.663	35.232	1503.182	1305.207
-13.648	35.112	1502.321	1303.591
-12.633	35.122	1501.443	1302.844
-11.619	35.142	1500.643	1302.233
-10.604	35.129	1500.058	1301.586
-9.590	35.180	1498.759	1300.749
-8.575	35.266	1497.420	1300.126
-7.560	35.148	1497.359	1299.217
-6.546	35.126	1496.472	1298.247
-5.531	35.152	1495.399	1297.440
-4.517	35.131	1494.396	1296.379
-3.502	35.116	1492.976	1294.989
-2.487	35.111	1492.551	1294.539
-1.473	35.186	1491.401	1293.996
-0.458	35.169	1489.950	1292.568
0.556	33.503	1480.896	1283.042
1.571	31.125	1454.779	1244.469
2.586	28.260	1394.111	1174.118
3.600	26.877	1311.578	1096.161
4.615	25.356	1265.106	1048.357
5.629	20.856	1205.781	974.005
6.644	9.786	1113.558	841.958
7.659	1.472	1069.277	766.603
8.673	0.370	1063.274	756.702
9.688	0.146	1060.309	753.404
10.702	0.045	1059.037	751.928
11.717	-0.011	1056.648	749.886
12.731	3.953	1061.271	772.926
13.746	14.394	1076.903	836.930
14.761	21.389	1085.754	879.032
15.775	22.097	1085.951	882.676
16.790	22.139	1085.222	882.214
17.804	21.923	1084.365	880.358
18.819	21.701	1083.406	878.389
19.834	21.848	1083.248	878.916
20.848	21.993	1082.571	879.019
21.863	21.943	1082.066	878.278
22.877	22.006	1081.578	878.121
23.892	21.991	1081.277	877.722
24.907	21.727	1080.636	875.805
25.921	21.937	1079.687	876.009
26.936	21.929	1078.676	875.070
27.950	21.904	1077.448	873.872
28.965	21.867	1076.520	872.857
29.980	21.786	1074.464	870.714
30.994	21.665	1073.557	869.300
32.009	21.897	1072.673	869.658
33.023	22.015	1072.058	869.664
34.038	21.750	1070.792	867.248
35.053	21.868	1069.941	867.070
36.067	21.902	1069.745	866.999
37.082	21.919	1068.639	866.113
38.096	22.056	1067.681	865.933
39.111	22.008	1067.567	865.525
40.126	22.305	1065.986	865.631
41.140	22.106	1064.843	863.647
42.155	21.795	1063.328	860.819
43.169	21.623	1062.232	859.011
44.184	21.477	1061.384	857.533
45.199	21.672	1060.129	857.397
46.213	21.471	1059.358	855.712
47.228	21.371	1058.291	854.288
48.242	21.582	1057.731	854.790
49.257	21.723	1056.661	854.538
50.271	21.781	1055.900	854.128
51.286	21.823	1055.539	853.966
52.301	22.050	1054.108	853.836
53.315	22.057	1053.380	853.207
54.330	21.918	1052.795	851.982
55.344	21.781	1051.977	850.581
56.359	21.955	1051.005	850.562
57.374	21.844	1050.235	849.326
58.388	21.679	1049.438	847.808
59.403	21.739	1048.317	847.117
60.417	21.743	1047.638	846.514
61.432	21.504	1046.792	844.603
62.447	21.633	1046.033	844.538
63.461	21.605	1046.151	844.423
64.476	21.700	1044.489	843.464
65.490	21.677	1043.828	842.746
66.505	21.577	1043.112	841.610
67.520	21.658	1041.872	840.922
68.534	21.653	1041.070	840.180
69.549	21.488	1040.330	838.718
70.563	21.278	1039.367	836.862
71.578	21.158	1038.422	835.449
72.593	21.343	1037.264	835.329
73.607	21.106	1036.677	833.652
74.622	21.159	1035.343	832.754
75.636	21.436	1034.821	833.584
76.651	21.487	1034.449	833.452
77.666	21.402	1033.496	832.207
78.680	21.277	1032.274	830.553
79.695	21.314	1031.517	830.051
80.709	21.417	1030.874	829.947
81.724	21.528	1030.347	829.977
82.739	21.437	1029.685	828.939
83.753	21.423	1028.672	827.983
84.768	21.776	1028.222	829.218
85.782	22.184	1027.432	830.436
86.797	22.251	1026.634	830.032
87.812	22.274	1025.911	829.485
88.826	21.999	1025.260	827.585
89.841	21.996	1024.102	826.563
90.855	22.072	1023.585	826.433
91.870	22.165	1022.679	826.064
92.884	22.066	1021.924	824.916
93.899	22.124	1020.678	824.112
94.914	21.922	1019.851	822.423
95.928	21.972	1018.988	821.889
96.943	21.971	1018.558	821.463
97.957	21.766	1016.919	819.112
98.972	21.592	1015.480	817.066
99.987	21.370	1014.498	815.170
101.001	21.321	1014.622	814.971
102.016	21.713	1013.817	816.076
103.030	21.796	1012.519	815.346
104.045	21.738	1011.488	814.172
105.060	21.691	1009.956	812.653
106.074	21.514	1008.303	810.431
107.089	21.524	1008.087	810.232
108.103	21.843	1008.270	811.782
109.118	21.981	1007.004	811.331
110.133	21.598	1006.037	808.708
111.147	21.675	1004.437	807.705
112.162	21.495	1003.575	806.114
113.176	21.328	1002.034	804.035
114.191	21.420	1002.000	804.360
115.206	21.595	1000.532	803.914
116.220	21.235	999.713	801.535
117.235	21.200	998.235	800.117
118.249	21.319	998.100	800.483
119.264	21.216	997.480	799.445
120.279	21.258	996.311	798.629
121.293	21.287	995.519	798.057
122.308	21.345	994.707	797.599
123.322	21.284	994.001	796.686
124.337	21.353	992.831	795.990
125.352	21.248	991.517	794.386
126.366	20.777	989.939	790.916
127.381	20.507	988.490	788.461
128.395	21.078	988.263	790.798
129.410	21.678	988.041	793.270
130.424	21.852	987.098	793.231
131.439	21.843	985.966	792.210
132.454	21.675	985.077	790.668
133.468	21.837	984.307	790.709
134.483	21.693	983.099	789.022
135.497	21.825	982.844	789.342
136.512	22.015	982.262	789.659
137.527	22.056	981.534	789.186
138.541	22.047	980.251	788.047
139.556	22.058	979.832	787.691
140.570	22.045	978.740	786.685
141.585	22.019	978.169	786.038
142.600	22.159	977.454	786.020
143.614	22.081	976.211	784.602
144.629	22.121	975.785	784.368
145.643	22.234	975.494	784.572
146.658	22.218	973.752	783.030
147.673	22.195	972.078	781.510
148.687	21.940	971.446	779.800
149.702	21.697	970.596	777.971
150.716	21.719	969.757	777.329
151.731	21.742	968.347	776.230
152.746	21.813	967.697	775.953
153.760	21.990	967.174	776.249
154.775	22.128	966.695	776.404
155.789	22.223	965.564	775.846
156.804	21.997	964.773	774.148
157.819	22.162	963.382	773.688
158.833	22.045	962.738	772.590
159.848	22.367	961.390	772.854
160.862	22.266	961.275	772.249
161.877	22.134	960.509	770.985
162.892	22.082	959.605	769.962
163.906	22.171	958.732	769.587
164.921	22.057	957.657	768.154
165.935	22.115	956.191	767.163
166.950	22.109	955.322	766.372
167.964	22.166	954.428	765.836
168.979	22.121	953.277	764.650
169.994	22.134	951.944	763.569
171.008	21.862	951.425	761.905
172.023	22.033	950.890	762.148
173.037	22.258	950.111	762.436
174.052	21.943	948.815	759.961
175.067	21.874	947.507	758.549
176.081	21.867	946.892	757.961
177.096	21.962	945.909	757.518
178.110	21.995	945.211	757.031
179.125	21.730	944.247	755.052
180.140	21.525	943.011	753.114
181.154	21.601	942.029	752.588
182.169	21.582	941.897	752.338
183.183	21.875	941.581	753.279
184.198	22.217	941.049	754.250
185.213	22.094	940.542	753.249
186.227	22.025	939.611	752.141
187.242	21.960	939.430	751.652
188.256	22.096	938.756	751.629
189.271	22.239	937.466	751.140
190.286	22.124	936.965	750.182
191.300	22.035	936.079	749.027
192.315	21.561	934.528	745.700
193.329	20.959	932.759	741.663
194.344	20.466	932.233	739.083
195.359	21.112	931.953	741.542
196.373	21.711	932.899	744.772
197.388	22.034	932.269	745.576
198.402	21.891	931.296	744.128
199.417	21.978	930.976	744.173
200.432	21.999	930.336	743.685
201.446	21.902	929.492	742.535
202.461	21.484	928.826	740.171
203.475	21.552	928.720	740.305
204.490	21.207	927.043	737.448
205.504	20.209	924.163	730.886
206.519	20.688	924.597	733.186
207.534	21.434	925.048	736.622
208.548	21.749	924.271	737.263
209.563	21.915	924.587	738.146
210.577	21.951	923.727	737.548
211.592	21.665	922.597	735.381
212.607	22.054	922.778	737.091
213.621	22.109	922.029	736.659
214.636	22.143	921.299	736.151
215.650	22.220	920.665	735.903
216.665	22.144	919.724	734.767
217.680	22.185	919.749	734.895
218.694	22.333	919.232	735.033
219.709	22.040	918.118	732.857
220.723	21.578	917.276	730.194
221.738	21.728	916.616	730.227
222.753	21.908	916.304	730.664
223.767	21.760	916.032	729.767
224.782	21.972	914.679	729.507
225.796	22.110	914.286	729.701
226.811	22.208	913.941	729.769
227.826	21.995	911.952	727.232
228.840	21.168	910.527	722.612
229.855	20.964	910.164	721.414
230.869	21.342	909.585	722.455
231.884	20.944	908.604	719.966
232.899	20.926	908.394	719.664
233.913	21.903	908.292	723.550
234.928	21.866	908.275	723.320
235.942	21.909	907.177	722.560
236.957	21.960	906.243	721.962
237.972	21.695	905.305	720.060
238.986	21.525	904.726	718.838
240.001	21.636	904.356	718.936
241.015	21.616	903.797	718.345
242.030	21.803	902.819	718.270
243.045	22.067	901.691	718.390
244.059	21.876	901.877	717.694
245.074	22.108	901.535	718.306
246.088	22.053	900.598	717.271
247.103	21.703	899.578	714.969
248.117	21.710	899.259	714.679
249.132	22.219	899.055	716.531
250.147	22.732	898.627	718.215
251.161	22.751	898.150	717.847
252.176	22.882	897.301	717.638
253.190	22.795	897.298	717.219
254.205	22.796	896.980	716.904
255.220	22.959	896.401	717.038
256.234	23.171	895.506	717.118
257.249	22.839	894.869	715.199
258.263	22.855	894.191	714.660
259.278	22.733	893.472	713.527
260.293	22.823	893.302	713.692
261.307	22.880	892.771	713.438
262.322	22.879	891.815	712.605
263.336	22.683	891.106	711.187
264.351	22.247	890.071	708.542
265.366	21.293	887.476	702.578
266.380	20.744	886.746	699.731
267.395	21.679	887.381	703.929
268.409	22.368	887.180	706.476
269.424	22.401	886.685	706.150
270.439	22.684	886.102	706.756
271.453	22.642	885.654	706.171
272.468	22.711	884.652	705.586
273.482	22.719	884.475	705.415
274.497	22.911	884.192	705.891
275.512	22.796	882.989	704.409
276.526	22.119	881.535	700.491
277.541	22.281	881.420	700.983
278.555	22.741	880.976	702.398
279.570	22.438	880.626	700.851
280.585	22.330	879.409	699.393
281.599	22.337	879.112	699.122
282.614	22.422	878.509	698.919
283.628	22.218	877.349	697.125
284.643	21.859	876.492	694.961
285.657	22.217	876.245	696.121
286.672	22.160	875.825	695.498
287.687	21.604	874.658	692.314
288.701	22.088	874.273	693.861
289.716	22.293	873.989	694.383
290.730	21.954	873.625	692.694
291.745	21.868	872.579	691.462
292.760	21.653	871.635	689.809
293.774	21.756	870.813	689.501
294.789	22.484	871.380	692.755
295.803	23.116	871.547	695.312
296.818	23.174	871.136	695.149
297.833	23.191	870.429	694.590
298.847	23.107	869.007	693.067
299.862	22.685	868.605	691.028
300.876	22.768	867.936	690.761
301.891	23.108	867.385	691.590
302.906	23.270	866.976	691.839
303.920	22.790	865.831	688.990
304.935	22.625	865.278	687.843
305.949	23.046	865.048	689.243
306.964	23.194	864.175	689.060
307.979	22.970	863.548	687.628
308.993	22.995	862.863	687.122
310.008	23.223	862.723	687.834
311.022	23.349	862.616	688.178
312.037	23.105	862.106	686.762
313.052	22.839	861.314	685.038
314.066	22.848	860.290	684.200
315.081	22.307	858.798	680.858
316.095	21.419	857.321	676.193
317.110	22.002	858.040	678.958
318.125	22.839	858.563	682.547
319.139	22.478	856.838	679.725
320.154	21.363	855.093	673.983
321.168	21.084	853.926	671.930
322.183	21.632	854.362	674.323
323.197	22.351	855.039	677.566
324.212	22.596	854.625	678.121
325.227	22.879	854.657	679.175
326.241	23.021	853.669	678.877
327.256	22.759	853.286	677.507
328.270	22.692	852.805	676.805
329.285	22.720	851.374	675.720
330.300	22.589	850.811	674.710
331.314	22.168	850.475	672.772
332.329	22.425	849.346	672.801
333.343	22.762	849.528	674.177
334.358	23.076	848.910	674.824
335.373	23.017	848.131	673.921
336.387	23.167	847.467	673.905
337.402	23.221	847.828	674.337
338.416	23.356	847.305	674.374
339.431	23.463	846.217	673.858
340.446	23.557	845.360	673.473
341.460	23.701	845.312	673.919
342.475	23.642	845.049	673.426
343.489	23.360	844.227	671.644
344.504	23.469	843.747	671.615
345.519	23.589	843.169	671.549
346.533	23.594	843.130	671.478
347.548	23.776	842.775	671.825
348.562	23.921	841.925	671.634
349.577	23.980	841.159	671.185
350.592	23.916	840.832	670.626
351.606	23.762	840.199	669.482
352.621	23.802	839.823	669.272
353.635	23.655	839.280	668.228
354.650	23.705	838.661	667.861
355.665	23.307	837.433	665.330
356.679	22.288	835.699	660.073
357.694	22.014	835.603	658.911
358.708	22.848	835.649	662.016
359.723	22.727	834.790	660.826
360.738	22.957	834.753	661.600
361.752	23.399	834.487	662.983
362.767	23.531	833.978	663.011
363.781	23.743	833.989	663.757
364.796	23.974	833.919	664.505
365.810	24.073	833.525	664.500
366.825	24.193	833.209	664.639
367.840	24.154	833.098	664.346
368.854	23.977	832.259	662.957
369.869	23.561	831.265	660.559
370.883	23.299	830.554	658.962
371.898	23.425	829.872	658.828
372.913	23.369	829.287	658.101
373.927	23.474	828.593	657.880
374.942	23.647	827.854	657.875
375.956	23.775	827.822	658.265
376.971	23.814	826.993	657.695
377.986	24.009	826.229	657.746
379.000	24.134	825.789	657.803
380.015	24.128	825.645	657.605
381.029	23.918	825.022	656.275
382.044	23.936	824.018	655.486
383.059	24.124	823.605	655.793
384.073	24.134	823.400	655.606
385.088	24.084	822.766	654.860
386.102	24.110	822.212	654.460
387.117	23.967	821.505	653.313
388.132	23.799	820.895	652.154
389.146	23.702	820.258	651.234
390.161	23.148	818.934	648.095
391.175	23.250	818.832	648.330
392.190	23.675	818.998	649.963
393.205	23.742	818.332	649.622
394.219	22.720	816.896	644.689
395.234	21.227	814.305	637.148
396.248	20.528	813.463	633.881
397.263	21.618	814.319	638.468
398.278	23.252	815.512	645.311
399.292	23.817	815.302	647.144
400.307	23.495	814.791	645.511
401.321	23.425	814.549	645.005
402.336	23.561	814.312	645.257
403.350	23.902	813.527	645.817
404.365	24.296	813.642	647.281
405.380	24.571	813.610	648.195
406.394	24.747	813.531	648.714
407.409	24.987	813.025	649.123
408.423	24.777	812.390	647.799
409.438	24.709	811.836	647.053
410.453	24.791	811.224	646.806
411.467	24.995	810.986	647.296
412.482	24.878	810.134	646.135
413.496	24.636	810.305	645.339
414.511	24.826	810.016	645.737
415.526	24.692	809.826	645.048
416.540	24.794	808.887	644.610
417.555	24.682	808.575	643.899
418.569	24.450	807.517	642.167
419.584	24.353	806.908	641.275
420.599	24.494	806.310	641.252
421.613	152.190	1365.025	1790.604
422.628	132.118	1446.438	1790.712
