DTS Sentinel unit serial number:	SN413079Multiplexer serial number:	ORYXHardware model number:	OX4-SRSoftware version number:	ORYX F/W v4.00 Oryx Data Collector v3.7.2.0data status	okinstallation	princeton_trtdifferential loss correction	single-endedforward channel	channel 3reverse channel	N/Adate	2019/09/11time	02:38:11forward acquisition time	60.00reverse acquisition time	0.00gamma	496.2192k internal	0.2331k external	0.2331temperature offset calibration	0.9910default loss term (dB/km)	0.3790temperature slope calibration	1.0000multiplexer offset coefficient	1.0000multiplexer slope coefficient	1.0000fibre end	0.00T internal ref (°C)	29.25T ext. ref 1 (°C)	-0.28T ext. ref 2 (°C)	23.17length (m)	temperature (°C)	Stokes	anti-Stokes-747.200	800.000	-0.050	0.145
-746.185	287.171	-0.138	0.252
-745.171	-56.073	0.342	-0.153
-744.156	22.108	0.116	0.095
-743.142	6.178	0.232	-0.173
-742.127	-60.766	-0.068	0.029
-741.112	43.093	-0.161	0.148
-740.098	-38.788	0.142	-0.076
-739.083	-51.722	0.226	0.106
-738.069	68.377	-0.243	0.251
-737.054	800.000	-0.051	-0.156
-736.039	800.000	0.037	-0.108
-735.025	-200.000	-0.012	0.222
-734.010	-179.420	-0.366	0.008
-732.996	376.036	0.119	-0.245
-731.981	-100.404	-0.145	-0.036
-730.966	-200.000	-0.004	-0.118
-729.952	-200.000	0.067	0.295
-728.937	-200.000	-0.055	-0.417
-727.923	127.967	0.122	-0.156
-726.908	145.416	0.210	-0.283
-725.894	52.699	0.268	-0.258
-724.879	-200.000	-0.042	-0.320
-723.864	800.000	0.028	-0.104
-722.850	-47.842	0.063	0.031
-721.835	29.671	0.189	-0.162
-720.821	-133.885	0.312	-0.039
-719.806	-82.925	-0.216	0.070
-718.791	40.857	0.211	-0.191
-717.777	29.957	0.267	0.229
-716.762	-57.013	-0.075	-0.033
-715.748	6.903	0.104	0.078
-714.733	154.868	0.033	-0.045
-713.718	145.016	-0.170	0.228
-712.704	63.132	-0.088	-0.089
-711.689	-200.000	0.036	-0.313
-710.675	139.299	-0.171	-0.226
-709.660	5.167	0.219	-0.162
-708.645	-165.832	-0.202	0.009
-707.631	-200.000	0.056	-0.281
-706.616	-79.902	-0.148	-0.050
-705.602	-86.744	0.144	0.044
-704.587	705.427	-0.111	-0.294
-703.572	35.454	-0.061	-0.053
-702.558	-200.000	-0.516	0.001
-701.543	-200.000	0.004	0.227
-700.529	9.294	0.188	0.143
-699.514	-200.000	-0.007	-0.531
-698.499	-200.000	0.045	-0.216
-697.485	-151.408	0.094	-0.007
-696.470	-136.770	0.162	-0.019
-695.456	15.220	-0.334	-0.263
-694.441	-158.599	0.246	-0.014
-693.426	103.808	-0.068	-0.080
-692.412	65.399	-0.194	0.198
-691.397	-200.000	-0.002	-0.233
-690.383	800.000	-0.191	-0.624
-689.368	-155.436	0.211	-0.014
-688.354	155.614	-0.209	-0.289
-687.339	136.062	0.116	-0.152
-686.324	-200.000	0.011	-0.101
-685.310	-200.000	0.059	-0.344
-684.295	11.203	0.079	-0.061
-683.281	-52.269	0.049	0.023
-682.266	1.723	0.283	0.205
-681.251	782.494	-0.049	0.134
-680.237	330.975	-0.183	0.354
-679.222	736.396	-0.076	-0.203
-678.208	130.042	-0.077	-0.098
-677.193	62.996	0.132	0.133
-676.178	206.915	0.224	-0.350
-675.164	-200.000	-0.040	-0.482
-674.149	35.735	-0.202	-0.178
-673.135	-115.666	-0.486	-0.091
-672.120	91.666	0.254	-0.287
-671.105	95.176	-0.129	0.148
-670.091	-23.687	0.498	0.300
-669.076	16.562	-0.054	-0.043
-668.062	238.162	0.207	-0.344
-667.047	502.053	-0.168	-0.388
-666.032	-67.091	-0.424	0.168
-665.018	-73.842	0.318	0.116
-664.003	24.105	-0.274	-0.227
-662.989	14.793	-0.172	0.135
-661.974	-39.428	0.229	-0.120
-660.959	-87.283	-0.423	0.129
-659.945	-3.625	0.086	-0.060
-658.930	575.781	0.066	0.161
-657.916	36.787	-0.154	-0.136
-656.901	-14.217	-0.238	0.154
-655.886	228.783	0.113	-0.184
-654.872	-138.416	-0.233	-0.026
-653.857	800.000	-0.063	-0.187
-652.843	-200.000	-0.039	-0.247
-651.828	123.432	0.332	0.417
-650.814	609.336	0.105	0.263
-649.799	565.261	0.021	0.050
-648.784	669.288	0.108	0.281
-647.770	800.000	-0.052	-0.144
-646.755	15.843	0.065	-0.051
-645.741	-2.441	-0.087	0.061
-644.726	302.237	-0.086	0.160
-643.711	120.632	0.246	-0.306
-642.697	800.000	-0.023	0.080
-641.682	-200.000	0.013	-0.230
-640.668	-111.849	-0.087	-0.018
-639.653	-200.000	0.018	0.108
-638.638	-73.413	-0.037	-0.014
-637.624	-95.046	0.197	-0.053
-636.609	-200.000	-0.012	-0.283
-635.595	-138.758	-0.332	-0.036
-634.580	358.041	0.055	-0.110
-633.565	189.542	0.099	-0.149
-632.551	800.000	0.071	0.215
-631.536	-4.469	0.176	0.122
-630.522	-7.220	-0.314	0.213
-629.507	-11.798	0.171	-0.112
-628.492	-61.408	0.378	-0.159
-627.478	-5.322	0.199	-0.137
-626.463	154.739	0.138	-0.189
-625.449	-87.287	0.108	-0.033
-624.434	-85.766	-0.232	-0.072
-623.419	-108.371	-0.130	0.028
-622.405	-200.000	0.004	-0.330
-621.390	8.199	-0.143	-0.108
-620.376	-166.891	-0.399	0.016
-619.361	-106.750	-0.307	-0.068
-618.346	-200.000	-0.040	0.347
-617.332	162.588	0.065	0.091
-616.317	800.000	-0.089	-0.249
-615.303	230.784	-0.101	0.165
-614.288	-50.008	0.281	0.133
-613.273	-166.857	-0.400	-0.016
-612.259	-57.076	-0.148	-0.065
-611.244	-43.504	0.395	-0.200
-610.230	-200.000	-0.005	0.112
-609.215	480.589	-0.062	0.141
-608.201	-200.000	0.012	0.064
-607.186	-27.134	-0.165	0.096
-606.171	760.378	-0.146	-0.397
-605.157	26.356	0.195	-0.163
-604.142	-45.147	0.156	-0.078
-603.128	-0.448	-0.188	-0.133
-602.113	-19.626	-0.428	0.265
-601.098	-131.022	-0.334	-0.045
-600.084	-75.132	0.144	-0.052
-599.069	-200.000	-0.020	-0.234
-598.055	-196.641	-0.101	0.001
-597.040	82.229	0.103	0.112
-596.025	-11.612	0.144	-0.095
-595.011	800.000	0.049	-0.136
-593.996	65.608	-0.213	0.216
-592.982	-132.457	0.193	-0.025
-591.967	140.187	0.104	0.137
-590.952	12.504	0.191	-0.148
-589.938	368.231	-0.081	-0.163
-588.923	-43.988	-0.222	-0.112
-587.909	800.000	0.067	-0.225
-586.894	46.000	-0.034	0.031
-585.879	61.896	-0.223	-0.222
-584.865	-75.985	-0.036	0.013
-583.850	90.710	-0.123	0.138
-582.836	521.471	0.040	-0.094
-581.821	800.000	0.046	0.163
-580.806	48.605	-0.193	-0.181
-579.792	-200.000	0.038	-0.230
-578.777	186.205	0.153	0.227
-577.763	204.271	0.175	-0.271
-576.748	-55.301	-0.289	-0.130
-575.733	37.160	0.073	0.065
-574.719	-77.333	0.262	-0.091
-573.704	800.000	-0.038	-0.132
-572.690	20.487	-0.066	0.053
-571.675	543.830	-0.124	-0.296
-570.661	-135.377	-0.381	0.046
-569.646	800.000	-0.040	0.166
-568.631	800.000	0.073	-0.318
-567.617	800.000	0.045	-0.172
-566.602	61.604	0.240	0.239
-565.588	-18.618	-0.348	-0.217
-564.573	-200.000	0.022	0.340
-563.558	-30.816	-0.176	-0.099
-562.544	-138.502	0.119	0.013
-561.529	60.386	0.248	0.245
-560.515	28.153	0.168	0.141
-559.500	800.000	0.108	0.301
-558.485	31.637	0.215	0.185
-557.471	-34.031	0.138	-0.076
-556.456	348.489	0.065	0.128
-555.442	672.371	-0.067	0.174
-554.427	-128.654	-0.110	-0.016
-553.412	-155.028	0.372	-0.024
-552.398	-132.224	-0.390	-0.050
-551.383	371.051	-0.046	0.093
-550.369	11.932	0.071	-0.055
-549.354	-200.000	-0.007	0.202
-548.339	342.322	-0.118	-0.231
-547.325	-200.000	0.094	-0.467
-546.310	197.918	-0.067	-0.102
-545.296	141.630	0.028	0.037
-544.281	-200.000	-0.082	0.413
-543.266	-200.000	-0.019	0.173
-542.252	246.013	-0.036	0.061
-541.237	-63.097	-0.004	-0.002
-540.223	-53.954	0.138	0.063
-539.208	12.479	-0.160	-0.123
-538.193	800.000	0.058	-0.232
-537.179	800.000	0.054	-0.161
-536.164	395.878	0.025	0.052
-535.150	738.494	0.058	0.155
-534.135	120.631	0.093	0.115
-533.121	-33.838	0.211	0.116
-532.106	-180.930	0.147	-0.003
-531.091	-142.642	-0.194	0.019
-530.077	-156.847	0.162	0.010
-529.062	53.672	-0.121	0.115
-528.048	-147.546	-0.377	-0.032
-527.033	-200.000	0.003	-0.075
-526.018	-143.183	0.341	-0.033
-525.004	324.095	-0.056	0.107
-523.989	-38.776	-0.060	-0.031
-522.975	202.374	-0.104	0.161
-521.960	73.026	-0.287	0.299
-520.945	-200.000	-0.003	-0.297
-519.931	-200.000	-0.012	-0.145
-518.916	132.515	-0.101	-0.130
-517.902	507.107	0.177	-0.410
-516.887	96.979	-0.203	0.232
-515.872	507.118	-0.091	-0.211
-514.858	112.145	-0.137	0.165
-513.843	-59.162	-0.082	0.035
-512.829	-32.845	0.080	-0.045
-511.814	-120.931	0.161	-0.027
-510.799	-128.517	0.257	-0.036
-509.785	155.212	-0.237	0.325
-508.770	238.756	-0.102	-0.169
-507.756	171.106	-0.088	-0.126
-506.741	144.826	-0.118	0.157
-505.726	93.472	-0.120	0.136
-504.712	-190.786	-0.189	-0.002
-503.697	-99.115	-0.192	-0.048
-502.683	-200.000	0.017	0.080
-501.668	75.789	-0.191	0.202
-500.653	-196.974	-0.242	0.002
-499.639	87.580	0.107	-0.118
-498.624	218.296	-0.173	0.276
-497.610	-200.000	-0.032	0.188
-496.595	-200.000	0.069	-0.383
-495.581	-29.472	-0.088	-0.050
-494.566	-75.940	0.072	-0.025
-493.551	800.000	0.046	0.163
-492.537	-200.000	0.003	0.090
-491.522	340.379	0.062	-0.120
-490.508	95.697	0.010	0.011
-489.493	-94.555	-0.124	-0.034
-488.478	-7.775	0.249	0.168
-487.464	-200.000	0.015	0.196
-486.449	125.082	0.224	0.281
-485.435	-89.477	-0.348	-0.102
-484.420	-41.143	-0.494	-0.254
-483.405	-200.000	-0.024	0.162
-482.391	20.292	0.083	-0.067
-481.376	-200.000	-0.019	0.263
-480.362	-85.966	0.361	-0.111
-479.347	-19.923	-0.090	0.055
-478.332	-144.247	0.033	-0.003
-477.318	226.721	-0.132	0.213
-476.303	485.709	-0.151	0.343
-475.289	349.686	-0.067	-0.131
-474.274	83.564	-0.081	0.088
-473.259	-111.060	-0.293	-0.060
-472.245	-200.000	-0.020	-0.180
-471.230	30.310	0.265	-0.226
-470.216	146.784	0.088	-0.118
-469.201	25.419	-0.114	0.094
-468.186	-200.000	-0.009	-0.151
-467.172	-200.000	0.004	0.100
-466.157	322.264	-0.060	0.113
-465.143	-200.000	0.001	-0.288
-464.128	-107.764	0.195	-0.042
-463.113	52.611	0.090	-0.086
-462.099	11.914	0.275	-0.211
-461.084	55.073	-0.258	0.248
-460.070	253.163	-0.021	0.036
-459.055	130.233	-0.008	-0.010
-458.040	-33.631	-0.216	-0.118
-457.026	584.983	0.123	0.300
-456.011	-113.907	0.251	-0.048
-454.997	180.458	0.065	-0.095
-453.982	-200.000	0.073	0.482
-452.968	-200.000	0.086	0.408
-451.953	-142.068	0.453	-0.045
-450.938	50.376	-0.134	-0.126
-449.924	-39.963	0.061	-0.032
-448.909	419.625	-0.172	0.366
-447.895	800.000	0.017	0.070
-446.880	-26.413	0.062	-0.036
-445.865	321.431	-0.129	0.243
-444.851	33.973	0.070	0.061
-443.836	-99.864	-0.249	-0.062
-442.822	-101.909	0.141	-0.034
-441.807	-144.397	-0.218	-0.020
-440.792	-200.000	-0.092	0.000
-439.778	92.031	-0.107	-0.120
-438.763	-200.000	0.009	-0.098
-437.749	197.886	-0.048	-0.073
-436.734	-150.014	-0.268	-0.021
-435.719	-200.000	0.017	-0.123
-434.705	-100.641	0.153	0.038
-433.690	-200.000	-0.016	0.136
-432.676	21.220	-0.171	-0.138
-431.661	800.000	0.076	-0.217
-430.646	-145.941	0.172	-0.015
-429.632	-200.000	0.007	-0.115
-428.617	71.023	-0.065	0.066
-427.603	-85.724	-0.137	0.042
-426.588	800.000	0.075	0.270
-425.573	59.516	0.019	0.019
-424.559	-70.619	-0.132	0.050
-423.544	0.719	0.172	-0.122
-422.530	-97.287	-0.396	-0.102
-421.515	-200.000	-0.002	0.195
-420.500	108.618	0.249	0.296
-419.486	243.079	-0.044	-0.074
-418.471	6.876	-0.077	-0.057
-417.457	120.218	0.159	-0.196
-416.442	-200.000	-0.006	-0.129
-415.428	179.474	0.101	0.147
-414.413	800.000	0.129	0.421
-413.398	106.722	-0.177	0.209
-412.384	44.753	-0.165	-0.151
-411.369	363.740	-0.098	-0.196
-410.355	-46.474	0.296	-0.144
-409.340	-200.000	-0.058	0.331
-408.325	-146.576	-0.270	0.023
-407.311	-137.483	0.145	-0.016
-406.296	312.914	0.063	0.118
-405.282	0.927	0.023	-0.016
-404.267	-98.008	0.087	0.022
-403.252	-148.807	0.156	0.013
-402.238	249.171	0.156	-0.262
-401.223	-200.000	0.030	0.470
-400.209	-200.000	-0.037	-0.235
-399.194	-200.000	0.029	-0.160
-398.179	-133.475	-0.098	0.012
-397.165	13.483	-0.082	-0.063
-396.150	-122.813	0.105	0.017
-395.136	53.683	-0.212	0.202
-394.121	-183.172	0.059	0.001
-393.106	-103.676	-0.462	0.107
-392.092	-46.010	0.264	-0.129
-391.077	-50.056	0.592	0.278
-390.063	60.577	-0.166	0.163
-389.048	596.290	0.078	0.191
-388.033	253.747	-0.124	-0.210
-387.019	800.000	0.130	0.361
-386.004	576.343	-0.108	0.263
-384.990	-126.631	-0.081	0.012
-383.975	-21.551	-0.230	0.139
-382.960	17.242	-0.209	-0.164
-381.946	800.000	-0.051	-0.218
-380.931	592.388	0.016	-0.040
-379.917	64.652	0.304	0.304
-378.902	-3.595	-0.333	0.229
-377.888	-119.972	0.169	0.029
-376.873	384.364	0.065	-0.133
-375.858	-200.000	0.041	-0.327
-374.844	-64.478	0.131	0.053
-373.829	49.604	0.299	-0.279
-372.815	-65.053	0.112	0.045
-371.800	-124.966	-0.106	0.016
-370.785	495.112	0.095	-0.217
-369.771	-47.614	0.390	0.188
-368.756	32.009	0.028	0.024
-367.742	-154.449	0.167	-0.011
-366.727	-82.930	-0.171	-0.055
-365.712	-42.329	0.144	0.073
-364.698	-97.557	0.291	0.075
-363.683	559.153	-0.057	0.137
-362.669	696.722	-0.113	-0.295
-361.654	-200.000	-0.013	0.086
-360.639	-109.145	0.281	-0.059
-359.625	800.000	-0.057	0.195
-358.610	11.531	-0.096	0.073
-357.596	-60.258	0.053	-0.023
-356.581	172.421	0.147	0.209
-355.566	-135.530	-0.156	0.018
-354.552	-200.000	-0.003	0.123
-353.537	-70.792	-0.332	0.124
-352.523	-36.313	-0.152	-0.081
-351.508	350.376	-0.069	0.134
-350.493	-40.610	0.328	-0.169
-349.479	467.054	0.048	0.106
-348.464	-2.614	-0.066	0.046
-347.450	800.000	0.066	0.214
-346.435	-16.940	0.118	0.074
-345.420	-92.941	0.120	0.033
-344.406	624.702	-0.066	-0.166
-343.391	-72.802	-0.150	-0.055
-342.377	-9.085	-0.184	-0.122
-341.362	-200.000	0.014	-0.336
-340.348	-195.566	0.195	0.001
-339.333	25.114	0.122	-0.100
-338.318	-200.000	0.042	-0.217
-337.304	5.477	-0.174	-0.127
-336.289	-73.938	-0.094	-0.034
-335.275	13.461	0.234	-0.179
-334.260	-133.444	0.079	-0.010
-333.245	-74.432	-0.377	-0.135
-332.231	800.000	0.023	-0.068
-331.216	-31.683	-0.232	0.129
-330.202	105.599	0.173	0.202
-329.187	23.782	0.089	-0.072
-328.172	-85.595	0.262	0.081
-327.158	-93.502	0.166	-0.045
-326.143	-20.245	0.138	0.084
-325.129	-115.848	0.232	-0.043
-324.114	-200.000	0.003	-0.183
-323.099	800.000	0.092	0.252
-322.085	43.436	0.150	-0.136
-321.070	-174.439	-0.407	0.012
-320.056	286.412	-0.224	-0.401
-319.041	800.000	-0.037	0.148
-318.026	-19.735	-0.104	-0.064
-317.012	58.746	-0.096	0.093
-315.997	-78.773	-0.041	-0.014
-314.983	-90.053	0.317	0.091
-313.968	-168.657	0.097	-0.004
-312.953	78.561	-0.075	0.079
-311.939	5.060	0.051	-0.037
-310.924	518.133	0.018	0.041
-309.910	62.373	-0.126	-0.124
-308.895	-200.000	0.011	0.091
-307.880	-31.995	-0.342	-0.190
-306.866	-40.710	0.129	0.066
-305.851	-73.569	0.199	-0.072
-304.837	-39.641	-0.076	-0.039
-303.822	-54.405	-0.053	0.024
-302.807	-80.332	0.140	-0.046
-301.793	164.747	0.127	0.177
-300.778	213.400	-0.082	0.128
-299.764	249.388	-0.130	0.218
-298.749	800.000	0.066	0.219
-297.735	-128.160	-0.144	0.020
-296.720	-200.000	-0.038	-0.250
-295.705	36.206	-0.195	0.170
-294.691	-40.166	-0.537	0.277
-293.676	246.815	-0.055	0.091
-292.662	-43.646	-0.296	0.148
-291.647	129.155	-0.066	-0.083
-290.632	370.700	-0.075	0.151
-289.618	-83.931	0.410	-0.129
-288.603	426.535	0.067	0.142
-287.589	87.107	-0.093	-0.101
-286.574	361.751	-0.049	0.097
-285.559	-200.000	0.011	0.126
-284.545	800.000	0.056	-0.224
-283.530	-200.000	-0.067	-0.303
-282.516	505.977	0.124	-0.283
-281.501	-163.640	-0.215	0.010
-280.486	-100.262	-0.383	0.094
-279.472	-178.192	0.182	0.004
-278.457	-99.568	-0.318	-0.079
-277.443	-142.919	0.070	-0.007
-276.428	-104.697	-0.229	-0.052
-275.413	-107.557	0.156	0.034
-274.399	546.318	0.033	0.078
-273.384	179.872	-0.139	0.201
-272.370	55.723	-0.215	0.206
-271.355	800.000	0.082	-0.229
-270.340	363.496	0.111	0.221
-269.326	31.621	-0.089	0.076
-268.311	-31.339	0.224	0.124
-267.297	-82.249	-0.429	-0.138
-266.282	-200.000	0.050	-0.268
-265.267	-200.000	0.024	0.159
-264.253	-200.000	0.035	0.191
-263.238	55.801	0.315	-0.302
-262.224	-200.000	0.002	-0.137
-261.209	292.499	-0.090	0.162
-260.195	-24.516	0.378	0.222
-259.180	-177.161	-0.365	0.009
-258.165	46.610	-0.110	0.101
-257.151	160.871	-0.177	0.244
-256.136	-27.222	-0.174	-0.100
-255.122	-158.506	0.334	0.019
-254.107	-93.378	-0.155	0.042
-253.092	-200.000	0.012	-0.198
-252.078	-149.513	0.258	0.020
-251.063	307.420	0.025	-0.046
-250.049	-35.952	0.272	-0.145
-249.034	528.641	-0.123	0.287
-248.019	800.000	-0.080	-0.245
-247.005	-33.853	0.054	-0.029
-245.990	800.000	0.074	0.276
-244.976	-200.000	0.004	0.053
-243.961	-200.000	-0.105	-0.460
-242.946	30.918	0.234	-0.198
-241.932	220.289	-0.068	0.108
-240.917	800.000	-0.041	0.159
-239.903	215.900	0.028	0.045
-238.888	227.708	-0.087	-0.140
-237.873	355.929	0.104	-0.204
-236.859	800.000	0.083	0.244
-235.844	-80.150	-0.171	0.056
-234.830	607.831	-0.161	0.395
-233.815	-69.883	0.175	0.066
-232.800	7.738	0.143	-0.106
-231.786	800.000	0.004	0.015
-230.771	800.000	-0.032	-0.120
-229.757	80.412	0.256	-0.272
-228.742	302.266	-0.065	-0.119
-227.727	-48.976	0.298	0.141
-226.713	-200.000	-0.019	0.235
-225.698	72.270	-0.098	0.101
-224.684	-140.801	0.278	-0.028
-223.669	-143.896	0.284	0.026
-222.655	6.771	0.146	-0.107
-221.640	800.000	0.137	0.491
-220.625	263.621	-0.113	-0.193
-219.611	-200.000	0.025	0.148
-218.596	-200.000	0.037	-0.412
-217.582	-77.375	0.254	-0.087
-216.567	341.401	0.040	0.077
-215.552	763.489	0.174	-0.464
-214.538	20.650	0.182	0.145
-213.523	439.194	-0.007	-0.015
-212.509	-164.477	-0.302	-0.014
-211.494	665.087	-0.047	-0.120
-210.479	-132.267	0.209	-0.027
-209.465	-87.759	0.177	0.053
-208.450	-129.589	-0.376	-0.051
-207.436	800.000	-0.018	-0.069
-206.421	51.884	-0.094	0.088
-205.406	-200.000	-0.013	-0.131
-204.392	-140.842	0.093	0.009
-203.377	-200.000	-0.055	-0.405
-202.363	42.894	-0.107	-0.096
-201.348	-41.402	-0.195	0.099
-200.333	-200.000	0.019	-0.149
-199.319	-200.000	0.019	0.116
-198.304	-200.000	-0.007	0.156
-197.290	180.036	-0.094	0.135
-196.275	-89.658	0.130	-0.037
-195.260	-44.751	0.252	0.124
-194.246	800.000	0.030	0.120
-193.231	800.000	-0.094	-0.261
-192.217	377.027	0.156	-0.314
-191.202	31.138	0.149	-0.126
-190.187	11.878	-0.188	-0.143
-189.173	-57.999	0.291	-0.125
-188.158	-72.981	0.338	0.122
-187.144	344.506	-0.209	-0.403
-186.129	59.554	-0.129	-0.125
-185.114	-200.000	-0.002	0.055
-184.100	-9.282	-0.212	0.140
-183.085	76.490	0.263	-0.274
-182.071	144.068	-0.125	0.165
-181.056	-45.886	0.342	0.166
-180.042	-19.792	0.163	0.099
-179.027	-70.753	-0.063	0.024
-178.012	143.209	0.124	-0.162
-176.998	-172.749	-0.183	-0.006
-175.983	-121.851	-0.235	0.038
-174.969	118.761	-0.111	0.135
-173.954	-38.973	0.155	-0.080
-172.939	-55.559	0.262	-0.115
-171.925	-200.000	0.021	-0.102
-170.910	-27.835	0.025	0.014
-169.896	127.857	-0.104	0.130
-168.881	-200.000	-0.040	-0.193
-167.866	800.000	-0.022	0.063
-166.852	49.819	0.192	0.178
-165.837	75.192	0.073	0.076
-164.823	800.000	0.065	-0.198
-163.808	20.293	0.146	0.116
-162.793	-8.007	0.189	-0.126
-161.779	-200.000	-0.009	0.053
-160.764	-200.000	-0.009	0.083
-159.750	-200.000	-0.020	-0.171
-158.735	27.592	-0.236	-0.195
-157.720	-184.263	0.270	0.004
-156.706	68.508	0.248	-0.250
-155.691	800.000	-0.034	-0.107
-154.677	-60.998	0.147	0.061
-153.662	800.000	-0.116	0.320
-152.647	-120.316	-0.188	0.031
-151.633	133.773	0.158	0.201
-150.618	-39.402	0.238	-0.122
-149.604	-25.270	-0.140	-0.081
-148.589	-200.000	-0.013	0.265
-147.574	-117.346	-0.293	0.052
-146.560	-8.376	-0.070	0.047
-145.545	800.000	0.074	0.204
-144.531	800.000	-0.044	-0.129
-143.516	159.705	-0.120	0.164
-142.502	56.391	-0.103	-0.098
-141.487	-200.000	0.009	-0.084
-140.472	8.117	-0.199	0.147
-139.458	-200.000	0.031	0.237
-138.443	338.781	0.048	0.093
-137.429	-200.000	-0.025	-0.111
-136.414	680.880	-0.084	-0.215
-135.399	84.160	-0.054	-0.058
-134.385	-59.188	0.215	0.091
-133.370	10.289	-0.292	0.218
-132.356	-121.519	0.078	-0.013
-131.341	-45.860	0.269	-0.131
-130.326	26.786	-0.121	-0.100
-129.312	42.797	-0.070	-0.062
-128.297	800.000	-0.153	-0.522
-127.283	800.000	0.038	0.104
-126.268	-200.000	0.041	0.228
-125.253	310.504	0.132	-0.242
-124.239	-69.729	0.166	-0.062
-123.224	-44.200	-0.099	-0.049
-122.210	-200.000	-0.056	-0.368
-121.195	168.580	-0.132	-0.185
-120.180	474.138	0.082	0.182
-119.166	800.000	-0.093	-0.254
-118.151	34.786	0.060	0.051
-117.137	396.841	0.076	0.155
-116.122	32.900	0.153	-0.131
-115.107	-200.000	0.041	0.181
-114.093	370.045	-0.197	0.392
-113.078	-33.814	0.143	0.077
-112.064	-150.346	-0.178	0.013
-111.049	-71.863	0.296	-0.108
-110.034	130.843	-0.121	-0.152
-109.020	132.545	0.106	0.134
-108.005	-200.000	-0.030	0.160
-106.991	-59.706	-0.149	-0.063
-105.976	-123.021	-0.039	-0.006
-104.962	121.667	0.078	0.096
-103.947	-97.005	0.363	-0.093
-102.932	325.983	0.123	-0.231
-101.918	16.771	-0.155	-0.120
-100.903	176.549	-0.227	-0.323
-99.889	-162.002	-0.039	-0.002
-98.874	-166.222	0.398	-0.017
-97.859	-23.073	-0.112	-0.066
-96.845	-200.000	-0.030	-0.175
-95.830	-28.601	0.263	-0.149
-94.816	279.876	0.255	-0.447
-93.801	-10.209	-0.217	0.141
-92.786	8.612	0.050	0.037
-91.772	-128.912	0.084	0.012
-90.757	113.854	-0.075	-0.090
-89.743	-66.585	0.254	0.099
-88.728	226.476	0.088	-0.139
-87.713	-200.000	0.079	0.409
-86.699	709.663	-0.056	-0.146
-85.684	-200.000	0.049	0.274
-84.670	597.691	0.087	0.212
-83.655	-200.000	0.032	-0.317
-82.640	800.000	0.070	-0.266
-81.626	-125.610	0.353	-0.052
-80.611	75.709	-0.300	0.311
-79.597	-200.000	-0.006	0.143
-78.582	144.995	-0.238	-0.312
-77.567	29.653	0.248	0.207
-76.553	800.000	-0.014	0.059
-75.538	-200.000	-0.045	-0.206
-74.524	-131.296	0.002	-0.000
-73.509	643.178	0.094	-0.236
-72.494	-143.685	0.090	0.008
-71.480	-17.809	-0.173	0.107
-70.465	39.822	-0.115	-0.101
-69.451	328.841	0.020	0.039
-68.436	-32.400	-0.035	0.019
-67.422	351.934	-0.194	-0.377
-66.407	-81.412	-0.222	-0.072
-65.392	355.143	-0.253	0.492
-64.378	7.720	-0.333	0.244
-63.363	-200.000	-0.001	-0.084
-62.349	800.000	0.089	0.316
-61.334	107.159	-0.883	-1.029
-60.319	-14.225	0.633	0.400
-59.305	-200.000	-0.144	-1.159
-58.290	463.297	0.549	1.201
-57.276	800.000	0.462	1.537
-56.261	-200.000	106.635	621.325
-55.246	514.237	1512.775	3457.153
-54.232	176.001	2704.321	3844.819
-53.217	109.981	2185.119	2568.015
-52.203	39.896	1706.329	1500.505
-51.188	32.395	1518.451	1284.274
-50.173	30.075	1491.200	1245.602
-49.159	51.142	1547.840	1437.881
-48.144	51.301	1563.756	1453.695
-47.130	32.551	1520.102	1286.537
-46.115	29.558	1505.154	1253.552
-45.100	29.375	1501.692	1249.381
-44.086	29.272	1499.645	1246.927
-43.071	29.247	1497.373	1244.825
-42.057	29.099	1496.261	1242.849
-41.042	29.275	1494.309	1242.366
-40.027	29.338	1492.782	1241.471
-39.013	29.233	1491.609	1239.739
-37.998	29.167	1489.884	1237.816
-36.984	29.216	1488.902	1237.274
-35.969	29.235	1487.262	1235.993
-34.954	29.216	1486.131	1234.873
-33.940	29.214	1484.643	1233.574
-32.925	29.192	1483.608	1232.521
-31.911	29.302	1482.081	1231.939
-30.896	29.216	1481.079	1230.481
-29.881	29.369	1479.667	1230.281
-28.867	29.339	1478.226	1228.833
-27.852	29.326	1476.914	1227.610
-26.838	29.332	1475.501	1226.428
-25.823	29.292	1474.417	1225.211
-24.809	29.333	1472.362	1223.725
-23.794	29.302	1471.216	1222.521
-22.779	29.286	1469.703	1221.108
-21.765	29.277	1469.051	1220.457
-20.750	29.357	1467.399	1219.564
-19.736	29.318	1466.653	1218.638
-18.721	29.185	1465.817	1217.020
-17.706	29.264	1464.472	1216.377
-16.692	29.334	1463.096	1215.643
-15.677	29.250	1462.445	1214.503
-14.663	29.264	1461.065	1213.402
-13.648	29.347	1460.389	1213.336
-12.633	29.173	1459.429	1211.350
-11.619	29.148	1458.496	1210.361
-10.604	29.221	1457.921	1210.313
-9.590	29.280	1456.748	1209.680
-8.575	29.185	1456.171	1208.531
-7.560	29.134	1455.608	1207.679
-6.546	29.174	1454.565	1207.026
-5.531	29.261	1453.185	1206.402
-4.517	29.167	1452.541	1205.206
-3.502	29.206	1451.280	1204.370
-2.487	29.178	1450.766	1203.708
-1.473	29.154	1449.626	1202.559
-0.458	29.305	1448.401	1202.483
0.556	26.775	1438.864	1190.682
1.571	23.961	1413.623	1151.508
2.586	20.775	1354.037	1083.084
3.600	19.391	1273.427	1010.412
4.615	18.200	1229.318	968.587
5.629	15.779	1174.403	912.129
6.644	7.732	1090.309	806.085
7.659	1.024	1050.535	743.759
8.673	-0.103	1044.978	734.251
9.688	-0.317	1041.838	730.938
10.702	-0.298	1039.818	729.549
11.717	-0.401	1038.146	727.814
12.731	2.740	1041.886	745.655
13.746	11.533	1053.967	797.319
14.761	18.334	1062.797	837.301
15.775	20.067	1064.534	847.072
16.790	20.455	1064.461	848.836
17.804	20.263	1063.340	846.931
18.819	19.996	1062.758	845.090
19.834	20.286	1061.855	845.708
20.848	20.317	1061.422	845.444
21.863	20.310	1061.294	845.232
22.877	20.435	1060.468	845.106
23.892	20.254	1060.254	843.982
24.907	20.176	1059.170	842.662
25.921	20.310	1058.512	842.716
26.936	20.222	1057.750	841.610
27.950	20.199	1056.586	840.495
28.965	20.284	1055.270	839.786
29.980	20.176	1053.463	837.754
30.994	20.080	1052.428	836.395
32.009	20.326	1051.586	836.835
33.023	20.371	1050.375	836.016
34.038	20.208	1049.630	834.564
35.053	20.021	1048.886	833.000
36.067	20.484	1047.687	834.195
37.082	20.331	1047.413	833.171
38.096	20.309	1046.647	832.380
39.111	20.508	1045.702	832.509
40.126	20.721	1044.278	832.321
41.140	20.462	1043.522	830.404
42.155	20.168	1042.399	828.036
43.169	19.984	1040.815	825.825
44.184	20.051	1039.605	825.114
45.199	20.074	1038.484	824.259
46.213	19.935	1038.072	823.197
47.228	19.984	1036.476	822.092
48.242	20.137	1035.919	822.306
49.257	20.180	1035.031	821.729
50.271	20.199	1034.522	821.345
51.286	20.463	1033.530	821.732
52.301	20.343	1033.075	820.731
53.315	20.404	1031.749	819.890
54.330	20.416	1031.017	819.293
55.344	20.242	1030.518	818.004
56.359	20.426	1028.970	817.572
57.374	20.352	1028.227	816.559
58.388	20.085	1027.102	814.341
59.403	20.075	1026.632	813.845
60.417	20.062	1025.807	813.062
61.432	20.014	1024.714	811.896
62.447	19.980	1024.460	811.466
63.461	20.191	1023.581	811.684
64.476	20.135	1023.257	811.094
65.490	20.204	1021.956	810.313
66.505	20.047	1021.080	808.814
67.520	20.031	1020.208	807.978
68.534	20.105	1019.427	807.631
69.549	20.028	1018.046	806.108
70.563	19.852	1016.852	804.273
71.578	19.680	1016.055	802.774
72.593	19.646	1015.726	802.286
73.607	19.658	1013.847	800.783
74.622	19.597	1013.433	800.106
75.636	19.950	1012.322	800.790
76.651	20.080	1011.894	800.982
77.666	19.901	1010.745	799.173
78.680	19.849	1009.919	798.210
79.695	19.859	1009.407	797.779
80.709	19.855	1009.013	797.381
81.724	19.908	1008.501	797.152
82.739	19.950	1007.113	796.176
83.753	20.043	1006.141	795.764
84.768	20.195	1005.547	795.922
85.782	20.513	1004.778	796.701
86.797	20.672	1004.256	796.945
87.812	20.598	1003.646	796.051
88.826	20.522	1001.865	794.219
89.841	20.515	1000.919	793.367
90.855	20.602	1000.233	793.152
91.870	20.673	999.611	792.912
92.884	20.563	998.813	791.709
93.899	20.410	997.819	790.155
94.914	20.434	996.671	789.286
95.928	20.340	996.329	788.515
96.943	20.498	995.239	788.302
97.957	20.218	994.107	786.064
98.972	19.969	992.943	783.949
99.987	19.804	991.912	782.321
101.001	19.911	991.009	782.022
102.016	20.163	990.668	782.819
103.030	20.383	989.887	783.125
104.045	20.194	988.482	781.093
105.060	20.150	987.151	779.774
106.074	19.878	986.029	777.597
107.089	19.740	986.148	777.004
108.103	20.200	985.761	778.695
109.118	20.366	984.582	778.437
110.133	20.147	983.096	776.214
111.147	20.150	982.471	775.667
112.162	20.084	980.763	773.953
113.176	19.851	979.884	772.152
114.191	19.766	979.630	771.503
115.206	20.007	978.195	771.382
116.220	19.737	977.010	769.174
117.235	19.591	975.895	767.584
118.249	19.807	975.127	767.868
119.264	19.914	974.265	767.595
120.279	19.915	973.111	766.622
121.293	19.823	972.810	765.912
122.308	19.916	971.976	765.599
123.322	19.919	971.159	764.901
124.337	19.796	969.862	763.270
125.352	19.741	968.524	761.908
126.366	19.329	966.810	758.677
127.381	19.024	965.946	756.589
128.395	19.607	965.547	758.773
129.410	20.151	964.913	760.597
130.424	20.330	963.771	760.414
131.439	20.350	962.514	759.442
132.454	20.223	962.142	758.524
133.468	20.095	960.825	756.861
134.483	20.129	960.056	756.335
135.497	20.209	959.476	756.161
136.512	20.385	959.090	756.559
137.527	20.487	958.318	756.325
138.541	20.380	957.044	754.786
139.556	20.510	956.764	755.063
140.570	20.441	955.740	753.891
141.585	20.339	955.296	753.031
142.600	20.385	954.631	752.637
143.614	20.443	953.497	751.929
144.629	20.395	952.831	751.132
145.643	20.802	952.054	752.208
146.658	20.682	950.425	750.340
147.673	20.525	949.547	748.904
148.687	20.392	948.576	747.496
149.702	20.390	947.519	746.591
150.716	20.319	946.406	745.342
151.731	20.284	945.223	744.197
152.746	20.423	944.566	744.206
153.760	20.530	944.056	744.197
154.775	20.657	943.122	743.939
155.789	20.755	942.503	743.803
156.804	20.644	941.506	742.476
157.819	20.523	940.360	740.991
158.833	20.576	939.765	740.684
159.848	20.731	939.156	740.798
160.862	20.734	938.464	740.199
161.877	20.655	937.294	738.876
162.892	20.608	936.551	738.024
163.906	20.721	935.711	737.777
164.921	20.581	934.977	736.541
165.935	20.595	934.024	735.784
166.950	20.678	932.595	734.944
167.964	20.726	931.516	734.229
168.979	20.537	930.859	732.850
169.994	20.578	929.518	731.902
171.008	20.417	928.623	730.455
172.023	20.558	928.040	730.524
173.037	20.683	927.073	730.222
174.052	20.518	926.188	728.770
175.067	20.313	925.103	726.994
176.081	20.358	924.317	726.499
177.096	20.408	923.599	726.080
178.110	20.513	922.360	725.482
179.125	20.333	921.111	723.684
180.140	20.066	920.379	721.933
181.154	20.081	919.868	721.532
182.169	20.174	919.525	721.586
183.183	20.274	919.032	721.548
184.198	20.465	918.793	722.090
185.213	20.583	917.904	721.819
186.227	20.559	917.353	721.223
187.242	20.665	916.793	721.159
188.256	20.519	916.246	720.058
189.271	20.527	914.858	718.937
190.286	20.590	914.525	718.871
191.300	20.471	913.725	717.690
192.315	20.125	912.201	715.002
193.329	19.359	910.664	710.579
194.344	19.120	909.595	708.698
195.359	19.759	909.843	711.457
196.373	20.393	910.221	714.297
197.388	20.562	909.984	714.743
198.402	20.381	909.419	713.492
199.417	20.449	908.328	712.854
200.432	20.601	907.513	712.774
201.446	20.363	907.324	711.589
202.461	19.876	906.697	709.039
203.475	20.131	906.146	709.587
204.490	19.714	904.274	706.356
205.504	18.692	902.391	700.654
206.519	19.024	902.635	702.136
207.534	19.978	903.241	706.439
208.548	20.162	902.265	706.362
209.563	20.457	902.109	707.382
210.577	20.511	901.509	707.065
211.592	20.159	900.813	705.026
212.607	20.509	900.555	706.184
213.621	20.819	899.180	706.303
214.636	20.602	898.829	705.084
215.650	20.791	898.390	705.442
216.665	20.733	897.460	704.416
217.680	20.544	897.544	703.653
218.694	20.820	896.259	703.699
219.709	20.481	895.546	701.708
220.723	20.122	894.830	699.637
221.738	20.349	894.415	700.167
222.753	20.531	893.870	700.409
223.767	20.457	893.212	699.535
224.782	20.621	892.393	699.492
225.796	20.706	892.021	699.481
226.811	20.630	891.735	698.888
227.826	20.427	890.034	696.680
228.840	19.539	889.011	692.257
229.855	19.522	888.155	691.463
230.869	19.750	888.056	692.238
231.884	19.541	887.060	690.565
232.899	19.596	886.235	690.080
233.913	20.386	886.216	693.160
234.928	20.587	885.896	693.648
235.942	20.494	884.848	692.398
236.957	20.490	884.457	692.013
237.972	20.353	883.545	690.695
238.986	20.082	883.033	689.153
240.001	20.242	882.222	689.098
241.015	20.163	881.991	688.540
242.030	20.219	881.184	688.071
243.045	20.393	880.370	688.066
244.059	20.476	880.101	688.122
245.074	20.585	879.622	688.118
246.088	20.606	878.801	687.500
247.103	20.228	877.833	685.186
248.117	20.119	877.457	684.402
249.132	20.795	877.045	686.689
250.147	21.050	876.980	687.583
251.161	21.124	876.107	687.127
252.176	21.281	875.718	687.380
253.190	21.357	874.939	687.009
254.205	21.268	874.569	686.304
255.220	21.404	874.235	686.515
256.234	21.433	873.309	685.842
257.249	21.366	872.588	684.952
258.263	21.240	872.120	684.032
259.278	21.279	871.246	683.437
260.293	21.270	871.055	683.192
261.307	21.437	870.267	683.167
262.322	21.279	869.563	681.935
263.336	21.232	868.828	681.115
264.351	20.547	867.651	677.466
265.366	19.616	865.555	672.148
266.380	19.237	864.777	670.012
267.395	20.189	865.055	673.866
268.409	20.935	865.049	676.702
269.424	20.875	864.683	676.123
270.439	20.894	864.153	675.722
271.453	21.222	863.150	676.148
272.468	21.297	862.525	675.888
273.482	21.404	862.272	676.045
274.497	21.391	862.147	675.837
275.512	21.309	860.405	674.093
276.526	20.747	859.006	670.773
277.541	20.839	858.843	670.940
278.555	21.142	858.887	672.084
279.570	21.044	858.008	670.959
280.585	20.692	857.393	669.066
281.599	20.810	856.870	669.053
282.614	21.112	856.012	669.482
283.628	20.555	855.199	666.652
284.643	20.290	854.189	664.791
285.657	20.613	854.359	666.099
286.672	20.643	853.508	665.494
287.687	20.146	852.487	662.737
288.701	20.512	852.513	664.098
289.716	20.758	851.934	664.529
290.730	20.474	850.884	662.569
291.745	20.377	850.575	661.899
292.760	20.231	849.251	660.254
293.774	20.159	848.908	659.655
294.789	21.126	849.126	663.445
295.803	21.725	848.871	665.463
296.818	21.702	848.729	665.206
297.833	21.839	848.222	665.269
298.847	21.551	847.171	663.293
299.862	21.260	845.754	661.023
300.876	21.460	845.661	661.648
301.891	21.798	845.331	662.609
302.906	21.707	844.709	661.718
303.920	21.282	843.832	659.370
304.935	20.950	843.460	657.772
305.949	21.613	842.337	659.334
306.964	21.529	842.122	658.790
307.979	21.332	841.785	657.727
308.993	21.559	840.878	657.812
310.008	21.663	840.801	658.085
311.022	21.794	840.463	658.255
312.037	21.702	839.394	657.014
313.052	21.495	838.721	655.655
314.066	21.463	838.190	655.060
315.081	20.822	836.740	651.472
316.095	20.149	835.641	648.043
317.110	20.581	835.828	649.747
318.125	21.486	835.931	653.148
319.139	20.969	835.118	650.528
320.154	19.784	833.576	644.852
321.168	19.490	832.637	642.973
322.183	20.088	833.122	645.519
323.197	21.025	833.105	648.941
324.212	21.316	832.601	649.572
325.227	21.395	832.320	649.588
326.241	21.645	831.946	650.166
327.256	21.384	831.239	648.588
328.270	21.289	830.748	647.794
329.285	21.267	830.011	647.080
330.300	21.163	829.195	646.004
331.314	20.915	828.411	644.419
332.329	21.193	827.352	644.563
333.343	21.385	827.529	645.353
334.358	21.607	826.989	645.696
335.373	21.639	826.102	645.065
336.387	21.613	825.734	644.621
337.402	21.844	825.583	645.297
338.416	22.114	825.026	645.797
339.431	22.019	824.528	645.002
340.446	21.810	824.334	644.027
341.460	22.189	823.456	644.674
342.475	22.172	823.158	644.322
343.489	21.917	821.945	642.381
344.504	21.858	821.518	641.773
345.519	22.136	821.268	642.540
346.533	22.228	821.339	642.873
347.548	22.458	820.507	643.005
348.562	22.490	819.933	642.614
349.577	22.310	819.453	641.525
350.592	22.363	818.641	641.027
351.606	22.328	818.393	640.648
352.621	22.233	818.171	640.071
353.635	22.091	817.785	639.195
354.650	22.183	817.067	638.913
355.665	21.813	815.928	636.624
356.679	20.764	814.275	631.474
357.694	20.711	813.903	630.938
358.708	21.535	813.257	633.363
359.723	21.342	812.842	632.285
360.738	21.519	813.161	633.121
361.752	21.923	813.126	634.496
362.767	22.030	812.518	634.356
363.781	22.273	812.094	634.845
364.796	22.520	812.150	635.721
365.810	22.605	811.819	635.714
366.825	22.620	811.271	635.282
367.840	22.779	810.708	635.359
368.854	22.494	810.309	633.964
369.869	22.102	809.162	631.600
370.883	21.897	808.771	630.505
371.898	22.091	808.085	630.608
372.913	21.853	807.670	629.375
373.927	21.927	806.450	628.632
374.942	22.172	806.172	629.240
375.956	22.253	805.724	629.125
376.971	22.286	805.448	628.969
377.986	22.488	804.583	628.960
379.000	22.618	804.280	629.133
380.015	22.529	804.031	628.562
381.029	22.375	803.399	627.466
382.044	22.342	802.951	626.943
383.059	22.580	802.252	627.187
384.073	22.648	801.439	626.740
385.088	22.644	801.078	626.389
386.102	22.580	800.558	625.699
387.117	22.412	800.031	624.635
388.132	22.286	799.653	623.836
389.146	22.267	798.890	623.120
390.161	21.829	797.899	620.741
391.175	21.841	797.451	620.380
392.190	22.254	797.399	621.745
393.205	22.390	797.193	622.011
394.219	21.467	795.235	617.172
395.234	19.860	793.128	609.825
396.248	19.149	792.199	606.553
397.263	20.451	792.765	611.516
398.278	21.992	794.329	618.100
399.292	22.251	794.219	618.873
400.307	21.958	793.392	617.144
401.321	22.028	793.179	617.167
402.336	22.162	792.518	617.072
403.350	22.269	792.785	617.598
404.365	22.907	792.471	619.538
405.380	22.910	792.129	619.227
406.394	23.308	791.825	620.330
407.409	23.351	791.321	620.027
408.423	23.390	790.749	619.662
409.438	23.096	790.677	618.524
410.453	23.193	790.210	618.444
411.467	23.406	789.540	618.605
412.482	23.267	788.738	617.438
413.496	23.197	788.633	617.058
414.511	23.412	788.090	617.328
415.526	23.415	787.702	616.979
416.540	23.258	787.549	616.259
417.555	23.287	786.722	615.657
418.569	22.870	786.099	613.669
419.584	22.773	785.714	612.976
420.599	22.918	785.208	613.029
421.613	157.617	1364.281	1798.747
422.628	136.342	1448.629	1798.844
