DTS Sentinel unit serial number:	SN413079Multiplexer serial number:	ORYXHardware model number:	OX4-SRSoftware version number:	ORYX F/W v4.00 Oryx Data Collector v3.7.2.0data status	okinstallation	princeton_trtdifferential loss correction	single-endedforward channel	channel 3reverse channel	N/Adate	2019/09/11time	18:30:11forward acquisition time	60.00reverse acquisition time	0.00gamma	496.2192k internal	0.2287k external	0.2287temperature offset calibration	1.0003default loss term (dB/km)	0.3790temperature slope calibration	1.0000multiplexer offset coefficient	1.0000multiplexer slope coefficient	1.0000fibre end	0.00T internal ref (°C)	43.86T ext. ref 1 (°C)	1.18T ext. ref 2 (°C)	37.40length (m)	temperature (°C)	Stokes	anti-Stokes-747.200	645.458	0.040	-0.105
-746.185	800.000	0.107	0.332
-745.171	-77.425	0.262	-0.093
-744.156	738.891	0.059	0.163
-743.142	-200.000	0.014	-0.111
-742.127	-11.876	-0.302	0.203
-741.112	287.139	0.167	0.309
-740.098	-13.397	0.140	-0.093
-739.083	158.081	-0.265	0.377
-738.069	800.000	-0.077	0.294
-737.054	800.000	0.017	-0.076
-736.039	800.000	-0.049	0.171
-735.025	800.000	0.009	0.028
-734.010	-114.215	-0.371	-0.074
-732.996	-32.426	-0.266	0.152
-731.981	-200.000	-0.096	0.430
-730.966	20.672	0.247	-0.205
-729.952	-60.558	-0.422	-0.184
-728.937	-105.825	-0.246	-0.057
-727.923	-148.045	-0.441	0.038
-726.908	-42.036	-0.100	0.053
-725.894	460.643	0.081	0.186
-724.879	488.318	-0.042	-0.098
-723.864	490.676	-0.058	-0.136
-722.850	800.000	-0.013	0.041
-721.835	14.444	0.093	0.074
-720.821	-149.129	0.194	-0.016
-719.806	25.617	0.277	-0.237
-718.791	-200.000	0.005	-0.028
-717.777	249.167	0.171	-0.298
-716.762	341.550	-0.146	0.293
-715.748	51.856	0.153	0.149
-714.733	392.991	-0.095	-0.203
-713.718	303.496	-0.036	-0.069
-712.704	-34.720	-0.152	0.085
-711.689	-34.976	0.245	0.137
-710.675	-35.594	-0.202	0.112
-709.660	-64.030	-0.292	-0.122
-708.645	-200.000	0.011	0.211
-707.631	388.780	0.083	-0.175
-706.616	220.582	0.077	0.126
-705.602	54.511	0.131	0.129
-704.587	231.881	-0.101	-0.169
-703.572	-200.000	0.020	0.107
-702.558	22.899	0.134	0.113
-701.543	-200.000	-0.034	0.179
-700.529	126.371	-0.068	-0.089
-699.514	90.674	0.140	0.160
-698.499	114.638	-0.117	-0.146
-697.485	-23.394	-0.119	0.073
-696.470	177.162	-0.120	0.179
-695.456	-200.000	0.028	0.163
-694.441	240.417	0.147	-0.250
-693.426	618.512	0.112	0.289
-692.412	254.854	-0.090	0.158
-691.397	-200.000	0.004	-0.259
-690.383	-200.000	0.036	0.281
-689.368	800.000	0.040	0.167
-688.354	21.362	-0.239	-0.198
-687.339	-55.198	-0.128	0.059
-686.324	151.304	-0.204	0.284
-685.310	-200.000	0.067	-0.376
-684.295	-200.000	0.022	-0.423
-683.281	-59.378	-0.475	0.209
-682.266	-200.000	-0.000	0.130
-681.251	-200.000	0.159	-0.001
-680.237	-200.000	0.011	-0.119
-679.222	-200.000	0.027	-0.138
-678.208	-19.446	-0.161	-0.102
-677.193	-61.543	0.260	0.112
-676.178	15.000	-0.279	-0.224
-675.164	-200.000	-0.070	0.438
-674.149	-140.577	0.224	-0.024
-673.135	800.000	0.044	0.170
-672.120	-174.729	0.111	0.003
-671.105	-64.136	-0.267	-0.111
-670.091	2.730	-0.179	-0.133
-669.076	-156.973	0.187	-0.012
-668.062	-200.000	0.046	-0.260
-667.047	-8.696	-0.154	0.106
-666.032	25.080	-0.092	0.078
-665.018	-148.340	-0.140	0.012
-664.003	-51.636	0.149	-0.071
-662.989	800.000	-0.071	0.301
-661.974	-121.452	0.152	0.026
-660.959	-17.619	-0.096	0.062
-659.945	98.571	-0.137	0.162
-658.930	112.888	-0.227	0.281
-657.916	800.000	-0.004	0.012
-656.901	800.000	0.056	0.217
-655.886	477.918	0.113	0.261
-654.872	-186.398	-0.113	0.002
-653.857	32.055	0.198	-0.175
-652.843	-7.100	0.290	0.201
-651.828	92.144	0.190	-0.219
-650.814	-200.000	0.016	-0.215
-649.799	75.285	-0.263	-0.284
-648.784	-114.764	0.108	0.021
-647.770	-77.011	-0.273	0.097
-646.755	-200.000	0.005	0.085
-645.741	140.390	0.125	0.169
-644.726	800.000	-0.025	0.073
-643.711	120.848	0.297	0.378
-642.697	82.024	-0.009	-0.010
-641.682	43.134	0.219	-0.204
-640.668	612.260	-0.045	0.115
-639.653	24.448	0.197	-0.166
-638.638	-109.564	0.331	0.071
-637.624	-81.537	0.249	-0.084
-636.609	-59.502	-0.187	0.082
-635.595	-200.000	0.006	-0.320
-634.580	-3.754	0.228	0.162
-633.565	2.910	0.302	0.224
-632.551	-148.746	0.360	0.030
-631.536	107.251	0.149	0.181
-630.522	-200.000	0.018	0.082
-629.507	19.754	0.250	0.205
-628.492	-62.066	0.055	-0.023
-627.478	152.856	-0.165	-0.231
-626.463	-71.525	-0.096	-0.037
-625.449	-1.717	0.215	-0.155
-624.434	78.084	0.356	-0.388
-623.419	-200.000	-0.013	0.257
-622.405	101.906	0.021	0.024
-621.390	-200.000	-0.037	-0.167
-620.376	-102.709	0.203	-0.049
-619.361	800.000	0.048	0.153
-618.346	74.031	-0.177	0.190
-617.332	-200.000	0.004	0.060
-616.317	-200.000	0.005	0.201
-615.303	132.440	0.208	0.274
-614.288	221.474	0.133	-0.218
-613.273	138.690	-0.187	0.250
-612.259	800.000	0.035	-0.110
-611.244	-129.712	-0.140	-0.020
-610.230	501.138	0.134	-0.317
-609.215	-83.808	-0.214	-0.070
-608.201	-200.000	-0.031	0.156
-607.186	-77.903	-0.304	0.107
-606.171	320.649	0.066	-0.129
-605.157	104.155	-0.138	0.166
-604.142	-43.329	-0.247	-0.128
-603.128	800.000	-0.067	-0.296
-602.113	149.457	-0.093	0.128
-601.098	68.383	-0.035	0.037
-600.084	51.860	0.020	-0.019
-599.069	1.632	-0.252	-0.185
-598.055	-67.769	-0.183	0.073
-597.040	169.627	0.093	-0.135
-596.025	-26.934	-0.172	0.102
-595.011	64.050	0.185	-0.190
-593.996	194.277	-0.107	-0.165
-592.982	800.000	0.042	-0.164
-591.967	-15.263	0.303	-0.198
-590.952	-26.419	0.254	0.152
-589.938	305.385	-0.013	0.025
-588.923	800.000	-0.103	0.331
-587.909	71.123	0.154	-0.162
-586.894	-200.000	0.051	-0.248
-585.879	2.149	-0.071	-0.052
-584.865	-138.201	-0.300	0.034
-583.850	69.488	-0.086	0.091
-582.836	241.571	0.051	-0.087
-581.821	233.903	-0.013	0.022
-580.806	800.000	0.034	0.118
-579.792	27.865	-0.134	-0.115
-578.777	766.976	0.079	-0.219
-577.763	626.227	-0.082	-0.212
-576.748	800.000	0.090	-0.276
-575.733	-123.393	-0.234	-0.038
-574.719	-98.766	-0.039	0.010
-573.704	133.372	-0.060	0.079
-572.690	36.599	0.088	-0.079
-571.675	-200.000	-0.020	-0.247
-570.661	-34.991	-0.048	0.027
-569.646	800.000	-0.092	-0.308
-568.631	-35.352	0.270	-0.150
-567.617	-200.000	0.070	0.333
-566.602	-200.000	-0.038	0.319
-565.588	647.151	-0.103	-0.268
-564.573	-17.070	-0.073	-0.047
-563.558	-136.117	-0.226	0.027
-562.544	388.710	-0.042	-0.088
-561.529	-123.185	0.182	-0.030
-560.515	273.822	-0.093	0.167
-559.500	211.751	0.140	0.225
-558.485	-8.791	0.320	0.219
-557.471	-45.886	-0.147	-0.074
-556.456	-200.000	0.016	0.121
-555.442	-97.210	0.218	0.058
-554.427	-107.695	-0.151	-0.034
-553.412	-172.417	-0.033	0.001
-552.398	-55.712	-0.440	-0.201
-551.383	-113.349	0.181	0.036
-550.369	-38.128	-0.145	0.078
-549.354	-200.000	-0.035	-0.335
-548.339	116.515	0.045	-0.056
-547.325	-37.741	-0.099	0.054
-546.310	800.000	-0.094	0.332
-545.296	-96.497	-0.264	0.071
-544.281	-75.008	0.114	-0.042
-543.266	-90.276	0.125	-0.037
-542.252	154.098	0.080	0.111
-541.237	-50.692	0.528	0.253
-540.223	-168.915	0.199	-0.008
-539.208	-152.674	0.118	-0.009
-538.193	-200.000	-0.021	-0.111
-537.179	-64.740	-0.207	-0.085
-536.164	228.349	0.238	-0.394
-535.150	-57.769	-0.230	-0.102
-534.135	-102.151	0.324	0.079
-533.121	800.000	0.102	-0.453
-532.106	237.572	0.159	0.269
-531.091	-200.000	-0.020	0.373
-530.077	-113.298	-0.218	-0.044
-529.062	370.012	0.019	0.040
-528.048	73.222	0.080	-0.085
-527.033	-104.917	-0.248	-0.058
-526.018	800.000	0.047	-0.181
-525.004	-200.000	-0.022	-0.310
-523.989	-142.298	0.318	-0.032
-522.975	800.000	-0.044	-0.175
-521.960	115.377	-0.136	0.169
-520.945	-169.328	-0.261	-0.010
-519.931	185.180	-0.270	-0.407
-518.916	207.979	0.072	0.115
-517.902	-200.000	-0.007	-0.060
-516.887	26.317	-0.085	-0.072
-515.872	-39.406	-0.164	0.088
-514.858	371.284	0.111	0.229
-513.843	800.000	-0.034	0.134
-512.829	-63.277	-0.523	0.219
-511.814	800.000	-0.080	0.283
-510.799	166.470	0.164	0.236
-509.785	64.706	0.162	0.166
-508.770	800.000	-0.019	-0.066
-507.756	-80.577	0.122	-0.041
-506.741	74.483	0.194	0.207
-505.726	233.787	0.090	0.151
-504.712	-42.966	0.113	-0.058
-503.697	482.348	0.097	0.224
-502.683	-88.505	-0.176	-0.053
-501.668	76.614	-0.109	0.117
-500.653	-200.000	-0.021	0.375
-499.639	101.428	-0.040	0.048
-498.624	645.710	-0.051	-0.133
-497.610	179.369	0.089	0.133
-496.595	-96.096	-0.144	0.039
-495.581	282.104	-0.034	-0.061
-494.566	800.000	-0.054	-0.165
-493.551	516.819	-0.061	-0.145
-492.537	-34.120	-0.180	0.100
-491.522	800.000	-0.037	0.106
-490.508	564.526	0.002	-0.004
-489.493	57.630	-0.170	0.169
-488.478	-95.889	0.197	0.053
-487.464	-81.680	0.123	-0.041
-486.449	-11.827	-0.160	-0.107
-485.435	800.000	-0.029	0.116
-484.420	-102.655	0.415	-0.100
-483.405	-74.287	0.123	-0.045
-482.391	149.323	0.178	0.244
-481.376	800.000	-0.110	-0.362
-480.362	107.142	-0.323	-0.390
-479.347	-82.794	0.316	-0.104
-478.332	-200.000	-0.017	-0.363
-477.318	-94.276	0.071	0.020
-476.303	-132.458	0.175	0.023
-475.289	-123.917	-0.309	0.049
-474.274	-15.046	0.214	0.139
-473.259	-87.474	-0.282	-0.087
-472.245	-76.668	-0.313	0.111
-471.230	-92.170	0.048	-0.014
-470.216	-93.707	0.131	0.037
-469.201	-200.000	0.016	0.186
-468.186	-125.874	0.129	0.020
-467.172	376.060	-0.151	0.313
-466.157	-200.000	-0.032	0.198
-465.143	49.071	-0.208	-0.198
-464.128	-200.000	-0.000	-0.336
-463.113	372.531	0.006	0.013
-462.099	-105.630	0.064	0.015
-461.084	-75.381	-0.138	0.050
-460.070	-155.129	0.295	0.020
-459.055	325.936	-0.093	-0.180
-458.040	-17.008	-0.236	0.151
-457.026	128.491	-0.028	0.037
-456.011	-48.965	0.090	-0.044
-454.997	-45.220	0.103	0.052
-453.982	-123.664	-0.249	-0.040
-452.968	13.446	-0.375	0.295
-451.953	418.803	0.114	0.247
-450.938	109.185	0.177	0.215
-449.924	53.815	0.028	-0.027
-448.909	-134.439	-0.305	-0.038
-447.895	-38.766	-0.439	-0.235
-446.880	113.820	-0.057	0.070
-445.865	-6.600	-0.268	0.185
-444.851	-34.899	-0.298	-0.165
-443.836	-200.000	-0.009	0.241
-442.822	800.000	-0.038	0.162
-441.807	-46.770	-0.112	0.056
-440.792	-139.164	0.047	0.005
-439.778	159.291	-0.159	0.224
-438.763	-200.000	0.020	-0.173
-437.749	-36.860	0.203	-0.110
-436.734	66.085	0.107	0.110
-435.719	-103.320	0.369	0.088
-434.705	800.000	-0.056	0.213
-433.690	76.814	0.138	0.149
-432.676	-200.000	0.006	-0.349
-431.661	-132.058	0.096	-0.013
-430.646	-136.373	-0.223	-0.026
-429.632	-64.793	-0.025	0.010
-428.617	-101.799	0.218	-0.054
-427.603	128.721	0.094	0.122
-426.588	30.756	0.280	0.243
-425.573	80.828	-0.100	-0.109
-424.559	-105.912	0.024	0.006
-423.544	-87.813	-0.316	0.097
-422.530	131.454	-0.028	0.036
-421.515	-67.625	0.062	-0.025
-420.500	-19.247	0.097	-0.061
-419.486	330.457	-0.062	-0.122
-418.471	-77.129	-0.362	0.128
-417.457	-73.860	0.187	0.069
-416.442	-200.000	-0.006	-0.063
-415.428	-65.137	-0.096	-0.039
-414.413	-200.000	0.003	-0.116
-413.398	-200.000	-0.027	0.206
-412.384	227.042	-0.075	-0.124
-411.369	381.674	0.075	-0.157
-410.355	-200.000	0.018	-0.084
-409.340	163.842	-0.102	-0.146
-408.325	67.776	-0.084	0.087
-407.311	-200.000	0.022	0.116
-406.296	382.403	-0.133	-0.277
-405.282	201.020	-0.119	-0.186
-404.267	178.165	-0.193	0.285
-403.252	800.000	0.052	-0.215
-402.238	-200.000	0.103	-0.000
-401.223	399.384	-0.037	-0.079
-400.209	-200.000	0.039	-0.241
-399.194	-131.483	-0.373	-0.050
-398.179	-155.959	0.121	-0.008
-397.165	150.259	0.193	0.265
-396.150	478.052	0.228	0.522
-395.136	800.000	0.056	0.242
-394.121	201.856	0.141	-0.219
-393.106	67.518	-0.094	0.097
-392.092	-0.629	0.147	0.106
-391.077	-112.396	0.208	0.042
-390.063	0.412	0.144	0.104
-389.048	12.722	-0.187	0.146
-388.033	-200.000	-0.010	-0.197
-387.019	800.000	0.002	-0.006
-386.004	-200.000	-0.005	0.172
-384.990	-200.000	0.028	0.382
-383.975	800.000	0.087	-0.327
-382.960	-200.000	0.004	-0.222
-381.946	662.687	0.095	-0.248
-380.931	-63.706	0.262	0.109
-379.917	-47.027	0.255	0.126
-378.902	197.033	0.155	-0.240
-377.888	616.133	-0.064	-0.162
-376.873	-40.064	-0.299	-0.158
-375.858	-200.000	-0.023	-0.550
-374.844	-89.183	-0.198	0.059
-373.829	800.000	-0.046	0.139
-372.815	275.355	-0.168	0.300
-371.800	90.125	-0.036	0.041
-370.785	492.210	-0.205	-0.474
-369.771	800.000	0.035	0.100
-368.756	-29.094	-0.185	0.107
-367.742	494.056	0.105	0.244
-366.727	-200.000	-0.096	0.550
-365.712	64.424	0.200	0.203
-364.698	-114.232	-0.307	0.060
-363.683	800.000	0.068	0.298
-362.669	-200.000	0.016	0.226
-361.654	116.047	-0.134	0.166
-360.639	423.449	-0.108	0.236
-359.625	-18.690	-0.212	-0.134
-358.610	-200.000	-0.001	-0.050
-357.596	-25.319	0.104	0.062
-356.581	69.204	-0.287	-0.298
-355.566	-200.000	0.020	-0.120
-354.552	800.000	-0.120	-0.427
-353.537	-68.245	0.309	0.122
-352.523	-126.779	-0.121	0.018
-351.508	-200.000	0.017	-0.355
-350.493	800.000	0.146	-0.484
-349.479	410.511	-0.019	-0.041
-348.464	198.675	0.017	-0.026
-347.450	-137.815	0.336	0.038
-346.435	-127.770	0.293	0.043
-345.420	-200.000	-0.024	0.209
-344.406	-46.918	0.335	0.166
-343.391	-126.602	-0.344	0.052
-342.377	-200.000	0.024	0.205
-341.362	548.192	0.085	0.205
-340.348	248.857	0.231	-0.396
-339.333	800.000	0.101	0.299
-338.318	-147.230	-0.215	-0.019
-337.304	-61.113	-0.180	-0.077
-336.289	-200.000	-0.029	-0.130
-335.275	375.087	-0.120	-0.247
-334.260	-200.000	0.058	-0.360
-333.245	454.891	0.146	-0.326
-332.231	6.385	-0.410	-0.307
-331.216	-87.576	0.131	-0.040
-330.202	-13.201	0.076	-0.050
-329.187	-200.000	-0.063	-0.320
-328.172	-182.033	0.138	-0.003
-327.158	-96.459	-0.101	-0.027
-326.143	-40.327	-0.306	-0.161
-325.129	-52.177	-0.048	0.022
-324.114	18.291	-0.125	-0.101
-323.099	362.019	-0.109	0.221
-322.085	93.478	-0.210	-0.240
-321.070	-107.145	-0.202	0.045
-320.056	121.969	0.185	0.232
-319.041	-124.896	-0.216	-0.034
-318.026	-200.000	0.020	0.213
-317.012	-100.083	0.274	0.069
-315.997	-108.668	-0.072	0.016
-314.983	-200.000	0.022	-0.175
-313.968	-133.720	-0.221	-0.028
-312.953	35.661	0.065	-0.057
-311.939	281.131	0.132	-0.239
-310.924	-143.020	-0.249	0.024
-309.910	332.543	0.318	0.619
-308.895	-200.000	0.024	-0.188
-307.880	-200.000	-0.081	0.817
-306.866	-1.500	0.249	-0.177
-305.851	800.000	0.050	0.155
-304.837	378.068	0.104	0.215
-303.822	259.869	-0.126	0.220
-302.807	77.723	-0.261	-0.281
-301.793	-58.324	-0.040	0.017
-300.778	17.905	0.071	-0.057
-299.764	-154.824	0.140	-0.009
-298.749	800.000	0.060	-0.242
-297.735	-200.000	0.005	-0.182
-296.720	-2.179	0.114	-0.081
-295.705	-82.592	-0.171	-0.056
-294.691	-61.290	0.353	0.150
-293.676	87.772	0.235	-0.263
-292.662	-86.574	0.327	0.101
-291.647	-49.488	-0.345	0.166
-290.632	-9.381	-0.079	-0.053
-289.618	-36.293	0.030	-0.017
-288.603	707.397	-0.077	-0.206
-287.589	-200.000	-0.013	0.140
-286.574	282.587	0.042	0.076
-285.559	265.892	-0.088	-0.155
-284.545	506.981	-0.156	-0.365
-283.530	-20.929	-0.028	0.017
-282.516	-111.264	-0.375	-0.077
-281.501	243.966	-0.051	-0.086
-280.486	71.326	0.153	0.160
-279.472	-71.941	-0.084	0.031
-278.457	800.000	-0.043	-0.174
-277.443	-82.916	0.155	0.050
-276.428	205.535	0.127	0.198
-275.413	-200.000	0.017	-0.149
-274.399	-33.178	0.092	0.052
-273.384	-200.000	-0.003	-0.109
-272.370	-122.035	0.334	0.055
-271.355	216.249	0.067	0.106
-270.340	-87.427	-0.324	0.099
-269.326	-11.506	-0.241	0.160
-268.311	-58.287	-0.237	0.104
-267.297	-156.606	-0.252	0.016
-266.282	-17.537	0.112	-0.071
-265.267	800.000	0.071	0.229
-264.253	-120.709	-0.264	0.045
-263.238	43.457	0.106	-0.097
-262.224	-21.376	0.308	-0.190
-261.209	49.201	0.055	-0.052
-260.195	-200.000	-0.052	0.231
-259.180	-49.562	0.047	0.023
-258.165	67.240	-0.030	-0.031
-257.151	-47.526	-0.073	0.036
-256.136	4.329	-0.020	-0.014
-255.122	800.000	0.127	-0.474
-254.107	772.504	0.157	-0.431
-253.092	800.000	0.082	-0.331
-252.078	281.364	-0.186	0.334
-251.063	-200.000	0.031	-0.324
-250.049	-116.372	0.229	0.043
-249.034	-200.000	0.033	0.283
-248.019	-67.570	-0.061	-0.024
-247.005	191.198	0.050	-0.076
-245.990	-94.137	-0.086	0.024
-244.976	-156.596	0.207	0.013
-243.961	-200.000	-0.021	-0.419
-242.946	65.725	-0.185	0.189
-241.932	76.953	0.142	-0.152
-240.917	-200.000	0.002	0.029
-239.903	128.460	-0.156	-0.200
-238.888	-117.490	0.275	0.050
-237.873	-200.000	0.031	0.390
-236.859	800.000	-0.011	0.041
-235.844	-200.000	0.019	-0.172
-234.830	-200.000	0.015	-0.194
-233.815	99.065	0.200	0.232
-232.800	800.000	-0.107	0.462
-231.786	-200.000	0.016	-0.083
-230.771	36.266	0.062	-0.055
-229.757	800.000	-0.113	0.319
-228.742	800.000	-0.068	-0.251
-227.727	56.169	-0.122	-0.119
-226.713	-28.556	0.247	-0.143
-225.698	412.518	-0.077	0.165
-224.684	127.664	-0.035	-0.045
-223.669	130.982	0.154	0.199
-222.655	57.984	0.218	0.215
-221.640	-49.501	0.087	0.041
-220.625	-143.096	0.516	0.050
-219.611	-200.000	0.002	-0.080
-218.596	286.881	-0.150	0.272
-217.582	161.424	-0.154	0.217
-216.567	-200.000	-0.007	0.359
-215.552	62.291	-0.223	-0.223
-214.538	-113.331	-0.092	0.018
-213.523	-20.803	0.434	-0.268
-212.509	49.695	-0.031	0.029
-211.494	-78.506	-0.365	0.125
-210.479	-5.951	-0.098	-0.067
-209.465	-31.789	0.133	-0.075
-208.450	403.154	-0.238	0.503
-207.436	-200.000	0.015	-0.146
-206.421	207.306	-0.060	-0.093
-205.406	800.000	-0.127	0.380
-204.392	5.151	0.279	0.206
-203.377	298.755	-0.118	-0.217
-202.363	-174.572	-0.123	-0.004
-201.348	-200.000	0.003	0.265
-200.333	169.840	0.138	0.199
-199.319	-200.000	0.014	0.095
-198.304	800.000	0.134	-0.396
-197.290	-173.007	-0.174	-0.005
-196.275	-44.317	0.141	-0.071
-195.260	42.388	-0.148	0.135
-194.246	-86.475	0.289	-0.089
-193.231	-21.112	-0.108	-0.066
-192.217	-200.000	-0.001	-0.355
-191.202	-54.585	0.076	0.034
-190.187	-59.824	-0.175	-0.075
-189.173	-94.265	0.276	0.076
-188.158	800.000	0.031	-0.131
-187.144	800.000	-0.147	-0.479
-186.129	-52.963	0.398	-0.184
-185.114	-200.000	0.037	0.190
-184.100	34.148	0.385	0.337
-183.085	601.358	-0.108	-0.269
-182.071	133.568	-0.077	-0.100
-181.056	-200.000	0.011	-0.154
-180.042	-200.000	0.040	0.190
-179.027	800.000	-0.055	0.233
-178.012	102.589	-0.076	-0.090
-176.998	265.686	0.103	-0.180
-175.983	-200.000	0.015	-0.230
-174.969	-200.000	-0.025	0.136
-173.954	366.560	0.040	-0.081
-172.939	800.000	0.102	0.360
-171.925	800.000	-0.065	0.276
-170.910	126.842	-0.204	0.259
-169.896	-200.000	-0.009	0.263
-168.881	124.126	-0.164	-0.207
-167.866	-68.820	0.228	-0.088
-166.852	156.542	0.168	0.233
-165.837	-200.000	0.035	0.356
-164.823	-31.161	-0.242	0.137
-163.808	23.728	-0.179	-0.148
-162.793	590.417	-0.214	-0.528
-161.779	7.702	0.096	0.072
-160.764	134.925	0.122	0.160
-159.750	-75.404	0.154	-0.055
-158.735	-200.000	-0.015	0.127
-157.720	78.263	0.134	0.144
-156.706	111.289	0.214	-0.258
-155.691	-84.336	-0.392	-0.124
-154.677	151.892	-0.157	-0.215
-153.662	243.105	0.205	-0.344
-152.647	-109.740	-0.103	0.022
-151.633	-200.000	-0.003	-0.176
-150.618	-148.755	0.290	-0.024
-149.604	-38.975	-0.145	0.077
-148.589	-42.456	0.152	-0.078
-147.574	-26.688	0.167	0.098
-146.560	16.614	-0.160	0.127
-145.545	-143.278	-0.156	0.015
-144.531	-51.073	-0.154	-0.072
-143.516	-40.993	-0.304	0.157
-142.502	-51.878	0.268	-0.125
-141.487	-49.846	0.099	0.047
-140.472	-36.822	-0.099	0.053
-139.458	35.401	0.132	-0.116
-138.443	-126.528	-0.160	0.024
-137.429	734.631	-0.141	0.378
-136.414	22.890	-0.125	0.102
-135.399	800.000	0.093	0.275
-134.385	210.971	-0.082	0.129
-133.370	-200.000	-0.014	-0.062
-132.356	260.969	0.124	0.215
-131.341	-200.000	0.011	0.145
-130.326	65.827	0.091	-0.092
-129.312	-51.283	-0.068	0.032
-128.297	526.087	-0.120	0.283
-127.283	38.331	0.056	-0.050
-126.268	77.437	-0.307	-0.327
-125.253	283.026	0.089	0.160
-124.239	-152.624	0.178	0.013
-123.224	-200.000	0.016	0.154
-122.210	-46.482	-0.302	-0.148
-121.195	-200.000	0.038	0.405
-120.180	252.114	-0.025	0.042
-119.166	-52.061	-0.158	0.073
-118.151	59.950	0.031	0.031
-117.137	-29.502	-0.230	0.132
-116.122	-134.968	-0.319	-0.039
-115.107	-13.896	-0.047	0.030
-114.093	119.350	0.238	-0.294
-113.078	800.000	-0.148	0.461
-112.064	-200.000	0.014	0.338
-111.049	-31.466	0.131	0.074
-110.034	265.215	-0.094	-0.163
-109.020	-65.670	-0.283	-0.114
-108.005	12.251	0.206	-0.159
-106.991	220.307	-0.194	0.311
-105.976	63.555	0.151	-0.152
-104.962	800.000	0.086	-0.262
-103.947	-200.000	-0.011	-0.192
-102.932	-52.949	0.448	0.206
-101.918	-46.360	0.189	0.093
-100.903	800.000	0.010	0.040
-99.889	-200.000	-0.009	-0.159
-98.874	-200.000	-0.003	0.469
-97.859	800.000	-0.035	-0.124
-96.845	207.251	-0.093	0.146
-95.830	111.322	0.050	0.060
-94.816	14.926	0.149	-0.116
-93.801	-97.065	0.172	-0.045
-92.786	-47.527	-0.114	0.055
-91.772	-128.077	0.163	-0.023
-90.757	-200.000	-0.019	0.313
-89.743	-200.000	0.007	0.350
-88.728	-78.683	-0.354	0.121
-87.713	-200.000	0.029	-0.329
-86.699	202.047	0.132	0.204
-85.684	-200.000	-0.042	0.290
-84.670	-32.948	0.321	-0.178
-83.655	-36.041	-0.028	0.015
-82.640	-200.000	-0.068	0.322
-81.626	152.261	-0.342	0.467
-80.611	-8.511	0.242	-0.162
-79.597	152.035	-0.044	0.059
-78.582	310.720	-0.197	0.369
-77.567	-77.890	0.260	-0.090
-76.553	-130.889	0.314	-0.042
-75.538	-200.000	-0.035	-0.159
-74.524	-200.000	0.043	-0.202
-73.509	-52.780	0.120	0.055
-72.494	-147.707	0.143	-0.012
-71.480	482.467	0.022	-0.049
-70.465	153.379	-0.245	-0.334
-69.451	-95.171	-0.017	0.005
-68.436	-40.344	-0.264	0.137
-67.422	467.448	-0.068	0.152
-66.407	-33.737	-0.191	-0.105
-65.392	-200.000	-0.052	0.395
-64.378	75.050	-0.271	0.285
-63.363	-200.000	0.011	0.192
-62.349	476.056	0.133	-0.300
-61.334	66.126	-0.730	-0.740
-60.319	370.572	0.163	0.330
-59.305	800.000	-0.090	-0.295
-58.290	283.830	0.275	0.493
-57.276	539.087	0.708	1.682
-56.261	-200.000	72.718	531.928
-55.246	593.247	1279.722	3157.669
-54.232	146.631	2499.279	3352.819
-53.217	120.544	2238.998	2777.246
-52.203	55.159	1759.659	1698.065
-51.188	47.525	1552.988	1445.610
-50.173	44.573	1522.359	1396.816
-49.159	59.589	1556.757	1532.621
-48.144	66.946	1576.669	1603.054
-47.130	47.747	1540.854	1435.619
-46.115	44.121	1525.853	1396.683
-45.100	43.893	1522.383	1391.889
-44.086	43.862	1520.653	1390.036
-43.071	43.788	1518.757	1387.742
-42.057	43.719	1517.107	1385.706
-41.042	43.807	1515.644	1384.921
-40.027	43.859	1514.065	1383.779
-39.013	43.875	1512.081	1382.017
-37.998	43.802	1511.086	1380.557
-36.984	43.954	1509.390	1379.983
-35.969	43.786	1508.988	1378.418
-34.954	43.825	1507.696	1377.448
-33.940	43.956	1505.773	1376.528
-32.925	43.877	1504.665	1374.927
-31.911	43.893	1502.795	1373.273
-30.896	43.955	1501.266	1372.239
-29.881	43.970	1499.901	1371.038
-28.867	43.908	1498.789	1369.549
-27.852	43.959	1497.453	1368.616
-26.838	43.971	1495.776	1367.112
-25.823	43.930	1494.510	1365.624
-24.809	43.847	1492.548	1363.220
-23.794	43.846	1491.324	1362.040
-22.779	43.868	1490.060	1360.977
-21.765	43.875	1489.274	1360.249
-20.750	43.936	1487.428	1358.924
-19.736	43.927	1486.429	1357.895
-18.721	43.908	1485.254	1356.643
-17.706	43.896	1484.091	1355.446
-16.692	43.783	1483.088	1353.721
-15.677	43.739	1482.325	1352.676
-14.663	43.768	1480.960	1351.572
-13.648	43.770	1480.020	1350.673
-12.633	43.785	1479.035	1349.816
-11.619	43.814	1478.666	1349.621
-10.604	43.779	1477.402	1348.180
-9.590	43.901	1476.007	1347.667
-8.575	43.834	1475.667	1346.853
-7.560	43.822	1475.100	1346.205
-6.546	43.863	1473.833	1345.271
-5.531	43.851	1472.865	1344.254
-4.517	43.730	1471.930	1342.543
-3.502	43.858	1470.841	1342.345
-2.487	43.898	1469.918	1341.717
-1.473	43.724	1469.188	1339.843
-0.458	43.770	1467.712	1338.746
0.556	43.160	1457.945	1327.394
1.571	39.910	1428.674	1279.618
2.586	35.515	1365.397	1195.550
3.600	33.289	1281.381	1108.859
4.615	31.177	1233.285	1055.218
5.629	26.012	1174.668	977.078
6.644	13.261	1082.215	836.024
7.659	3.012	1033.500	748.608
8.673	1.363	1027.299	736.060
9.688	1.295	1024.023	733.321
10.702	1.015	1023.220	731.327
11.717	1.068	1020.997	729.930
12.731	4.936	1025.914	752.073
13.746	15.870	1041.760	816.950
14.761	23.255	1050.759	859.944
15.775	23.881	1050.318	862.548
16.790	23.878	1049.887	862.104
17.804	23.796	1048.551	860.532
18.819	23.557	1047.766	858.655
19.834	23.593	1047.572	858.595
20.848	23.753	1046.805	858.661
21.863	23.624	1047.078	858.188
22.877	23.645	1046.564	857.790
23.892	23.657	1045.551	856.944
24.907	23.583	1044.998	856.056
25.921	23.708	1044.054	855.808
26.936	23.688	1043.074	854.835
27.950	23.716	1042.165	854.150
28.965	23.539	1041.193	852.424
29.980	23.465	1039.486	850.599
30.994	23.459	1038.211	849.453
32.009	23.581	1037.601	849.462
33.023	23.757	1036.972	849.713
34.038	23.544	1036.179	847.968
35.053	23.511	1035.031	846.800
36.067	23.695	1034.387	847.074
37.082	23.594	1033.745	845.992
38.096	23.685	1033.190	845.896
39.111	23.863	1032.592	846.181
40.126	23.882	1031.503	845.302
41.140	23.891	1030.112	844.130
42.155	23.544	1029.142	841.616
43.169	23.232	1027.712	838.894
44.184	23.207	1026.684	837.861
45.199	23.252	1025.798	837.279
46.213	23.304	1024.644	836.508
47.228	23.204	1024.268	835.655
48.242	23.341	1023.594	835.676
49.257	23.561	1022.281	835.564
50.271	23.476	1022.311	835.119
51.286	23.617	1021.437	834.992
52.301	23.704	1020.593	834.635
53.315	23.641	1020.000	833.781
54.330	23.755	1018.886	833.335
55.344	23.660	1018.205	832.254
56.359	23.667	1017.036	831.258
57.374	23.709	1016.242	830.732
58.388	23.532	1015.535	829.257
59.403	23.441	1015.024	828.340
60.417	23.520	1014.058	827.846
61.432	23.483	1012.873	826.632
62.447	23.303	1012.152	825.132
63.461	23.376	1012.228	825.461
64.476	23.378	1011.331	824.669
65.490	23.405	1010.419	823.975
66.505	23.301	1009.530	822.697
67.520	23.322	1008.662	822.012
68.534	23.386	1008.205	821.864
69.549	23.348	1006.759	820.437
70.563	23.049	1005.524	817.975
71.578	22.884	1005.076	816.774
72.593	22.974	1004.150	816.366
73.607	22.806	1003.335	814.854
74.622	22.884	1001.596	813.732
75.636	23.151	1001.012	814.415
76.651	23.218	1000.748	814.435
77.666	23.235	999.730	813.613
78.680	22.956	999.145	811.782
79.695	23.054	998.599	811.718
80.709	23.231	997.872	811.868
81.724	23.293	997.234	811.561
82.739	23.283	996.200	810.601
83.753	23.175	995.650	809.586
84.768	23.557	994.867	810.625
85.782	23.755	994.400	811.075
86.797	24.008	993.876	811.733
87.812	24.037	992.504	810.670
88.826	23.746	991.726	808.641
89.841	23.710	991.541	808.253
90.855	23.904	990.420	808.152
91.870	23.943	989.243	807.297
92.884	23.981	988.551	806.832
93.899	23.826	987.790	805.435
94.914	23.624	986.978	803.786
95.928	23.789	986.117	803.762
96.943	23.793	985.614	803.300
97.957	23.550	984.314	801.072
98.972	23.228	983.576	798.947
99.987	23.191	982.125	797.529
101.001	23.101	981.891	796.865
102.016	23.608	981.247	798.554
103.030	23.674	979.865	797.658
104.045	23.540	978.866	796.170
105.060	23.364	977.842	794.478
106.074	23.326	976.666	793.283
107.089	23.267	975.960	792.373
108.103	23.605	975.512	793.450
109.118	23.696	974.556	793.008
110.133	23.491	973.694	791.322
111.147	23.228	972.928	789.460
112.162	23.235	971.411	788.188
113.176	22.977	970.726	786.416
114.191	23.175	969.787	786.468
115.206	23.243	969.155	786.184
116.220	23.030	968.022	784.253
117.235	22.939	966.723	782.726
118.249	23.030	966.513	782.890
119.264	23.044	965.662	782.194
120.279	23.038	964.372	781.055
121.293	22.973	963.696	780.152
122.308	23.040	963.091	779.886
123.322	23.127	962.556	779.769
124.337	23.001	961.553	778.330
125.352	22.856	960.574	776.834
126.366	22.645	958.331	774.025
127.381	22.233	957.305	771.320
128.395	22.774	957.254	773.581
129.410	23.363	957.134	775.998
130.424	23.517	956.199	775.843
131.439	23.546	955.051	774.973
132.454	23.406	954.121	773.538
133.468	23.559	953.331	773.494
134.483	23.448	952.558	772.318
135.497	23.526	951.794	771.969
136.512	23.783	950.866	772.264
137.527	23.897	950.483	772.378
138.541	23.835	949.849	771.529
139.556	23.707	949.403	770.539
140.570	23.723	948.406	769.733
141.585	23.982	947.291	769.883
142.600	23.973	946.567	769.185
143.614	23.880	945.620	767.947
144.629	23.910	945.066	767.560
145.643	23.967	944.790	767.511
146.658	24.000	943.544	766.574
147.673	23.885	941.944	764.713
148.687	23.679	940.834	762.860
149.702	23.747	939.899	762.323
150.716	23.509	938.971	760.486
151.731	23.448	937.939	759.319
152.746	23.582	937.038	759.096
153.760	23.699	937.013	759.509
154.775	23.832	935.888	759.097
155.789	23.982	934.880	758.855
156.804	23.910	934.112	757.856
157.819	23.890	932.531	756.421
158.833	23.852	932.488	756.157
159.848	23.871	931.810	755.624
160.862	24.027	930.774	755.376
161.877	23.876	930.000	754.041
162.892	23.736	929.108	752.659
163.906	23.812	928.366	752.315
164.921	23.767	927.290	751.183
165.935	23.819	926.306	750.540
166.950	23.886	925.291	749.935
167.964	23.830	924.493	748.984
168.979	23.738	923.495	747.723
169.994	23.929	921.702	747.008
171.008	23.716	921.123	745.578
172.023	23.907	920.287	745.636
173.037	23.930	919.909	745.361
174.052	23.816	918.665	743.808
175.067	23.616	917.506	741.970
176.081	23.603	916.710	741.203
177.096	23.653	916.115	740.865
178.110	23.723	915.115	740.284
179.125	23.481	914.717	738.888
180.140	23.202	913.615	736.774
181.154	23.330	912.605	736.426
182.169	23.433	911.986	736.288
183.183	23.460	912.161	736.478
184.198	23.902	911.776	737.935
185.213	23.920	910.751	737.116
186.227	23.906	910.059	736.433
187.242	23.823	910.128	736.078
188.256	23.873	908.990	735.300
189.271	23.970	908.108	734.923
190.286	23.954	907.379	734.203
191.300	23.882	906.725	733.308
192.315	23.265	905.307	729.555
193.329	22.573	903.709	725.358
194.344	22.230	902.773	723.133
195.359	22.695	903.377	725.464
196.373	23.556	903.126	728.736
197.388	23.863	902.941	729.782
198.402	23.745	902.186	728.625
199.417	23.665	902.095	728.158
200.432	23.772	901.181	727.796
201.446	23.760	900.449	727.091
202.461	23.310	899.806	724.665
203.475	23.409	899.206	724.525
204.490	23.074	898.014	722.130
205.504	21.939	895.563	715.470
206.519	22.130	895.582	716.204
207.534	23.177	895.922	720.676
208.548	23.466	895.348	721.327
209.563	23.769	895.235	722.407
210.577	23.679	894.965	721.759
211.592	23.486	893.787	719.959
212.607	23.755	893.936	721.108
213.621	23.941	893.010	721.053
214.636	23.936	892.432	720.502
215.650	23.981	891.962	720.239
216.665	23.899	891.564	719.524
217.680	23.961	890.982	719.241
218.694	24.152	890.121	719.253
219.709	23.746	889.405	716.971
220.723	23.229	888.767	714.308
221.738	23.539	888.160	715.007
222.753	23.740	887.710	715.392
223.767	23.581	887.075	714.175
224.782	23.765	886.123	714.085
225.796	23.936	885.596	714.286
226.811	24.011	885.380	714.351
227.826	23.689	884.001	711.884
228.840	22.845	882.345	707.106
229.855	22.763	881.812	706.288
230.869	23.010	881.667	707.101
231.884	22.818	880.315	705.184
232.899	22.707	880.010	704.437
233.913	23.515	880.079	707.654
234.928	23.742	879.834	708.299
235.942	23.565	879.270	707.077
236.957	23.701	878.174	706.677
237.972	23.410	877.263	704.723
238.986	23.267	876.612	703.568
240.001	23.430	876.374	703.963
241.015	23.500	875.171	703.212
242.030	23.453	875.068	702.880
243.045	23.671	874.347	703.102
244.059	23.664	874.045	702.770
245.074	23.743	873.582	702.648
246.088	23.870	872.748	702.415
247.103	23.578	871.579	700.262
248.117	23.544	871.248	699.800
249.132	23.919	871.099	701.097
250.147	24.275	871.350	702.640
251.161	24.387	870.791	702.568
252.176	24.632	870.223	703.011
253.190	24.608	869.496	702.267
254.205	24.654	869.108	702.074
255.220	24.764	868.749	702.154
256.234	24.732	868.148	701.479
257.249	24.744	867.483	700.927
258.263	24.628	866.725	699.798
259.278	24.461	866.073	698.558
260.293	24.621	865.922	698.997
261.307	24.698	865.412	698.829
262.322	24.551	864.698	697.614
263.336	24.522	863.899	696.794
264.351	24.183	862.342	694.157
265.366	22.981	860.793	688.172
266.380	22.391	859.785	685.011
267.395	23.383	859.895	688.896
268.409	24.215	860.050	692.192
269.424	24.123	859.477	691.310
270.439	24.351	858.910	691.677
271.453	24.374	858.664	691.506
272.468	24.460	857.890	691.156
273.482	24.632	857.351	691.327
274.497	24.658	857.469	691.460
275.512	24.542	856.176	689.910
276.526	23.971	854.657	686.421
277.541	24.085	854.371	686.571
278.555	24.442	854.379	687.892
279.570	24.355	853.199	686.548
280.585	24.187	852.702	685.441
281.599	24.167	852.683	685.288
282.614	24.440	852.073	685.785
283.628	23.978	850.975	683.069
284.643	23.450	850.346	680.476
285.657	24.044	850.084	682.487
286.672	23.877	848.908	680.841
287.687	23.328	848.195	678.108
288.701	23.721	848.174	679.537
289.716	24.158	847.965	680.979
290.730	23.939	846.862	679.197
291.745	23.741	845.829	677.552
292.760	23.511	845.447	676.308
293.774	23.487	844.669	675.536
294.789	24.170	845.719	678.920
295.803	24.782	845.899	681.334
296.818	25.039	844.815	681.381
297.833	25.090	844.434	681.207
298.847	24.929	843.255	679.585
299.862	24.577	842.061	677.228
300.876	24.644	841.884	677.281
301.891	24.874	841.764	677.993
302.906	25.155	840.740	678.172
303.920	24.637	839.795	675.393
304.935	24.478	838.913	674.025
305.949	24.907	838.689	675.402
306.964	25.033	838.494	675.662
307.979	24.806	837.496	673.942
308.993	24.722	837.298	673.406
310.008	24.863	837.481	674.023
311.022	25.056	837.061	674.354
312.037	24.864	836.041	672.749
313.052	24.749	835.471	671.800
314.066	24.618	834.790	670.703
315.081	24.146	833.110	667.525
316.095	23.244	832.100	663.280
317.110	23.660	832.184	664.846
318.125	24.621	832.382	668.542
319.139	24.156	831.499	666.036
320.154	23.166	829.738	660.868
321.168	22.670	828.912	658.304
322.183	23.359	828.809	660.733
323.197	24.046	829.515	663.800
324.212	24.462	829.053	664.921
325.227	24.604	828.659	665.076
326.241	24.773	828.151	665.239
327.256	24.656	827.513	664.234
328.270	24.573	827.223	663.632
329.285	24.542	826.130	662.581
330.300	24.420	825.588	661.634
331.314	24.196	824.607	659.960
332.329	24.241	824.034	659.612
333.343	24.599	823.880	660.753
334.358	24.727	823.733	661.052
335.373	24.979	822.925	661.272
336.387	25.018	822.516	661.029
337.402	24.992	822.472	660.843
338.416	25.272	821.790	661.265
339.431	25.212	821.255	660.556
340.446	25.232	820.765	660.179
341.460	25.306	820.688	660.329
342.475	25.464	819.973	660.278
343.489	25.220	818.914	658.469
344.504	25.232	818.280	657.944
345.519	25.516	818.377	659.007
346.533	25.545	818.162	658.881
347.548	25.849	817.774	659.624
348.562	25.704	817.283	658.639
349.577	25.681	816.329	657.727
350.592	25.690	815.767	657.249
351.606	25.575	815.461	656.525
352.621	25.634	814.897	656.227
353.635	25.609	814.347	655.636
354.650	25.388	814.111	654.583
355.665	25.094	813.078	652.625
356.679	24.133	811.394	647.721
357.694	23.851	811.034	646.353
358.708	24.592	810.807	648.807
359.723	24.519	810.465	648.210
360.738	24.625	810.061	648.213
361.752	25.135	809.944	649.913
362.767	25.349	809.644	650.391
363.781	25.494	809.541	650.774
364.796	25.818	809.012	651.462
365.810	25.890	808.988	651.647
366.825	25.904	808.405	651.171
367.840	25.942	808.258	651.130
368.854	25.818	807.460	649.984
369.869	25.512	806.871	648.347
370.883	25.358	805.748	646.833
371.898	25.283	805.223	646.083
372.913	25.333	804.487	645.619
373.927	25.362	803.935	645.220
374.942	25.370	803.611	644.933
375.956	25.593	803.039	645.217
376.971	25.694	802.606	645.173
377.986	25.658	802.263	644.713
379.000	25.860	801.965	645.137
380.015	25.993	801.298	645.020
381.029	25.893	800.291	643.796
382.044	25.733	800.145	643.049
383.059	26.034	799.494	643.543
384.073	26.065	798.581	642.862
385.088	25.943	798.290	642.136
386.102	25.828	798.240	641.629
387.117	25.822	797.412	640.885
388.132	25.673	796.468	639.542
389.146	25.535	796.075	638.680
390.161	25.073	794.902	636.044
391.175	24.871	795.129	635.451
392.190	25.465	795.190	637.552
393.205	25.597	794.340	637.280
394.219	24.658	792.773	632.646
395.234	23.108	790.607	625.388
396.248	22.282	789.261	621.348
397.263	23.275	789.905	625.309
398.278	24.875	791.685	632.319
399.292	25.759	791.189	634.986
400.307	25.214	790.977	632.839
401.321	25.358	790.112	632.598
402.336	25.329	789.898	632.268
403.350	25.587	789.986	633.191
404.365	26.037	789.358	634.216
405.380	26.419	789.507	635.623
406.394	26.619	789.387	636.170
407.409	26.752	788.757	636.075
408.423	26.733	788.370	635.641
409.438	26.628	787.710	634.682
410.453	26.532	787.673	634.261
411.467	26.645	787.225	634.240
412.482	26.704	786.590	633.880
413.496	26.484	786.243	632.772
414.511	26.493	785.923	632.492
415.526	26.804	785.196	632.935
416.540	26.600	785.137	632.119
417.555	26.748	784.212	631.837
418.569	26.254	783.902	629.808
419.584	26.249	783.345	629.286
420.599	26.249	783.038	628.984
421.613	84.559	1239.810	1304.690
422.628	71.604	1306.416	1304.839
