DTS Sentinel unit serial number:	SN413079Multiplexer serial number:	ORYXHardware model number:	OX4-SRSoftware version number:	ORYX F/W v4.00 Oryx Data Collector v3.7.2.0data status	okinstallation	princeton_trtdifferential loss correction	single-endedforward channel	channel 3reverse channel	N/Adate	2019/09/11time	03:38:10forward acquisition time	60.00reverse acquisition time	0.00gamma	496.2192k internal	0.2330k external	0.2330temperature offset calibration	0.9913default loss term (dB/km)	0.3790temperature slope calibration	1.0000multiplexer offset coefficient	1.0000multiplexer slope coefficient	1.0000fibre end	0.00T internal ref (°C)	29.50T ext. ref 1 (°C)	-0.28T ext. ref 2 (°C)	23.91length (m)	temperature (°C)	Stokes	anti-Stokes-747.200	187.305	0.113	-0.170
-746.185	-152.792	-0.187	0.013
-745.171	-90.917	0.138	0.040
-744.156	-200.000	-0.006	0.087
-743.142	-200.000	-0.007	0.100
-742.127	-19.491	-0.180	0.112
-741.112	-133.793	-0.044	-0.006
-740.098	32.508	-0.128	0.111
-739.083	800.000	0.069	0.301
-738.069	-200.000	0.013	0.146
-737.054	800.000	-0.056	0.182
-736.039	-104.448	-0.212	0.049
-735.025	-28.408	0.544	0.316
-734.010	-195.543	-0.107	0.001
-732.996	41.486	0.168	-0.153
-731.981	4.158	0.065	0.048
-730.966	-79.637	-0.302	-0.103
-729.952	-8.454	0.074	0.050
-728.937	25.508	0.337	0.282
-727.923	-121.300	-0.307	-0.052
-726.908	-57.304	0.072	0.032
-725.894	-88.091	0.251	0.076
-724.879	251.927	-0.076	-0.129
-723.864	141.433	-0.232	-0.308
-722.850	-171.957	-0.055	-0.002
-721.835	-200.000	0.010	0.054
-720.821	11.051	0.077	0.059
-719.806	27.461	-0.232	-0.196
-718.791	-135.305	-0.244	-0.029
-717.777	-52.098	-0.160	-0.075
-716.762	189.472	0.107	0.161
-715.748	-200.000	0.025	-0.244
-714.733	-173.776	0.065	-0.002
-713.718	-79.900	0.148	-0.050
-712.704	163.087	0.139	-0.197
-711.689	800.000	0.014	0.049
-710.675	800.000	0.072	-0.283
-709.660	-116.149	0.237	-0.044
-708.645	-200.000	0.043	-0.271
-707.631	-200.000	0.022	0.339
-706.616	-40.598	-0.103	0.054
-705.602	-13.532	-0.263	0.171
-704.587	-200.000	0.013	0.192
-703.572	800.000	0.096	-0.313
-702.558	-151.884	0.094	0.007
-701.543	20.909	0.145	-0.118
-700.529	493.437	-0.093	-0.215
-699.514	14.559	0.122	-0.095
-698.499	800.000	0.055	0.172
-697.485	800.000	-0.031	0.096
-696.470	-200.000	-0.006	-0.235
-695.456	-13.299	-0.238	0.155
-694.441	800.000	0.140	-0.562
-693.426	-166.744	0.222	0.009
-692.412	-200.000	0.005	-0.319
-691.397	231.000	0.154	0.253
-690.383	-119.375	0.255	0.045
-689.368	18.782	-0.107	0.086
-688.354	-55.146	-0.192	-0.087
-687.339	800.000	-0.008	-0.025
-686.324	-103.148	-0.341	-0.081
-685.310	-200.000	0.003	-0.059
-684.295	288.340	-0.081	-0.147
-683.281	800.000	-0.044	-0.155
-682.266	-30.408	-0.446	0.254
-681.251	-145.727	-0.153	-0.014
-680.237	55.716	0.245	0.239
-679.222	-107.797	-0.223	0.049
-678.208	-200.000	-0.049	-0.298
-677.193	215.890	-0.079	0.126
-676.178	-64.180	0.134	-0.055
-675.164	-69.187	-0.060	-0.023
-674.149	123.995	-0.259	0.326
-673.135	368.121	-0.045	0.091
-672.120	67.429	0.274	0.281
-671.105	-148.499	0.331	0.027
-670.091	-110.032	-0.195	0.041
-669.076	-200.000	-0.006	0.107
-668.062	800.000	0.148	0.462
-667.047	-17.716	0.211	-0.133
-666.032	-122.545	-0.169	0.028
-665.018	-188.236	-0.136	-0.002
-664.003	300.631	0.045	-0.084
-662.989	-168.609	-0.056	0.002
-661.974	-122.756	-0.155	-0.025
-660.959	-32.904	-0.256	-0.142
-659.945	616.756	-0.047	0.119
-658.930	115.417	-0.195	0.239
-657.916	51.620	0.175	0.167
-656.901	-17.721	0.171	0.108
-655.886	-200.000	-0.006	-0.246
-654.872	129.292	0.191	0.244
-653.857	376.134	0.178	0.364
-652.843	800.000	-0.046	-0.135
-651.828	63.587	0.355	0.357
-650.814	218.216	-0.077	0.123
-649.799	-107.609	-0.166	0.036
-648.784	50.313	-0.031	-0.030
-647.770	800.000	0.093	0.353
-646.755	800.000	0.092	0.319
-645.741	54.547	-0.246	-0.238
-644.726	-120.792	0.391	-0.066
-643.711	-9.674	0.226	-0.151
-642.697	-37.699	-0.156	-0.083
-641.682	-125.460	-0.140	-0.021
-640.668	-94.089	-0.184	-0.051
-639.653	-111.794	-0.170	0.035
-638.638	354.684	0.058	-0.116
-637.624	375.462	0.105	0.215
-636.609	-8.443	-0.181	0.122
-635.595	74.705	0.186	-0.197
-634.580	800.000	0.086	0.254
-633.565	800.000	-0.023	0.082
-632.551	-200.000	-0.110	-0.589
-631.536	-0.360	0.033	-0.023
-630.522	601.346	0.130	-0.324
-629.507	351.366	0.142	-0.281
-628.492	-173.431	0.383	0.012
-627.478	-87.206	0.073	0.022
-626.463	-169.521	-0.206	-0.008
-625.449	-10.132	-0.254	-0.169
-624.434	-81.335	-0.464	0.153
-623.419	198.886	-0.072	0.111
-622.405	309.905	0.060	0.113
-621.390	61.716	-0.264	-0.264
-620.376	-146.807	-0.245	-0.021
-619.361	292.744	-0.082	0.149
-618.346	800.000	0.050	0.139
-617.332	66.407	0.098	-0.100
-616.317	113.103	-0.093	-0.113
-615.303	-113.710	-0.250	0.049
-614.288	-74.923	0.161	0.058
-613.273	-89.104	-0.178	-0.053
-612.259	-200.000	0.014	0.261
-611.244	69.974	-0.243	-0.251
-610.230	-17.161	0.162	-0.103
-609.215	-0.498	-0.253	0.180
-608.201	67.338	-0.237	0.242
-607.186	128.775	0.106	0.135
-606.171	-114.880	0.321	0.061
-605.157	-200.000	-0.007	0.167
-604.142	-17.401	-0.256	0.161
-603.128	721.804	0.091	-0.242
-602.113	-200.000	0.020	-0.216
-601.098	-187.907	-0.093	-0.001
-600.084	208.685	0.130	0.204
-599.069	-200.000	-0.010	0.058
-598.055	-23.823	-0.086	0.052
-597.040	-129.631	-0.136	0.019
-596.025	-61.513	-0.190	-0.080
-595.011	56.747	-0.113	-0.110
-593.996	334.855	0.095	0.184
-592.982	-200.000	0.031	-0.139
-591.967	119.867	0.151	-0.187
-590.952	276.480	0.045	0.079
-589.938	-200.000	-0.004	0.063
-588.923	190.660	0.064	-0.096
-587.909	-22.687	-0.156	-0.095
-586.894	18.659	0.232	-0.186
-585.879	-57.368	-0.070	0.031
-584.865	-200.000	0.049	-0.252
-583.850	-200.000	-0.030	0.134
-582.836	45.932	-0.147	0.136
-581.821	19.921	0.280	-0.226
-580.806	-17.623	0.092	0.058
-579.792	-7.437	-0.247	-0.167
-578.777	135.904	-0.171	-0.222
-577.763	9.974	0.337	0.256
-576.748	72.799	-0.250	-0.261
-575.733	800.000	0.100	-0.299
-574.719	-70.269	-0.167	-0.063
-573.704	143.331	0.175	0.233
-572.690	-99.094	0.461	0.117
-571.675	-92.355	0.450	-0.127
-570.661	-200.000	-0.025	0.128
-569.646	-200.000	-0.001	-0.140
-568.631	-200.000	-0.042	-0.475
-567.617	15.554	0.090	-0.071
-566.602	-200.000	-0.049	0.331
-565.588	-86.053	0.178	-0.055
-564.573	-200.000	0.024	0.183
-563.558	-105.016	0.154	-0.035
-562.544	-200.000	0.069	0.425
-561.529	-200.000	0.034	-0.244
-560.515	76.483	-0.089	-0.094
-559.500	-87.825	0.274	-0.082
-558.485	-200.000	-0.054	-0.340
-557.471	-90.861	0.084	-0.024
-556.456	-60.424	0.053	0.023
-555.442	184.234	-0.036	-0.053
-554.427	237.359	0.203	-0.336
-553.412	-81.984	-0.283	-0.092
-552.398	-200.000	0.014	-0.387
-551.383	75.270	-0.372	-0.392
-550.369	800.000	-0.088	0.377
-549.354	-67.199	-0.234	0.092
-548.339	52.818	0.071	0.068
-547.325	800.000	0.068	-0.216
-546.310	-41.333	0.162	-0.083
-545.296	356.391	-0.121	0.241
-544.281	-42.966	0.273	0.138
-543.266	215.543	-0.195	-0.308
-542.252	27.901	0.365	-0.307
-541.237	-200.000	-0.028	-0.312
-540.223	-42.924	0.215	0.109
-539.208	455.320	-0.115	0.254
-538.193	-200.000	-0.025	0.356
-537.179	-107.686	-0.412	0.090
-536.164	-127.579	-0.175	-0.025
-535.150	-99.739	0.422	0.106
-534.135	-78.089	-0.271	-0.093
-533.121	120.051	-0.092	0.114
-532.106	490.770	-0.055	0.127
-531.091	351.025	-0.029	-0.058
-530.077	768.928	-0.083	-0.226
-529.062	-200.000	0.020	0.146
-528.048	-82.315	-0.215	-0.070
-527.033	-113.422	-0.134	-0.026
-526.018	-45.481	-0.101	-0.050
-525.004	-200.000	0.015	0.170
-523.989	-47.186	0.241	-0.117
-522.975	137.499	-0.184	-0.240
-521.960	-83.210	-0.056	-0.018
-520.945	-110.429	0.207	-0.043
-519.931	-32.471	0.322	0.179
-518.916	-200.000	0.022	-0.114
-517.902	389.884	0.209	-0.432
-516.887	-189.376	-0.105	0.001
-515.872	-113.704	0.274	0.053
-514.858	-3.789	0.278	-0.192
-513.843	-2.598	-0.128	-0.089
-512.829	800.000	-0.016	0.046
-511.814	-90.214	0.240	-0.070
-510.799	247.459	-0.046	0.077
-509.785	-113.870	-0.091	-0.018
-508.770	-72.119	0.461	0.171
-507.756	12.428	-0.105	-0.081
-506.741	-86.920	0.087	-0.026
-505.726	-148.534	-0.211	-0.017
-504.712	-200.000	0.030	-0.248
-503.697	-46.770	-0.338	-0.165
-502.683	800.000	0.014	-0.061
-501.668	-58.214	-0.262	0.114
-500.653	18.781	0.098	-0.078
-499.639	549.598	0.053	0.127
-498.624	-20.664	0.320	0.196
-497.610	-94.016	-0.337	0.092
-496.595	800.000	-0.072	0.210
-495.581	145.557	0.221	-0.295
-494.566	-101.728	0.195	0.047
-493.551	-200.000	-0.029	0.508
-492.537	699.229	0.083	-0.217
-491.522	-35.206	-0.347	-0.188
-490.508	-124.268	-0.155	0.024
-489.493	-200.000	0.017	-0.595
-488.478	-200.000	0.031	-0.154
-487.464	-81.361	0.140	-0.046
-486.449	800.000	0.019	0.062
-485.435	38.912	0.079	0.070
-484.420	-200.000	-0.008	-0.337
-483.405	25.177	-0.107	0.089
-482.391	-55.213	0.069	0.031
-481.376	-200.000	0.012	0.165
-480.362	800.000	0.027	0.110
-479.347	-189.631	-0.468	-0.005
-478.332	800.000	-0.101	-0.324
-477.318	303.139	-0.079	0.146
-476.303	-139.822	-0.324	-0.034
-475.289	127.833	0.094	-0.119
-474.274	-17.858	0.114	0.071
-473.259	-2.703	0.064	0.044
-472.245	-7.250	0.101	0.068
-471.230	-200.000	-0.049	-0.258
-470.216	109.618	-0.145	-0.173
-469.201	-200.000	0.016	-0.203
-468.186	176.124	0.154	0.223
-467.172	483.535	0.052	0.117
-466.157	-184.444	-0.308	-0.005
-465.143	-200.000	0.037	0.306
-464.128	-33.990	0.185	-0.101
-463.113	-200.000	-0.079	0.383
-462.099	-114.065	-0.001	0.000
-461.084	-85.005	0.226	0.070
-460.070	718.891	0.046	0.122
-459.055	253.989	0.001	0.002
-458.040	-106.224	-0.391	-0.087
-457.026	261.078	-0.029	-0.050
-456.011	-82.765	0.039	-0.013
-454.997	101.933	0.119	0.138
-453.982	-0.827	-0.237	-0.167
-452.968	223.843	-0.114	-0.183
-451.953	630.367	-0.053	0.132
-450.938	149.909	0.342	-0.461
-449.924	44.506	0.055	-0.050
-448.909	-143.270	0.252	-0.024
-447.895	-86.046	-0.160	-0.049
-446.880	-200.000	-0.016	0.201
-445.865	800.000	0.078	0.222
-444.851	-15.464	-0.146	-0.093
-443.836	-31.618	0.157	-0.088
-442.822	217.173	0.116	0.183
-441.807	-200.000	0.010	0.168
-440.792	-200.000	-0.012	-0.159
-439.778	-200.000	-0.005	0.571
-438.763	-200.000	0.032	0.346
-437.749	-80.199	-0.247	-0.082
-436.734	-200.000	0.005	0.178
-435.719	168.536	0.123	0.175
-434.705	-200.000	-0.011	0.427
-433.690	-200.000	0.020	-0.452
-432.676	599.140	-0.036	-0.090
-431.661	-111.138	0.113	-0.023
-430.646	32.539	0.306	-0.263
-429.632	152.227	-0.083	0.113
-428.617	-68.835	0.187	-0.072
-427.603	147.519	0.191	0.256
-426.588	41.859	0.180	0.162
-425.573	34.076	0.175	0.152
-424.559	526.360	-0.206	0.482
-423.544	800.000	-0.018	0.078
-422.530	-30.901	0.051	0.029
-421.515	557.796	-0.050	0.120
-420.500	-200.000	0.013	-0.116
-419.486	-135.627	-0.099	-0.012
-418.471	-200.000	-0.043	0.371
-417.457	-200.000	0.003	-0.057
-416.442	-141.400	-0.166	0.017
-415.428	-200.000	-0.007	-0.037
-414.413	131.773	-0.109	0.139
-413.398	-164.320	-0.256	-0.012
-412.384	98.870	-0.097	-0.112
-411.369	21.974	-0.099	0.080
-410.355	800.000	-0.053	-0.194
-409.340	118.877	0.218	-0.267
-408.325	7.544	0.103	-0.077
-407.311	-200.000	-0.017	0.101
-406.296	279.666	-0.166	-0.295
-405.282	427.146	-0.051	0.108
-404.267	27.086	0.217	-0.181
-403.252	-200.000	-0.012	0.097
-402.238	-200.000	0.029	0.214
-401.223	-200.000	0.034	-0.167
-400.209	800.000	-0.025	0.102
-399.194	-200.000	-0.037	0.166
-398.179	137.878	-0.133	0.173
-397.165	-156.286	0.265	0.017
-396.150	-200.000	-0.044	0.258
-395.136	-85.291	0.213	-0.066
-394.121	332.034	0.049	0.094
-393.106	95.837	0.081	0.092
-392.092	-200.000	0.007	0.145
-391.077	-79.220	0.519	0.175
-390.063	-53.720	-0.336	-0.152
-389.048	-81.575	0.092	-0.030
-388.033	800.000	-0.162	-0.462
-387.019	-70.279	0.217	-0.082
-386.004	-59.839	0.126	-0.054
-384.990	6.855	-0.343	-0.254
-383.975	-77.161	-0.221	0.076
-382.960	290.369	0.065	-0.118
-381.946	-105.244	-0.434	-0.098
-380.931	606.164	-0.140	0.345
-379.917	284.382	0.093	0.165
-378.902	-11.060	-0.214	0.140
-377.888	800.000	-0.042	0.141
-376.873	18.361	-0.134	-0.106
-375.858	800.000	-0.026	0.105
-374.844	514.141	-0.079	0.183
-373.829	800.000	-0.046	0.183
-372.815	-200.000	-0.032	-0.205
-371.800	-200.000	-0.018	0.096
-370.785	114.557	-0.033	-0.040
-369.771	-141.990	-0.236	-0.023
-368.756	-73.020	-0.224	0.082
-367.742	-200.000	-0.030	0.202
-366.727	14.573	-0.088	0.069
-365.712	72.443	-0.172	-0.178
-364.698	284.015	-0.093	-0.166
-363.683	-200.000	0.005	0.433
-362.669	51.147	-0.197	0.185
-361.654	-70.687	0.124	-0.046
-360.639	-124.349	-0.175	0.027
-359.625	-122.053	0.085	-0.014
-358.610	-200.000	0.011	-0.236
-357.596	-118.825	0.217	-0.038
-356.581	-52.096	-0.034	0.016
-355.566	-115.029	-0.359	0.068
-354.552	-34.854	0.333	0.181
-353.537	246.965	-0.090	-0.151
-352.523	-15.243	-0.063	-0.040
-351.508	77.221	-0.147	-0.155
-350.493	-200.000	-0.020	0.204
-349.479	784.726	0.042	-0.115
-348.464	-200.000	-0.028	-0.159
-347.450	-200.000	0.045	0.210
-346.435	800.000	-0.032	0.096
-345.420	-84.772	0.372	-0.116
-344.406	-200.000	0.040	0.210
-343.391	-121.471	-0.300	0.050
-342.377	-72.934	0.105	0.038
-341.362	-53.496	-0.034	0.015
-340.348	23.553	0.121	-0.099
-339.333	128.778	-0.188	-0.238
-338.318	-200.000	0.002	0.231
-337.304	-39.843	0.078	0.040
-336.289	412.560	-0.086	0.180
-335.275	219.483	0.080	0.126
-334.260	104.484	0.158	0.184
-333.245	-200.000	-0.010	-0.098
-332.231	800.000	0.061	0.229
-331.216	-152.442	-0.391	0.028
-330.202	-200.000	-0.014	0.100
-329.187	-130.670	0.374	-0.050
-328.172	76.742	-0.280	-0.294
-327.158	-109.100	0.239	0.050
-326.143	-83.964	0.095	0.030
-325.129	57.960	0.251	0.243
-324.114	-23.758	-0.035	-0.021
-323.099	800.000	0.091	0.266
-322.085	99.516	-0.213	0.244
-321.070	-200.000	0.021	-0.103
-320.056	-38.618	0.220	-0.115
-319.041	-20.248	-0.090	-0.055
-318.026	-174.802	-0.225	0.006
-317.012	577.333	0.120	0.290
-315.997	-150.698	0.188	-0.014
-314.983	16.591	0.230	0.180
-313.968	-62.414	-0.096	-0.040
-312.953	75.219	0.086	0.090
-311.939	-73.315	-0.091	0.033
-310.924	-86.206	-0.093	-0.028
-309.910	-174.982	-0.240	-0.007
-308.895	83.041	0.100	0.107
-307.880	-144.697	0.112	-0.010
-306.866	144.560	0.085	0.112
-305.851	384.737	0.072	-0.147
-304.837	788.920	-0.066	-0.180
-303.822	145.670	0.032	-0.043
-302.807	800.000	-0.045	-0.181
-301.793	-195.587	-0.117	-0.001
-300.778	-93.690	0.162	-0.044
-299.764	-35.935	-0.050	0.027
-298.749	131.414	-0.151	-0.192
-297.735	-200.000	0.034	0.175
-296.720	-21.211	-0.219	-0.133
-295.705	-35.684	0.307	0.165
-294.691	-67.450	-0.253	0.098
-293.676	68.253	0.159	0.162
-292.662	-200.000	0.011	0.313
-291.647	695.890	-0.024	-0.063
-290.632	-200.000	0.004	-0.329
-289.618	-73.580	-0.147	0.053
-288.603	800.000	0.046	0.163
-287.589	-41.563	-0.316	0.161
-286.574	-200.000	-0.059	0.555
-285.559	-8.901	-0.412	-0.273
-284.545	-125.798	0.241	-0.036
-283.530	800.000	0.027	0.082
-282.516	631.040	-0.034	0.085
-281.501	209.265	0.006	0.009
-280.486	59.742	-0.247	-0.241
-279.472	120.333	-0.093	-0.114
-278.457	-200.000	-0.019	-0.310
-277.443	-200.000	0.057	-0.252
-276.428	-200.000	0.094	-0.616
-275.413	-200.000	0.062	0.341
-274.399	-57.815	0.068	0.029
-273.384	12.571	-0.147	0.112
-272.370	16.439	0.239	-0.186
-271.355	800.000	0.069	0.285
-270.340	106.353	0.317	0.371
-269.326	-161.836	0.081	0.004
-268.311	-45.625	-0.088	0.043
-267.297	800.000	-0.060	-0.166
-266.282	-200.000	-0.044	0.291
-265.267	-39.959	-0.271	-0.140
-264.253	238.581	0.122	-0.200
-263.238	800.000	0.010	0.040
-262.224	170.714	-0.162	-0.229
-261.209	-108.592	-0.099	-0.021
-260.195	-200.000	-0.030	-0.176
-259.180	29.193	-0.159	-0.133
-258.165	-7.466	-0.186	-0.124
-257.151	643.687	0.037	0.093
-256.136	-200.000	-0.004	0.173
-255.122	-97.331	0.141	0.036
-254.107	-51.810	0.232	-0.107
-253.092	62.451	-0.338	-0.334
-252.078	-44.700	-0.035	-0.017
-251.063	242.121	-0.204	0.337
-250.049	-155.953	-0.193	0.012
-249.034	800.000	0.062	0.210
-248.019	5.342	0.189	0.137
-247.005	-200.000	0.024	-0.262
-245.990	210.877	0.087	0.135
-244.976	-87.321	0.275	-0.082
-243.961	-200.000	0.007	0.234
-242.946	196.864	0.225	0.339
-241.932	-85.842	0.102	-0.031
-240.917	-94.486	-0.115	-0.031
-239.903	-37.876	-0.188	0.099
-238.888	-49.175	0.238	0.112
-237.873	423.835	0.082	-0.174
-236.859	-91.418	-0.192	-0.054
-235.844	52.134	-0.256	-0.241
-234.830	166.221	-0.125	-0.174
-233.815	93.648	0.151	0.168
-232.800	23.125	-0.070	0.057
-231.786	68.236	0.462	-0.467
-230.771	-164.733	0.284	0.013
-229.757	-59.325	0.029	-0.012
-228.742	-200.000	0.062	-0.394
-227.727	-54.745	0.107	0.048
-226.713	-72.400	0.484	0.177
-225.698	-200.000	-0.025	0.230
-224.684	-200.000	-0.011	-0.103
-223.669	-13.983	0.282	-0.180
-222.655	379.700	0.086	-0.174
-221.640	19.544	0.053	0.042
-220.625	-75.974	-0.249	-0.087
-219.611	245.061	-0.099	-0.164
-218.596	-62.905	-0.019	0.008
-217.582	800.000	0.114	0.378
-216.567	2.878	0.120	0.086
-215.552	-28.337	0.252	0.144
-214.538	-99.710	-0.407	-0.100
-213.523	-134.734	-0.352	0.042
-212.509	-156.226	-0.183	0.011
-211.494	-175.269	-0.394	-0.011
-210.479	496.138	-0.053	0.120
-209.465	-79.095	0.450	-0.151
-208.450	368.255	-0.058	-0.115
-207.436	-200.000	0.039	-0.214
-206.421	-70.772	0.167	-0.062
-205.406	343.031	-0.061	0.118
-204.392	-108.705	-0.141	0.030
-203.377	-96.925	0.244	0.063
-202.363	-200.000	-0.038	0.595
-201.348	433.082	0.045	0.097
-200.333	53.117	-0.147	-0.139
-199.319	-15.462	-0.211	0.133
-198.304	270.488	-0.102	0.177
-197.290	-200.000	0.032	0.288
-196.275	-154.026	0.182	0.012
-195.260	800.000	0.018	-0.069
-194.246	-20.583	0.191	0.116
-193.231	74.469	0.045	-0.047
-192.217	294.287	0.105	0.189
-191.202	69.903	0.152	0.154
-190.187	-200.000	0.006	-0.125
-189.173	-114.290	0.263	-0.050
-188.158	-17.325	-0.192	-0.119
-187.144	-137.067	-0.142	0.016
-186.129	-45.517	-0.228	0.111
-185.114	-56.998	-0.178	-0.077
-184.100	-31.148	0.200	0.111
-183.085	-101.735	0.018	-0.004
-182.071	19.616	-0.364	0.288
-181.056	52.469	0.179	0.168
-180.042	800.000	0.078	-0.311
-179.027	-40.107	0.295	-0.151
-178.012	800.000	-0.014	0.054
-176.998	-46.186	-0.318	0.154
-175.983	-82.277	0.112	-0.036
-174.969	-133.050	0.194	-0.024
-173.954	406.931	-0.080	0.166
-172.939	-29.880	0.275	0.154
-171.925	45.785	0.427	-0.388
-170.910	-123.741	-0.151	0.024
-169.896	-142.357	0.173	0.017
-168.881	124.002	0.127	-0.157
-167.866	583.890	0.199	-0.481
-166.852	-55.455	-0.241	-0.106
-165.837	0.262	0.251	-0.176
-164.823	57.940	0.312	-0.301
-163.808	579.716	-0.058	-0.140
-162.793	800.000	0.028	-0.080
-161.779	-200.000	0.066	-0.376
-160.764	800.000	0.069	-0.287
-159.750	-200.000	-0.012	0.112
-158.735	79.771	-0.230	0.243
-157.720	-35.299	0.167	-0.089
-156.706	-200.000	0.002	0.321
-155.691	341.354	-0.133	-0.257
-154.677	59.223	-0.191	-0.185
-153.662	-200.000	-0.030	0.139
-152.647	145.556	0.116	0.152
-151.633	800.000	0.026	0.096
-150.618	65.997	-0.059	0.059
-149.604	-30.081	0.166	-0.093
-148.589	-102.721	-0.345	0.081
-147.574	-200.000	-0.036	0.198
-146.560	-200.000	-0.020	0.209
-145.545	184.917	0.191	0.279
-144.531	-187.483	-0.133	0.002
-143.516	-24.722	-0.107	-0.063
-142.502	-158.671	-0.170	0.010
-141.487	706.929	-0.013	0.033
-140.472	56.694	0.190	-0.182
-139.458	-200.000	-0.003	0.034
-138.443	688.627	-0.145	0.374
-137.429	800.000	-0.017	-0.056
-136.414	-75.559	-0.374	-0.131
-135.399	115.378	0.129	-0.156
-134.385	-3.162	-0.287	0.197
-133.370	800.000	-0.038	-0.134
-132.356	800.000	0.020	-0.070
-131.341	800.000	-0.073	-0.208
-130.326	-35.266	0.235	-0.125
-129.312	-200.000	0.011	-0.104
-128.297	800.000	0.062	-0.203
-127.283	-200.000	-0.027	0.239
-126.268	-200.000	0.070	0.423
-125.253	73.343	0.071	-0.073
-124.239	-9.883	-0.149	-0.097
-123.224	334.900	-0.047	-0.090
-122.210	25.301	0.281	0.229
-121.195	-200.000	0.043	0.267
-120.180	-91.736	0.545	0.152
-119.166	307.147	0.023	0.042
-118.151	86.868	0.183	0.199
-117.137	-200.000	-0.002	-0.248
-116.122	-200.000	-0.016	-0.347
-115.107	-134.794	0.229	-0.027
-114.093	-62.252	-0.198	0.081
-113.078	-148.732	0.391	0.031
-112.064	49.074	0.195	-0.180
-111.049	68.859	-0.255	0.257
-110.034	124.333	-0.200	0.247
-109.020	-91.139	0.179	0.050
-108.005	-82.737	-0.013	0.004
-106.991	-128.224	0.082	-0.012
-105.976	-200.000	-0.009	-0.140
-104.962	155.949	0.081	0.110
-103.947	66.360	0.204	0.204
-102.932	-105.905	0.221	0.049
-101.918	-200.000	-0.037	-0.233
-100.903	-132.245	0.257	0.033
-99.889	334.435	0.109	0.206
-98.874	-70.695	0.080	0.030
-97.859	-7.120	-0.146	0.098
-96.845	-120.198	0.180	0.030
-95.830	57.621	0.104	0.100
-94.816	-22.814	0.118	0.070
-93.801	271.339	-0.078	-0.135
-92.786	-13.981	-0.235	0.149
-91.772	-89.325	0.273	0.079
-90.757	-200.000	-0.038	-0.427
-89.743	-96.534	0.074	0.019
-88.728	-163.223	-0.193	0.009
-87.713	-109.135	0.170	0.036
-86.699	-200.000	-0.016	0.336
-85.684	-200.000	0.015	-0.294
-84.670	447.834	0.047	-0.101
-83.655	-59.624	0.240	-0.101
-82.640	-84.753	-0.211	-0.065
-81.626	-10.299	0.152	-0.099
-80.611	305.183	-0.153	-0.280
-79.597	-0.707	0.236	-0.164
-78.582	-200.000	0.040	0.312
-77.567	-123.088	0.245	0.039
-76.553	-97.969	-0.101	-0.026
-75.538	198.242	-0.124	0.187
-74.524	-83.306	-0.193	-0.061
-73.509	-93.695	0.042	-0.011
-72.494	-124.241	-0.151	0.023
-71.480	800.000	-0.080	-0.265
-70.465	-72.990	0.033	0.012
-69.451	-65.180	0.159	-0.063
-68.436	351.034	-0.109	0.212
-67.422	55.924	-0.093	0.089
-66.407	387.801	-0.017	-0.035
-65.392	41.125	-0.216	-0.191
-64.378	-103.578	0.155	0.036
-63.363	-125.786	-0.099	-0.015
-62.349	454.674	0.125	0.271
-61.334	66.899	-0.910	-0.908
-60.319	59.125	0.611	0.589
-59.305	734.958	-0.329	-0.863
-58.290	359.514	0.738	1.446
-57.276	766.535	0.710	1.891
-56.261	-200.000	106.205	611.326
-55.246	501.988	1508.798	3415.373
-54.232	176.154	2701.664	3844.153
-53.217	110.536	2186.003	2574.986
-52.203	40.225	1703.332	1501.015
-51.188	32.505	1514.159	1281.952
-50.173	30.188	1486.758	1243.191
-49.159	51.241	1542.795	1434.484
-48.144	51.528	1559.353	1451.787
-47.130	32.904	1515.160	1285.313
-46.115	29.800	1499.921	1251.369
-45.100	29.633	1496.479	1247.321
-44.086	29.561	1494.165	1244.863
-43.071	29.496	1492.026	1242.594
-42.057	29.471	1490.909	1241.445
-41.042	29.524	1489.361	1240.459
-40.027	29.439	1487.982	1238.694
-39.013	29.471	1486.339	1237.493
-37.998	29.412	1485.176	1236.075
-36.984	29.527	1483.611	1235.497
-35.969	29.414	1482.666	1233.906
-34.954	29.468	1480.902	1232.745
-33.940	29.448	1479.620	1231.497
-32.925	29.420	1478.578	1230.395
-31.911	29.529	1477.148	1229.884
-30.896	29.557	1476.091	1229.141
-29.881	29.636	1474.268	1228.098
-28.867	29.662	1473.072	1227.226
-27.852	29.574	1472.011	1225.707
-26.838	29.620	1470.261	1224.511
-25.823	29.536	1468.942	1222.802
-24.809	29.611	1467.123	1221.736
-23.794	29.566	1466.168	1220.597
-22.779	29.528	1464.423	1218.842
-21.765	29.628	1463.777	1218.916
-20.750	29.605	1462.613	1217.747
-19.736	29.534	1461.418	1216.236
-18.721	29.577	1460.093	1215.369
-17.706	29.609	1459.012	1214.636
-16.692	29.585	1457.335	1213.034
-15.677	29.500	1457.047	1212.186
-14.663	29.446	1455.981	1210.896
-13.648	29.457	1455.455	1210.484
-12.633	29.472	1454.391	1209.645
-11.619	29.395	1453.780	1208.588
-10.604	29.371	1452.948	1207.692
-9.590	29.458	1451.834	1207.284
-8.575	29.369	1451.441	1206.329
-7.560	29.456	1449.780	1205.466
-6.546	29.425	1449.093	1204.644
-5.531	29.375	1448.735	1203.974
-4.517	29.507	1447.508	1203.772
-3.502	29.473	1446.345	1202.534
-2.487	29.466	1445.541	1201.772
-1.473	29.415	1444.420	1200.456
-0.458	29.558	1442.987	1200.150
0.556	27.133	1433.564	1188.802
1.571	24.397	1408.536	1150.327
2.586	21.190	1350.688	1083.124
3.600	19.779	1269.523	1009.713
4.615	18.742	1224.953	968.334
5.629	16.364	1171.055	912.813
6.644	8.127	1087.093	805.814
7.659	1.058	1046.212	740.963
8.673	-0.039	1040.858	731.769
9.688	-0.271	1037.313	728.083
10.702	-0.441	1036.419	726.571
11.717	-0.378	1034.148	725.216
12.731	3.014	1037.357	743.841
13.746	11.892	1050.259	796.370
14.761	18.620	1058.973	835.790
15.775	20.434	1060.677	845.907
16.790	20.628	1060.223	846.412
17.804	20.487	1059.354	844.957
18.819	20.214	1058.807	843.118
19.834	20.456	1057.781	843.402
20.848	20.447	1057.408	842.987
21.863	20.614	1056.922	843.336
22.877	20.629	1056.820	843.252
23.892	20.550	1055.881	842.044
24.907	20.326	1055.244	840.379
25.921	20.468	1054.728	840.579
26.936	20.343	1054.058	839.366
27.950	20.528	1052.155	838.670
28.965	20.596	1050.940	837.957
29.980	20.454	1049.381	835.955
30.994	20.274	1048.119	834.010
32.009	20.569	1046.984	834.451
33.023	20.611	1046.665	834.324
34.038	20.364	1045.468	832.112
35.053	20.300	1044.617	831.057
36.067	20.545	1044.259	831.869
37.082	20.508	1043.157	830.743
38.096	20.547	1042.381	830.236
39.111	20.755	1041.811	830.701
40.126	20.790	1040.928	830.090
41.140	20.717	1039.718	828.706
42.155	20.519	1037.800	826.162
43.169	20.101	1036.801	823.306
44.184	20.128	1035.224	822.112
45.199	20.377	1034.391	822.557
46.213	20.134	1033.776	820.842
47.228	20.076	1032.654	819.604
48.242	20.326	1031.853	820.077
49.257	20.359	1031.204	819.648
50.271	20.373	1030.265	818.893
51.286	20.582	1029.228	818.981
52.301	20.737	1028.366	818.952
53.315	20.564	1027.868	817.671
54.330	20.499	1026.944	816.558
55.344	20.471	1026.637	816.109
56.359	20.550	1025.447	815.464
57.374	20.573	1024.547	814.782
58.388	20.269	1023.799	812.691
59.403	20.323	1022.716	812.009
60.417	20.340	1022.172	811.590
61.432	20.104	1021.507	809.888
62.447	20.265	1020.471	809.744
63.461	20.334	1020.316	809.871
64.476	20.517	1019.044	809.641
65.490	20.369	1018.398	808.367
66.505	20.225	1017.592	806.985
67.520	20.261	1016.450	806.178
68.534	20.381	1015.845	806.184
69.549	20.351	1014.755	805.107
70.563	19.914	1013.625	802.118
71.578	19.702	1012.908	800.498
72.593	19.934	1011.840	800.651
73.607	19.766	1010.588	798.818
74.622	19.926	1009.426	798.566
75.636	20.106	1009.026	799.010
76.651	20.157	1008.526	798.775
77.666	20.066	1007.302	797.316
78.680	20.123	1006.440	796.826
79.695	20.039	1005.887	795.933
80.709	20.128	1005.540	795.997
81.724	20.312	1004.789	796.176
82.739	20.049	1004.001	794.275
83.753	20.160	1002.897	793.839
84.768	20.378	1002.136	794.164
85.782	20.752	1001.018	794.915
86.797	20.790	1000.971	794.982
87.812	20.787	999.736	793.917
88.826	20.612	999.038	792.497
89.841	20.738	998.090	792.244
90.855	20.718	997.151	791.338
91.870	20.751	996.711	791.069
92.884	20.856	995.183	790.264
93.899	20.804	994.356	789.305
94.914	20.575	993.306	787.362
95.928	20.609	993.305	787.447
96.943	20.573	992.402	786.497
97.957	20.327	991.243	784.399
98.972	20.330	989.613	783.053
99.987	19.976	988.816	780.754
101.001	20.132	988.171	780.879
102.016	20.615	987.210	782.224
103.030	20.502	986.309	780.933
104.045	20.452	985.358	779.888
105.060	20.300	983.767	777.879
106.074	20.044	982.850	775.940
107.089	20.188	981.828	775.705
108.103	20.502	981.826	777.041
109.118	20.628	980.648	776.605
110.133	20.373	979.658	774.611
111.147	20.381	978.432	773.608
112.162	20.165	977.534	771.872
113.176	20.027	976.258	770.179
114.191	20.083	975.550	769.802
115.206	20.299	974.256	769.669
116.220	19.997	973.204	767.433
117.235	19.856	971.931	765.740
118.249	19.960	971.517	765.806
119.264	20.105	970.302	765.422
120.279	19.917	969.848	764.165
121.293	19.900	969.140	763.466
122.308	20.096	968.163	763.489
123.322	19.968	967.391	762.248
124.337	20.011	966.093	761.351
125.352	20.030	964.596	760.185
126.366	19.517	962.776	756.437
127.381	19.308	961.697	754.606
128.395	19.811	961.543	756.622
129.410	20.379	961.319	758.862
130.424	20.531	960.344	758.689
131.439	20.435	959.432	757.480
132.454	20.443	958.251	756.515
133.468	20.511	957.160	755.882
134.483	20.445	956.296	754.849
135.497	20.354	956.113	754.242
136.512	20.544	955.317	754.371
137.527	20.792	954.009	754.347
138.541	20.687	953.877	753.719
139.556	20.709	952.948	753.012
140.570	20.556	952.307	751.780
141.585	20.601	951.324	751.134
142.600	20.749	950.511	751.060
143.614	20.585	949.237	749.281
144.629	20.685	949.019	749.474
145.643	20.973	948.572	750.297
146.658	20.908	946.752	748.512
147.673	20.719	945.818	746.895
148.687	20.576	944.727	745.354
149.702	20.487	944.059	744.378
150.716	20.301	943.167	742.813
151.731	20.432	941.436	741.946
152.746	20.628	940.449	741.939
153.760	20.785	940.355	742.469
154.775	20.886	939.401	742.080
155.789	20.861	938.434	741.143
156.804	20.847	937.611	740.367
157.819	20.715	936.735	739.048
158.833	20.884	935.831	738.987
159.848	20.949	934.935	738.489
160.862	21.015	934.163	738.095
161.877	20.787	933.383	736.448
162.892	20.761	932.711	735.745
163.906	20.954	931.438	735.490
164.921	20.883	930.651	734.503
165.935	20.818	929.607	733.343
166.950	20.847	928.448	732.485
167.964	20.813	927.875	731.824
168.979	20.970	926.509	731.339
169.994	20.683	925.717	729.449
171.008	20.741	924.433	728.616
172.023	20.881	923.744	728.592
173.037	20.918	923.009	728.103
174.052	20.653	921.900	726.057
175.067	20.516	921.095	724.786
176.081	20.562	919.873	723.954
177.096	20.680	919.204	723.853
178.110	20.754	918.057	723.196
179.125	20.524	917.647	721.853
180.140	20.388	916.187	720.077
181.154	20.253	915.664	719.041
182.169	20.382	915.047	719.027
183.183	20.542	914.510	719.205
184.198	20.886	914.477	720.537
185.213	20.743	913.989	719.497
186.227	20.779	913.272	719.020
187.242	20.757	912.796	718.490
188.256	20.810	911.764	717.834
189.271	20.916	910.826	717.464
190.286	21.004	910.238	717.302
191.300	20.782	909.457	715.712
192.315	20.382	907.955	712.824
193.329	19.707	906.308	708.701
194.344	19.307	905.666	706.495
195.359	19.962	905.795	709.218
196.373	20.639	905.903	712.014
197.388	20.922	905.585	712.858
198.402	20.680	904.579	711.013
199.417	20.535	904.449	710.256
200.432	20.628	903.951	710.182
201.446	20.605	902.868	709.175
202.461	20.439	901.746	707.556
203.475	20.245	902.085	706.968
204.490	20.040	900.143	704.549
205.504	18.808	898.406	698.123
206.519	19.305	898.161	699.888
207.534	20.218	898.912	704.123
208.548	20.371	898.121	704.059
209.563	20.709	897.772	705.093
210.577	20.588	897.105	704.017
211.592	20.454	895.980	702.530
212.607	20.850	896.231	704.265
213.621	20.930	895.289	703.786
214.636	20.918	894.421	702.995
215.650	20.995	894.413	703.238
216.665	20.674	893.935	701.505
217.680	20.877	893.196	701.680
218.694	21.058	892.585	701.864
219.709	20.563	891.750	699.158
220.723	20.337	890.571	697.264
221.738	20.416	890.171	697.206
222.753	20.676	889.819	697.913
223.767	20.599	888.975	696.879
224.782	20.814	888.339	697.181
225.796	20.947	887.261	696.802
226.811	20.982	886.963	696.648
227.826	20.604	886.012	694.329
228.840	19.824	884.543	690.009
229.855	19.779	883.929	689.288
230.869	20.040	883.737	690.119
231.884	19.747	882.511	687.934
232.899	19.831	882.004	687.813
233.913	20.458	882.593	690.704
234.928	20.848	881.256	691.145
235.942	20.677	880.780	690.031
236.957	20.763	880.253	689.900
237.972	20.463	879.170	687.801
238.986	20.420	878.698	687.202
240.001	20.325	878.109	686.303
241.015	20.543	877.344	686.504
242.030	20.383	877.140	685.655
243.045	20.574	876.414	685.778
244.059	20.673	875.790	685.620
245.074	20.856	875.459	686.022
246.088	20.836	874.405	685.056
247.103	20.451	873.585	682.839
248.117	20.631	872.567	682.691
249.132	21.137	872.823	684.815
250.147	21.324	872.474	685.215
251.161	21.459	871.834	685.180
252.176	21.576	871.641	685.425
253.190	21.487	870.780	684.342
254.205	21.555	870.666	684.454
255.220	21.711	869.787	684.315
256.234	21.768	869.375	684.151
257.249	21.577	869.150	683.169
258.263	21.421	867.939	681.550
259.278	21.557	867.004	681.282
260.293	21.541	866.938	681.111
261.307	21.695	866.448	681.263
262.322	21.441	865.491	679.464
263.336	21.290	864.737	678.227
264.351	20.817	863.706	675.521
265.366	19.802	861.796	670.038
266.380	19.371	860.469	667.282
267.395	20.296	861.126	671.313
268.409	21.231	861.211	674.935
269.424	21.103	860.601	673.901
270.439	21.286	860.014	674.088
271.453	21.359	859.393	673.821
272.468	21.335	858.791	673.197
273.482	21.592	858.381	673.805
274.497	21.616	857.689	673.297
275.512	21.461	856.901	672.021
276.526	21.030	855.292	669.049
277.541	21.087	855.127	669.080
278.555	21.477	854.694	670.177
279.570	21.432	853.609	669.094
280.585	20.969	853.351	667.060
281.599	21.182	852.551	667.189
282.614	21.318	852.280	667.439
283.628	20.831	851.326	664.775
284.643	20.449	850.123	662.321
285.657	20.937	850.100	664.104
286.672	20.771	849.380	662.849
287.687	20.273	848.450	660.172
288.701	20.690	848.407	661.664
289.716	21.084	848.294	663.017
290.730	20.798	847.000	660.863
291.745	20.474	846.672	659.316
292.760	20.350	845.676	658.015
293.774	20.500	844.975	657.978
294.789	21.351	844.969	661.135
295.803	21.984	845.286	663.721
296.818	21.805	845.103	662.840
297.833	21.954	844.395	662.788
298.847	21.582	843.387	660.537
299.862	21.414	842.199	658.915
300.876	21.606	841.773	659.244
301.891	21.866	841.490	659.943
302.906	21.960	841.001	659.855
303.920	21.566	839.280	656.970
304.935	21.356	839.189	656.050
305.949	21.668	839.297	657.247
306.964	21.947	838.487	657.602
307.979	21.871	837.502	656.486
308.993	21.415	837.448	654.677
310.008	22.014	836.934	656.458
311.022	21.981	836.609	656.022
312.037	21.801	836.169	654.948
313.052	21.595	835.249	653.401
314.066	21.583	834.508	652.719
315.081	20.866	833.318	649.059
316.095	20.326	831.965	645.938
317.110	20.794	832.301	647.883
318.125	21.541	832.652	650.879
319.139	21.129	831.617	648.481
320.154	20.127	829.582	643.122
321.168	19.772	828.719	641.079
322.183	20.356	829.225	643.579
323.197	21.200	829.444	646.821
324.212	21.419	828.911	647.160
325.227	21.477	829.128	647.487
326.241	21.741	827.981	647.507
327.256	21.553	827.690	646.529
328.270	21.573	826.945	645.965
329.285	21.566	826.163	645.272
330.300	21.381	825.535	644.041
331.314	21.079	824.703	642.225
332.329	21.168	824.468	642.311
333.343	21.678	823.781	643.594
334.358	21.852	823.163	643.691
335.373	21.726	822.901	642.969
336.387	21.777	822.436	642.735
337.402	21.951	821.815	642.830
338.416	22.240	821.328	643.452
339.431	22.254	820.822	643.049
340.446	22.182	820.430	642.420
341.460	22.319	819.955	642.494
342.475	22.528	818.933	642.396
343.489	22.069	818.512	640.337
344.504	22.189	818.052	640.358
345.519	22.441	817.421	640.724
346.533	22.581	817.258	641.049
347.548	22.546	817.276	640.878
348.562	22.637	816.477	640.528
349.577	22.576	816.019	639.887
350.592	22.570	815.216	639.182
351.606	22.549	814.946	638.837
352.621	22.435	814.792	638.248
353.635	22.270	814.222	637.145
354.650	22.406	813.355	636.904
355.665	22.186	812.314	635.235
356.679	20.988	810.939	629.780
357.694	20.765	810.653	628.697
358.708	21.509	810.422	631.146
359.723	21.511	809.399	630.303
360.738	21.689	809.624	631.062
361.752	22.132	809.498	632.503
362.767	22.298	809.391	632.963
363.781	22.440	809.266	633.317
364.796	22.684	808.974	633.910
365.810	22.804	808.788	634.141
366.825	22.922	808.165	634.019
367.840	22.902	807.693	633.521
368.854	22.756	807.085	632.464
369.869	22.432	805.787	630.231
370.883	22.093	805.371	628.639
371.898	22.340	804.828	629.042
372.913	22.314	803.929	628.190
373.927	22.164	803.660	627.390
374.942	22.499	803.101	628.091
375.956	22.563	802.631	627.898
376.971	22.548	801.895	627.212
377.986	22.646	801.524	627.215
379.000	22.596	801.471	626.942
380.015	22.996	800.262	627.359
381.029	22.814	799.696	626.214
382.044	22.617	799.570	625.361
383.059	22.898	798.987	625.846
384.073	22.925	798.003	625.116
385.088	22.933	797.898	625.006
386.102	22.876	797.126	624.144
387.117	22.860	796.601	623.621
388.132	22.681	796.011	622.475
389.146	22.468	795.238	621.063
390.161	21.946	794.157	618.325
391.175	22.048	794.199	618.664
392.190	22.402	794.528	620.110
393.205	22.528	793.694	619.848
394.219	21.544	792.108	615.098
395.234	20.053	789.847	608.058
396.248	19.368	788.624	604.662
397.263	20.538	789.583	609.449
398.278	22.078	791.266	616.100
399.292	22.540	791.181	617.600
400.307	22.213	789.997	615.476
401.321	22.201	789.942	615.339
402.336	22.167	789.669	614.953
403.350	22.479	789.490	615.847
404.365	22.983	789.303	617.410
405.380	23.268	789.096	618.186
406.394	23.575	788.569	618.792
407.409	23.687	788.298	618.916
408.423	23.573	787.812	618.080
409.438	23.569	787.123	617.471
410.453	23.370	787.078	616.690
411.467	23.549	786.561	616.853
412.482	23.508	785.647	615.939
413.496	23.559	784.976	615.536
414.511	23.542	785.317	615.689
415.526	23.772	784.768	616.001
416.540	23.682	784.225	615.207
417.555	23.520	783.874	614.317
418.569	23.319	782.821	612.744
419.584	23.218	782.290	611.923
420.599	23.363	781.826	612.009
421.613	157.448	1364.101	1797.939
422.628	136.072	1448.925	1798.010
