DTS Sentinel unit serial number:	SN413079Multiplexer serial number:	ORYXHardware model number:	OX4-SRSoftware version number:	ORYX F/W v4.00 Oryx Data Collector v3.7.2.0data status	okinstallation	princeton_trtdifferential loss correction	single-endedforward channel	channel 3reverse channel	N/Adate	2019/09/10time	16:26:10forward acquisition time	60.00reverse acquisition time	0.00gamma	496.2192k internal	0.2298k external	0.2298temperature offset calibration	0.9912default loss term (dB/km)	0.3790temperature slope calibration	1.0000multiplexer offset coefficient	1.0000multiplexer slope coefficient	1.0000fibre end	0.00T internal ref (°C)	38.12T ext. ref 1 (°C)	-0.28T ext. ref 2 (°C)	30.80length (m)	temperature (°C)	Stokes	anti-Stokes-747.200	-200.000	0.010	-0.054
-746.185	38.045	-0.206	-0.187
-745.171	32.024	-0.211	-0.185
-744.156	26.091	-0.062	0.053
-743.142	-124.000	0.460	0.074
-742.127	-200.000	-0.006	0.224
-741.112	-200.000	-0.012	-0.362
-740.098	-200.000	0.007	0.037
-739.083	-200.000	-0.057	-0.264
-738.069	229.571	0.137	-0.229
-737.054	291.634	-0.011	0.020
-736.039	176.239	0.026	0.039
-735.025	-31.251	0.401	-0.231
-734.010	-55.895	0.121	-0.055
-732.996	84.008	-0.220	0.245
-731.981	-200.000	0.073	0.512
-730.966	-148.640	-0.450	-0.037
-729.952	522.286	-0.100	-0.239
-728.937	5.700	-0.228	0.172
-727.923	-192.688	-0.272	-0.003
-726.908	-40.030	-0.090	0.048
-725.894	-60.260	-0.214	-0.093
-724.879	235.114	0.108	-0.181
-723.864	77.604	-0.219	-0.238
-722.850	-69.189	-0.288	-0.113
-721.835	-76.372	-0.136	-0.049
-720.821	-18.854	-0.282	0.179
-719.806	-116.845	0.200	-0.037
-718.791	28.071	0.280	0.241
-717.777	800.000	0.031	-0.120
-716.762	-151.347	-0.058	-0.004
-715.748	-200.000	-0.022	-0.138
-714.733	-90.101	-0.412	-0.122
-713.718	-141.255	0.300	0.031
-712.704	354.568	0.154	0.313
-711.689	-138.857	-0.167	-0.019
-710.675	-114.630	0.201	0.039
-709.660	-87.987	-0.237	-0.073
-708.645	-113.841	-0.153	0.030
-707.631	41.508	-0.098	-0.090
-706.616	-200.000	0.031	-0.193
-705.602	-200.000	-0.016	-0.383
-704.587	-34.431	0.139	-0.078
-703.572	-83.801	-0.193	0.063
-702.558	431.939	-0.171	-0.379
-701.543	-96.310	0.253	-0.068
-700.529	502.982	-0.099	0.233
-699.514	89.923	-0.174	-0.198
-698.499	436.580	-0.010	-0.023
-697.485	-135.681	-0.224	-0.027
-696.470	-79.123	-0.471	0.163
-695.456	225.953	-0.105	0.173
-694.441	100.279	0.197	0.233
-693.426	784.162	-0.103	-0.287
-692.412	18.281	0.106	-0.086
-691.397	178.641	-0.146	-0.218
-690.383	-71.973	-0.211	-0.080
-689.368	800.000	-0.020	-0.063
-688.354	59.341	-0.199	0.200
-687.339	-200.000	0.063	0.000
-686.324	-49.023	-0.097	0.047
-685.310	-200.000	-0.011	-0.148
-684.295	800.000	0.008	0.024
-683.281	-16.858	0.075	0.048
-682.266	-104.927	0.197	0.046
-681.251	-103.071	-0.128	-0.031
-680.237	-172.062	0.257	0.008
-679.222	-43.301	-0.242	-0.124
-678.208	-76.052	0.216	0.078
-677.193	-74.164	0.225	0.083
-676.178	-111.002	-0.069	-0.014
-675.164	105.360	0.133	-0.160
-674.149	40.337	0.260	-0.238
-673.135	-200.000	-0.049	-0.288
-672.120	794.709	-0.059	-0.165
-671.105	-85.936	0.041	-0.013
-670.091	660.623	0.090	0.236
-669.076	199.777	0.116	-0.181
-668.062	-200.000	-0.053	0.291
-667.047	354.192	0.140	0.284
-666.032	800.000	0.108	0.453
-665.018	-85.991	0.356	0.112
-664.003	-34.681	0.315	0.175
-662.989	800.000	-0.080	-0.230
-661.974	150.706	-0.071	-0.098
-660.959	-96.854	0.171	0.046
-659.945	17.604	-0.134	0.108
-658.930	-200.000	-0.002	0.203
-657.916	-96.733	-0.168	-0.045
-656.901	687.305	0.106	-0.282
-655.886	-171.438	-0.056	-0.002
-654.872	43.536	-0.339	0.315
-653.857	-191.177	0.069	-0.001
-652.843	-115.029	-0.216	-0.042
-651.828	276.900	-0.123	0.222
-650.814	-104.917	-0.493	-0.115
-649.799	80.278	-0.094	0.102
-648.784	-200.000	0.027	-0.250
-647.770	-83.119	0.199	0.065
-646.755	440.546	0.076	0.168
-645.741	-147.026	0.304	-0.027
-644.726	102.734	-0.080	-0.095
-643.711	354.090	0.065	0.132
-642.697	2.842	0.062	-0.045
-641.682	740.485	-0.045	0.123
-640.668	-159.886	0.178	0.010
-639.653	-200.000	-0.050	-0.282
-638.638	-122.165	-0.272	0.045
-637.624	167.106	0.295	-0.426
-636.609	-21.047	0.094	-0.058
-635.595	-76.894	-0.244	0.087
-634.580	137.386	0.166	0.221
-633.565	-200.000	0.019	-0.328
-632.551	-200.000	0.032	-0.336
-631.536	-24.238	-0.292	-0.177
-630.522	-200.000	0.341	0.001
-629.507	25.338	0.238	-0.201
-628.492	94.908	-0.107	0.123
-627.478	-174.554	-0.459	-0.013
-626.463	-139.237	-0.436	0.048
-625.449	55.141	0.247	-0.243
-624.434	-53.050	0.272	-0.127
-623.419	-138.002	-0.113	0.013
-622.405	-8.155	0.047	-0.032
-621.390	571.113	0.068	-0.169
-620.376	161.629	-0.048	-0.069
-619.361	156.188	-0.170	0.238
-618.346	-31.418	-0.067	0.038
-617.332	132.509	-0.101	0.133
-616.317	800.000	-0.189	0.666
-615.303	302.765	0.072	0.136
-614.288	-200.000	0.023	0.122
-613.273	-61.431	0.053	-0.023
-612.259	233.219	0.104	0.174
-611.244	-53.997	0.098	0.045
-610.230	-158.908	-0.282	0.016
-609.215	178.411	0.169	-0.251
-608.201	-42.703	-0.158	0.082
-607.186	-38.433	-0.136	-0.073
-606.171	-200.000	0.010	-0.348
-605.157	-105.684	-0.187	-0.043
-604.142	178.323	-0.116	-0.172
-603.128	26.858	0.186	0.158
-602.113	751.125	-0.034	0.093
-601.098	-96.966	0.343	-0.091
-600.084	223.597	-0.159	-0.260
-599.069	-108.066	0.306	-0.067
-598.055	800.000	0.119	-0.489
-597.040	16.218	0.261	-0.209
-596.025	-141.078	-0.107	0.011
-595.011	317.150	0.177	0.341
-593.996	-200.000	-0.013	-0.152
-592.982	-131.835	0.203	0.027
-591.967	-122.631	-0.125	-0.021
-590.952	-153.387	-0.145	-0.010
-589.938	-32.707	0.019	-0.011
-588.923	-3.153	0.096	-0.068
-587.909	-200.000	-0.010	0.058
-586.894	542.161	-0.054	0.130
-585.879	800.000	-0.095	0.415
-584.865	-64.797	0.306	0.126
-583.850	52.557	-0.020	0.020
-582.836	-200.000	-0.026	-0.354
-581.821	80.587	0.145	-0.159
-580.806	-193.187	0.150	0.001
-579.792	1.299	-0.078	-0.057
-578.777	-66.973	-0.174	0.070
-577.763	173.899	-0.100	0.147
-576.748	-200.000	-0.018	0.225
-575.733	-200.000	0.006	-0.066
-574.719	-98.600	0.171	-0.044
-573.704	-119.475	-0.293	-0.052
-572.690	287.776	-0.079	0.144
-571.675	4.188	0.357	-0.265
-570.661	209.064	0.173	0.275
-569.646	41.202	0.269	-0.247
-568.631	-104.281	-0.083	0.019
-567.617	49.641	-0.168	-0.160
-566.602	711.932	0.061	0.165
-565.588	165.607	-0.231	-0.331
-564.573	158.673	0.153	-0.215
-563.558	-200.000	0.024	-0.248
-562.544	-18.609	-0.279	-0.176
-561.529	-200.000	0.019	0.262
-560.515	-187.072	0.159	-0.002
-559.500	-151.240	-0.453	0.034
-558.485	151.783	0.195	0.269
-557.471	371.027	0.027	0.055
-556.456	-200.000	-0.001	0.222
-555.442	496.550	0.054	0.125
-554.427	-200.000	-0.049	-0.241
-553.412	-200.000	0.034	0.155
-552.398	-200.000	0.003	-0.054
-551.383	800.000	-0.147	-0.418
-550.369	-150.515	-0.166	-0.013
-549.354	800.000	0.075	0.221
-548.339	-144.611	-0.256	0.024
-547.325	-3.715	-0.034	-0.024
-546.310	-90.325	-0.139	0.041
-545.296	-56.113	0.079	0.036
-544.281	178.083	0.011	-0.016
-543.266	69.384	0.130	-0.136
-542.252	62.732	0.188	0.191
-541.237	-75.573	0.116	-0.042
-540.223	19.755	-0.115	0.094
-539.208	800.000	0.105	0.305
-538.193	800.000	0.104	0.321
-537.179	800.000	0.045	0.173
-536.164	-149.751	-0.218	-0.017
-535.150	-200.000	0.013	-0.134
-534.135	-135.925	0.222	-0.027
-533.121	800.000	0.017	0.052
-532.106	126.837	-0.007	-0.008
-531.091	-39.347	0.080	-0.042
-530.077	-84.264	0.090	-0.029
-529.062	-69.821	-0.258	-0.100
-528.048	425.280	0.095	0.206
-527.033	-80.937	0.209	0.070
-526.018	187.181	-0.301	-0.455
-525.004	685.709	0.082	-0.217
-523.989	145.223	-0.147	0.199
-522.975	-50.001	-0.120	0.058
-521.960	800.000	0.111	0.323
-520.945	260.902	-0.187	0.327
-519.931	-73.833	-0.229	0.084
-518.916	-128.064	0.249	0.036
-517.902	-103.036	0.146	-0.035
-516.887	800.000	0.037	0.120
-515.872	-200.000	-0.045	-0.342
-514.858	-62.666	-0.279	-0.117
-513.843	67.417	0.084	0.087
-512.829	-52.866	0.213	-0.099
-511.814	-60.036	0.210	0.091
-510.799	-37.121	-0.017	0.009
-509.785	283.778	-0.224	0.408
-508.770	298.496	-0.053	-0.099
-507.756	-23.127	-0.325	0.198
-506.741	-200.000	-0.015	0.078
-505.726	-77.969	0.163	0.057
-504.712	15.211	-0.289	-0.229
-503.697	-52.541	0.108	0.050
-502.683	461.111	0.032	0.072
-501.668	-47.064	-0.087	-0.043
-500.653	-169.630	-0.415	0.015
-499.639	-72.586	0.040	-0.015
-498.624	324.385	0.067	0.129
-497.610	120.233	-0.202	-0.254
-496.595	-79.583	0.373	-0.127
-495.581	654.336	0.222	-0.575
-494.566	197.574	-0.070	-0.108
-493.551	-200.000	0.029	0.255
-492.537	-95.546	0.297	0.080
-491.522	121.544	-0.194	-0.245
-490.508	-200.000	0.007	-0.172
-489.493	80.098	-0.101	-0.110
-488.478	-113.890	-0.164	-0.032
-487.464	-64.425	-0.222	0.091
-486.449	-9.670	-0.156	-0.105
-485.435	-138.848	0.324	0.036
-484.420	-79.601	0.211	-0.072
-483.405	-200.000	0.009	-0.265
-482.391	-106.432	0.322	0.073
-481.376	240.460	-0.164	0.276
-480.362	-122.698	-0.472	-0.077
-479.347	-13.483	-0.440	0.288
-478.332	459.868	0.047	-0.105
-477.318	-200.000	0.034	0.234
-476.303	800.000	0.079	0.226
-475.289	349.519	0.037	0.073
-474.274	-56.046	0.364	-0.164
-473.259	160.213	-0.134	0.188
-472.245	800.000	0.054	0.168
-471.230	-40.532	0.029	0.015
-470.216	-182.626	0.256	0.005
-469.201	-138.286	-0.106	-0.012
-468.186	131.862	0.040	-0.052
-467.172	114.004	-0.072	-0.088
-466.157	60.580	0.120	-0.120
-465.143	200.034	-0.106	0.164
-464.128	-21.243	-0.147	0.090
-463.113	-4.402	-0.101	0.071
-462.099	226.242	-0.043	-0.070
-461.084	252.349	0.138	-0.238
-460.070	281.665	0.040	-0.072
-459.055	246.916	0.063	0.107
-458.040	232.930	-0.079	-0.131
-457.026	-200.000	-0.025	0.219
-456.011	58.635	0.097	-0.096
-454.997	373.470	-0.084	-0.173
-453.982	226.631	-0.133	0.218
-452.968	567.429	-0.120	-0.295
-451.953	29.626	0.253	-0.217
-450.938	-200.000	0.025	0.262
-449.924	247.775	0.099	0.169
-448.909	3.490	0.288	-0.212
-447.895	-94.467	-0.097	0.027
-446.880	-200.000	0.081	-0.406
-445.865	800.000	0.093	0.353
-444.851	-125.637	-0.197	-0.030
-443.836	-105.163	0.371	-0.085
-442.822	-58.433	-0.311	0.136
-441.807	800.000	-0.055	-0.207
-440.792	-76.660	-0.135	0.048
-439.778	337.872	-0.067	-0.131
-438.763	-90.682	-0.198	-0.058
-437.749	800.000	0.111	-0.374
-436.734	-76.419	-0.177	0.063
-435.719	67.191	-0.061	0.063
-434.705	111.542	0.095	-0.116
-433.690	-43.895	-0.154	-0.078
-432.676	-200.000	-0.062	-0.359
-431.661	-200.000	-0.060	-0.276
-430.646	-200.000	0.040	-0.367
-429.632	-199.359	0.425	-0.002
-428.617	-19.098	-0.093	0.058
-427.603	800.000	0.083	0.272
-426.588	-66.038	-0.167	0.067
-425.573	-200.000	-0.019	-0.100
-424.559	-126.430	0.373	-0.056
-423.544	800.000	-0.105	0.370
-422.530	-200.000	0.000	-0.040
-421.515	49.269	-0.230	-0.218
-420.500	671.380	0.153	-0.400
-419.486	-129.861	0.240	0.033
-418.471	-200.000	0.031	0.176
-417.457	42.073	0.081	0.074
-416.442	276.253	0.106	-0.190
-415.428	-200.000	-0.013	0.087
-414.413	-98.130	-0.069	-0.018
-413.398	800.000	0.053	-0.199
-412.384	-123.341	-0.276	0.044
-411.369	179.826	0.206	-0.304
-410.355	52.887	-0.211	-0.203
-409.340	-200.000	-0.044	0.307
-408.325	-101.865	-0.116	0.028
-407.311	103.507	0.181	0.214
-406.296	-200.000	0.004	-0.156
-405.282	-178.454	-0.157	0.004
-404.267	-200.000	-0.016	0.233
-403.252	-126.202	-0.264	-0.040
-402.238	-162.116	0.082	0.004
-401.223	792.592	-0.016	-0.045
-400.209	59.827	-0.172	-0.171
-399.194	800.000	-0.067	0.251
-398.179	-200.000	0.003	-0.076
-397.165	48.108	-0.203	-0.191
-396.150	-54.261	0.191	-0.087
-395.136	-200.000	0.010	-0.234
-394.121	-127.210	0.053	0.008
-393.106	12.521	0.298	0.232
-392.092	800.000	-0.082	0.248
-391.077	-138.824	-0.202	0.022
-390.063	-91.389	-0.366	-0.105
-389.048	-57.384	-0.123	0.054
-388.033	-95.949	-0.453	0.121
-387.019	127.130	0.053	-0.067
-386.004	346.860	0.081	0.161
-384.990	-200.000	0.041	0.218
-383.975	-122.058	-0.194	-0.032
-382.960	27.411	0.124	-0.105
-381.946	120.647	0.175	-0.219
-380.931	15.336	-0.067	0.053
-379.917	800.000	-0.038	0.113
-378.902	100.393	-0.134	0.156
-377.888	560.719	0.215	-0.524
-376.873	-98.662	0.102	0.026
-375.858	-18.614	0.459	0.288
-374.844	-200.000	-0.014	-0.067
-373.829	737.042	0.106	-0.285
-372.815	-20.794	0.172	0.106
-371.800	-4.524	-0.217	0.151
-370.785	32.378	-0.143	-0.125
-369.771	130.446	0.079	0.101
-368.756	-55.991	-0.145	-0.065
-367.742	74.540	0.339	-0.359
-366.727	-74.352	-0.325	-0.118
-365.712	-141.104	0.461	-0.047
-364.698	258.637	-0.208	0.361
-363.683	-200.000	0.009	-0.054
-362.669	42.386	0.382	0.349
-361.654	-103.516	0.146	0.034
-360.639	800.000	-0.077	0.335
-359.625	-134.447	-0.260	-0.032
-358.610	800.000	-0.032	0.103
-357.596	-23.147	0.326	0.197
-356.581	-200.000	-0.011	0.102
-355.566	800.000	0.092	-0.386
-354.552	13.692	-0.161	0.126
-353.537	-5.064	-0.243	0.168
-352.523	-26.378	0.266	-0.157
-351.508	800.000	-0.064	-0.232
-350.493	-53.266	-0.196	0.090
-349.479	190.051	-0.076	0.115
-348.464	96.864	0.044	0.050
-347.450	630.499	-0.115	-0.292
-346.435	26.297	0.029	-0.025
-345.420	800.000	-0.079	0.267
-344.406	-114.354	-0.202	0.039
-343.391	800.000	0.019	0.057
-342.377	228.968	-0.093	0.153
-341.362	42.090	0.142	-0.129
-340.348	-160.741	0.290	-0.015
-339.333	-191.117	-0.287	0.003
-338.318	122.368	0.212	-0.266
-337.304	44.964	0.344	0.319
-336.289	7.617	-0.196	0.147
-335.275	791.521	0.076	0.210
-334.260	160.967	-0.095	-0.134
-333.245	-112.814	0.492	-0.098
-332.231	371.308	0.056	-0.114
-331.216	800.000	0.083	-0.308
-330.202	-200.000	0.012	0.202
-329.187	-96.419	0.200	-0.053
-328.172	-200.000	0.007	-0.173
-327.158	138.568	0.129	0.170
-326.143	120.281	-0.116	0.145
-325.129	26.763	-0.170	-0.143
-324.114	115.602	-0.059	0.072
-323.099	-45.687	-0.180	0.089
-322.085	-70.219	0.248	-0.095
-321.070	-144.459	-0.016	-0.001
-320.056	-178.782	0.118	-0.003
-319.041	-186.790	-0.096	0.001
-318.026	222.867	0.093	-0.150
-317.012	512.740	0.172	-0.403
-315.997	185.171	0.207	-0.309
-314.983	119.006	0.062	0.077
-313.968	-82.467	-0.172	0.056
-312.953	211.641	-0.146	0.230
-311.939	-142.834	0.282	0.028
-310.924	324.753	0.118	0.226
-309.910	-74.557	-0.099	-0.036
-308.895	-122.158	0.179	-0.029
-307.880	-200.000	0.033	-0.181
-306.866	-200.000	0.018	0.194
-305.851	-53.920	-0.298	0.136
-304.837	112.977	0.112	-0.136
-303.822	98.422	0.257	-0.297
-302.807	-149.672	-0.205	0.016
-301.793	-89.681	0.251	0.074
-300.778	187.299	0.163	0.243
-299.764	-113.799	-0.201	-0.039
-298.749	-200.000	0.026	0.133
-297.735	-200.000	0.054	0.252
-296.720	543.218	-0.151	0.361
-295.705	-132.655	-0.207	-0.027
-294.691	517.541	0.059	0.137
-293.676	12.292	-0.127	0.098
-292.662	-101.486	-0.176	0.043
-291.647	-88.993	-0.125	0.037
-290.632	28.966	-0.184	-0.156
-289.618	101.937	-0.161	-0.189
-288.603	-5.887	0.137	-0.094
-287.589	21.208	-0.162	0.132
-286.574	258.186	0.082	0.142
-285.559	-31.091	0.458	0.259
-284.545	-139.823	-0.216	0.023
-283.530	-200.000	0.028	0.313
-282.516	554.455	-0.016	0.038
-281.501	683.417	0.112	0.293
-280.486	7.824	-0.165	0.124
-279.472	-200.000	-0.023	-0.340
-278.457	-114.250	-0.391	0.076
-277.443	166.236	-0.059	0.084
-276.428	675.648	0.095	0.246
-275.413	800.000	-0.032	0.111
-274.399	478.766	-0.080	-0.182
-273.384	81.635	0.074	-0.081
-272.370	800.000	-0.009	-0.033
-271.355	-127.814	-0.162	0.023
-270.340	-200.000	-0.052	0.239
-269.326	-171.349	0.079	0.003
-268.311	8.815	0.070	0.053
-267.297	27.313	-0.170	0.143
-266.282	-123.580	-0.283	0.045
-265.267	-200.000	0.069	0.331
-264.253	763.140	0.056	0.152
-263.238	397.440	0.030	-0.064
-262.224	278.316	-0.101	-0.180
-261.209	-120.371	0.094	0.016
-260.195	84.176	0.276	-0.302
-259.180	42.544	-0.139	-0.127
-258.165	-200.000	-0.017	0.435
-257.151	-122.393	-0.184	0.030
-256.136	-0.382	-0.141	-0.100
-255.122	151.398	-0.108	-0.147
-254.107	-200.000	0.025	0.208
-253.092	277.923	0.078	-0.140
-252.078	-200.000	-0.024	0.183
-251.063	-37.927	0.147	0.078
-250.049	445.923	0.066	-0.146
-249.034	-119.777	-0.121	-0.021
-248.019	-17.793	-0.065	0.041
-247.005	-200.000	0.028	-0.185
-245.990	-87.930	-0.139	0.042
-244.976	-175.722	-0.175	0.005
-243.961	-200.000	-0.036	-0.224
-242.946	31.050	0.239	-0.206
-241.932	-142.850	-0.184	-0.018
-240.917	-25.897	0.214	0.126
-239.903	89.299	-0.024	0.027
-238.888	-200.000	-0.029	-0.355
-237.873	-56.698	0.179	0.079
-236.859	121.206	0.099	0.123
-235.844	35.255	0.209	-0.183
-234.830	-99.093	-0.160	-0.041
-233.815	800.000	-0.024	0.067
-232.800	-40.211	0.289	-0.150
-231.786	264.959	0.099	0.173
-230.771	-200.000	-0.017	-0.119
-229.757	-200.000	0.075	-0.483
-228.742	5.468	-0.141	-0.104
-227.727	-97.230	0.200	-0.052
-226.713	84.540	-0.280	-0.307
-225.698	800.000	-0.091	-0.290
-224.684	-99.532	0.394	-0.099
-223.669	158.968	0.076	-0.105
-222.655	73.449	0.023	-0.024
-221.640	5.439	0.190	-0.140
-220.625	-195.334	0.223	-0.002
-219.611	128.621	-0.209	-0.266
-218.596	-49.782	0.121	-0.058
-217.582	-79.170	-0.252	0.086
-216.567	16.983	0.314	-0.249
-215.552	-9.717	-0.138	0.092
-214.538	-166.407	-0.291	-0.012
-213.523	163.672	0.090	0.126
-212.509	377.061	0.094	0.192
-211.494	556.804	-0.151	-0.365
-210.479	78.756	0.141	0.150
-209.465	31.196	-0.152	0.130
-208.450	-31.403	-0.212	0.119
-207.436	-200.000	0.002	-0.226
-206.421	-78.598	0.101	0.035
-205.406	-47.890	-0.084	0.041
-204.392	-200.000	0.003	-0.139
-203.377	-200.000	0.003	0.074
-202.363	-143.096	0.091	-0.009
-201.348	-200.000	0.030	0.231
-200.333	-11.697	-0.262	0.172
-199.319	309.154	0.044	-0.082
-198.304	-65.498	-0.321	0.129
-197.290	-200.000	0.038	-0.214
-196.275	23.474	0.250	-0.206
-195.260	-23.141	0.213	0.128
-194.246	-47.869	-0.273	0.132
-193.231	-6.715	-0.148	0.101
-192.217	800.000	-0.106	0.351
-191.202	504.944	-0.137	0.318
-190.187	800.000	0.075	-0.218
-189.173	7.415	-0.059	-0.044
-188.158	-139.835	0.253	0.027
-187.144	230.378	0.142	-0.232
-186.129	-200.000	-0.033	0.320
-185.114	-200.000	-0.011	0.437
-184.100	-83.557	0.352	0.112
-183.085	-200.000	-0.007	-0.096
-182.071	183.339	-0.148	0.219
-181.056	800.000	0.081	-0.261
-180.042	98.683	0.055	0.064
-179.027	-145.521	0.210	-0.019
-178.012	-200.000	-0.031	0.180
-176.998	119.831	0.104	-0.129
-175.983	52.389	0.242	0.231
-174.969	800.000	0.058	0.176
-173.954	-44.002	-0.144	-0.072
-172.939	-145.275	0.164	0.015
-171.925	62.455	-0.173	0.172
-170.910	-200.000	0.016	-0.105
-169.896	96.626	0.018	-0.020
-168.881	335.781	-0.199	0.385
-167.866	37.766	0.222	-0.197
-166.852	-73.173	0.284	-0.104
-165.837	800.000	0.055	0.192
-164.823	800.000	0.036	0.112
-163.808	800.000	-0.050	-0.165
-162.793	-200.000	-0.013	0.268
-161.779	18.955	-0.292	-0.234
-160.764	227.198	0.121	0.197
-159.750	631.406	-0.171	0.431
-158.735	77.125	-0.137	0.145
-157.720	-20.917	-0.305	0.187
-156.706	8.100	-0.146	-0.109
-155.691	800.000	-0.067	0.191
-154.677	-113.207	0.134	0.026
-153.662	800.000	-0.085	-0.346
-152.647	-70.980	-0.211	0.079
-151.633	-200.000	-0.016	-0.274
-150.618	-200.000	-0.393	0.000
-149.604	52.383	0.013	0.012
-148.589	-200.000	-0.033	0.369
-147.574	-115.893	-0.086	-0.016
-146.560	-136.408	-0.241	-0.028
-145.545	201.562	0.089	-0.137
-144.531	-106.948	0.165	-0.036
-143.516	263.985	0.175	-0.304
-142.502	86.051	0.281	-0.309
-141.487	800.000	-0.146	-0.524
-140.472	-26.511	-0.171	0.100
-139.458	-108.239	-0.166	-0.036
-138.443	-200.000	-0.020	-0.371
-137.429	-107.801	0.126	-0.027
-136.414	-200.000	-0.030	0.201
-135.399	-54.080	0.241	0.109
-134.385	-101.674	-0.398	-0.096
-133.370	192.111	0.059	-0.089
-132.356	23.724	-0.170	0.140
-131.341	168.439	0.133	0.189
-130.326	115.935	-0.261	0.319
-129.312	132.044	-0.090	0.115
-128.297	-53.612	0.253	0.115
-127.283	-200.000	0.015	0.069
-126.268	-50.781	0.147	-0.069
-125.253	-200.000	-0.018	-0.083
-124.239	34.568	-0.235	-0.205
-123.224	-154.724	0.155	-0.010
-122.210	-200.000	0.001	0.223
-121.195	-200.000	0.012	0.070
-120.180	800.000	-0.059	-0.250
-119.166	81.842	-0.122	0.131
-118.151	71.192	-0.083	-0.086
-117.137	46.369	0.135	-0.125
-116.122	-107.330	-0.349	-0.077
-115.107	70.696	0.177	0.183
-114.093	-200.000	0.029	0.336
-113.078	-135.067	-0.115	0.014
-112.064	-124.732	-0.284	-0.044
-111.049	140.275	-0.127	-0.167
-110.034	-54.354	0.166	-0.075
-109.020	167.943	-0.136	0.192
-108.005	232.146	0.051	-0.084
-106.991	-53.495	-0.242	-0.110
-105.976	-0.695	0.263	0.185
-104.962	-99.421	0.198	0.050
-103.947	73.828	-0.077	0.080
-102.932	-88.912	-0.466	-0.138
-101.918	84.609	0.177	0.193
-100.903	-161.331	-0.106	0.005
-99.889	-133.592	-0.386	0.048
-98.874	-54.524	-0.057	-0.026
-97.859	-86.816	0.332	-0.101
-96.845	-96.216	0.120	0.032
-95.830	373.572	-0.085	-0.172
-94.816	-104.737	0.080	-0.018
-93.801	640.621	0.062	0.156
-92.786	62.928	0.066	-0.065
-91.772	643.224	0.039	-0.098
-90.757	800.000	0.062	0.173
-89.743	272.611	0.079	0.139
-88.728	-69.265	-0.381	-0.146
-87.713	10.104	-0.169	0.128
-86.699	2.872	-0.146	0.105
-85.684	112.137	-0.179	0.215
-84.670	354.148	0.170	0.336
-83.655	197.343	0.147	0.223
-82.640	-13.292	-0.132	0.085
-81.626	192.814	0.143	0.214
-80.611	14.999	0.191	0.148
-79.597	50.546	-0.177	-0.167
-78.582	-10.352	0.246	-0.162
-77.567	-200.000	-0.022	-0.113
-76.553	28.295	-0.055	0.046
-75.538	469.562	-0.067	-0.149
-74.524	1.574	0.039	0.028
-73.509	-2.180	-0.380	-0.266
-72.494	97.551	-0.071	-0.081
-71.480	103.124	0.271	-0.316
-70.465	-140.646	0.036	-0.004
-69.451	-41.932	-0.090	-0.046
-68.436	-200.000	-0.021	0.113
-67.422	-116.022	0.094	-0.017
-66.407	3.436	-0.208	0.151
-65.392	-86.360	0.217	-0.066
-64.378	-7.760	0.376	-0.253
-63.363	379.839	-0.093	0.190
-62.349	492.665	0.039	0.088
-61.334	41.242	-0.979	-0.880
-60.319	264.917	-0.168	0.290
-59.305	-200.000	-0.042	-1.153
-58.290	288.440	0.271	0.488
-57.276	349.478	0.802	1.574
-56.261	-200.000	84.396	501.064
-55.246	545.263	1386.232	3291.844
-54.232	177.485	2641.328	3823.875
-53.217	118.484	2290.803	2809.346
-52.203	48.080	1816.667	1687.613
-51.188	41.086	1622.378	1456.132
-50.173	38.648	1594.080	1413.115
-49.159	54.685	1635.640	1567.288
-48.144	58.850	1654.934	1616.115
-47.130	41.654	1616.598	1454.848
-46.115	38.438	1601.644	1418.074
-45.100	38.283	1598.443	1414.067
-44.086	38.183	1596.606	1411.657
-43.071	38.108	1594.579	1409.270
-42.057	38.113	1592.840	1407.717
-41.042	38.150	1591.387	1406.640
-40.027	38.072	1589.975	1404.778
-39.013	38.048	1588.419	1403.173
-37.998	38.169	1586.466	1402.260
-36.984	38.169	1585.347	1401.216
-35.969	38.176	1583.913	1399.941
-34.954	38.163	1582.883	1398.884
-33.940	38.074	1581.552	1397.017
-32.925	38.082	1580.109	1395.744
-31.911	38.219	1578.180	1394.964
-30.896	38.208	1577.116	1393.885
-29.881	38.197	1576.259	1392.995
-28.867	38.193	1574.711	1391.544
-27.852	38.177	1573.491	1390.294
-26.838	38.279	1570.848	1388.631
-25.823	38.185	1569.749	1386.935
-24.809	38.148	1568.035	1385.109
-23.794	38.148	1567.223	1384.330
-22.779	38.110	1565.753	1382.708
-21.765	38.262	1563.998	1382.180
-20.750	38.230	1563.037	1381.052
-19.736	38.122	1562.045	1379.359
-18.721	38.141	1560.453	1378.031
-17.706	38.126	1559.389	1376.932
-16.692	38.157	1558.019	1375.881
-15.677	38.099	1556.950	1374.476
-14.663	38.091	1555.950	1373.484
-13.648	38.028	1554.944	1372.101
-12.633	38.146	1554.103	1372.134
-11.619	38.097	1553.074	1370.824
-10.604	38.062	1552.208	1369.762
-9.590	37.930	1551.399	1368.063
-8.575	38.102	1550.385	1368.321
-7.560	38.132	1549.708	1367.881
-6.546	38.051	1548.898	1366.544
-5.531	37.980	1548.209	1365.386
-4.517	38.003	1547.292	1364.682
-3.502	38.078	1545.887	1363.912
-2.487	38.066	1544.643	1362.678
-1.473	38.077	1543.251	1361.474
-0.458	38.142	1541.749	1360.548
0.556	35.666	1531.813	1348.523
1.571	32.579	1502.445	1301.267
2.586	28.503	1435.233	1215.983
3.600	26.356	1347.240	1127.955
4.615	24.950	1299.820	1079.684
5.629	22.168	1241.980	1015.500
6.644	11.756	1148.663	883.180
7.659	1.825	1100.043	794.167
8.673	-0.027	1093.146	779.517
9.688	-0.267	1090.252	776.145
10.702	-0.475	1089.236	774.278
11.717	-0.340	1087.118	773.399
12.731	3.992	1092.721	799.735
13.746	13.995	1107.841	862.908
14.761	17.703	1111.462	884.935
15.775	14.927	1106.468	866.517
16.790	13.733	1103.529	857.963
17.804	13.359	1102.304	855.006
18.819	13.086	1101.456	852.859
19.834	13.050	1101.106	852.327
20.848	13.021	1100.201	851.405
21.863	12.838	1099.170	849.584
22.877	12.892	1098.671	849.405
23.892	12.689	1098.248	847.955
24.907	12.702	1097.349	847.255
25.921	12.657	1096.660	846.413
26.936	12.626	1095.790	845.510
27.950	12.721	1094.315	844.785
28.965	12.805	1093.270	844.334
29.980	12.760	1091.775	842.875
30.994	12.756	1089.973	841.388
32.009	12.761	1088.998	840.586
33.023	12.835	1088.180	840.259
34.038	12.733	1087.429	839.085
35.053	12.697	1086.716	838.276
36.067	12.761	1085.724	837.760
37.082	12.760	1084.858	837.015
38.096	12.829	1083.873	836.532
39.111	12.846	1082.799	835.713
40.126	12.911	1081.734	835.147
41.140	12.817	1080.615	833.734
42.155	12.814	1079.139	832.505
43.169	12.628	1078.667	831.132
44.184	12.765	1077.201	830.617
45.199	12.854	1075.505	829.686
46.213	12.769	1074.681	828.545
47.228	12.706	1073.903	827.558
48.242	12.869	1072.257	827.032
49.257	12.637	1071.791	825.437
50.271	12.884	1069.760	825.038
51.286	12.790	1069.185	824.052
52.301	12.728	1068.698	823.292
53.315	12.859	1067.263	822.768
54.330	12.897	1066.493	822.289
55.344	12.776	1065.643	820.958
56.359	12.781	1064.521	820.050
57.374	12.786	1063.707	819.373
58.388	12.871	1062.360	818.686
59.403	12.814	1062.102	818.130
60.417	12.833	1061.116	817.394
61.432	12.766	1060.736	816.694
62.447	12.767	1059.424	815.616
63.461	12.803	1058.868	815.294
64.476	12.697	1057.911	813.963
65.490	12.822	1056.990	813.799
66.505	12.789	1055.910	812.735
67.520	12.806	1055.133	812.148
68.534	12.733	1054.274	811.053
69.549	12.800	1053.471	810.695
70.563	12.685	1052.900	809.618
71.578	12.808	1052.028	809.483
72.593	12.824	1050.988	808.690
73.607	12.752	1049.708	807.279
74.622	12.789	1048.681	806.599
75.636	12.682	1048.303	805.713
76.651	12.784	1047.287	805.361
77.666	12.887	1045.997	804.798
78.680	12.754	1045.320	803.556
79.695	12.860	1045.201	803.912
80.709	12.733	1044.705	802.843
81.724	12.883	1043.281	802.406
82.739	12.819	1042.488	801.411
83.753	12.833	1042.000	801.034
84.768	12.857	1040.893	800.228
85.782	12.819	1039.687	799.048
86.797	12.900	1038.822	798.706
87.812	12.915	1037.713	797.853
88.826	12.875	1036.897	796.961
89.841	12.836	1036.177	796.150
90.855	12.922	1035.115	795.681
91.870	12.946	1034.801	795.482
92.884	12.969	1033.688	794.669
93.899	12.938	1032.600	793.611
94.914	12.906	1031.903	792.850
95.928	13.074	1030.868	792.791
96.943	12.821	1030.616	791.314
97.957	12.864	1029.682	790.734
98.972	12.858	1028.765	789.932
99.987	12.844	1027.583	788.888
101.001	12.857	1026.905	788.357
102.016	12.828	1026.104	787.537
103.030	12.979	1025.106	787.420
104.045	12.917	1023.883	786.117
105.060	12.962	1022.395	785.117
106.074	12.837	1021.294	783.610
107.089	12.885	1020.782	783.373
108.103	13.005	1020.028	783.295
109.118	12.999	1018.895	782.328
110.133	12.862	1018.375	781.209
111.147	12.963	1017.286	780.787
112.162	12.898	1016.152	779.539
113.176	12.903	1015.074	778.667
114.191	12.871	1014.066	777.670
115.206	12.917	1012.721	776.789
116.220	12.874	1011.728	775.757
117.235	12.826	1010.476	774.501
118.249	12.964	1009.891	774.634
119.264	12.943	1009.115	773.869
120.279	12.789	1008.386	772.522
121.293	12.943	1007.209	772.274
122.308	12.802	1006.682	771.140
123.322	12.944	1005.708	770.988
124.337	12.986	1003.936	769.758
125.352	12.966	1003.093	768.949
126.366	12.866	1001.435	767.148
127.381	12.646	1000.462	765.310
128.395	12.758	999.648	765.141
129.410	12.939	998.527	765.055
130.424	12.933	997.710	764.333
131.439	12.972	996.170	763.267
132.454	12.881	995.600	762.342
133.468	13.028	994.836	762.366
134.483	13.035	993.984	761.680
135.497	13.051	993.004	760.934
136.512	13.100	991.908	760.251
137.527	13.093	991.453	759.805
138.541	12.998	990.750	758.764
139.556	12.972	989.789	757.840
140.570	12.961	988.865	757.016
141.585	12.879	987.928	755.856
142.600	12.897	987.018	755.175
143.614	12.927	986.082	754.529
144.629	12.963	985.283	754.017
145.643	13.085	984.127	753.620
146.658	12.988	983.564	752.679
147.673	12.980	982.023	751.399
148.687	12.943	981.435	750.715
149.702	13.055	980.254	750.253
150.716	12.977	979.203	749.028
151.731	12.979	978.162	748.172
152.746	13.027	977.655	747.938
153.760	13.008	977.240	747.466
154.775	12.825	976.864	746.285
155.789	13.014	975.478	746.015
156.804	13.019	974.184	744.983
157.819	12.999	973.607	744.383
158.833	12.933	972.954	743.520
159.848	12.997	972.105	743.095
160.862	12.981	971.378	742.403
161.877	13.041	970.093	741.625
162.892	12.893	969.819	740.683
163.906	13.001	968.747	740.285
164.921	13.077	967.803	739.840
165.935	13.092	966.720	739.010
166.950	12.994	965.806	737.809
167.964	13.108	964.773	737.466
168.979	13.111	963.571	736.493
169.994	13.020	962.935	735.537
171.008	12.997	962.077	734.713
172.023	13.091	960.862	734.139
173.037	13.115	960.083	733.588
174.052	13.011	958.705	732.007
175.067	12.988	958.399	731.608
176.081	12.950	957.833	730.942
177.096	13.067	956.664	730.502
178.110	13.181	955.668	730.182
179.125	12.951	955.036	728.619
180.140	12.972	953.951	727.820
181.154	13.013	953.076	727.267
182.169	13.093	952.361	727.011
183.183	13.008	952.180	726.434
184.198	13.066	951.052	725.761
185.213	13.049	950.431	725.152
186.227	13.068	949.422	724.399
187.242	13.191	948.755	724.364
188.256	13.138	948.067	723.543
189.271	13.131	947.141	722.743
190.286	13.171	946.167	722.112
191.300	13.265	944.967	721.541
192.315	13.180	944.464	720.725
193.329	13.091	943.820	719.778
194.344	12.863	943.320	718.342
195.359	12.979	942.627	718.254
196.373	13.127	941.957	718.324
197.388	13.135	941.745	718.135
198.402	13.106	940.541	717.026
199.417	13.050	940.202	716.461
200.432	13.060	939.637	716.013
201.446	13.264	938.813	716.202
202.461	13.064	938.320	714.897
203.475	13.177	937.702	714.853
204.490	13.101	936.715	713.707
205.504	12.919	936.057	712.358
206.519	13.104	935.070	712.343
207.534	13.219	934.848	712.607
208.548	13.100	934.098	711.458
209.563	13.190	933.361	711.221
210.577	13.215	932.597	710.686
211.592	13.138	932.143	709.945
212.607	13.290	931.069	709.715
213.621	13.377	930.678	709.729
214.636	13.296	929.776	708.628
215.650	13.398	928.991	708.407
216.665	13.313	928.427	707.548
217.680	13.339	927.757	707.087
218.694	13.367	926.861	706.460
219.709	13.153	926.765	705.410
220.723	13.351	925.722	705.399
221.738	13.341	925.097	704.819
222.753	13.388	923.965	704.092
223.767	13.241	923.762	703.252
224.782	13.331	922.678	702.746
225.796	13.381	921.520	702.013
226.811	13.408	920.638	701.397
227.826	13.293	920.066	700.410
228.840	13.265	919.352	699.684
229.855	13.329	918.823	699.494
230.869	13.201	918.102	698.339
231.884	13.251	917.325	697.901
232.899	13.299	916.707	697.570
233.913	13.380	915.908	697.239
234.928	13.425	914.879	696.585
235.942	13.375	914.368	695.925
236.957	13.399	913.901	695.608
237.972	13.457	912.776	694.935
238.986	13.424	912.286	694.361
240.001	13.363	911.949	693.789
241.015	13.487	910.926	693.467
242.030	13.414	910.302	692.627
243.045	13.491	909.632	692.377
244.059	13.581	908.527	691.849
245.074	13.387	908.442	690.915
246.088	13.433	907.583	690.393
247.103	13.384	907.208	689.843
248.117	13.432	906.078	689.119
249.132	13.512	905.249	688.763
250.147	13.500	904.677	688.215
251.161	13.462	903.849	687.368
252.176	13.578	903.184	687.282
253.190	13.495	902.256	686.172
254.205	13.439	901.847	685.568
255.220	13.547	901.124	685.403
256.234	13.454	900.384	684.397
257.249	13.489	899.844	684.069
258.263	13.529	899.232	683.710
259.278	13.563	898.380	683.141
260.293	13.529	897.838	682.529
261.307	13.521	897.377	682.085
262.322	13.599	896.492	681.673
263.336	13.617	895.725	681.103
264.351	13.713	894.886	680.797
265.366	13.613	894.612	680.120
266.380	13.619	893.553	679.279
267.395	13.569	892.960	678.563
268.409	13.712	891.999	678.359
269.424	13.755	891.388	678.009
270.439	13.719	890.705	677.281
271.453	13.663	889.947	676.418
272.468	13.605	889.258	675.596
273.482	13.623	888.578	675.094
274.497	13.574	887.877	674.301
275.512	13.582	887.119	673.700
276.526	13.632	886.309	673.227
277.541	13.668	885.274	672.526
278.555	13.589	885.102	672.016
279.570	13.713	884.343	671.885
280.585	13.686	883.775	671.283
281.599	13.776	882.975	670.982
282.614	13.790	882.041	670.267
283.628	13.601	881.777	669.244
284.643	13.727	880.993	669.099
285.657	13.798	880.725	669.125
286.672	13.631	880.407	668.149
287.687	13.719	879.437	667.708
288.701	13.681	879.029	667.187
289.716	13.688	878.205	666.530
290.730	13.750	877.725	666.358
291.745	13.729	877.370	665.942
292.760	13.899	876.017	665.540
293.774	13.907	875.365	665.019
294.789	13.755	875.048	664.108
295.803	13.825	873.901	663.459
296.818	13.698	873.649	662.703
297.833	13.703	872.824	662.036
298.847	13.741	872.193	661.651
299.862	13.846	871.166	661.231
300.876	13.870	870.499	660.763
301.891	13.854	869.947	660.224
302.906	13.790	869.256	659.384
303.920	13.933	868.783	659.537
304.935	13.956	867.969	658.950
305.949	13.893	867.261	658.107
306.964	13.885	866.512	657.447
307.979	13.799	866.063	656.708
308.993	13.890	865.589	656.652
310.008	13.908	864.922	656.157
311.022	13.870	864.042	655.281
312.037	13.961	863.766	655.371
313.052	13.996	863.032	654.895
314.066	13.935	862.713	654.357
315.081	13.990	861.913	653.907
316.095	14.115	861.251	653.838
317.110	14.024	860.942	653.189
318.125	14.008	860.189	652.498
319.139	13.991	859.773	652.056
320.154	14.004	859.674	651.974
321.168	14.145	858.849	651.845
322.183	14.103	858.176	651.112
323.197	14.131	857.605	650.731
324.212	13.921	856.993	649.388
325.227	14.005	856.214	649.068
326.241	14.032	855.521	648.590
327.256	13.866	855.736	648.046
328.270	13.956	854.649	647.520
329.285	14.098	853.927	647.465
330.300	13.971	853.358	646.482
331.314	14.020	852.970	646.322
332.329	13.924	852.205	645.313
333.343	14.029	851.352	645.018
334.358	14.057	850.527	644.444
335.373	13.988	850.308	643.952
336.387	14.023	849.681	643.559
337.402	13.926	849.035	642.637
338.416	13.891	848.517	642.051
339.431	14.025	847.697	641.891
340.446	13.959	846.786	640.891
341.460	13.827	846.809	640.342
342.475	14.011	846.214	640.545
343.489	14.069	845.470	640.149
344.504	14.013	844.674	639.273
345.519	14.077	844.283	639.167
346.533	14.022	843.607	638.390
347.548	14.118	842.843	638.122
348.562	14.017	842.327	637.288
349.577	13.858	842.178	636.508
350.592	14.012	841.267	636.353
351.606	13.971	840.775	635.766
352.621	13.854	840.967	635.409
353.635	14.156	840.140	635.881
354.650	14.108	839.482	635.145
355.665	14.175	838.859	634.875
356.679	14.349	838.898	635.511
357.694	14.334	838.229	634.892
358.708	14.186	837.762	633.914
359.723	14.332	836.889	633.756
360.738	14.150	836.359	632.606
361.752	14.099	835.602	631.784
362.767	14.101	835.163	631.403
363.781	14.062	834.920	631.018
364.796	13.958	834.524	630.268
365.810	14.035	833.365	629.625
366.825	13.979	833.061	629.129
367.840	14.046	832.640	629.010
368.854	14.000	832.479	628.656
369.869	14.142	831.726	628.569
370.883	14.320	831.169	628.764
371.898	14.229	830.555	627.904
372.913	14.264	830.180	627.694
373.927	14.177	829.627	626.893
374.942	14.028	829.289	626.023
375.956	14.199	827.939	625.589
376.971	14.120	827.397	624.828
377.986	14.169	826.356	624.170
379.000	14.131	826.115	623.792
380.015	13.915	825.901	622.766
381.029	14.231	824.971	623.190
382.044	14.271	824.380	622.839
383.059	14.275	823.659	622.255
384.073	14.156	823.298	621.484
385.088	14.288	822.661	621.440
386.102	13.986	822.675	620.269
387.117	13.997	822.174	619.875
388.132	14.115	821.192	619.519
389.146	14.242	821.097	619.865
390.161	14.423	820.844	620.296
391.175	14.432	819.950	619.597
392.190	14.252	819.605	618.612
393.205	14.215	819.524	618.359
394.219	14.641	819.314	619.730
395.234	15.027	819.150	620.982
396.248	15.150	818.945	621.229
397.263	14.858	818.026	619.396
398.278	14.251	816.937	616.270
399.292	14.082	816.317	615.122
400.307	14.317	815.931	615.644
401.321	14.353	815.318	615.262
402.336	14.295	814.988	614.742
403.350	14.146	814.732	613.944
404.365	14.130	813.933	613.229
405.380	14.043	813.331	612.401
406.394	14.016	812.423	611.565
407.409	13.986	812.041	611.114
408.423	13.938	811.835	610.726
409.438	14.058	811.181	610.622
410.453	14.130	810.458	610.288
411.467	14.224	809.811	610.090
412.482	14.085	809.624	609.388
413.496	14.102	808.837	608.804
414.511	14.184	808.457	608.762
415.526	14.054	808.124	607.983
416.540	14.036	807.972	607.747
417.555	14.149	807.511	607.762
418.569	14.324	806.763	607.782
419.584	14.153	806.582	606.968
420.599	14.301	805.980	607.001
421.613	150.201	1355.233	1776.257
422.628	130.491	1435.287	1776.376
