DTS Sentinel unit serial number:	SN413079Multiplexer serial number:	ORYXHardware model number:	OX4-SRSoftware version number:	ORYX F/W v4.00 Oryx Data Collector v3.7.2.0data status	okinstallation	princeton_trtdifferential loss correction	single-endedforward channel	channel 3reverse channel	N/Adate	2019/09/10time	19:26:11forward acquisition time	60.00reverse acquisition time	0.00gamma	496.2192k internal	0.2319k external	0.2319temperature offset calibration	0.9912default loss term (dB/km)	0.3790temperature slope calibration	1.0000multiplexer offset coefficient	1.0000multiplexer slope coefficient	1.0000fibre end	0.00T internal ref (°C)	33.62T ext. ref 1 (°C)	-0.34T ext. ref 2 (°C)	26.05length (m)	temperature (°C)	Stokes	anti-Stokes-747.200	109.161	-0.223	-0.270
-746.185	-81.300	-0.245	0.082
-745.171	-139.892	0.267	0.029
-744.156	-200.000	0.020	-0.196
-743.142	-200.000	0.006	-0.097
-742.127	-200.000	0.008	0.308
-741.112	-172.376	-0.182	0.006
-740.098	-49.316	-0.251	0.121
-739.083	172.853	-0.045	-0.066
-738.069	-200.000	-0.097	-0.502
-737.054	-200.000	0.008	-0.358
-736.039	-57.753	-0.271	-0.120
-735.025	-200.000	-0.035	0.216
-734.010	-98.546	0.135	0.035
-732.996	98.099	-0.133	-0.154
-731.981	-97.613	-0.464	0.122
-730.966	-131.896	-0.308	-0.041
-729.952	800.000	-0.082	-0.288
-728.937	-200.000	-0.019	-0.405
-727.923	800.000	-0.037	-0.160
-726.908	142.540	-0.053	0.071
-725.894	503.235	0.086	0.201
-724.879	8.630	-0.126	-0.096
-723.864	54.255	0.265	-0.258
-722.850	-114.830	-0.280	0.054
-721.835	546.923	-0.100	-0.243
-720.821	-67.663	-0.246	-0.097
-719.806	-117.184	-0.352	-0.065
-718.791	252.939	0.027	0.047
-717.777	-200.000	-0.062	-0.407
-716.762	-58.987	-0.294	-0.128
-715.748	800.000	0.054	0.177
-714.733	114.259	-0.132	0.162
-713.718	58.328	-0.159	-0.157
-712.704	748.501	0.098	-0.266
-711.689	470.580	0.089	-0.203
-710.675	116.192	-0.057	0.071
-709.660	96.814	0.056	0.065
-708.645	61.633	-0.240	0.241
-707.631	107.765	0.220	-0.265
-706.616	-72.508	0.087	0.033
-705.602	-200.000	-0.055	-0.371
-704.587	-50.983	-0.187	-0.089
-703.572	225.963	0.115	-0.188
-702.558	627.850	0.027	0.068
-701.543	33.758	-0.177	0.155
-700.529	93.467	-0.293	-0.335
-699.514	-200.000	0.009	-0.084
-698.499	223.241	0.076	0.124
-697.485	-200.000	-0.037	0.173
-696.470	1.849	0.191	-0.139
-695.456	372.782	0.166	0.340
-694.441	46.875	-0.188	0.177
-693.426	-86.396	0.138	-0.043
-692.412	-118.890	0.262	0.046
-691.397	800.000	-0.092	0.355
-690.383	131.474	-0.162	0.211
-689.368	162.738	0.107	-0.152
-688.354	230.405	-0.075	0.124
-687.339	-200.000	0.025	-0.177
-686.324	-145.265	-0.256	-0.023
-685.310	206.966	-0.206	-0.324
-684.295	-2.438	0.163	0.115
-683.281	427.933	0.036	0.078
-682.266	37.433	-0.126	0.112
-681.251	168.651	0.016	-0.024
-680.237	-200.000	0.115	0.001
-679.222	-153.865	0.101	0.007
-678.208	682.297	-0.032	-0.083
-677.193	-200.000	0.010	0.084
-676.178	224.257	0.173	0.282
-675.164	-75.245	-0.221	0.079
-674.149	800.000	-0.060	-0.194
-673.135	-200.000	0.005	0.026
-672.120	278.510	0.113	-0.204
-671.105	-22.732	-0.408	-0.249
-670.091	-78.779	0.215	-0.074
-669.076	52.240	-0.065	-0.062
-668.062	131.647	-0.205	-0.266
-667.047	21.968	-0.275	0.226
-666.032	-32.978	-0.115	0.064
-665.018	583.402	-0.043	0.105
-664.003	391.487	0.025	0.052
-662.989	122.647	-0.259	-0.327
-661.974	-25.031	-0.153	-0.091
-660.959	-137.426	-0.173	0.020
-659.945	-26.178	-0.261	-0.154
-658.930	-200.000	-0.026	-0.294
-657.916	-37.353	-0.110	-0.059
-656.901	-200.000	0.033	0.176
-655.886	-178.908	-0.075	0.002
-654.872	81.202	-0.197	-0.215
-653.857	-107.841	-0.135	0.030
-652.843	-129.319	-0.242	0.034
-651.828	-200.000	0.076	-0.361
-650.814	-200.000	0.022	0.121
-649.799	-99.708	-0.207	-0.052
-648.784	-80.006	-0.084	-0.028
-647.770	-78.222	-0.082	-0.028
-646.755	800.000	-0.103	-0.405
-645.741	-151.127	-0.058	-0.004
-644.726	94.322	0.077	0.088
-643.711	84.978	-0.081	0.089
-642.697	-101.034	-0.212	-0.052
-641.682	716.476	-0.058	-0.155
-640.668	586.849	-0.136	0.338
-639.653	-200.000	0.003	-0.044
-638.638	-70.122	0.148	0.057
-637.624	-83.097	-0.334	0.108
-636.609	-3.316	0.226	-0.159
-635.595	489.727	0.049	0.112
-634.580	-172.536	0.112	0.004
-633.565	-35.034	-0.405	-0.222
-632.551	800.000	0.042	0.184
-631.536	32.441	0.056	0.048
-630.522	-11.117	0.173	-0.115
-629.507	352.018	0.139	-0.277
-628.492	651.885	-0.031	0.079
-627.478	-200.000	-0.037	-0.392
-626.463	-102.215	-0.018	0.004
-625.449	-96.682	-0.161	0.043
-624.434	99.854	0.188	-0.220
-623.419	-82.852	-0.127	0.041
-622.405	-200.000	-0.025	-0.172
-621.390	-83.494	-0.090	0.029
-620.376	-8.609	0.056	-0.038
-619.361	-100.283	-0.173	-0.043
-618.346	66.226	-0.142	-0.145
-617.332	-6.462	0.257	-0.176
-616.317	-200.000	-0.004	-0.144
-615.303	-12.960	0.275	0.180
-614.288	800.000	0.103	-0.306
-613.273	160.551	0.080	-0.113
-612.259	-89.353	-0.069	0.021
-611.244	-67.052	0.394	0.156
-610.230	-200.000	0.025	-0.226
-609.215	-52.637	-0.100	-0.047
-608.201	-135.557	0.395	0.047
-607.186	-150.775	-0.240	0.018
-606.171	-96.323	0.039	0.011
-605.157	800.000	-0.031	0.114
-604.142	460.622	0.089	-0.200
-603.128	21.674	0.122	0.100
-602.113	19.425	0.283	0.229
-601.098	214.059	-0.180	0.286
-600.084	496.156	0.096	-0.221
-599.069	29.208	0.102	0.087
-598.055	341.287	-0.135	-0.266
-597.040	-81.655	0.280	0.092
-596.025	-200.000	-0.031	-0.168
-595.011	-110.295	-0.302	0.063
-593.996	-86.488	-0.185	0.057
-592.982	332.712	0.068	-0.132
-591.967	196.752	0.138	-0.212
-590.952	-63.289	0.103	0.043
-589.938	172.171	0.064	-0.093
-588.923	237.709	0.228	-0.381
-587.909	34.612	0.180	-0.158
-586.894	449.147	0.116	-0.256
-585.879	-143.869	-0.358	-0.034
-584.865	-80.156	-0.316	0.107
-583.850	-57.071	0.132	-0.059
-582.836	-149.565	0.260	-0.021
-581.821	8.753	-0.116	-0.088
-580.806	-200.000	0.022	0.300
-579.792	800.000	-0.147	0.500
-578.777	-44.839	-0.032	0.016
-577.763	677.330	-0.107	-0.278
-576.748	800.000	-0.060	-0.210
-575.733	-200.000	0.023	0.375
-574.719	36.481	-0.094	0.084
-573.704	372.671	-0.153	0.312
-572.690	-113.985	-0.172	-0.034
-571.675	18.892	-0.398	-0.320
-570.661	55.560	0.231	-0.225
-569.646	-89.890	0.168	-0.049
-568.631	4.211	-0.199	-0.146
-567.617	-68.735	0.099	-0.039
-566.602	-112.092	0.273	0.055
-565.588	800.000	0.079	0.222
-564.573	284.048	-0.093	0.167
-563.558	-200.000	0.003	-0.215
-562.544	-117.768	-0.358	-0.065
-561.529	148.927	0.250	0.340
-560.515	-64.296	0.357	-0.146
-559.500	-77.382	-0.308	0.107
-558.485	800.000	-0.039	-0.119
-557.471	178.671	-0.080	0.118
-556.456	69.846	-0.236	-0.244
-555.442	46.814	0.009	-0.009
-554.427	-148.686	0.261	0.021
-553.412	240.731	0.147	-0.247
-552.398	-79.018	0.312	0.107
-551.383	-200.000	-0.021	-0.197
-550.369	-200.000	-0.004	-0.132
-549.354	-200.000	0.013	0.169
-548.339	-200.000	0.004	-0.225
-547.325	-200.000	0.029	-0.170
-546.310	-83.543	-0.205	-0.066
-545.296	800.000	-0.060	-0.202
-544.281	-87.326	-0.208	-0.063
-543.266	-63.700	-0.168	0.069
-542.252	418.117	0.042	0.089
-541.237	-48.680	-0.152	-0.073
-540.223	-200.000	-0.044	0.321
-539.208	-13.596	-0.406	0.264
-538.193	16.748	0.229	0.182
-537.179	-88.149	-0.243	0.073
-536.164	-53.630	0.264	0.121
-535.150	145.210	0.092	0.124
-534.135	475.044	-0.116	-0.264
-533.121	800.000	0.043	-0.146
-532.106	-200.000	0.030	-0.298
-531.091	24.272	-0.248	-0.205
-530.077	-182.877	-0.326	0.006
-529.062	-53.870	0.282	0.129
-528.048	48.168	-0.214	0.201
-527.033	429.303	0.058	0.126
-526.018	269.772	-0.081	0.143
-525.004	-200.000	-0.019	0.162
-523.989	-101.180	0.261	-0.064
-522.975	157.253	-0.139	0.192
-521.960	-65.087	0.290	0.118
-520.945	12.858	0.169	0.131
-519.931	-49.034	0.229	-0.110
-518.916	-69.422	-0.292	-0.112
-517.902	800.000	-0.135	-0.506
-516.887	-200.000	0.019	0.233
-515.872	-27.099	-0.239	0.140
-514.858	400.402	0.061	-0.129
-513.843	-84.046	0.288	-0.092
-512.829	101.604	-0.199	0.232
-511.814	-91.958	-0.183	-0.052
-510.799	314.587	-0.048	0.091
-509.785	-200.000	0.043	-0.252
-508.770	-67.228	-0.114	0.045
-507.756	405.878	-0.100	0.211
-506.741	87.925	-0.123	0.137
-505.726	46.487	-0.144	-0.134
-504.712	93.453	0.113	-0.129
-503.697	-62.422	0.260	-0.108
-502.683	100.748	0.111	-0.129
-501.668	-200.000	-0.004	0.091
-500.653	-82.999	-0.177	0.057
-499.639	-147.581	-0.259	-0.022
-498.624	98.235	-0.176	0.203
-497.610	800.000	-0.051	-0.189
-496.595	-25.825	-0.355	-0.210
-495.581	152.462	-0.109	-0.149
-494.566	-75.628	-0.238	0.085
-493.551	800.000	-0.064	-0.232
-492.537	800.000	0.123	-0.368
-491.522	-136.300	-0.048	0.006
-490.508	58.288	0.243	-0.239
-489.493	-118.218	0.230	-0.041
-488.478	477.973	0.041	-0.093
-487.464	-200.000	-0.034	0.204
-486.449	800.000	0.077	-0.301
-485.435	-200.000	-0.003	-0.150
-484.420	-105.631	-0.159	0.036
-483.405	-54.925	0.155	-0.070
-482.391	-96.845	0.274	-0.072
-481.376	-95.850	-0.378	-0.101
-480.362	355.726	0.100	0.198
-479.347	-174.109	-0.078	-0.002
-478.332	200.770	0.174	-0.268
-477.318	-88.944	0.248	-0.074
-476.303	-96.370	0.083	0.022
-475.289	-200.000	-0.021	-0.171
-474.274	-200.000	-0.012	0.429
-473.259	110.580	0.114	0.137
-472.245	-66.076	-0.335	-0.134
-471.230	539.801	-0.110	-0.262
-470.216	683.323	-0.033	-0.087
-469.201	167.945	0.047	-0.067
-468.186	97.950	0.073	-0.084
-467.172	-159.294	-0.313	0.018
-466.157	153.243	-0.144	-0.197
-465.143	800.000	0.053	-0.167
-464.128	-64.618	-0.329	0.133
-463.113	63.370	-0.073	-0.073
-462.099	800.000	-0.042	-0.176
-461.084	15.212	0.172	-0.135
-460.070	9.157	-0.385	-0.291
-459.055	-200.000	0.012	0.085
-458.040	-40.570	-0.114	-0.059
-457.026	204.765	0.154	-0.238
-456.011	49.180	0.167	-0.157
-454.997	21.041	0.103	-0.084
-453.982	-200.000	-0.034	0.266
-452.968	-200.000	-0.007	0.082
-451.953	-129.354	-0.173	-0.024
-450.938	24.897	0.252	0.209
-449.924	164.877	-0.178	0.251
-448.909	-116.934	0.394	0.072
-447.895	-96.321	-0.311	-0.082
-446.880	-200.000	-0.004	0.047
-445.865	167.505	-0.047	-0.067
-444.851	-96.121	0.071	0.019
-443.836	179.425	0.008	-0.011
-442.822	-200.000	-0.047	-0.241
-441.807	-155.994	0.129	-0.008
-440.792	572.374	-0.191	0.466
-439.778	-23.962	-0.118	-0.070
-438.763	-84.348	0.129	0.041
-437.749	276.094	0.156	0.276
-436.734	176.624	-0.127	0.184
-435.719	-36.992	0.130	0.070
-434.705	-16.346	-0.161	0.102
-433.690	-200.000	-0.069	-0.355
-432.676	556.455	-0.112	0.270
-431.661	800.000	0.072	-0.206
-430.646	524.022	0.072	-0.168
-429.632	54.334	0.210	0.202
-428.617	-111.292	-0.175	-0.036
-427.603	264.038	-0.070	-0.122
-426.588	7.762	0.132	0.099
-425.573	235.102	0.077	-0.127
-424.559	191.044	-0.204	-0.307
-423.544	163.180	-0.046	-0.065
-422.530	-111.882	-0.336	-0.068
-421.515	800.000	-0.036	0.125
-420.500	-20.046	-0.202	0.125
-419.486	-156.526	0.153	0.009
-418.471	-58.323	0.121	-0.052
-417.457	96.409	0.193	0.220
-416.442	-200.000	0.036	-0.302
-415.428	531.562	0.108	-0.256
-414.413	474.603	0.074	0.166
-413.398	-49.572	0.161	-0.077
-412.384	-4.378	-0.169	-0.117
-411.369	6.209	-0.155	-0.115
-410.355	-109.580	-0.459	-0.097
-409.340	76.515	-0.062	-0.065
-408.325	214.805	0.245	0.388
-407.311	800.000	0.048	-0.170
-406.296	248.713	0.197	0.334
-405.282	-200.000	0.014	0.087
-404.267	-9.747	-0.073	0.048
-403.252	-56.087	0.199	-0.088
-402.238	452.426	-0.043	-0.095
-401.223	-31.459	-0.236	-0.133
-400.209	397.497	0.086	-0.181
-399.194	128.593	0.093	0.118
-398.179	-200.000	-0.058	0.260
-397.165	53.259	0.079	0.076
-396.150	263.677	-0.148	-0.256
-395.136	-92.044	0.406	0.115
-394.121	622.297	-0.093	-0.233
-393.106	-105.272	0.388	-0.088
-392.092	-200.000	0.001	0.024
-391.077	-2.111	-0.027	0.019
-390.063	-200.000	0.026	0.117
-389.048	-200.000	0.013	0.223
-388.033	285.521	-0.116	-0.209
-387.019	800.000	0.055	-0.234
-386.004	-30.925	0.192	-0.108
-384.990	-47.118	-0.148	0.072
-383.975	165.828	-0.183	-0.258
-382.960	-107.574	0.310	-0.068
-381.946	15.295	0.218	0.170
-380.931	250.759	-0.117	0.198
-379.917	297.831	-0.070	-0.128
-378.902	-160.884	-0.147	-0.008
-377.888	-149.034	0.321	-0.026
-376.873	96.205	-0.158	-0.180
-375.858	-159.724	-0.123	0.007
-374.844	-174.269	-0.210	0.006
-373.829	-75.472	0.229	0.081
-372.815	441.761	-0.063	0.137
-371.800	228.634	0.151	0.246
-370.785	-70.116	0.159	-0.060
-369.771	-76.007	0.127	0.045
-368.756	86.952	-0.179	0.197
-367.742	-200.000	-0.383	-0.001
-366.727	-200.000	-0.029	0.264
-365.712	127.290	-0.124	-0.157
-364.698	2.661	0.202	0.146
-363.683	-100.062	0.226	-0.056
-362.669	-149.266	0.097	-0.008
-361.654	-36.859	-0.257	0.137
-360.639	-64.000	-0.350	-0.142
-359.625	-200.000	0.045	0.196
-358.610	87.033	0.206	-0.227
-357.596	-200.000	0.013	-0.376
-356.581	-148.129	-0.223	0.018
-355.566	-54.207	0.256	0.116
-354.552	-55.267	0.335	0.150
-353.537	6.685	0.151	0.112
-352.523	363.957	0.017	0.034
-351.508	31.042	0.125	-0.107
-350.493	372.673	0.215	-0.434
-349.479	-56.243	-0.135	0.060
-348.464	-170.430	-0.068	-0.002
-347.450	-200.000	-0.004	0.267
-346.435	-139.559	0.145	-0.015
-345.420	-197.783	-0.158	-0.001
-344.406	-200.000	-0.045	0.208
-343.391	75.968	-0.305	-0.321
-342.377	119.676	0.191	-0.236
-341.362	437.789	0.059	-0.127
-340.348	-80.825	-0.301	-0.099
-339.333	-132.188	0.175	-0.023
-338.318	-122.442	0.092	-0.015
-337.304	46.441	0.263	0.243
-336.289	283.607	0.102	0.183
-335.275	93.241	-0.193	-0.217
-334.260	-179.410	0.345	-0.008
-333.245	441.711	0.189	0.411
-332.231	47.383	-0.168	0.155
-331.216	196.682	0.070	0.107
-330.202	-200.000	-0.003	0.046
-329.187	-20.620	-0.199	-0.122
-328.172	360.799	-0.012	0.024
-327.158	-50.489	0.252	0.118
-326.143	-67.658	0.237	-0.092
-325.129	-8.799	0.221	0.147
-324.114	-100.647	0.208	0.051
-323.099	-149.007	0.131	0.010
-322.085	514.995	-0.192	0.447
-321.070	-200.000	-0.047	0.218
-320.056	-27.692	0.363	0.210
-319.041	159.319	-0.117	0.162
-318.026	27.512	-0.117	0.098
-317.012	-76.951	-0.325	-0.113
-315.997	-114.443	-0.218	-0.042
-314.983	-94.392	0.108	0.029
-313.968	146.161	-0.072	-0.096
-312.953	27.769	-0.354	0.297
-311.939	60.544	0.074	0.072
-310.924	-200.000	0.001	0.233
-309.910	-169.765	0.173	0.006
-308.895	800.000	0.062	0.195
-307.880	800.000	0.046	-0.177
-306.866	414.674	-0.068	-0.144
-305.851	697.583	-0.141	-0.367
-304.837	-45.018	-0.184	0.091
-303.822	-50.636	0.361	0.169
-302.807	-200.000	-0.028	-0.151
-301.793	180.868	0.224	0.327
-300.778	800.000	0.050	0.169
-299.764	-86.666	-0.061	-0.019
-298.749	-129.903	-0.110	-0.015
-297.735	226.842	-0.079	-0.128
-296.720	-64.008	0.263	-0.107
-295.705	525.526	0.172	0.402
-294.691	270.636	-0.077	0.134
-293.676	800.000	0.066	0.206
-292.662	-11.587	-0.134	-0.087
-291.647	800.000	0.085	-0.350
-290.632	-200.000	0.027	-0.154
-289.618	175.083	-0.029	-0.042
-288.603	-58.925	0.153	-0.066
-287.589	309.304	-0.012	0.022
-286.574	800.000	0.084	0.289
-285.559	-200.000	0.025	-0.115
-284.545	800.000	-0.055	-0.160
-283.530	-105.569	-0.325	0.073
-282.516	800.000	-0.014	-0.048
-281.501	-173.532	-0.437	-0.013
-280.486	-87.749	0.292	0.087
-279.472	286.000	-0.157	-0.282
-278.457	-13.765	-0.196	-0.126
-277.443	-68.791	-0.198	0.076
-276.428	88.357	0.120	0.132
-275.413	-200.000	0.001	0.338
-274.399	-200.000	-0.026	0.217
-273.384	176.274	-0.066	0.096
-272.370	-157.496	-0.225	0.013
-271.355	-176.941	0.491	0.012
-270.340	162.216	-0.141	0.196
-269.326	-118.610	0.243	0.043
-268.311	-136.785	0.063	-0.007
-267.297	800.000	-0.046	0.177
-266.282	-58.093	0.254	0.110
-265.267	-75.362	-0.149	0.053
-264.253	91.063	-0.092	0.103
-263.238	-200.000	-0.034	-0.187
-262.224	800.000	0.025	0.073
-261.209	38.974	-0.276	-0.245
-260.195	-200.000	-0.020	-0.234
-259.180	-200.000	-0.004	-0.154
-258.165	-200.000	0.002	0.390
-257.151	-74.929	0.158	-0.056
-256.136	17.875	0.054	0.043
-255.122	-113.475	0.032	-0.006
-254.107	619.414	0.032	0.079
-253.092	16.933	-0.246	-0.193
-252.078	109.234	-0.129	0.154
-251.063	-200.000	0.057	0.404
-250.049	-200.000	0.007	-0.217
-249.034	-200.000	0.035	0.205
-248.019	800.000	0.093	0.344
-247.005	109.770	0.049	0.058
-245.990	-200.000	0.027	-0.216
-244.976	164.195	0.099	0.139
-243.961	800.000	0.040	-0.120
-242.946	347.051	-0.188	-0.366
-241.932	88.141	0.171	-0.188
-240.917	137.091	-0.157	0.203
-239.903	-92.992	0.191	0.053
-238.888	580.532	-0.086	0.209
-237.873	21.775	0.222	0.179
-236.859	-200.000	-0.004	0.335
-235.844	-200.000	0.017	-0.350
-234.830	-200.000	0.074	-0.383
-233.815	-41.589	-0.239	0.122
-232.800	-70.302	-0.128	0.048
-231.786	-13.510	0.148	0.095
-230.771	0.180	0.057	-0.040
-229.757	63.634	-0.142	-0.142
-228.742	110.880	0.076	0.090
-227.727	-200.000	0.376	0.001
-226.713	62.036	-0.242	0.239
-225.698	486.767	0.096	-0.218
-224.684	274.845	0.042	-0.074
-223.669	201.601	0.131	0.200
-222.655	-200.000	0.002	0.311
-221.640	-140.346	-0.240	0.025
-220.625	800.000	-0.018	0.062
-219.611	20.572	0.238	-0.191
-218.596	-200.000	-0.033	0.358
-217.582	-160.328	0.049	0.003
-216.567	195.353	-0.193	-0.290
-215.552	-93.471	0.234	0.064
-214.538	38.819	-0.277	-0.245
-213.523	-200.000	0.015	-0.115
-212.509	495.110	0.028	0.063
-211.494	800.000	-0.015	-0.057
-210.479	-60.193	0.131	-0.055
-209.465	-200.000	0.081	0.412
-208.450	317.342	0.233	0.436
-207.436	800.000	0.031	-0.088
-206.421	143.628	-0.134	-0.176
-205.406	-24.415	-0.260	0.153
-204.392	800.000	0.054	0.170
-203.377	800.000	-0.046	-0.172
-202.363	-101.128	0.307	-0.074
-201.348	473.509	0.178	0.398
-200.333	366.798	-0.049	0.099
-199.319	145.204	0.047	0.062
-198.304	-8.195	-0.148	-0.099
-197.290	31.883	0.202	-0.172
-196.275	-200.000	0.009	0.162
-195.260	-61.979	0.240	0.099
-194.246	-51.311	0.288	0.133
-193.231	-200.000	0.042	0.322
-192.217	94.708	-0.169	-0.190
-191.202	-56.277	0.022	-0.010
-190.187	-39.736	0.071	-0.037
-189.173	-30.153	-0.086	0.048
-188.158	326.945	-0.183	0.347
-187.144	-72.420	-0.189	0.069
-186.129	37.058	0.174	-0.152
-185.114	-25.868	-0.121	-0.070
-184.100	-99.487	0.208	0.052
-183.085	-92.656	-0.281	-0.078
-182.071	182.332	-0.197	-0.287
-181.056	-149.543	0.179	0.014
-180.042	195.104	0.061	-0.092
-179.027	47.565	0.158	-0.145
-178.012	237.117	-0.101	-0.166
-176.998	800.000	-0.014	-0.053
-175.983	-10.263	0.165	0.108
-174.969	-52.724	-0.146	-0.067
-173.954	68.104	0.275	0.279
-172.939	-200.000	-0.049	-0.393
-171.925	-82.530	0.176	-0.056
-170.910	444.179	-0.145	-0.316
-169.896	9.095	-0.148	0.110
-168.881	800.000	-0.069	0.227
-167.866	-200.000	-0.035	-0.202
-166.852	116.232	-0.078	0.094
-165.837	-125.611	-0.149	-0.022
-164.823	77.059	0.068	0.071
-163.808	-51.697	0.232	-0.107
-162.793	-135.544	-0.165	0.019
-161.779	79.711	-0.264	0.281
-160.764	800.000	-0.108	0.322
-159.750	57.987	-0.111	0.107
-158.735	43.817	0.139	-0.126
-157.720	10.125	0.188	0.141
-156.706	205.578	0.128	0.197
-155.691	-85.090	0.306	-0.095
-154.677	197.399	-0.231	0.349
-153.662	800.000	-0.047	0.198
-152.647	0.747	0.005	0.003
-151.633	-117.195	0.120	-0.022
-150.618	800.000	0.101	0.294
-149.604	161.529	-0.166	0.230
-148.589	-200.000	0.020	-0.153
-147.574	51.469	-0.065	-0.061
-146.560	-200.000	-0.028	0.164
-145.545	-200.000	-0.035	0.281
-144.531	127.255	0.081	0.101
-143.516	-127.005	-0.079	-0.011
-142.502	-73.619	-0.294	0.106
-141.487	84.841	-0.035	0.037
-140.472	8.150	-0.162	-0.120
-139.458	-2.150	-0.338	0.235
-138.443	584.373	-0.022	-0.053
-137.429	-200.000	-0.033	-0.150
-136.414	251.611	0.054	0.090
-135.399	-200.000	-0.076	0.481
-134.385	416.035	-0.107	0.226
-133.370	54.927	-0.108	0.103
-132.356	491.931	-0.202	0.458
-131.341	-200.000	0.010	0.143
-130.326	-7.137	-0.265	0.178
-129.312	-71.964	0.408	0.150
-128.297	-60.206	-0.097	-0.041
-127.283	12.915	-0.261	-0.200
-126.268	36.146	0.409	0.356
-125.253	-163.703	-0.121	0.006
-124.239	-34.164	0.076	-0.041
-123.224	-200.000	-0.026	-0.453
-122.210	800.000	0.052	-0.193
-121.195	230.501	0.233	0.376
-120.180	-168.774	-0.173	-0.006
-119.166	-200.000	-0.223	-0.000
-118.151	-35.238	-0.054	-0.029
-117.137	-121.074	0.223	-0.037
-116.122	221.479	0.100	-0.158
-115.107	-162.976	-0.300	0.014
-114.093	-1.216	0.257	0.179
-113.078	46.677	0.278	-0.254
-112.064	526.925	0.108	-0.252
-111.049	-200.000	0.066	-0.285
-110.034	-200.000	-0.002	0.182
-109.020	-148.200	-0.271	-0.022
-108.005	800.000	-0.028	-0.082
-106.991	363.447	-0.047	-0.094
-105.976	-146.393	-0.116	-0.010
-104.962	-102.835	0.292	0.068
-103.947	69.131	-0.133	0.135
-102.932	-200.000	0.027	-0.263
-101.918	125.529	0.203	0.253
-100.903	-200.000	-0.038	-0.337
-99.889	5.323	0.316	-0.230
-98.874	354.637	0.215	0.421
-97.859	-11.655	0.265	0.172
-96.845	-135.225	-0.381	-0.045
-95.830	64.886	0.132	0.131
-94.816	-120.948	-0.278	0.046
-93.801	-59.504	-0.289	0.122
-92.786	15.529	0.040	-0.031
-91.772	-200.000	-0.007	0.180
-90.757	-55.612	0.262	0.115
-89.743	-200.000	0.001	0.253
-88.728	-99.969	0.030	-0.007
-87.713	199.709	0.145	0.220
-86.699	-149.244	0.194	0.015
-85.684	551.661	-0.065	-0.154
-84.670	465.358	-0.122	-0.269
-83.655	278.989	-0.034	-0.060
-82.640	-146.211	-0.216	-0.019
-81.626	800.000	0.075	-0.241
-80.611	143.915	-0.151	0.199
-79.597	-122.220	-0.170	-0.027
-78.582	52.496	0.089	0.084
-77.567	-103.600	0.210	-0.049
-76.553	-200.000	-0.033	0.269
-75.538	-101.520	-0.206	-0.049
-74.524	-114.249	-0.172	0.033
-73.509	-82.818	0.238	0.076
-72.494	800.000	0.090	-0.335
-71.480	-158.459	-0.230	-0.013
-70.465	-200.000	-0.024	-0.113
-69.451	-0.341	-0.167	-0.117
-68.436	800.000	0.054	0.164
-67.422	82.977	0.031	-0.033
-66.407	-83.204	0.117	0.037
-65.392	117.353	-0.127	0.154
-64.378	-200.000	0.027	0.251
-63.363	-92.076	0.017	-0.005
-62.349	-1.485	0.112	-0.078
-61.334	92.687	-0.847	-0.942
-60.319	151.363	0.553	0.742
-59.305	800.000	-0.340	-1.078
-58.290	69.331	0.713	0.723
-57.276	800.000	0.464	1.611
-56.261	-200.000	102.393	620.699
-55.246	596.591	1444.374	3522.849
-54.232	181.157	2653.394	3840.781
-53.217	116.583	2196.678	2653.209
-52.203	44.009	1725.835	1557.605
-51.188	36.832	1538.208	1338.823
-50.173	34.350	1511.420	1298.567
-49.159	53.564	1564.591	1478.014
-48.144	55.891	1583.173	1511.655
-47.130	36.981	1537.066	1338.647
-46.115	33.918	1521.189	1303.785
-45.100	33.748	1517.782	1299.652
-44.086	33.692	1516.318	1297.967
-43.071	33.596	1514.579	1295.766
-42.057	33.602	1512.875	1294.302
-41.042	33.565	1511.956	1293.212
-40.027	33.581	1510.627	1292.131
-39.013	33.694	1508.387	1290.932
-37.998	33.680	1507.453	1289.988
-36.984	33.658	1506.456	1288.936
-35.969	33.662	1505.173	1287.812
-34.954	33.601	1503.602	1286.002
-33.940	33.737	1501.816	1285.343
-32.925	33.598	1501.301	1283.911
-31.911	33.682	1500.309	1283.583
-30.896	33.749	1497.933	1281.949
-29.881	33.703	1496.961	1280.758
-28.867	33.645	1495.783	1279.306
-27.852	33.640	1494.520	1278.139
-26.838	33.674	1493.078	1277.088
-25.823	33.594	1491.817	1275.417
-24.809	33.675	1489.444	1273.884
-23.794	33.620	1488.529	1272.683
-22.779	33.589	1487.511	1271.555
-21.765	33.607	1485.841	1270.194
-20.750	33.739	1484.182	1269.612
-19.736	33.591	1483.826	1268.265
-18.721	33.549	1482.993	1267.225
-17.706	33.587	1481.437	1266.096
-16.692	33.624	1480.351	1265.365
-15.677	33.590	1479.366	1264.246
-14.663	33.528	1478.965	1263.438
-13.648	33.586	1477.864	1262.839
-12.633	33.598	1477.033	1262.153
-11.619	33.643	1475.968	1261.495
-10.604	33.599	1475.087	1260.396
-9.590	33.655	1473.922	1259.725
-8.575	33.580	1473.221	1258.577
-7.560	33.603	1472.658	1258.201
-6.546	33.558	1471.684	1257.020
-5.531	33.658	1470.303	1256.454
-4.517	33.672	1469.529	1255.833
-3.502	33.524	1468.639	1254.048
-2.487	33.505	1467.683	1253.052
-1.473	33.572	1467.015	1252.877
-0.458	33.620	1465.168	1251.568
0.556	31.101	1455.838	1239.823
1.571	27.618	1428.692	1193.833
2.586	23.700	1365.858	1116.647
3.600	21.762	1282.927	1037.296
4.615	20.674	1238.131	994.775
5.629	17.797	1183.145	934.766
6.644	8.595	1097.499	820.047
7.659	0.947	1054.964	750.400
8.673	-0.164	1048.811	740.482
9.688	-0.406	1046.154	737.346
10.702	-0.453	1044.723	736.044
11.717	-0.327	1042.342	734.921
12.731	2.703	1046.083	752.375
13.746	11.716	1059.284	806.418
14.761	18.011	1067.023	843.408
15.775	18.245	1066.215	843.850
16.790	18.062	1065.476	842.287
17.804	17.836	1064.463	840.300
18.819	17.686	1063.186	838.480
19.834	17.695	1062.476	837.892
20.848	17.760	1062.182	837.904
21.863	17.771	1061.884	837.647
22.877	17.527	1061.850	836.349
23.892	17.594	1060.784	835.764
24.907	17.518	1059.963	834.670
25.921	17.574	1059.413	834.437
26.936	17.739	1058.521	834.469
27.950	17.764	1056.851	833.201
28.965	17.731	1055.982	832.279
29.980	17.602	1054.342	830.288
30.994	17.585	1052.557	828.727
32.009	17.718	1052.079	828.921
33.023	17.775	1051.253	828.473
34.038	17.526	1050.045	826.240
35.053	17.475	1049.109	825.182
36.067	17.826	1047.724	825.721
37.082	17.685	1047.514	824.801
38.096	17.791	1047.072	824.893
39.111	17.957	1046.150	824.892
40.126	18.001	1044.854	824.012
41.140	17.862	1043.966	822.569
42.155	17.678	1042.535	820.484
43.169	17.491	1040.984	818.292
44.184	17.544	1039.687	817.452
45.199	17.568	1038.802	816.797
46.213	17.298	1038.129	814.904
47.228	17.467	1036.084	814.033
48.242	17.491	1035.771	813.834
49.257	17.484	1034.961	813.090
50.271	17.610	1033.615	812.562
51.286	17.862	1032.302	812.656
52.301	17.681	1031.940	811.437
53.315	17.639	1030.882	810.335
54.330	17.570	1030.432	809.584
55.344	17.633	1029.336	808.949
56.359	17.797	1028.198	808.760
57.374	17.701	1027.464	807.657
58.388	17.651	1026.326	806.452
59.403	17.648	1025.158	805.450
60.417	17.605	1024.887	804.962
61.432	17.411	1024.071	803.333
62.447	17.454	1023.227	802.807
63.461	17.516	1022.332	802.323
64.476	17.709	1021.398	802.427
65.490	17.648	1020.519	801.382
66.505	17.628	1019.534	800.443
67.520	17.637	1018.389	799.513
68.534	17.730	1017.651	799.299
69.549	17.510	1017.179	797.829
70.563	17.340	1016.056	796.081
71.578	17.125	1014.819	794.035
72.593	17.270	1014.226	794.178
73.607	17.182	1013.331	792.997
74.622	17.169	1012.362	792.108
75.636	17.423	1011.555	792.592
76.651	17.652	1010.581	792.824
77.666	17.387	1009.942	791.021
78.680	17.430	1008.537	790.046
79.695	17.415	1008.495	789.877
80.709	17.416	1008.096	789.499
81.724	17.542	1007.298	789.387
82.739	17.539	1005.948	788.247
83.753	17.480	1005.346	787.432
84.768	17.655	1004.571	787.562
85.782	17.889	1003.714	787.904
86.797	17.853	1003.057	787.151
87.812	17.857	1001.985	786.258
88.826	17.728	1000.822	784.681
89.841	17.892	1000.005	784.726
90.855	17.963	999.131	784.299
91.870	17.902	998.611	783.541
92.884	17.904	997.671	782.741
93.899	17.751	996.892	781.358
94.914	17.652	995.820	779.998
95.928	17.864	995.301	780.492
96.943	17.846	994.501	779.711
97.957	17.577	992.694	777.003
98.972	17.371	992.176	775.585
99.987	17.124	991.104	773.553
101.001	17.220	990.205	773.224
102.016	17.544	990.088	774.537
103.030	17.693	989.176	774.431
104.045	17.531	987.772	772.531
105.060	17.445	986.326	770.939
106.074	17.145	985.309	768.719
107.089	17.257	984.766	768.736
108.103	17.748	984.136	770.394
109.118	17.845	983.302	770.111
110.133	17.708	982.079	768.466
111.147	17.621	980.962	767.134
112.162	17.606	979.472	765.835
113.176	17.245	978.885	763.684
114.191	17.500	977.820	763.931
115.206	17.550	976.741	763.244
116.220	17.277	975.171	760.728
117.235	17.169	974.625	759.750
118.249	17.284	973.899	759.632
119.264	17.515	972.725	759.678
120.279	17.486	971.495	758.522
121.293	17.470	970.890	757.911
122.308	17.411	970.476	757.258
123.322	17.371	969.946	756.601
124.337	17.440	968.405	755.637
125.352	17.407	966.886	754.241
126.366	17.048	965.131	751.213
127.381	16.818	963.832	749.119
128.395	17.198	963.360	750.368
129.410	17.664	962.852	751.963
130.424	17.913	961.945	752.283
131.439	17.850	960.782	751.031
132.454	17.624	960.028	749.381
133.468	17.734	958.917	748.930
134.483	17.696	957.826	747.847
135.497	17.876	957.197	748.079
136.512	17.949	956.727	747.963
137.527	17.984	955.668	747.224
138.541	17.977	954.807	746.451
139.556	17.964	954.328	745.954
140.570	17.918	953.222	744.824
141.585	17.877	952.271	743.837
142.600	17.966	951.632	743.660
143.614	17.864	950.526	742.283
144.629	17.947	950.162	742.297
145.643	18.225	949.062	742.576
146.658	18.044	948.046	740.935
147.673	17.864	946.871	739.168
148.687	17.885	946.339	738.779
149.702	17.827	944.832	737.288
150.716	17.812	943.723	736.293
151.731	17.686	942.638	734.839
152.746	17.793	942.148	734.851
153.760	18.029	941.421	735.235
154.775	18.083	940.888	734.984
155.789	18.162	939.941	734.520
156.804	18.207	938.521	733.538
157.819	18.047	937.745	732.182
158.833	18.102	937.055	731.812
159.848	18.154	936.419	731.476
160.862	18.137	935.452	730.583
161.877	18.047	934.430	729.336
162.892	17.939	933.786	728.309
163.906	18.183	932.612	728.365
164.921	18.267	931.739	727.976
165.935	18.050	930.898	726.333
166.950	18.088	929.772	725.554
167.964	18.144	928.498	724.732
168.979	18.002	927.141	723.006
169.994	18.013	926.367	722.384
171.008	17.945	925.662	721.483
172.023	17.964	925.085	721.049
173.037	18.173	923.797	720.863
174.052	18.014	922.891	719.423
175.067	17.630	922.100	717.129
176.081	17.841	921.140	717.207
177.096	17.878	920.687	716.943
178.110	18.056	919.595	716.777
179.125	17.841	918.501	714.960
180.140	17.629	917.197	712.994
181.154	17.629	916.197	712.153
182.169	17.783	915.824	712.445
183.183	17.774	915.542	712.124
184.198	18.083	915.101	713.009
185.213	18.057	914.337	712.241
186.227	18.093	913.134	711.390
187.242	17.996	913.165	710.951
188.256	18.071	912.383	710.589
189.271	18.040	911.386	709.620
190.286	18.122	910.694	709.358
191.300	18.100	909.701	708.432
192.315	17.716	908.512	705.852
193.329	17.167	906.740	702.145
194.344	16.710	905.782	699.452
195.359	17.327	905.898	702.033
196.373	18.030	906.059	704.994
197.388	18.072	906.202	705.217
198.402	17.925	905.203	703.773
199.417	17.829	904.512	702.775
200.432	17.848	903.775	702.220
201.446	17.680	902.954	700.829
202.461	17.441	902.451	699.393
203.475	17.498	901.767	699.038
204.490	17.169	900.018	696.271
205.504	16.254	898.260	691.105
206.519	16.665	898.514	692.922
207.534	17.575	898.631	696.674
208.548	17.689	897.586	696.269
209.563	17.956	897.639	697.338
210.577	17.997	897.049	696.986
211.592	17.803	896.008	695.325
212.607	18.115	895.666	696.266
213.621	18.073	895.575	695.966
214.636	18.067	894.702	695.198
215.650	18.285	893.644	695.203
216.665	18.066	893.364	694.032
217.680	18.242	892.474	693.993
218.694	18.286	892.324	693.993
219.709	17.869	890.941	691.168
220.723	17.506	889.986	688.898
221.738	17.708	890.058	689.711
222.753	18.045	889.468	690.555
223.767	17.963	888.177	689.161
224.782	18.042	887.295	688.734
225.796	18.211	886.817	688.981
226.811	18.333	886.191	688.925
227.826	18.003	884.801	686.458
228.840	17.301	883.126	682.281
229.855	17.258	883.142	682.060
230.869	17.477	882.837	682.645
231.884	17.178	881.423	680.293
232.899	17.289	881.093	680.423
233.913	17.922	881.096	682.896
234.928	18.192	880.703	683.610
235.942	18.152	879.961	682.817
236.957	18.268	879.375	682.762
237.972	17.962	878.172	680.549
238.986	17.826	877.550	679.465
240.001	17.845	877.296	679.284
241.015	17.891	876.455	678.758
242.030	18.083	875.414	678.651
243.045	18.057	874.826	678.034
244.059	18.065	874.791	677.979
245.074	18.194	873.940	677.771
246.088	18.142	872.976	676.755
247.103	17.920	871.880	674.971
248.117	17.797	871.407	674.057
249.132	18.313	870.941	675.675
250.147	18.490	870.857	676.248
251.161	18.539	870.083	675.779
252.176	18.631	869.387	675.541
253.190	18.663	868.427	674.863
254.205	18.656	868.074	674.499
255.220	18.878	867.720	675.036
256.234	18.818	867.294	674.410
257.249	18.869	866.099	673.621
258.263	18.713	865.636	672.593
259.278	18.730	865.315	672.347
260.293	18.872	864.614	672.298
261.307	18.791	863.756	671.255
262.322	18.732	863.109	670.463
263.336	18.616	862.503	669.483
264.351	18.096	860.910	666.161
265.366	17.031	859.049	660.517
266.380	16.642	858.450	658.486
267.395	17.645	858.105	662.060
268.409	18.336	858.356	664.880
269.424	18.413	857.674	664.593
270.439	18.440	857.626	664.602
271.453	18.795	856.562	665.091
272.468	18.550	856.223	663.822
273.482	18.788	855.693	664.272
274.497	18.947	854.734	664.083
275.512	18.751	853.516	662.325
276.526	18.197	852.537	659.369
277.541	18.647	851.412	660.175
278.555	18.747	851.523	660.585
279.570	18.647	850.949	659.698
280.585	18.309	849.794	657.447
281.599	18.328	849.903	657.545
282.614	18.433	849.256	657.387
283.628	18.337	847.708	655.764
284.643	17.941	847.066	653.695
285.657	18.307	847.005	654.988
286.672	18.236	846.188	654.030
287.687	17.802	845.057	651.440
288.701	18.010	845.099	652.211
289.716	18.326	844.839	653.156
290.730	18.057	843.700	651.192
291.745	17.839	843.668	650.281
292.760	17.776	842.154	648.818
293.774	17.788	841.459	648.269
294.789	18.560	841.786	651.396
295.803	19.194	841.684	653.666
296.818	19.263	840.812	653.196
297.833	19.294	840.888	653.312
298.847	19.098	839.790	651.662
299.862	18.775	838.983	649.752
300.876	19.008	838.015	649.827
301.891	19.128	837.863	650.107
302.906	19.055	837.659	649.614
303.920	18.755	835.870	647.038
304.935	18.448	835.282	645.371
305.949	18.827	834.672	646.268
306.964	19.162	834.254	647.145
307.979	18.978	833.404	645.740
308.993	18.889	833.454	645.385
310.008	19.256	832.958	646.320
311.022	19.263	832.944	646.279
312.037	19.256	831.662	645.200
313.052	19.045	831.232	644.022
314.066	19.023	830.502	643.316
315.081	18.387	829.610	640.194
316.095	17.805	828.066	636.772
317.110	18.311	827.838	638.428
318.125	19.064	828.380	641.600
319.139	18.651	827.351	639.206
320.154	17.874	825.838	635.090
321.168	17.359	824.764	632.295
322.183	18.005	825.033	634.848
323.197	18.605	825.437	637.332
324.212	18.896	824.595	637.704
325.227	19.196	824.105	638.381
326.241	19.366	823.773	638.698
327.256	19.031	823.573	637.243
328.270	19.184	822.467	636.899
329.285	18.875	822.096	635.411
330.300	19.010	821.149	635.124
331.314	18.762	820.423	633.591
332.329	18.760	819.561	632.861
333.343	19.027	819.390	633.659
334.358	19.110	819.105	633.687
335.373	19.224	818.268	633.402
336.387	19.293	818.021	633.410
337.402	19.375	817.739	633.434
338.416	19.662	816.860	633.750
339.431	19.490	816.026	632.418
340.446	19.264	815.787	631.350
341.460	19.630	814.945	631.980
342.475	19.536	814.494	631.230
343.489	19.382	813.764	630.048
344.504	19.219	813.184	628.948
345.519	19.641	812.741	630.087
346.533	19.669	812.638	630.054
347.548	19.751	812.692	630.338
348.562	19.779	811.914	629.783
349.577	19.868	811.185	629.485
350.592	19.871	810.764	629.112
351.606	19.711	810.617	628.361
352.621	19.931	809.768	628.445
353.635	19.775	809.435	627.565
354.650	19.665	808.508	626.393
355.665	19.257	807.653	624.199
356.679	18.451	806.323	620.201
357.694	18.425	805.388	619.332
358.708	18.914	805.629	621.230
359.723	18.869	805.060	620.574
360.738	19.269	804.682	621.671
361.752	19.613	804.434	622.664
362.767	19.719	804.253	622.849
363.781	19.719	804.238	622.785
364.796	19.936	803.719	623.108
365.810	20.047	803.128	622.994
366.825	20.157	802.616	622.939
367.840	20.232	802.105	622.754
368.854	19.910	801.649	621.191
369.869	19.612	800.929	619.510
370.883	19.493	800.347	618.576
371.898	19.668	799.718	618.662
372.913	19.463	799.054	617.359
373.927	19.453	798.413	616.776
374.942	19.521	798.173	616.777
375.956	19.700	797.534	616.867
376.971	19.853	796.793	616.787
377.986	19.822	796.500	616.395
379.000	20.126	795.966	617.009
380.015	20.054	795.621	616.430
381.029	19.759	795.225	615.021
382.044	19.970	794.259	614.969
383.059	19.989	794.168	614.911
384.073	19.994	793.068	614.023
385.088	20.122	792.807	614.221
386.102	20.131	792.566	614.013
387.117	20.041	791.670	612.943
388.132	19.944	791.285	612.249
389.146	19.804	790.984	611.466
390.161	19.452	789.823	609.272
391.175	19.389	789.424	608.688
392.190	19.714	789.331	609.710
393.205	19.780	788.861	609.524
394.219	19.052	787.013	605.483
395.234	17.754	785.676	599.839
396.248	17.192	784.494	596.907
397.263	18.238	785.139	601.024
398.278	19.777	786.324	607.286
399.292	20.020	785.996	607.830
400.307	19.794	785.578	606.663
401.321	19.683	784.923	605.711
402.336	19.854	784.507	605.939
403.350	20.022	784.560	606.512
404.365	20.396	784.417	607.658
405.380	20.628	783.571	607.759
406.394	20.737	783.092	607.712
407.409	20.904	782.790	608.010
408.423	20.774	782.182	607.029
409.438	20.618	781.794	606.130
410.453	20.604	781.496	605.799
411.467	20.611	781.216	605.551
412.482	20.699	780.656	605.371
413.496	20.633	780.420	604.902
414.511	20.759	779.666	604.702
415.526	20.767	779.318	604.408
416.540	20.737	779.042	604.036
417.555	20.594	778.453	603.031
418.569	20.468	777.527	601.822
419.584	20.304	777.038	600.824
420.599	20.554	776.671	601.353
421.613	156.020	1359.487	1794.046
422.628	134.696	1444.416	1794.146
