DTS Sentinel unit serial number:	SN413079Multiplexer serial number:	ORYXHardware model number:	OX4-SRSoftware version number:	ORYX F/W v4.00 Oryx Data Collector v3.7.2.0data status	okinstallation	princeton_trtdifferential loss correction	single-endedforward channel	channel 3reverse channel	N/Adate	2019/09/10time	21:42:10forward acquisition time	60.00reverse acquisition time	0.00gamma	496.2192k internal	0.2329k external	0.2329temperature offset calibration	0.9918default loss term (dB/km)	0.3790temperature slope calibration	1.0000multiplexer offset coefficient	1.0000multiplexer slope coefficient	1.0000fibre end	0.00T internal ref (°C)	30.94T ext. ref 1 (°C)	-0.31T ext. ref 2 (°C)	24.36length (m)	temperature (°C)	Stokes	anti-Stokes-747.200	-200.000	-0.015	0.123
-746.185	213.430	-0.032	0.052
-745.171	30.332	0.111	0.096
-744.156	-6.269	-0.329	0.226
-743.142	40.599	0.087	-0.079
-742.127	-148.999	-0.285	-0.023
-741.112	-200.000	0.001	-0.426
-740.098	180.933	-0.292	0.432
-739.083	-23.905	0.110	-0.066
-738.069	-3.614	0.099	0.069
-737.054	-53.149	0.390	-0.180
-736.039	-26.365	-0.328	0.194
-735.025	-154.239	0.070	0.005
-734.010	-200.000	-0.003	-0.280
-732.996	40.898	0.073	-0.066
-731.981	-129.737	-0.300	-0.042
-730.966	800.000	-0.091	-0.326
-729.952	255.393	0.090	-0.155
-728.937	-20.834	-0.246	-0.152
-727.923	-19.267	-0.333	-0.208
-726.908	-200.000	-0.026	-0.300
-725.894	800.000	-0.008	-0.023
-724.879	33.186	-0.064	-0.055
-723.864	163.163	0.095	0.134
-722.850	800.000	0.141	0.486
-721.835	-24.904	0.097	-0.058
-720.821	-54.641	-0.298	-0.136
-719.806	-158.986	-0.274	-0.016
-718.791	-72.544	-0.562	-0.209
-717.777	-200.000	-0.081	-0.468
-716.762	-91.508	-0.349	-0.100
-715.748	-88.595	-0.233	-0.070
-714.733	423.341	0.069	-0.149
-713.718	-152.955	0.124	-0.009
-712.704	112.665	0.219	0.267
-711.689	106.065	0.284	0.338
-710.675	10.687	-0.185	0.142
-709.660	-200.000	-0.015	0.069
-708.645	-1.346	0.252	-0.179
-707.631	51.827	-0.022	0.021
-706.616	1.598	0.199	0.144
-705.602	0.329	-0.062	-0.044
-704.587	151.697	-0.093	0.127
-703.572	800.000	-0.060	-0.225
-702.558	128.007	-0.169	0.216
-701.543	473.567	-0.104	-0.235
-700.529	-109.406	0.028	-0.006
-699.514	22.262	0.179	0.147
-698.499	800.000	-0.077	-0.284
-697.485	-200.000	0.015	-0.072
-696.470	800.000	0.028	-0.108
-695.456	800.000	-0.032	-0.110
-694.441	-123.950	-0.102	-0.016
-693.426	191.724	0.148	0.225
-692.412	-45.467	0.177	0.088
-691.397	-162.428	-0.100	-0.005
-690.383	534.754	-0.156	-0.372
-689.368	-200.000	0.047	0.279
-688.354	-54.883	-0.222	0.101
-687.339	102.775	0.104	0.122
-686.324	102.923	-0.053	-0.063
-685.310	193.584	0.023	0.035
-684.295	-40.496	0.381	0.199
-683.281	-125.363	0.323	-0.049
-682.266	-200.000	0.023	0.119
-681.251	-30.005	0.210	0.120
-680.237	-200.000	0.007	-0.456
-679.222	-8.208	0.214	-0.145
-678.208	-88.962	-0.121	-0.036
-677.193	-200.000	0.037	-0.193
-676.178	406.419	-0.046	0.098
-675.164	-200.000	-0.001	-0.144
-674.149	17.585	-0.150	0.119
-673.135	-171.169	0.413	0.014
-672.120	565.699	0.058	-0.141
-671.105	-200.000	-0.017	0.154
-670.091	-153.196	-0.413	-0.029
-669.076	-60.400	0.166	0.071
-668.062	-11.861	0.169	-0.111
-667.047	-49.243	0.231	0.111
-666.032	-117.088	-0.317	0.058
-665.018	-8.879	0.127	0.085
-664.003	-151.090	-0.187	0.014
-662.989	-200.000	0.043	-0.265
-661.974	-38.272	-0.267	0.142
-660.959	-200.000	0.032	-0.292
-659.945	-168.177	0.133	-0.005
-658.930	85.835	0.150	-0.166
-657.916	148.561	0.162	0.220
-656.901	213.614	0.102	0.162
-655.886	-200.000	0.008	-0.301
-654.872	-200.000	-0.018	0.125
-653.857	7.231	0.120	0.090
-652.843	53.472	0.085	-0.082
-651.828	98.548	0.051	-0.059
-650.814	-157.443	0.159	-0.010
-649.799	-70.211	-0.091	0.035
-648.784	201.270	-0.083	-0.129
-647.770	63.623	0.069	0.069
-646.755	-200.000	-0.044	0.227
-645.741	-155.765	-0.233	-0.015
-644.726	800.000	0.067	-0.227
-643.711	-31.695	-0.150	-0.084
-642.697	1.792	-0.037	0.027
-641.682	-200.000	0.011	0.093
-640.668	-13.989	-0.297	-0.192
-639.653	69.665	-0.130	-0.135
-638.638	-11.562	0.425	-0.280
-637.624	-66.839	0.031	-0.012
-636.609	-117.727	-0.261	-0.047
-635.595	-12.107	0.382	0.251
-634.580	-99.600	-0.109	-0.027
-633.565	363.101	-0.130	0.261
-632.551	366.368	-0.136	0.275
-631.536	222.539	-0.115	-0.186
-630.522	800.000	0.073	0.208
-629.507	43.579	0.125	-0.115
-628.492	88.941	-0.175	0.195
-627.478	27.473	-0.316	0.266
-626.463	-107.595	0.088	0.019
-625.449	278.690	0.033	-0.058
-624.434	184.234	0.068	-0.101
-623.419	92.481	-0.084	0.095
-622.405	-36.166	0.318	0.172
-621.390	66.992	-0.210	0.214
-620.376	300.935	0.094	0.174
-619.361	-71.269	0.230	-0.087
-618.346	-200.000	-0.022	-0.105
-617.332	-53.227	-0.271	-0.125
-616.317	136.840	0.012	-0.015
-615.303	-200.000	-0.008	0.191
-614.288	-119.820	0.276	0.048
-613.273	71.734	-0.163	-0.169
-612.259	-19.237	0.185	-0.115
-611.244	-109.937	-0.449	0.094
-610.230	-37.832	-0.059	-0.032
-609.215	116.157	0.072	-0.089
-608.201	473.797	0.098	-0.221
-607.186	372.104	0.203	-0.414
-606.171	-113.219	0.064	0.013
-605.157	-25.374	-0.058	0.034
-604.142	-200.000	-0.009	-0.345
-603.128	-82.706	-0.149	0.048
-602.113	58.047	0.059	-0.058
-601.098	-99.392	-0.195	0.049
-600.084	800.000	-0.057	0.235
-599.069	622.965	0.055	0.139
-598.055	783.233	0.071	0.195
-597.040	146.416	-0.249	-0.335
-596.025	-147.027	0.388	0.033
-595.011	12.440	-0.268	-0.207
-593.996	-26.814	-0.270	-0.158
-592.982	318.942	-0.017	-0.032
-591.967	-41.001	0.234	-0.121
-590.952	136.784	0.036	-0.047
-589.938	-200.000	0.031	-0.196
-588.923	-200.000	-0.031	0.203
-587.909	800.000	0.074	-0.273
-586.894	-116.733	0.084	-0.015
-585.879	800.000	-0.060	0.194
-584.865	251.888	0.164	-0.280
-583.850	454.246	0.077	-0.172
-582.836	-200.000	0.027	-0.200
-581.821	144.698	-0.234	-0.313
-580.806	-200.000	0.012	-0.343
-579.792	337.265	0.056	-0.108
-578.777	-177.924	-0.125	0.003
-577.763	-21.171	0.176	0.108
-576.748	-106.403	0.086	0.019
-575.733	58.646	0.099	-0.097
-574.719	800.000	-0.042	-0.176
-573.704	-44.024	-0.245	0.123
-572.690	33.001	-0.221	0.191
-571.675	-85.712	0.511	0.159
-570.661	205.779	0.170	-0.265
-569.646	472.090	-0.023	-0.053
-568.631	102.353	0.088	0.103
-567.617	-107.575	-0.264	-0.058
-566.602	800.000	0.083	-0.293
-565.588	33.285	-0.043	-0.037
-564.573	12.105	0.174	-0.134
-563.558	-200.000	0.005	-0.139
-562.544	-169.851	-0.201	-0.007
-561.529	71.084	0.151	0.157
-560.515	-72.671	-0.107	0.039
-559.500	-132.547	-0.158	-0.020
-558.485	-32.770	-0.020	0.011
-557.471	-200.000	0.007	-0.224
-556.456	-200.000	-0.030	-0.144
-555.442	-200.000	-0.025	0.323
-554.427	-88.274	-0.219	0.066
-553.412	-37.790	-0.147	-0.078
-552.398	-52.583	0.293	-0.136
-551.383	-114.574	0.220	0.042
-550.369	41.589	0.329	-0.297
-549.354	-23.194	0.146	0.088
-548.339	471.101	-0.057	0.128
-547.325	-110.864	0.361	-0.074
-546.310	55.866	-0.171	-0.165
-545.296	-26.017	-0.268	0.158
-544.281	-60.681	-0.119	0.051
-543.266	-23.400	0.103	-0.062
-542.252	-71.669	-0.218	-0.081
-541.237	-79.529	-0.105	-0.035
-540.223	154.977	-0.148	-0.204
-539.208	337.850	-0.145	-0.281
-538.193	114.026	0.277	0.337
-537.179	-99.426	-0.339	0.085
-536.164	-66.955	0.133	-0.052
-535.150	-17.251	0.196	0.123
-534.135	226.717	-0.222	-0.359
-533.121	-65.562	-0.300	-0.120
-532.106	-72.173	0.288	0.107
-531.091	53.569	-0.190	-0.182
-530.077	-9.201	0.080	-0.054
-529.062	-200.000	-0.075	-0.374
-528.048	-200.000	0.039	0.177
-527.033	-133.718	0.248	-0.031
-526.018	293.181	0.094	0.170
-525.004	229.616	-0.073	0.119
-523.989	171.550	-0.073	-0.104
-522.975	24.740	-0.079	-0.065
-521.960	234.252	0.135	0.222
-520.945	800.000	0.186	0.564
-519.931	89.377	-0.029	0.032
-518.916	301.591	-0.089	0.165
-517.902	-200.000	0.039	0.204
-516.887	-62.787	0.213	-0.088
-515.872	-200.000	0.004	0.067
-514.858	335.427	-0.085	-0.165
-513.843	24.818	-0.233	0.193
-512.829	800.000	0.151	0.422
-511.814	460.087	0.210	-0.466
-510.799	-200.000	0.005	-0.048
-509.785	800.000	-0.053	-0.221
-508.770	756.254	-0.068	0.183
-507.756	-139.074	0.275	0.030
-506.741	-200.000	0.011	-0.077
-505.726	37.478	-0.111	0.098
-504.712	87.497	-0.081	-0.089
-503.697	73.624	-0.147	0.154
-502.683	-200.000	0.014	0.062
-501.668	-34.659	0.170	-0.093
-500.653	-133.852	-0.164	0.020
-499.639	800.000	-0.104	0.424
-498.624	-149.839	0.050	-0.004
-497.610	-200.000	-0.085	-0.557
-496.595	285.910	0.085	-0.152
-495.581	254.450	-0.241	0.411
-494.566	-200.000	-0.030	-0.147
-493.551	-76.944	-0.109	0.038
-492.537	-78.688	-0.389	0.132
-491.522	800.000	0.134	0.394
-490.508	-200.000	-0.019	0.106
-489.493	-38.658	0.262	-0.138
-488.478	73.684	-0.144	0.150
-487.464	-20.993	0.145	-0.088
-486.449	-80.658	-0.272	0.090
-485.435	240.461	0.077	-0.128
-484.420	29.504	0.117	-0.100
-483.405	17.205	-0.134	-0.106
-482.391	-200.000	-0.028	0.175
-481.376	-200.000	0.022	-0.159
-480.362	293.760	-0.070	0.128
-479.347	-200.000	0.007	-0.240
-478.332	151.871	-0.143	-0.195
-477.318	781.431	-0.132	-0.360
-476.303	174.633	0.239	-0.345
-475.289	-29.747	-0.177	0.101
-474.274	44.860	-0.200	-0.183
-473.259	-113.585	-0.321	0.062
-472.245	11.447	-0.200	0.153
-471.230	-9.983	-0.156	0.103
-470.216	197.640	0.084	-0.128
-469.201	236.996	0.146	-0.242
-468.186	10.443	0.184	-0.139
-467.172	68.442	-0.104	0.106
-466.157	-91.413	-0.149	0.042
-465.143	192.999	-0.117	-0.176
-464.128	-72.962	0.045	-0.016
-463.113	800.000	0.057	-0.240
-462.099	-76.111	-0.174	-0.061
-461.084	-54.395	-0.070	0.032
-460.070	185.474	-0.128	0.189
-459.055	78.393	-0.178	-0.189
-458.040	26.545	-0.230	-0.192
-457.026	-99.300	0.149	-0.037
-456.011	-72.406	-0.197	-0.073
-454.997	-87.499	0.331	0.100
-453.982	800.000	0.027	0.097
-452.968	-143.444	0.222	0.021
-451.953	51.762	-0.097	-0.092
-450.938	33.795	-0.219	0.189
-449.924	14.542	0.222	0.172
-448.909	-162.544	0.399	0.020
-447.895	-101.607	0.160	0.039
-446.880	-77.358	0.183	-0.063
-445.865	-93.799	0.189	-0.052
-444.851	-23.150	-0.469	-0.281
-443.836	-200.000	0.001	0.136
-442.822	-200.000	-0.012	-0.071
-441.807	114.484	-0.099	-0.120
-440.792	72.185	0.099	0.103
-439.778	-141.016	0.193	0.020
-438.763	37.302	0.111	0.098
-437.749	-200.000	-0.128	0.000
-436.734	-200.000	0.024	0.121
-435.719	-130.398	-0.201	-0.027
-434.705	415.069	0.059	0.125
-433.690	-74.951	-0.415	0.148
-432.676	44.418	-0.118	-0.108
-431.661	800.000	0.067	0.240
-430.646	61.524	-0.087	0.086
-429.632	800.000	0.089	-0.257
-428.617	800.000	0.039	0.134
-427.603	-41.476	-0.257	-0.132
-426.588	26.058	0.228	-0.189
-425.573	-73.297	-0.127	-0.046
-424.559	-58.583	-0.065	-0.028
-423.544	-77.320	-0.188	0.065
-422.530	85.773	-0.207	0.227
-421.515	-41.974	0.276	-0.141
-420.500	66.662	-0.214	0.216
-419.486	-100.896	-0.144	-0.035
-418.471	616.141	0.114	-0.284
-417.457	800.000	-0.048	0.167
-416.442	188.626	0.059	0.088
-415.428	-12.372	0.321	-0.209
-414.413	-100.052	-0.276	-0.068
-413.398	-33.908	0.226	0.124
-412.384	160.250	-0.097	0.135
-411.369	-200.000	0.013	-0.088
-410.355	-34.960	-0.247	-0.134
-409.340	26.286	0.225	-0.186
-408.325	493.792	0.117	0.267
-407.311	289.672	0.244	-0.441
-406.296	-38.947	0.078	0.041
-405.282	26.601	0.224	0.186
-404.267	-200.000	0.042	-0.238
-403.252	483.449	-0.093	-0.210
-402.238	33.128	-0.109	-0.094
-401.223	269.760	0.099	0.173
-400.209	-200.000	0.000	-0.048
-399.194	-110.200	0.280	0.058
-398.179	-62.085	0.109	0.045
-397.165	800.000	-0.122	-0.335
-396.150	196.923	-0.044	-0.067
-395.136	-200.000	-0.013	-0.162
-394.121	617.009	0.015	0.037
-393.106	-200.000	-0.007	-0.031
-392.092	-75.158	0.147	-0.052
-391.077	215.634	0.102	0.161
-390.063	-149.919	0.096	0.007
-389.048	99.143	0.128	0.147
-388.033	-82.856	0.253	0.081
-387.019	-26.659	-0.269	0.156
-386.004	-200.000	-0.030	0.301
-384.990	323.825	-0.170	0.323
-383.975	16.805	-0.021	-0.017
-382.960	-29.639	-0.250	-0.142
-381.946	-150.232	-0.173	-0.013
-380.931	-96.281	0.129	0.034
-379.917	9.764	0.168	-0.126
-378.902	-200.000	-0.047	0.255
-377.888	187.608	-0.136	-0.201
-376.873	-200.000	-0.038	0.393
-375.858	-104.478	-0.066	0.015
-374.844	-147.951	0.216	-0.018
-373.829	-87.468	-0.211	-0.063
-372.815	255.835	-0.131	0.223
-371.800	-145.494	0.192	0.017
-370.785	-166.567	-0.270	0.011
-369.771	800.000	0.024	0.101
-368.756	-115.176	0.070	-0.013
-367.742	-25.734	-0.056	0.033
-366.727	28.166	0.160	-0.134
-365.712	20.249	-0.220	-0.176
-364.698	522.792	0.160	-0.372
-363.683	245.689	-0.096	-0.161
-362.669	74.897	-0.197	-0.206
-361.654	800.000	0.072	0.246
-360.639	212.014	0.038	0.059
-359.625	-34.053	-0.100	-0.054
-358.610	-24.882	0.251	-0.148
-357.596	800.000	0.053	0.178
-356.581	-24.651	0.091	0.054
-355.566	-130.666	-0.196	0.026
-354.552	143.676	-0.156	-0.206
-353.537	-107.903	-0.146	-0.032
-352.523	-137.435	-0.100	0.011
-351.508	-50.808	0.129	0.060
-350.493	209.787	0.100	0.155
-349.479	216.303	0.160	0.252
-348.464	-200.000	-0.029	-0.264
-347.450	348.715	-0.117	0.229
-346.435	-123.280	-0.207	-0.033
-345.420	24.147	-0.110	0.090
-344.406	21.615	0.160	0.129
-343.391	-200.000	0.017	-0.149
-342.377	62.384	0.115	0.114
-341.362	-200.000	-0.017	0.508
-340.348	145.242	-0.025	0.033
-339.333	-200.000	0.004	0.196
-338.318	-200.000	-0.004	0.064
-337.304	200.450	-0.053	-0.081
-336.289	17.862	0.225	0.178
-335.275	40.831	-0.116	0.104
-334.260	-188.582	-0.222	0.003
-333.245	-79.226	-0.219	0.074
-332.231	-200.000	-0.032	0.165
-331.216	213.883	-0.121	0.190
-330.202	49.818	0.128	-0.119
-329.187	766.221	-0.132	-0.355
-328.172	-200.000	-0.040	-0.226
-327.158	-200.000	0.015	-0.086
-326.143	142.306	0.118	-0.156
-325.129	330.855	-0.121	0.232
-324.114	-91.656	0.109	-0.031
-323.099	-117.214	-0.147	0.026
-322.085	153.980	-0.208	0.282
-321.070	-200.000	-0.017	0.240
-320.056	11.196	-0.351	-0.266
-319.041	-152.345	0.151	-0.011
-318.026	265.930	0.086	0.149
-317.012	-200.000	-0.036	-0.197
-315.997	-75.691	0.301	-0.106
-314.983	616.255	-0.027	0.068
-313.968	174.419	0.206	-0.296
-312.953	-94.155	0.204	-0.055
-311.939	-85.750	0.291	0.089
-310.924	86.726	-0.241	0.263
-309.910	-85.448	0.167	0.052
-308.895	-200.000	0.007	0.036
-307.880	-89.450	0.192	-0.056
-306.866	-28.749	0.155	-0.089
-305.851	102.375	0.307	-0.355
-304.837	-75.655	-0.154	-0.054
-303.822	800.000	0.059	0.204
-302.807	-32.641	-0.319	0.176
-301.793	-86.324	0.141	0.043
-300.778	-78.507	0.212	0.072
-299.764	800.000	0.011	0.040
-298.749	52.671	-0.223	-0.211
-297.735	-74.356	-0.082	-0.029
-296.720	-200.000	0.359	0.001
-295.705	346.670	0.059	0.114
-294.691	128.084	0.043	-0.054
-293.676	139.103	-0.135	-0.176
-292.662	-200.000	0.008	-0.219
-291.647	-68.278	0.428	-0.165
-290.632	30.618	0.249	0.211
-289.618	335.059	0.052	0.099
-288.603	74.804	-0.210	0.219
-287.589	439.076	-0.032	-0.070
-286.574	-64.597	0.111	-0.044
-285.559	-69.579	0.267	0.101
-284.545	-200.000	-0.005	-0.164
-283.530	395.272	0.116	-0.239
-282.516	-23.247	0.296	-0.176
-281.501	800.000	0.066	0.243
-280.486	-120.865	-0.260	-0.043
-279.472	157.146	0.225	-0.308
-278.457	800.000	0.056	-0.173
-277.443	-108.860	-0.310	-0.065
-276.428	-18.093	0.238	-0.147
-275.413	-200.000	-0.012	-0.061
-274.399	800.000	0.041	0.146
-273.384	-67.630	0.125	0.049
-272.370	6.917	-0.235	-0.173
-271.355	-200.000	0.012	0.058
-270.340	-69.320	0.091	-0.035
-269.326	-116.533	-0.202	-0.037
-268.311	6.579	0.221	0.162
-267.297	-113.409	0.264	-0.051
-266.282	-61.465	0.371	-0.154
-265.267	-81.711	0.357	-0.116
-264.253	-4.268	-0.182	0.124
-263.238	208.940	-0.026	-0.040
-262.224	106.288	0.113	-0.132
-261.209	-200.000	-0.010	-0.062
-260.195	345.563	-0.156	0.304
-259.180	433.258	-0.102	-0.219
-258.165	63.259	0.167	0.165
-257.151	-69.155	-0.253	0.096
-256.136	557.102	0.142	0.338
-255.122	-14.180	-0.238	-0.152
-254.107	800.000	-0.070	-0.195
-253.092	12.812	0.372	0.284
-252.078	-157.516	0.240	-0.014
-251.063	-69.841	-0.522	0.197
-250.049	400.985	-0.027	-0.056
-249.034	155.148	0.117	0.160
-248.019	42.820	0.172	0.154
-247.005	0.937	0.145	0.102
-245.990	-118.714	0.137	0.024
-244.976	-17.039	0.102	0.064
-243.961	-180.041	0.274	-0.006
-242.946	-161.096	-0.237	0.012
-241.932	5.277	0.171	0.124
-240.917	56.072	-0.177	0.170
-239.903	-200.000	0.020	0.142
-238.888	192.258	-0.173	0.258
-237.873	-200.000	0.019	-0.152
-236.859	-175.717	-0.281	0.007
-235.844	0.660	-0.231	0.163
-234.830	144.090	-0.128	0.169
-233.815	159.807	0.041	0.056
-232.800	38.001	-0.098	-0.086
-231.786	61.838	-0.045	0.044
-230.771	800.000	-0.077	0.303
-229.757	231.860	-0.091	-0.148
-228.742	-108.633	-0.188	0.040
-227.727	38.139	-0.249	-0.219
-226.713	-122.776	-0.403	-0.064
-225.698	-18.166	0.273	0.168
-224.684	161.902	-0.112	0.155
-223.669	53.467	-0.155	0.147
-222.655	-52.049	-0.276	0.127
-221.640	167.762	0.155	0.218
-220.625	-200.000	-0.009	-0.215
-219.611	522.387	0.076	0.175
-218.596	-200.000	0.033	-0.214
-217.582	-132.567	-0.004	0.000
-216.567	-163.419	-0.121	0.006
-215.552	-94.276	0.216	-0.058
-214.538	718.518	-0.136	0.356
-213.523	800.000	-0.084	-0.262
-212.509	800.000	0.105	0.387
-211.494	-176.030	-0.200	0.005
-210.479	-178.962	0.150	-0.003
-209.465	-200.000	0.052	0.433
-208.450	-200.000	-0.081	0.410
-207.436	88.022	0.168	-0.183
-206.421	30.974	0.095	0.080
-205.406	-200.000	-0.047	-0.350
-204.392	34.715	-0.243	-0.210
-203.377	163.238	0.201	0.278
-202.363	-3.776	-0.109	-0.075
-201.348	253.960	0.047	-0.078
-200.333	48.152	0.234	0.216
-199.319	800.000	0.058	0.179
-198.304	-23.672	0.175	-0.103
-197.290	-92.374	0.130	-0.036
-196.275	119.338	0.207	-0.253
-195.260	325.306	-0.198	0.373
-194.246	38.604	-0.356	0.313
-193.231	76.858	-0.115	0.120
-192.217	508.422	0.165	0.377
-191.202	-128.074	0.225	0.032
-190.187	128.586	0.147	0.185
-189.173	200.280	0.018	-0.027
-188.158	-200.000	0.004	0.084
-187.144	531.249	0.169	0.393
-186.129	-200.000	-0.007	0.093
-185.114	22.362	0.126	-0.102
-184.100	-200.000	-0.002	0.195
-183.085	800.000	0.072	-0.259
-182.071	436.328	0.174	0.373
-181.056	-42.834	-0.283	-0.142
-180.042	281.804	-0.143	0.253
-179.027	-85.646	0.292	0.089
-178.012	102.058	0.121	-0.139
-176.998	412.166	0.057	0.120
-175.983	-91.115	-0.115	-0.033
-174.969	-114.343	0.189	0.036
-173.954	183.930	-0.137	0.200
-172.939	-200.000	-0.044	-0.199
-171.925	-140.933	-0.275	-0.028
-170.910	76.176	-0.052	0.054
-169.896	67.151	0.240	-0.241
-168.881	-40.647	0.097	-0.049
-167.866	800.000	-0.077	-0.329
-166.852	139.095	0.105	-0.136
-165.837	-200.000	-0.038	-0.194
-164.823	208.551	0.088	-0.135
-163.808	-11.752	0.130	-0.084
-162.793	711.981	0.069	-0.180
-161.779	-119.444	0.240	-0.041
-160.764	-200.000	-0.032	0.289
-159.750	-66.144	-0.242	0.095
-158.735	-200.000	0.043	0.277
-157.720	137.280	0.085	-0.109
-156.706	249.537	-0.187	-0.312
-155.691	35.250	-0.047	-0.040
-154.677	13.497	0.224	-0.171
-153.662	221.751	-0.101	-0.159
-152.647	-97.637	0.225	-0.057
-151.633	291.106	-0.100	-0.179
-150.618	-200.000	0.052	0.290
-149.604	41.497	-0.140	0.125
-148.589	-6.214	-0.140	-0.094
-147.574	-160.623	0.406	-0.021
-146.560	455.149	0.058	-0.125
-145.545	-114.839	-0.143	0.027
-144.531	-200.000	-0.003	0.049
-143.516	-100.791	0.324	-0.078
-142.502	-28.530	-0.030	-0.017
-141.487	184.975	-0.157	-0.229
-140.472	800.000	0.096	0.318
-139.458	-32.865	-0.366	0.200
-138.443	-104.166	-0.163	-0.037
-137.429	88.796	-0.209	0.229
-136.414	208.966	-0.060	-0.092
-135.399	84.486	-0.155	-0.167
-134.385	-200.000	-0.038	-0.355
-133.370	201.123	0.168	-0.255
-132.356	214.846	0.119	-0.186
-131.341	-28.377	0.433	-0.246
-130.326	117.760	-0.184	-0.223
-129.312	-46.168	0.460	-0.223
-128.297	92.493	-0.155	-0.171
-127.283	14.695	0.137	-0.105
-126.268	-87.692	-0.225	-0.067
-125.253	47.057	-0.225	0.206
-124.239	-87.133	0.492	0.147
-123.224	-43.529	-0.231	-0.115
-122.210	236.274	-0.052	-0.085
-121.195	332.328	-0.060	-0.113
-120.180	225.358	-0.111	-0.176
-119.166	39.251	0.123	-0.108
-118.151	154.042	-0.154	-0.208
-117.137	119.332	0.234	0.285
-116.122	-136.557	0.398	-0.045
-115.107	-200.000	-0.020	-0.262
-114.093	-200.000	-0.043	0.250
-113.078	800.000	0.055	0.204
-112.064	-24.947	0.280	-0.163
-111.049	407.854	0.073	-0.152
-110.034	136.722	-0.164	-0.211
-109.020	-71.013	-0.214	0.079
-108.005	47.188	0.322	0.295
-106.991	707.810	0.079	0.206
-105.976	-131.614	0.241	0.031
-104.962	2.621	0.320	-0.228
-103.947	4.241	0.213	0.153
-102.932	-200.000	0.022	-0.205
-101.918	538.413	-0.080	0.187
-100.903	-126.081	-0.285	-0.042
-99.889	392.765	-0.158	-0.322
-98.874	-144.752	0.075	-0.007
-97.859	-73.010	-0.251	0.090
-96.845	96.799	-0.147	-0.165
-95.830	308.194	0.124	0.228
-94.816	-200.000	-0.004	-0.177
-93.801	276.235	-0.159	-0.278
-92.786	-60.401	-0.144	0.060
-91.772	-200.000	0.018	-0.101
-90.757	-120.260	-0.131	-0.022
-89.743	219.343	-0.079	-0.124
-88.728	-0.292	-0.187	0.131
-87.713	-200.000	-0.004	0.186
-86.699	-196.984	0.522	0.003
-85.684	-200.000	0.014	-0.604
-84.670	-186.691	0.049	-0.001
-83.655	800.000	-0.027	0.078
-82.640	-79.746	-0.296	0.098
-81.626	344.371	-0.011	-0.022
-80.611	139.698	-0.259	-0.334
-79.597	-21.244	0.274	-0.164
-78.582	8.096	0.294	0.217
-77.567	-125.532	0.367	0.055
-76.553	-116.286	0.407	0.074
-75.538	43.076	-0.238	0.213
-74.524	-53.693	0.219	-0.098
-73.509	-200.000	-0.003	-0.150
-72.494	-200.000	-0.004	-0.230
-71.480	277.276	-0.071	-0.125
-70.465	800.000	0.094	-0.371
-69.451	-162.901	-0.075	0.004
-68.436	-133.038	0.281	-0.035
-67.422	-200.000	0.007	0.282
-66.407	-200.000	-0.013	-0.205
-65.392	197.843	0.035	-0.052
-64.378	800.000	0.079	0.244
-63.363	-3.163	-0.175	-0.119
-62.349	71.131	0.314	-0.319
-61.334	66.869	-0.951	-0.950
-60.319	-19.291	0.462	0.281
-59.305	487.538	-0.298	-0.667
-58.290	408.759	0.607	1.260
-57.276	800.000	0.572	1.657
-56.261	-200.000	100.163	620.366
-55.246	564.087	1431.467	3399.694
-54.232	187.953	2625.701	3845.195
-53.217	116.355	2165.171	2601.577
-52.203	41.857	1696.802	1508.379
-51.188	34.152	1507.667	1288.289
-50.173	31.837	1480.884	1249.943
-49.159	52.521	1533.764	1435.447
-48.144	53.448	1550.985	1457.800
-47.130	34.380	1508.866	1290.656
-46.115	31.297	1493.736	1256.957
-45.100	31.009	1490.901	1252.582
-44.086	31.067	1488.548	1250.949
-43.071	30.931	1486.680	1248.418
-42.057	31.004	1484.838	1247.311
-41.042	30.972	1483.624	1246.023
-40.027	30.872	1482.248	1244.155
-39.013	30.932	1480.431	1242.978
-37.998	30.833	1479.491	1241.481
-36.984	30.906	1477.827	1240.524
-35.969	30.934	1476.937	1239.914
-34.954	31.076	1474.808	1239.021
-33.940	30.855	1474.241	1237.023
-32.925	30.909	1472.658	1236.005
-31.911	31.006	1471.482	1235.610
-30.896	30.972	1470.060	1234.142
-29.881	30.947	1468.989	1233.032
-28.867	31.044	1466.720	1231.721
-27.852	31.028	1465.920	1230.889
-26.838	31.001	1464.744	1229.676
-25.823	31.061	1463.320	1228.828
-24.809	31.010	1461.121	1226.596
-23.794	31.059	1459.701	1225.681
-22.779	30.922	1459.027	1224.166
-21.765	30.953	1458.039	1223.489
-20.750	30.953	1456.943	1222.522
-19.736	31.021	1455.561	1221.757
-18.721	30.943	1454.700	1220.478
-17.706	30.937	1453.101	1219.049
-16.692	30.969	1452.176	1218.432
-15.677	30.932	1451.314	1217.420
-14.663	30.850	1450.318	1215.998
-13.648	30.899	1449.309	1215.428
-12.633	30.886	1448.914	1214.962
-11.619	30.923	1448.029	1214.415
-10.604	30.829	1447.438	1213.258
-9.590	31.012	1445.822	1213.046
-8.575	30.970	1445.166	1212.172
-7.560	30.912	1444.407	1211.113
-6.546	30.801	1444.223	1210.189
-5.531	30.813	1443.264	1209.411
-4.517	30.867	1441.467	1208.210
-3.502	30.887	1440.562	1207.533
-2.487	30.850	1439.864	1206.660
-1.473	30.820	1438.730	1205.469
-0.458	30.837	1437.823	1204.769
0.556	28.498	1428.157	1193.187
1.571	25.464	1402.320	1152.078
2.586	21.866	1341.818	1080.160
3.600	20.303	1260.300	1005.404
4.615	19.177	1216.272	963.895
5.629	16.525	1161.772	906.429
6.644	7.977	1077.980	798.296
7.659	0.712	1038.076	733.510
8.673	-0.098	1032.057	725.285
9.688	-0.326	1029.511	722.333
10.702	-0.356	1027.357	720.613
11.717	-0.449	1025.701	718.944
12.731	2.570	1028.969	735.684
13.746	11.425	1041.660	787.583
14.761	18.098	1049.501	825.784
15.775	19.135	1050.390	831.421
16.790	19.256	1049.616	831.320
17.804	19.014	1048.618	829.288
18.819	18.850	1047.615	827.633
19.834	18.904	1047.356	827.615
20.848	19.040	1046.484	827.508
21.863	18.989	1046.474	827.181
22.877	18.913	1045.904	826.290
23.892	19.119	1044.850	826.373
24.907	18.843	1044.579	824.760
25.921	18.953	1043.725	824.543
26.936	18.997	1043.140	824.215
27.950	18.965	1042.112	823.179
28.965	18.975	1040.279	821.706
29.980	18.917	1038.405	819.879
30.994	18.846	1037.616	818.845
32.009	19.025	1036.764	818.950
33.023	19.023	1035.831	818.133
34.038	18.871	1034.857	816.568
35.053	18.761	1034.026	815.317
36.067	19.056	1033.220	816.007
37.082	18.996	1032.720	815.258
38.096	19.190	1031.646	815.254
39.111	19.172	1031.097	814.662
40.126	19.264	1030.203	814.320
41.140	19.191	1028.854	812.840
42.155	18.840	1027.717	810.210
43.169	18.644	1026.246	808.060
44.184	18.639	1024.947	806.941
45.199	18.817	1024.086	807.027
46.213	18.746	1022.925	805.707
47.228	18.647	1021.715	804.220
48.242	18.725	1021.038	803.980
49.257	18.825	1020.167	803.692
50.271	18.928	1019.240	803.369
51.286	19.028	1018.568	803.237
52.301	18.986	1017.111	801.820
53.315	19.067	1016.582	801.710
54.330	19.124	1015.934	801.397
55.344	19.011	1015.349	800.338
56.359	19.104	1014.212	799.801
57.374	19.072	1013.596	799.098
58.388	18.851	1012.272	796.957
59.403	18.851	1011.720	796.452
60.417	18.923	1010.799	795.988
61.432	18.676	1010.454	794.506
62.447	18.664	1009.476	793.610
63.461	18.904	1008.613	793.972
64.476	18.937	1007.834	793.438
65.490	18.869	1006.949	792.357
66.505	18.807	1005.610	790.951
67.520	18.892	1005.203	790.951
68.534	19.031	1004.136	790.679
69.549	18.762	1003.509	788.883
70.563	18.515	1002.144	786.604
71.578	18.355	1001.538	785.324
72.593	18.600	1000.636	785.670
73.607	18.435	1000.046	784.384
74.622	18.454	998.796	783.422
75.636	18.567	998.311	783.485
76.651	18.751	997.268	783.438
77.666	18.757	996.300	782.636
78.680	18.694	995.092	781.331
79.695	18.654	995.181	781.149
80.709	18.672	994.671	780.764
81.724	18.683	993.571	779.880
82.739	18.789	992.343	779.327
83.753	18.834	991.603	778.881
84.768	18.945	990.792	778.680
85.782	19.101	990.495	779.081
86.797	19.273	989.362	778.902
87.812	19.302	988.501	778.283
88.826	19.166	987.338	776.687
89.841	19.088	986.915	775.935
90.855	19.295	985.816	775.933
91.870	19.201	985.325	775.056
92.884	19.207	984.575	774.421
93.899	19.195	983.207	773.225
94.914	18.918	982.599	771.434
95.928	19.253	981.983	772.385
96.943	19.187	980.840	771.123
97.957	18.936	979.713	769.045
98.972	18.661	978.794	767.024
99.987	18.611	977.463	765.695
101.001	18.589	977.304	765.401
102.016	18.944	976.406	766.212
103.030	18.953	975.985	765.856
104.045	18.930	974.255	764.327
105.060	18.944	973.024	763.358
106.074	18.582	971.756	760.688
107.089	18.568	971.545	760.395
108.103	18.944	970.980	761.553
109.118	19.095	970.030	761.407
110.133	18.872	968.697	759.308
111.147	18.921	967.517	758.533
112.162	18.926	966.122	757.395
113.176	18.646	965.339	755.479
114.191	18.688	964.624	755.037
115.206	18.846	963.194	754.545
116.220	18.528	962.211	752.315
117.235	18.361	961.362	750.851
118.249	18.359	960.792	750.332
119.264	18.555	959.736	750.298
120.279	18.619	958.750	749.741
121.293	18.535	958.128	748.821
122.308	18.695	957.663	749.089
123.322	18.699	956.842	748.399
124.337	18.653	955.414	747.015
125.352	18.609	953.938	745.605
126.366	18.281	951.842	742.479
127.381	17.881	950.607	739.714
128.395	18.416	950.693	742.034
129.410	18.932	949.913	743.592
130.424	19.121	949.141	743.738
131.439	19.077	948.428	742.924
132.454	18.982	947.089	741.399
133.468	19.010	946.066	740.655
134.483	18.942	945.114	739.550
135.497	19.035	944.468	739.382
136.512	19.176	944.180	739.695
137.527	19.264	943.505	739.478
138.541	19.315	942.808	739.087
139.556	19.335	941.607	738.164
140.570	19.235	940.801	737.041
141.585	19.211	940.062	736.291
142.600	19.204	938.968	735.340
143.614	19.045	938.259	734.042
144.629	19.148	937.847	734.092
145.643	19.458	936.742	734.481
146.658	19.318	935.838	733.116
147.673	19.233	934.613	731.730
148.687	19.059	933.626	730.155
149.702	19.114	932.576	729.501
150.716	19.045	931.481	728.287
151.731	18.991	930.442	727.181
152.746	19.205	929.659	727.410
153.760	19.295	929.095	727.283
154.775	19.354	928.739	727.191
155.789	19.338	927.500	726.088
156.804	19.413	926.341	725.433
157.819	19.237	925.575	724.029
158.833	19.325	924.984	723.872
159.848	19.390	923.839	723.186
160.862	19.523	923.455	723.378
161.877	19.343	922.470	721.786
162.892	19.320	921.530	720.894
163.906	19.362	921.250	720.783
164.921	19.535	919.844	720.343
165.935	19.396	918.511	718.657
166.950	19.381	917.753	717.938
167.964	19.492	916.633	717.459
168.979	19.398	915.467	716.094
169.994	19.325	914.477	714.951
171.008	19.125	913.734	713.481
172.023	19.295	913.182	713.689
173.037	19.391	912.143	713.213
174.052	19.203	911.180	711.619
175.067	19.005	910.194	709.969
176.081	19.069	909.199	709.393
177.096	19.359	908.350	709.861
178.110	19.373	907.449	709.153
179.125	19.153	905.978	707.039
180.140	18.809	905.448	705.150
181.154	18.950	904.851	705.202
182.169	18.970	904.210	704.721
183.183	19.193	903.950	705.368
184.198	19.273	903.520	705.300
185.213	19.246	902.924	704.659
186.227	19.219	902.151	703.885
187.242	19.334	901.744	703.974
188.256	19.335	900.937	703.285
189.271	19.388	899.910	702.636
190.286	19.460	899.466	702.521
191.300	19.342	898.634	701.331
192.315	18.898	897.163	698.318
193.329	18.339	895.711	694.858
194.344	17.898	894.706	692.228
195.359	18.487	895.249	694.977
196.373	19.235	895.118	697.843
197.388	19.458	894.497	698.200
198.402	19.228	893.982	696.804
199.417	19.110	893.142	695.613
200.432	19.168	892.610	695.370
201.446	19.030	891.888	694.191
202.461	18.778	891.101	692.501
203.475	18.838	890.538	692.243
204.490	18.414	888.866	689.176
205.504	17.332	887.569	683.760
206.519	17.786	887.376	685.377
207.534	18.713	887.522	689.154
208.548	18.854	886.660	688.988
209.563	19.257	886.330	690.284
210.577	19.236	885.778	689.709
211.592	19.048	884.759	688.106
212.607	19.216	885.143	689.014
213.621	19.315	884.052	688.500
214.636	19.266	883.423	687.754
215.650	19.367	883.006	687.771
216.665	19.248	882.473	686.820
217.680	19.480	881.999	687.314
218.694	19.487	881.359	686.781
219.709	19.205	880.115	684.631
220.723	18.811	878.925	682.083
221.738	19.097	878.554	682.866
222.753	19.336	877.966	683.297
223.767	19.265	877.352	682.478
224.782	19.205	876.838	681.782
225.796	19.392	875.997	681.804
226.811	19.527	875.256	681.704
227.826	19.112	874.199	679.181
228.840	18.535	872.531	675.553
229.855	18.435	872.183	674.829
230.869	18.680	871.868	675.492
231.884	18.557	870.710	674.052
232.899	18.440	870.118	673.072
233.913	19.255	870.342	676.387
234.928	19.256	870.264	676.269
235.942	19.255	869.416	675.546
236.957	19.385	868.463	675.255
237.972	19.002	868.008	673.344
238.986	18.878	866.995	672.014
240.001	19.121	866.255	672.329
241.015	19.164	865.531	671.876
242.030	19.017	865.198	670.987
243.045	19.168	864.807	671.210
244.059	19.323	864.228	671.307
245.074	19.557	863.264	671.407
246.088	19.424	862.518	670.251
247.103	19.017	861.929	668.152
248.117	19.147	860.749	667.685
249.132	19.477	860.927	669.042
250.147	19.885	860.371	670.131
251.161	19.859	859.680	669.435
252.176	20.029	859.482	669.879
253.190	20.021	858.729	669.199
254.205	19.964	858.402	668.668
255.220	20.124	857.733	668.705
256.234	20.200	857.130	668.468
257.249	20.047	856.509	667.336
258.263	19.868	855.737	665.985
259.278	20.033	854.870	665.886
260.293	20.058	854.861	665.917
261.307	19.914	854.492	665.016
262.322	19.952	853.292	664.171
263.336	19.900	852.314	663.151
264.351	19.357	851.205	660.150
265.366	18.455	848.825	654.803
266.380	18.046	848.256	652.740
267.395	18.847	848.368	655.829
268.409	19.595	848.622	658.823
269.424	19.640	848.199	658.606
270.439	19.736	847.653	658.491
271.453	20.022	846.596	658.700
272.468	19.918	846.706	658.328
273.482	20.091	845.904	658.304
274.497	20.172	845.641	658.349
275.512	20.149	844.189	657.076
276.526	19.543	842.776	653.622
277.541	19.624	842.189	653.416
278.555	19.971	842.423	654.854
279.570	19.833	841.029	653.190
280.585	19.699	840.455	652.180
281.599	19.706	839.835	651.667
282.614	19.832	839.800	652.060
283.628	19.398	838.667	649.488
284.643	19.109	837.669	647.572
285.657	19.653	837.308	649.280
286.672	19.437	836.697	647.937
287.687	18.889	836.097	645.358
288.701	19.233	836.009	646.523
289.716	19.756	835.158	647.769
290.730	19.277	834.688	645.552
291.745	19.210	834.259	644.911
292.760	19.136	832.492	643.213
293.774	18.896	832.551	642.306
294.789	19.730	832.891	645.628
295.803	20.375	832.647	647.789
296.818	20.419	832.296	647.620
297.833	20.643	831.561	647.826
298.847	20.262	830.603	645.605
299.862	20.003	829.776	643.944
300.876	20.209	828.960	644.019
301.891	20.400	829.172	644.836
302.906	20.438	828.515	644.408
303.920	20.127	826.990	642.013
304.935	19.889	826.425	640.638
305.949	20.298	826.155	641.881
306.964	20.341	825.696	641.627
307.979	20.229	824.837	640.492
308.993	20.105	824.584	639.779
310.008	20.534	823.936	640.802
311.022	20.604	823.761	640.867
312.037	20.245	823.138	639.007
313.052	20.311	822.405	638.622
314.066	20.245	821.821	637.871
315.081	19.605	820.470	634.415
316.095	19.003	819.103	631.094
317.110	19.560	819.324	633.250
318.125	20.280	819.512	635.981
319.139	19.816	818.676	633.576
320.154	18.892	816.879	628.749
321.168	18.463	815.903	626.376
322.183	19.131	816.445	629.180
323.197	19.811	816.394	631.568
324.212	20.069	816.114	632.235
325.227	20.132	815.876	632.227
326.241	20.396	815.467	632.817
327.256	20.161	814.754	631.351
328.270	20.205	814.018	630.885
329.285	20.120	813.550	630.158
330.300	20.012	812.665	629.025
331.314	19.738	811.985	627.447
332.329	19.844	811.184	627.157
333.343	20.098	810.989	627.871
334.358	20.356	810.628	628.471
335.373	20.384	810.181	628.168
336.387	20.425	809.051	627.386
337.402	20.679	808.693	627.971
338.416	20.831	808.191	628.072
339.431	20.688	807.768	627.172
340.446	20.750	807.081	626.807
341.460	20.768	807.002	626.756
342.475	20.912	806.009	626.445
343.489	20.590	805.509	624.845
344.504	20.770	804.922	624.981
345.519	20.901	804.394	624.984
346.533	21.199	803.993	625.686
347.548	21.091	803.891	625.165
348.562	21.175	803.327	624.971
349.577	21.200	802.786	624.584
350.592	21.087	802.549	623.942
351.606	21.089	801.984	623.455
352.621	21.265	800.980	623.245
353.635	21.064	800.760	622.304
354.650	21.105	799.991	621.796
355.665	20.627	799.010	619.277
356.679	19.722	797.487	614.826
357.694	19.500	797.477	613.973
358.708	20.204	797.025	616.071
359.723	20.165	796.409	615.404
360.738	20.314	796.375	615.851
361.752	20.670	796.403	617.081
362.767	20.879	795.960	617.423
363.781	20.945	795.829	617.502
364.796	21.174	795.630	618.105
365.810	21.266	794.557	617.540
366.825	21.444	794.426	618.014
367.840	21.430	794.213	617.745
368.854	21.237	793.470	616.431
369.869	20.849	792.711	614.416
370.883	20.777	792.187	613.704
371.898	20.701	792.012	613.246
372.913	20.823	791.105	612.918
373.927	20.689	790.182	611.677
374.942	20.815	789.896	611.845
375.956	20.983	789.772	612.283
376.971	21.045	789.040	611.880
377.986	21.182	788.478	611.873
379.000	21.309	788.305	612.127
380.015	21.333	787.352	611.418
381.029	21.268	786.604	610.556
382.044	21.225	786.108	609.967
383.059	21.365	785.636	610.034
384.073	21.301	785.429	609.596
385.088	21.434	785.087	609.742
386.102	21.326	784.172	608.602
387.117	21.476	783.347	608.429
388.132	21.182	782.988	607.071
389.146	21.097	782.927	606.676
390.161	20.526	781.600	603.611
391.175	20.510	781.199	603.194
392.190	21.043	781.213	605.000
393.205	20.938	781.173	604.552
394.219	20.188	779.134	600.325
395.234	18.860	777.205	594.198
396.248	18.129	776.209	590.855
397.263	19.283	776.950	595.357
398.278	20.771	778.699	601.793
399.292	21.231	777.953	602.752
400.307	21.032	777.150	601.389
401.321	20.915	777.066	600.869
402.336	20.920	776.627	600.493
403.350	21.247	776.413	601.398
404.365	21.626	776.493	602.712
405.380	21.701	776.057	602.581
406.394	21.919	775.544	602.876
407.409	22.120	775.375	603.384
408.423	21.968	774.710	602.292
409.438	21.826	774.282	601.418
410.453	21.886	773.530	600.984
411.467	22.094	773.153	601.352
412.482	22.065	772.765	600.897
413.496	21.989	772.311	600.230
414.511	21.980	772.277	600.120
415.526	22.093	771.422	599.789
416.540	22.190	771.065	599.791
417.555	21.987	770.595	598.678
418.569	21.901	769.729	597.659
419.584	21.572	769.773	596.520
420.599	21.738	768.942	596.387
421.613	158.301	1361.234	1798.225
422.628	136.458	1447.550	1798.335
