DTS Sentinel unit serial number:	SN413079Multiplexer serial number:	ORYXHardware model number:	OX4-SRSoftware version number:	ORYX F/W v4.00 Oryx Data Collector v3.7.2.0data status	okinstallation	princeton_trtdifferential loss correction	single-endedforward channel	channel 3reverse channel	N/Adate	2019/09/10time	18:58:11forward acquisition time	60.00reverse acquisition time	0.00gamma	496.2192k internal	0.2313k external	0.2313temperature offset calibration	0.9915default loss term (dB/km)	0.3790temperature slope calibration	1.0000multiplexer offset coefficient	1.0000multiplexer slope coefficient	1.0000fibre end	0.00T internal ref (°C)	34.64T ext. ref 1 (°C)	-0.36T ext. ref 2 (°C)	26.89length (m)	temperature (°C)	Stokes	anti-Stokes-747.200	696.510	0.080	-0.214
-746.185	-68.436	-0.149	-0.059
-745.171	106.130	-0.081	0.097
-744.156	410.613	-0.149	0.320
-743.142	-90.933	-0.218	0.064
-742.127	-112.999	-0.076	0.015
-741.112	-75.605	-0.274	-0.099
-740.098	800.000	-0.045	-0.127
-739.083	-200.000	-0.018	0.436
-738.069	-47.743	-0.084	-0.041
-737.054	14.734	0.178	-0.141
-736.039	-131.295	-0.370	-0.050
-735.025	-97.518	-0.233	-0.061
-734.010	-20.962	-0.155	-0.097
-732.996	636.741	-0.022	-0.056
-731.981	149.335	-0.146	0.200
-730.966	150.684	-0.088	0.121
-729.952	621.286	0.042	-0.107
-728.937	-98.437	-0.252	0.065
-727.923	34.428	-0.060	0.053
-726.908	-200.000	-0.021	0.128
-725.894	-104.857	0.190	-0.044
-724.879	411.052	0.056	-0.121
-723.864	-200.000	-0.021	-0.298
-722.850	-35.172	-0.300	0.166
-721.835	30.037	-0.242	0.209
-720.821	-69.006	-0.191	0.075
-719.806	386.364	0.196	-0.410
-718.791	53.139	0.118	-0.115
-717.777	-81.656	-0.316	-0.105
-716.762	-8.496	0.097	0.066
-715.748	284.451	0.030	-0.055
-714.733	2.128	-0.168	0.123
-713.718	25.932	-0.325	0.274
-712.704	-150.017	-0.166	0.013
-711.689	-24.193	-0.419	-0.254
-710.675	475.620	-0.081	0.185
-709.660	684.649	-0.060	-0.159
-708.645	-200.000	-0.035	-0.162
-707.631	95.376	0.183	-0.211
-706.616	-25.833	0.138	-0.082
-705.602	76.923	0.079	-0.085
-704.587	-200.000	0.003	0.055
-703.572	-200.000	-0.054	0.357
-702.558	179.553	0.072	-0.106
-701.543	-16.290	0.114	0.074
-700.529	-146.672	0.218	0.019
-699.514	-135.905	0.150	0.018
-698.499	-200.000	-0.021	0.147
-697.485	477.198	0.049	-0.113
-696.470	-67.257	-0.237	-0.094
-695.456	119.109	0.178	-0.223
-694.441	-137.079	0.225	-0.026
-693.426	-142.624	-0.389	0.039
-692.412	16.490	-0.038	-0.031
-691.397	126.601	-0.194	-0.249
-690.383	92.215	-0.104	0.119
-689.368	-200.000	0.018	-0.156
-688.354	17.940	0.207	0.167
-687.339	-61.528	-0.242	-0.103
-686.324	-200.000	-0.025	-0.149
-685.310	-200.000	-0.007	-0.174
-684.295	30.079	-0.234	0.202
-683.281	-128.067	0.168	-0.024
-682.266	-200.000	-0.021	-0.102
-681.251	563.903	0.128	0.314
-680.237	-60.828	-0.137	0.059
-679.222	7.798	0.107	-0.081
-678.208	-200.000	-0.002	0.570
-677.193	328.453	-0.151	-0.293
-676.178	-200.000	-0.044	-0.214
-675.164	-35.899	-0.182	-0.100
-674.149	-3.507	0.099	-0.069
-673.135	-75.359	0.431	-0.155
-672.120	800.000	-0.047	0.191
-671.105	54.995	0.069	-0.067
-670.091	-106.277	0.239	-0.054
-669.076	658.428	-0.052	0.135
-668.062	800.000	-0.055	-0.206
-667.047	-63.722	-0.185	0.077
-666.032	82.433	0.062	-0.068
-665.018	800.000	-0.072	-0.231
-664.003	-113.491	-0.267	-0.053
-662.989	-200.000	-0.061	-0.366
-661.974	52.560	-0.171	0.165
-660.959	35.765	0.098	-0.088
-659.945	-133.450	-0.400	-0.051
-658.930	308.313	-0.145	0.274
-657.916	-36.516	-0.118	-0.064
-656.901	-147.077	-0.090	0.008
-655.886	122.806	0.058	-0.073
-654.872	-43.012	0.194	0.099
-653.857	-88.776	0.222	0.067
-652.843	-12.700	-0.124	-0.081
-651.828	240.248	-0.200	0.337
-650.814	-135.989	0.259	0.031
-649.799	64.341	0.021	-0.021
-648.784	-17.489	0.131	0.084
-647.770	388.800	0.096	-0.201
-646.755	-200.000	-0.027	-0.141
-645.741	425.884	-0.121	0.264
-644.726	-71.273	-0.121	0.046
-643.711	800.000	0.033	-0.114
-642.697	800.000	0.010	-0.035
-641.682	93.833	0.071	-0.081
-640.668	90.941	-0.247	-0.280
-639.653	113.374	-0.202	-0.248
-638.638	611.032	0.153	-0.387
-637.624	81.838	-0.339	-0.371
-636.609	58.851	0.162	-0.161
-635.595	240.709	0.093	0.157
-634.580	-148.621	0.038	-0.003
-633.565	244.416	-0.245	-0.416
-632.551	-56.293	0.342	-0.154
-631.536	-200.000	0.095	-0.457
-630.522	-157.914	-0.085	-0.005
-629.507	-200.000	-0.003	0.346
-628.492	-177.349	0.306	-0.008
-627.478	-95.746	-0.160	-0.043
-626.463	15.836	-0.091	-0.072
-625.449	-97.566	-0.219	0.057
-624.434	-200.000	0.029	-0.449
-623.419	-81.499	0.186	0.062
-622.405	-93.761	0.342	-0.095
-621.390	-77.516	0.066	-0.023
-620.376	174.434	0.051	0.074
-619.361	-10.715	-0.134	-0.090
-618.346	-110.443	-0.244	0.051
-617.332	-32.942	-0.186	0.104
-616.317	-196.558	0.059	0.000
-615.303	-137.263	-0.159	-0.018
-614.288	-70.701	0.064	0.024
-613.273	65.758	0.134	-0.137
-612.259	-200.000	0.003	0.112
-611.244	-61.245	0.237	0.101
-610.230	243.813	0.108	-0.183
-609.215	800.000	0.053	-0.208
-608.201	-81.562	-0.334	-0.111
-607.186	800.000	-0.041	-0.165
-606.171	47.408	0.051	-0.048
-605.157	-24.568	0.138	0.083
-604.142	-200.000	-0.020	-0.473
-603.128	800.000	0.077	-0.292
-602.113	796.895	0.053	0.147
-601.098	-119.443	-0.225	-0.039
-600.084	37.694	-0.056	0.050
-599.069	-108.223	0.140	0.031
-598.055	800.000	-0.091	-0.342
-597.040	74.688	-0.239	0.253
-596.025	413.834	-0.114	-0.245
-595.011	-99.940	-0.166	-0.042
-593.996	-93.684	0.304	0.085
-592.982	-109.896	0.237	0.050
-591.967	-15.207	0.258	-0.167
-590.952	51.485	0.069	0.066
-589.938	9.037	-0.084	0.064
-588.923	-97.288	0.096	-0.025
-587.909	-200.000	-0.066	0.294
-586.894	152.743	-0.146	0.201
-585.879	-56.106	0.148	0.066
-584.865	-200.000	0.011	-0.234
-583.850	178.193	0.052	-0.077
-582.836	800.000	-0.003	-0.011
-581.821	-200.000	0.008	-0.037
-580.806	257.994	-0.155	0.270
-579.792	30.574	0.197	0.170
-578.777	-23.110	0.415	0.252
-577.763	452.976	0.125	0.279
-576.748	800.000	-0.045	0.140
-575.733	100.231	-0.161	-0.188
-574.719	-2.797	-0.138	-0.098
-573.704	-200.000	-0.018	0.085
-572.690	-19.393	-0.107	0.067
-571.675	140.571	0.199	0.265
-570.661	661.194	0.088	-0.228
-569.646	-175.078	0.177	-0.005
-568.631	-120.237	0.147	0.025
-567.617	-104.077	0.269	-0.063
-566.602	87.906	-0.072	0.080
-565.588	37.107	0.238	0.212
-564.573	-160.707	0.239	0.013
-563.558	-43.198	0.172	0.088
-562.544	-71.695	0.028	-0.011
-561.529	61.548	0.122	0.122
-560.515	-56.503	-0.059	0.026
-559.500	24.203	0.031	-0.026
-558.485	14.983	-0.202	-0.159
-557.471	8.090	0.097	-0.073
-556.456	-9.200	0.127	0.086
-555.442	-155.999	-0.180	-0.011
-554.427	-170.978	0.134	0.005
-553.412	219.794	-0.160	-0.257
-552.398	800.000	0.060	0.264
-551.383	48.397	-0.102	0.096
-550.369	166.876	-0.107	0.153
-549.354	22.928	0.031	0.025
-548.339	-97.699	0.170	-0.044
-547.325	132.462	-0.059	0.076
-546.310	201.881	-0.209	-0.325
-545.296	56.124	-0.070	-0.068
-544.281	-146.658	0.170	0.015
-543.266	43.377	0.149	-0.137
-542.252	-68.165	0.287	0.113
-541.237	103.866	0.157	-0.186
-540.223	-85.297	-0.542	-0.170
-539.208	3.854	-0.179	0.132
-538.193	-74.275	0.307	-0.112
-537.179	-115.986	-0.259	0.049
-536.164	-75.663	0.199	0.071
-535.150	-86.255	-0.404	0.125
-534.135	-80.748	-0.065	-0.022
-533.121	6.935	-0.089	-0.067
-532.106	167.213	-0.201	0.287
-531.091	-10.556	-0.296	0.197
-530.077	-7.004	0.138	-0.094
-529.062	155.086	-0.068	0.094
-528.048	800.000	0.030	0.101
-527.033	462.097	-0.052	-0.116
-526.018	161.218	0.052	0.074
-525.004	-73.714	-0.449	-0.164
-523.989	-57.026	0.300	-0.133
-522.975	-66.593	-0.217	-0.086
-521.960	-200.000	-0.041	-0.183
-520.945	-74.732	-0.244	0.088
-519.931	-35.901	0.119	0.065
-518.916	-86.374	-0.158	0.049
-517.902	5.112	-0.191	0.141
-516.887	800.000	0.063	0.189
-515.872	-53.329	-0.201	-0.092
-514.858	-135.006	0.093	-0.011
-513.843	21.605	-0.098	-0.080
-512.829	-97.226	0.215	0.056
-511.814	4.897	-0.197	0.146
-510.799	79.820	0.102	0.110
-509.785	-200.000	0.027	-0.300
-508.770	-100.934	-0.231	0.057
-507.756	640.458	-0.045	0.115
-506.741	166.004	-0.096	0.136
-505.726	-59.282	0.231	0.100
-504.712	-200.000	0.002	-0.091
-503.697	-156.092	-0.222	0.014
-502.683	-200.000	-0.058	0.335
-501.668	148.545	-0.162	-0.220
-500.653	81.082	-0.138	0.149
-499.639	-128.524	-0.193	-0.027
-498.624	-25.654	0.148	0.088
-497.610	-113.138	0.036	0.007
-496.595	-16.157	-0.258	-0.165
-495.581	223.713	-0.066	-0.106
-494.566	171.371	0.090	0.129
-493.551	204.021	0.078	0.121
-492.537	0.290	0.203	-0.145
-491.522	-80.841	0.305	-0.102
-490.508	-154.653	-0.112	-0.007
-489.493	800.000	-0.092	-0.291
-488.478	246.794	0.027	0.046
-487.464	1.058	-0.100	-0.072
-486.449	-151.715	-0.180	0.013
-485.435	-45.557	0.505	-0.251
-484.420	800.000	0.070	-0.289
-483.405	-43.927	0.111	-0.056
-482.391	45.645	0.186	-0.173
-481.376	151.673	-0.103	-0.141
-480.362	-19.050	-0.079	0.049
-479.347	291.802	0.062	0.113
-478.332	800.000	0.101	-0.346
-477.318	10.042	0.323	-0.246
-476.303	-76.443	-0.211	-0.075
-475.289	-200.000	0.013	-0.278
-474.274	190.366	0.061	0.092
-473.259	-54.092	-0.380	0.174
-472.245	5.459	-0.177	0.131
-471.230	-200.000	0.030	0.267
-470.216	169.077	0.064	0.091
-469.201	634.531	0.076	-0.193
-468.186	34.687	-0.109	0.096
-467.172	-200.000	0.050	-0.457
-466.157	-200.000	0.081	-0.379
-465.143	3.648	0.158	0.116
-464.128	800.000	-0.054	-0.230
-463.113	-68.047	0.284	-0.111
-462.099	42.884	0.074	-0.068
-461.084	33.765	0.276	0.241
-460.070	187.408	0.119	-0.178
-459.055	9.028	0.229	-0.173
-458.040	103.008	-0.130	-0.153
-457.026	58.492	0.176	0.173
-456.011	-101.699	0.191	-0.046
-454.997	-105.172	-0.111	0.025
-453.982	-27.256	0.035	0.020
-452.968	170.002	0.121	0.174
-451.953	69.108	-0.147	0.151
-450.938	-112.996	-0.150	-0.030
-449.924	800.000	0.205	-0.639
-448.909	297.079	0.018	0.032
-447.895	301.056	-0.085	0.158
-446.880	-200.000	-0.001	0.349
-445.865	-148.402	0.495	-0.041
-444.851	79.557	0.069	-0.075
-443.836	-200.000	0.034	0.390
-442.822	52.225	-0.190	0.182
-441.807	-200.000	-0.042	-0.389
-440.792	-83.069	0.143	0.046
-439.778	-20.161	0.154	0.095
-438.763	409.389	0.062	0.131
-437.749	68.355	-0.124	0.127
-436.734	-124.565	0.078	-0.012
-435.719	552.513	-0.110	0.265
-434.705	-32.127	0.184	0.103
-433.690	-200.000	0.056	-0.308
-432.676	-75.067	0.217	0.078
-431.661	142.771	-0.224	0.298
-430.646	29.869	-0.168	-0.144
-429.632	-200.000	0.005	-0.095
-428.617	-191.949	0.229	0.002
-427.603	-27.550	-0.272	0.159
-426.588	-68.284	-0.401	-0.156
-425.573	-200.000	0.051	-0.332
-424.559	-135.691	0.192	-0.023
-423.544	199.605	0.049	0.076
-422.530	-51.251	0.150	-0.070
-421.515	-36.285	-0.291	-0.157
-420.500	726.098	0.035	-0.092
-419.486	229.674	0.210	-0.343
-418.471	-64.484	0.038	-0.015
-417.457	-2.116	-0.260	0.183
-416.442	-77.664	0.202	-0.070
-415.428	-127.064	-0.210	-0.031
-414.413	425.142	0.122	-0.263
-413.398	-136.840	0.285	-0.033
-412.384	125.755	-0.106	-0.134
-411.369	301.628	0.271	0.502
-410.355	320.566	-0.079	0.150
-409.340	764.665	0.081	0.221
-408.325	-131.993	-0.040	0.005
-407.311	800.000	0.046	0.130
-406.296	-200.000	0.004	0.041
-405.282	-200.000	0.067	-0.512
-404.267	-16.358	-0.229	0.146
-403.252	41.791	0.166	0.150
-402.238	647.541	0.101	0.259
-401.223	800.000	-0.054	-0.233
-400.209	-70.336	0.226	-0.086
-399.194	-200.000	-0.025	0.134
-398.179	-200.000	-0.373	0.000
-397.165	9.350	-0.035	0.027
-396.150	-200.000	0.033	-0.259
-395.136	-116.231	0.191	-0.035
-394.121	495.943	-0.031	0.071
-393.106	-65.555	-0.301	0.121
-392.092	40.085	0.228	0.205
-391.077	-116.979	0.035	0.006
-390.063	-77.706	-0.285	0.099
-389.048	-150.796	0.295	0.022
-388.033	-123.260	-0.116	0.019
-387.019	800.000	-0.065	-0.195
-386.004	68.531	-0.221	0.227
-384.990	61.728	0.269	0.268
-383.975	65.667	0.230	-0.233
-382.960	40.165	-0.231	0.207
-381.946	145.377	0.182	0.244
-380.931	-20.051	0.390	0.241
-379.917	-200.000	0.002	0.061
-378.902	-6.429	0.046	-0.031
-377.888	-7.653	-0.201	0.136
-376.873	-200.000	0.040	-0.177
-375.858	391.438	-0.033	-0.068
-374.844	-200.000	-0.000	-0.014
-373.829	-200.000	-0.038	0.173
-372.815	-72.031	-0.116	-0.043
-371.800	72.986	0.122	-0.127
-370.785	190.882	-0.179	-0.270
-369.771	800.000	0.092	-0.339
-368.756	307.359	-0.198	-0.370
-367.742	-121.640	-0.370	-0.061
-366.727	165.565	0.182	-0.257
-365.712	-32.964	0.213	-0.118
-364.698	44.631	0.068	0.063
-363.683	93.166	0.135	0.153
-362.669	-61.356	-0.159	-0.067
-361.654	-200.000	0.006	-0.284
-360.639	-105.540	-0.195	-0.044
-359.625	314.364	0.177	0.333
-358.610	-115.829	0.353	-0.066
-357.596	221.816	-0.160	0.258
-356.581	-106.996	0.203	0.045
-355.566	-9.276	-0.231	-0.154
-354.552	-200.000	0.012	-0.107
-353.537	-129.945	-0.207	0.028
-352.523	-200.000	0.046	-0.216
-351.508	800.000	0.047	0.202
-350.493	-51.942	0.143	0.067
-349.479	-23.955	-0.384	-0.229
-348.464	110.093	-0.178	0.213
-347.450	-200.000	-0.031	0.466
-346.435	170.532	-0.110	0.158
-345.420	178.080	0.037	-0.054
-344.406	92.575	0.092	-0.103
-343.391	-68.910	0.222	-0.086
-342.377	30.725	0.404	-0.345
-341.362	-166.578	-0.303	-0.013
-340.348	-160.135	0.310	-0.017
-339.333	-200.000	0.009	0.068
-338.318	-89.329	-0.064	0.019
-337.304	302.043	-0.125	0.230
-336.289	800.000	-0.093	0.274
-335.275	-70.010	-0.390	-0.148
-334.260	-200.000	-0.051	-0.381
-333.245	4.723	0.184	0.135
-332.231	94.857	-0.168	0.191
-331.216	-94.787	0.355	0.096
-330.202	141.883	-0.092	0.122
-329.187	18.461	0.063	-0.051
-328.172	800.000	0.064	0.231
-327.158	0.163	-0.382	0.272
-326.143	-54.867	-0.352	-0.158
-325.129	297.128	0.108	0.197
-324.114	27.850	0.163	0.137
-323.099	285.395	-0.132	-0.237
-322.085	-170.022	-0.425	0.015
-321.070	196.346	0.117	-0.177
-320.056	-75.462	-0.156	-0.055
-319.041	-109.398	-0.499	0.105
-318.026	73.285	0.006	0.006
-317.012	-200.000	0.054	-0.389
-315.997	-101.537	-0.101	0.025
-314.983	39.195	-0.126	0.113
-313.968	114.776	-0.043	-0.052
-312.953	-200.000	-0.039	-0.227
-311.939	116.585	0.154	0.188
-310.924	-139.448	-0.332	0.035
-309.910	752.812	0.124	-0.333
-308.895	146.444	0.126	0.169
-307.880	8.612	-0.257	0.193
-306.866	1.793	-0.250	0.179
-305.851	800.000	-0.079	0.283
-304.837	-41.783	0.232	-0.119
-303.822	793.845	0.039	0.107
-302.807	238.004	-0.113	-0.187
-301.793	-108.851	0.116	0.025
-300.778	227.938	0.113	-0.184
-299.764	50.295	-0.142	0.133
-298.749	79.469	-0.264	0.282
-297.735	78.506	0.068	0.072
-296.720	637.162	-0.088	-0.222
-295.705	84.289	0.379	-0.413
-294.691	218.628	-0.094	-0.150
-293.676	418.148	-0.054	0.115
-292.662	-200.000	0.011	-0.132
-291.647	-125.918	-0.308	0.046
-290.632	-200.000	-0.006	-0.354
-289.618	239.825	0.186	-0.309
-288.603	-2.810	0.137	-0.096
-287.589	800.000	0.041	0.156
-286.574	-47.135	-0.135	0.065
-285.559	252.701	-0.073	0.124
-284.545	-45.038	0.063	-0.031
-283.530	-200.000	-0.044	0.198
-282.516	-85.403	0.310	0.096
-281.501	500.369	0.096	0.220
-280.486	78.660	-0.199	0.212
-279.472	-99.892	-0.207	-0.051
-278.457	49.225	-0.134	0.126
-277.443	273.606	-0.114	-0.200
-276.428	-200.000	-0.018	-0.479
-275.413	359.103	-0.072	0.142
-274.399	15.540	-0.125	0.097
-273.384	294.039	0.065	-0.119
-272.370	-200.000	0.030	0.151
-271.355	-109.630	-0.354	-0.074
-270.340	-40.618	-0.129	0.066
-269.326	72.487	-0.098	-0.102
-268.311	800.000	0.037	0.115
-267.297	326.718	-0.040	-0.076
-266.282	-200.000	0.014	0.114
-265.267	-120.213	-0.291	0.050
-264.253	-94.863	0.191	0.052
-263.238	12.689	0.313	0.240
-262.224	465.568	-0.086	0.193
-261.209	-43.251	-0.206	-0.104
-260.195	-200.000	-0.003	0.094
-259.180	639.677	0.079	-0.201
-258.165	-89.484	0.280	-0.082
-257.151	401.355	0.061	0.127
-256.136	-200.000	-0.032	-0.151
-255.122	45.751	0.208	0.192
-254.107	800.000	0.065	0.214
-253.092	-82.968	0.028	0.009
-252.078	-158.271	0.294	-0.017
-251.063	464.240	0.060	0.133
-250.049	353.108	-0.081	-0.160
-249.034	635.519	0.151	0.382
-248.019	-200.000	0.030	-0.354
-247.005	13.196	-0.156	0.120
-245.990	-200.000	-0.037	0.190
-244.976	218.996	-0.077	0.122
-243.961	-29.762	0.156	-0.088
-242.946	14.923	0.177	-0.138
-241.932	155.600	-0.078	-0.107
-240.917	-73.312	-0.147	-0.054
-239.903	-89.213	0.074	0.022
-238.888	-83.741	-0.368	-0.117
-237.873	177.623	0.145	-0.210
-236.859	-156.631	-0.202	0.012
-235.844	73.621	-0.140	-0.146
-234.830	90.415	0.154	-0.172
-233.815	57.193	0.131	0.128
-232.800	800.000	0.123	0.353
-231.786	-200.000	-0.022	0.101
-230.771	48.079	0.201	0.187
-229.757	-111.782	-0.253	-0.051
-228.742	-71.066	0.234	-0.088
-227.727	-84.582	0.204	-0.064
-226.713	-55.175	-0.328	0.147
-225.698	-135.831	-0.091	0.011
-224.684	-200.000	-0.018	-0.185
-223.669	800.000	-0.044	0.138
-222.655	-115.558	-0.119	0.022
-221.640	134.896	-0.251	0.325
-220.625	-101.253	0.164	-0.040
-219.611	-139.076	0.179	-0.019
-218.596	800.000	0.004	-0.015
-217.582	24.860	-0.481	0.396
-216.567	209.347	-0.139	-0.216
-215.552	169.692	-0.154	0.219
-214.538	-95.131	-0.180	0.048
-213.523	-200.000	0.038	0.345
-212.509	-12.451	-0.123	0.080
-211.494	-49.403	0.050	-0.024
-210.479	-200.000	0.065	0.369
-209.465	139.045	-0.068	-0.088
-208.450	-87.922	0.140	-0.042
-207.436	306.661	0.120	0.223
-206.421	311.683	-0.213	0.397
-205.406	396.218	0.111	0.230
-204.392	-55.159	0.128	0.057
-203.377	-121.173	0.345	0.057
-202.363	-19.413	-0.079	-0.048
-201.348	61.631	0.172	0.170
-200.333	-2.453	0.122	0.085
-199.319	18.851	0.207	-0.165
-198.304	25.732	0.211	-0.175
-197.290	-77.591	0.048	-0.017
-196.275	-200.000	0.015	-0.204
-195.260	-200.000	0.020	-0.121
-194.246	-200.000	0.120	0.563
-193.231	-200.000	-0.036	-0.321
-192.217	87.932	-0.182	0.201
-191.202	-71.956	0.250	0.092
-190.187	800.000	-0.070	0.197
-189.173	-45.457	0.152	0.075
-188.158	-185.335	0.197	-0.003
-187.144	-17.501	-0.101	0.063
-186.129	-186.227	0.378	0.005
-185.114	-20.527	0.222	-0.135
-184.100	-163.715	-0.028	0.001
-183.085	198.128	-0.169	-0.256
-182.071	-41.729	0.129	0.066
-181.056	270.497	0.044	-0.076
-180.042	477.454	0.162	-0.364
-179.027	-200.000	-0.010	-0.071
-178.012	-102.939	0.230	0.054
-176.998	-105.514	-0.077	0.017
-175.983	-200.000	-0.000	-0.045
-174.969	-104.477	-0.568	-0.130
-173.954	-200.000	-0.012	-0.330
-172.939	35.354	-0.180	0.157
-171.925	26.639	0.228	0.189
-170.910	214.101	0.130	0.205
-169.896	181.365	-0.116	0.170
-168.881	-200.000	-0.024	0.298
-167.866	17.586	-0.064	-0.050
-166.852	-200.000	0.041	0.427
-165.837	800.000	-0.063	0.196
-164.823	4.448	-0.183	-0.133
-163.808	252.944	-0.112	0.189
-162.793	-41.793	0.114	-0.058
-161.779	-42.913	-0.243	0.122
-160.764	177.704	-0.061	0.087
-159.750	-82.393	-0.309	-0.100
-158.735	699.108	0.033	-0.087
-157.720	27.298	-0.212	0.176
-156.706	314.847	0.039	0.073
-155.691	-14.825	0.327	-0.208
-154.677	165.174	0.071	-0.099
-153.662	29.193	-0.057	0.048
-152.647	-44.748	0.186	0.092
-151.633	800.000	-0.038	0.120
-150.618	-142.010	0.209	-0.021
-149.604	-149.795	0.358	-0.028
-148.589	800.000	-0.059	0.194
-147.574	-83.062	-0.325	-0.104
-146.560	19.099	0.111	-0.088
-145.545	33.075	0.395	-0.340
-144.531	52.531	-0.242	0.229
-143.516	800.000	-0.071	0.280
-142.502	390.761	-0.076	-0.157
-141.487	66.200	-0.181	-0.183
-140.472	-48.910	0.043	0.020
-139.458	-166.031	-0.135	-0.006
-138.443	800.000	-0.113	0.352
-137.429	-40.582	0.076	0.039
-136.414	800.000	0.039	0.152
-135.399	-48.213	-0.161	0.077
-134.385	-200.000	-0.009	0.279
-133.370	28.314	-0.241	0.201
-132.356	-2.699	-0.077	-0.053
-131.341	-147.704	-0.265	-0.022
-130.326	-80.966	0.264	-0.087
-129.312	-68.496	-0.083	-0.032
-128.297	294.642	-0.130	-0.235
-127.283	-97.478	0.439	0.113
-126.268	-44.441	-0.193	0.095
-125.253	37.010	-0.161	-0.141
-124.239	70.353	-0.201	-0.206
-123.224	35.213	-0.106	0.092
-122.210	-52.249	-0.126	0.058
-121.195	404.772	0.057	-0.120
-120.180	-24.683	0.197	-0.116
-119.166	-8.286	0.111	-0.074
-118.151	-66.553	-0.149	-0.058
-117.137	89.823	-0.222	-0.245
-116.122	263.573	0.031	-0.053
-115.107	-200.000	0.001	0.204
-114.093	-28.881	0.005	0.003
-113.078	-200.000	0.051	0.241
-112.064	-50.153	-0.211	-0.099
-111.049	-200.000	0.001	-0.072
-110.034	-200.000	-0.008	0.035
-109.020	-200.000	-0.015	0.136
-108.005	800.000	0.077	-0.307
-106.991	47.435	-0.093	-0.086
-105.976	-141.448	-0.368	-0.037
-104.962	-200.000	-0.024	0.409
-103.947	-81.702	0.258	-0.084
-102.932	285.220	0.109	-0.194
-101.918	89.193	-0.146	0.161
-100.903	-92.721	0.215	-0.059
-99.889	-44.417	0.175	0.087
-98.874	3.542	0.096	-0.069
-97.859	-200.000	-0.028	0.140
-96.845	-96.490	0.546	0.142
-95.830	-200.000	0.026	-0.120
-94.816	-171.643	-0.276	0.009
-93.801	-200.000	-0.038	0.203
-92.786	103.051	-0.124	0.144
-91.772	-171.915	0.051	-0.002
-90.757	12.060	-0.044	0.034
-89.743	198.807	0.078	0.117
-88.728	-87.969	0.088	-0.026
-87.713	59.160	-0.053	-0.052
-86.699	800.000	-0.073	0.216
-85.684	56.785	0.213	0.205
-84.670	87.686	0.195	0.213
-83.655	-200.000	-0.001	-0.350
-82.640	-21.425	0.203	0.122
-81.626	-115.411	0.390	-0.073
-80.611	215.523	-0.080	0.126
-79.597	132.988	-0.131	-0.168
-78.582	-7.557	0.232	-0.155
-77.567	-140.008	-0.115	0.012
-76.553	-0.643	0.140	-0.098
-75.538	-70.949	0.294	0.109
-74.524	-44.008	-0.140	-0.069
-73.509	641.463	0.078	0.197
-72.494	-200.000	-0.026	0.358
-71.480	50.466	-0.200	-0.187
-70.465	245.897	-0.109	-0.181
-69.451	-200.000	0.005	0.092
-68.436	10.388	0.131	0.098
-67.422	455.322	0.161	-0.352
-66.407	56.748	0.135	-0.130
-65.392	19.423	-0.082	0.065
-64.378	-14.258	0.160	-0.102
-63.363	-200.000	-0.004	0.036
-62.349	-117.833	0.221	0.039
-61.334	-17.880	-1.228	-0.761
-60.319	-200.000	0.089	0.500
-59.305	-200.000	-0.054	-0.670
-58.290	317.761	0.648	1.211
-57.276	687.714	0.584	1.508
-56.261	-200.000	101.409	593.883
-55.246	606.364	1421.949	3499.685
-54.232	181.657	2642.182	3839.535
-53.217	119.594	2207.016	2699.147
-52.203	45.051	1736.465	1579.522
-51.188	37.885	1545.926	1356.522
-50.173	35.279	1518.568	1314.623
-49.159	54.418	1571.706	1494.667
-48.144	57.767	1589.733	1535.110
-47.130	38.022	1543.475	1355.110
-46.115	34.898	1527.960	1319.917
-45.100	34.815	1523.825	1315.718
-44.086	34.702	1522.393	1313.650
-43.071	34.672	1520.809	1312.025
-42.057	34.621	1519.139	1310.182
-41.042	34.582	1517.944	1308.836
-40.027	34.632	1516.409	1307.799
-39.013	34.636	1514.855	1306.440
-37.998	34.606	1513.646	1305.139
-36.984	34.617	1512.653	1304.308
-35.969	34.704	1510.976	1303.401
-34.954	34.606	1509.583	1301.481
-33.940	34.575	1508.276	1300.090
-32.925	34.685	1506.547	1299.293
-31.911	34.580	1505.860	1297.936
-30.896	34.652	1504.272	1297.009
-29.881	34.710	1502.651	1295.951
-28.867	34.745	1501.461	1295.110
-27.852	34.669	1499.619	1292.956
-26.838	34.780	1498.392	1292.594
-25.823	34.652	1496.689	1290.216
-24.809	34.620	1495.360	1288.800
-23.794	34.661	1494.004	1287.859
-22.779	34.750	1492.881	1287.440
-21.765	34.700	1491.640	1285.979
-20.750	34.795	1489.891	1285.062
-19.736	34.659	1489.427	1283.691
-18.721	34.557	1488.488	1282.150
-17.706	34.610	1487.515	1281.617
-16.692	34.653	1486.366	1280.863
-15.677	34.691	1485.101	1279.977
-14.663	34.671	1484.245	1279.052
-13.648	34.571	1482.967	1277.235
-12.633	34.611	1482.229	1276.817
-11.619	34.597	1481.305	1275.875
-10.604	34.632	1480.204	1275.108
-9.590	34.627	1479.569	1274.477
-8.575	34.626	1478.755	1273.717
-7.560	34.630	1478.572	1273.538
-6.546	34.609	1477.691	1272.591
-5.531	34.536	1476.544	1271.060
-4.517	34.652	1475.332	1270.745
-3.502	34.577	1474.621	1269.577
-2.487	34.621	1473.303	1268.685
-1.473	34.601	1471.733	1267.155
-0.458	34.674	1470.412	1266.449
0.556	32.103	1460.439	1253.415
1.571	28.414	1433.266	1205.768
2.586	24.264	1369.903	1126.199
3.600	22.213	1286.789	1045.596
4.615	20.969	1241.611	1001.651
5.629	17.869	1186.173	939.801
6.644	8.675	1099.300	823.773
7.659	1.072	1056.321	753.785
8.673	-0.165	1050.807	743.661
9.688	-0.331	1047.672	740.556
10.702	-0.496	1046.379	738.767
11.717	-0.457	1044.198	737.350
12.731	2.576	1047.265	754.404
13.746	11.556	1060.418	808.423
14.761	17.710	1067.692	844.469
15.775	17.976	1067.162	845.290
16.790	17.741	1066.438	843.479
17.804	17.440	1065.637	841.285
18.819	17.182	1064.601	839.117
19.834	17.408	1063.832	839.554
20.848	17.346	1063.337	838.783
21.863	17.345	1062.660	838.170
22.877	17.350	1062.522	838.010
23.892	17.318	1061.567	837.027
24.907	17.085	1061.471	835.728
25.921	17.266	1060.536	835.810
26.936	17.424	1059.430	835.638
27.950	17.334	1058.288	834.221
28.965	17.348	1056.886	833.111
29.980	17.154	1055.649	831.116
30.994	17.209	1053.439	829.570
32.009	17.273	1053.140	829.574
33.023	17.409	1052.293	829.498
34.038	17.207	1050.604	827.110
35.053	17.158	1050.031	826.348
36.067	17.457	1049.373	827.206
37.082	17.432	1048.362	826.214
38.096	17.399	1047.668	825.438
39.111	17.540	1047.101	825.600
40.126	17.704	1045.826	825.318
41.140	17.562	1045.179	824.044
42.155	17.553	1043.027	822.230
43.169	17.152	1041.979	819.398
44.184	17.107	1040.700	818.103
45.199	17.166	1039.587	817.440
46.213	17.004	1038.853	816.012
47.228	16.985	1037.695	814.939
48.242	17.054	1036.494	814.256
49.257	17.202	1035.209	813.881
50.271	17.215	1034.521	813.330
51.286	17.266	1033.762	812.909
52.301	17.385	1032.471	812.387
53.315	17.336	1031.856	811.598
54.330	17.301	1030.858	810.574
55.344	17.273	1029.914	809.629
56.359	17.435	1028.640	809.324
57.374	17.346	1027.741	808.121
58.388	17.205	1026.859	806.690
59.403	17.220	1026.090	806.085
60.417	17.148	1025.429	805.154
61.432	16.983	1024.672	803.706
62.447	17.135	1023.202	803.199
63.461	17.267	1022.766	803.410
64.476	17.205	1021.839	802.321
65.490	17.311	1020.845	801.970
66.505	17.291	1019.510	800.753
67.520	17.217	1019.195	800.087
68.534	17.336	1018.485	800.016
69.549	17.171	1017.179	798.148
70.563	16.953	1016.176	796.265
71.578	17.006	1015.288	795.747
72.593	17.019	1014.170	794.862
73.607	16.953	1013.292	793.796
74.622	17.007	1011.991	792.960
75.636	17.182	1011.437	793.271
76.651	17.300	1010.974	793.387
77.666	17.221	1009.918	792.121
78.680	17.024	1009.018	790.426
79.695	17.078	1008.444	790.162
80.709	17.168	1007.437	789.720
81.724	17.287	1006.627	789.567
82.739	17.119	1005.992	788.219
83.753	17.190	1004.960	787.672
84.768	17.364	1004.684	788.192
85.782	17.517	1003.643	788.012
86.797	17.498	1002.526	786.979
87.812	17.484	1001.574	786.096
88.826	17.288	1000.830	784.539
89.841	17.403	999.669	784.090
90.855	17.397	998.984	783.452
91.870	17.513	998.120	783.242
92.884	17.513	997.278	782.513
93.899	17.411	996.271	781.185
94.914	17.333	995.098	779.835
95.928	17.546	994.393	780.189
96.943	17.491	993.809	779.415
97.957	17.256	992.525	777.261
98.972	17.058	991.587	775.555
99.987	16.833	990.691	773.757
101.001	16.857	989.956	773.224
102.016	17.309	989.251	774.664
103.030	17.367	988.706	774.434
104.045	17.236	987.073	772.492
105.060	17.083	985.928	770.833
106.074	16.836	984.562	768.573
107.089	16.962	983.878	768.546
108.103	17.140	984.342	769.647
109.118	17.432	983.240	770.040
110.133	17.224	981.692	767.819
111.147	17.379	980.862	767.799
112.162	17.342	979.330	766.364
113.176	16.937	978.894	764.135
114.191	17.080	977.692	763.770
115.206	17.134	976.416	762.947
116.220	16.983	975.691	761.637
117.235	16.901	974.228	760.060
118.249	17.108	973.657	760.476
119.264	17.052	972.900	759.566
120.279	16.955	972.105	758.445
121.293	17.026	971.046	757.867
122.308	17.050	970.297	757.324
123.322	17.092	969.592	756.891
124.337	17.176	968.342	756.223
125.352	17.186	966.763	754.969
126.366	16.696	965.366	751.635
127.381	16.383	963.794	748.958
128.395	16.785	963.121	750.148
129.410	17.434	962.582	752.535
130.424	17.417	962.218	752.109
131.439	17.514	960.650	751.242
132.454	17.372	959.717	749.821
133.468	17.411	958.797	749.211
134.483	17.331	958.264	748.375
135.497	17.362	957.109	747.541
136.512	17.529	956.618	747.827
137.527	17.761	955.538	747.932
138.541	17.665	954.825	746.887
139.556	17.742	953.761	746.327
140.570	17.531	953.221	744.914
141.585	17.470	952.170	743.763
142.600	17.546	951.499	743.503
143.614	17.450	950.659	742.363
144.629	17.507	949.847	741.910
145.643	17.753	948.981	742.239
146.658	17.657	948.095	741.062
147.673	17.683	946.771	740.077
148.687	17.448	945.894	738.305
149.702	17.537	944.446	737.496
150.716	17.530	943.342	736.537
151.731	17.419	942.531	735.360
152.746	17.504	942.122	735.343
153.760	17.723	941.361	735.629
154.775	17.758	940.566	735.095
155.789	17.748	939.678	734.289
156.804	17.700	938.673	733.233
157.819	17.607	937.844	732.123
158.833	17.637	936.743	731.327
159.848	17.792	935.918	731.281
160.862	17.821	935.138	730.731
161.877	17.713	933.924	729.259
162.892	17.628	933.412	728.428
163.906	17.867	932.346	728.553
164.921	17.689	932.068	727.514
165.935	17.784	930.441	726.582
166.950	17.937	929.340	726.312
167.964	17.696	928.538	724.593
168.979	17.707	927.143	723.490
169.994	17.690	926.523	722.867
171.008	17.612	925.255	721.486
172.023	17.615	924.655	720.967
173.037	17.851	923.762	721.204
174.052	17.501	922.839	718.942
175.067	17.346	921.792	717.410
176.081	17.491	921.033	717.367
177.096	17.645	920.423	717.474
178.110	17.693	919.200	716.660
179.125	17.432	918.457	714.921
180.140	17.249	917.189	713.101
181.154	17.293	916.590	712.758
182.169	17.294	916.020	712.257
183.183	17.330	915.775	712.156
184.198	17.657	915.238	713.043
185.213	17.555	914.276	711.803
186.227	17.638	913.594	711.554
187.242	17.696	913.222	711.446
188.256	17.806	912.167	711.019
189.271	17.682	911.199	709.684
190.286	17.857	910.493	709.800
191.300	17.817	909.560	708.843
192.315	17.380	908.672	706.274
193.329	16.824	906.919	702.545
194.344	16.541	906.087	700.666
195.359	16.937	906.087	702.245
196.373	17.513	906.554	704.930
197.388	17.658	906.317	705.284
198.402	17.581	905.118	703.968
199.417	17.360	904.550	702.552
200.432	17.551	903.757	702.662
201.446	17.275	903.269	701.084
202.461	16.990	902.360	699.139
203.475	17.172	901.500	699.162
204.490	16.738	900.241	696.339
205.504	15.901	898.661	691.620
206.519	16.299	898.583	693.131
207.534	17.172	898.707	696.748
208.548	17.134	898.154	696.103
209.563	17.528	897.763	697.351
210.577	17.633	896.874	697.029
211.592	17.300	896.339	695.192
212.607	17.559	895.598	695.611
213.621	17.581	895.304	695.411
214.636	17.628	894.293	694.756
215.650	17.778	893.668	694.821
216.665	17.708	893.169	694.088
217.680	17.807	893.061	694.346
218.694	17.988	891.852	694.081
219.709	17.388	890.919	690.855
220.723	17.172	890.017	689.218
221.738	17.428	889.429	689.741
222.753	17.764	889.226	690.882
223.767	17.560	888.430	689.377
224.782	17.784	887.373	689.400
225.796	17.916	886.587	689.263
226.811	17.840	886.266	688.646
227.826	17.581	884.729	686.347
228.840	16.978	883.318	682.764
229.855	16.807	883.180	681.910
230.869	16.978	882.764	682.214
231.884	16.861	881.578	680.770
232.899	16.985	880.966	680.736
233.913	17.626	881.267	683.479
234.928	17.724	880.570	683.270
235.942	17.664	880.001	682.527
236.957	17.924	879.000	682.733
237.972	17.598	878.069	680.644
238.986	17.438	877.672	679.637
240.001	17.614	876.942	679.715
241.015	17.639	876.075	679.081
242.030	17.736	875.137	678.682
243.045	17.664	875.080	678.290
244.059	17.652	874.425	677.673
245.074	17.942	873.937	678.391
246.088	17.873	872.573	676.998
247.103	17.442	871.570	674.452
248.117	17.475	871.003	674.085
249.132	17.820	870.984	675.376
250.147	18.226	870.111	676.243
251.161	18.016	869.328	674.746
252.176	18.259	869.006	675.396
253.190	18.281	868.277	674.858
254.205	18.263	867.711	674.286
255.220	18.540	867.037	674.794
256.234	18.453	866.886	674.271
257.249	18.434	866.133	673.552
258.263	18.220	865.301	672.004
259.278	18.398	864.361	671.914
260.293	18.268	864.455	671.419
261.307	18.452	863.599	671.415
262.322	18.315	862.685	670.107
263.336	18.205	861.771	668.908
264.351	17.844	860.216	666.234
265.366	16.697	858.623	660.470
266.380	16.248	857.913	658.114
267.395	17.214	857.902	661.810
268.409	17.921	858.057	664.627
269.424	18.074	857.385	664.640
270.439	18.172	856.785	664.497
271.453	18.307	855.994	664.350
272.468	18.383	855.552	664.245
273.482	18.417	855.023	663.904
274.497	18.637	854.693	664.443
275.512	18.315	853.733	662.391
276.526	17.990	851.602	659.424
277.541	18.065	851.397	659.499
278.555	18.360	851.493	660.653
279.570	18.144	850.589	659.058
280.585	17.819	849.428	656.852
281.599	17.915	849.177	656.968
282.614	18.148	848.730	657.460
283.628	17.915	847.371	655.453
284.643	17.812	846.521	654.344
285.657	18.041	846.239	654.948
286.672	17.942	845.451	653.898
287.687	17.242	845.245	651.000
288.701	17.655	844.900	652.261
289.716	18.026	844.288	653.148
290.730	17.747	843.165	651.156
291.745	17.565	842.568	649.941
292.760	17.521	841.101	648.585
293.774	17.445	840.850	648.045
294.789	18.047	841.672	650.917
295.803	18.611	841.190	652.632
296.818	18.770	840.825	652.893
297.833	18.978	840.047	653.022
298.847	18.617	839.199	650.935
299.862	18.398	837.955	649.086
300.876	18.382	838.004	649.006
301.891	18.707	837.308	649.639
302.906	18.738	836.500	649.073
303.920	18.286	834.967	646.119
304.935	18.189	834.358	645.222
305.949	18.462	834.059	645.965
306.964	18.694	833.816	646.594
307.979	18.411	833.045	644.872
308.993	18.635	832.381	645.145
310.008	18.832	832.111	645.617
311.022	18.782	831.717	645.069
312.037	18.766	831.261	644.596
313.052	18.607	830.439	643.307
314.066	18.457	830.117	642.436
315.081	17.962	828.446	639.235
316.095	17.543	827.121	636.592
317.110	17.803	827.597	637.872
318.125	18.551	827.618	640.628
319.139	18.322	826.309	638.705
320.154	17.474	824.964	634.450
321.168	17.201	824.107	632.717
322.183	17.519	824.329	634.014
323.197	18.162	824.502	636.486
324.212	18.525	823.796	637.232
325.227	18.656	823.707	637.596
326.241	18.898	823.150	638.006
327.256	18.745	822.575	636.937
328.270	18.712	821.671	636.060
329.285	18.682	821.001	635.373
330.300	18.541	820.289	634.244
331.314	18.449	819.561	633.286
332.329	18.340	819.045	632.426
333.343	18.614	818.494	632.956
334.358	18.812	817.920	633.188
335.373	18.748	817.912	632.889
336.387	18.737	817.256	632.283
337.402	18.886	816.665	632.319
338.416	19.145	816.173	632.834
339.431	19.006	815.340	631.621
340.446	18.879	814.965	630.811
341.460	19.157	814.402	631.340
342.475	19.205	813.567	630.811
343.489	18.955	812.584	629.077
344.504	18.906	812.540	628.810
345.519	19.185	811.946	629.313
346.533	19.341	811.743	629.670
347.548	19.345	811.343	629.319
348.562	19.361	811.131	629.156
349.577	19.434	810.370	628.778
350.592	19.438	809.800	628.295
351.606	19.361	809.556	627.770
352.621	19.382	808.876	627.262
353.635	19.308	808.673	626.779
354.650	19.258	807.829	625.891
355.665	19.215	806.405	624.573
356.679	18.290	805.253	620.277
357.694	17.996	804.641	618.685
358.708	18.576	804.560	620.669
359.723	18.666	804.336	620.766
360.738	18.779	803.727	620.649
361.752	19.258	803.347	622.029
362.767	19.221	803.258	621.775
363.781	19.410	802.727	621.987
364.796	19.584	802.537	622.413
365.810	19.717	802.025	622.442
366.825	19.680	801.755	622.043
367.840	19.742	801.911	622.332
368.854	19.542	800.801	620.696
369.869	19.231	799.940	618.856
370.883	19.191	799.588	618.386
371.898	19.097	799.204	617.697
372.913	19.131	798.106	616.918
373.927	19.076	797.500	616.196
374.942	19.264	796.777	616.255
375.956	19.307	796.521	616.155
376.971	19.534	795.739	616.307
377.986	19.373	795.852	615.767
379.000	19.644	795.084	616.083
380.015	19.772	794.273	615.857
381.029	19.655	793.662	614.913
382.044	19.502	793.445	614.146
383.059	19.693	792.691	614.187
384.073	19.599	792.181	613.403
385.088	19.682	792.196	613.655
386.102	19.734	791.367	613.141
387.117	19.696	790.552	612.324
388.132	19.716	790.133	612.015
389.146	19.523	789.611	610.872
390.161	18.979	789.071	608.477
391.175	18.912	788.745	607.937
392.190	19.289	788.535	609.053
393.205	19.360	788.193	608.984
394.219	18.602	786.814	605.190
395.234	17.456	784.785	599.543
396.248	16.881	783.829	596.736
397.263	17.722	784.624	600.249
398.278	19.192	785.602	606.122
399.292	19.801	785.026	607.767
400.307	19.443	784.494	606.044
401.321	19.430	784.157	605.684
402.336	19.393	783.939	605.333
403.350	19.604	783.530	605.701
404.365	19.936	783.613	606.878
405.380	19.980	783.266	606.710
406.394	20.263	782.977	607.421
407.409	20.428	782.123	607.282
408.423	20.296	781.663	606.409
409.438	20.163	781.287	605.599
410.453	20.061	780.840	604.844
411.467	20.339	780.736	605.679
412.482	20.379	779.489	604.800
413.496	20.335	779.314	604.455
414.511	20.138	779.349	603.745
415.526	20.376	778.806	604.098
416.540	20.497	778.346	604.110
417.555	20.321	777.685	602.929
418.569	20.152	776.926	601.701
419.584	19.970	776.512	600.697
420.599	19.965	775.862	600.123
421.613	155.007	1358.557	1792.208
422.628	133.770	1443.481	1792.310
