DTS Sentinel unit serial number:	SN413079Multiplexer serial number:	ORYXHardware model number:	OX4-SRSoftware version number:	ORYX F/W v4.00 Oryx Data Collector v3.7.2.0data status	okinstallation	princeton_trtdifferential loss correction	single-endedforward channel	channel 3reverse channel	N/Adate	2019/09/12time	07:42:10forward acquisition time	60.00reverse acquisition time	0.00gamma	496.2192k internal	0.2315k external	0.2315temperature offset calibration	1.0032default loss term (dB/km)	0.3790temperature slope calibration	1.0000multiplexer offset coefficient	1.0000multiplexer slope coefficient	1.0000fibre end	0.00T internal ref (°C)	32.75T ext. ref 1 (°C)	1.63T ext. ref 2 (°C)	29.02length (m)	temperature (°C)	Stokes	anti-Stokes-747.200	636.534	0.109	-0.281
-746.185	-4.346	-0.190	0.133
-745.171	15.889	0.126	-0.101
-744.156	110.476	-0.050	0.061
-743.142	585.964	-0.010	-0.025
-742.127	45.498	0.104	-0.097
-741.112	-130.418	0.178	0.024
-740.098	121.048	-0.076	0.095
-739.083	192.495	-0.056	0.086
-738.069	508.851	-0.108	0.255
-737.054	381.286	-0.091	0.189
-736.039	107.138	-0.372	-0.447
-735.025	-89.716	-0.402	0.119
-734.010	128.871	-0.094	-0.121
-732.996	428.882	-0.110	0.240
-731.981	55.027	0.240	0.234
-730.966	-59.469	-0.365	0.159
-729.952	-167.956	0.313	0.012
-728.937	800.000	0.114	-0.485
-727.923	-200.000	-0.055	0.277
-726.908	-200.000	-0.054	-0.270
-725.894	-156.813	-0.320	-0.020
-724.879	-200.000	-0.046	-0.403
-723.864	70.083	-0.081	-0.085
-722.850	74.119	-0.118	-0.125
-721.835	-34.163	-0.238	0.133
-720.821	-112.030	-0.139	-0.028
-719.806	75.757	-0.189	0.202
-718.791	-200.000	-0.012	0.104
-717.777	-98.384	-0.163	0.042
-716.762	20.314	-0.058	0.048
-715.748	-155.359	0.251	-0.017
-714.733	27.764	-0.092	-0.078
-713.718	-171.991	0.305	0.010
-712.704	33.726	0.062	0.055
-711.689	-72.769	0.034	0.013
-710.675	6.350	0.216	-0.162
-709.660	-167.793	0.463	0.018
-708.645	476.193	0.045	0.103
-707.631	-27.446	0.351	-0.206
-706.616	734.094	-0.013	0.035
-705.602	-200.000	-0.001	0.058
-704.587	-70.878	-0.193	0.074
-703.572	-200.000	-0.050	-0.251
-702.558	-39.810	-0.210	0.111
-701.543	800.000	-0.054	-0.158
-700.529	23.803	-0.307	0.256
-699.514	-200.000	0.024	-0.119
-698.499	-18.018	-0.123	0.078
-697.485	288.856	-0.038	-0.069
-696.470	202.170	0.125	-0.195
-695.456	800.000	-0.091	-0.376
-694.441	800.000	0.068	-0.244
-693.426	-200.000	0.013	0.283
-692.412	8.323	-0.162	-0.123
-691.397	-43.137	-0.211	-0.108
-690.383	-103.457	0.151	0.036
-689.368	-144.476	-0.172	-0.016
-688.354	1.522	0.090	0.065
-687.339	800.000	0.015	-0.047
-686.324	-41.283	-0.098	0.051
-685.310	207.452	-0.058	0.092
-684.295	800.000	0.084	-0.268
-683.281	-9.846	-0.392	0.264
-682.266	1.607	-0.130	-0.094
-681.251	-38.819	-0.083	0.044
-680.237	-57.085	0.287	-0.128
-679.222	227.299	-0.104	-0.171
-678.208	-200.000	0.007	-0.257
-677.193	-200.000	0.001	0.065
-676.178	-56.637	-0.206	-0.092
-675.164	-16.581	0.140	-0.089
-674.149	-182.360	0.171	0.003
-673.135	88.834	0.187	-0.210
-672.120	17.432	0.161	0.129
-671.105	67.471	-0.164	-0.169
-670.091	-125.482	-0.111	-0.017
-669.076	-91.762	0.207	0.059
-668.062	131.400	0.215	-0.279
-667.047	179.827	0.245	0.363
-666.032	-63.740	-0.179	0.074
-665.018	-113.144	0.185	0.037
-664.003	-200.000	0.049	-0.349
-662.989	-200.000	0.013	0.197
-661.974	-31.364	-0.307	0.175
-660.959	475.978	0.101	-0.230
-659.945	-200.000	0.052	-0.285
-658.930	-12.342	-0.152	-0.101
-657.916	-133.510	0.084	0.011
-656.901	230.675	-0.172	-0.283
-655.886	-200.000	-0.020	0.161
-654.872	-3.634	-0.223	0.156
-653.857	609.486	0.114	-0.287
-652.843	130.223	0.186	0.241
-651.828	-98.739	-0.058	0.015
-650.814	-200.000	0.050	-0.275
-649.799	534.886	0.151	-0.361
-648.784	-122.135	0.053	0.009
-647.770	-62.322	-0.179	0.075
-646.755	-200.000	0.017	-0.196
-645.741	74.636	-0.185	0.197
-644.726	-127.550	-0.095	-0.014
-643.711	-103.285	0.203	-0.048
-642.697	-98.070	-0.224	-0.058
-641.682	-2.210	0.060	0.043
-640.668	235.227	-0.071	0.119
-639.653	58.825	0.128	0.127
-638.638	219.581	-0.136	0.220
-637.624	114.568	-0.130	-0.160
-636.609	-200.000	0.012	0.152
-635.595	465.735	0.015	-0.034
-634.580	-153.229	0.068	-0.005
-633.565	-102.345	0.149	0.036
-632.551	20.929	0.175	-0.143
-631.536	800.000	-0.038	0.120
-630.522	-200.000	-0.004	-0.033
-629.507	-91.930	0.118	0.034
-628.492	-25.687	-0.128	0.076
-627.478	-97.982	0.091	-0.024
-626.463	-168.539	0.102	-0.004
-625.449	151.790	-0.238	-0.327
-624.434	-200.000	0.008	-0.132
-623.419	-200.000	0.020	0.158
-622.405	153.923	0.176	-0.244
-621.390	138.425	0.154	0.203
-620.376	-200.000	0.045	0.349
-619.361	278.175	-0.045	-0.080
-618.346	148.422	-0.110	-0.150
-617.332	-200.000	-0.000	0.157
-616.317	-40.158	0.179	0.094
-615.303	78.377	0.168	0.181
-614.288	-1.408	-0.150	0.107
-613.273	-200.000	-0.026	0.180
-612.259	800.000	-0.048	-0.161
-611.244	125.037	0.093	-0.118
-610.230	-30.847	0.044	0.025
-609.215	428.908	-0.181	-0.394
-608.201	22.360	0.295	-0.243
-607.186	-52.874	-0.174	0.081
-606.171	-164.408	0.112	0.005
-605.157	18.798	0.157	-0.127
-604.142	-24.188	0.234	0.141
-603.128	77.962	-0.090	0.097
-602.113	-56.044	0.285	-0.128
-601.098	79.152	-0.246	0.266
-600.084	-200.000	0.024	-0.144
-599.069	800.000	-0.046	0.162
-598.055	-42.158	0.126	0.065
-597.040	-45.654	0.236	-0.118
-596.025	220.778	0.111	-0.179
-595.011	40.331	0.208	0.189
-593.996	-101.513	-0.166	-0.041
-592.982	233.940	-0.103	0.170
-591.967	30.060	-0.068	0.059
-590.952	-124.356	-0.189	0.030
-589.938	-49.688	-0.067	-0.032
-588.923	-88.065	0.251	-0.076
-587.909	-200.000	0.002	0.049
-586.894	271.196	-0.128	0.227
-585.879	89.140	0.066	-0.074
-584.865	-200.000	0.069	-0.435
-583.850	-92.270	0.273	-0.077
-582.836	-200.000	0.041	-0.214
-581.821	52.498	-0.049	0.047
-580.806	118.820	-0.144	0.179
-579.792	800.000	0.058	-0.220
-578.777	-148.900	-0.331	-0.027
-577.763	-122.489	0.225	0.037
-576.748	-52.170	-0.198	0.092
-575.733	-200.000	-0.008	-0.044
-574.719	-200.000	-0.027	-0.128
-573.704	-17.323	-0.137	0.087
-572.690	-200.000	-0.004	0.287
-571.675	147.641	0.123	-0.167
-570.661	-101.864	0.219	0.053
-569.646	25.755	0.367	-0.308
-568.631	30.668	0.191	0.165
-567.617	99.101	-0.187	0.217
-566.602	-92.194	-0.435	0.124
-565.588	-200.000	0.012	0.063
-564.573	-200.000	0.023	0.205
-563.558	-148.450	-0.079	0.006
-562.544	-200.000	0.010	0.253
-561.529	-120.425	0.153	0.026
-560.515	-90.448	0.193	0.056
-559.500	-44.281	0.194	-0.098
-558.485	-53.686	-0.150	0.069
-557.471	-138.241	0.219	-0.024
-556.456	406.447	0.157	-0.333
-555.442	-13.172	0.226	-0.147
-554.427	-124.389	0.299	0.047
-553.412	-56.339	-0.046	0.021
-552.398	-130.938	-0.109	0.015
-551.383	168.718	0.071	0.101
-550.369	800.000	-0.071	0.212
-549.354	800.000	-0.094	-0.328
-548.339	-24.676	0.158	-0.095
-547.325	-72.561	0.183	-0.068
-546.310	-200.000	-0.034	-0.159
-545.296	194.706	0.055	0.084
-544.281	-200.000	-0.038	-0.224
-543.266	258.362	0.137	0.238
-542.252	-100.043	-0.302	0.076
-541.237	800.000	-0.039	-0.129
-540.223	-145.976	0.252	-0.022
-539.208	147.767	0.139	0.189
-538.193	62.478	0.071	0.071
-537.179	-44.282	-0.372	-0.187
-536.164	-200.000	-0.026	0.118
-535.150	-200.000	-0.075	-0.399
-534.135	29.169	-0.234	0.200
-533.121	172.518	-0.272	0.394
-532.106	46.613	0.135	0.126
-531.091	150.732	0.172	-0.235
-530.077	28.995	-0.147	0.125
-529.062	-35.619	0.124	-0.067
-528.048	83.120	0.124	0.135
-527.033	-103.956	0.222	-0.052
-526.018	-200.000	0.061	0.291
-525.004	-146.055	0.153	-0.014
-523.989	177.903	0.148	0.217
-522.975	-69.881	-0.427	0.164
-521.960	-133.886	-0.399	-0.050
-520.945	484.387	0.090	-0.205
-519.931	509.960	0.051	0.120
-518.916	-50.683	-0.222	-0.105
-517.902	-111.429	0.234	0.048
-516.887	736.818	0.092	-0.247
-515.872	-16.903	0.292	0.185
-514.858	-132.060	-0.106	-0.014
-513.843	-73.617	-0.189	0.069
-512.829	-23.635	0.063	0.038
-511.814	-200.000	0.048	-0.246
-510.799	16.903	0.130	-0.104
-509.785	-32.316	-0.233	-0.131
-508.770	800.000	-0.025	-0.080
-507.756	-15.191	0.239	-0.154
-506.741	-15.758	-0.146	-0.093
-505.726	-168.915	-0.179	-0.007
-504.712	-32.149	0.086	-0.048
-503.697	-88.420	0.185	-0.055
-502.683	-189.309	0.080	-0.001
-501.668	4.358	-0.222	0.163
-500.653	-112.598	-0.422	0.084
-499.639	-76.241	0.261	0.092
-498.624	-18.926	0.177	-0.111
-497.610	79.285	0.215	-0.231
-496.595	-62.007	-0.110	-0.046
-495.581	-200.000	0.036	0.343
-494.566	-90.945	-0.340	0.098
-493.551	-200.000	0.019	0.180
-492.537	177.536	-0.041	-0.060
-491.522	800.000	-0.082	-0.227
-490.508	26.960	-0.099	0.083
-489.493	321.277	-0.134	-0.256
-488.478	163.082	-0.106	0.149
-487.464	83.804	0.194	-0.212
-486.449	-200.000	-0.041	0.267
-485.435	-200.000	0.034	-0.160
-484.420	-33.040	0.094	0.052
-483.405	78.350	-0.063	0.068
-482.391	112.991	-0.155	-0.189
-481.376	284.818	-0.139	0.251
-480.362	259.560	-0.052	0.089
-479.347	72.534	-0.187	-0.196
-478.332	259.787	0.025	-0.043
-477.318	-90.936	-0.173	0.050
-476.303	183.645	-0.272	0.404
-475.289	201.003	-0.032	-0.050
-474.274	-79.810	-0.271	0.091
-473.259	174.098	-0.225	0.326
-472.245	-78.894	-0.166	-0.057
-471.230	-33.846	-0.185	0.102
-470.216	148.526	-0.161	0.218
-469.201	-200.000	0.045	-0.238
-468.186	-24.663	0.018	0.010
-467.172	11.245	0.064	0.049
-466.157	408.768	-0.100	0.211
-465.143	800.000	0.153	-0.481
-464.128	252.704	-0.033	-0.056
-463.113	-99.070	0.216	-0.055
-462.099	30.677	0.149	0.128
-461.084	-12.343	-0.259	-0.170
-460.070	-77.948	-0.272	0.094
-459.055	800.000	-0.030	0.092
-458.040	-123.495	0.339	-0.054
-457.026	-67.958	0.195	-0.076
-456.011	-200.000	-0.056	0.365
-454.997	451.963	0.035	0.077
-453.982	-106.255	-0.144	0.032
-452.968	-90.778	-0.250	0.072
-451.953	-83.322	0.616	-0.198
-450.938	83.155	-0.230	-0.250
-449.924	-123.505	0.234	-0.037
-448.909	32.561	-0.049	0.043
-447.895	181.367	0.221	0.326
-446.880	250.828	0.118	0.202
-445.865	-131.083	-0.054	0.007
-444.851	-158.559	-0.448	0.026
-443.836	99.935	-0.210	0.243
-442.822	215.262	-0.232	-0.369
-441.807	135.894	0.181	0.236
-440.792	-25.396	0.129	-0.076
-439.778	-200.000	-0.055	0.327
-438.763	-69.037	0.151	0.058
-437.749	440.535	0.040	-0.087
-436.734	16.178	-0.223	0.176
-435.719	-151.102	0.162	-0.012
-434.705	100.013	0.122	-0.141
-433.690	-52.188	0.341	0.158
-432.676	-168.248	-0.175	0.007
-431.661	-200.000	0.005	0.080
-430.646	-200.000	0.034	-0.329
-429.632	-114.600	0.116	0.022
-428.617	-200.000	-0.090	-0.000
-427.603	-114.824	0.197	0.038
-426.588	159.750	-0.116	0.161
-425.573	-200.000	-0.028	0.124
-424.559	498.842	-0.111	0.255
-423.544	-14.536	-0.097	-0.062
-422.530	800.000	0.044	-0.123
-421.515	-78.474	0.150	0.051
-420.500	-200.000	-0.002	0.169
-419.486	-200.000	-0.023	-0.164
-418.471	-109.820	0.207	0.044
-417.457	307.504	-0.105	-0.196
-416.442	3.667	-0.177	-0.130
-415.428	-97.401	0.172	0.045
-414.413	-47.296	0.299	-0.146
-413.398	-117.188	0.018	0.003
-412.384	-71.182	0.247	0.093
-411.369	-200.000	-0.018	0.358
-410.355	-87.714	-0.404	0.122
-409.340	800.000	-0.081	-0.242
-408.325	-74.079	-0.120	0.044
-407.311	30.001	-0.075	-0.064
-406.296	87.050	-0.058	-0.064
-405.282	-200.000	0.044	-0.247
-404.267	-99.704	0.210	0.053
-403.252	-60.019	0.126	-0.054
-402.238	35.873	-0.180	-0.158
-401.223	800.000	0.081	-0.308
-400.209	101.865	0.153	0.179
-399.194	60.522	0.272	-0.270
-398.179	-134.957	0.201	0.024
-397.165	124.092	0.264	0.332
-396.150	-41.510	-0.255	0.131
-395.136	800.000	-0.015	-0.046
-394.121	800.000	-0.029	0.097
-393.106	-91.935	0.223	-0.063
-392.092	13.088	-0.238	0.184
-391.077	-92.421	-0.106	-0.030
-390.063	-3.866	-0.315	-0.218
-389.048	100.857	-0.200	-0.232
-388.033	-54.743	0.041	-0.019
-387.019	91.927	0.297	-0.334
-386.004	-200.000	-0.023	0.205
-384.990	-12.791	0.063	-0.041
-383.975	-15.547	-0.097	0.062
-382.960	-200.000	0.010	0.165
-381.946	487.091	-0.075	0.172
-380.931	196.823	-0.017	-0.025
-379.917	800.000	-0.019	-0.068
-378.902	-192.586	-0.038	-0.000
-377.888	-63.842	0.164	0.067
-376.873	800.000	-0.068	0.255
-375.858	-55.658	0.164	0.073
-374.844	201.535	0.169	0.259
-373.829	-22.791	0.121	0.073
-372.815	-189.538	0.354	0.004
-371.800	800.000	0.063	0.224
-370.785	-154.668	-0.124	-0.008
-369.771	-200.000	0.005	-0.057
-368.756	-29.293	0.225	0.129
-367.742	646.182	-0.172	0.438
-366.727	134.310	0.097	-0.125
-365.712	-200.000	-0.001	-0.202
-364.698	800.000	0.021	-0.077
-363.683	25.294	-0.129	-0.107
-362.669	-87.505	0.116	0.035
-361.654	-122.559	0.102	0.017
-360.639	-45.398	-0.268	-0.133
-359.625	800.000	0.172	-0.612
-358.610	-45.837	0.223	0.110
-357.596	6.856	-0.209	0.155
-356.581	-200.000	0.039	0.209
-355.566	194.474	-0.178	0.270
-354.552	26.982	0.123	0.103
-353.537	-132.938	-0.116	-0.015
-352.523	-63.167	-0.165	0.068
-351.508	331.294	0.066	0.126
-350.493	-108.720	-0.088	-0.019
-349.479	-97.021	0.361	0.094
-348.464	-200.000	-0.057	0.308
-347.450	65.097	0.339	-0.341
-346.435	252.944	0.027	-0.046
-345.420	-110.046	0.305	0.064
-344.406	-10.417	0.201	0.133
-343.391	-177.632	-0.112	-0.003
-342.377	-96.038	-0.111	-0.029
-341.362	-137.334	-0.070	-0.008
-340.348	197.125	-0.231	-0.351
-339.333	121.796	0.037	-0.046
-338.318	800.000	0.018	0.056
-337.304	-134.838	0.309	0.037
-336.289	319.224	-0.084	-0.159
-335.275	663.940	0.010	-0.025
-334.260	27.701	0.099	0.083
-333.245	14.006	0.084	-0.065
-332.231	93.389	-0.216	0.244
-331.216	-83.443	0.262	-0.084
-330.202	12.617	-0.186	0.143
-329.187	138.668	-0.073	-0.095
-328.172	800.000	-0.101	-0.393
-327.158	96.744	0.220	-0.251
-326.143	800.000	-0.037	-0.135
-325.129	-94.523	0.112	0.030
-324.114	768.771	-0.081	-0.220
-323.099	-138.385	-0.170	-0.019
-322.085	-66.180	-0.161	-0.064
-321.070	-200.000	-0.010	0.118
-320.056	-22.581	-0.256	0.154
-319.041	-200.000	-0.053	-0.361
-318.026	-200.000	-0.026	-0.472
-317.012	174.675	-0.194	-0.280
-315.997	169.168	-0.038	-0.054
-314.983	-200.000	0.003	-0.188
-313.968	-200.000	-0.024	0.207
-312.953	-200.000	-0.005	-0.329
-311.939	-22.059	-0.140	0.084
-310.924	-15.181	-0.314	-0.200
-309.910	-60.685	-0.131	-0.055
-308.895	-57.830	0.282	-0.123
-307.880	-9.821	-0.224	-0.149
-306.866	-141.105	-0.203	-0.021
-305.851	-135.368	-0.388	-0.046
-304.837	-59.087	0.300	-0.129
-303.822	800.000	-0.094	0.311
-302.807	216.947	0.041	0.065
-301.793	-200.000	0.003	0.047
-300.778	800.000	0.091	0.283
-299.764	-107.116	0.158	-0.035
-298.749	-165.755	-0.413	0.018
-297.735	-74.992	-0.192	0.068
-296.720	78.702	0.162	0.173
-295.705	-32.722	-0.035	-0.019
-294.691	-121.862	-0.173	0.028
-293.676	-182.290	-0.173	0.003
-292.662	199.979	-0.064	-0.098
-291.647	-200.000	0.032	0.264
-290.632	-200.000	0.025	0.122
-289.618	360.768	0.041	-0.081
-288.603	165.881	-0.169	-0.238
-287.589	-67.222	-0.119	0.047
-286.574	-200.000	0.008	0.311
-285.559	228.308	0.068	-0.110
-284.545	56.612	-0.216	-0.209
-283.530	800.000	-0.124	0.459
-282.516	8.090	-0.079	0.059
-281.501	-74.076	-0.251	0.091
-280.486	17.741	0.220	-0.174
-279.472	-92.094	-0.440	-0.124
-278.457	-75.981	0.168	-0.059
-277.443	331.170	0.059	-0.113
-276.428	-91.356	-0.409	0.116
-275.413	-120.654	0.256	-0.043
-274.399	-44.594	-0.202	-0.100
-273.384	-200.000	-0.021	-0.194
-272.370	-200.000	0.011	-0.055
-271.355	-116.714	-0.176	-0.032
-270.340	330.268	0.162	0.310
-269.326	628.148	-0.015	0.039
-268.311	579.317	-0.063	-0.153
-267.297	-125.399	-0.314	-0.048
-266.282	-29.116	0.148	0.084
-265.267	-200.000	-0.033	0.158
-264.253	161.940	-0.107	0.148
-263.238	-112.104	-0.311	-0.062
-262.224	-200.000	-0.005	-0.162
-261.209	-200.000	0.017	-0.150
-260.195	60.404	0.097	-0.095
-259.180	-27.513	-0.284	-0.164
-258.165	-200.000	-0.001	0.455
-257.151	-17.847	0.055	-0.034
-256.136	-200.000	0.008	-0.103
-255.122	-114.610	-0.370	0.071
-254.107	800.000	0.119	-0.332
-253.092	10.746	0.087	-0.066
-252.078	-105.430	0.172	0.039
-251.063	85.544	-0.161	0.176
-250.049	-53.153	-0.155	0.071
-249.034	-200.000	-0.004	-0.058
-248.019	299.898	-0.084	-0.154
-247.005	359.852	0.072	-0.144
-245.990	-102.718	-0.160	0.038
-244.976	618.858	-0.103	-0.256
-243.961	244.358	-0.251	-0.418
-242.946	32.263	-0.165	-0.141
-241.932	-200.000	0.030	-0.498
-240.917	91.825	-0.127	-0.142
-239.903	-86.393	0.075	-0.023
-238.888	800.000	0.078	0.273
-237.873	-200.000	0.011	0.129
-236.859	54.235	-0.159	-0.152
-235.844	2.189	0.147	0.106
-234.830	-151.092	-0.218	0.016
-233.815	285.301	0.080	-0.143
-232.800	73.949	0.067	-0.069
-231.786	1.159	-0.198	0.141
-230.771	61.347	0.126	0.124
-229.757	555.578	0.073	0.174
-228.742	100.969	0.093	0.107
-227.727	87.649	-0.142	0.156
-226.713	-200.000	-0.029	0.185
-225.698	-72.706	-0.090	0.033
-224.684	-74.483	0.110	-0.039
-223.669	640.257	-0.031	0.080
-222.655	-196.945	0.146	-0.001
-221.640	144.155	0.061	0.080
-220.625	-200.000	0.002	-0.218
-219.611	41.663	0.151	-0.136
-218.596	-200.000	-0.010	0.295
-217.582	-30.802	0.208	-0.117
-216.567	800.000	0.020	0.071
-215.552	254.408	-0.011	0.019
-214.538	-123.340	0.242	-0.038
-213.523	47.758	-0.268	-0.249
-212.509	800.000	0.085	-0.332
-211.494	14.591	0.129	-0.100
-210.479	260.725	0.096	0.166
-209.465	-200.000	-0.101	0.570
-208.450	21.570	-0.051	-0.041
-207.436	53.770	-0.144	0.137
-206.421	800.000	-0.047	0.131
-205.406	-200.000	0.007	-0.048
-204.392	304.280	0.199	-0.366
-203.377	-200.000	-0.023	-0.150
-202.363	102.486	0.144	-0.167
-201.348	800.000	-0.058	-0.222
-200.333	-48.864	-0.219	-0.104
-199.319	97.016	0.194	-0.220
-198.304	-200.000	0.001	-0.022
-197.290	-118.804	-0.225	0.039
-196.275	-109.238	0.281	0.059
-195.260	19.186	0.065	-0.052
-194.246	-17.092	-0.236	-0.148
-193.231	387.246	0.117	0.240
-192.217	-200.000	-0.014	0.497
-191.202	108.342	0.183	0.216
-190.187	800.000	-0.091	-0.387
-189.173	-200.000	0.010	0.121
-188.158	-108.072	0.341	0.073
-187.144	-200.000	0.013	0.058
-186.129	93.210	0.077	-0.086
-185.114	-200.000	0.028	0.174
-184.100	16.745	0.109	0.086
-183.085	-52.575	0.156	0.071
-182.071	-37.186	-0.162	-0.086
-181.056	-22.296	0.153	0.092
-180.042	-133.496	0.195	-0.024
-179.027	33.763	-0.287	-0.248
-178.012	-200.000	-0.004	-0.071
-176.998	348.113	0.015	0.029
-175.983	-47.830	-0.168	0.081
-174.969	263.556	0.244	-0.421
-173.954	-0.472	-0.100	0.070
-172.939	-14.070	0.287	-0.183
-171.925	-141.121	0.060	0.006
-170.910	281.850	-0.015	0.026
-169.896	-200.000	-0.030	0.307
-168.881	-41.887	0.250	0.127
-167.866	-76.019	-0.118	-0.041
-166.852	140.887	-0.028	0.037
-165.837	-200.000	-0.041	0.443
-164.823	-90.328	0.126	0.036
-163.808	-124.466	0.170	0.026
-162.793	-84.585	0.259	0.081
-161.779	-172.049	-0.267	0.009
-160.764	-3.539	0.146	-0.101
-159.750	134.937	0.150	0.193
-158.735	47.341	0.058	-0.054
-157.720	48.009	0.148	-0.137
-156.706	-200.000	-0.033	0.202
-155.691	-200.000	-0.020	0.268
-154.677	800.000	0.105	-0.327
-153.662	-131.896	0.243	0.031
-152.647	-200.000	-0.008	-0.132
-151.633	78.650	0.055	-0.058
-150.618	-59.760	-0.059	0.025
-149.604	-200.000	-0.018	-0.287
-148.589	-200.000	-0.019	0.122
-147.574	800.000	-0.065	-0.195
-146.560	-15.692	0.059	0.037
-145.545	-200.000	0.021	0.217
-144.531	800.000	0.033	-0.125
-143.516	-100.268	0.347	0.085
-142.502	-126.476	-0.440	0.065
-141.487	-94.426	0.352	0.095
-140.472	-125.141	0.417	-0.063
-139.458	-200.000	-0.001	0.136
-138.443	-200.000	-0.011	-0.088
-137.429	94.484	-0.038	0.043
-136.414	241.748	-0.065	-0.108
-135.399	29.419	0.278	-0.234
-134.385	800.000	0.099	-0.373
-133.370	-106.903	0.171	-0.037
-132.356	-200.000	0.020	-0.259
-131.341	524.212	0.172	-0.400
-130.326	396.646	-0.084	-0.174
-129.312	-132.935	0.368	0.046
-128.297	72.766	-0.164	-0.169
-127.283	-200.000	-0.015	-0.130
-126.268	-38.908	0.180	-0.094
-125.253	18.119	0.360	-0.284
-124.239	-200.000	-0.055	-0.432
-123.224	-37.480	-0.025	-0.013
-122.210	-200.000	-0.010	-0.331
-121.195	800.000	0.055	-0.205
-120.180	-84.249	-0.218	-0.068
-119.166	800.000	0.054	-0.223
-118.151	230.240	0.040	-0.064
-117.137	551.991	-0.116	-0.275
-116.122	30.065	0.031	0.026
-115.107	538.994	0.156	-0.366
-114.093	156.847	0.235	-0.321
-113.078	-140.028	-0.244	0.025
-112.064	5.172	0.265	0.193
-111.049	-102.143	-0.362	0.086
-110.034	-48.119	0.234	-0.112
-109.020	-200.000	0.000	-0.284
-108.005	-67.899	-0.110	-0.043
-106.991	-81.823	0.137	0.044
-105.976	200.838	0.049	0.075
-104.962	800.000	-0.072	0.220
-103.947	147.653	-0.130	-0.173
-102.932	-48.219	0.054	-0.026
-101.918	101.280	-0.326	-0.375
-100.903	32.447	0.052	-0.044
-99.889	-48.358	0.031	-0.015
-98.874	304.273	-0.215	0.394
-97.859	-15.398	-0.196	-0.124
-96.845	-96.152	0.339	-0.089
-95.830	800.000	0.080	-0.334
-94.816	-123.266	-0.118	-0.019
-93.801	-51.947	-0.117	0.054
-92.786	266.216	0.219	0.378
-91.772	12.206	-0.051	0.039
-90.757	-33.328	-0.191	-0.104
-89.743	-200.000	0.010	-0.163
-88.728	800.000	-0.077	-0.237
-87.713	800.000	-0.090	-0.266
-86.699	660.450	0.146	-0.371
-85.684	800.000	-0.031	0.111
-84.670	-135.152	0.330	-0.039
-83.655	800.000	0.027	0.106
-82.640	43.298	0.134	0.121
-81.626	16.867	-0.077	-0.061
-80.611	-200.000	0.054	0.248
-79.597	317.960	0.152	-0.285
-78.582	-146.143	0.343	-0.030
-77.567	800.000	0.188	-0.584
-76.553	696.214	-0.056	-0.146
-75.538	800.000	-0.112	0.325
-74.524	-200.000	0.012	0.071
-73.509	223.923	0.199	0.318
-72.494	-200.000	0.054	0.380
-71.480	-200.000	-0.007	0.191
-70.465	-200.000	-0.013	0.126
-69.451	800.000	0.053	0.229
-68.436	-57.257	-0.539	0.234
-67.422	375.576	0.160	0.322
-66.407	800.000	-0.051	-0.144
-65.392	16.249	0.277	-0.216
-64.378	800.000	-0.115	-0.336
-63.363	-58.362	0.160	-0.069
-62.349	800.000	-0.034	-0.105
-61.334	-13.379	-1.076	-0.689
-60.319	462.408	0.227	0.501
-59.305	221.856	-0.519	-0.823
-58.290	-200.000	0.265	1.234
-57.276	511.398	0.587	1.348
-56.261	-200.000	98.033	591.342
-55.246	543.602	1403.248	3303.532
-54.232	154.254	2587.451	3502.164
-53.217	111.442	2180.078	2592.931
-52.203	43.267	1718.440	1547.759
-51.188	35.893	1531.917	1329.035
-50.173	33.528	1505.019	1289.579
-49.159	53.175	1553.998	1467.731
-48.144	54.761	1571.620	1495.277
-47.130	36.203	1530.367	1329.614
-46.115	32.998	1515.849	1295.023
-45.100	32.868	1512.178	1290.940
-44.086	32.875	1510.661	1289.641
-43.071	32.773	1508.624	1287.159
-42.057	32.655	1507.631	1285.457
-41.042	32.724	1506.233	1284.681
-40.027	32.737	1504.676	1283.392
-39.013	32.648	1503.242	1281.510
-37.998	32.698	1501.893	1280.655
-36.984	32.807	1500.783	1280.392
-35.969	32.745	1499.586	1278.900
-34.954	32.854	1497.793	1278.060
-33.940	32.738	1496.525	1276.140
-32.925	32.810	1495.135	1275.396
-31.911	32.855	1493.453	1274.213
-30.896	32.827	1492.472	1273.135
-29.881	32.885	1490.793	1272.043
-28.867	32.807	1489.436	1270.310
-27.852	32.771	1488.057	1268.839
-26.838	32.853	1486.392	1267.919
-25.823	32.906	1485.146	1267.162
-24.809	32.717	1483.833	1264.727
-23.794	32.745	1482.375	1263.618
-22.779	32.712	1481.410	1262.529
-21.765	32.857	1479.564	1261.876
-20.750	32.809	1478.389	1260.502
-19.736	32.865	1477.402	1259.981
-18.721	32.686	1476.796	1258.221
-17.706	32.714	1475.758	1257.476
-16.692	32.716	1474.216	1256.123
-15.677	32.680	1473.795	1255.476
-14.663	32.641	1472.897	1254.397
-13.648	32.685	1472.002	1253.879
-12.633	32.597	1471.085	1252.465
-11.619	32.785	1469.547	1252.355
-10.604	32.698	1468.753	1251.052
-9.590	32.737	1467.922	1250.549
-8.575	32.652	1467.424	1249.514
-7.560	32.778	1466.332	1249.371
-6.546	32.697	1466.010	1248.512
-5.531	32.770	1464.495	1247.651
-4.517	32.612	1463.720	1245.900
-3.502	32.707	1462.662	1245.573
-2.487	32.565	1461.990	1244.014
-1.473	32.757	1460.679	1244.120
-0.458	32.711	1459.253	1242.549
0.556	32.642	1450.181	1232.304
1.571	30.066	1425.026	1194.244
2.586	26.882	1368.164	1126.748
3.600	25.359	1288.133	1051.830
4.615	23.926	1241.515	1005.581
5.629	20.071	1183.419	937.621
6.644	10.127	1095.347	817.718
7.659	2.808	1054.028	751.082
8.673	1.800	1048.516	742.181
9.688	1.632	1045.516	739.173
10.702	1.649	1043.695	737.907
11.717	1.459	1042.114	735.803
12.731	4.600	1045.225	753.169
13.746	14.289	1059.050	810.424
14.761	22.479	1070.058	858.888
15.775	24.756	1072.281	871.708
16.790	25.027	1071.910	872.650
17.804	24.937	1071.222	871.574
18.819	24.793	1070.216	869.979
19.834	25.004	1069.309	870.187
20.848	24.983	1069.572	870.223
21.863	25.006	1069.047	869.833
22.877	25.154	1068.331	869.892
23.892	25.074	1068.079	869.222
24.907	24.929	1067.287	867.798
25.921	24.980	1066.314	867.174
26.936	24.968	1065.772	866.599
27.950	24.817	1064.676	864.901
28.965	25.006	1063.328	864.644
29.980	24.898	1061.666	862.695
30.994	24.750	1061.213	861.535
32.009	25.029	1060.005	861.825
33.023	25.036	1059.568	861.423
34.038	25.077	1058.132	860.378
35.053	24.963	1057.342	859.113
36.067	25.021	1056.595	858.708
37.082	24.975	1055.851	857.805
38.096	24.939	1055.676	857.414
39.111	25.125	1054.825	857.540
40.126	25.116	1054.089	856.820
41.140	25.190	1052.419	855.743
42.155	24.948	1050.815	853.207
43.169	24.640	1049.985	850.994
44.184	24.428	1049.092	849.184
45.199	24.550	1048.219	848.983
46.213	24.599	1046.824	848.013
47.228	24.659	1046.136	847.664
48.242	24.757	1045.213	847.305
49.257	24.928	1044.605	847.545
50.271	24.855	1044.415	846.971
51.286	25.110	1043.234	847.145
52.301	25.089	1042.457	846.338
53.315	24.985	1042.149	845.524
54.330	25.057	1040.979	844.839
55.344	24.928	1040.233	843.551
56.359	25.001	1039.224	843.001
57.374	25.013	1038.616	842.488
58.388	24.838	1037.551	840.727
59.403	24.799	1036.886	839.931
60.417	24.781	1036.357	839.347
61.432	24.619	1035.657	837.947
62.447	24.596	1035.022	837.250
63.461	24.783	1034.462	837.599
64.476	24.857	1033.582	837.160
65.490	24.616	1032.761	835.294
66.505	24.783	1031.256	834.778
67.520	24.779	1030.688	834.227
68.534	24.697	1030.344	833.495
69.549	24.738	1029.425	832.868
70.563	24.342	1028.035	829.828
71.578	24.289	1026.989	828.661
72.593	24.324	1026.003	827.958
73.607	24.042	1025.471	826.144
74.622	24.131	1024.421	825.640
75.636	24.384	1023.860	826.288
76.651	24.534	1023.195	826.368
77.666	24.434	1022.254	825.077
78.680	24.303	1021.503	823.792
79.695	24.334	1021.016	823.467
80.709	24.571	1020.190	823.822
81.724	24.701	1019.421	823.726
82.739	24.609	1018.336	822.356
83.753	24.587	1017.703	821.670
84.768	24.905	1017.485	822.884
85.782	25.251	1016.724	823.784
86.797	25.342	1016.321	823.803
87.812	25.413	1014.765	822.791
88.826	25.150	1014.125	820.997
89.841	25.141	1013.124	820.073
90.855	25.160	1012.862	819.876
91.870	25.350	1011.738	819.758
92.884	25.289	1010.824	818.669
93.899	25.136	1010.251	817.433
94.914	25.074	1008.895	815.982
95.928	25.212	1008.143	815.931
96.943	25.054	1007.886	814.931
97.957	24.979	1006.336	813.263
98.972	24.659	1005.577	811.129
99.987	24.574	1004.243	809.593
101.001	24.599	1003.852	809.322
102.016	24.935	1003.254	810.288
103.030	24.884	1002.825	809.641
104.045	24.927	1001.509	808.701
105.060	24.712	1000.073	806.499
106.074	24.580	999.344	805.243
107.089	24.524	998.485	804.228
108.103	24.988	997.994	805.851
109.118	25.075	997.196	805.524
110.133	24.861	995.647	803.241
111.147	24.667	995.056	801.826
112.162	24.612	993.743	800.451
113.176	24.292	992.801	798.189
114.191	24.489	991.916	798.288
115.206	24.732	991.314	798.815
116.220	24.287	990.422	796.043
117.235	24.148	989.366	794.500
118.249	24.418	988.614	795.031
119.264	24.287	988.042	793.917
120.279	24.207	986.926	792.596
121.293	24.201	986.067	791.809
122.308	24.401	985.715	792.343
123.322	24.503	984.245	791.543
124.337	24.207	983.973	789.944
125.352	24.351	981.949	788.887
126.366	23.882	980.442	785.535
127.381	23.548	979.124	782.934
128.395	24.174	978.945	785.485
129.410	24.820	978.663	788.031
130.424	25.007	977.717	788.026
131.439	24.972	977.211	787.395
132.454	24.808	976.460	785.998
133.468	24.881	975.518	785.491
134.483	24.845	974.685	784.591
135.497	24.791	974.437	784.088
136.512	25.118	973.302	784.537
137.527	25.154	973.162	784.510
138.541	25.077	971.884	783.073
139.556	25.236	971.090	783.058
140.570	25.101	970.440	781.878
141.585	25.168	969.742	781.536
142.600	25.299	968.935	781.388
143.614	25.116	968.450	780.133
144.629	25.279	967.066	779.656
145.643	25.453	966.580	779.952
146.658	25.283	965.708	778.443
147.673	25.194	964.330	776.874
148.687	25.029	963.310	775.273
149.702	24.874	962.741	774.076
150.716	24.925	961.287	773.058
151.731	24.862	960.741	772.278
152.746	24.979	959.864	772.010
153.760	25.159	959.384	772.331
154.775	25.299	958.466	772.126
155.789	25.321	957.698	771.533
156.804	25.257	957.021	770.642
157.819	25.260	955.715	769.535
158.833	25.294	954.806	768.883
159.848	25.317	954.286	768.495
160.862	25.340	953.741	768.085
161.877	25.226	952.727	766.716
162.892	25.186	951.551	765.531
163.906	25.220	951.328	765.426
164.921	25.279	949.849	764.419
165.935	25.186	948.800	763.112
166.950	25.225	948.325	762.829
167.964	25.321	946.880	762.005
168.979	25.230	946.376	761.147
169.994	25.239	944.985	760.000
171.008	25.115	944.113	758.705
172.023	25.240	943.373	758.574
173.037	25.293	942.889	758.342
174.052	25.215	941.382	756.733
175.067	25.022	940.324	755.001
176.081	24.964	939.978	754.415
177.096	25.003	939.199	753.885
178.110	25.080	938.269	753.396
179.125	24.860	937.411	751.715
180.140	24.619	936.012	749.519
181.154	24.624	935.663	749.193
182.169	24.778	935.148	749.357
183.183	24.820	935.108	749.436
184.198	25.233	934.220	750.386
185.213	25.147	933.691	749.535
186.227	25.227	933.151	749.370
187.242	25.178	932.630	748.682
188.256	25.198	932.022	748.211
189.271	25.276	931.300	747.888
190.286	25.308	930.479	747.297
191.300	25.144	929.491	745.757
192.315	24.571	928.190	742.264
193.329	23.926	926.558	738.217
194.344	23.470	925.267	735.235
195.359	24.091	926.166	738.459
196.373	24.760	926.455	741.397
197.388	25.172	925.961	742.646
198.402	25.151	925.081	741.785
199.417	25.236	924.777	741.830
200.432	25.231	923.865	741.009
201.446	25.130	923.247	740.030
202.461	24.589	922.757	737.343
203.475	24.685	922.233	737.255
204.490	24.453	920.294	734.683
205.504	23.217	918.710	728.273
206.519	23.680	918.245	729.744
207.534	24.638	919.044	734.250
208.548	24.831	917.997	734.143
209.563	25.177	918.076	735.561
210.577	25.106	917.392	734.653
211.592	24.826	916.628	732.832
212.607	25.081	916.565	733.762
213.621	25.477	916.153	734.985
214.636	25.372	914.987	733.557
215.650	25.456	914.684	733.593
216.665	25.438	913.860	732.793
217.680	25.243	914.039	732.074
218.694	25.327	913.464	731.891
219.709	25.065	911.814	729.442
220.723	24.668	911.131	727.215
221.738	24.997	910.727	728.165
222.753	25.128	910.130	728.156
223.767	25.023	909.624	727.262
224.782	25.142	908.529	726.804
225.796	25.269	908.181	726.973
226.811	25.336	908.243	727.232
227.826	25.096	906.307	724.648
228.840	24.187	904.919	719.803
229.855	24.139	904.296	719.050
230.869	24.432	903.797	719.772
231.884	24.044	903.156	717.634
232.899	24.022	902.618	717.054
233.913	24.932	903.206	721.121
234.928	25.024	902.618	720.960
235.942	25.082	901.283	720.064
236.957	25.035	901.234	719.770
237.972	24.688	900.406	717.655
238.986	24.698	899.312	716.759
240.001	24.864	898.844	716.988
241.015	24.789	898.096	716.028
242.030	24.825	897.652	715.751
243.045	25.018	896.930	715.885
244.059	24.988	896.908	715.683
245.074	25.258	896.273	716.193
246.088	25.174	895.664	715.308
247.103	24.729	894.355	712.424
248.117	24.837	893.887	712.418
249.132	25.336	894.247	714.631
250.147	25.739	894.076	716.034
251.161	25.730	893.585	715.540
252.176	26.100	892.706	716.243
253.190	26.017	892.285	715.515
254.205	25.947	891.879	714.847
255.220	26.292	891.240	715.640
256.234	26.221	890.800	714.940
257.249	26.119	890.247	714.030
258.263	26.157	889.299	713.356
259.278	25.856	889.323	712.123
260.293	26.053	888.250	711.976
261.307	26.191	887.819	712.115
262.322	25.981	887.160	710.697
263.336	25.835	886.497	709.525
264.351	25.469	885.202	706.988
265.366	24.445	883.199	701.302
266.380	23.910	882.280	698.412
267.395	24.952	882.425	702.556
268.409	25.514	883.159	705.281
269.424	25.574	882.125	704.629
270.439	25.871	881.264	705.043
271.453	25.891	880.811	704.697
272.468	26.007	880.116	704.529
273.482	25.972	880.204	704.403
274.497	26.206	879.934	705.037
275.512	25.875	878.673	702.673
276.526	25.373	876.956	699.283
277.541	25.756	876.414	700.280
278.555	25.760	876.823	700.558
279.570	25.711	875.846	699.527
280.585	25.668	875.196	698.780
281.599	25.681	874.601	698.294
282.614	25.713	874.818	698.527
283.628	25.271	873.243	695.498
284.643	24.966	872.697	693.817
285.657	25.327	872.670	695.133
286.672	25.284	871.551	694.013
287.687	24.799	870.320	691.098
288.701	25.113	870.697	692.551
289.716	25.496	870.302	693.656
290.730	25.197	869.642	691.912
291.745	25.141	868.764	690.938
292.760	24.859	867.654	688.907
293.774	24.877	867.163	688.527
294.789	25.659	868.010	692.147
295.803	26.329	868.106	694.738
296.818	26.294	867.510	694.068
297.833	26.326	867.264	693.931
298.847	26.149	865.833	692.046
299.862	25.829	864.714	689.867
300.876	25.847	864.511	689.713
301.891	26.257	864.147	690.929
302.906	26.283	863.868	690.745
303.920	26.022	862.817	688.846
304.935	25.733	862.076	687.089
305.949	26.269	861.703	688.777
306.964	26.373	861.096	688.625
307.979	26.104	860.544	687.100
308.993	26.068	859.911	686.395
310.008	26.377	859.526	687.203
311.022	26.565	859.195	687.592
312.037	26.395	858.659	686.457
313.052	26.092	857.874	684.620
314.066	26.034	856.704	683.404
315.081	25.289	855.435	679.514
316.095	24.638	854.109	675.938
317.110	25.058	854.593	677.853
318.125	26.087	854.635	681.713
319.139	25.600	853.375	678.810
320.154	24.410	852.367	673.462
321.168	23.871	851.389	670.594
322.183	24.508	851.365	672.919
323.197	25.469	852.033	677.009
324.212	25.777	851.656	677.809
325.227	26.045	851.154	678.359
326.241	26.048	850.744	677.981
327.256	25.947	850.186	677.097
328.270	25.848	849.628	676.221
329.285	25.799	848.709	675.247
330.300	25.719	847.659	674.054
331.314	25.388	847.108	672.317
332.329	25.662	846.201	672.562
333.343	26.007	846.245	673.828
334.358	26.129	846.261	674.234
335.373	26.221	845.728	674.096
336.387	26.283	844.749	673.484
337.402	26.571	844.369	674.197
338.416	26.665	844.617	674.684
339.431	26.668	843.650	673.864
340.446	26.595	843.286	673.244
341.460	26.927	842.473	673.765
342.475	27.060	841.956	673.785
343.489	26.729	841.227	671.915
344.504	26.632	840.886	671.226
345.519	26.941	840.590	672.073
346.533	27.029	840.291	672.101
347.548	27.052	840.189	672.044
348.562	27.177	839.292	671.731
349.577	26.978	838.703	670.465
350.592	27.086	838.337	670.510
351.606	26.849	837.971	669.284
352.621	26.981	837.490	669.327
353.635	26.808	837.062	668.289
354.650	26.880	836.235	667.835
355.665	26.476	835.134	665.409
356.679	25.491	833.191	660.187
357.694	25.383	832.947	659.541
358.708	25.898	833.387	661.721
359.723	25.934	832.775	661.308
360.738	26.148	832.322	661.674
361.752	26.643	832.108	663.261
362.767	26.674	831.886	663.138
363.781	27.027	831.462	664.031
364.796	27.322	831.534	665.110
365.810	27.440	831.174	665.194
366.825	27.333	831.007	664.609
367.840	27.371	830.671	664.422
368.854	27.097	829.698	662.583
369.869	26.729	828.889	660.539
370.883	26.745	827.756	659.636
371.898	26.854	827.322	659.629
372.913	26.732	826.828	658.731
373.927	26.618	826.237	657.788
374.942	26.810	826.029	658.263
375.956	26.932	825.306	658.070
376.971	26.970	824.828	657.771
377.986	27.189	823.851	657.723
379.000	27.365	823.898	658.339
380.015	27.381	823.602	658.104
381.029	27.048	822.905	656.284
382.044	27.215	821.875	656.010
383.059	27.429	821.418	656.357
384.073	27.272	820.881	655.305
385.088	27.439	820.283	655.370
386.102	27.316	819.872	654.541
387.117	26.897	819.713	652.850
388.132	26.989	818.856	652.439
389.146	26.814	817.999	651.071
390.161	26.398	816.740	648.519
391.175	26.462	816.608	648.587
392.190	26.892	816.911	650.311
393.205	26.952	816.309	649.990
394.219	25.971	814.545	645.021
395.234	24.277	812.502	637.295
396.248	23.513	811.274	633.548
397.263	24.542	812.239	637.922
398.278	26.471	813.680	645.893
399.292	26.956	813.183	647.172
400.307	26.638	812.607	645.520
401.321	26.513	812.073	644.596
402.336	26.677	812.007	645.071
403.350	27.045	811.556	645.963
404.365	27.353	811.763	647.165
405.380	27.685	811.609	648.167
406.394	27.925	811.404	648.799
407.409	28.237	810.891	649.438
408.423	28.168	810.503	648.825
409.438	27.935	809.651	647.259
410.453	28.021	809.342	647.259
411.467	28.255	809.022	647.774
412.482	27.985	808.679	646.487
413.496	27.965	808.140	645.928
414.511	28.175	807.509	646.110
415.526	28.157	807.056	645.625
416.540	28.124	806.620	645.102
417.555	27.907	806.224	643.967
418.569	27.725	805.250	642.489
419.584	27.745	805.140	642.414
420.599	27.599	804.754	641.536
421.613	108.734	1284.878	1454.193
422.628	93.807	1354.844	1454.306
