DTS Sentinel unit serial number:	SN413079Multiplexer serial number:	ORYXHardware model number:	OX4-SRSoftware version number:	ORYX F/W v4.00 Oryx Data Collector v3.7.2.0data status	okinstallation	princeton_trtdifferential loss correction	single-endedforward channel	channel 3reverse channel	N/Adate	2019/09/12time	05:06:11forward acquisition time	60.00reverse acquisition time	0.00gamma	496.2192k internal	0.2322k external	0.2322temperature offset calibration	1.0038default loss term (dB/km)	0.3790temperature slope calibration	1.0000multiplexer offset coefficient	1.0000multiplexer slope coefficient	1.0000fibre end	0.00T internal ref (°C)	31.75T ext. ref 1 (°C)	1.68T ext. ref 2 (°C)	27.02length (m)	temperature (°C)	Stokes	anti-Stokes-747.200	-35.596	-0.339	0.186
-746.185	147.534	0.118	0.161
-745.171	-131.518	0.446	-0.059
-744.156	247.154	0.126	0.215
-743.142	-162.809	0.157	0.008
-742.127	-200.000	-0.040	0.478
-741.112	-200.000	0.039	0.226
-740.098	-43.404	-0.163	0.083
-739.083	167.321	0.321	0.461
-738.069	-182.527	0.159	0.003
-737.054	62.213	-0.160	0.161
-736.039	-51.849	-0.510	-0.240
-735.025	-45.400	0.116	0.058
-734.010	619.398	-0.022	-0.057
-732.996	-103.454	-0.278	0.066
-731.981	-19.492	0.195	-0.122
-730.966	-41.615	-0.140	0.073
-729.952	463.870	-0.120	-0.271
-728.937	-69.492	0.143	0.056
-727.923	-200.000	0.056	-0.334
-726.908	-169.787	-0.296	-0.011
-725.894	57.012	-0.082	0.080
-724.879	409.926	0.100	-0.214
-723.864	159.748	0.270	-0.380
-722.850	-25.785	-0.079	-0.047
-721.835	800.000	0.025	-0.095
-720.821	-83.493	0.411	-0.133
-719.806	194.577	0.170	0.261
-718.791	-200.000	0.049	0.336
-717.777	-151.093	-0.133	-0.010
-716.762	800.000	-0.059	-0.169
-715.748	520.134	0.026	0.062
-714.733	-95.422	0.246	0.067
-713.718	-200.000	-0.037	0.187
-712.704	-158.238	-0.386	0.023
-711.689	800.000	0.070	-0.224
-710.675	-200.000	-0.048	0.000
-709.660	20.535	-0.213	-0.174
-708.645	-137.121	0.324	-0.037
-707.631	372.559	-0.109	-0.224
-706.616	1.573	-0.223	-0.162
-705.602	-200.000	0.019	-0.241
-704.587	-56.835	-0.181	0.081
-703.572	338.489	0.197	-0.387
-702.558	-200.000	0.042	-0.197
-701.543	-66.208	-0.247	0.099
-700.529	-200.000	0.020	-0.146
-699.514	-48.657	-0.156	-0.076
-698.499	6.347	0.221	0.165
-697.485	-35.060	-0.313	0.172
-696.470	-24.013	0.278	-0.168
-695.456	3.403	-0.116	-0.086
-694.441	679.565	0.116	0.305
-693.426	-200.000	-0.016	0.133
-692.412	289.284	0.061	-0.112
-691.397	374.883	-0.049	-0.101
-690.383	204.500	-0.074	0.116
-689.368	265.001	-0.124	-0.219
-688.354	542.142	-0.059	0.143
-687.339	224.440	0.177	-0.288
-686.324	-141.353	0.299	0.031
-685.310	-44.971	-0.194	0.097
-684.295	112.493	0.177	-0.216
-683.281	50.236	-0.104	-0.099
-682.266	-125.750	-0.185	-0.028
-681.251	727.918	0.017	0.044
-680.237	-200.000	-0.006	-0.153
-679.222	-47.019	-0.120	0.059
-678.208	-141.083	0.260	-0.027
-677.193	76.155	-0.163	0.174
-676.178	-200.000	-0.060	-0.327
-675.164	-38.839	-0.166	-0.088
-674.149	237.260	0.054	0.091
-673.135	-200.000	-0.004	-0.065
-672.120	46.796	-0.224	0.210
-671.105	-73.891	0.141	0.052
-670.091	184.146	0.194	0.290
-669.076	-200.000	0.018	0.223
-668.062	-200.000	-0.038	-0.176
-667.047	661.497	0.004	0.011
-666.032	661.790	-0.127	0.330
-665.018	-61.595	0.187	-0.079
-664.003	173.846	-0.149	0.217
-662.989	147.398	0.153	0.207
-661.974	-119.773	0.204	-0.035
-660.959	5.685	0.250	-0.186
-659.945	260.261	0.121	0.210
-658.930	44.393	0.171	0.158
-657.916	735.029	-0.046	-0.125
-656.901	358.986	-0.118	-0.237
-655.886	3.541	-0.191	-0.141
-654.872	800.000	0.086	-0.371
-653.857	-39.283	-0.155	0.082
-652.843	-2.666	-0.143	-0.101
-651.828	800.000	0.064	0.273
-650.814	35.360	-0.304	-0.268
-649.799	201.834	-0.089	-0.138
-648.784	-129.864	0.113	-0.016
-647.770	800.000	-0.101	-0.364
-646.755	-200.000	-0.009	0.175
-645.741	-25.042	0.148	-0.088
-644.726	512.938	0.078	-0.183
-643.711	-123.367	0.180	-0.029
-642.697	-156.120	0.394	0.025
-641.682	313.755	-0.052	0.098
-640.668	-132.319	-0.211	0.027
-639.653	-80.416	-0.214	-0.072
-638.638	-200.000	0.050	0.316
-637.624	57.125	0.135	0.132
-636.609	-200.000	-0.012	-0.082
-635.595	94.940	-0.077	0.088
-634.580	487.382	0.092	-0.212
-633.565	-125.906	-0.137	0.021
-632.551	-200.000	-0.003	0.082
-631.536	0.442	-0.189	-0.136
-630.522	236.022	0.061	-0.101
-629.507	327.073	-0.162	0.312
-628.492	-40.298	0.149	-0.078
-627.478	800.000	-0.129	0.423
-626.463	-80.972	-0.572	0.191
-625.449	398.380	-0.137	0.288
-624.434	149.748	0.080	-0.109
-623.419	181.224	-0.076	-0.112
-622.405	-200.000	0.008	0.070
-621.390	136.395	0.200	-0.262
-620.376	-200.000	0.022	0.155
-619.361	-200.000	-0.043	-0.198
-618.346	800.000	0.073	-0.280
-617.332	-62.184	0.137	0.058
-616.317	-8.713	0.186	0.125
-615.303	79.551	0.025	0.027
-614.288	-116.328	-0.254	0.047
-613.273	-31.399	0.133	0.075
-612.259	-90.409	0.472	-0.137
-611.244	-68.710	-0.136	-0.053
-610.230	-200.000	-0.020	0.133
-609.215	-83.406	0.165	0.053
-608.201	-41.633	0.459	-0.237
-607.186	3.261	-0.112	0.082
-606.171	-200.000	0.044	0.209
-605.157	7.245	0.338	0.254
-604.142	50.759	0.271	-0.258
-603.128	-148.470	-0.195	0.016
-602.113	78.302	0.174	0.186
-601.098	-14.017	0.164	-0.107
-600.084	317.271	-0.107	-0.202
-599.069	-134.804	-0.352	0.043
-598.055	-98.435	0.212	-0.054
-597.040	59.961	0.228	-0.227
-596.025	-129.590	-0.236	-0.033
-595.011	13.271	-0.088	-0.068
-593.996	149.388	-0.372	-0.507
-592.982	-118.785	0.386	-0.068
-591.967	338.328	-0.105	-0.206
-590.952	-104.298	0.208	-0.048
-589.938	94.733	-0.085	-0.097
-588.923	566.258	0.109	-0.265
-587.909	68.460	0.103	-0.106
-586.894	507.680	-0.124	-0.289
-585.879	429.749	0.060	0.131
-584.865	-69.722	-0.377	-0.145
-583.850	-200.000	-0.024	-0.120
-582.836	-71.499	-0.214	-0.080
-581.821	-1.362	-0.065	-0.046
-580.806	-94.630	0.154	-0.042
-579.792	1.876	0.093	0.067
-578.777	279.984	-0.147	0.263
-577.763	-133.492	0.398	0.050
-576.748	429.543	0.104	-0.226
-575.733	-0.557	-0.117	0.084
-574.719	345.325	-0.151	-0.298
-573.704	-103.216	0.223	0.053
-572.690	-158.409	-0.226	-0.013
-571.675	70.473	-0.238	-0.247
-570.661	-200.000	-0.045	-0.265
-569.646	180.388	-0.063	-0.093
-568.631	-27.611	-0.094	0.055
-567.617	98.262	0.205	0.237
-566.602	107.995	0.046	-0.055
-565.588	-92.560	-0.219	-0.062
-564.573	-72.015	0.041	-0.015
-563.558	9.022	-0.233	0.177
-562.544	122.488	0.177	0.222
-561.529	-21.999	0.200	-0.122
-560.515	87.419	-0.112	-0.124
-559.500	-200.000	0.006	0.068
-558.485	-115.713	0.251	0.047
-557.471	181.917	-0.097	0.143
-556.456	170.429	0.158	0.226
-555.442	-44.598	0.139	0.070
-554.427	-70.856	0.314	0.119
-553.412	-200.000	0.068	0.360
-552.398	800.000	0.080	0.277
-551.383	46.562	-0.042	0.039
-550.369	208.024	0.069	0.108
-549.354	-147.895	-0.395	0.033
-548.339	357.121	0.036	0.072
-547.325	-170.501	-0.480	-0.017
-546.310	-95.098	-0.172	-0.047
-545.296	-91.671	0.163	-0.046
-544.281	22.667	-0.057	-0.047
-543.266	-118.854	-0.135	-0.024
-542.252	-128.036	0.144	0.021
-541.237	-147.010	0.214	0.018
-540.223	-167.487	0.302	-0.012
-539.208	-200.000	0.018	0.202
-538.193	625.625	-0.032	-0.082
-537.179	206.642	-0.139	0.218
-536.164	469.545	0.157	0.353
-535.150	-106.919	0.382	-0.085
-534.135	-16.105	0.223	0.142
-533.121	-200.000	0.017	0.187
-532.106	-200.000	-0.041	-0.203
-531.091	-109.074	-0.182	0.039
-530.077	-112.720	0.143	-0.028
-529.062	199.133	-0.104	-0.160
-528.048	70.405	-0.174	-0.180
-527.033	442.717	-0.109	0.240
-526.018	-59.167	-0.490	0.212
-525.004	800.000	-0.080	0.267
-523.989	155.618	0.070	0.097
-522.975	-200.000	-0.002	0.197
-521.960	139.029	0.096	-0.127
-520.945	-130.677	-0.129	-0.017
-519.931	565.409	0.117	0.284
-518.916	-200.000	0.058	0.308
-517.902	-113.407	0.096	0.019
-516.887	800.000	-0.053	-0.190
-515.872	800.000	-0.112	-0.368
-514.858	-200.000	0.004	0.118
-513.843	-200.000	0.010	0.298
-512.829	-69.758	0.169	0.065
-511.814	-138.644	-0.146	-0.016
-510.799	800.000	0.068	0.189
-509.785	-112.405	-0.066	-0.013
-508.770	-93.054	0.068	0.019
-507.756	-65.891	-0.338	0.135
-506.741	688.042	-0.133	0.348
-505.726	-109.177	-0.104	-0.022
-504.712	-34.047	-0.206	0.113
-503.697	58.507	0.041	0.041
-502.683	353.977	-0.124	-0.246
-501.668	-200.000	0.020	0.336
-500.653	-51.653	0.151	0.070
-499.639	-110.097	-0.139	-0.029
-498.624	-109.922	0.295	-0.062
-497.610	-200.000	0.040	-0.183
-496.595	256.850	-0.086	-0.148
-495.581	224.240	-0.096	0.155
-494.566	-200.000	-0.057	0.448
-493.551	196.237	-0.074	0.113
-492.537	-200.000	-0.042	0.396
-491.522	-200.000	-0.012	0.228
-490.508	-45.698	0.131	-0.065
-489.493	-115.350	-0.131	0.025
-488.478	166.003	0.157	0.222
-487.464	12.236	-0.208	0.160
-486.449	-110.187	0.086	-0.018
-485.435	192.191	-0.117	-0.176
-484.420	-148.302	0.227	-0.019
-483.405	413.892	-0.162	-0.344
-482.391	-45.630	0.112	0.055
-481.376	27.639	-0.055	-0.047
-480.362	-103.921	0.424	0.099
-479.347	-113.794	-0.229	0.045
-478.332	-140.730	0.230	-0.024
-477.318	153.100	0.170	-0.233
-476.303	73.680	-0.126	-0.132
-475.289	-200.000	0.051	-0.326
-474.274	89.095	0.109	0.121
-473.259	-200.000	-0.002	0.193
-472.245	-22.073	0.219	0.133
-471.230	-111.390	-0.019	-0.004
-470.216	-200.000	-0.012	0.074
-469.201	314.837	-0.183	-0.345
-468.186	133.680	-0.075	0.097
-467.172	-200.000	0.034	-0.441
-466.157	-200.000	-0.040	-0.449
-465.143	-200.000	-0.002	-0.158
-464.128	-93.045	-0.061	0.017
-463.113	800.000	0.050	0.181
-462.099	800.000	0.054	0.151
-461.084	23.070	-0.435	-0.357
-460.070	69.925	-0.031	0.032
-459.055	-47.987	0.253	-0.122
-458.040	-46.891	-0.227	-0.111
-457.026	-42.552	0.152	0.077
-456.011	273.550	-0.118	0.208
-454.997	-123.973	0.164	-0.026
-453.982	-101.644	0.188	-0.046
-452.968	-72.196	-0.294	-0.109
-451.953	-77.565	-0.047	0.016
-450.938	-200.000	-0.013	0.106
-449.924	-18.016	0.094	-0.059
-448.909	239.966	-0.128	-0.213
-447.895	-200.000	0.011	-0.305
-446.880	73.606	0.305	0.319
-445.865	137.022	-0.186	-0.243
-444.851	-30.678	-0.248	-0.140
-443.836	-116.329	0.147	-0.027
-442.822	144.546	0.103	0.137
-441.807	-200.000	-0.063	0.301
-440.792	-63.750	0.277	0.113
-439.778	-129.022	-0.141	-0.020
-438.763	-134.507	0.183	-0.022
-437.749	123.548	-0.252	-0.315
-436.734	178.857	-0.058	-0.085
-435.719	235.000	0.070	-0.115
-434.705	463.254	0.144	-0.321
-433.690	-98.827	0.154	0.039
-432.676	187.084	0.106	0.157
-431.661	-114.328	0.258	-0.050
-430.646	505.480	-0.088	-0.204
-429.632	48.509	0.085	-0.080
-428.617	405.085	-0.133	-0.279
-427.603	800.000	-0.081	0.249
-426.588	226.400	-0.071	0.115
-425.573	93.356	0.105	-0.119
-424.559	185.424	-0.053	-0.078
-423.544	241.292	-0.116	-0.194
-422.530	343.246	-0.023	-0.044
-421.515	-22.424	0.200	-0.121
-420.500	-156.517	0.323	0.020
-419.486	139.721	-0.223	-0.292
-418.471	5.248	-0.178	0.131
-417.457	166.042	-0.158	-0.224
-416.442	-61.855	0.188	0.079
-415.428	-31.002	-0.101	-0.057
-414.413	-84.287	0.216	-0.068
-413.398	-200.000	0.008	-0.050
-412.384	330.702	0.032	0.062
-411.369	-101.053	-0.445	0.109
-410.355	-191.107	0.034	0.000
-409.340	10.595	0.285	-0.217
-408.325	110.378	0.064	0.076
-407.311	-200.000	0.002	-0.184
-406.296	-106.919	0.213	0.047
-405.282	127.342	-0.101	-0.128
-404.267	565.151	0.109	-0.264
-403.252	-5.456	-0.173	-0.119
-402.238	-200.000	-0.060	-0.302
-401.223	450.839	-0.084	-0.185
-400.209	101.794	0.143	0.166
-399.194	-142.371	0.219	-0.022
-398.179	-53.814	-0.071	0.032
-397.165	-124.627	-0.111	0.017
-396.150	61.818	-0.106	-0.106
-395.136	27.646	0.170	-0.143
-394.121	6.663	-0.094	0.070
-393.106	-37.977	-0.449	0.238
-392.092	247.798	-0.036	-0.061
-391.077	-200.000	-0.012	0.236
-390.063	-200.000	0.020	-0.135
-389.048	27.052	0.231	0.193
-388.033	265.488	0.101	-0.176
-387.019	-200.000	-0.021	0.108
-386.004	3.195	-0.182	-0.132
-384.990	-185.566	0.119	-0.002
-383.975	-61.030	0.211	-0.089
-382.960	102.790	-0.179	-0.209
-381.946	180.131	-0.191	-0.279
-380.931	-65.178	0.180	-0.072
-379.917	-34.273	-0.229	-0.125
-378.902	-92.021	0.159	-0.045
-377.888	558.999	-0.110	0.264
-376.873	83.763	-0.134	0.146
-375.858	72.504	0.131	0.136
-374.844	-112.844	0.355	0.070
-373.829	-15.339	0.158	-0.100
-372.815	116.070	-0.166	0.203
-371.800	-165.334	0.343	0.015
-370.785	160.853	0.070	0.098
-369.771	800.000	-0.043	-0.119
-368.756	-91.004	-0.373	0.107
-367.742	95.732	0.031	-0.035
-366.727	-57.087	0.407	0.179
-365.712	153.303	0.165	0.225
-364.698	93.379	0.201	0.226
-363.683	2.162	-0.082	0.059
-362.669	800.000	-0.085	-0.358
-361.654	-117.537	-0.076	-0.014
-360.639	-200.000	0.258	0.000
-359.625	-200.000	0.056	0.403
-358.610	1.337	0.152	-0.109
-357.596	-128.499	-0.242	-0.034
-356.581	-72.957	0.185	0.068
-355.566	1.786	-0.137	-0.098
-354.552	-73.856	0.249	0.090
-353.537	-129.759	0.153	-0.021
-352.523	145.827	0.183	-0.244
-351.508	-93.948	0.370	-0.101
-350.493	-51.285	-0.280	-0.130
-349.479	8.570	0.156	-0.117
-348.464	-85.159	0.190	0.059
-347.450	-200.000	-0.025	-0.228
-346.435	276.304	0.038	0.067
-345.420	132.334	-0.166	0.213
-344.406	-16.983	-0.272	-0.171
-343.391	-200.000	-0.034	0.473
-342.377	-200.000	0.028	0.143
-341.362	272.483	0.179	0.314
-340.348	103.299	0.141	-0.164
-339.333	-107.790	-0.148	-0.032
-338.318	32.797	0.167	0.144
-337.304	-85.830	0.061	0.019
-336.289	-55.439	-0.269	0.120
-335.275	98.636	0.100	-0.115
-334.260	363.615	-0.020	0.040
-333.245	172.136	0.149	-0.213
-332.231	101.133	-0.133	-0.154
-331.216	-200.000	-0.024	0.190
-330.202	-121.442	-0.278	-0.046
-329.187	-146.193	-0.444	-0.039
-328.172	208.788	-0.059	0.091
-327.158	-12.250	-0.372	0.242
-326.143	-200.000	-0.009	-0.169
-325.129	-35.507	-0.238	-0.128
-324.114	216.888	0.029	-0.045
-323.099	205.218	-0.134	0.206
-322.085	-180.790	-0.228	-0.005
-321.070	-200.000	-0.001	0.310
-320.056	653.642	-0.096	0.246
-319.041	108.377	0.164	-0.194
-318.026	84.306	-0.075	-0.081
-317.012	-136.373	0.355	-0.041
-315.997	193.404	-0.101	0.152
-314.983	-98.111	0.445	0.114
-313.968	-77.303	-0.246	-0.085
-312.953	-200.000	0.027	-0.178
-311.939	-38.030	-0.230	0.121
-310.924	-200.000	0.042	0.274
-309.910	-200.000	0.019	-0.154
-308.895	15.169	-0.070	-0.055
-307.880	-47.036	0.242	-0.117
-306.866	-132.347	-0.073	0.009
-305.851	-200.000	0.045	0.225
-304.837	77.658	0.152	0.161
-303.822	-200.000	-0.044	-0.208
-302.807	-67.691	-0.193	0.075
-301.793	-68.555	0.217	-0.083
-300.778	429.640	0.030	-0.065
-299.764	-200.000	0.001	0.166
-298.749	-200.000	-0.177	0.001
-297.735	-27.301	0.093	0.054
-296.720	139.981	-0.122	-0.160
-295.705	191.400	-0.071	0.107
-294.691	-71.894	0.185	0.068
-293.676	338.721	0.129	0.250
-292.662	800.000	0.031	-0.109
-291.647	14.420	0.106	-0.082
-290.632	-56.423	0.244	-0.107
-289.618	-84.497	-0.112	-0.035
-288.603	-200.000	-0.002	0.160
-287.589	-119.927	0.227	0.039
-286.574	173.573	-0.245	-0.350
-285.559	-158.855	-0.021	0.001
-284.545	-40.819	-0.392	0.202
-283.530	-200.000	0.049	0.400
-282.516	134.868	-0.176	-0.227
-281.501	-166.332	-0.571	0.024
-280.486	470.461	0.060	0.133
-279.472	-156.787	0.143	0.009
-278.457	-80.304	0.100	-0.033
-277.443	-200.000	-0.001	-0.155
-276.428	203.374	-0.052	-0.079
-275.413	261.767	-0.165	-0.284
-274.399	-153.153	-0.234	-0.016
-273.384	-139.369	0.198	-0.021
-272.370	69.073	0.175	0.178
-271.355	-58.918	-0.142	-0.061
-270.340	105.870	-0.152	0.178
-269.326	-200.000	0.035	0.223
-268.311	222.918	-0.066	-0.106
-267.297	369.408	0.023	-0.046
-266.282	-148.118	0.075	-0.006
-265.267	-200.000	0.007	-0.248
-264.253	-200.000	0.024	-0.135
-263.238	30.547	-0.291	0.247
-262.224	-57.710	-0.288	-0.125
-261.209	640.173	0.112	0.282
-260.195	352.118	0.026	0.050
-259.180	-4.198	0.336	0.230
-258.165	-200.000	-0.016	0.286
-257.151	30.684	0.210	0.178
-256.136	38.711	0.173	-0.153
-255.122	697.235	0.052	0.135
-254.107	-55.967	0.199	0.088
-253.092	-155.522	-0.156	-0.010
-252.078	10.527	0.020	-0.015
-251.063	800.000	-0.064	0.184
-250.049	-35.575	0.116	0.063
-249.034	552.814	-0.108	-0.258
-248.019	517.136	0.068	-0.158
-247.005	-200.000	0.004	-0.223
-245.990	104.004	0.182	-0.212
-244.976	351.425	0.043	0.084
-243.961	-105.529	0.170	0.038
-242.946	-87.161	-0.274	0.083
-241.932	800.000	0.018	0.060
-240.917	-35.447	0.116	-0.062
-239.903	28.514	-0.087	0.073
-238.888	114.112	-0.086	-0.103
-237.873	-200.000	-0.050	-0.366
-236.859	-200.000	-0.029	-0.435
-235.844	181.391	-0.168	0.244
-234.830	-121.570	0.234	-0.038
-233.815	301.209	-0.058	-0.106
-232.800	505.438	-0.114	-0.261
-231.786	-32.680	-0.228	-0.126
-230.771	-129.136	-0.246	0.034
-229.757	284.872	0.209	0.372
-228.742	3.722	0.262	0.189
-227.727	250.672	0.117	-0.197
-226.713	800.000	-0.037	0.103
-225.698	267.684	-0.118	0.205
-224.684	800.000	-0.047	-0.176
-223.669	-51.461	0.182	0.084
-222.655	101.679	-0.154	0.178
-221.640	-89.457	-0.160	-0.047
-220.625	-45.998	-0.067	0.033
-219.611	43.282	-0.013	0.012
-218.596	259.108	0.096	-0.163
-217.582	-66.760	0.436	0.171
-216.567	59.148	-0.257	0.250
-215.552	14.542	-0.289	0.223
-214.538	-200.000	-0.019	0.219
-213.523	800.000	0.066	0.259
-212.509	157.161	0.047	0.065
-211.494	139.123	0.105	-0.137
-210.479	14.400	-0.207	-0.159
-209.465	-72.876	0.279	-0.102
-208.450	764.900	-0.120	-0.322
-207.436	-69.047	0.113	0.043
-206.421	-54.800	-0.163	-0.073
-205.406	61.138	0.158	-0.155
-204.392	-136.529	-0.163	0.019
-203.377	6.889	-0.176	0.129
-202.363	56.902	0.031	0.030
-201.348	64.094	0.214	0.213
-200.333	295.197	-0.117	0.212
-199.319	800.000	0.022	0.078
-198.304	-38.870	-0.114	-0.059
-197.290	70.741	0.182	0.186
-196.275	14.601	0.045	0.035
-195.260	-200.000	0.029	0.182
-194.246	-85.433	-0.171	-0.053
-193.231	364.176	0.138	0.275
-192.217	-114.156	0.064	0.012
-191.202	114.854	0.157	-0.190
-190.187	-102.802	-0.185	-0.043
-189.173	-177.670	-0.237	0.006
-188.158	367.517	0.142	0.284
-187.144	-87.279	-0.321	0.096
-186.129	-189.525	0.180	0.002
-185.114	100.764	-0.108	0.124
-184.100	466.744	0.180	0.399
-183.085	20.364	0.052	0.042
-182.071	-200.000	-0.005	-0.120
-181.056	266.625	-0.081	-0.140
-180.042	345.118	-0.118	-0.229
-179.027	-148.787	-0.328	0.026
-178.012	87.806	-0.118	-0.129
-176.998	-131.582	-0.136	-0.018
-175.983	69.470	-0.377	0.383
-174.969	-13.398	-0.105	-0.067
-173.954	-162.496	0.139	0.007
-172.939	800.000	-0.105	0.293
-171.925	-188.572	0.120	0.001
-170.910	86.585	0.063	0.069
-169.896	-88.299	-0.210	0.062
-168.881	69.708	0.207	-0.211
-167.866	199.486	0.083	-0.126
-166.852	800.000	0.031	-0.094
-165.837	25.562	0.297	-0.244
-164.823	79.969	0.121	-0.129
-163.808	475.561	0.114	-0.254
-162.793	604.537	-0.026	-0.064
-161.779	800.000	-0.024	0.086
-160.764	-79.455	-0.189	0.063
-159.750	-44.635	0.293	-0.145
-158.735	29.175	-0.040	-0.034
-157.720	132.719	-0.323	-0.412
-156.706	97.774	-0.106	0.120
-155.691	-200.000	-0.036	-0.246
-154.677	-40.278	0.152	-0.078
-153.662	-200.000	0.020	-0.194
-152.647	-200.000	0.039	0.235
-151.633	800.000	-0.116	-0.468
-150.618	-156.980	-0.045	0.003
-149.604	-200.000	-0.022	-0.346
-148.589	-27.002	0.137	0.079
-147.574	-107.823	0.239	-0.051
-146.560	527.499	-0.077	-0.178
-145.545	-200.000	-0.012	0.102
-144.531	-143.805	0.220	-0.021
-143.516	-169.942	0.109	0.004
-142.502	-34.701	0.272	0.147
-141.487	69.049	0.214	-0.217
-140.472	201.404	0.127	0.193
-139.458	527.096	-0.076	-0.177
-138.443	800.000	-0.111	0.444
-137.429	62.423	0.157	-0.155
-136.414	800.000	0.050	-0.181
-135.399	259.438	0.098	-0.167
-134.385	314.071	-0.078	0.145
-133.370	-8.520	0.302	0.200
-132.356	62.240	-0.049	-0.048
-131.341	-69.165	0.519	-0.197
-130.326	178.885	-0.042	-0.061
-129.312	0.369	-0.139	-0.098
-128.297	-200.000	0.027	0.298
-127.283	-200.000	-0.001	-0.046
-126.268	-79.602	0.124	-0.041
-125.253	472.295	-0.038	-0.084
-124.239	84.642	0.123	0.133
-123.224	338.290	0.009	0.018
-122.210	-200.000	-0.009	-0.038
-121.195	-33.770	-0.045	-0.025
-120.180	476.479	0.103	0.229
-119.166	-200.000	-0.003	0.189
-118.151	60.267	-0.213	0.208
-117.137	-123.346	0.037	-0.006
-116.122	-90.784	0.450	0.128
-115.107	13.161	-0.140	-0.107
-114.093	-91.430	0.045	-0.013
-113.078	800.000	0.056	0.213
-112.064	139.678	-0.115	0.149
-111.049	-146.439	0.162	0.014
-110.034	-104.668	0.243	-0.055
-109.020	-4.638	0.118	0.080
-108.005	-43.679	-0.245	-0.122
-106.991	-200.000	0.002	-0.038
-105.976	-200.000	0.015	0.282
-104.962	165.157	-0.104	0.145
-103.947	8.755	0.163	-0.121
-102.932	800.000	-0.064	0.202
-101.918	80.402	0.217	-0.231
-100.903	163.091	-0.118	-0.163
-99.889	779.228	-0.080	0.217
-98.874	800.000	-0.082	-0.245
-97.859	89.154	-0.079	-0.087
-96.845	35.044	-0.226	-0.195
-95.830	-200.000	-0.022	0.458
-94.816	-16.073	-0.074	0.046
-93.801	-22.210	0.447	0.267
-92.786	-68.166	-0.256	0.098
-91.772	-163.749	0.444	-0.021
-90.757	96.386	-0.248	0.280
-89.743	-31.155	0.311	-0.173
-88.728	-11.134	0.147	0.095
-87.713	51.892	0.263	0.247
-86.699	-41.865	-0.251	-0.127
-85.684	-134.012	-0.121	0.015
-84.670	-91.460	0.360	0.101
-83.655	-159.961	0.269	-0.014
-82.640	387.858	0.170	0.347
-81.626	800.000	-0.077	0.249
-80.611	48.937	0.332	-0.307
-79.597	93.179	0.135	-0.151
-78.582	-56.682	0.367	-0.160
-77.567	-111.251	0.059	0.012
-76.553	-200.000	-0.015	-0.067
-75.538	800.000	0.033	0.119
-74.524	97.698	-0.213	0.242
-73.509	-57.672	-0.117	-0.050
-72.494	180.629	-0.107	-0.154
-71.480	-163.882	0.473	-0.022
-70.465	-43.989	0.371	0.183
-69.451	-51.054	0.199	0.092
-68.436	20.705	0.085	0.068
-67.422	800.000	0.093	-0.338
-66.407	800.000	0.084	-0.311
-65.392	175.548	0.089	-0.128
-64.378	100.056	0.138	-0.157
-63.363	-127.462	-0.227	0.033
-62.349	-69.033	-0.082	-0.031
-61.334	-24.726	-1.354	-0.792
-60.319	63.247	0.529	0.521
-59.305	-200.000	-0.082	-0.904
-58.290	197.331	0.609	0.915
-57.276	800.000	0.462	1.728
-56.261	-200.000	96.287	594.901
-55.246	555.953	1367.995	3240.542
-54.232	161.838	2547.140	3508.059
-53.217	112.194	2156.733	2564.285
-52.203	42.419	1701.126	1521.366
-51.188	34.879	1514.552	1303.311
-50.173	32.602	1487.467	1264.689
-49.159	51.951	1536.622	1438.918
-48.144	53.512	1554.878	1466.614
-47.130	35.213	1513.937	1304.847
-46.115	31.949	1499.938	1270.667
-45.100	31.774	1496.476	1266.499
-44.086	31.770	1494.317	1264.599
-43.071	31.770	1492.754	1263.226
-42.057	31.764	1490.715	1261.411
-41.042	31.854	1489.258	1260.732
-40.027	31.752	1488.344	1259.220
-39.013	31.751	1486.418	1257.535
-37.998	31.651	1485.554	1256.082
-36.984	31.793	1483.906	1255.588
-35.969	31.758	1482.671	1254.265
-34.954	31.912	1481.004	1253.833
-33.940	31.572	1480.820	1251.350
-32.925	31.744	1478.654	1250.621
-31.911	31.825	1477.130	1249.825
-30.896	31.819	1475.734	1248.555
-29.881	31.800	1474.970	1247.729
-28.867	31.852	1473.139	1246.476
-27.852	31.816	1472.109	1245.314
-26.838	31.793	1470.762	1243.976
-25.823	31.837	1468.650	1242.434
-24.809	31.750	1467.330	1240.686
-23.794	31.771	1466.190	1239.812
-22.779	31.722	1464.969	1238.412
-21.765	31.791	1463.699	1237.745
-20.750	31.829	1462.333	1236.789
-19.736	31.745	1461.333	1235.339
-18.721	31.738	1460.167	1234.259
-17.706	31.770	1458.699	1233.182
-16.692	31.788	1457.925	1232.595
-15.677	31.784	1456.514	1231.330
-14.663	31.717	1455.991	1230.393
-13.648	31.874	1454.471	1230.090
-12.633	31.709	1454.260	1228.785
-11.619	31.763	1453.230	1228.219
-10.604	31.557	1452.851	1226.500
-9.590	31.657	1452.113	1226.483
-8.575	31.734	1450.807	1225.836
-7.560	31.704	1449.986	1224.895
-6.546	31.772	1448.752	1224.250
-5.531	31.646	1448.107	1222.831
-4.517	31.652	1447.243	1222.094
-3.502	31.701	1445.832	1221.173
-2.487	31.572	1445.222	1219.770
-1.473	31.683	1444.070	1219.470
-0.458	31.680	1442.656	1218.208
0.556	31.699	1433.226	1207.561
1.571	29.029	1408.884	1169.997
2.586	26.001	1352.068	1104.203
3.600	24.524	1273.713	1031.599
4.615	23.388	1227.035	987.376
5.629	19.607	1169.137	920.592
6.644	9.922	1082.948	804.610
7.659	2.825	1041.643	739.744
8.673	1.901	1036.506	731.596
9.688	1.715	1033.161	728.280
10.702	1.524	1031.724	726.293
11.717	1.591	1029.472	724.963
12.731	4.623	1033.172	741.990
13.746	14.348	1046.730	798.481
14.761	22.351	1057.532	845.250
15.775	24.657	1059.836	858.105
16.790	25.051	1059.498	859.642
17.804	24.882	1058.501	857.949
18.819	24.827	1057.276	856.618
19.834	24.772	1057.138	856.166
20.848	24.941	1056.873	856.685
21.863	25.136	1056.203	856.999
22.877	25.155	1055.911	856.773
23.892	25.062	1055.237	855.708
24.907	24.857	1054.617	854.151
25.921	24.936	1053.852	853.832
26.936	24.912	1053.169	853.090
27.950	24.894	1052.054	852.025
28.965	24.772	1051.237	850.708
29.980	24.750	1049.538	849.155
30.994	24.695	1048.307	847.820
32.009	24.975	1047.756	848.626
33.023	25.113	1046.693	848.346
34.038	25.071	1045.283	846.930
35.053	24.733	1045.143	845.145
36.067	24.934	1044.223	845.272
37.082	24.866	1043.790	844.529
38.096	24.958	1043.094	844.322
39.111	25.170	1042.266	844.579
40.126	25.217	1041.171	843.837
41.140	25.328	1039.681	843.074
42.155	24.842	1039.155	840.293
43.169	24.728	1037.003	837.942
44.184	24.640	1035.838	836.515
45.199	24.744	1035.118	836.347
46.213	24.508	1034.534	834.699
47.228	24.495	1033.714	833.900
48.242	24.807	1032.789	834.536
49.257	24.779	1032.400	834.018
50.271	24.915	1031.626	833.954
51.286	25.101	1030.738	834.025
52.301	24.952	1030.417	833.000
53.315	24.977	1029.396	832.220
54.330	24.940	1028.776	831.473
55.344	24.928	1027.911	830.644
56.359	24.928	1027.293	830.069
57.374	24.890	1026.159	828.903
58.388	24.644	1025.622	827.256
59.403	24.662	1024.709	826.531
60.417	24.812	1023.554	826.219
61.432	24.625	1022.967	824.811
62.447	24.622	1022.430	824.290
63.461	24.657	1021.957	823.995
64.476	24.832	1020.907	823.882
65.490	24.677	1019.979	822.349
66.505	24.579	1019.129	821.141
67.520	24.503	1018.777	820.437
68.534	24.685	1017.408	820.096
69.549	24.654	1016.686	819.300
70.563	24.247	1015.453	816.369
71.578	24.173	1015.386	815.905
72.593	24.252	1014.160	815.209
73.607	24.070	1012.926	813.310
74.622	24.200	1011.730	812.872
75.636	24.518	1011.345	813.940
76.651	24.373	1011.058	812.976
77.666	24.378	1009.850	811.957
78.680	24.323	1008.835	810.820
79.695	24.417	1008.295	810.742
80.709	24.431	1007.985	810.483
81.724	24.748	1006.669	810.792
82.739	24.579	1006.020	809.429
83.753	24.448	1005.799	808.588
84.768	24.864	1004.883	809.662
85.782	25.080	1004.669	810.396
86.797	25.325	1003.773	810.705
87.812	25.269	1002.701	809.515
88.826	25.082	1001.657	807.759
89.841	25.088	1000.890	807.095
90.855	25.172	1000.180	806.831
91.870	25.201	999.240	806.131
92.884	25.308	998.273	805.760
93.899	25.067	997.936	804.334
94.914	24.769	997.143	802.289
95.928	25.010	996.437	802.730
96.943	25.032	995.594	802.078
97.957	24.917	993.979	800.194
98.972	24.758	992.659	798.349
99.987	24.486	991.537	796.161
101.001	24.684	990.956	796.508
102.016	24.914	990.538	797.125
103.030	24.898	989.948	796.508
104.045	24.808	988.971	795.251
105.060	24.756	987.980	794.157
106.074	24.568	986.653	792.182
107.089	24.555	986.108	791.618
108.103	24.855	985.975	792.771
109.118	24.997	984.851	792.424
110.133	24.692	983.639	790.032
111.147	24.596	983.123	789.126
112.162	24.467	981.718	787.356
113.176	24.275	980.103	785.146
114.191	24.446	979.683	785.495
115.206	24.671	978.685	785.613
116.220	24.245	978.043	783.158
117.235	24.217	976.714	781.902
118.249	24.281	976.511	781.952
119.264	24.324	975.458	781.227
120.279	24.362	974.223	780.335
121.293	24.290	974.064	779.823
122.308	24.369	973.492	779.640
123.322	24.455	972.457	779.120
124.337	24.395	971.365	777.914
125.352	24.223	970.233	776.189
126.366	23.833	968.458	773.004
127.381	23.441	967.354	770.353
128.395	24.074	967.006	772.754
129.410	24.716	966.872	775.364
130.424	24.778	966.172	775.005
131.439	24.967	964.823	774.669
132.454	24.887	963.683	773.343
133.468	24.835	962.934	772.449
134.483	24.647	962.302	771.062
135.497	24.799	961.777	771.228
136.512	24.982	960.992	771.320
137.527	25.117	960.273	771.252
138.541	25.025	959.750	770.368
139.556	25.111	958.975	770.047
140.570	25.033	958.227	769.046
141.585	25.111	957.102	768.409
142.600	25.267	956.277	768.346
143.614	24.949	955.857	766.579
144.629	25.212	955.302	767.193
145.643	25.432	954.274	767.239
146.658	25.224	953.476	765.639
147.673	25.181	951.971	764.180
148.687	25.076	951.096	762.964
149.702	24.943	950.036	761.479
150.716	24.795	949.004	759.958
151.731	24.850	948.053	759.364
152.746	24.889	947.584	759.086
153.760	25.049	947.180	759.371
154.775	25.222	946.194	759.246
155.789	25.265	945.338	758.675
156.804	25.098	944.829	757.495
157.819	25.192	943.158	756.483
158.833	25.226	942.742	756.225
159.848	25.200	941.944	755.408
160.862	25.277	941.564	755.362
161.877	25.087	940.696	753.801
162.892	25.176	939.188	752.900
163.906	25.290	938.383	752.665
164.921	25.213	938.195	752.124
165.935	25.033	937.131	750.451
166.950	25.322	935.864	750.580
167.964	25.234	935.209	749.618
168.979	25.428	933.636	749.099
169.994	25.139	932.931	747.263
171.008	25.016	931.857	745.828
172.023	25.158	931.583	746.132
173.037	25.308	930.528	745.846
174.052	25.105	929.683	744.260
175.067	25.021	928.504	742.899
176.081	25.042	927.456	742.081
177.096	24.967	927.196	741.498
178.110	25.095	926.301	741.248
179.125	24.837	925.122	739.172
180.140	24.556	924.043	737.084
181.154	24.499	923.958	736.719
182.169	24.749	923.078	736.979
183.183	25.044	922.774	737.889
184.198	25.253	922.612	738.552
185.213	25.038	922.034	737.142
186.227	24.957	921.356	736.203
187.242	25.192	920.803	736.660
188.256	25.304	919.661	736.138
189.271	25.407	918.806	735.812
190.286	25.369	918.524	735.367
191.300	25.094	917.819	733.611
192.315	24.552	916.611	730.364
193.329	23.827	914.892	725.971
194.344	23.463	913.803	723.556
195.359	24.105	914.124	726.365
196.373	24.866	914.534	729.733
197.388	25.135	913.712	730.105
198.402	25.056	913.441	729.506
199.417	25.116	912.948	729.291
200.432	25.182	912.485	729.123
201.446	24.940	911.881	727.593
202.461	24.758	910.470	725.666
203.475	24.772	910.172	725.421
204.490	24.314	909.270	722.781
205.504	23.231	906.954	716.497
206.519	23.614	906.702	717.783
207.534	24.609	907.021	721.994
208.548	24.765	906.729	722.329
209.563	25.136	906.831	723.844
210.577	25.167	905.477	722.822
211.592	24.739	905.281	720.877
212.607	25.169	904.790	722.155
213.621	25.415	904.221	722.628
214.636	25.247	903.592	721.387
215.650	25.288	903.313	721.263
216.665	25.228	902.608	720.395
217.680	25.276	902.014	720.048
218.694	25.382	901.740	720.193
219.709	24.996	900.578	717.656
220.723	24.736	899.304	715.537
221.738	24.799	899.043	715.515
222.753	25.008	899.133	716.360
223.767	24.968	897.859	715.121
224.782	25.071	897.366	715.078
225.796	25.214	896.903	715.218
226.811	25.418	895.963	715.214
227.826	25.018	894.699	712.551
228.840	24.270	893.183	708.310
229.855	24.150	892.712	707.400
230.869	24.457	892.410	708.315
231.884	24.154	891.152	706.054
232.899	24.126	890.938	705.712
233.913	24.874	891.423	708.995
234.928	25.036	891.203	709.399
235.942	24.950	890.243	708.234
236.957	24.836	889.655	707.251
237.972	24.660	888.452	705.537
238.986	24.626	887.826	704.845
240.001	24.672	887.365	704.596
241.015	24.622	886.770	703.866
242.030	24.885	885.761	704.039
243.045	24.940	885.456	703.950
244.059	25.051	885.287	704.188
245.074	25.155	884.575	703.968
246.088	25.187	883.928	703.517
247.103	24.916	882.374	701.155
248.117	24.860	882.492	700.967
249.132	25.341	882.496	702.793
250.147	25.702	882.088	703.818
251.161	25.796	882.077	704.113
252.176	25.918	881.368	703.964
253.190	25.924	880.372	703.129
254.205	25.952	880.620	703.372
255.220	26.177	880.007	703.697
256.234	26.202	879.113	703.019
257.249	26.057	878.555	701.946
258.263	25.933	877.833	700.823
259.278	25.884	877.275	700.127
260.293	26.100	876.595	700.360
261.307	26.068	876.352	699.980
262.322	26.020	875.928	699.392
263.336	25.945	874.886	698.210
264.351	25.453	873.715	695.308
265.366	24.406	871.564	689.492
266.380	23.978	870.746	687.134
267.395	24.610	871.320	689.964
268.409	25.540	871.399	693.555
269.424	25.429	870.610	692.440
270.439	25.677	870.132	692.953
271.453	25.849	869.733	693.235
272.468	25.891	868.910	692.680
273.482	26.104	868.518	693.123
274.497	26.021	868.259	692.539
275.512	25.809	867.158	690.785
276.526	25.319	866.048	687.962
277.541	25.550	865.344	688.228
278.555	25.869	865.429	689.455
279.570	25.596	864.210	687.378
280.585	25.483	863.717	686.495
281.599	25.660	863.165	686.672
282.614	25.726	862.658	686.458
283.628	25.246	861.590	683.718
284.643	24.899	860.962	681.838
285.657	25.383	860.938	683.602
286.672	25.255	859.919	682.247
287.687	24.704	859.441	679.714
288.701	24.933	859.871	680.863
289.716	25.345	859.242	681.870
290.730	25.149	858.010	680.091
291.745	25.033	857.385	679.094
292.760	24.840	856.299	677.442
293.774	24.808	855.921	676.962
294.789	25.719	856.283	680.636
295.803	26.183	856.656	682.625
296.818	26.210	856.456	682.507
297.833	26.501	855.702	682.947
298.847	26.185	854.683	680.882
299.862	25.822	853.700	678.670
300.876	25.945	852.982	678.503
301.891	26.246	852.771	679.406
302.906	26.336	852.147	679.188
303.920	25.904	851.274	676.811
304.935	25.891	850.417	676.019
305.949	26.130	850.283	676.750
306.964	26.397	849.712	677.234
307.979	26.201	848.939	675.827
308.993	26.003	848.739	674.868
310.008	26.351	848.336	675.788
311.022	26.383	847.984	675.565
312.037	26.364	847.008	674.657
313.052	26.079	846.582	673.195
314.066	26.047	845.355	672.041
315.081	25.186	844.408	668.024
316.095	24.456	843.392	664.444
317.110	24.995	843.639	666.589
318.125	26.034	843.709	670.448
319.139	25.543	842.556	667.649
320.154	24.348	840.581	661.598
321.168	23.925	839.939	659.464
322.183	24.546	840.385	662.058
323.197	25.437	840.656	665.514
324.212	25.891	840.305	666.860
325.227	25.973	839.574	666.521
326.241	26.046	839.708	666.839
327.256	26.010	838.646	665.805
328.270	25.899	837.956	664.788
329.285	25.904	837.567	664.439
330.300	25.618	836.635	662.587
331.314	25.293	836.103	660.912
332.329	25.573	835.357	661.293
333.343	25.940	835.163	662.429
334.358	26.254	835.064	663.447
335.373	26.154	834.381	662.479
336.387	26.215	834.012	662.348
337.402	26.326	833.838	662.560
338.416	26.792	832.827	663.403
339.431	26.646	832.510	662.558
340.446	26.680	831.925	662.158
341.460	26.872	831.579	662.528
342.475	26.796	831.034	661.755
343.489	26.592	830.132	660.236
344.504	26.675	829.585	660.045
345.519	26.748	829.442	660.139
346.533	27.028	829.364	661.038
347.548	27.037	828.748	660.521
348.562	26.971	828.122	659.723
349.577	26.904	827.618	659.018
350.592	26.884	827.045	658.433
351.606	26.949	826.482	658.163
352.621	26.944	826.269	657.918
353.635	26.851	825.493	656.902
354.650	26.784	825.048	656.247
355.665	26.452	823.929	654.101
356.679	25.223	822.792	648.698
357.694	25.285	821.866	648.134
358.708	26.007	822.216	650.961
359.723	25.988	821.097	649.948
360.738	26.098	821.180	650.354
361.752	26.519	821.257	651.874
362.767	26.604	820.701	651.682
363.781	26.922	820.713	652.778
364.796	27.226	820.220	653.420
365.810	27.232	820.068	653.262
366.825	27.431	819.506	653.473
367.840	27.588	819.039	653.604
368.854	27.076	818.962	651.649
369.869	26.885	817.655	649.865
370.883	26.752	816.991	648.805
371.898	26.761	816.631	648.493
372.913	26.553	815.880	647.098
373.927	26.623	815.523	647.005
374.942	26.699	814.964	646.778
375.956	26.868	814.422	646.893
376.971	26.942	813.958	646.732
377.986	27.118	813.165	646.670
379.000	27.210	813.007	646.813
380.015	27.366	812.530	646.932
381.029	27.113	811.982	645.539
382.044	27.123	811.522	645.151
383.059	27.262	811.099	645.253
384.073	27.235	810.577	644.683
385.088	27.320	809.719	644.244
386.102	27.329	809.268	643.862
387.117	27.206	808.223	642.538
388.132	27.025	807.698	641.426
389.146	26.804	807.475	640.410
390.161	26.187	806.575	637.464
391.175	26.390	805.959	637.635
392.190	26.878	806.204	639.495
393.205	26.986	805.639	639.369
394.219	25.906	803.948	634.173
395.234	24.383	801.084	626.513
396.248	23.452	800.588	622.801
397.263	24.584	801.688	627.583
398.278	26.461	802.610	634.843
399.292	26.882	802.661	636.303
400.307	26.528	802.168	634.616
401.321	26.370	801.579	633.540
402.336	26.690	801.259	634.352
403.350	26.898	801.014	634.830
404.365	27.350	800.952	636.305
405.380	27.784	800.828	637.665
406.394	27.941	800.848	638.172
407.409	28.095	800.369	638.273
408.423	27.993	799.599	637.248
409.438	28.193	798.820	637.264
410.453	28.071	798.450	636.491
411.467	27.927	798.585	636.039
412.482	28.053	797.584	635.624
413.496	28.047	796.894	634.999
414.511	27.973	796.951	634.728
415.526	28.058	796.605	634.693
416.540	27.928	796.259	633.910
417.555	27.898	796.037	633.574
418.569	27.785	795.266	632.511
419.584	27.768	794.323	631.649
420.599	27.771	793.858	631.231
421.613	110.640	1286.307	1460.109
422.628	95.217	1358.048	1460.185
