DTS Sentinel unit serial number:	SN413079Multiplexer serial number:	ORYXHardware model number:	OX4-SRSoftware version number:	ORYX F/W v4.00 Oryx Data Collector v3.7.2.0data status	okinstallation	princeton_trtdifferential loss correction	single-endedforward channel	channel 3reverse channel	N/Adate	2019/09/11time	02:46:10forward acquisition time	60.00reverse acquisition time	0.00gamma	496.2192k internal	0.2331k external	0.2331temperature offset calibration	0.9910default loss term (dB/km)	0.3790temperature slope calibration	1.0000multiplexer offset coefficient	1.0000multiplexer slope coefficient	1.0000fibre end	0.00T internal ref (°C)	29.25T ext. ref 1 (°C)	-0.31T ext. ref 2 (°C)	23.26length (m)	temperature (°C)	Stokes	anti-Stokes-747.200	-18.845	-0.026	-0.017
-746.185	-66.618	-0.397	-0.159
-745.171	-178.007	0.376	0.009
-744.156	800.000	-0.102	0.401
-743.142	-106.576	-0.289	-0.065
-742.127	16.869	0.060	0.048
-741.112	-26.532	0.191	-0.112
-740.098	-21.205	0.144	0.088
-739.083	-2.493	0.177	0.125
-738.069	-200.000	-0.079	0.350
-737.054	116.055	-0.123	-0.151
-736.039	-200.000	-0.001	-0.017
-735.025	162.924	-0.009	0.013
-734.010	-167.591	-0.228	0.009
-732.996	229.251	0.084	-0.138
-731.981	186.349	0.224	-0.335
-730.966	-44.975	-0.153	0.076
-729.952	-148.770	-0.110	0.009
-728.937	19.417	-0.202	-0.163
-727.923	25.479	-0.063	-0.053
-726.908	-165.124	0.165	0.007
-725.894	-17.403	-0.013	-0.008
-724.879	609.282	0.080	-0.202
-723.864	19.800	-0.114	-0.092
-722.850	655.514	-0.111	-0.286
-721.835	-200.000	-0.070	-0.521
-720.821	43.452	0.170	-0.156
-719.806	-53.800	0.073	0.033
-718.791	-139.060	-0.056	-0.006
-717.777	190.794	0.091	0.138
-716.762	-34.867	0.231	-0.127
-715.748	78.614	0.227	-0.244
-714.733	800.000	0.060	-0.204
-713.718	800.000	0.032	-0.106
-712.704	58.546	0.074	0.073
-711.689	-51.566	0.134	0.063
-710.675	53.070	-0.133	0.128
-709.660	-183.016	0.196	0.004
-708.645	325.605	-0.021	-0.040
-707.631	115.923	-0.020	0.025
-706.616	-200.000	-0.009	0.324
-705.602	395.910	-0.162	-0.341
-704.587	-101.145	-0.209	0.051
-703.572	204.947	0.032	-0.050
-702.558	60.103	0.087	-0.087
-701.543	15.183	0.180	0.141
-700.529	55.956	-0.058	0.057
-699.514	153.827	-0.174	-0.239
-698.499	6.152	-0.076	-0.056
-697.485	282.045	-0.077	0.138
-696.470	-107.903	-0.276	-0.060
-695.456	-200.000	0.027	-0.180
-694.441	-17.049	-0.247	0.156
-693.426	-2.762	-0.133	-0.094
-692.412	-178.064	-0.344	-0.008
-691.397	266.226	0.121	-0.213
-690.383	-41.650	-0.199	0.103
-689.368	800.000	-0.070	-0.237
-688.354	703.775	0.067	0.176
-687.339	-200.000	-0.025	0.147
-686.324	-200.000	0.030	0.182
-685.310	-120.960	0.114	-0.019
-684.295	-143.460	-0.296	-0.028
-683.281	180.681	0.050	-0.073
-682.266	800.000	-0.074	-0.228
-681.251	-51.790	0.072	0.034
-680.237	-200.000	-0.003	0.188
-679.222	800.000	-0.102	-0.329
-678.208	-78.717	0.495	0.170
-677.193	-53.677	-0.344	0.158
-676.178	800.000	0.071	-0.308
-675.164	-200.000	0.020	-0.258
-674.149	-35.822	-0.177	0.096
-673.135	264.080	0.051	0.089
-672.120	800.000	0.106	0.296
-671.105	647.734	-0.141	-0.361
-670.091	534.320	-0.025	-0.059
-669.076	-84.949	-0.235	-0.074
-668.062	-200.000	0.013	0.191
-667.047	733.375	-0.097	0.261
-666.032	-200.000	-0.040	0.230
-665.018	-200.000	0.001	-0.130
-664.003	-200.000	0.020	-0.105
-662.989	117.500	-0.114	0.141
-661.974	-5.358	-0.072	-0.050
-660.959	-200.000	-0.032	0.381
-659.945	-51.811	0.171	0.080
-658.930	156.220	-0.173	0.239
-657.916	-101.309	0.097	0.024
-656.901	-161.628	-0.443	-0.023
-655.886	-48.240	0.197	0.095
-654.872	800.000	0.075	0.266
-653.857	88.947	0.045	0.050
-652.843	54.976	-0.134	-0.130
-651.828	-27.695	0.088	0.051
-650.814	684.692	-0.062	0.163
-649.799	800.000	-0.014	0.038
-648.784	800.000	-0.043	-0.157
-647.770	-200.000	-0.011	0.268
-646.755	800.000	0.098	-0.281
-645.741	-77.169	0.027	0.009
-644.726	403.665	0.104	-0.220
-643.711	342.662	0.158	-0.310
-642.697	-115.767	-0.121	0.023
-641.682	-166.047	-0.377	0.016
-640.668	-150.236	0.193	0.015
-639.653	6.486	0.113	0.084
-638.638	-8.457	-0.376	-0.253
-637.624	800.000	0.027	-0.105
-636.609	172.211	-0.042	-0.060
-635.595	231.916	0.114	0.188
-634.580	189.100	0.050	-0.075
-633.565	-187.504	-0.207	0.003
-632.551	-198.815	-0.099	0.001
-631.536	-173.353	0.208	0.006
-630.522	35.553	-0.073	0.064
-629.507	-24.354	0.163	-0.097
-628.492	-200.000	-0.021	0.126
-627.478	24.378	-0.125	-0.103
-626.463	42.992	-0.225	0.206
-625.449	237.422	-0.035	0.058
-624.434	-68.016	-0.084	-0.033
-623.419	-148.360	0.233	-0.019
-622.405	-54.849	0.093	-0.042
-621.390	145.626	-0.102	0.136
-620.376	800.000	0.058	0.189
-619.361	-146.413	0.109	-0.010
-618.346	-48.970	-0.195	-0.093
-617.332	-28.545	-0.290	-0.167
-616.317	-200.000	-0.008	-0.287
-615.303	-158.511	0.134	-0.008
-614.288	800.000	-0.104	-0.434
-613.273	-130.476	-0.107	-0.014
-612.259	676.473	-0.082	0.212
-611.244	-42.976	-0.139	-0.071
-610.230	95.393	0.155	-0.177
-609.215	76.695	-0.208	-0.220
-608.201	800.000	0.110	-0.352
-607.186	800.000	-0.024	0.103
-606.171	95.488	0.125	0.143
-605.157	195.317	0.282	0.429
-604.142	-66.010	0.272	0.109
-603.128	800.000	0.140	-0.401
-602.113	46.064	-0.156	0.145
-601.098	-42.923	0.055	0.028
-600.084	800.000	-0.075	0.224
-599.069	107.772	0.113	-0.135
-598.055	-54.262	-0.315	-0.143
-597.040	800.000	-0.185	-0.524
-596.025	56.438	-0.172	-0.168
-595.011	-56.592	-0.153	0.068
-593.996	-49.006	0.433	-0.208
-592.982	-70.282	-0.072	0.027
-591.967	-35.795	-0.112	0.061
-590.952	-131.958	-0.136	-0.018
-589.938	23.696	-0.182	0.150
-588.923	134.657	0.103	-0.134
-587.909	800.000	0.079	0.322
-586.894	167.284	0.116	0.165
-585.879	96.176	-0.103	-0.117
-584.865	246.055	0.127	0.214
-583.850	-36.942	-0.234	0.126
-582.836	202.630	0.130	-0.201
-581.821	147.843	0.097	0.130
-580.806	-78.113	0.123	0.042
-579.792	27.104	0.236	-0.198
-578.777	185.619	-0.270	-0.401
-577.763	132.145	-0.057	-0.074
-576.748	-55.730	0.333	-0.149
-575.733	139.613	-0.229	-0.301
-574.719	214.598	-0.027	0.043
-573.704	-4.815	0.317	-0.219
-572.690	-200.000	0.049	-0.397
-571.675	-200.000	0.021	-0.120
-570.661	-156.242	-0.389	0.024
-569.646	49.899	0.086	0.081
-568.631	-121.288	-0.174	-0.029
-567.617	-200.000	-0.009	-0.099
-566.602	-200.000	-0.013	-0.169
-565.588	-123.521	-0.480	-0.076
-564.573	179.893	0.038	-0.056
-563.558	-122.891	-0.066	0.011
-562.544	328.433	-0.042	-0.081
-561.529	-200.000	-0.024	-0.260
-560.515	-190.836	-0.061	-0.001
-559.500	669.334	0.086	0.222
-558.485	178.190	0.035	0.051
-557.471	-103.861	-0.374	-0.087
-556.456	-200.000	0.014	-0.197
-555.442	26.066	-0.502	-0.419
-554.427	-132.372	-0.075	-0.010
-553.412	-59.641	0.277	-0.119
-552.398	-200.000	0.010	0.156
-551.383	800.000	-0.089	0.256
-550.369	116.544	-0.149	-0.182
-549.354	519.156	0.164	-0.384
-548.339	91.660	-0.047	0.053
-547.325	-134.911	0.356	-0.043
-546.310	-200.000	0.019	0.088
-545.296	800.000	-0.107	-0.355
-544.281	67.577	0.077	0.079
-543.266	-23.779	-0.102	0.061
-542.252	-200.000	0.002	-0.123
-541.237	-2.271	0.089	0.063
-540.223	-63.870	-0.144	0.059
-539.208	-181.418	-0.222	-0.004
-538.193	-58.970	0.118	0.051
-537.179	-61.217	-0.042	-0.018
-536.164	-61.510	0.245	0.103
-535.150	-148.045	0.181	-0.015
-534.135	357.090	0.021	-0.041
-533.121	800.000	-0.072	-0.226
-532.106	469.255	-0.088	-0.197
-531.091	-200.000	-0.048	-0.302
-530.077	-200.000	-0.032	0.252
-529.062	-34.671	0.148	-0.081
-528.048	-102.053	0.223	-0.054
-527.033	293.561	0.228	0.415
-526.018	12.644	0.038	0.029
-525.004	272.111	0.117	0.206
-523.989	-89.308	0.150	0.044
-522.975	800.000	0.045	0.129
-521.960	-200.000	-0.013	0.072
-520.945	85.427	-0.311	-0.341
-519.931	-110.693	0.410	0.084
-518.916	-161.412	-0.396	0.020
-517.902	-177.459	-0.113	0.003
-516.887	27.432	0.167	-0.140
-515.872	231.318	-0.103	-0.168
-514.858	272.525	-0.049	-0.087
-513.843	86.337	0.244	-0.268
-512.829	37.161	0.153	-0.135
-511.814	-200.000	0.041	-0.231
-510.799	-200.000	0.072	0.000
-509.785	-174.148	0.099	-0.003
-508.770	-83.176	0.074	0.024
-507.756	-200.000	-0.024	0.109
-506.741	-67.106	-0.240	-0.094
-505.726	125.474	0.069	0.086
-504.712	-200.000	0.067	-0.331
-503.697	43.098	0.231	-0.210
-502.683	566.936	0.112	0.270
-501.668	-143.608	-0.453	0.043
-500.653	380.331	-0.055	-0.113
-499.639	-146.283	-0.232	0.020
-498.624	-105.324	0.301	0.068
-497.610	-149.694	-0.308	0.024
-496.595	-166.006	-0.243	0.010
-495.581	497.937	0.073	0.168
-494.566	-27.141	-0.060	0.035
-493.551	-51.632	0.076	0.035
-492.537	155.788	-0.136	-0.186
-491.522	-126.800	-0.118	-0.017
-490.508	-183.821	-0.111	0.002
-489.493	5.287	-0.271	0.199
-488.478	-61.247	-0.167	0.070
-487.464	-131.702	0.132	0.017
-486.449	-155.344	-0.060	-0.004
-485.435	-200.000	-0.053	0.263
-484.420	-126.850	-0.178	0.026
-483.405	-112.083	-0.201	-0.040
-482.391	318.852	-0.054	0.103
-481.376	7.344	-0.273	-0.203
-480.362	379.607	0.158	-0.322
-479.347	57.031	-0.160	-0.155
-478.332	127.255	0.168	-0.212
-477.318	-111.426	-0.356	-0.072
-476.303	800.000	-0.048	-0.182
-475.289	-156.413	-0.227	-0.014
-474.274	-45.025	0.259	-0.128
-473.259	-152.278	-0.383	0.028
-472.245	134.498	0.192	-0.248
-471.230	-200.000	0.037	-0.263
-470.216	70.470	-0.194	-0.199
-469.201	456.998	0.079	-0.174
-468.186	643.507	-0.023	-0.058
-467.172	-143.187	0.091	0.009
-466.157	2.341	0.216	0.156
-465.143	-167.922	-0.443	0.017
-464.128	-200.000	-0.011	-0.183
-463.113	-200.000	0.004	0.073
-462.099	-200.000	0.029	0.202
-461.084	66.039	0.263	0.266
-460.070	27.911	0.289	0.243
-459.055	-20.663	-0.104	0.064
-458.040	458.280	0.118	0.262
-457.026	534.494	0.114	-0.269
-456.011	-200.000	0.002	0.130
-454.997	-200.000	-0.016	0.176
-453.982	800.000	0.078	-0.214
-452.968	-200.000	0.015	0.125
-451.953	800.000	-0.009	-0.032
-450.938	-34.557	0.284	-0.155
-449.924	-111.555	-0.249	0.050
-448.909	-50.667	-0.083	0.039
-447.895	800.000	-0.085	-0.309
-446.880	-48.895	0.306	-0.146
-445.865	231.788	0.101	-0.165
-444.851	3.067	-0.055	0.040
-443.836	-200.000	0.019	0.190
-442.822	-101.685	-0.141	-0.034
-441.807	-200.000	-0.020	-0.385
-440.792	-200.000	-0.022	0.131
-439.778	325.062	0.098	0.186
-438.763	-130.100	0.162	0.022
-437.749	49.613	0.176	0.165
-436.734	-68.339	0.322	0.124
-435.719	-200.000	-0.009	-0.065
-434.705	-200.000	-0.005	0.149
-433.690	-89.347	0.448	0.131
-432.676	25.983	0.118	0.098
-431.661	-118.360	-0.198	-0.035
-430.646	-200.000	0.067	0.331
-429.632	-140.529	-0.122	-0.013
-428.617	-122.707	0.268	-0.043
-427.603	6.223	-0.104	-0.076
-426.588	284.105	0.255	0.456
-425.573	-27.331	0.158	0.091
-424.559	-200.000	-0.030	-0.221
-423.544	-141.878	0.115	-0.011
-422.530	-133.188	-0.022	0.003
-421.515	135.984	-0.063	-0.081
-420.500	-172.974	-0.093	-0.003
-419.486	-200.000	-0.203	0.000
-418.471	7.955	0.066	-0.049
-417.457	-101.129	-0.380	0.092
-416.442	321.519	-0.071	0.134
-415.428	-200.000	0.010	-0.051
-414.413	67.437	-0.198	-0.201
-413.398	-200.000	0.034	0.411
-412.384	313.182	0.109	0.204
-411.369	-85.956	0.136	0.042
-410.355	107.929	-0.297	-0.352
-409.340	-120.193	0.353	-0.060
-408.325	800.000	0.053	0.204
-407.311	36.241	0.188	0.165
-406.296	133.208	0.206	-0.264
-405.282	-165.900	0.103	0.004
-404.267	-200.000	-0.021	0.436
-403.252	37.885	0.101	0.090
-402.238	-171.006	-0.051	0.002
-401.223	44.762	0.127	0.116
-400.209	-151.891	0.208	0.015
-399.194	-82.593	-0.086	-0.028
-398.179	800.000	0.032	-0.092
-397.165	-34.390	0.305	-0.166
-396.150	-155.024	-0.309	0.020
-395.136	24.945	-0.058	-0.048
-394.121	559.212	-0.066	0.159
-393.106	-49.332	0.064	0.030
-392.092	27.083	0.051	-0.042
-391.077	-143.164	-0.168	-0.016
-390.063	-88.767	0.155	-0.046
-389.048	-200.000	0.026	0.128
-388.033	26.632	0.198	-0.165
-387.019	111.163	-0.102	0.122
-386.004	30.722	-0.152	-0.129
-384.990	-149.912	-0.126	0.010
-383.975	692.411	0.101	-0.262
-382.960	-74.764	0.171	-0.061
-381.946	66.323	-0.151	0.152
-380.931	-79.107	0.188	-0.064
-379.917	146.464	0.222	-0.296
-378.902	-128.928	-0.212	-0.030
-377.888	158.885	-0.192	0.264
-376.873	-54.384	0.268	-0.121
-375.858	-68.697	-0.100	0.039
-374.844	800.000	0.069	-0.219
-373.829	-43.490	-0.145	0.072
-372.815	-8.179	-0.080	0.053
-371.800	303.881	0.140	0.258
-370.785	-200.000	0.058	0.423
-369.771	-55.855	0.171	-0.076
-368.756	-102.842	0.259	-0.061
-367.742	-200.000	-0.021	0.281
-366.727	16.529	-0.029	-0.023
-365.712	219.546	0.119	0.189
-364.698	-20.650	0.106	0.064
-363.683	-24.942	0.408	0.240
-362.669	17.501	-0.282	0.222
-361.654	-96.284	-0.116	-0.030
-360.639	-50.184	0.215	-0.101
-359.625	254.679	-0.201	-0.342
-358.610	213.094	-0.158	0.247
-357.596	-200.000	0.188	0.001
-356.581	-69.894	0.021	-0.008
-355.566	-112.493	-0.321	-0.064
-354.552	-97.423	0.109	-0.028
-353.537	78.686	0.125	0.132
-352.523	-95.980	0.077	0.020
-351.508	800.000	0.051	-0.197
-350.493	436.598	-0.076	0.164
-349.479	126.423	0.063	0.079
-348.464	348.431	-0.025	-0.048
-347.450	-200.000	-0.015	-0.101
-346.435	-100.551	0.105	0.026
-345.420	-55.284	-0.238	-0.106
-344.406	86.784	-0.150	0.164
-343.391	-83.283	-0.180	0.057
-342.377	-151.880	0.247	0.018
-341.362	-38.571	-0.417	0.218
-340.348	-83.821	-0.148	0.047
-339.333	-80.094	-0.105	-0.035
-338.318	13.072	0.140	0.107
-337.304	-128.333	-0.092	0.013
-336.289	-200.000	0.044	-0.253
-335.275	-176.556	0.149	0.004
-334.260	800.000	-0.093	0.354
-333.245	98.483	0.221	0.253
-332.231	-200.000	-0.004	0.094
-331.216	-97.607	0.336	0.086
-330.202	-58.664	0.099	0.043
-329.187	71.167	0.200	-0.205
-328.172	-53.776	0.181	-0.082
-327.158	-149.219	-0.078	0.006
-326.143	30.166	0.047	-0.039
-325.129	-200.000	0.013	0.306
-324.114	-104.183	-0.440	-0.101
-323.099	-85.976	0.260	-0.080
-322.085	65.298	-0.186	-0.186
-321.070	-14.684	0.313	0.199
-320.056	35.148	-0.323	-0.280
-319.041	-120.495	0.188	-0.032
-318.026	-150.303	0.284	-0.022
-317.012	118.862	0.174	-0.213
-315.997	27.382	0.051	0.042
-314.983	-66.215	-0.359	-0.142
-313.968	-122.609	-0.116	0.019
-312.953	-77.296	0.182	0.063
-311.939	665.415	0.086	0.220
-310.924	69.983	0.170	-0.174
-309.910	800.000	-0.076	0.318
-308.895	-145.782	-0.361	0.032
-307.880	-200.000	-0.001	0.133
-306.866	89.664	-0.117	0.129
-305.851	638.379	0.041	0.103
-304.837	800.000	-0.106	0.298
-303.822	-91.671	-0.140	0.039
-302.807	-83.315	0.350	-0.111
-301.793	135.482	-0.158	-0.203
-300.778	189.915	-0.146	-0.217
-299.764	150.578	0.131	0.176
-298.749	-200.000	-0.041	0.215
-297.735	-103.027	-0.043	0.010
-296.720	534.435	0.087	-0.204
-295.705	185.515	-0.252	0.370
-294.691	-200.000	0.026	0.312
-293.676	800.000	0.032	-0.088
-292.662	322.587	-0.156	0.294
-291.647	-82.635	0.273	-0.087
-290.632	-59.660	0.189	-0.080
-289.618	-53.284	-0.099	-0.045
-288.603	-200.000	0.034	-0.534
-287.589	240.314	-0.147	-0.242
-286.574	94.357	-0.240	0.269
-285.559	-200.000	-0.017	-0.090
-284.545	-107.922	-0.292	0.063
-283.530	-8.071	0.099	0.066
-282.516	-87.755	-0.092	-0.027
-281.501	-69.481	0.285	0.108
-280.486	-200.000	0.084	0.423
-279.472	-131.142	0.167	0.022
-278.457	101.676	-0.137	0.158
-277.443	500.054	0.109	0.249
-276.428	93.112	0.332	-0.371
-275.413	800.000	0.093	0.269
-274.399	-69.000	0.093	-0.035
-273.384	306.279	0.194	-0.357
-272.370	-104.594	-0.037	0.008
-271.355	-157.625	0.170	0.010
-270.340	-200.000	0.002	0.100
-269.326	-42.925	0.280	-0.140
-268.311	-200.000	-0.019	-0.205
-267.297	-200.000	-0.028	0.169
-266.282	-95.515	0.347	0.092
-265.267	-39.744	0.225	-0.116
-264.253	-200.000	-0.177	0.001
-263.238	-84.698	-0.176	0.055
-262.224	361.691	-0.072	0.144
-261.209	-59.415	-0.228	-0.097
-260.195	-59.652	0.342	0.145
-259.180	581.968	0.049	0.119
-258.165	11.828	0.190	-0.144
-257.151	639.330	-0.197	0.494
-256.136	14.985	0.364	0.282
-255.122	-12.148	-0.329	0.212
-254.107	-50.379	-0.093	0.043
-253.092	26.882	-0.075	0.062
-252.078	-55.954	-0.229	-0.101
-251.063	-76.335	0.225	-0.078
-250.049	369.652	-0.067	0.134
-249.034	1.259	0.365	0.258
-248.019	-1.977	-0.213	0.148
-247.005	52.830	0.217	0.205
-245.990	47.993	-0.114	0.106
-244.976	-85.801	0.078	-0.024
-243.961	-200.000	-0.008	-0.151
-242.946	23.950	0.097	0.079
-241.932	159.763	0.076	-0.104
-240.917	49.590	0.124	0.115
-239.903	27.765	-0.190	0.158
-238.888	223.957	-0.290	-0.462
-237.873	-87.660	0.204	-0.061
-236.859	264.261	0.122	0.209
-235.844	49.185	-0.200	-0.186
-234.830	541.900	0.010	0.024
-233.815	0.247	-0.107	-0.076
-232.800	111.282	0.177	0.211
-231.786	-64.905	0.189	0.075
-230.771	-45.929	-0.335	-0.163
-229.757	47.750	0.220	0.202
-228.742	169.855	-0.286	0.403
-227.727	-139.403	-0.122	-0.013
-226.713	112.592	0.156	0.186
-225.698	-139.071	-0.291	0.031
-224.684	800.000	0.094	-0.326
-223.669	-81.399	0.031	0.010
-222.655	-200.000	0.014	0.278
-221.640	-200.000	0.001	-0.355
-220.625	-200.000	0.045	0.310
-219.611	800.000	-0.012	-0.037
-218.596	424.360	-0.078	0.166
-217.582	-55.555	0.118	0.052
-216.567	-113.238	0.170	-0.033
-215.552	119.689	-0.231	0.282
-214.538	-200.000	0.001	0.060
-213.523	-49.557	-0.100	0.047
-212.509	-200.000	0.058	-0.294
-211.494	-200.000	-0.020	0.148
-210.479	-87.469	-0.273	-0.081
-209.465	800.000	0.086	-0.305
-208.450	-146.145	-0.276	0.024
-207.436	-106.578	0.170	-0.037
-206.421	-53.891	0.260	0.117
-205.406	-67.978	0.314	0.121
-204.392	-55.724	-0.288	-0.127
-203.377	146.585	0.109	0.144
-202.363	800.000	-0.118	-0.387
-201.348	657.982	0.061	0.155
-200.333	-200.000	-0.038	0.200
-199.319	37.206	0.117	0.102
-198.304	571.245	0.101	0.243
-197.290	800.000	0.043	0.165
-196.275	-42.967	0.330	0.165
-195.260	-200.000	-0.018	0.116
-194.246	-117.008	-0.145	0.026
-193.231	-200.000	0.011	-0.407
-192.217	72.541	-0.265	-0.272
-191.202	9.673	0.045	0.034
-190.187	-172.670	-0.179	-0.006
-189.173	-200.000	0.069	-0.339
-188.158	-177.618	-0.120	-0.003
-187.144	38.880	-0.341	0.300
-186.129	-74.335	0.504	0.179
-185.114	-80.244	0.181	-0.060
-184.100	800.000	0.085	-0.294
-183.085	-39.314	-0.071	-0.037
-182.071	-25.151	0.221	-0.129
-181.056	90.643	0.340	-0.374
-180.042	-67.382	0.098	0.038
-179.027	-149.998	-0.026	-0.002
-178.012	56.420	-0.197	0.189
-176.998	73.459	-0.205	0.211
-175.983	66.498	0.177	0.177
-174.969	-73.603	-0.123	0.044
-173.954	-101.230	-0.246	-0.059
-172.939	-200.000	0.020	-0.428
-171.925	162.207	0.121	0.168
-170.910	-46.625	-0.335	-0.161
-169.896	-111.957	-0.281	0.056
-168.881	-67.392	-0.220	-0.085
-167.866	149.579	-0.206	0.274
-166.852	800.000	-0.008	0.026
-165.837	21.894	-0.146	0.117
-164.823	132.810	-0.095	0.121
-163.808	-0.831	0.059	0.041
-162.793	-49.034	0.438	-0.206
-161.779	326.286	0.128	0.241
-160.764	-133.164	-0.205	-0.026
-159.750	16.989	-0.244	-0.190
-158.735	-200.000	0.040	0.289
-157.720	-83.128	-0.202	0.064
-156.706	-200.000	-0.026	0.271
-155.691	-97.225	-0.024	-0.006
-154.677	168.463	-0.153	-0.214
-153.662	-60.370	-0.054	0.023
-152.647	16.686	-0.094	-0.073
-151.633	160.072	-0.107	-0.146
-150.618	-7.385	-0.082	0.055
-149.604	-55.835	0.190	0.083
-148.589	-200.000	0.014	0.151
-147.574	-43.691	0.210	0.104
-146.560	636.085	-0.051	0.128
-145.545	-54.125	0.195	0.087
-144.531	131.019	0.135	0.170
-143.516	-56.677	-0.062	-0.027
-142.502	-7.871	-0.491	0.326
-141.487	-8.103	0.159	0.105
-140.472	-39.305	-0.224	-0.116
-139.458	-159.030	-0.154	0.009
-138.443	-200.000	0.021	-0.264
-137.429	-10.156	-0.028	-0.018
-136.414	-95.155	0.138	-0.037
-135.399	-26.176	0.260	-0.150
-134.385	-108.884	-0.116	0.024
-133.370	-18.043	-0.098	0.061
-132.356	-129.493	0.329	-0.045
-131.341	-93.939	0.215	-0.058
-130.326	-103.339	-0.125	0.029
-129.312	-200.000	0.024	0.178
-128.297	-200.000	-0.008	-0.183
-127.283	-138.734	-0.393	0.042
-126.268	56.798	0.211	0.202
-125.253	-125.830	-0.224	-0.033
-124.239	-87.556	-0.186	0.055
-123.224	-37.790	-0.139	0.073
-122.210	-200.000	0.019	0.245
-121.195	142.955	0.219	0.287
-120.180	441.762	0.097	0.209
-119.166	84.799	-0.364	0.391
-118.151	576.368	0.142	0.341
-117.137	-107.695	0.131	0.028
-116.122	139.610	-0.158	-0.204
-115.107	304.354	-0.030	-0.054
-114.093	-200.000	-0.182	0.000
-113.078	-6.377	0.066	0.044
-112.064	229.513	-0.065	-0.104
-111.049	144.605	-0.120	-0.157
-110.034	-200.000	-0.006	0.097
-109.020	-157.431	-0.285	0.017
-108.005	-31.872	-0.055	-0.030
-106.991	201.850	0.105	-0.159
-105.976	88.152	-0.025	0.027
-104.962	-62.864	0.146	0.059
-103.947	105.854	0.263	-0.306
-102.932	-133.708	0.069	-0.008
-101.918	-134.420	-0.199	-0.024
-100.903	-65.012	-0.286	-0.113
-99.889	-93.404	-0.130	0.035
-98.874	-94.867	0.217	0.058
-97.859	-69.599	0.079	0.030
-96.845	-92.251	-0.280	-0.078
-95.830	64.105	0.092	-0.091
-94.816	106.958	-0.230	-0.268
-93.801	800.000	-0.100	-0.428
-92.786	-198.282	-0.383	0.002
-91.772	-39.294	0.471	0.243
-90.757	164.903	-0.183	0.254
-89.743	-200.000	-0.050	-0.311
-88.728	-23.853	0.143	0.084
-87.713	-200.000	-0.011	-0.076
-86.699	-37.359	-0.141	0.074
-85.684	628.944	-0.092	0.228
-84.670	-200.000	0.007	0.041
-83.655	-50.949	0.156	0.072
-82.640	139.226	-0.171	-0.220
-81.626	22.665	0.266	-0.214
-80.611	-89.985	-0.120	-0.034
-79.597	41.368	-0.060	0.053
-78.582	-200.000	-0.057	-0.537
-77.567	800.000	0.064	0.251
-76.553	-73.890	-0.109	0.039
-75.538	-50.090	0.204	-0.095
-74.524	-200.000	-0.008	-0.077
-73.509	421.881	0.117	-0.246
-72.494	102.035	0.124	-0.141
-71.480	-200.000	0.006	0.074
-70.465	-200.000	-0.008	-0.143
-69.451	365.777	-0.102	-0.201
-68.436	-200.000	0.017	-0.341
-67.422	44.428	-0.128	0.115
-66.407	34.543	-0.261	0.223
-65.392	68.890	-0.153	-0.154
-64.378	285.528	0.124	-0.220
-63.363	-142.307	0.053	0.005
-62.349	800.000	-0.124	0.339
-61.334	157.222	-0.984	-1.333
-60.319	231.070	0.493	0.791
-59.305	800.000	-0.310	-1.229
-58.290	329.327	0.631	1.188
-57.276	-200.000	0.289	1.713
-56.261	-200.000	106.581	619.300
-55.246	513.915	1513.751	3458.786
-54.232	176.042	2704.633	3845.978
-53.217	110.076	2185.208	2569.157
-52.203	39.903	1706.664	1500.981
-51.188	32.378	1518.423	1284.245
-50.173	30.059	1491.791	1246.094
-49.159	51.108	1548.030	1437.949
-48.144	51.250	1564.476	1454.142
-47.130	32.562	1520.369	1286.947
-46.115	29.522	1505.443	1253.658
-45.100	29.331	1502.200	1249.611
-44.086	29.317	1499.760	1247.438
-43.071	29.264	1497.402	1245.068
-42.057	29.161	1495.925	1243.091
-41.042	29.249	1494.577	1242.516
-40.027	29.268	1493.239	1241.485
-39.013	29.286	1491.426	1240.051
-37.998	29.236	1490.285	1238.714
-36.984	29.244	1489.193	1237.815
-35.969	29.220	1487.443	1236.151
-34.954	29.241	1486.178	1235.184
-33.940	29.086	1485.361	1233.422
-32.925	29.189	1483.671	1232.656
-31.911	29.356	1482.007	1232.342
-30.896	29.274	1481.193	1231.066
-29.881	29.329	1479.803	1230.232
-28.867	29.307	1478.956	1229.332
-27.852	29.279	1477.271	1227.694
-26.838	29.335	1475.783	1226.784
-25.823	29.273	1474.532	1225.281
-24.809	29.304	1472.626	1223.854
-23.794	29.351	1471.254	1222.981
-22.779	29.249	1470.566	1221.683
-21.765	29.391	1468.469	1220.831
-20.750	29.271	1468.186	1219.755
-19.736	29.378	1466.792	1219.256
-18.721	29.288	1465.681	1217.692
-17.706	29.182	1464.753	1216.169
-16.692	29.282	1463.461	1215.709
-15.677	29.242	1462.713	1214.773
-14.663	29.202	1461.855	1213.752
-13.648	29.245	1460.328	1212.715
-12.633	29.251	1459.528	1212.044
-11.619	29.239	1459.241	1211.678
-10.604	29.123	1458.268	1210.064
-9.590	29.275	1457.211	1210.136
-8.575	29.281	1456.145	1209.242
-7.560	29.173	1455.846	1208.232
-6.546	29.268	1454.301	1207.527
-5.531	29.092	1454.094	1206.154
-4.517	29.055	1453.112	1205.049
-3.502	29.218	1451.424	1204.670
-2.487	29.211	1450.721	1203.994
-1.473	29.168	1449.819	1202.917
-0.458	29.248	1448.223	1202.067
0.556	26.858	1438.794	1191.214
1.571	24.016	1413.363	1151.697
2.586	20.830	1354.409	1083.765
3.600	19.384	1273.901	1010.786
4.615	18.249	1230.046	969.476
5.629	15.970	1174.419	913.208
6.644	7.836	1091.207	807.308
7.659	0.897	1051.138	743.588
8.673	-0.188	1045.115	733.961
9.688	-0.194	1041.831	731.561
10.702	-0.398	1040.214	729.370
11.717	-0.459	1038.738	727.973
12.731	2.834	1041.989	746.217
13.746	11.442	1054.204	797.087
14.761	18.109	1062.998	836.387
15.775	20.260	1064.659	848.150
16.790	20.503	1064.131	848.839
17.804	20.326	1063.468	847.373
18.819	20.229	1062.511	846.062
19.834	20.206	1062.511	845.877
20.848	20.283	1061.803	845.610
21.863	20.362	1061.602	845.763
22.877	20.364	1060.808	845.063
23.892	20.496	1060.193	845.143
24.907	20.203	1059.335	842.957
25.921	20.261	1058.993	842.894
26.936	20.319	1057.982	842.297
27.950	20.274	1056.959	841.188
28.965	20.340	1055.467	840.247
29.980	20.137	1054.138	838.132
30.994	20.127	1052.136	836.421
32.009	20.224	1051.455	836.269
33.023	20.488	1051.116	837.200
34.038	20.189	1049.938	834.747
35.053	20.240	1048.930	834.120
36.067	20.288	1048.585	833.999
37.082	20.354	1047.593	833.454
38.096	20.411	1046.967	833.159
39.111	20.586	1045.922	833.091
40.126	20.584	1045.364	832.563
41.140	20.568	1043.818	831.179
42.155	20.246	1042.294	828.359
43.169	20.106	1040.945	826.543
44.184	20.093	1039.882	825.564
45.199	20.186	1038.801	825.075
46.213	20.116	1037.783	823.860
47.228	20.012	1036.731	822.461
48.242	20.047	1036.422	822.308
49.257	20.177	1035.439	822.070
50.271	20.273	1034.792	821.938
51.286	20.336	1034.255	821.738
52.301	20.409	1032.525	820.635
53.315	20.356	1032.766	820.506
54.330	20.357	1031.697	819.586
55.344	20.283	1030.678	818.356
56.359	20.306	1029.870	817.751
57.374	20.328	1028.625	816.795
58.388	20.144	1027.735	815.151
59.403	20.052	1026.927	814.006
60.417	20.195	1025.919	813.804
61.432	20.117	1025.063	812.689
62.447	20.071	1024.282	811.782
63.461	20.184	1023.916	811.948
64.476	20.255	1022.860	811.373
65.490	20.209	1022.391	810.714
66.505	20.121	1021.370	809.420
67.520	20.165	1020.458	808.830
68.534	20.148	1019.722	808.096
69.549	20.157	1018.705	807.259
70.563	19.911	1017.063	804.745
71.578	19.723	1016.428	803.297
72.593	19.771	1015.932	803.058
73.607	19.606	1014.875	801.384
74.622	19.581	1013.851	800.393
75.636	19.937	1013.168	801.429
76.651	20.029	1012.010	800.869
77.666	19.858	1011.380	799.507
78.680	19.764	1010.457	798.274
79.695	19.866	1009.540	797.950
80.709	19.979	1009.170	798.107
81.724	20.072	1008.433	797.880
82.739	20.053	1007.054	796.631
83.753	20.122	1006.531	796.464
84.768	20.282	1005.623	796.412
85.782	20.384	1005.391	796.624
86.797	20.702	1004.189	797.057
87.812	20.486	1004.092	795.923
88.826	20.463	1002.598	794.563
89.841	20.391	1001.989	793.679
90.855	20.566	1000.595	793.306
91.870	20.618	999.714	792.773
92.884	20.568	999.112	791.997
93.899	20.571	997.919	790.993
94.914	20.306	997.256	789.196
95.928	20.402	996.378	788.865
96.943	20.404	995.693	788.262
97.957	20.303	994.136	786.505
98.972	20.149	992.996	784.835
99.987	19.837	992.046	782.606
101.001	19.879	991.453	782.255
102.016	20.081	991.326	783.001
103.030	20.312	990.041	782.957
104.045	20.117	989.228	781.368
105.060	20.159	987.637	780.231
106.074	19.967	986.544	778.433
107.089	19.997	985.703	777.836
108.103	20.251	985.758	778.951
109.118	20.446	984.832	779.026
110.133	20.052	983.590	776.209
111.147	19.996	982.776	775.247
112.162	19.985	981.126	773.829
113.176	19.703	980.346	771.887
114.191	20.028	979.321	772.459
115.206	20.055	978.466	771.835
116.220	19.648	977.426	769.138
117.235	19.583	976.326	767.914
118.249	19.744	975.929	768.252
119.264	19.844	974.684	767.646
120.279	19.702	973.930	766.353
121.293	19.673	973.312	765.672
122.308	19.835	972.294	765.520
123.322	19.916	971.168	764.922
124.337	19.876	970.063	763.808
125.352	19.751	968.858	762.242
126.366	19.328	966.937	758.803
127.381	19.015	965.890	756.538
128.395	19.519	965.762	758.583
129.410	20.153	965.292	760.931
130.424	20.344	963.912	760.616
131.439	20.301	962.817	759.495
132.454	20.342	961.876	758.866
133.468	20.246	961.350	757.961
134.483	20.144	960.400	756.700
135.497	20.206	959.630	756.296
136.512	20.377	959.227	756.657
137.527	20.523	958.257	756.463
138.541	20.611	956.945	755.743
139.556	20.443	956.704	754.754
140.570	20.374	956.138	753.943
141.585	20.521	955.038	753.648
142.600	20.459	954.638	752.995
143.614	20.330	953.745	751.667
144.629	20.532	952.588	751.562
145.643	20.792	952.066	752.204
146.658	20.659	950.824	750.584
147.673	20.417	949.946	748.780
148.687	20.413	948.577	747.618
149.702	20.351	947.732	746.618
150.716	20.336	946.369	745.417
151.731	20.220	945.625	744.265
152.746	20.301	945.176	744.195
153.760	20.631	944.075	744.673
154.775	20.710	943.449	744.453
155.789	20.722	942.318	743.545
156.804	20.680	941.327	742.517
157.819	20.714	940.037	741.579
158.833	20.586	940.045	740.973
159.848	20.623	939.342	740.511
160.862	20.653	938.301	739.754
161.877	20.559	937.444	738.616
162.892	20.581	936.618	737.993
163.906	20.694	936.179	738.060
164.921	20.602	935.525	737.087
165.935	20.618	934.239	736.080
166.950	20.616	933.431	735.370
167.964	20.769	931.451	734.389
168.979	20.595	931.268	733.447
169.994	20.493	929.799	731.793
171.008	20.416	928.926	730.720
172.023	20.593	928.270	730.883
173.037	20.736	927.135	730.524
174.052	20.444	926.501	728.735
175.067	20.256	925.463	727.068
176.081	20.360	924.382	726.589
177.096	20.433	923.878	726.433
178.110	20.488	923.373	726.199
179.125	20.299	921.833	724.137
180.140	20.085	920.788	722.359
181.154	20.207	919.761	721.998
182.169	20.202	919.603	721.789
183.183	20.289	919.280	721.833
184.198	20.538	919.263	722.793
185.213	20.588	917.546	721.588
186.227	20.480	917.241	720.834
187.242	20.619	917.019	721.173
188.256	20.693	916.154	720.736
189.271	20.674	915.221	719.859
190.286	20.791	914.519	719.728
191.300	20.703	912.956	718.069
192.315	20.075	912.174	714.803
193.329	19.475	910.830	711.213
194.344	19.221	909.575	709.126
195.359	19.728	909.923	711.421
196.373	20.285	910.724	714.278
197.388	20.799	909.572	715.424
198.402	20.388	909.516	713.625
199.417	20.508	908.319	713.117
200.432	20.520	908.221	713.024
201.446	20.478	907.290	712.062
202.461	20.063	906.669	709.810
203.475	20.280	905.884	710.018
204.490	19.634	904.788	706.459
205.504	18.550	902.512	700.193
206.519	19.092	902.637	702.441
207.534	20.054	902.870	706.484
208.548	20.102	902.511	706.337
209.563	20.499	902.114	707.583
210.577	20.626	900.919	707.100
211.592	20.267	900.466	705.222
212.607	20.706	900.489	706.959
213.621	20.670	899.903	706.291
214.636	20.584	898.820	705.030
215.650	20.701	898.526	705.211
216.665	20.491	898.491	704.269
217.680	20.749	897.411	704.406
218.694	20.725	897.059	703.970
219.709	20.366	896.122	701.722
220.723	20.111	895.148	699.867
221.738	20.349	894.122	699.964
222.753	20.609	893.612	700.549
223.767	20.413	893.150	699.339
224.782	20.586	892.502	699.462
225.796	20.784	892.028	699.827
226.811	20.812	891.655	699.586
227.826	20.376	890.275	696.692
228.840	19.709	888.792	692.797
229.855	19.638	888.298	692.066
230.869	19.772	887.926	692.248
231.884	19.479	886.898	690.217
232.899	19.625	886.342	690.305
233.913	20.400	886.498	693.463
234.928	20.635	886.125	694.046
235.942	20.412	885.424	692.546
236.957	20.587	884.829	692.716
237.972	20.310	883.486	690.501
238.986	20.145	883.263	689.612
240.001	20.401	882.492	689.965
241.015	20.307	881.809	688.996
242.030	20.289	881.290	688.460
243.045	20.492	880.315	688.442
244.059	20.523	880.338	688.520
245.074	20.632	879.576	688.295
246.088	20.651	878.391	687.382
247.103	20.284	877.898	685.486
248.117	20.169	877.004	684.274
249.132	20.648	877.415	686.423
250.147	21.225	876.737	688.109
251.161	21.100	876.145	687.090
252.176	21.298	875.567	687.353
253.190	21.322	875.069	686.999
254.205	21.405	874.388	686.727
255.220	21.491	874.238	686.888
256.234	21.490	873.370	686.139
257.249	21.499	872.577	685.491
258.263	21.299	872.046	684.229
259.278	21.355	871.347	683.841
260.293	21.419	871.209	683.923
261.307	21.646	870.226	683.978
262.322	21.280	870.141	682.420
263.336	21.313	868.382	681.110
264.351	20.752	867.301	678.015
265.366	19.470	865.898	671.870
266.380	19.311	864.620	670.203
267.395	20.256	865.093	674.185
268.409	21.020	865.030	677.043
269.424	20.842	864.835	676.141
270.439	21.000	864.346	676.311
271.453	21.019	863.871	675.951
272.468	21.140	863.056	675.724
273.482	21.211	862.594	675.575
274.497	21.348	862.155	675.702
275.512	21.372	860.843	674.707
276.526	20.759	859.238	671.025
277.541	21.014	859.382	672.064
278.555	21.239	859.099	672.650
279.570	21.105	857.988	671.203
280.585	20.866	856.960	669.422
281.599	21.002	856.445	669.484
282.614	21.150	856.132	669.745
283.628	20.653	855.048	666.934
284.643	20.387	854.144	665.153
285.657	20.814	854.128	666.715
286.672	20.690	853.245	665.493
287.687	20.155	852.495	662.804
288.701	20.554	852.472	664.254
289.716	20.885	852.200	665.248
290.730	20.528	851.473	663.256
291.745	20.376	850.471	661.841
292.760	20.308	849.475	660.747
293.774	20.256	848.639	659.839
294.789	21.134	849.465	663.766
295.803	21.622	849.576	665.649
296.818	21.749	848.855	665.506
297.833	21.779	848.559	665.331
298.847	21.431	847.270	662.942
299.862	21.256	846.262	661.432
300.876	21.283	845.803	661.117
301.891	21.565	845.536	661.914
302.906	21.847	844.616	662.201
303.920	21.361	843.790	659.661
304.935	21.166	843.219	658.420
305.949	21.579	842.906	659.677
306.964	21.693	842.291	659.564
307.979	21.468	841.534	658.069
308.993	21.431	841.320	657.704
310.008	21.697	841.377	658.690
311.022	21.800	840.552	658.374
312.037	21.578	840.230	657.229
313.052	21.415	839.495	655.983
314.066	21.374	838.460	654.963
315.081	20.752	836.938	651.389
316.095	19.947	835.984	647.581
317.110	20.568	836.082	649.923
318.125	21.395	836.181	653.030
319.139	21.037	835.038	650.744
320.154	19.955	833.430	645.401
321.168	19.593	832.838	643.538
322.183	20.168	832.910	645.679
323.197	21.080	833.160	649.210
324.212	21.331	832.809	649.813
325.227	21.503	832.305	650.001
326.241	21.410	832.498	649.749
327.256	21.424	831.395	648.884
328.270	21.293	830.667	647.773
329.285	21.253	830.172	647.180
330.300	21.309	828.910	646.347
331.314	20.939	828.439	644.554
332.329	21.070	827.804	644.486
333.343	21.258	827.979	645.261
334.358	21.548	827.444	645.856
335.373	21.574	826.708	645.320
336.387	21.693	825.743	644.949
337.402	21.786	825.912	645.365
338.416	21.877	825.252	645.128
339.431	22.084	824.548	645.280
340.446	21.931	824.253	644.430
341.460	22.085	823.650	644.468
342.475	22.005	823.029	643.632
343.489	21.889	822.364	642.631
344.504	21.966	821.535	642.208
345.519	22.226	821.213	642.851
346.533	22.427	821.344	643.631
347.548	22.465	820.229	642.838
348.562	22.323	820.055	642.125
349.577	22.346	819.741	641.906
350.592	22.429	819.090	641.643
351.606	22.512	818.379	641.332
352.621	22.448	818.203	640.904
353.635	22.099	817.759	639.230
354.650	22.163	817.022	638.828
355.665	21.936	815.709	636.925
356.679	20.777	814.638	631.828
357.694	20.664	814.107	630.950
358.708	21.246	813.983	632.909
359.723	21.237	813.341	632.320
360.738	21.578	813.087	633.301
361.752	21.896	813.078	634.386
362.767	22.195	812.206	634.732
363.781	22.337	812.290	635.254
364.796	22.509	812.230	635.771
365.810	22.676	811.746	635.938
366.825	22.617	811.507	635.482
367.840	22.578	811.112	634.976
368.854	22.641	809.752	634.081
369.869	22.079	809.392	631.722
370.883	22.047	808.722	631.027
371.898	22.075	808.219	630.681
372.913	22.012	807.231	629.629
373.927	21.972	806.541	628.893
374.942	22.213	806.114	629.366
375.956	22.335	805.724	629.442
376.971	22.311	805.515	629.138
377.986	22.478	804.696	629.040
379.000	22.591	804.556	629.274
380.015	22.530	803.910	628.496
381.029	22.518	803.202	627.844
382.044	22.522	802.603	627.336
383.059	22.596	802.126	627.172
384.073	22.761	801.637	627.320
385.088	22.721	801.231	626.804
386.102	22.656	800.489	625.939
387.117	22.609	800.077	625.394
388.132	22.482	799.373	624.337
389.146	22.233	798.896	623.026
390.161	21.671	797.898	620.205
391.175	21.833	797.511	620.424
392.190	22.159	797.782	621.734
393.205	22.244	796.822	621.230
394.219	21.493	795.241	617.294
395.234	19.895	793.111	609.959
396.248	19.190	791.952	606.529
397.263	20.213	793.208	611.044
398.278	22.168	794.034	618.512
399.292	22.424	794.059	619.379
400.307	22.040	793.602	617.617
401.321	21.937	793.047	616.771
402.336	22.100	792.742	617.049
403.350	22.308	792.955	617.893
404.365	22.741	792.548	619.040
405.380	23.020	792.301	619.770
406.394	23.420	791.879	620.785
407.409	23.394	791.640	620.454
408.423	23.468	790.835	620.026
409.438	23.248	790.371	618.837
410.453	23.327	790.109	618.855
411.467	23.314	789.749	618.472
412.482	23.318	788.978	617.828
413.496	23.341	788.398	617.399
414.511	23.361	788.454	617.458
415.526	23.337	788.044	617.000
416.540	23.385	787.461	616.654
417.555	23.229	786.787	615.531
418.569	23.062	785.892	614.195
419.584	22.965	785.581	613.560
420.599	22.936	785.454	613.308
421.613	157.856	1364.159	1799.806
422.628	136.570	1448.436	1799.885
