DTS Sentinel unit serial number:	SN413079Multiplexer serial number:	ORYXHardware model number:	OX4-SRSoftware version number:	ORYX F/W v4.00 Oryx Data Collector v3.7.2.0data status	okinstallation	princeton_trtdifferential loss correction	single-endedforward channel	channel 3reverse channel	N/Adate	2019/09/12time	01:58:10forward acquisition time	60.00reverse acquisition time	0.00gamma	496.2192k internal	0.2320k external	0.2320temperature offset calibration	1.0065default loss term (dB/km)	0.3790temperature slope calibration	1.0000multiplexer offset coefficient	1.0000multiplexer slope coefficient	1.0000fibre end	0.00T internal ref (°C)	32.77T ext. ref 1 (°C)	2.06T ext. ref 2 (°C)	27.40length (m)	temperature (°C)	Stokes	anti-Stokes-747.200	322.459	-0.108	-0.208
-746.185	33.356	-0.177	0.155
-745.171	800.000	-0.063	-0.197
-744.156	-200.000	0.017	0.506
-743.142	38.952	-0.119	0.107
-742.127	215.320	-0.144	0.231
-741.112	-88.441	-0.057	0.017
-740.098	-200.000	-0.026	0.116
-739.083	198.411	0.113	-0.174
-738.069	-122.988	-0.234	0.038
-737.054	-37.650	0.066	-0.035
-736.039	103.635	-0.064	-0.076
-735.025	69.194	0.089	0.092
-734.010	-52.071	0.123	-0.058
-732.996	788.082	0.090	-0.249
-731.981	-16.114	-0.050	0.032
-730.966	-153.855	-0.288	-0.020
-729.952	-141.194	-0.287	0.030
-728.937	-143.419	-0.091	-0.009
-727.923	-200.000	-0.020	0.327
-726.908	800.000	-0.161	-0.573
-725.894	800.000	-0.050	-0.203
-724.879	31.444	0.164	-0.143
-723.864	718.230	0.127	0.341
-722.850	-200.000	-0.026	-0.169
-721.835	-200.000	0.012	0.187
-720.821	30.184	-0.370	0.319
-719.806	-186.674	-0.191	0.003
-718.791	196.517	-0.131	0.201
-717.777	52.799	0.111	-0.107
-716.762	-144.122	0.218	0.021
-715.748	-9.494	-0.123	0.083
-714.733	-138.521	-0.411	0.046
-713.718	-200.000	-0.053	-0.314
-712.704	-100.288	-0.280	-0.070
-711.689	165.976	0.146	-0.208
-710.675	-97.798	0.139	0.036
-709.660	24.219	-0.272	0.227
-708.645	800.000	0.053	0.196
-707.631	-200.000	0.006	0.121
-706.616	800.000	0.036	0.145
-705.602	-107.687	0.219	0.048
-704.587	800.000	0.060	-0.228
-703.572	-117.471	0.302	-0.055
-702.558	-73.534	-0.376	0.139
-701.543	-70.913	-0.091	0.034
-700.529	-137.758	0.237	0.027
-699.514	-54.970	-0.297	0.135
-698.499	3.422	0.271	0.199
-697.485	28.221	0.215	-0.183
-696.470	131.943	0.038	0.049
-695.456	0.733	0.058	-0.042
-694.441	107.843	-0.267	-0.321
-693.426	188.138	-0.205	-0.310
-692.412	281.602	-0.063	0.113
-691.397	103.166	0.228	-0.270
-690.383	800.000	-0.034	-0.128
-689.368	-200.000	-0.008	-0.350
-688.354	-200.000	-0.035	-0.246
-687.339	88.827	-0.194	0.218
-686.324	116.269	-0.162	0.200
-685.310	13.960	-0.159	-0.125
-684.295	800.000	0.130	-0.368
-683.281	-66.366	0.205	0.082
-682.266	89.132	0.126	-0.142
-681.251	800.000	-0.091	0.378
-680.237	-113.383	0.087	-0.017
-679.222	43.441	0.127	-0.117
-678.208	800.000	0.045	-0.129
-677.193	-200.000	-0.005	0.210
-676.178	-38.449	-0.207	0.110
-675.164	160.236	-0.210	0.295
-674.149	79.123	0.054	-0.058
-673.135	800.000	-0.059	-0.208
-672.120	-4.815	0.071	-0.050
-671.105	59.493	-0.103	-0.102
-670.091	-62.834	0.202	0.084
-669.076	-200.000	-0.019	-0.269
-668.062	-200.000	-0.046	-0.247
-667.047	800.000	-0.072	-0.230
-666.032	-164.477	0.291	-0.013
-665.018	128.353	0.189	-0.243
-664.003	-107.492	-0.152	0.033
-662.989	-54.280	-0.107	0.049
-661.974	800.000	-0.078	-0.296
-660.959	-200.000	0.038	-0.175
-659.945	-5.616	-0.452	-0.312
-658.930	-116.137	-0.302	0.057
-657.916	207.700	0.159	-0.251
-656.901	587.641	0.031	-0.077
-655.886	385.056	-0.088	-0.184
-654.872	10.966	-0.145	-0.112
-653.857	-92.852	-0.143	0.040
-652.843	-200.000	-0.039	0.173
-651.828	800.000	-0.059	0.256
-650.814	16.583	-0.087	0.069
-649.799	-2.637	-0.102	0.072
-648.784	65.026	-0.199	-0.203
-647.770	190.145	0.119	0.179
-646.755	-113.006	-0.293	-0.058
-645.741	12.433	-0.203	0.158
-644.726	800.000	-0.046	-0.194
-643.711	-102.949	-0.235	0.056
-642.697	-123.320	-0.196	0.031
-641.682	743.634	0.018	-0.050
-640.668	-119.720	0.078	0.014
-639.653	-139.770	-0.231	0.025
-638.638	-131.797	-0.215	0.028
-637.624	-17.263	-0.046	0.029
-636.609	126.840	-0.091	0.116
-635.595	-27.164	-0.035	-0.021
-634.580	172.984	-0.036	0.052
-633.565	124.823	-0.073	0.093
-632.551	-66.074	0.225	0.090
-631.536	800.000	-0.080	-0.279
-630.522	-73.974	-0.291	-0.106
-629.507	-136.482	-0.143	0.017
-628.492	-200.000	0.005	0.271
-627.478	800.000	0.117	-0.419
-626.463	-122.410	0.059	0.010
-625.449	11.011	-0.081	-0.062
-624.434	-100.438	-0.269	-0.067
-623.419	800.000	0.055	0.182
-622.405	-35.733	0.191	0.104
-621.390	-36.853	-0.182	-0.099
-620.376	727.457	-0.083	0.222
-619.361	-103.636	-0.056	-0.013
-618.346	-67.442	-0.134	0.053
-617.332	-0.636	-0.311	0.222
-616.317	377.048	0.099	-0.204
-615.303	-144.258	-0.293	-0.027
-614.288	300.409	-0.095	0.176
-613.273	-117.182	-0.476	0.087
-612.259	16.331	0.091	0.073
-611.244	178.009	0.169	-0.248
-610.230	167.100	0.051	0.072
-609.215	23.511	-0.125	-0.104
-608.201	48.313	0.134	0.126
-607.186	-158.263	0.219	0.013
-606.171	240.394	0.056	-0.095
-605.157	-200.000	-0.035	0.237
-604.142	-109.544	-0.397	-0.084
-603.128	-44.405	0.220	0.111
-602.113	221.160	-0.130	-0.209
-601.098	800.000	-0.151	-0.524
-600.084	-166.940	-0.319	-0.013
-599.069	84.181	-0.150	-0.165
-598.055	56.779	-0.231	0.226
-597.040	-40.618	-0.074	-0.039
-596.025	-73.289	-0.250	0.092
-595.011	497.219	0.018	-0.041
-593.996	-5.159	0.108	0.075
-592.982	-45.404	-0.172	0.086
-591.967	-200.000	-0.015	0.232
-590.952	240.001	0.086	-0.144
-589.938	-78.269	0.282	-0.097
-588.923	-119.595	-0.033	0.006
-587.909	-122.967	0.123	0.020
-586.894	51.575	-0.024	0.023
-585.879	240.549	0.066	0.111
-584.865	-152.957	-0.405	0.029
-583.850	80.949	0.074	0.080
-582.836	-10.930	-0.090	0.060
-581.821	720.477	0.088	0.234
-580.806	124.186	0.296	0.374
-579.792	463.089	-0.060	0.135
-578.777	-44.902	-0.181	0.090
-577.763	800.000	-0.104	0.381
-576.748	800.000	0.101	0.332
-575.733	-73.061	-0.117	-0.043
-574.719	-41.651	-0.164	-0.084
-573.704	800.000	0.145	0.453
-572.690	126.874	-0.172	0.219
-571.675	-104.655	0.156	0.036
-570.661	28.283	-0.326	0.277
-569.646	339.736	-0.101	0.198
-568.631	-38.564	0.174	-0.093
-567.617	19.643	0.039	0.031
-566.602	-88.847	0.168	0.050
-565.588	800.000	-0.064	-0.257
-564.573	-101.158	-0.338	0.083
-563.558	-16.161	-0.148	0.095
-562.544	800.000	-0.040	-0.167
-561.529	-120.314	0.114	0.019
-560.515	520.933	0.045	-0.106
-559.500	800.000	-0.103	0.313
-558.485	-191.633	-0.264	0.003
-557.471	-200.000	-0.060	0.277
-556.456	671.440	0.034	0.088
-555.442	-135.586	0.156	-0.019
-554.427	-88.179	0.210	-0.063
-553.412	66.086	-0.293	-0.299
-552.398	-200.000	0.000	-0.102
-551.383	800.000	-0.027	0.086
-550.369	-200.000	-0.036	0.309
-549.354	-200.000	-0.022	-0.166
-548.339	238.103	0.067	-0.112
-547.325	-200.000	-0.024	-0.257
-546.310	127.254	0.064	0.082
-545.296	-131.506	-0.277	0.037
-544.281	160.221	-0.085	0.118
-543.266	-200.000	0.433	0.000
-542.252	-200.000	0.006	0.242
-541.237	-158.694	0.053	-0.003
-540.223	-22.526	-0.167	-0.101
-539.208	436.694	-0.021	0.047
-538.193	-129.458	0.312	0.043
-537.179	-37.889	0.323	0.173
-536.164	-144.944	0.433	0.040
-535.150	-200.000	0.031	-0.168
-534.135	19.392	-0.147	-0.119
-533.121	-200.000	-0.014	0.102
-532.106	-43.080	0.223	-0.113
-531.091	309.262	0.208	-0.390
-530.077	266.251	0.115	-0.201
-529.062	-200.000	0.043	0.413
-528.048	-169.476	0.147	-0.005
-527.033	-49.662	-0.169	-0.081
-526.018	800.000	-0.086	-0.369
-525.004	517.032	-0.107	0.251
-523.989	32.948	-0.271	-0.236
-522.975	176.418	0.091	0.133
-521.960	-31.551	0.340	-0.191
-520.945	43.202	0.152	0.139
-519.931	-163.351	-0.098	0.005
-518.916	59.215	-0.183	-0.181
-517.902	-119.203	0.121	-0.021
-516.887	-33.872	0.279	0.154
-515.872	242.587	-0.104	0.174
-514.858	123.038	0.130	0.163
-513.843	-19.375	0.212	0.132
-512.829	-120.668	0.237	0.040
-511.814	-56.179	-0.025	0.011
-510.799	800.000	0.051	-0.148
-509.785	32.080	-0.109	-0.094
-508.770	59.059	0.216	-0.213
-507.756	-135.318	-0.121	-0.015
-506.741	-33.041	-0.212	0.118
-505.726	-130.148	0.154	-0.021
-504.712	489.735	0.127	0.292
-503.697	-26.567	0.120	0.070
-502.683	-111.732	-0.199	-0.040
-501.668	-124.168	-0.152	-0.024
-500.653	48.744	0.372	-0.349
-499.639	-141.907	-0.248	-0.025
-498.624	8.928	0.168	-0.127
-497.610	-200.000	-0.078	0.566
-496.595	-158.804	0.400	0.023
-495.581	-75.847	0.184	0.065
-494.566	-161.509	-0.342	-0.018
-493.551	683.911	-0.033	0.086
-492.537	-200.000	-0.019	-0.269
-491.522	83.870	-0.126	-0.138
-490.508	138.693	-0.182	-0.239
-489.493	-33.438	0.248	0.137
-488.478	65.829	0.054	-0.055
-487.464	-6.545	-0.035	-0.024
-486.449	305.375	-0.140	-0.261
-485.435	800.000	0.048	-0.197
-484.420	175.269	-0.134	0.195
-483.405	-200.000	0.089	-0.486
-482.391	-125.018	-0.271	0.042
-481.376	-158.257	0.310	-0.018
-480.362	48.032	-0.181	0.169
-479.347	34.726	0.081	0.071
-478.332	338.382	-0.109	0.213
-477.318	-159.214	-0.111	-0.006
-476.303	-58.720	-0.119	-0.051
-475.289	-15.791	-0.321	0.205
-474.274	-200.000	0.000	-0.071
-473.259	-152.059	-0.183	0.013
-472.245	-50.113	0.355	-0.168
-471.230	-68.163	0.148	-0.058
-470.216	800.000	-0.020	0.086
-469.201	-200.000	-0.062	-0.335
-468.186	-200.000	-0.028	-0.129
-467.172	164.795	-0.275	0.388
-466.157	214.295	-0.043	-0.069
-465.143	-83.389	-0.296	0.095
-464.128	-104.391	-0.075	-0.017
-463.113	800.000	0.038	0.162
-462.099	800.000	-0.065	0.255
-461.084	-200.000	-0.016	-0.076
-460.070	331.163	0.049	-0.094
-459.055	-200.000	0.045	-0.255
-458.040	24.063	-0.235	0.194
-457.026	-160.146	-0.180	0.010
-456.011	-200.000	0.045	0.307
-454.997	-200.000	-0.013	-0.070
-453.982	800.000	0.072	-0.199
-452.968	-81.562	-0.288	-0.095
-451.953	576.316	-0.009	0.023
-450.938	-200.000	0.015	-0.136
-449.924	-161.819	0.048	0.002
-448.909	-89.599	0.435	-0.128
-447.895	-118.402	0.115	-0.020
-446.880	-200.000	-0.012	-0.073
-445.865	-157.297	0.159	-0.010
-444.851	334.666	0.100	-0.193
-443.836	37.184	0.110	0.097
-442.822	-34.467	0.127	-0.069
-441.807	-137.233	-0.173	-0.020
-440.792	-68.167	0.335	0.130
-439.778	39.463	-0.099	-0.089
-438.763	401.120	0.152	-0.319
-437.749	-200.000	0.042	-0.260
-436.734	-187.697	-0.031	0.000
-435.719	-38.567	0.022	-0.011
-434.705	155.252	0.029	-0.040
-433.690	310.165	-0.112	0.209
-432.676	-61.355	0.094	0.039
-431.661	143.064	0.173	-0.229
-430.646	66.965	-0.087	-0.088
-429.632	67.808	-0.311	0.317
-428.617	800.000	0.064	0.185
-427.603	-94.643	-0.103	-0.028
-426.588	100.354	-0.072	0.083
-425.573	82.978	0.100	0.108
-424.559	112.147	-0.241	-0.291
-423.544	-180.770	-0.177	0.004
-422.530	-12.013	0.034	-0.022
-421.515	-49.796	0.039	0.019
-420.500	-4.845	0.331	-0.228
-419.486	-110.976	-0.192	-0.039
-418.471	46.766	-0.141	-0.131
-417.457	87.938	0.280	-0.310
-416.442	69.475	-0.074	0.076
-415.428	-200.000	-0.000	0.220
-414.413	-200.000	-0.007	0.041
-413.398	-51.461	-0.122	0.057
-412.384	-200.000	0.019	0.228
-411.369	57.435	0.246	-0.240
-410.355	-0.573	-0.193	0.137
-409.340	75.505	-0.314	-0.331
-408.325	-179.245	0.222	-0.005
-407.311	120.665	-0.201	0.249
-406.296	198.951	-0.030	-0.046
-405.282	-62.414	-0.118	0.049
-404.267	43.565	-0.159	-0.145
-403.252	99.033	0.234	-0.270
-402.238	259.336	-0.241	-0.415
-401.223	-82.173	0.272	0.089
-400.209	30.068	-0.181	0.154
-399.194	167.909	0.138	-0.196
-398.179	-200.000	-0.098	-0.483
-397.165	800.000	-0.022	0.069
-396.150	-141.866	-0.370	0.037
-395.136	76.098	0.200	0.211
-394.121	-62.719	0.031	-0.013
-393.106	-150.688	0.140	-0.011
-392.092	-36.324	-0.038	-0.021
-391.077	-7.526	-0.359	-0.242
-390.063	-41.096	-0.151	-0.078
-389.048	1.059	0.306	0.219
-388.033	370.788	0.164	0.332
-387.019	19.340	0.210	0.168
-386.004	-182.560	0.310	-0.006
-384.990	-4.683	-0.047	-0.032
-383.975	25.813	-0.465	0.386
-382.960	-192.171	0.088	-0.001
-381.946	588.188	0.054	0.132
-380.931	755.768	-0.079	-0.214
-379.917	95.996	-0.111	0.126
-378.902	-80.274	0.405	-0.135
-377.888	-25.678	-0.117	-0.069
-376.873	-10.714	-0.159	-0.105
-375.858	42.272	-0.205	0.186
-374.844	-94.642	0.160	-0.043
-373.829	-172.632	-0.190	-0.006
-372.815	-200.000	0.004	-0.020
-371.800	-15.870	0.306	-0.194
-370.785	-200.000	-0.002	-0.196
-369.771	117.468	0.172	0.211
-368.756	800.000	-0.039	0.123
-367.742	-119.462	0.182	-0.031
-366.727	-38.384	-0.073	0.038
-365.712	-200.000	-0.025	0.249
-364.698	-63.598	0.212	0.087
-363.683	-200.000	0.013	0.266
-362.669	9.998	0.143	-0.108
-361.654	-200.000	0.050	0.400
-360.639	44.682	-0.162	0.148
-359.625	-161.250	-0.211	0.011
-358.610	-100.226	-0.078	-0.019
-357.596	-200.000	0.017	0.109
-356.581	-117.116	-0.040	0.007
-355.566	739.261	0.033	0.088
-354.552	-85.701	-0.157	-0.049
-353.537	-39.609	-0.158	-0.082
-352.523	-133.523	-0.183	-0.023
-351.508	-144.459	-0.341	-0.031
-350.493	-26.628	0.089	-0.052
-349.479	59.577	0.280	-0.275
-348.464	5.921	-0.219	-0.161
-347.450	-200.000	-0.064	-0.315
-346.435	-129.367	0.110	-0.015
-345.420	10.142	0.245	-0.185
-344.406	77.591	0.045	0.047
-343.391	-200.000	-0.008	0.243
-342.377	-13.045	-0.099	0.064
-341.362	-123.771	0.288	-0.045
-340.348	-100.773	0.192	0.047
-339.333	-92.280	0.099	-0.028
-338.318	11.391	-0.291	-0.222
-337.304	25.965	0.372	-0.309
-336.289	-200.000	0.006	0.035
-335.275	800.000	0.029	0.080
-334.260	-200.000	-0.059	0.475
-333.245	-200.000	0.026	0.425
-332.231	8.597	-0.186	-0.139
-331.216	-34.290	0.178	0.097
-330.202	-122.127	0.302	-0.049
-329.187	-73.700	-0.078	-0.028
-328.172	-85.293	0.162	0.050
-327.158	47.081	0.179	-0.166
-326.143	260.386	0.144	0.247
-325.129	800.000	-0.056	-0.223
-324.114	-187.121	0.345	-0.005
-323.099	-24.036	0.079	-0.047
-322.085	-200.000	0.034	-0.257
-321.070	53.309	0.123	-0.118
-320.056	-35.257	-0.111	-0.060
-319.041	800.000	-0.077	0.303
-318.026	-170.261	0.210	-0.007
-317.012	-76.229	0.152	0.053
-315.997	-136.290	0.173	-0.020
-314.983	40.045	-0.187	0.167
-313.968	185.271	-0.235	0.347
-312.953	31.884	0.133	0.114
-311.939	-45.018	-0.284	-0.140
-310.924	362.620	-0.101	-0.202
-309.910	0.519	0.142	0.101
-308.895	-200.000	-0.008	0.078
-307.880	-69.132	-0.209	0.080
-306.866	135.204	0.137	-0.177
-305.851	-46.102	0.100	-0.049
-304.837	-139.897	0.169	0.018
-303.822	-89.043	-0.376	-0.111
-302.807	-131.690	0.188	-0.025
-301.793	-200.000	-0.064	0.320
-300.778	-129.697	0.198	0.027
-299.764	-63.392	-0.270	-0.111
-298.749	-57.515	-0.253	-0.111
-297.735	-117.048	-0.185	-0.033
-296.720	-123.083	-0.327	0.052
-295.705	783.528	0.115	0.313
-294.691	105.295	0.200	-0.235
-293.676	800.000	-0.008	0.022
-292.662	329.212	-0.165	-0.314
-291.647	169.591	0.155	0.219
-290.632	-28.886	0.202	0.115
-289.618	-173.889	0.274	0.008
-288.603	79.381	-0.154	0.164
-287.589	88.598	-0.146	-0.162
-286.574	-99.685	0.051	-0.013
-285.559	-55.870	0.210	-0.093
-284.545	-41.483	-0.311	-0.159
-283.530	552.412	-0.103	0.245
-282.516	-140.243	0.224	-0.023
-281.501	-200.000	0.057	0.422
-280.486	-139.188	0.171	-0.018
-279.472	-77.985	0.450	-0.154
-278.457	122.341	0.107	0.133
-277.443	394.354	0.066	0.137
-276.428	-144.159	0.291	-0.027
-275.413	-71.690	0.443	0.164
-274.399	359.590	0.074	-0.146
-273.384	332.932	0.205	-0.394
-272.370	-4.438	0.233	-0.160
-271.355	243.879	-0.070	0.116
-270.340	149.388	-0.164	-0.221
-269.326	-135.113	0.421	0.050
-268.311	-200.000	-0.024	-0.225
-267.297	-1.705	0.155	-0.108
-266.282	-70.919	0.207	0.078
-265.267	186.879	0.123	0.182
-264.253	800.000	-0.059	0.189
-263.238	-107.899	-0.184	0.040
-262.224	-21.878	-0.164	-0.099
-261.209	-200.000	-0.019	0.197
-260.195	-156.680	0.154	0.009
-259.180	800.000	-0.033	-0.133
-258.165	116.280	0.234	-0.285
-257.151	-113.114	-0.154	0.030
-256.136	367.689	-0.034	0.068
-255.122	-84.616	-0.285	-0.089
-254.107	-32.238	0.408	0.226
-253.092	15.922	-0.255	-0.199
-252.078	-200.000	0.061	0.460
-251.063	204.940	0.127	-0.195
-250.049	-200.000	-0.020	0.091
-249.034	800.000	-0.071	-0.284
-248.019	104.165	-0.095	-0.111
-247.005	800.000	-0.039	-0.156
-245.990	-200.000	0.056	0.000
-244.976	800.000	-0.048	0.196
-243.961	4.685	0.184	-0.134
-242.946	-200.000	-0.070	-0.546
-241.932	-33.499	0.101	-0.055
-240.917	-91.279	-0.300	-0.085
-239.903	552.190	0.019	-0.046
-238.888	401.123	-0.122	-0.255
-237.873	209.687	-0.091	0.141
-236.859	-34.365	0.087	0.047
-235.844	43.419	0.325	-0.294
-234.830	223.567	0.191	0.306
-233.815	-147.570	-0.185	-0.015
-232.800	800.000	-0.136	-0.390
-231.786	-43.494	-0.223	0.112
-230.771	180.621	-0.031	0.045
-229.757	-200.000	0.046	0.582
-228.742	-200.000	0.006	0.042
-227.727	273.042	0.135	0.236
-226.713	80.732	0.087	0.093
-225.698	800.000	0.039	-0.149
-224.684	-95.928	0.156	0.041
-223.669	-67.345	0.191	0.074
-222.655	295.511	0.167	-0.302
-221.640	-56.861	-0.371	-0.163
-220.625	480.102	0.161	-0.361
-219.611	253.383	-0.117	-0.197
-218.596	-95.062	0.030	0.008
-217.582	-22.365	-0.268	-0.161
-216.567	-200.000	-0.032	0.241
-215.552	132.242	-0.083	0.105
-214.538	-200.000	0.025	0.306
-213.523	504.694	0.052	0.120
-212.509	30.154	0.170	-0.144
-211.494	33.390	0.129	-0.111
-210.479	59.676	-0.211	0.206
-209.465	-105.124	-0.143	0.032
-208.450	800.000	0.051	-0.174
-207.436	-86.563	-0.501	-0.152
-206.421	112.283	-0.156	-0.187
-205.406	770.685	0.065	0.176
-204.392	800.000	-0.078	-0.316
-203.377	-23.620	-0.139	-0.082
-202.363	-24.288	-0.322	-0.190
-201.348	-55.624	0.351	-0.155
-200.333	433.958	-0.065	-0.140
-199.319	-13.802	0.405	-0.259
-198.304	-109.672	0.113	-0.024
-197.290	-200.000	0.004	0.026
-196.275	50.185	-0.314	-0.294
-195.260	-2.041	-0.167	0.116
-194.246	-62.603	0.332	0.136
-193.231	-200.000	0.027	0.147
-192.217	-78.064	-0.101	0.034
-191.202	-195.660	-0.129	-0.001
-190.187	-57.510	0.185	0.080
-189.173	-85.997	0.100	-0.031
-188.158	-102.683	0.046	-0.011
-187.144	299.846	0.076	0.139
-186.129	245.097	0.044	-0.073
-185.114	-20.646	0.326	-0.198
-184.100	362.032	0.096	-0.191
-183.085	-57.336	0.204	-0.089
-182.071	-200.000	-0.022	-0.226
-181.056	-130.388	0.057	0.008
-180.042	60.545	0.242	0.237
-179.027	800.000	0.016	-0.061
-178.012	48.340	0.232	0.215
-176.998	-16.678	0.108	-0.068
-175.983	66.116	-0.266	-0.267
-174.969	519.512	-0.157	0.365
-173.954	174.365	0.041	-0.058
-172.939	-58.509	-0.185	0.079
-171.925	-75.446	-0.187	0.066
-170.910	-200.000	-0.041	0.216
-169.896	-200.000	-0.004	0.229
-168.881	800.000	-0.077	0.227
-167.866	-200.000	-0.010	0.249
-166.852	-141.568	0.290	-0.029
-165.837	52.496	0.314	0.297
-164.823	19.607	-0.203	0.161
-163.808	38.424	-0.202	-0.178
-162.793	-200.000	-0.025	0.248
-161.779	-133.293	0.208	-0.026
-160.764	-77.208	0.272	-0.093
-159.750	203.570	-0.189	-0.289
-158.735	-200.000	0.028	0.204
-157.720	-93.738	-0.309	-0.084
-156.706	169.178	0.172	-0.243
-155.691	-130.509	0.137	0.018
-154.677	-166.616	0.216	0.009
-153.662	389.920	-0.207	-0.425
-152.647	800.000	0.040	0.128
-151.633	-91.740	0.178	-0.050
-150.618	-200.000	0.031	0.236
-149.604	-42.789	0.103	-0.052
-148.589	-69.205	-0.297	0.113
-147.574	-162.836	-0.147	-0.007
-146.560	15.346	0.218	-0.169
-145.545	521.239	-0.094	0.217
-144.531	-92.702	-0.194	0.054
-143.516	105.855	-0.125	0.146
-142.502	508.393	0.098	0.225
-141.487	-19.941	0.483	0.295
-140.472	-21.027	-0.008	0.005
-139.458	-127.033	0.193	-0.028
-138.443	209.982	0.123	-0.191
-137.429	-87.021	0.220	-0.066
-136.414	17.950	-0.039	-0.031
-135.399	689.955	0.153	0.396
-134.385	-53.994	0.289	0.130
-133.370	800.000	0.088	-0.297
-132.356	-9.459	-0.039	-0.026
-131.341	17.982	-0.207	-0.163
-130.326	-59.398	-0.033	0.014
-129.312	-175.747	-0.194	-0.005
-128.297	800.000	0.018	-0.067
-127.283	-200.000	-0.268	0.001
-126.268	-56.026	-0.227	0.100
-125.253	-78.151	-0.313	0.106
-124.239	480.388	0.020	-0.045
-123.224	293.242	0.105	-0.189
-122.210	-32.920	-0.212	0.116
-121.195	-149.231	0.174	-0.014
-120.180	-200.000	-0.023	-0.147
-119.166	115.337	-0.272	0.328
-118.151	-111.950	-0.065	0.013
-117.137	166.997	-0.155	0.218
-116.122	-28.505	0.284	0.161
-115.107	-200.000	-0.008	-0.098
-114.093	-41.895	0.172	-0.087
-113.078	156.164	0.204	-0.278
-112.064	263.643	-0.146	0.251
-111.049	-200.000	0.219	0.000
-110.034	-8.537	0.019	-0.013
-109.020	122.879	-0.071	-0.087
-108.005	278.531	-0.084	0.148
-106.991	-200.000	0.051	0.267
-105.976	92.359	-0.175	-0.195
-104.962	-127.192	0.218	-0.031
-103.947	800.000	-0.048	-0.205
-102.932	-99.033	-0.316	-0.079
-101.918	-59.885	0.438	-0.185
-100.903	800.000	-0.104	0.317
-99.889	269.723	0.093	0.162
-98.874	-32.611	0.230	0.126
-97.859	18.967	0.109	0.086
-96.845	-48.902	-0.066	-0.031
-95.830	-72.155	-0.277	0.101
-94.816	-200.000	0.019	0.148
-93.801	-96.797	0.236	0.061
-92.786	57.345	-0.206	-0.198
-91.772	-167.401	-0.108	0.004
-90.757	65.176	-0.228	0.227
-89.743	-74.509	0.213	-0.076
-88.728	-200.000	-0.006	-0.210
-87.713	-34.697	-0.195	0.105
-86.699	-75.139	0.059	-0.021
-85.684	-42.470	-0.376	0.189
-84.670	168.618	-0.094	-0.132
-83.655	477.415	-0.035	-0.077
-82.640	-75.065	-0.067	0.024
-81.626	-200.000	0.005	-0.037
-80.611	-42.489	-0.180	-0.091
-79.597	-69.860	0.341	0.128
-78.582	-64.435	-0.248	-0.099
-77.567	800.000	-0.052	0.203
-76.553	638.581	-0.041	0.103
-75.538	-175.478	-0.184	-0.005
-74.524	-112.189	0.285	-0.056
-73.509	800.000	-0.170	0.483
-72.494	-126.947	0.206	0.030
-71.480	407.505	0.137	0.284
-70.465	-154.799	-0.345	-0.022
-69.451	93.504	-0.158	-0.176
-68.436	63.101	0.365	0.360
-67.422	15.627	0.211	0.163
-66.407	-120.135	-0.256	0.043
-65.392	-76.972	0.436	-0.150
-64.378	83.791	0.132	-0.142
-63.363	800.000	0.069	0.236
-62.349	-200.000	0.020	0.168
-61.334	61.577	-1.044	-1.023
-60.319	-200.000	0.005	0.480
-59.305	-200.000	-0.169	-0.905
-58.290	800.000	0.316	1.081
-57.276	-200.000	0.355	1.677
-56.261	-200.000	96.047	574.860
-55.246	555.286	1374.686	3257.599
-54.232	160.823	2549.131	3504.429
-53.217	111.316	2161.152	2564.184
-52.203	43.098	1706.588	1532.719
-51.188	35.860	1519.969	1315.798
-50.173	33.549	1493.211	1277.036
-49.159	52.081	1541.907	1445.981
-48.144	54.057	1559.536	1475.987
-47.130	36.010	1519.380	1316.102
-46.115	32.947	1504.598	1282.483
-45.100	32.807	1501.487	1278.835
-44.086	32.793	1499.378	1276.893
-43.071	32.815	1497.640	1275.511
-42.057	32.721	1495.984	1273.411
-41.042	32.812	1494.287	1272.529
-40.027	32.754	1493.084	1271.068
-39.013	32.728	1491.935	1269.864
-37.998	32.678	1490.396	1268.163
-36.984	32.867	1488.913	1268.126
-35.969	32.704	1487.730	1265.972
-34.954	32.843	1486.208	1265.561
-33.940	32.794	1484.887	1264.057
-32.925	32.868	1483.918	1263.673
-31.911	32.888	1482.572	1262.611
-30.896	32.877	1480.613	1260.819
-29.881	32.847	1479.916	1259.980
-28.867	32.835	1478.290	1258.463
-27.852	32.877	1476.705	1257.344
-26.838	32.870	1474.803	1255.628
-25.823	32.911	1473.424	1254.676
-24.809	32.870	1471.895	1253.053
-23.794	32.870	1470.369	1251.701
-22.779	32.835	1469.575	1250.748
-21.765	32.835	1468.211	1249.536
-20.750	32.808	1467.389	1248.604
-19.736	32.721	1466.401	1247.143
-18.721	32.738	1465.576	1246.501
-17.706	32.673	1464.616	1245.207
-16.692	32.702	1462.951	1243.935
-15.677	32.714	1461.921	1243.088
-14.663	32.652	1461.144	1241.968
-13.648	32.693	1460.011	1241.223
-12.633	32.658	1459.542	1240.551
-11.619	32.634	1458.691	1239.616
-10.604	32.700	1457.302	1238.822
-9.590	32.742	1456.424	1238.299
-8.575	32.724	1455.909	1237.695
-7.560	32.673	1455.017	1236.553
-6.546	32.747	1453.950	1236.083
-5.531	32.692	1453.113	1234.960
-4.517	32.676	1452.071	1233.927
-3.502	32.719	1451.197	1233.415
-2.487	32.744	1449.942	1232.461
-1.473	32.689	1449.037	1231.284
-0.458	32.636	1448.160	1230.145
0.556	33.213	1438.667	1219.749
1.571	30.258	1414.815	1180.652
2.586	27.114	1361.607	1116.858
3.600	25.522	1284.836	1044.548
4.615	24.085	1237.346	997.805
5.629	20.555	1179.304	932.026
6.644	10.863	1091.942	814.560
7.659	3.350	1049.731	746.699
8.673	2.261	1044.637	737.756
9.688	2.008	1041.255	734.085
10.702	1.854	1039.790	732.248
11.717	2.098	1037.481	731.730
12.731	5.667	1041.780	751.846
13.746	15.473	1056.073	809.596
14.761	23.013	1065.864	853.588
15.775	24.955	1067.783	864.433
16.790	25.355	1067.010	865.655
17.804	25.143	1066.704	864.309
18.819	24.993	1065.792	862.772
19.834	25.141	1064.706	862.530
20.848	25.237	1064.852	863.034
21.863	25.199	1064.486	862.480
22.877	25.273	1064.070	862.422
23.892	25.189	1063.571	861.535
24.907	25.151	1062.314	860.260
25.921	25.215	1061.686	859.982
26.936	25.196	1061.189	859.411
27.950	25.155	1059.938	858.124
28.965	24.972	1058.813	856.264
29.980	25.061	1057.252	855.352
30.994	25.066	1055.916	854.218
32.009	25.265	1054.666	854.080
33.023	25.292	1054.575	854.061
34.038	25.036	1053.558	851.941
35.053	25.089	1052.764	851.477
36.067	25.276	1052.209	851.841
37.082	25.174	1051.073	850.361
38.096	25.259	1050.159	849.948
39.111	25.446	1050.060	850.679
40.126	25.462	1049.184	849.972
41.140	25.421	1048.069	848.796
42.155	25.076	1046.666	845.961
43.169	24.906	1044.959	843.702
44.184	24.714	1044.236	842.140
45.199	24.878	1043.820	842.503
46.213	24.843	1041.971	840.772
47.228	24.800	1041.575	840.178
48.242	25.023	1041.020	840.700
49.257	25.204	1040.501	841.056
50.271	25.155	1039.510	839.948
51.286	25.345	1038.761	840.158
52.301	25.348	1038.372	839.785
53.315	25.229	1037.816	838.703
54.330	25.236	1037.049	838.041
55.344	25.139	1036.250	836.871
56.359	25.075	1035.737	836.084
57.374	25.328	1034.264	836.001
58.388	25.026	1033.503	833.906
59.403	24.987	1032.857	833.128
60.417	25.112	1031.967	832.919
61.432	24.818	1031.406	831.025
62.447	24.834	1030.652	830.419
63.461	25.076	1029.770	830.756
64.476	24.931	1029.310	829.641
65.490	24.967	1028.406	829.005
66.505	24.913	1027.332	827.815
67.520	24.928	1026.767	827.358
68.534	24.951	1025.692	826.523
69.549	24.820	1024.624	824.986
70.563	24.425	1023.720	822.366
71.578	24.449	1022.898	821.741
72.593	24.395	1022.582	821.165
73.607	24.391	1020.959	819.773
74.622	24.317	1020.007	818.596
75.636	24.622	1019.982	819.902
76.651	24.858	1018.842	819.996
77.666	24.591	1018.027	818.048
78.680	24.588	1016.957	817.102
79.695	24.611	1016.480	816.748
80.709	24.641	1015.842	816.301
81.724	24.872	1014.949	816.567
82.739	24.882	1013.695	815.528
83.753	24.754	1013.522	814.734
84.768	25.054	1012.614	815.297
85.782	25.407	1012.109	816.423
86.797	25.614	1011.464	816.773
87.812	25.503	1010.653	815.543
88.826	25.277	1009.754	813.721
89.841	25.332	1009.111	813.379
90.855	25.442	1008.497	813.308
91.870	25.502	1007.525	812.724
92.884	25.474	1006.200	811.456
93.899	25.519	1005.434	810.973
94.914	25.106	1005.054	808.729
95.928	25.247	1004.310	808.695
96.943	25.418	1003.097	808.417
97.957	24.996	1001.992	805.556
98.972	24.915	1000.585	803.991
99.987	24.775	999.690	802.572
101.001	24.732	999.494	802.151
102.016	25.059	999.189	803.302
103.030	25.069	998.216	802.493
104.045	25.058	997.005	801.399
105.060	24.925	995.961	799.895
106.074	24.863	994.324	798.234
107.089	24.891	993.855	797.912
108.103	25.212	993.797	799.223
109.118	25.198	992.995	798.448
110.133	24.949	991.496	796.065
111.147	24.913	990.515	795.045
112.162	24.750	989.945	793.797
113.176	24.568	988.469	791.732
114.191	24.804	987.435	791.882
115.206	24.812	986.897	791.416
116.220	24.559	985.872	789.402
117.235	24.473	984.906	788.179
118.249	24.632	984.411	788.416
119.264	24.532	983.686	787.328
120.279	24.495	982.417	786.079
121.293	24.504	981.774	785.532
122.308	24.616	981.496	785.733
123.322	24.688	980.399	785.102
124.337	24.523	979.280	783.412
125.352	24.499	978.257	782.421
126.366	24.130	976.454	779.294
127.381	23.772	975.499	776.898
128.395	24.320	975.331	779.089
129.410	24.959	974.844	781.422
130.424	25.114	974.379	781.655
131.439	25.150	973.249	780.836
132.454	25.091	972.149	779.629
133.468	25.100	971.060	778.727
134.483	25.055	970.304	777.858
135.497	25.052	969.848	777.408
136.512	25.252	969.352	777.807
137.527	25.276	968.491	777.153
138.541	25.296	967.869	776.672
139.556	25.276	967.130	775.924
140.570	25.316	966.281	775.345
141.585	25.417	965.216	774.858
142.600	25.560	964.446	774.789
143.614	25.377	963.512	773.182
144.629	25.353	963.094	772.672
145.643	25.750	962.377	773.736
146.658	25.636	961.370	772.368
147.673	25.285	960.442	770.051
148.687	25.330	959.660	769.549
149.702	25.152	958.086	767.457
150.716	25.150	957.053	766.551
151.731	25.119	956.194	765.664
152.746	25.234	955.619	765.627
153.760	25.397	955.302	766.000
154.775	25.444	954.637	765.599
155.789	25.537	953.391	764.927
156.804	25.531	952.704	764.284
157.819	25.442	951.383	762.778
158.833	25.593	950.759	762.852
159.848	25.679	950.190	762.694
160.862	25.607	949.368	761.658
161.877	25.541	948.583	760.684
162.892	25.456	947.301	759.229
163.906	25.533	946.754	759.049
164.921	25.487	946.016	758.195
165.935	25.497	944.355	756.841
166.950	25.630	943.402	756.567
167.964	25.427	943.143	755.440
168.979	25.509	941.836	754.669
169.994	25.324	940.569	752.812
171.008	25.309	939.608	751.914
172.023	25.420	939.092	751.898
173.037	25.609	938.288	751.981
174.052	25.520	937.416	750.843
175.067	25.188	936.302	748.500
176.081	25.220	935.469	747.901
177.096	25.369	934.931	748.025
178.110	25.360	934.045	747.212
179.125	25.148	933.121	745.526
180.140	24.760	931.792	742.787
181.154	24.772	931.570	742.594
182.169	24.930	930.968	742.705
183.183	25.254	930.614	743.697
184.198	25.382	930.452	744.034
185.213	25.474	929.244	743.382
186.227	25.377	928.376	742.223
187.242	25.474	928.617	742.748
188.256	25.584	927.676	742.386
189.271	25.557	926.437	741.215
190.286	25.615	926.169	741.177
191.300	25.511	925.372	740.042
192.315	24.903	924.009	736.390
193.329	24.023	922.580	731.569
194.344	23.743	921.437	729.447
195.359	24.387	921.600	732.154
196.373	25.318	922.058	736.275
197.388	25.443	921.668	736.411
198.402	25.382	921.127	735.666
199.417	25.287	920.290	734.541
200.432	25.359	919.896	734.455
201.446	25.371	919.104	733.810
202.461	24.960	918.448	731.541
203.475	25.183	917.763	731.840
204.490	24.595	916.722	728.547
205.504	23.472	914.285	721.979
206.519	23.873	914.140	723.431
207.534	24.859	914.518	727.677
208.548	24.916	914.132	727.539
209.563	25.458	913.311	729.021
210.577	25.304	913.271	728.301
211.592	25.078	912.154	726.429
212.607	25.454	911.983	727.752
213.621	25.597	911.851	728.161
214.636	25.660	910.910	727.601
215.650	25.544	910.791	726.968
216.665	25.456	909.781	725.746
217.680	25.505	909.848	725.932
218.694	25.735	908.937	726.069
219.709	25.240	907.799	723.099
220.723	24.911	907.194	721.230
221.738	25.181	906.570	721.757
222.753	25.332	906.301	722.087
223.767	25.384	905.367	721.487
224.782	25.362	904.888	720.952
225.796	25.644	903.949	721.272
226.811	25.700	903.449	721.033
227.826	25.325	902.427	718.654
228.840	24.466	900.900	713.937
229.855	24.291	900.581	712.922
230.869	24.613	900.075	713.747
231.884	24.361	898.818	711.680
232.899	24.354	898.560	711.384
233.913	25.156	898.867	714.766
234.928	25.330	898.344	714.978
235.942	25.152	897.610	713.621
236.957	25.426	896.749	713.964
237.972	25.087	895.853	711.843
238.986	24.823	895.513	710.460
240.001	24.990	894.815	710.507
241.015	25.123	894.273	710.541
242.030	25.207	893.643	710.307
243.045	25.258	893.159	710.064
244.059	25.307	892.502	709.670
245.074	25.509	892.178	710.150
246.088	25.405	891.530	709.159
247.103	25.099	890.529	707.093
248.117	25.122	890.222	706.879
249.132	25.583	889.871	708.354
250.147	26.040	889.875	710.093
251.161	26.115	889.265	709.837
252.176	26.262	888.831	710.006
253.190	26.170	888.146	709.035
254.205	26.270	887.702	709.011
255.220	26.683	886.998	710.005
256.234	26.425	886.668	708.667
257.249	26.274	886.452	707.841
258.263	26.129	885.472	706.429
259.278	26.118	884.836	705.813
260.293	26.221	884.648	706.005
261.307	26.493	883.673	706.225
262.322	26.389	882.961	705.190
263.336	26.027	882.601	703.430
264.351	25.764	880.698	700.827
265.366	24.568	879.243	694.957
266.380	24.161	878.235	692.518
267.395	24.990	878.653	696.005
268.409	25.818	878.782	699.264
269.424	25.924	877.812	698.840
270.439	25.880	877.596	698.435
271.453	26.208	876.607	698.856
272.468	25.977	876.681	697.959
273.482	26.298	876.164	698.726
274.497	26.379	875.919	698.783
275.512	26.255	874.556	697.158
276.526	25.597	873.128	693.421
277.541	25.759	872.882	693.788
278.555	26.172	872.945	695.366
279.570	25.860	872.514	693.760
280.585	25.801	871.423	692.607
281.599	25.890	870.870	692.446
282.614	26.095	870.269	692.696
283.628	25.651	868.670	689.661
284.643	25.220	868.399	687.733
285.657	25.613	868.163	688.989
286.672	25.545	867.352	688.025
287.687	25.100	866.390	685.498
288.701	25.409	866.342	686.583
289.716	25.744	866.276	687.750
290.730	25.378	865.135	685.384
291.745	25.176	864.850	684.330
292.760	25.170	864.014	683.584
293.774	25.123	863.025	682.561
294.789	25.908	863.900	686.184
295.803	26.741	863.411	688.900
296.818	26.596	863.331	688.225
297.833	26.738	862.927	688.381
298.847	26.319	861.998	685.989
299.862	26.127	860.893	684.322
300.876	26.232	860.580	684.412
301.891	26.549	860.015	685.103
302.906	26.726	859.297	685.137
303.920	26.356	858.170	682.783
304.935	26.081	857.621	681.246
305.949	26.496	857.617	682.751
306.964	26.394	857.333	682.077
307.979	26.466	856.006	681.231
308.993	26.510	855.327	680.798
310.008	26.589	855.813	681.423
311.022	26.645	855.328	681.187
312.037	26.664	854.552	680.580
313.052	26.280	853.397	678.157
314.066	26.427	852.683	678.082
315.081	25.465	851.677	673.616
316.095	24.654	850.685	669.734
317.110	25.323	850.892	672.344
318.125	26.237	850.698	675.552
319.139	25.855	850.017	673.524
320.154	24.697	847.991	667.538
321.168	24.221	846.960	664.893
322.183	24.799	847.618	667.507
323.197	25.726	848.069	671.264
324.212	26.108	847.715	672.345
325.227	26.211	847.370	672.396
326.241	26.509	846.595	672.831
327.256	26.214	846.065	671.253
328.270	26.127	845.500	670.423
329.285	25.993	844.769	669.286
330.300	25.978	843.822	668.421
331.314	25.831	842.912	667.098
332.329	25.653	842.740	666.244
333.343	26.172	842.763	668.124
334.358	26.316	842.435	668.336
335.373	26.398	841.838	668.107
336.387	26.422	841.302	667.712
337.402	26.659	841.063	668.338
338.416	27.028	840.185	668.939
339.431	26.792	840.037	667.895
340.446	26.877	839.057	667.369
341.460	27.172	839.092	668.421
342.475	27.050	838.256	667.248
343.489	26.922	837.258	665.925
344.504	26.891	836.543	665.184
345.519	27.101	836.381	665.767
346.533	27.236	836.259	666.106
347.548	27.218	835.641	665.488
348.562	27.471	835.126	665.944
349.577	27.487	834.749	665.643
350.592	27.275	834.159	664.338
351.606	27.215	833.688	663.684
352.621	27.299	833.292	663.618
353.635	27.033	832.563	662.009
354.650	27.053	832.179	661.718
355.665	26.760	831.167	659.787
356.679	25.754	829.254	654.558
357.694	25.508	829.176	653.542
358.708	26.378	828.663	656.239
359.723	26.022	828.756	654.964
360.738	26.444	828.391	656.148
361.752	26.932	828.114	657.638
362.767	26.975	827.700	657.407
363.781	27.149	827.751	658.020
364.796	27.433	827.498	658.789
365.810	27.486	827.344	658.801
366.825	27.697	826.599	658.909
367.840	27.720	826.113	658.547
368.854	27.576	825.475	657.463
369.869	27.069	824.529	654.823
370.883	26.895	824.114	653.808
371.898	27.148	823.094	653.851
372.913	26.999	822.539	652.817
373.927	26.958	822.057	652.229
374.942	27.126	821.670	652.466
375.956	27.245	821.228	652.487
376.971	27.286	820.211	651.768
377.986	27.445	820.321	652.368
379.000	27.417	819.997	651.950
380.015	27.575	819.548	652.101
381.029	27.433	818.774	650.922
382.044	27.519	817.746	650.352
383.059	27.607	817.456	650.377
384.073	27.593	817.195	650.064
385.088	27.634	816.891	649.911
386.102	27.591	816.079	649.056
387.117	27.634	815.011	648.298
388.132	27.273	814.980	646.932
389.146	26.986	813.995	645.074
390.161	26.572	812.794	642.596
391.175	26.674	812.530	642.695
392.190	27.109	812.793	644.387
393.205	27.212	812.164	644.196
394.219	26.212	810.415	639.215
395.234	24.453	808.424	631.374
396.248	23.714	807.401	627.905
397.263	24.898	808.092	632.576
398.278	26.832	809.488	640.450
399.292	27.149	809.488	641.513
400.307	26.845	808.609	639.687
401.321	26.952	807.957	639.491
402.336	26.892	808.339	639.525
403.350	27.082	808.293	640.101
404.365	27.567	807.878	641.424
405.380	27.943	807.641	642.501
406.394	28.218	807.382	643.207
407.409	28.334	807.242	643.445
408.423	28.357	806.488	642.865
409.438	28.346	805.637	642.092
410.453	28.255	805.176	641.352
411.467	28.378	804.934	641.530
412.482	28.321	804.415	640.859
413.496	28.192	804.080	640.086
414.511	28.300	803.544	639.979
415.526	28.331	803.179	639.743
416.540	28.271	803.160	639.460
417.555	28.295	802.069	638.618
418.569	27.768	802.133	636.775
419.584	27.928	801.284	636.603
420.599	27.993	800.580	636.214
421.613	110.796	1284.758	1456.511
422.628	95.591	1355.304	1456.620
