DTS Sentinel unit serial number:	SN413079Multiplexer serial number:	ORYXHardware model number:	OX4-SRSoftware version number:	ORYX F/W v4.00 Oryx Data Collector v3.7.2.0data status	okinstallation	princeton_trtdifferential loss correction	single-endedforward channel	channel 3reverse channel	N/Adate	2019/09/12time	01:10:11forward acquisition time	60.00reverse acquisition time	0.00gamma	496.2192k internal	0.2320k external	0.2320temperature offset calibration	1.0071default loss term (dB/km)	0.3790temperature slope calibration	1.0000multiplexer offset coefficient	1.0000multiplexer slope coefficient	1.0000fibre end	0.00T internal ref (°C)	33.06T ext. ref 1 (°C)	2.10T ext. ref 2 (°C)	27.72length (m)	temperature (°C)	Stokes	anti-Stokes-747.200	-106.925	0.338	-0.076
-746.185	-41.996	0.355	-0.184
-745.171	349.621	-0.167	-0.333
-744.156	-78.777	0.400	0.138
-743.142	0.641	-0.077	-0.055
-742.127	-63.426	-0.131	0.055
-741.112	591.820	0.040	0.100
-740.098	406.735	0.145	0.309
-739.083	354.188	0.096	0.193
-738.069	-3.783	0.167	0.117
-737.054	-179.268	-0.140	0.003
-736.039	-87.400	-0.138	0.042
-735.025	-200.000	0.012	0.173
-734.010	-95.858	-0.161	0.043
-732.996	800.000	-0.021	0.069
-731.981	-76.264	-0.282	0.100
-730.966	-200.000	-0.026	-0.130
-729.952	102.318	-0.183	-0.216
-728.937	-66.920	-0.396	-0.158
-727.923	-96.123	-0.043	0.012
-726.908	12.317	0.177	-0.138
-725.894	308.735	-0.106	-0.200
-724.879	-59.758	0.101	0.044
-723.864	-57.772	-0.272	-0.120
-722.850	295.216	-0.046	-0.085
-721.835	-31.679	-0.438	0.248
-720.821	66.071	-0.137	0.141
-719.806	-12.041	-0.197	0.130
-718.791	800.000	-0.083	-0.298
-717.777	-200.000	0.031	-0.219
-716.762	-65.748	0.316	-0.128
-715.748	178.439	-0.273	0.403
-714.733	-200.000	-0.017	-0.181
-713.718	800.000	0.046	-0.181
-712.704	-200.000	0.021	-0.241
-711.689	197.726	0.126	0.194
-710.675	131.604	0.104	-0.134
-709.660	800.000	-0.112	0.420
-708.645	-153.593	-0.155	-0.011
-707.631	38.608	0.225	0.203
-706.616	-41.208	-0.044	0.023
-705.602	-46.087	0.208	0.104
-704.587	-200.000	0.001	-0.030
-703.572	-200.000	-0.003	-0.132
-702.558	601.773	0.143	-0.358
-701.543	-125.408	-0.085	-0.013
-700.529	-200.000	0.037	0.279
-699.514	23.145	-0.245	0.203
-698.499	108.393	0.042	-0.050
-697.485	65.526	0.347	0.355
-696.470	-86.880	-0.342	-0.105
-695.456	-200.000	0.003	-0.403
-694.441	21.810	-0.288	-0.237
-693.426	135.858	0.053	0.069
-692.412	18.330	-0.138	0.111
-691.397	388.283	-0.080	-0.167
-690.383	2.087	-0.317	-0.231
-689.368	-21.989	0.155	-0.095
-688.354	-110.653	-0.141	0.029
-687.339	-178.749	0.215	-0.005
-686.324	225.530	-0.008	0.014
-685.310	198.058	-0.125	-0.193
-684.295	-200.000	0.006	-0.400
-683.281	-129.820	-0.151	0.021
-682.266	-89.421	-0.197	-0.058
-681.251	-198.691	0.304	0.002
-680.237	22.775	0.076	-0.062
-679.222	-53.504	-0.146	0.068
-678.208	340.823	0.106	-0.209
-677.193	-200.000	-0.017	-0.163
-676.178	456.002	-0.132	-0.296
-675.164	-56.990	0.181	-0.081
-674.149	-200.000	0.239	0.001
-673.135	-200.000	0.002	0.204
-672.120	-96.851	-0.257	-0.068
-671.105	800.000	0.116	-0.346
-670.091	-66.100	-0.097	0.039
-669.076	30.855	0.165	-0.143
-668.062	-200.000	-0.000	-0.215
-667.047	-23.902	0.225	-0.136
-666.032	698.968	-0.055	-0.145
-665.018	185.134	-0.031	-0.046
-664.003	-150.209	0.142	-0.011
-662.989	-200.000	0.003	-0.073
-661.974	-97.055	0.308	-0.081
-660.959	34.813	0.125	-0.110
-659.945	-162.925	-0.099	-0.005
-658.930	188.562	-0.223	-0.336
-657.916	248.932	-0.229	-0.391
-656.901	568.188	0.099	0.242
-655.886	-114.359	-0.179	0.035
-654.872	-200.000	0.031	-0.204
-653.857	-200.000	0.002	0.225
-652.843	8.878	0.146	0.111
-651.828	-58.849	0.091	-0.040
-650.814	-22.443	0.250	-0.153
-649.799	-138.168	-0.308	0.034
-648.784	800.000	0.065	0.239
-647.770	-50.219	-0.370	0.176
-646.755	-200.000	0.051	-0.304
-645.741	800.000	0.025	-0.091
-644.726	-109.136	-0.214	0.046
-643.711	-36.800	-0.151	-0.082
-642.697	338.811	0.252	-0.494
-641.682	800.000	-0.062	-0.196
-640.668	288.345	-0.082	-0.149
-639.653	800.000	-0.035	0.102
-638.638	80.674	0.276	0.300
-637.624	56.487	-0.213	0.209
-636.609	-51.018	-0.304	-0.143
-635.595	-84.160	0.187	-0.060
-634.580	102.100	-0.137	0.161
-633.565	-68.981	0.052	0.020
-632.551	549.178	0.041	0.098
-631.536	-37.681	0.156	-0.084
-630.522	39.026	0.032	0.029
-629.507	-51.513	-0.200	0.094
-628.492	-75.396	0.156	0.056
-627.478	800.000	-0.035	0.136
-626.463	-33.261	-0.254	-0.142
-625.449	-15.293	-0.420	0.270
-624.434	493.879	0.086	0.199
-623.419	-200.000	0.009	0.056
-622.405	-200.000	-0.001	-0.073
-621.390	117.056	0.012	0.015
-620.376	280.551	-0.058	-0.104
-619.361	-200.000	-0.011	0.176
-618.346	256.825	-0.200	0.345
-617.332	369.767	-0.249	0.507
-616.317	-79.852	-0.296	-0.100
-615.303	-85.377	0.095	-0.030
-614.288	373.503	0.099	-0.202
-613.273	304.832	-0.070	0.131
-612.259	-200.000	-0.057	0.270
-611.244	399.176	-0.039	-0.082
-610.230	-140.405	0.261	0.027
-609.215	-200.000	0.023	-0.173
-608.201	468.289	0.080	-0.180
-607.186	-124.455	-0.243	-0.038
-606.171	800.000	0.048	0.160
-605.157	-40.376	0.193	-0.101
-604.142	-4.568	0.065	-0.045
-603.128	-45.383	-0.328	-0.164
-602.113	-200.000	-0.014	-0.155
-601.098	-72.505	-0.143	-0.053
-600.084	131.122	-0.066	0.085
-599.069	462.953	0.030	-0.068
-598.055	760.930	0.043	-0.117
-597.040	153.553	-0.208	-0.286
-596.025	-1.388	-0.056	0.040
-595.011	-2.719	-0.138	0.097
-593.996	382.301	0.068	0.140
-592.982	-42.203	-0.316	-0.162
-591.967	76.120	0.258	0.275
-590.952	-156.583	-0.300	0.019
-589.938	800.000	-0.064	-0.217
-588.923	9.567	0.191	0.145
-587.909	-200.000	0.034	-0.264
-586.894	-169.287	-0.057	0.002
-585.879	150.636	-0.029	0.040
-584.865	26.721	-0.130	0.109
-583.850	-114.103	0.315	-0.061
-582.836	-19.782	-0.306	0.190
-581.821	-73.008	0.240	-0.089
-580.806	800.000	0.088	-0.374
-579.792	-200.000	0.033	0.237
-578.777	-88.732	0.199	0.059
-577.763	6.978	0.313	-0.235
-576.748	159.700	0.145	0.203
-575.733	173.189	-0.164	-0.238
-574.719	800.000	0.102	-0.327
-573.704	-15.636	-0.114	-0.073
-572.690	-42.502	0.112	0.057
-571.675	13.040	0.104	-0.081
-570.661	-178.901	-0.112	0.003
-569.646	672.356	-0.164	-0.426
-568.631	-23.451	0.215	-0.130
-567.617	-77.375	-0.408	0.142
-566.602	-47.925	0.359	-0.174
-565.588	747.528	0.037	0.100
-564.573	64.803	-0.081	0.082
-563.558	-22.016	0.109	-0.067
-562.544	-200.000	-0.013	-0.057
-561.529	800.000	0.078	-0.288
-560.515	-80.786	0.085	-0.028
-559.500	800.000	-0.033	-0.141
-558.485	-200.000	0.093	-0.594
-557.471	106.236	-0.044	-0.053
-556.456	272.894	0.196	-0.347
-555.442	150.815	-0.123	-0.168
-554.427	-160.165	-0.144	-0.008
-553.412	11.636	-0.319	-0.246
-552.398	-108.756	0.252	-0.054
-551.383	-200.000	-0.078	0.430
-550.369	285.019	-0.062	-0.113
-549.354	-200.000	0.012	0.264
-548.339	-37.084	0.083	0.045
-547.325	193.910	0.208	-0.316
-546.310	277.246	0.098	-0.176
-545.296	118.805	0.071	0.088
-544.281	-200.000	0.024	-0.123
-543.266	336.227	0.067	-0.131
-542.252	-138.211	-0.199	-0.022
-541.237	520.558	-0.106	0.250
-540.223	-200.000	-0.030	-0.218
-539.208	318.305	0.072	0.137
-538.193	-160.420	-0.303	0.016
-537.179	17.041	0.092	-0.073
-536.164	-30.938	0.450	-0.255
-535.150	16.522	-0.104	-0.082
-534.135	-110.013	-0.155	-0.032
-533.121	-144.685	-0.330	-0.030
-532.106	-12.773	0.527	0.344
-531.091	213.202	-0.132	-0.210
-530.077	-162.285	-0.190	0.010
-529.062	-54.481	0.154	0.070
-528.048	75.349	0.123	0.130
-527.033	328.916	-0.059	0.114
-526.018	38.224	0.358	0.320
-525.004	-200.000	-0.014	-0.252
-523.989	653.171	0.026	0.067
-522.975	-200.000	0.034	-0.239
-521.960	-200.000	0.045	0.398
-520.945	198.144	0.040	0.061
-519.931	-81.524	0.077	-0.025
-518.916	458.134	0.102	0.227
-517.902	-127.960	0.105	-0.015
-516.887	-79.837	0.173	0.058
-515.872	-200.000	0.004	0.025
-514.858	-200.000	0.010	0.155
-513.843	-146.159	-0.319	-0.028
-512.829	-88.482	0.214	-0.064
-511.814	191.432	-0.068	-0.103
-510.799	272.430	0.098	-0.174
-509.785	-125.097	0.108	-0.017
-508.770	-90.467	-0.384	-0.112
-507.756	-65.958	-0.214	0.086
-506.741	-200.000	0.063	-0.453
-505.726	-29.723	-0.350	-0.200
-504.712	164.639	-0.150	0.212
-503.697	-72.878	-0.180	-0.066
-502.683	-132.811	-0.127	-0.016
-501.668	800.000	0.154	-0.576
-500.653	165.066	-0.035	-0.050
-499.639	800.000	0.087	0.251
-498.624	-200.000	0.020	0.092
-497.610	-94.921	0.037	-0.010
-496.595	86.876	-0.236	0.261
-495.581	15.516	-0.222	0.175
-494.566	-131.500	0.121	0.016
-493.551	87.801	-0.085	-0.095
-492.537	65.289	0.098	0.099
-491.522	28.591	-0.176	-0.149
-490.508	-200.000	0.034	-0.184
-489.493	297.607	-0.171	-0.315
-488.478	-200.000	0.036	0.240
-487.464	-132.444	0.037	0.005
-486.449	-137.223	0.098	-0.011
-485.435	41.810	-0.141	-0.128
-484.420	800.000	-0.083	-0.346
-483.405	-52.255	-0.295	0.137
-482.391	-28.776	0.160	-0.092
-481.376	-12.405	-0.437	-0.286
-480.362	-138.017	-0.304	-0.034
-479.347	-125.216	-0.046	0.007
-478.332	172.122	0.012	-0.017
-477.318	134.551	-0.239	-0.310
-476.303	-200.000	-0.004	-0.058
-475.289	800.000	-0.086	0.342
-474.274	-0.956	0.126	-0.089
-473.259	140.386	-0.076	-0.101
-472.245	-57.795	0.200	-0.088
-471.230	-27.443	-0.093	-0.054
-470.216	285.545	0.093	0.167
-469.201	79.755	-0.196	0.210
-468.186	318.746	-0.070	-0.133
-467.172	465.528	-0.046	-0.103
-466.157	-129.064	-0.325	-0.045
-465.143	-53.503	-0.299	-0.137
-464.128	800.000	-0.020	0.064
-463.113	-18.159	0.106	0.066
-462.099	800.000	-0.084	-0.320
-461.084	-15.758	-0.064	0.041
-460.070	-200.000	-0.002	0.061
-459.055	206.460	-0.133	0.208
-458.040	229.711	-0.161	-0.263
-457.026	258.562	0.095	-0.163
-456.011	147.360	0.186	0.251
-454.997	-95.306	0.162	0.044
-453.982	217.416	-0.174	0.277
-452.968	33.498	-0.149	-0.129
-451.953	310.834	0.147	-0.275
-450.938	-93.819	0.134	-0.037
-449.924	-180.243	0.272	-0.006
-448.909	-33.387	-0.134	-0.074
-447.895	-26.662	-0.140	-0.082
-446.880	-200.000	-0.004	-0.092
-445.865	-200.000	-0.020	0.140
-444.851	-45.178	0.240	-0.119
-443.836	341.136	-0.091	-0.179
-442.822	-139.749	0.292	0.031
-441.807	800.000	0.112	-0.392
-440.792	188.618	0.168	-0.251
-439.778	27.729	0.330	0.278
-438.763	-32.065	0.340	0.190
-437.749	188.847	0.045	-0.067
-436.734	-174.924	-0.170	0.005
-435.719	-110.634	0.168	0.035
-434.705	332.153	0.099	-0.191
-433.690	-200.000	-0.000	0.208
-432.676	-85.567	0.161	0.050
-431.661	-74.232	-0.157	-0.057
-430.646	-76.316	-0.135	0.048
-429.632	-65.552	-0.171	-0.069
-428.617	-200.000	-0.055	-0.438
-427.603	15.706	0.134	0.105
-426.588	-89.073	-0.299	0.088
-425.573	-37.621	-0.267	0.142
-424.559	-200.000	0.019	-0.158
-423.544	125.970	0.209	-0.264
-422.530	76.348	-0.159	-0.168
-421.515	-200.000	-0.059	-0.369
-420.500	-9.729	-0.066	-0.044
-419.486	-200.000	0.019	-0.342
-418.471	-90.154	-0.179	0.052
-417.457	146.734	0.303	-0.406
-416.442	-43.241	0.241	-0.122
-415.428	63.622	0.268	-0.268
-414.413	-92.570	-0.234	0.066
-413.398	104.692	-0.214	0.252
-412.384	-113.125	0.204	0.040
-411.369	99.782	0.137	-0.158
-410.355	307.419	0.066	-0.122
-409.340	-5.223	-0.130	-0.089
-408.325	-200.000	0.047	-0.239
-407.311	177.021	-0.188	0.273
-406.296	-200.000	0.012	0.340
-405.282	304.488	-0.148	0.274
-404.267	-200.000	0.062	0.404
-403.252	156.209	-0.035	0.048
-402.238	-200.000	-0.005	0.299
-401.223	-30.390	0.551	0.312
-400.209	800.000	0.046	-0.170
-399.194	-200.000	0.018	-0.312
-398.179	166.668	0.299	0.422
-397.165	19.854	-0.160	0.128
-396.150	1.045	0.256	-0.183
-395.136	-90.625	0.214	0.062
-394.121	-200.000	-0.002	0.086
-393.106	800.000	0.071	0.281
-392.092	-3.562	0.106	0.074
-391.077	79.067	-0.121	0.129
-390.063	-130.889	-0.234	-0.031
-389.048	231.060	0.103	0.168
-388.033	-200.000	0.004	-0.055
-387.019	-8.658	0.055	-0.037
-386.004	10.074	-0.144	0.109
-384.990	277.729	-0.135	0.239
-383.975	258.903	0.051	0.088
-382.960	-77.626	-0.167	-0.058
-381.946	-139.456	0.412	-0.044
-380.931	-140.187	-0.504	0.053
-379.917	-55.124	0.100	0.045
-378.902	-200.000	-0.067	0.498
-377.888	-200.000	0.023	0.109
-376.873	41.271	-0.043	-0.038
-375.858	14.305	-0.155	-0.121
-374.844	42.087	0.093	-0.084
-373.829	125.267	0.271	-0.341
-372.815	15.133	0.050	0.039
-371.800	-188.962	0.211	0.003
-370.785	538.734	-0.118	0.280
-369.771	800.000	-0.030	0.109
-368.756	-85.957	0.147	-0.045
-367.742	-25.575	0.115	0.068
-366.727	-78.106	0.161	-0.055
-365.712	-176.367	-0.119	-0.003
-364.698	443.914	0.071	0.156
-363.683	-90.807	-0.262	0.075
-362.669	41.356	0.123	0.110
-361.654	25.233	0.292	0.241
-360.639	265.236	-0.052	0.091
-359.625	-200.000	0.012	0.106
-358.610	358.009	0.256	0.509
-357.596	-97.600	0.523	-0.135
-356.581	544.960	-0.076	-0.181
-355.566	725.148	-0.037	0.097
-354.552	-200.000	-0.023	-0.612
-353.537	437.315	-0.147	0.318
-352.523	-14.968	-0.437	0.279
-351.508	-46.767	-0.354	-0.173
-350.493	-200.000	-0.006	-0.050
-349.479	-38.612	-0.067	0.035
-348.464	-10.528	-0.417	-0.275
-347.450	-137.456	0.165	0.019
-346.435	-200.000	0.009	-0.467
-345.420	22.998	0.098	-0.080
-344.406	0.554	-0.090	0.064
-343.391	44.153	0.259	-0.236
-342.377	-200.000	0.038	0.442
-341.362	25.724	0.036	-0.030
-340.348	-133.086	0.376	0.047
-339.333	-59.173	-0.336	-0.144
-338.318	-200.000	0.007	0.075
-337.304	383.306	-0.058	0.118
-336.289	186.534	0.120	-0.178
-335.275	272.378	0.065	-0.115
-334.260	-44.065	0.130	-0.065
-333.245	203.207	-0.086	0.133
-332.231	108.145	0.240	-0.285
-331.216	-84.147	-0.155	-0.049
-330.202	-200.000	-0.097	0.000
-329.187	287.460	-0.146	0.264
-328.172	37.491	-0.103	-0.091
-327.158	-78.289	0.481	-0.164
-326.143	800.000	0.050	0.180
-325.129	36.923	0.225	0.198
-324.114	-10.588	-0.282	0.186
-323.099	-92.339	-0.283	0.079
-322.085	-25.622	0.180	-0.106
-321.070	-155.471	-0.521	-0.033
-320.056	61.834	0.221	-0.219
-319.041	-200.000	-0.015	0.066
-318.026	155.412	0.177	0.242
-317.012	-34.549	0.032	-0.018
-315.997	-29.243	-0.122	0.070
-314.983	675.079	-0.058	0.150
-313.968	-136.198	-0.304	0.035
-312.953	52.905	-0.161	-0.153
-311.939	-200.000	0.022	0.156
-310.924	-200.000	0.025	-0.123
-309.910	-200.000	-0.001	0.014
-308.895	-176.407	0.214	0.006
-307.880	86.486	0.192	0.210
-306.866	800.000	0.032	0.136
-305.851	110.870	0.144	0.173
-304.837	546.312	-0.123	-0.292
-303.822	-24.750	-0.254	-0.150
-302.807	-171.226	-0.063	0.002
-301.793	2.393	-0.067	-0.048
-300.778	-128.530	0.131	0.018
-299.764	-200.000	0.038	0.219
-298.749	747.945	-0.134	-0.359
-297.735	-129.567	-0.162	-0.022
-296.720	570.282	0.047	-0.114
-295.705	-97.105	-0.510	-0.133
-294.691	-200.000	-0.005	0.042
-293.676	-91.598	-0.100	-0.028
-292.662	-49.165	0.184	0.087
-291.647	-26.098	0.082	0.048
-290.632	75.493	-0.196	0.205
-289.618	-182.545	-0.289	-0.005
-288.603	-151.808	0.035	0.003
-287.589	-200.000	-0.001	-0.074
-286.574	-47.318	0.438	0.212
-285.559	-200.000	0.016	-0.113
-284.545	-92.426	-0.274	0.077
-283.530	-200.000	0.031	-0.299
-282.516	-117.917	0.381	0.068
-281.501	-200.000	-0.093	0.579
-280.486	411.282	-0.095	0.199
-279.472	274.465	-0.115	-0.202
-278.457	415.769	0.074	-0.156
-277.443	212.099	0.081	0.126
-276.428	109.511	-0.191	0.227
-275.413	-4.266	-0.004	-0.003
-274.399	304.313	0.037	-0.069
-273.384	-72.870	-0.109	-0.040
-272.370	271.318	0.085	0.149
-271.355	181.971	0.171	-0.251
-270.340	-104.460	0.192	0.044
-269.326	-200.000	-0.009	-0.071
-268.311	-200.000	0.027	0.234
-267.297	-200.000	-0.063	0.524
-266.282	-120.515	0.231	-0.039
-265.267	272.327	0.135	0.237
-264.253	-134.752	0.412	-0.050
-263.238	-85.186	0.324	-0.101
-262.224	-200.000	0.001	0.126
-261.209	800.000	-0.043	0.129
-260.195	-200.000	0.070	-0.360
-259.180	-200.000	-0.020	-0.127
-258.165	-200.000	0.007	0.038
-257.151	-127.139	0.388	-0.056
-256.136	19.713	0.210	0.168
-255.122	-200.000	0.006	0.058
-254.107	-200.000	-0.004	0.181
-253.092	477.649	-0.117	-0.264
-252.078	-88.296	-0.112	-0.033
-251.063	-200.000	0.022	0.263
-250.049	96.993	-0.172	-0.195
-249.034	4.919	0.118	-0.086
-248.019	59.426	0.291	0.284
-247.005	-55.075	-0.255	0.114
-245.990	23.039	0.086	0.070
-244.976	-200.000	0.055	0.373
-243.961	168.969	0.176	0.249
-242.946	-39.802	-0.197	0.102
-241.932	77.610	0.143	0.151
-240.917	62.995	-0.112	-0.111
-239.903	275.301	-0.092	-0.162
-238.888	-200.000	0.006	0.196
-237.873	88.527	0.042	-0.046
-236.859	-189.471	0.174	0.002
-235.844	385.240	-0.111	-0.227
-234.830	-105.816	-0.163	-0.037
-233.815	-148.378	0.302	-0.025
-232.800	-109.853	-0.315	-0.066
-231.786	-56.929	-0.244	-0.107
-230.771	123.097	-0.067	-0.084
-229.757	-0.707	-0.142	0.100
-228.742	-188.818	0.473	0.006
-227.727	-200.000	0.003	-0.031
-226.713	-200.000	0.011	0.178
-225.698	-200.000	-0.025	-0.140
-224.684	-54.939	-0.117	-0.052
-223.669	14.886	-0.304	-0.236
-222.655	-130.728	-0.347	0.046
-221.640	336.028	0.072	0.137
-220.625	102.277	0.137	-0.158
-219.611	32.621	0.165	-0.141
-218.596	-19.233	-0.179	-0.110
-217.582	32.548	0.185	0.158
-216.567	415.614	0.081	0.171
-215.552	447.451	0.108	-0.236
-214.538	-129.556	0.279	-0.038
-213.523	318.390	-0.058	0.108
-212.509	-168.206	0.362	0.014
-211.494	153.541	0.155	0.210
-210.479	41.039	-0.409	0.366
-209.465	646.859	-0.029	-0.073
-208.450	-200.000	0.031	0.218
-207.436	-130.824	-0.139	0.018
-206.421	-152.898	0.185	0.013
-205.406	-92.381	0.333	0.093
-204.392	-95.820	0.137	-0.036
-203.377	-200.000	-0.014	0.092
-202.363	285.617	-0.087	0.155
-201.348	800.000	0.059	0.200
-200.333	-29.431	-0.179	-0.101
-199.319	88.596	0.117	0.128
-198.304	-87.680	-0.144	-0.043
-197.290	-66.317	0.256	-0.101
-196.275	153.176	-0.094	-0.127
-195.260	-28.067	0.260	-0.149
-194.246	-140.141	0.303	-0.032
-193.231	-0.525	0.374	0.263
-192.217	-21.513	0.180	-0.109
-191.202	116.240	-0.102	0.124
-190.187	-7.733	-0.381	0.255
-189.173	800.000	-0.090	0.327
-188.158	181.171	0.197	0.286
-187.144	-61.545	-0.180	0.075
-186.129	800.000	-0.073	-0.205
-185.114	714.740	-0.099	0.261
-184.100	-21.895	0.257	-0.155
-183.085	351.071	0.103	0.202
-182.071	283.537	0.087	-0.154
-181.056	-200.000	0.011	-0.417
-180.042	-179.907	-0.108	-0.002
-179.027	-98.403	0.149	0.038
-178.012	-43.377	-0.087	-0.044
-176.998	-200.000	0.070	0.437
-175.983	105.320	0.181	0.212
-174.969	97.661	-0.123	0.140
-173.954	-200.000	0.005	-0.317
-172.939	82.410	-0.132	-0.141
-171.925	-200.000	0.022	-0.154
-170.910	300.325	0.049	-0.089
-169.896	-72.817	-0.544	0.198
-168.881	194.465	-0.066	-0.098
-167.866	138.302	0.120	0.156
-166.852	-107.486	-0.003	-0.001
-165.837	800.000	0.061	-0.175
-164.823	-23.501	0.174	0.104
-163.808	-10.353	0.165	-0.108
-162.793	-151.808	-0.088	0.006
-161.779	-200.000	-0.019	-0.293
-160.764	-60.981	-0.395	0.165
-159.750	-200.000	-0.038	0.420
-158.735	63.262	0.103	-0.102
-157.720	-93.732	-0.183	0.050
-156.706	383.746	0.096	-0.195
-155.691	-15.576	0.401	0.253
-154.677	535.554	-0.041	-0.096
-153.662	22.082	0.147	-0.118
-152.647	800.000	-0.045	-0.161
-151.633	-200.000	0.009	0.287
-150.618	-85.774	0.251	-0.077
-149.604	-97.443	-0.129	0.033
-148.589	107.936	-0.140	0.165
-147.574	-34.307	-0.240	0.130
-146.560	-97.554	0.139	0.036
-145.545	-114.650	0.212	-0.040
-144.531	381.905	-0.189	-0.383
-143.516	259.031	0.199	0.339
-142.502	-151.898	0.197	-0.014
-141.487	-91.285	0.354	0.100
-140.472	-200.000	0.015	0.094
-139.458	-102.539	-0.152	-0.036
-138.443	206.312	-0.144	-0.221
-137.429	-118.999	-0.251	-0.043
-136.414	-97.563	-0.261	0.067
-135.399	-32.003	0.180	-0.099
-134.385	-114.562	-0.201	0.038
-133.370	120.966	0.035	0.043
-132.356	116.875	-0.215	-0.260
-131.341	135.929	-0.093	0.120
-130.326	-200.000	-0.004	-0.192
-129.312	372.969	-0.122	-0.245
-128.297	-200.000	0.012	0.090
-127.283	35.246	0.023	0.020
-126.268	-32.051	-0.313	0.173
-125.253	246.027	-0.194	-0.323
-124.239	68.320	0.261	0.264
-123.224	-9.715	0.231	0.152
-122.210	36.647	-0.041	-0.036
-121.195	158.987	0.052	0.071
-120.180	519.997	-0.039	0.090
-119.166	-200.000	0.028	0.132
-118.151	-200.000	0.010	-0.153
-117.137	-200.000	0.036	-0.175
-116.122	89.918	-0.014	0.015
-115.107	11.443	0.153	-0.116
-114.093	261.061	-0.101	-0.172
-113.078	-134.569	0.031	0.004
-112.064	5.802	0.128	-0.093
-111.049	514.392	-0.069	-0.159
-110.034	15.939	0.033	-0.025
-109.020	179.031	-0.064	0.092
-108.005	-28.559	-0.195	0.111
-106.991	800.000	-0.039	-0.140
-105.976	-200.000	-0.086	-0.590
-104.962	-200.000	0.024	0.229
-103.947	-26.461	-0.266	-0.154
-102.932	800.000	0.017	-0.058
-101.918	268.316	-0.082	0.141
-100.903	-200.000	0.022	0.178
-99.889	642.966	0.049	0.122
-98.874	-126.979	0.442	0.064
-97.859	-127.283	-0.263	0.038
-96.845	-200.000	-0.020	0.109
-95.830	23.400	0.145	0.117
-94.816	600.981	0.144	0.354
-93.801	257.010	-0.092	0.156
-92.786	-35.090	-0.476	0.256
-91.772	449.502	0.044	0.096
-90.757	-20.407	0.129	-0.078
-89.743	-177.199	0.261	0.006
-88.728	127.416	-0.159	0.198
-87.713	72.635	0.035	-0.036
-86.699	481.855	-0.133	-0.298
-85.684	-16.963	0.055	-0.034
-84.670	-200.000	-0.052	0.260
-83.655	488.460	0.064	0.143
-82.640	-200.000	-0.076	0.338
-81.626	342.822	-0.141	0.273
-80.611	-106.525	-0.176	-0.039
-79.597	-113.869	-0.221	0.042
-78.582	328.278	-0.052	-0.099
-77.567	-12.679	-0.149	0.096
-76.553	-200.000	-0.046	0.278
-75.538	-200.000	-0.005	-0.137
-74.524	-33.159	-0.505	0.276
-73.509	572.434	-0.129	0.310
-72.494	-31.236	0.281	-0.156
-71.480	11.125	-0.234	0.176
-70.465	-60.855	0.210	0.088
-69.451	107.166	-0.279	-0.327
-68.436	-33.904	0.199	0.108
-67.422	16.233	-0.070	0.054
-66.407	139.752	-0.165	-0.215
-65.392	-200.000	-0.020	-0.337
-64.378	302.961	-0.144	0.262
-63.363	-109.900	-0.195	-0.040
-62.349	-200.000	0.003	0.073
-61.334	-29.846	-1.299	-0.729
-60.319	63.725	0.358	0.355
-59.305	678.523	-0.446	-1.141
-58.290	800.000	0.380	1.246
-57.276	376.756	0.771	1.550
-56.261	-200.000	96.553	572.879
-55.246	545.549	1379.097	3244.832
-54.232	159.934	2554.745	3503.890
-53.217	110.592	2162.073	2559.019
-52.203	43.275	1707.249	1534.645
-51.188	36.301	1521.036	1319.729
-50.173	33.922	1493.882	1280.114
-49.159	52.847	1542.111	1451.356
-48.144	54.487	1560.790	1480.111
-47.130	36.389	1519.782	1319.033
-46.115	33.367	1505.246	1285.880
-45.100	33.148	1501.714	1281.327
-44.086	33.047	1500.194	1279.297
-43.071	33.045	1498.048	1277.404
-42.057	33.008	1496.642	1275.903
-41.042	33.078	1494.963	1274.897
-40.027	33.141	1493.312	1273.858
-39.013	33.031	1492.339	1272.236
-37.998	33.067	1491.064	1271.342
-36.984	33.039	1490.020	1270.213
-35.969	33.126	1488.521	1269.467
-34.954	33.132	1487.399	1268.500
-33.940	33.144	1485.335	1266.773
-32.925	33.050	1484.374	1265.271
-31.911	33.171	1482.772	1264.666
-30.896	33.158	1481.488	1263.436
-29.881	33.186	1480.072	1262.361
-28.867	33.091	1478.974	1260.742
-27.852	33.121	1477.310	1259.477
-26.838	33.081	1476.270	1258.271
-25.823	33.091	1474.969	1257.179
-24.809	32.989	1473.012	1254.788
-23.794	33.078	1471.728	1254.232
-22.779	33.074	1470.419	1253.040
-21.765	33.092	1469.726	1252.516
-20.750	33.101	1468.157	1251.189
-19.736	33.033	1467.333	1249.992
-18.721	33.105	1466.389	1249.613
-17.706	33.194	1464.511	1248.552
-16.692	33.068	1463.735	1247.006
-15.677	33.080	1462.766	1246.214
-14.663	33.075	1461.976	1245.458
-13.648	33.023	1461.203	1244.406
-12.633	32.899	1460.310	1242.777
-11.619	33.045	1459.159	1242.713
-10.604	33.035	1458.403	1241.949
-9.590	33.006	1457.567	1241.000
-8.575	33.093	1456.305	1240.447
-7.560	32.900	1456.126	1238.977
-6.546	32.977	1454.591	1238.127
-5.531	32.999	1453.930	1237.658
-4.517	32.880	1453.533	1236.491
-3.502	32.987	1452.352	1236.143
-2.487	33.038	1450.987	1235.264
-1.473	32.976	1450.211	1234.148
-0.458	32.992	1448.460	1232.712
0.556	33.533	1438.847	1221.211
1.571	30.727	1414.963	1183.026
2.586	27.598	1360.853	1118.516
3.600	26.187	1282.916	1046.196
4.615	24.848	1235.621	1000.061
5.629	21.352	1178.244	934.877
6.644	11.283	1090.937	815.410
7.659	3.473	1047.745	745.419
8.673	2.249	1042.587	735.796
9.688	2.018	1039.270	732.280
10.702	2.049	1037.229	730.928
11.717	2.074	1035.844	730.008
12.731	5.732	1040.222	750.570
13.746	15.745	1054.132	808.915
14.761	23.303	1063.697	852.720
15.775	25.137	1065.780	863.151
16.790	25.364	1065.270	863.757
17.804	25.149	1064.205	861.783
18.819	24.992	1063.926	860.725
19.834	25.168	1062.737	860.533
20.848	25.340	1062.497	861.088
21.863	25.287	1062.357	860.643
22.877	25.267	1061.960	860.148
23.892	25.332	1061.079	859.670
24.907	25.172	1060.311	858.206
25.921	25.158	1059.730	857.593
26.936	25.250	1059.033	857.393
27.950	25.253	1057.708	856.260
28.965	25.266	1056.555	855.310
29.980	25.117	1055.232	853.457
30.994	25.160	1054.297	852.830
32.009	25.242	1053.412	852.425
33.023	25.334	1052.753	852.253
34.038	25.160	1051.536	850.370
35.053	25.108	1050.734	849.400
36.067	25.283	1050.281	849.785
37.082	25.270	1049.198	848.772
38.096	25.329	1048.470	848.387
39.111	25.488	1047.984	848.672
40.126	25.586	1047.391	848.577
41.140	25.448	1046.021	846.744
42.155	25.186	1044.776	844.428
43.169	24.863	1043.380	841.706
44.184	24.775	1042.569	840.565
45.199	24.922	1041.713	840.487
46.213	24.877	1040.462	839.193
47.228	24.904	1039.754	838.677
48.242	24.930	1039.371	838.415
49.257	25.185	1038.567	838.882
50.271	25.166	1037.731	838.045
51.286	25.317	1037.159	838.214
52.301	25.310	1036.328	837.436
53.315	25.309	1035.690	836.843
54.330	25.290	1034.956	836.085
55.344	25.242	1034.142	835.132
56.359	25.286	1033.123	834.441
57.374	25.285	1032.117	833.549
58.388	25.061	1031.240	831.729
59.403	25.043	1030.497	830.971
60.417	25.033	1030.006	830.453
61.432	24.773	1029.163	828.496
62.447	24.919	1028.770	828.783
63.461	25.017	1027.834	828.409
64.476	25.044	1027.358	828.078
65.490	25.063	1026.541	827.435
66.505	24.972	1025.003	825.700
67.520	25.000	1024.531	825.377
68.534	25.005	1023.797	824.733
69.549	24.833	1022.890	823.139
70.563	24.626	1021.482	820.981
71.578	24.428	1021.282	819.842
72.593	24.434	1020.578	819.230
73.607	24.372	1018.592	817.281
74.622	24.349	1017.968	816.601
75.636	24.723	1017.422	817.800
76.651	24.848	1016.554	817.605
77.666	24.762	1015.752	816.493
78.680	24.688	1014.809	815.326
79.695	24.577	1014.361	814.388
80.709	24.792	1013.449	814.563
81.724	24.781	1013.051	814.122
82.739	24.858	1012.251	813.755
83.753	24.853	1011.425	812.995
84.768	25.218	1010.520	813.855
85.782	25.459	1010.494	814.854
86.797	25.666	1009.508	814.922
87.812	25.553	1008.862	813.820
88.826	25.419	1008.068	812.499
89.841	25.423	1007.166	811.720
90.855	25.706	1005.921	811.923
91.870	25.498	1005.257	810.376
92.884	25.440	1004.788	809.665
93.899	25.285	1004.128	808.364
94.914	25.323	1002.661	807.282
95.928	25.455	1002.052	807.311
96.943	25.537	1000.947	806.717
97.957	25.229	999.972	804.479
98.972	24.843	998.788	801.727
99.987	24.746	997.926	800.533
101.001	24.793	997.554	800.372
102.016	25.189	996.722	801.405
103.030	25.221	996.303	801.137
104.045	25.158	994.678	799.478
105.060	25.045	993.647	798.078
106.074	24.879	992.751	796.549
107.089	24.793	992.182	795.641
108.103	25.224	991.603	797.019
109.118	25.232	990.676	796.238
110.133	25.018	989.281	794.102
111.147	25.033	988.251	793.269
112.162	24.865	987.416	791.787
113.176	24.615	986.744	790.070
114.191	24.871	985.527	790.156
115.206	24.971	984.704	789.869
116.220	24.643	983.487	787.380
117.235	24.425	983.039	785.988
118.249	24.702	981.824	786.169
119.264	24.575	981.345	785.155
120.279	24.635	980.364	784.564
121.293	24.425	979.992	783.275
122.308	24.635	978.935	783.284
123.322	24.607	978.340	782.615
124.337	24.631	977.160	781.705
125.352	24.547	976.082	780.405
126.366	24.156	974.292	777.202
127.381	23.839	973.435	775.065
128.395	24.324	973.258	776.973
129.410	25.068	972.526	779.556
130.424	25.181	972.125	779.655
131.439	25.037	971.232	778.244
132.454	25.026	970.185	777.290
133.468	25.071	969.475	776.847
134.483	25.061	968.511	775.964
135.497	25.157	967.903	775.822
136.512	25.373	967.251	776.166
137.527	25.356	966.856	775.706
138.541	25.437	966.001	775.302
139.556	25.389	965.143	774.338
140.570	25.394	964.057	773.420
141.585	25.467	963.274	773.036
142.600	25.505	963.046	772.950
143.614	25.347	961.708	771.128
144.629	25.510	961.113	771.281
145.643	25.713	960.677	771.736
146.658	25.518	959.752	770.087
147.673	25.418	958.255	768.393
148.687	25.295	957.332	767.055
149.702	25.366	956.360	766.512
150.716	25.233	955.374	765.086
151.731	25.076	954.489	763.643
152.746	25.253	953.712	763.708
153.760	25.413	953.288	763.981
154.775	25.388	952.739	763.367
155.789	25.614	951.565	763.319
156.804	25.671	950.617	762.731
157.819	25.587	949.344	761.287
158.833	25.504	949.023	760.612
159.848	25.675	948.387	760.758
160.862	25.681	947.534	760.031
161.877	25.729	946.298	759.174
162.892	25.652	945.568	758.199
163.906	25.583	945.034	757.410
164.921	25.508	944.213	756.371
165.935	25.456	942.691	754.866
166.950	25.559	941.757	754.486
167.964	25.551	941.422	754.117
168.979	25.583	940.246	753.240
169.994	25.525	939.267	752.145
171.008	25.351	937.986	750.328
172.023	25.437	937.948	750.590
173.037	25.707	936.860	750.778
174.052	25.569	935.578	749.110
175.067	25.249	934.883	747.154
176.081	25.214	934.044	746.272
177.096	25.370	933.364	746.314
178.110	25.315	932.406	745.252
179.125	24.965	931.408	742.936
180.140	24.967	930.460	742.126
181.154	24.966	929.434	741.235
182.169	25.093	929.368	741.643
183.183	25.168	929.134	741.699
184.198	25.537	928.595	742.730
185.213	25.462	927.940	741.832
186.227	25.445	927.000	740.941
187.242	25.542	926.553	740.920
188.256	25.657	925.606	740.572
189.271	25.590	924.980	739.728
190.286	25.638	924.261	739.286
191.300	25.452	923.438	737.798
192.315	24.987	922.004	734.681
193.329	24.237	920.425	730.284
194.344	23.855	919.132	727.630
195.359	24.471	919.369	730.274
196.373	25.281	919.924	733.965
197.388	25.483	919.666	734.523
198.402	25.569	918.945	734.233
199.417	25.387	918.533	733.095
200.432	25.468	917.937	732.885
201.446	25.378	916.604	731.389
202.461	25.096	915.958	729.661
203.475	25.105	915.511	729.274
204.490	24.807	914.214	726.967
205.504	23.682	912.307	720.823
206.519	23.996	912.091	721.862
207.534	24.974	912.383	725.997
208.548	25.067	911.818	725.859
209.563	25.486	911.596	727.315
210.577	25.343	910.895	726.111
211.592	25.164	910.310	724.856
212.607	25.448	909.968	725.669
213.621	25.691	909.381	726.116
214.636	25.635	909.137	725.632
215.650	25.547	908.346	724.582
216.665	25.637	907.558	724.253
217.680	25.613	907.073	723.705
218.694	25.600	906.865	723.422
219.709	25.350	905.908	721.592
220.723	24.972	904.792	719.119
221.738	25.232	904.526	719.890
222.753	25.346	904.044	719.898
223.767	25.535	902.935	719.709
224.782	25.517	902.446	719.182
225.796	25.681	901.729	719.201
226.811	25.793	901.113	719.094
227.826	25.393	900.069	716.604
228.840	24.725	898.357	712.516
229.855	24.516	897.637	711.051
230.869	24.774	897.478	711.890
231.884	24.524	896.636	710.161
232.899	24.437	896.179	709.393
233.913	25.175	896.180	712.261
234.928	25.411	895.632	712.699
235.942	25.257	895.424	711.859
236.957	25.367	894.581	711.564
237.972	25.005	893.679	709.350
238.986	24.978	893.121	708.737
240.001	25.193	892.099	708.714
241.015	25.101	891.772	708.029
242.030	25.242	891.187	708.057
243.045	25.337	890.763	708.031
244.059	25.379	890.143	707.643
245.074	25.575	889.829	708.102
246.088	25.594	888.559	707.104
247.103	25.130	888.241	704.963
248.117	25.016	887.733	704.051
249.132	25.803	887.684	707.038
250.147	25.939	888.054	707.807
251.161	26.122	887.078	707.683
252.176	26.330	886.954	708.336
253.190	26.501	885.517	707.796
254.205	26.464	884.905	707.100
255.220	26.538	884.967	707.373
256.234	26.422	884.567	706.540
257.249	26.537	883.539	706.104
258.263	26.253	883.133	704.610
259.278	26.191	882.933	704.147
260.293	26.450	882.136	704.457
261.307	26.516	881.593	704.219
262.322	26.313	881.263	703.103
263.336	26.236	880.062	701.782
264.351	25.821	878.747	699.061
265.366	24.707	876.925	693.233
266.380	24.218	875.988	690.539
267.395	25.015	876.711	694.135
268.409	26.023	876.742	698.000
269.424	25.873	875.778	696.592
270.439	25.972	875.434	696.641
271.453	26.018	875.327	696.671
272.468	26.186	874.007	696.206
273.482	26.309	873.842	696.487
274.497	26.459	873.502	696.731
275.512	26.178	872.549	694.831
276.526	25.708	871.198	691.887
277.541	25.725	870.828	691.597
278.555	26.170	870.835	693.251
279.570	25.972	869.991	691.758
280.585	25.775	869.058	690.199
281.599	25.791	868.995	690.151
282.614	26.007	868.274	690.344
283.628	25.674	867.047	688.034
284.643	25.243	866.104	685.579
285.657	25.546	866.511	686.998
286.672	25.533	865.690	686.236
287.687	25.072	864.414	683.406
288.701	25.590	864.170	685.126
289.716	25.765	864.212	685.766
290.730	25.679	863.147	684.533
291.745	25.302	862.321	682.385
292.760	25.138	861.617	681.145
293.774	25.002	861.045	680.114
294.789	26.096	861.374	684.466
295.803	26.744	861.603	687.046
296.818	26.621	861.458	686.404
297.833	26.704	860.704	686.055
298.847	26.353	859.583	683.772
299.862	26.273	858.158	682.279
300.876	26.312	858.173	682.377
301.891	26.527	857.801	682.830
302.906	26.750	856.994	682.968
303.920	26.322	856.023	680.523
304.935	26.129	855.733	679.507
305.949	26.447	855.338	680.330
306.964	26.813	854.830	681.241
307.979	26.487	853.536	678.926
308.993	26.343	853.907	678.620
310.008	26.706	853.379	679.502
311.022	26.740	853.030	679.290
312.037	26.658	852.281	678.329
313.052	26.417	851.828	677.007
314.066	26.365	850.983	676.078
315.081	25.465	849.513	671.492
316.095	24.866	848.163	668.130
317.110	25.564	848.437	670.889
318.125	26.346	848.479	673.781
319.139	25.979	847.569	671.630
320.154	24.818	845.869	665.906
321.168	24.289	844.780	663.024
322.183	24.863	845.737	665.852
323.197	25.820	845.709	669.329
324.212	26.277	845.445	670.757
325.227	26.439	844.627	670.650
326.241	26.499	844.446	670.670
327.256	26.411	843.769	669.746
328.270	26.167	843.376	668.472
329.285	26.225	842.808	668.176
330.300	25.997	841.930	666.579
331.314	25.848	840.982	665.220
332.329	25.905	840.447	664.949
333.343	26.354	840.308	666.436
334.358	26.690	839.656	667.096
335.373	26.461	839.338	665.943
336.387	26.665	838.666	666.102
337.402	26.782	838.747	666.535
338.416	26.946	837.956	666.452
339.431	27.022	837.429	666.250
340.446	26.980	837.181	665.841
341.460	27.130	836.815	666.043
342.475	27.124	835.933	665.258
343.489	27.021	834.919	664.016
344.504	26.895	834.501	663.165
345.519	27.218	834.416	664.217
346.533	27.518	833.804	664.767
347.548	27.479	833.291	664.158
348.562	27.481	833.159	664.000
349.577	27.384	832.833	663.327
350.592	27.389	831.816	662.477
351.606	27.183	831.308	661.267
352.621	27.284	831.196	661.484
353.635	27.164	830.585	660.503
354.650	26.997	830.024	659.392
355.665	26.804	828.851	657.704
356.679	25.787	827.179	652.635
357.694	25.446	827.452	651.558
358.708	26.339	826.659	654.106
359.723	26.344	826.009	653.553
360.738	26.402	826.259	653.901
361.752	26.849	825.860	655.143
362.767	26.812	826.141	655.174
363.781	27.287	825.552	656.364
364.796	27.554	825.377	657.132
365.810	27.636	824.570	656.725
366.825	27.781	824.711	657.303
367.840	27.699	824.352	656.661
368.854	27.466	823.708	655.252
369.869	27.256	822.660	653.607
370.883	26.995	821.754	651.893
371.898	27.348	821.094	652.578
372.913	27.073	820.500	651.063
373.927	27.054	820.025	650.558
374.942	27.328	819.116	650.762
375.956	27.307	819.188	650.684
376.971	27.327	818.209	649.922
377.986	27.484	818.135	650.365
379.000	27.750	817.507	650.757
380.015	27.762	816.915	650.272
381.029	27.465	816.638	648.935
382.044	27.439	815.835	648.149
383.059	27.704	815.274	648.587
384.073	27.688	814.763	648.067
385.088	27.708	814.046	647.510
386.102	27.641	814.011	647.186
387.117	27.623	812.735	646.049
388.132	27.400	812.680	645.160
389.146	27.113	812.345	643.818
390.161	26.703	811.065	641.298
391.175	26.605	810.928	640.785
392.190	27.334	810.780	643.189
393.205	27.531	810.058	643.255
394.219	26.345	808.423	637.721
395.234	24.667	806.300	630.077
396.248	23.941	805.186	626.596
397.263	24.773	806.444	630.454
398.278	26.796	807.306	638.200
399.292	27.325	807.158	639.888
400.307	26.950	806.045	637.632
401.321	26.990	805.997	637.676
402.336	27.009	805.954	637.655
403.350	27.246	806.048	638.504
404.365	27.799	805.509	639.960
405.380	28.114	805.261	640.811
406.394	28.479	805.311	642.073
407.409	28.358	804.951	641.303
408.423	28.517	804.235	641.234
409.438	28.312	803.886	640.182
410.453	28.211	803.431	639.412
411.467	28.374	803.271	639.795
412.482	28.378	802.436	639.090
413.496	28.330	801.547	638.157
414.511	28.490	801.365	638.514
415.526	28.371	801.081	637.816
416.540	28.364	800.572	637.330
417.555	28.280	800.138	636.637
418.569	28.194	799.342	635.649
419.584	27.952	798.792	634.314
420.599	28.038	798.086	633.994
421.613	111.022	1284.058	1455.926
422.628	95.750	1354.854	1456.079
