DTS Sentinel unit serial number:	SN413079Multiplexer serial number:	ORYXHardware model number:	OX4-SRSoftware version number:	ORYX F/W v4.00 Oryx Data Collector v3.7.2.0data status	okinstallation	princeton_trtdifferential loss correction	single-endedforward channel	channel 3reverse channel	N/Adate	2019/09/10time	22:54:11forward acquisition time	60.00reverse acquisition time	0.00gamma	496.2192k internal	0.2331k external	0.2331temperature offset calibration	0.9919default loss term (dB/km)	0.3790temperature slope calibration	1.0000multiplexer offset coefficient	1.0000multiplexer slope coefficient	1.0000fibre end	0.00T internal ref (°C)	30.12T ext. ref 1 (°C)	-0.31T ext. ref 2 (°C)	23.43length (m)	temperature (°C)	Stokes	anti-Stokes-747.200	-93.439	-0.327	-0.091
-746.185	-200.000	0.003	0.283
-745.171	275.102	-0.030	0.054
-744.156	-200.000	-0.057	0.337
-743.142	800.000	0.058	-0.168
-742.127	800.000	-0.081	0.296
-741.112	800.000	-0.061	0.228
-740.098	4.823	-0.337	0.250
-739.083	-26.449	0.226	0.134
-738.069	442.052	0.057	0.126
-737.054	31.266	-0.138	-0.119
-736.039	-115.058	-0.277	0.053
-735.025	-174.329	0.329	-0.010
-734.010	-94.722	-0.129	0.035
-732.996	3.971	0.109	0.080
-731.981	141.013	0.054	-0.072
-730.966	-136.284	0.323	-0.038
-729.952	-148.545	-0.089	-0.007
-728.937	92.398	-0.296	-0.336
-727.923	-200.000	0.070	0.340
-726.908	143.677	-0.157	0.210
-725.894	-98.895	-0.091	-0.023
-724.879	76.453	-0.209	0.223
-723.864	556.086	0.070	-0.171
-722.850	184.348	0.187	0.278
-721.835	800.000	-0.028	0.121
-720.821	7.517	0.199	0.150
-719.806	-73.974	-0.131	-0.048
-718.791	-49.520	0.096	-0.046
-717.777	-178.784	0.194	-0.004
-716.762	-78.372	0.222	-0.077
-715.748	-45.440	0.064	0.032
-714.733	-200.000	-0.045	0.287
-713.718	-114.883	-0.135	-0.026
-712.704	-200.000	-0.003	0.056
-711.689	-29.725	-0.088	0.051
-710.675	-200.000	-0.053	0.327
-709.660	-18.725	0.228	0.143
-708.645	800.000	0.041	-0.137
-707.631	25.828	-0.109	-0.091
-706.616	58.907	-0.276	0.273
-705.602	610.745	0.188	0.471
-704.587	-41.720	-0.198	0.102
-703.572	-157.820	0.247	0.015
-702.558	-74.292	0.150	-0.055
-701.543	-57.643	0.366	-0.161
-700.529	561.719	-0.066	0.160
-699.514	-200.000	0.006	0.040
-698.499	-200.000	0.047	0.243
-697.485	-20.467	-0.118	0.073
-696.470	-16.819	-0.283	0.179
-695.456	-147.554	-0.098	-0.008
-694.441	198.435	0.046	-0.071
-693.426	586.731	-0.059	-0.146
-692.412	167.539	0.148	0.211
-691.397	82.969	-0.051	-0.055
-690.383	-87.233	0.105	0.032
-689.368	800.000	0.064	-0.187
-688.354	172.162	0.020	-0.029
-687.339	-186.523	-0.104	-0.001
-686.324	-32.964	-0.148	0.082
-685.310	-18.784	-0.239	-0.149
-684.295	31.807	0.193	0.167
-683.281	-42.287	-0.259	-0.133
-682.266	-157.241	-0.148	0.009
-681.251	14.159	0.109	-0.085
-680.237	-200.000	-0.041	-0.257
-679.222	45.767	0.279	-0.259
-678.208	-16.528	-0.256	-0.163
-677.193	-0.759	-0.239	0.170
-676.178	-128.408	0.115	0.016
-675.164	298.965	-0.111	0.205
-674.149	353.707	0.133	-0.265
-673.135	20.922	-0.242	-0.197
-672.120	-60.384	-0.382	0.163
-671.105	800.000	-0.043	0.178
-670.091	35.697	0.420	0.370
-669.076	800.000	-0.050	0.172
-668.062	-55.680	-0.199	0.089
-667.047	-127.475	0.164	-0.024
-666.032	-200.000	-0.012	0.118
-665.018	-49.543	0.239	0.114
-664.003	-96.865	-0.243	0.064
-662.989	231.907	-0.183	0.301
-661.974	253.905	-0.152	0.261
-660.959	-95.047	-0.202	0.055
-659.945	-81.129	-0.252	-0.084
-658.930	261.932	-0.127	0.220
-657.916	-152.286	-0.362	-0.026
-656.901	-128.457	0.108	-0.015
-655.886	11.597	-0.215	0.165
-654.872	128.206	0.170	0.216
-653.857	25.500	-0.257	0.215
-652.843	-89.400	0.178	0.053
-651.828	171.029	-0.276	0.396
-650.814	-200.000	0.006	-0.175
-649.799	176.915	-0.074	-0.107
-648.784	231.171	-0.083	0.136
-647.770	-133.728	0.262	0.033
-646.755	-200.000	-0.024	-0.216
-645.741	800.000	-0.045	-0.193
-644.726	-200.000	-0.011	-0.068
-643.711	-152.833	0.640	-0.045
-642.697	84.115	0.102	0.112
-641.682	-200.000	-0.038	-0.284
-640.668	615.396	-0.114	-0.287
-639.653	-19.705	0.361	0.224
-638.638	136.717	0.149	0.196
-637.624	576.987	-0.097	-0.237
-636.609	-200.000	0.038	0.381
-635.595	185.371	-0.182	-0.271
-634.580	-75.923	0.233	-0.083
-633.565	-200.000	-0.017	-0.101
-632.551	-200.000	0.028	0.246
-631.536	36.234	-0.073	0.064
-630.522	-173.273	-0.253	-0.008
-629.507	800.000	0.083	-0.245
-628.492	430.431	-0.173	-0.375
-627.478	1.438	0.204	-0.147
-626.463	93.994	0.164	0.187
-625.449	800.000	0.040	0.140
-624.434	-122.987	0.024	-0.004
-623.419	800.000	0.029	0.089
-622.405	-81.530	0.404	0.133
-621.390	-200.000	0.029	-0.139
-620.376	-13.720	0.122	-0.079
-619.361	124.971	-0.085	-0.108
-618.346	24.951	-0.120	0.100
-617.332	-79.335	0.311	-0.105
-616.317	-134.180	-0.304	-0.038
-615.303	-42.157	-0.204	-0.104
-614.288	800.000	0.115	-0.477
-613.273	800.000	-0.041	-0.168
-612.259	174.072	-0.073	0.106
-611.244	172.498	0.101	0.146
-610.230	-200.000	-0.015	-0.189
-609.215	-78.158	-0.126	0.043
-608.201	400.486	0.055	0.116
-607.186	2.285	-0.107	0.078
-606.171	-104.773	0.113	0.026
-605.157	-74.623	-0.391	0.141
-604.142	655.467	-0.158	0.406
-603.128	44.407	-0.372	-0.342
-602.113	-200.000	-0.021	-0.289
-601.098	50.686	-0.108	0.102
-600.084	437.214	0.099	0.215
-599.069	-200.000	0.021	-0.300
-598.055	-134.930	0.210	-0.025
-597.040	556.765	0.116	-0.281
-596.025	426.563	0.032	-0.070
-595.011	-131.619	0.325	-0.043
-593.996	-54.007	-0.154	-0.070
-592.982	-88.996	-0.324	0.096
-591.967	-200.000	0.002	-0.361
-590.952	-60.413	-0.277	0.118
-589.938	-1.369	-0.128	-0.090
-588.923	792.348	-0.031	0.086
-587.909	51.405	-0.147	-0.140
-586.894	-73.274	-0.290	0.106
-585.879	444.856	-0.110	-0.241
-584.865	-200.000	0.014	0.135
-583.850	-44.788	0.090	-0.045
-582.836	-192.205	-0.367	0.004
-581.821	-40.331	-0.109	-0.057
-580.806	22.101	-0.089	0.073
-579.792	-31.167	0.220	-0.124
-578.777	245.839	-0.147	-0.248
-577.763	147.072	-0.122	0.163
-576.748	-132.484	0.178	-0.023
-575.733	-109.254	-0.267	0.057
-574.719	158.902	-0.035	0.048
-573.704	26.039	0.028	0.023
-572.690	98.081	-0.082	0.095
-571.675	581.101	0.125	-0.306
-570.661	-19.786	-0.168	0.104
-569.646	69.781	-0.154	-0.158
-568.631	800.000	-0.076	-0.212
-567.617	494.841	-0.105	0.240
-566.602	-78.305	-0.091	0.031
-565.588	-200.000	-0.046	0.514
-564.573	485.877	-0.026	0.058
-563.558	-200.000	0.002	-0.240
-562.544	62.121	-0.285	-0.284
-561.529	-111.422	-0.077	0.016
-560.515	74.702	-0.143	-0.150
-559.500	121.918	-0.112	0.139
-558.485	76.298	-0.011	-0.012
-557.471	631.281	0.025	0.064
-556.456	-200.000	-0.034	0.327
-555.442	-200.000	-0.036	-0.304
-554.427	257.802	0.087	-0.150
-553.412	-104.935	-0.292	0.067
-552.398	-108.187	0.096	-0.021
-551.383	-137.148	-0.463	0.053
-550.369	20.379	0.109	-0.088
-549.354	256.306	-0.261	-0.447
-548.339	373.740	0.085	-0.173
-547.325	-200.000	0.057	0.311
-546.310	107.304	0.111	0.132
-545.296	208.415	0.054	0.084
-544.281	-200.000	0.000	-0.037
-543.266	-4.818	0.155	0.107
-542.252	87.052	-0.169	-0.186
-541.237	-200.000	-0.067	0.316
-540.223	-2.556	-0.091	0.064
-539.208	-107.445	-0.400	-0.088
-538.193	800.000	0.090	-0.276
-537.179	175.612	0.139	-0.201
-536.164	9.047	-0.106	0.080
-535.150	270.527	-0.065	0.113
-534.135	74.094	-0.083	-0.086
-533.121	566.890	-0.073	0.176
-532.106	203.475	0.182	-0.281
-531.091	-136.680	-0.222	-0.026
-530.077	-200.000	-0.027	0.141
-529.062	-140.505	0.199	0.021
-528.048	-119.913	-0.211	0.036
-527.033	96.585	-0.137	0.156
-526.018	800.000	-0.079	-0.219
-525.004	-73.998	0.065	-0.024
-523.989	32.246	0.254	0.218
-522.975	93.287	-0.382	-0.431
-521.960	-13.633	0.248	-0.160
-520.945	-68.282	0.281	0.109
-519.931	-24.229	-0.180	-0.107
-518.916	-200.000	0.048	0.238
-517.902	361.834	-0.174	0.348
-516.887	615.159	0.105	0.261
-515.872	-136.984	0.457	-0.052
-514.858	-64.497	0.086	0.035
-513.843	-140.986	-0.457	0.047
-512.829	-70.975	0.028	0.010
-511.814	-200.000	-0.024	-0.174
-510.799	80.673	-0.197	-0.212
-509.785	-200.000	0.009	0.207
-508.770	800.000	-0.050	0.197
-507.756	-77.989	0.104	0.036
-506.741	800.000	-0.080	0.234
-505.726	-62.917	0.195	-0.080
-504.712	-20.185	0.049	0.030
-503.697	-200.000	-0.049	-0.378
-502.683	-200.000	-0.054	-0.243
-501.668	-133.926	0.063	0.008
-500.653	262.654	-0.124	0.215
-499.639	46.696	0.119	0.110
-498.624	287.308	0.171	0.307
-497.610	37.044	-0.138	-0.122
-496.595	-63.868	-0.141	-0.057
-495.581	800.000	0.033	-0.103
-494.566	275.493	0.096	0.169
-493.551	257.079	-0.170	-0.292
-492.537	-148.186	-0.092	-0.008
-491.522	274.968	-0.144	-0.255
-490.508	-75.817	-0.216	-0.076
-489.493	-200.000	-0.053	0.241
-488.478	335.320	0.101	-0.196
-487.464	-119.348	-0.196	-0.034
-486.449	-86.679	0.270	-0.082
-485.435	800.000	-0.162	0.492
-484.420	48.594	-0.270	0.252
-483.405	73.868	-0.118	-0.123
-482.391	-200.000	-0.013	-0.144
-481.376	78.755	0.169	0.180
-480.362	-115.327	-0.144	-0.027
-479.347	-0.923	0.441	0.311
-478.332	-200.000	0.000	0.033
-477.318	-200.000	0.016	0.313
-476.303	-50.927	0.437	-0.204
-475.289	-200.000	-0.031	-0.289
-474.274	800.000	-0.043	-0.140
-473.259	-32.091	0.254	0.142
-472.245	222.628	-0.153	0.245
-471.230	-200.000	0.015	0.171
-470.216	15.257	-0.189	0.147
-469.201	-200.000	0.012	0.238
-468.186	282.120	-0.042	0.074
-467.172	-200.000	-0.019	0.243
-466.157	55.558	-0.171	-0.165
-465.143	-200.000	-0.037	0.179
-464.128	-73.298	-0.065	0.024
-463.113	800.000	-0.109	-0.375
-462.099	-200.000	-0.038	-0.271
-461.084	-200.000	-0.017	0.130
-460.070	-49.519	0.079	-0.037
-459.055	283.727	-0.147	0.263
-458.040	106.544	0.028	-0.033
-457.026	-126.638	0.468	0.069
-456.011	-152.773	-0.328	-0.023
-454.997	-2.878	0.332	0.231
-453.982	-200.000	-0.038	0.388
-452.968	-200.000	-0.010	0.109
-451.953	240.177	0.161	-0.268
-450.938	-153.072	-0.171	-0.012
-449.924	606.333	0.026	0.064
-448.909	800.000	-0.070	0.245
-447.895	244.253	-0.118	0.197
-446.880	19.807	-0.079	0.064
-445.865	800.000	-0.084	0.234
-444.851	-80.228	0.536	0.178
-443.836	-200.000	-0.042	-0.223
-442.822	-40.924	-0.155	-0.079
-441.807	-57.623	-0.356	-0.155
-440.792	-200.000	-0.061	-0.552
-439.778	-96.108	0.297	-0.078
-438.763	65.541	-0.165	-0.166
-437.749	70.409	-0.050	0.052
-436.734	430.117	-0.081	0.174
-435.719	800.000	0.008	0.034
-434.705	336.543	-0.248	0.480
-433.690	-64.720	-0.113	-0.045
-432.676	-66.278	-0.240	-0.095
-431.661	-34.057	-0.093	0.051
-430.646	212.140	-0.127	0.199
-429.632	82.996	0.215	0.232
-428.617	183.818	0.135	0.199
-427.603	-38.145	-0.148	0.078
-426.588	42.453	-0.195	0.177
-425.573	800.000	-0.135	0.401
-424.559	163.522	0.177	-0.247
-423.544	232.687	0.086	-0.140
-422.530	-78.884	0.269	-0.091
-421.515	-57.421	-0.278	0.121
-420.500	-61.070	0.209	-0.088
-419.486	-136.583	0.456	0.052
-418.471	137.806	-0.194	-0.252
-417.457	800.000	0.042	-0.127
-416.442	-105.822	0.271	-0.061
-415.428	-81.943	0.061	-0.020
-414.413	-200.000	0.030	-0.228
-413.398	-0.751	0.175	-0.123
-412.384	-200.000	0.000	-0.204
-411.369	43.641	0.142	0.129
-410.355	-150.453	-0.406	-0.031
-409.340	-165.135	-0.263	-0.012
-408.325	-176.377	0.101	0.003
-407.311	-59.340	0.173	0.074
-406.296	38.396	-0.090	0.079
-405.282	331.862	-0.057	0.109
-404.267	107.159	0.201	0.238
-403.252	-195.729	0.125	-0.001
-402.238	-200.000	0.022	-0.339
-401.223	-73.445	-0.072	0.026
-400.209	-200.000	0.023	0.202
-399.194	-9.316	0.233	0.154
-398.179	462.420	0.025	0.056
-397.165	647.260	0.116	0.293
-396.150	628.328	0.154	-0.385
-395.136	-136.700	0.117	0.013
-394.121	-111.072	0.050	-0.010
-393.106	-31.655	-0.343	0.191
-392.092	171.708	-0.266	0.379
-391.077	24.142	0.327	-0.268
-390.063	-79.356	-0.062	-0.021
-389.048	-106.123	0.220	0.049
-388.033	470.024	0.043	-0.095
-387.019	-105.003	0.120	-0.027
-386.004	-105.282	0.463	0.105
-384.990	-46.700	-0.337	0.164
-383.975	411.674	-0.059	-0.125
-382.960	85.051	-0.274	-0.298
-381.946	-47.835	-0.244	0.117
-380.931	-200.000	0.253	-0.001
-379.917	45.821	-0.040	0.037
-378.902	-72.844	0.153	-0.056
-377.888	83.597	0.172	0.186
-376.873	-125.852	0.398	0.060
-375.858	160.404	0.125	0.173
-374.844	-1.721	0.095	-0.067
-373.829	-140.033	-0.290	-0.030
-372.815	-47.595	-0.300	0.144
-371.800	227.180	-0.213	0.344
-370.785	83.874	-0.049	-0.053
-369.771	-169.228	-0.382	-0.014
-368.756	800.000	-0.127	0.363
-367.742	-70.969	-0.171	-0.064
-366.727	0.191	0.156	-0.111
-365.712	-87.094	0.177	-0.053
-364.698	61.102	-0.254	-0.250
-363.683	240.463	0.085	-0.140
-362.669	-134.777	-0.331	0.040
-361.654	-37.179	0.302	-0.160
-360.639	436.016	-0.081	-0.174
-359.625	-100.916	0.152	-0.037
-358.610	38.278	0.052	0.046
-357.596	-28.331	0.105	0.060
-356.581	-131.895	-0.346	0.045
-355.566	-22.462	0.030	-0.018
-354.552	757.295	0.032	0.086
-353.537	-125.903	-0.196	-0.029
-352.523	-29.741	0.334	0.189
-351.508	-108.000	-0.156	0.034
-350.493	8.253	-0.127	0.095
-349.479	548.183	-0.023	0.054
-348.464	-124.966	-0.087	-0.013
-347.450	705.258	-0.123	-0.321
-346.435	-90.739	-0.232	-0.066
-345.420	800.000	0.059	0.230
-344.406	-86.347	0.150	-0.046
-343.391	348.794	-0.133	-0.259
-342.377	96.999	0.035	-0.039
-341.362	11.522	0.128	-0.097
-340.348	-71.191	0.327	-0.121
-339.333	-29.284	0.124	0.070
-338.318	249.669	-0.075	-0.126
-337.304	21.404	0.326	0.262
-336.289	-44.151	-0.165	0.082
-335.275	-32.477	-0.057	-0.031
-334.260	492.569	-0.047	-0.106
-333.245	-200.000	0.046	-0.218
-332.231	-47.637	-0.147	-0.071
-331.216	800.000	-0.092	0.397
-330.202	-132.615	0.169	0.022
-329.187	154.933	0.116	-0.157
-328.172	53.376	-0.162	0.154
-327.158	10.106	0.168	0.127
-326.143	85.536	0.089	-0.097
-325.129	-59.289	-0.184	-0.078
-324.114	-200.000	0.025	0.142
-323.099	-1.356	-0.258	-0.180
-322.085	-200.000	0.020	0.290
-321.070	-64.136	0.124	0.050
-320.056	115.042	0.133	0.161
-319.041	-129.374	-0.284	-0.039
-318.026	-146.287	-0.198	0.017
-317.012	-200.000	-0.014	0.153
-315.997	-200.000	-0.015	-0.178
-314.983	-139.444	0.243	-0.026
-313.968	134.978	0.131	0.168
-312.953	-126.936	0.232	0.034
-311.939	-49.424	0.186	0.088
-310.924	-73.552	-0.104	0.038
-309.910	800.000	0.081	-0.288
-308.895	800.000	0.040	0.141
-307.880	-142.264	0.134	0.013
-306.866	2.947	0.267	-0.192
-305.851	-82.819	-0.201	0.064
-304.837	-200.000	-0.002	-0.032
-303.822	-99.411	0.331	-0.083
-302.807	-200.000	-0.015	0.297
-301.793	10.415	0.208	0.157
-300.778	-136.611	0.113	-0.013
-299.764	399.786	-0.120	0.248
-298.749	325.597	-0.161	0.305
-297.735	-200.000	-0.009	0.235
-296.720	189.113	-0.169	-0.250
-295.705	-200.000	-0.019	-0.197
-294.691	641.368	-0.083	0.209
-293.676	16.162	0.281	-0.219
-292.662	26.413	-0.256	-0.211
-291.647	-167.728	-0.315	-0.012
-290.632	190.226	-0.042	0.062
-289.618	96.881	-0.121	0.137
-288.603	289.634	0.131	-0.234
-287.589	-59.933	-0.101	-0.043
-286.574	124.018	0.053	0.066
-285.559	800.000	0.039	0.117
-284.545	324.615	0.077	-0.145
-283.530	16.631	-0.059	-0.046
-282.516	-5.239	0.287	-0.195
-281.501	10.678	0.254	-0.191
-280.486	-54.896	0.376	0.168
-279.472	132.898	0.195	0.248
-278.457	-65.002	0.180	0.072
-277.443	164.463	0.039	0.054
-276.428	605.226	-0.104	-0.256
-275.413	-76.609	-0.358	-0.124
-274.399	27.077	0.208	0.172
-273.384	693.998	0.096	-0.250
-272.370	-200.000	-0.019	-0.129
-271.355	597.833	-0.092	-0.226
-270.340	-79.484	0.157	0.052
-269.326	76.123	0.048	0.050
-268.311	97.308	-0.203	0.230
-267.297	531.791	0.145	-0.338
-266.282	-133.145	-0.326	-0.041
-265.267	76.284	0.215	-0.225
-264.253	346.582	0.085	-0.166
-263.238	144.629	0.155	-0.205
-262.224	-200.000	0.024	-0.202
-261.209	-87.902	0.052	0.016
-260.195	13.602	-0.140	-0.107
-259.180	800.000	-0.019	0.073
-258.165	107.572	-0.105	0.123
-257.151	-200.000	-0.076	-0.345
-256.136	30.820	0.305	-0.258
-255.122	800.000	-0.082	-0.272
-254.107	223.271	0.079	-0.126
-253.092	-200.000	-0.017	0.143
-252.078	24.139	0.162	0.132
-251.063	-200.000	0.049	0.374
-250.049	-114.852	-0.247	0.046
-249.034	800.000	-0.089	-0.288
-248.019	-77.377	0.234	-0.080
-247.005	-200.000	0.021	-0.105
-245.990	-18.708	0.157	0.096
-244.976	210.249	-0.044	0.068
-243.961	-87.901	0.175	-0.052
-242.946	-90.574	-0.170	0.049
-241.932	59.002	0.134	0.130
-240.917	362.176	0.094	-0.187
-239.903	29.155	0.190	-0.159
-238.888	-156.368	0.337	-0.021
-237.873	86.677	-0.086	-0.094
-236.859	-95.777	-0.329	-0.087
-235.844	800.000	0.062	-0.253
-234.830	800.000	0.034	0.142
-233.815	104.381	-0.036	-0.042
-232.800	341.755	0.060	-0.116
-231.786	-142.748	-0.319	0.031
-230.771	562.032	-0.112	-0.268
-229.757	-200.000	0.034	0.211
-228.742	12.088	-0.115	0.088
-227.727	-178.531	-0.154	0.004
-226.713	1.057	0.204	0.144
-225.698	25.291	0.256	-0.210
-224.684	800.000	-0.086	-0.282
-223.669	496.108	-0.113	0.256
-222.655	144.726	0.211	-0.277
-221.640	370.793	-0.082	-0.163
-220.625	800.000	-0.077	-0.256
-219.611	-156.801	-0.366	0.022
-218.596	-200.000	-0.012	-0.192
-217.582	-63.950	0.147	0.059
-216.567	-200.000	0.032	-0.140
-215.552	-57.227	0.229	0.099
-214.538	-127.844	0.062	0.009
-213.523	-200.000	-0.055	-0.371
-212.509	102.908	0.078	0.090
-211.494	-200.000	0.003	-0.105
-210.479	-6.779	-0.106	0.071
-209.465	-200.000	0.055	0.372
-208.450	-126.776	-0.113	0.016
-207.436	-61.435	-0.068	0.028
-206.421	-200.000	-0.011	0.139
-205.406	304.876	0.070	0.129
-204.392	180.920	0.013	0.019
-203.377	103.655	0.183	-0.212
-202.363	-69.795	-0.217	0.082
-201.348	-69.275	-0.181	-0.069
-200.333	61.010	0.116	-0.114
-199.319	-76.601	-0.202	-0.070
-198.304	-200.000	0.029	0.258
-197.290	-200.000	0.009	0.339
-196.275	43.381	-0.164	-0.148
-195.260	310.941	0.026	0.049
-194.246	-6.828	-0.197	-0.132
-193.231	-112.008	0.272	0.054
-192.217	321.137	0.072	0.135
-191.202	606.122	0.082	-0.200
-190.187	-65.371	-0.130	0.052
-189.173	-200.000	0.037	0.229
-188.158	-97.964	0.510	0.129
-187.144	-122.126	0.144	-0.023
-186.129	7.407	0.396	0.291
-185.114	224.166	-0.106	0.169
-184.100	0.638	0.282	-0.199
-183.085	-71.585	0.090	0.033
-182.071	-34.326	-0.092	-0.049
-181.056	394.715	0.133	0.273
-180.042	800.000	-0.003	0.009
-179.027	-69.403	0.086	-0.033
-178.012	-112.358	-0.096	0.019
-176.998	79.963	0.114	0.121
-175.983	-187.796	0.150	0.002
-174.969	35.349	-0.184	-0.159
-173.954	-200.000	0.028	0.414
-172.939	-2.248	-0.019	-0.013
-171.925	-102.356	0.218	0.052
-170.910	363.739	-0.173	0.341
-169.896	79.251	0.295	-0.311
-168.881	196.129	-0.031	-0.046
-167.866	-149.436	0.462	0.036
-166.852	21.763	0.145	0.116
-165.837	-102.461	-0.355	0.084
-164.823	56.478	0.152	0.146
-163.808	-200.000	-0.002	0.042
-162.793	-200.000	0.004	0.140
-161.779	800.000	0.098	-0.281
-160.764	155.688	-0.183	0.247
-159.750	168.570	-0.101	0.141
-158.735	-47.980	-0.189	0.090
-157.720	-142.800	0.392	-0.038
-156.706	205.418	-0.102	0.156
-155.691	-138.963	0.293	0.031
-154.677	800.000	-0.101	-0.292
-153.662	-52.658	-0.184	-0.084
-152.647	128.051	-0.169	0.211
-151.633	-47.079	0.152	0.073
-150.618	-200.000	-0.027	-0.168
-149.604	-52.610	0.138	-0.063
-148.589	-182.937	0.342	0.006
-147.574	-94.960	-0.315	-0.084
-146.560	222.731	-0.146	0.231
-145.545	800.000	-0.054	0.180
-144.531	800.000	0.070	0.241
-143.516	-200.000	0.014	0.208
-142.502	178.114	0.226	0.323
-141.487	-23.462	0.138	-0.081
-140.472	800.000	0.074	-0.285
-139.458	-200.000	-0.036	-0.169
-138.443	-59.250	0.052	0.022
-137.429	-83.824	-0.311	0.097
-136.414	-200.000	0.055	0.288
-135.399	-49.838	0.132	0.062
-134.385	-174.085	-0.400	-0.011
-133.370	800.000	0.053	-0.174
-132.356	18.735	-0.111	0.088
-131.341	354.798	0.050	-0.098
-130.326	125.760	-0.134	-0.166
-129.312	770.475	-0.035	-0.094
-128.297	608.224	0.093	0.229
-127.283	-46.522	0.219	-0.106
-126.268	206.858	-0.096	-0.147
-125.253	-110.741	-0.125	-0.025
-124.239	97.954	0.057	-0.065
-123.224	800.000	0.074	-0.231
-122.210	229.143	-0.179	-0.287
-121.195	-134.845	-0.170	0.020
-120.180	309.473	-0.081	0.149
-119.166	62.638	0.336	-0.330
-118.151	800.000	-0.036	-0.108
-117.137	377.583	0.087	0.175
-116.122	14.378	-0.188	-0.144
-115.107	-50.298	0.237	0.110
-114.093	89.878	-0.064	0.070
-113.078	210.052	-0.070	-0.108
-112.064	-133.303	-0.399	0.049
-111.049	-200.000	-0.023	0.000
-110.034	-82.405	0.220	-0.070
-109.020	193.311	0.045	0.066
-108.005	-155.920	0.241	-0.015
-106.991	53.051	-0.097	0.091
-105.976	87.283	-0.163	0.176
-104.962	800.000	0.017	0.059
-103.947	-200.000	-0.027	0.233
-102.932	-86.265	0.077	0.023
-101.918	-200.000	0.010	-0.137
-100.903	-111.789	0.197	0.039
-99.889	-200.000	0.004	0.229
-98.874	-124.106	-0.155	-0.024
-97.859	-200.000	-0.048	-0.282
-96.845	6.617	-0.269	0.196
-95.830	-181.750	-0.184	-0.003
-94.816	27.812	0.262	0.216
-93.801	262.173	-0.207	-0.352
-92.786	-117.772	-0.163	-0.029
-91.772	-16.591	-0.083	-0.051
-90.757	-200.000	0.023	-0.258
-89.743	479.931	-0.081	-0.179
-88.728	-60.305	0.198	0.083
-87.713	-18.763	-0.372	-0.227
-86.699	-11.770	0.283	0.182
-85.684	-88.229	0.343	-0.101
-84.670	-47.501	0.360	0.171
-83.655	-153.996	-0.246	-0.016
-82.640	193.394	0.308	0.456
-81.626	-200.000	0.010	-0.075
-80.611	-8.020	0.105	-0.070
-79.597	-79.449	0.131	-0.044
-78.582	27.215	0.174	0.144
-77.567	-200.000	-0.019	0.119
-76.553	-14.328	0.159	-0.100
-75.538	438.919	0.130	0.278
-74.524	-66.592	-0.220	0.086
-73.509	-15.697	0.122	0.076
-72.494	-135.051	-0.121	-0.014
-71.480	-200.000	0.007	-0.054
-70.465	-200.000	0.037	0.181
-69.451	800.000	-0.066	-0.198
-68.436	-200.000	-0.004	0.247
-67.422	118.270	0.085	-0.103
-66.407	211.719	0.187	-0.289
-65.392	95.224	-0.057	-0.063
-64.378	-62.367	0.157	-0.064
-63.363	-114.202	0.121	-0.023
-62.349	212.087	-0.138	0.214
-61.334	3.508	-0.991	-0.708
-60.319	50.921	0.723	0.672
-59.305	-200.000	-0.154	-1.110
-58.290	433.305	0.521	1.108
-57.276	206.866	0.923	1.409
-56.261	-200.000	105.217	614.835
-55.246	515.132	1485.889	3398.421
-54.232	180.214	2676.595	3844.989
-53.217	112.552	2172.085	2575.039
-52.203	40.748	1694.201	1496.392
-51.188	33.173	1503.943	1277.372
-50.173	30.886	1477.084	1239.312
-49.159	51.243	1532.760	1424.670
-48.144	52.220	1549.342	1446.655
-47.130	33.400	1505.657	1280.153
-46.115	30.373	1490.568	1246.982
-45.100	30.138	1487.200	1242.540
-44.086	30.161	1484.801	1240.639
-43.071	30.041	1483.182	1238.439
-42.057	30.018	1481.449	1236.789
-41.042	30.077	1479.990	1235.914
-40.027	30.134	1477.976	1234.563
-39.013	30.126	1476.750	1233.433
-37.998	30.060	1475.908	1232.244
-36.984	30.055	1474.285	1230.807
-35.969	30.115	1472.817	1229.934
-34.954	30.096	1471.542	1228.693
-33.940	30.110	1470.439	1227.816
-32.925	30.117	1469.257	1226.829
-31.911	30.166	1467.639	1225.751
-30.896	30.194	1466.562	1224.987
-29.881	30.149	1465.067	1223.394
-28.867	30.198	1463.396	1222.274
-27.852	30.212	1462.595	1221.645
-26.838	30.275	1460.577	1220.325
-25.823	30.212	1459.244	1218.749
-24.809	30.251	1457.700	1217.668
-23.794	30.091	1456.563	1215.620
-22.779	30.160	1455.419	1215.071
-21.765	30.103	1454.649	1214.007
-20.750	30.238	1453.347	1213.753
-19.736	30.100	1452.333	1211.954
-18.721	30.177	1451.083	1211.369
-17.706	30.048	1450.467	1209.961
-16.692	30.162	1449.119	1209.537
-15.677	30.201	1447.913	1208.733
-14.663	30.140	1447.124	1207.633
-13.648	30.142	1446.155	1206.789
-12.633	30.119	1445.323	1205.897
-11.619	30.146	1444.363	1205.220
-10.604	30.030	1443.890	1204.028
-9.590	30.010	1442.812	1202.950
-8.575	30.059	1441.759	1202.344
-7.560	30.109	1440.594	1201.649
-6.546	30.041	1440.061	1200.715
-5.531	30.079	1438.989	1200.017
-4.517	30.063	1438.551	1199.501
-3.502	30.025	1437.011	1197.924
-2.487	30.009	1436.164	1197.066
-1.473	30.035	1434.757	1196.018
-0.458	30.096	1433.368	1195.200
0.556	27.793	1424.020	1183.981
1.571	24.667	1399.463	1143.499
2.586	21.110	1340.180	1073.132
3.600	19.589	1259.728	999.823
4.615	18.525	1215.454	958.649
5.629	15.904	1160.590	901.282
6.644	7.618	1077.311	795.213
7.659	0.758	1037.878	732.867
8.673	-0.206	1032.166	724.124
9.688	-0.279	1028.763	721.318
10.702	-0.378	1027.381	719.813
11.717	-0.367	1025.522	718.501
12.731	2.616	1028.579	734.898
13.746	11.395	1040.455	785.751
14.761	18.061	1049.370	824.686
15.775	19.500	1051.080	832.906
16.790	19.697	1050.400	833.240
17.804	19.517	1049.196	831.349
18.819	19.325	1048.107	829.485
19.834	19.368	1047.707	829.303
20.848	19.503	1047.589	829.783
21.863	19.591	1046.897	829.586
22.877	19.501	1046.780	828.988
23.892	19.521	1045.780	828.220
24.907	19.220	1045.569	826.536
25.921	19.411	1044.270	826.349
26.936	19.472	1043.933	826.301
27.950	19.479	1042.300	824.968
28.965	19.394	1041.362	823.749
29.980	19.272	1039.798	821.858
30.994	19.341	1037.923	820.632
32.009	19.500	1037.159	820.709
33.023	19.560	1036.712	820.567
34.038	19.362	1035.276	818.420
35.053	19.260	1034.321	817.106
36.067	19.407	1034.167	817.614
37.082	19.469	1032.629	816.617
38.096	19.532	1032.541	816.775
39.111	19.623	1031.523	816.325
40.126	19.719	1030.650	816.015
41.140	19.747	1029.385	815.074
42.155	19.486	1027.610	812.369
43.169	19.160	1026.664	810.017
44.184	19.139	1025.605	809.009
45.199	19.281	1024.521	808.749
46.213	19.188	1023.308	807.283
47.228	19.230	1022.340	806.645
48.242	19.293	1021.585	806.271
49.257	19.254	1021.104	805.642
50.271	19.400	1019.793	805.216
51.286	19.504	1018.953	804.968
52.301	19.467	1018.472	804.345
53.315	19.619	1017.284	804.040
54.330	19.678	1016.344	803.502
55.344	19.541	1015.777	802.345
56.359	19.526	1014.718	801.367
57.374	19.662	1013.718	801.139
58.388	19.321	1012.978	798.905
59.403	19.326	1012.163	798.210
60.417	19.383	1011.466	797.857
61.432	19.208	1010.481	796.199
62.447	19.198	1010.255	795.903
63.461	19.377	1008.959	795.639
64.476	19.486	1008.051	795.358
65.490	19.322	1007.470	794.072
66.505	19.355	1006.264	793.204
67.520	19.336	1005.681	792.585
68.534	19.329	1005.046	791.982
69.549	19.376	1003.695	791.065
70.563	18.953	1002.754	788.314
71.578	18.857	1002.033	787.234
72.593	18.976	1001.056	786.944
73.607	18.909	999.592	785.415
74.622	18.899	998.784	784.669
75.636	19.112	998.484	785.336
76.651	19.197	997.825	785.132
77.666	19.172	996.645	784.024
78.680	19.142	995.546	782.953
79.695	19.044	994.981	781.991
80.709	19.036	994.756	781.709
81.724	19.215	993.844	781.738
82.739	19.141	993.242	780.860
83.753	19.225	991.813	780.048
84.768	19.415	991.413	780.522
85.782	19.568	990.667	780.560
86.797	19.811	989.960	781.028
87.812	19.822	988.878	780.154
88.826	19.546	988.117	778.242
89.841	19.694	987.080	778.022
90.855	19.646	986.613	777.370
91.870	19.801	985.265	776.937
92.884	19.788	984.376	776.111
93.899	19.601	983.615	774.599
94.914	19.499	982.782	773.420
95.928	19.739	981.705	773.576
96.943	19.592	981.680	772.833
97.957	19.445	979.878	770.690
98.972	19.270	978.864	769.039
99.987	18.900	978.131	766.747
101.001	19.193	976.917	767.033
102.016	19.317	976.740	767.377
103.030	19.473	975.678	767.168
104.045	19.297	974.603	765.476
105.060	19.206	973.323	764.000
106.074	19.111	972.194	762.625
107.089	19.192	971.655	762.489
108.103	19.454	971.649	763.580
109.118	19.621	970.676	763.484
110.133	19.356	969.206	761.094
111.147	19.324	968.248	760.132
112.162	19.276	966.977	758.856
113.176	19.051	965.958	757.000
114.191	19.157	965.317	756.895
115.206	19.360	964.430	757.023
116.220	19.024	962.942	754.317
117.235	18.927	961.654	752.814
118.249	19.034	961.221	752.880
119.264	19.057	960.561	752.395
120.279	19.068	958.986	751.142
121.293	18.957	959.065	750.653
122.308	19.090	958.192	750.485
123.322	19.064	957.477	749.743
124.337	19.025	956.159	748.476
125.352	19.021	955.060	747.534
126.366	18.675	952.862	744.246
127.381	18.308	951.553	741.568
128.395	18.863	951.390	743.778
129.410	19.470	950.781	745.863
130.424	19.564	950.193	745.738
131.439	19.445	949.310	744.469
132.454	19.509	947.989	743.642
133.468	19.494	946.840	742.609
134.483	19.307	946.481	741.457
135.497	19.428	945.567	741.197
136.512	19.763	944.969	742.098
137.527	19.729	944.238	741.317
138.541	19.785	943.561	740.957
139.556	19.796	942.633	740.210
140.570	19.651	941.805	738.873
141.585	19.597	940.824	737.811
142.600	19.664	940.443	737.729
143.614	19.683	939.191	736.766
144.629	19.857	938.174	736.643
145.643	20.022	938.078	737.206
146.658	19.747	936.847	735.002
147.673	19.696	935.226	733.451
148.687	19.782	934.318	733.038
149.702	19.648	933.091	731.442
150.716	19.424	932.622	730.063
151.731	19.452	931.813	729.483
152.746	19.488	931.096	729.008
153.760	19.680	930.358	729.177
154.775	19.842	930.012	729.524
155.789	19.944	928.130	728.414
156.804	19.778	927.849	727.428
157.819	19.931	926.416	726.883
158.833	19.978	925.595	726.374
159.848	20.044	925.441	726.465
160.862	19.897	924.549	725.082
161.877	19.924	923.005	723.922
162.892	19.804	922.876	723.254
163.906	19.910	922.059	722.994
164.921	19.939	920.858	722.108
165.935	19.893	919.881	721.088
166.950	19.836	918.927	720.040
167.964	19.977	918.053	719.875
168.979	19.834	916.925	718.335
169.994	19.768	916.072	717.327
171.008	19.704	915.003	716.162
172.023	19.832	914.500	716.236
173.037	19.907	913.535	715.728
174.052	19.550	912.661	713.504
175.067	19.484	911.638	712.370
176.081	19.568	911.004	712.158
177.096	19.697	910.231	712.020
178.110	19.834	909.145	711.671
179.125	19.621	908.104	709.918
180.140	19.362	906.707	707.701
181.154	19.309	906.410	707.188
182.169	19.357	906.287	707.228
183.183	19.558	905.677	707.510
184.198	19.756	905.284	707.954
185.213	19.857	904.263	707.506
186.227	19.653	903.990	706.395
187.242	19.975	902.971	706.851
188.256	19.874	902.102	705.695
189.271	19.898	901.377	705.167
190.286	19.981	900.550	704.795
191.300	19.897	900.059	704.004
192.315	19.451	898.796	701.142
193.329	18.709	897.730	697.235
194.344	18.429	895.969	694.671
195.359	19.035	896.290	697.316
196.373	19.689	897.115	700.548
197.388	19.941	896.351	700.909
198.402	19.795	895.647	699.708
199.417	19.753	894.757	698.780
200.432	19.779	894.413	698.556
201.446	19.530	893.686	696.922
202.461	19.269	892.779	695.099
203.475	19.315	892.171	694.749
204.490	19.064	890.580	692.437
205.504	17.832	888.789	686.036
206.519	18.281	889.111	688.027
207.534	19.385	888.867	692.213
208.548	19.525	888.698	692.579
209.563	19.677	888.075	692.643
210.577	19.659	887.585	692.129
211.592	19.493	886.575	690.614
212.607	19.924	886.651	692.335
213.621	20.043	886.082	692.308
214.636	19.986	885.326	691.427
215.650	20.015	884.869	691.127
216.665	19.907	884.110	690.042
217.680	19.755	883.977	689.271
218.694	19.756	883.618	688.933
219.709	19.681	882.416	687.637
220.723	19.247	881.162	684.874
221.738	19.495	880.786	685.508
222.753	19.827	879.504	685.764
223.767	19.730	879.408	685.244
224.782	19.713	878.585	684.476
225.796	20.000	877.848	684.975
226.811	20.127	877.509	685.151
227.826	19.681	876.145	682.267
228.840	18.748	875.083	677.699
229.855	18.884	874.430	677.669
230.869	19.100	874.029	678.148
231.884	18.904	873.027	676.541
232.899	18.757	872.439	675.449
233.913	19.595	872.902	679.042
234.928	19.874	872.324	679.627
235.942	19.785	871.297	678.420
236.957	19.864	870.624	678.144
237.972	19.580	869.457	676.062
238.986	19.397	868.988	674.924
240.001	19.550	868.296	674.923
241.015	19.597	867.582	674.493
242.030	19.683	866.861	674.209
243.045	19.761	866.440	674.127
244.059	19.740	866.324	673.894
245.074	20.020	865.447	674.240
246.088	19.920	864.666	673.185
247.103	19.648	863.792	671.389
248.117	19.520	863.227	670.393
249.132	19.949	863.450	672.173
250.147	20.372	862.823	673.264
251.161	20.334	862.196	672.569
252.176	20.538	861.573	672.814
253.190	20.474	861.045	672.093
254.205	20.506	860.505	671.738
255.220	20.660	860.158	672.002
256.234	20.689	859.296	671.381
257.249	20.630	858.560	670.518
258.263	20.469	857.837	669.276
259.278	20.396	857.596	668.745
260.293	20.627	857.050	669.149
261.307	20.680	856.186	668.622
262.322	20.459	855.414	667.108
263.336	20.350	854.711	666.085
264.351	19.882	853.225	663.074
265.366	18.820	851.531	657.636
266.380	18.397	850.625	655.260
267.395	19.307	851.044	659.005
268.409	20.080	851.007	661.871
269.424	20.168	850.281	661.586
270.439	20.275	849.972	661.695
271.453	20.419	849.012	661.437
272.468	20.314	848.634	660.683
273.482	20.477	848.365	661.037
274.497	20.677	847.895	661.374
275.512	20.456	846.425	659.329
276.526	19.802	845.246	655.873
277.541	20.181	844.794	656.901
278.555	20.389	844.697	657.554
279.570	20.316	843.591	656.360
280.585	19.992	842.946	654.574
281.599	20.207	842.431	654.927
282.614	20.238	841.640	654.371
283.628	19.941	840.415	652.245
284.643	19.561	839.898	650.352
285.657	20.023	839.573	651.781
286.672	19.894	838.625	650.503
287.687	19.354	838.059	647.978
288.701	19.682	838.092	649.179
289.716	19.993	837.711	649.994
290.730	19.726	836.729	648.174
291.745	19.633	836.313	647.448
292.760	19.641	834.780	646.234
293.774	19.525	834.145	645.251
294.789	20.212	834.884	648.333
295.803	21.031	834.995	651.423
296.818	20.851	834.449	650.268
297.833	21.034	833.631	650.256
298.847	20.730	832.522	648.199
299.862	20.451	831.619	646.401
300.876	20.543	831.451	646.557
301.891	20.979	830.558	647.424
302.906	20.873	830.432	646.876
303.920	20.695	828.897	644.963
304.935	20.294	828.735	643.294
305.949	20.684	828.205	644.270
306.964	20.978	827.690	644.899
307.979	20.717	827.023	643.356
308.993	20.695	826.584	642.879
310.008	21.044	826.032	643.679
311.022	20.971	825.958	643.294
312.037	20.920	825.229	642.483
313.052	20.616	824.679	640.879
314.066	20.704	823.748	640.423
315.081	20.003	822.339	636.693
316.095	19.576	820.886	633.946
317.110	19.838	821.557	635.368
318.125	20.701	821.475	638.418
319.139	20.240	820.547	635.950
320.154	19.244	819.188	631.195
321.168	18.888	818.061	628.968
322.183	19.581	818.016	631.410
323.197	20.296	818.530	634.366
324.212	20.544	818.079	634.868
325.227	20.688	817.765	635.094
326.241	20.757	817.751	635.278
327.256	20.697	817.075	634.477
328.270	20.659	816.249	633.643
329.285	20.591	815.293	632.597
330.300	20.598	814.686	632.093
331.314	20.254	813.970	630.233
332.329	20.295	813.452	629.927
333.343	20.716	812.771	630.870
334.358	20.918	812.462	631.304
335.373	20.805	812.257	630.682
336.387	20.868	811.593	630.338
337.402	21.006	811.466	630.681
338.416	21.324	810.532	631.049
339.431	21.182	810.144	630.178
340.446	21.105	809.606	629.426
341.460	21.412	809.058	630.052
342.475	21.331	808.356	629.156
343.489	20.939	807.978	627.397
344.504	20.937	807.753	627.159
345.519	21.458	806.920	628.327
346.533	21.508	806.722	628.299
347.548	21.730	805.840	628.351
348.562	21.694	805.649	628.020
349.577	21.682	805.072	627.469
350.592	21.642	804.739	627.012
351.606	21.473	804.445	626.121
352.621	21.500	803.724	625.602
353.635	21.535	803.148	625.224
354.650	21.390	802.919	624.471
355.665	21.213	801.871	622.969
356.679	19.968	800.291	617.252
357.694	19.911	800.016	616.781
358.708	20.683	799.549	619.116
359.723	20.455	799.059	617.870
360.738	20.861	798.814	619.071
361.752	21.310	798.460	620.336
362.767	21.481	797.901	620.452
363.781	21.633	797.950	620.974
364.796	21.745	797.978	621.337
365.810	21.729	797.344	620.733
366.825	21.834	796.890	620.698
367.840	21.847	796.844	620.651
368.854	21.820	795.945	619.801
369.869	21.340	795.034	617.341
370.883	21.198	794.790	616.599
371.898	21.392	793.896	616.533
372.913	21.355	792.912	615.585
373.927	21.122	792.583	614.456
374.942	21.257	792.381	614.719
375.956	21.579	791.678	615.251
376.971	21.529	791.328	614.747
377.986	21.699	790.736	614.830
379.000	21.712	790.425	614.580
380.015	21.763	790.105	614.455
381.029	21.578	789.101	612.971
382.044	21.674	788.425	612.729
383.059	21.928	788.152	613.350
384.073	21.947	787.571	612.909
385.088	21.828	787.085	612.064
386.102	21.866	786.669	611.819
387.117	21.900	785.935	611.312
388.132	21.618	785.704	610.095
389.146	21.377	785.276	608.869
390.161	21.020	783.892	606.502
391.175	21.014	783.879	606.417
392.190	21.478	783.859	607.962
393.205	21.615	783.330	607.972
394.219	20.558	781.616	602.924
395.234	19.166	779.278	596.250
396.248	18.667	778.239	593.678
397.263	19.637	779.345	597.828
398.278	21.371	780.193	604.424
399.292	21.739	780.293	605.723
400.307	21.453	779.682	604.206
401.321	21.336	778.874	603.124
402.336	21.411	778.742	603.227
403.350	21.676	778.525	603.919
404.365	22.163	778.532	605.548
405.380	22.221	778.364	605.564
406.394	22.399	778.171	605.973
407.409	22.618	777.725	606.325
408.423	22.710	777.045	606.057
409.438	22.405	776.740	604.720
410.453	22.592	775.996	604.728
411.467	22.573	775.677	604.361
412.482	22.639	774.909	603.936
413.496	22.531	774.829	603.448
414.511	22.623	774.358	603.344
415.526	22.596	773.868	602.817
416.540	22.492	773.708	602.284
417.555	22.554	772.872	601.791
418.569	22.251	772.121	600.117
419.584	22.127	771.659	599.285
420.599	22.346	771.261	599.667
421.613	158.844	1360.831	1798.513
422.628	137.039	1446.716	1798.605
