DTS Sentinel unit serial number:	SN413079Multiplexer serial number:	ORYXHardware model number:	OX4-SRSoftware version number:	ORYX F/W v4.00 Oryx Data Collector v3.7.2.0data status	okinstallation	princeton_trtdifferential loss correction	single-endedforward channel	channel 3reverse channel	N/Adate	2019/09/11time	07:22:11forward acquisition time	60.00reverse acquisition time	0.00gamma	496.2192k internal	0.2327k external	0.2327temperature offset calibration	0.9902default loss term (dB/km)	0.3790temperature slope calibration	1.0000multiplexer offset coefficient	1.0000multiplexer slope coefficient	1.0000fibre end	0.00T internal ref (°C)	30.80T ext. ref 1 (°C)	-0.06T ext. ref 2 (°C)	27.43length (m)	temperature (°C)	Stokes	anti-Stokes-747.200	-35.191	0.103	0.057
-746.185	800.000	0.095	0.282
-745.171	153.032	-0.187	-0.258
-744.156	65.222	-0.352	0.359
-743.142	98.870	-0.203	-0.236
-742.127	800.000	-0.116	0.401
-741.112	-187.574	-0.126	-0.002
-740.098	800.000	-0.067	-0.269
-739.083	203.608	0.040	0.063
-738.069	-136.005	0.154	0.018
-737.054	725.741	0.032	-0.086
-736.039	-172.273	-0.271	-0.009
-735.025	-200.000	0.061	0.286
-734.010	-23.951	0.235	-0.142
-732.996	-34.555	0.246	-0.136
-731.981	-89.523	-0.040	0.012
-730.966	2.997	0.033	0.024
-729.952	84.664	-0.252	-0.278
-728.937	648.571	0.098	-0.251
-727.923	-19.270	0.125	-0.078
-726.908	112.199	-0.184	-0.224
-725.894	58.919	-0.259	-0.256
-724.879	-200.000	0.008	0.145
-723.864	-58.474	-0.366	-0.160
-722.850	-79.789	0.106	-0.036
-721.835	116.386	-0.028	-0.034
-720.821	-200.000	-0.050	0.256
-719.806	800.000	0.083	-0.251
-718.791	-96.016	0.182	0.049
-717.777	16.227	-0.219	-0.174
-716.762	-65.210	-0.389	-0.158
-715.748	-105.139	0.301	-0.069
-714.733	-176.671	0.251	0.006
-713.718	-200.000	0.040	-0.351
-712.704	592.361	0.117	-0.291
-711.689	-200.000	-0.012	-0.055
-710.675	-200.000	-0.004	-0.016
-709.660	-66.307	-0.101	0.041
-708.645	137.225	-0.070	0.093
-707.631	40.047	-0.086	-0.078
-706.616	326.591	0.177	-0.342
-705.602	585.355	0.097	0.239
-704.587	-1.828	0.208	0.147
-703.572	-118.422	-0.132	0.024
-702.558	-33.605	0.214	-0.119
-701.543	-200.000	-0.032	-0.363
-700.529	-200.000	-0.017	-0.314
-699.514	-200.000	-0.010	-0.124
-698.499	-200.000	0.086	-0.420
-697.485	-200.000	0.011	-0.106
-696.470	-51.445	0.271	0.127
-695.456	-200.000	-0.022	-0.213
-694.441	579.937	0.033	0.083
-693.426	800.000	-0.042	-0.127
-692.412	98.928	-0.172	-0.200
-691.397	-200.000	-0.016	-0.152
-690.383	351.825	0.068	-0.136
-689.368	800.000	-0.108	0.466
-688.354	26.782	-0.127	0.107
-687.339	-200.000	-0.048	-0.261
-686.324	-143.793	-0.143	0.014
-685.310	-183.893	-0.106	0.002
-684.295	432.727	-0.086	-0.188
-683.281	800.000	-0.127	-0.507
-682.266	800.000	-0.057	-0.229
-681.251	270.975	0.156	-0.275
-680.237	99.751	0.195	-0.227
-679.222	481.707	0.079	-0.179
-678.208	428.473	-0.076	0.165
-677.193	-40.680	0.084	-0.044
-676.178	294.122	0.051	-0.094
-675.164	-20.685	0.181	-0.112
-674.149	-200.000	0.050	0.255
-673.135	8.400	0.159	-0.120
-672.120	271.049	-0.075	0.132
-671.105	-48.006	-0.125	-0.061
-670.091	248.766	0.088	0.150
-669.076	176.664	0.121	-0.177
-668.062	287.827	-0.095	0.172
-667.047	200.111	0.035	0.054
-666.032	-170.424	-0.209	0.007
-665.018	-200.000	-0.024	-0.117
-664.003	89.510	-0.174	-0.195
-662.989	-78.329	0.092	0.032
-661.974	62.189	0.250	-0.251
-660.959	249.285	0.183	-0.311
-659.945	-106.801	0.147	0.033
-658.930	-134.118	-0.250	0.031
-657.916	-200.000	0.003	-0.167
-656.901	-200.000	0.027	0.316
-655.886	47.337	0.105	0.098
-654.872	13.225	-0.289	-0.225
-653.857	-200.000	0.039	0.184
-652.843	644.519	0.086	-0.221
-651.828	-32.289	-0.281	-0.157
-650.814	714.970	0.035	-0.092
-649.799	-73.535	-0.073	0.027
-648.784	-0.028	-0.188	0.134
-647.770	-104.795	0.160	-0.037
-646.755	-200.000	-0.011	-0.424
-645.741	800.000	-0.054	-0.167
-644.726	235.846	-0.049	0.082
-643.711	-98.103	-0.194	0.050
-642.697	-200.000	-0.028	0.230
-641.682	-37.901	-0.160	0.086
-640.668	-200.000	-0.001	0.579
-639.653	55.563	-0.090	-0.088
-638.638	20.560	-0.215	-0.175
-637.624	800.000	-0.055	-0.210
-636.609	41.731	-0.257	-0.234
-635.595	-200.000	0.017	0.452
-634.580	258.096	-0.111	0.191
-633.565	267.685	-0.137	0.241
-632.551	-22.353	0.178	0.108
-631.536	424.820	-0.053	0.114
-630.522	19.152	0.243	0.196
-629.507	33.841	-0.065	0.057
-628.492	-12.077	0.291	-0.191
-627.478	-12.269	-0.108	0.071
-626.463	-200.000	0.040	0.334
-625.449	251.484	-0.187	0.319
-624.434	60.830	0.153	-0.152
-623.419	-200.000	0.021	-0.270
-622.405	800.000	0.078	-0.226
-621.390	2.788	-0.248	0.180
-620.376	-81.136	0.402	-0.133
-619.361	-79.082	0.274	0.094
-618.346	800.000	0.098	-0.276
-617.332	19.302	0.238	-0.192
-616.317	800.000	0.046	0.161
-615.303	6.161	0.335	-0.249
-614.288	-129.587	0.510	-0.071
-613.273	798.357	-0.089	-0.247
-612.259	-46.023	0.027	-0.013
-611.244	-200.000	-0.016	0.185
-610.230	-106.142	-0.548	-0.123
-609.215	-143.867	0.192	0.018
-608.201	800.000	0.056	-0.191
-607.186	-200.000	0.029	0.239
-606.171	281.159	-0.146	-0.262
-605.157	729.727	0.129	0.346
-604.142	-46.277	-0.172	0.085
-603.128	709.123	0.136	0.360
-602.113	-24.968	-0.135	-0.080
-601.098	800.000	-0.050	-0.159
-600.084	-200.000	0.015	0.335
-599.069	-38.174	0.102	0.054
-598.055	-53.895	-0.119	-0.055
-597.040	-19.422	-0.163	0.101
-596.025	226.711	0.184	-0.300
-595.011	-74.613	0.244	-0.088
-593.996	153.655	-0.338	-0.465
-592.982	2.348	0.137	0.099
-591.967	-78.798	-0.085	-0.029
-590.952	-200.000	-0.003	-0.131
-589.938	-200.000	-0.048	0.264
-588.923	-200.000	-0.180	0.000
-587.909	-48.998	-0.074	0.035
-586.894	5.779	0.311	0.231
-585.879	37.997	-0.270	0.240
-584.865	-187.415	-0.161	0.002
-583.850	107.640	-0.088	-0.105
-582.836	6.563	-0.212	-0.158
-581.821	78.485	-0.105	-0.112
-580.806	800.000	-0.115	0.414
-579.792	-200.000	-0.003	0.194
-578.777	-200.000	-0.008	-0.246
-577.763	533.253	0.042	-0.099
-576.748	800.000	-0.074	-0.221
-575.733	-148.779	0.245	-0.020
-574.719	50.394	-0.057	0.054
-573.704	234.745	-0.046	0.075
-572.690	49.315	-0.249	0.234
-571.675	-172.960	-0.307	0.010
-570.661	798.814	-0.120	-0.331
-569.646	-74.038	-0.232	-0.084
-568.631	800.000	-0.042	-0.147
-567.617	127.675	0.173	-0.220
-566.602	226.816	0.065	0.106
-565.588	-61.257	-0.026	-0.011
-564.573	-163.967	-0.285	0.013
-563.558	-200.000	0.015	-0.093
-562.544	-200.000	-0.045	-0.280
-561.529	-119.957	-0.336	0.058
-560.515	48.546	-0.068	0.064
-559.500	6.139	0.141	0.104
-558.485	123.077	-0.254	-0.318
-557.471	8.677	-0.372	-0.280
-556.456	-34.808	0.156	0.085
-555.442	51.480	-0.473	-0.449
-554.427	138.534	0.082	0.108
-553.412	-74.114	0.225	0.082
-552.398	-187.470	0.151	0.002
-551.383	-68.903	-0.185	-0.071
-550.369	243.492	-0.146	-0.244
-549.354	-200.000	-0.070	-0.314
-548.339	354.723	0.018	-0.035
-547.325	-6.509	0.179	0.122
-546.310	278.770	0.107	-0.190
-545.296	-89.439	0.217	-0.064
-544.281	-127.856	-0.201	-0.029
-543.266	-147.107	0.402	-0.034
-542.252	647.787	0.117	-0.300
-541.237	800.000	0.080	0.326
-540.223	352.306	-0.242	0.479
-539.208	-137.637	0.430	0.048
-538.193	800.000	0.047	-0.205
-537.179	47.426	-0.149	0.139
-536.164	-65.100	0.129	-0.052
-535.150	-44.491	-0.310	0.155
-534.135	-17.175	-0.091	-0.057
-533.121	-85.859	0.293	-0.091
-532.106	297.640	0.145	-0.266
-531.091	555.613	0.050	0.121
-530.077	792.612	0.034	0.095
-529.062	2.692	0.175	0.127
-528.048	46.680	-0.149	-0.138
-527.033	-38.081	-0.154	-0.082
-526.018	-40.814	-0.286	-0.148
-525.004	315.100	-0.039	-0.074
-523.989	-188.319	-0.228	-0.003
-522.975	-103.813	0.145	-0.034
-521.960	-90.977	0.279	-0.080
-520.945	-34.771	0.120	-0.066
-519.931	-190.519	0.143	-0.002
-518.916	-200.000	-0.019	0.138
-517.902	-200.000	0.005	0.099
-516.887	371.537	-0.205	0.416
-515.872	131.536	-0.215	0.277
-514.858	205.749	0.060	-0.093
-513.843	105.253	-0.057	-0.067
-512.829	305.853	-0.104	-0.193
-511.814	27.309	-0.247	-0.208
-510.799	-101.625	0.241	-0.058
-509.785	800.000	-0.074	-0.205
-508.770	-200.000	0.009	0.094
-507.756	392.147	-0.133	0.276
-506.741	51.742	0.274	-0.261
-505.726	-91.385	-0.164	0.047
-504.712	210.767	-0.159	0.250
-503.697	-46.806	-0.072	0.035
-502.683	298.778	0.200	-0.368
-501.668	-111.990	0.298	0.060
-500.653	46.659	0.218	0.202
-499.639	-54.316	-0.345	0.156
-498.624	-200.000	0.013	-0.284
-497.610	-121.711	-0.231	-0.038
-496.595	-81.017	-0.163	0.054
-495.581	-64.478	-0.237	0.096
-494.566	-92.996	-0.015	-0.004
-493.551	-200.000	-0.047	0.315
-492.537	320.829	-0.130	0.247
-491.522	-68.781	0.136	0.052
-490.508	800.000	0.109	-0.417
-489.493	-146.964	0.430	-0.037
-488.478	75.096	0.086	0.091
-487.464	6.771	0.211	-0.157
-486.449	124.412	0.051	0.064
-485.435	53.168	-0.183	0.175
-484.420	800.000	0.034	0.125
-483.405	109.589	0.258	-0.309
-482.391	800.000	-0.048	0.136
-481.376	513.107	0.054	-0.126
-480.362	-200.000	0.007	0.243
-479.347	800.000	-0.087	0.280
-478.332	14.113	-0.160	0.124
-477.318	-144.568	0.300	-0.028
-476.303	-200.000	-0.001	-0.268
-475.289	800.000	-0.093	-0.270
-474.274	800.000	-0.080	-0.342
-473.259	-70.013	-0.346	0.132
-472.245	-88.161	-0.036	0.011
-471.230	-75.612	0.243	0.086
-470.216	-42.552	-0.173	0.088
-469.201	-200.000	0.027	0.169
-468.186	-85.164	-0.172	-0.054
-467.172	56.143	0.194	0.187
-466.157	800.000	-0.074	0.238
-465.143	-144.255	-0.257	-0.024
-464.128	162.073	-0.086	-0.120
-463.113	-154.581	0.356	0.024
-462.099	-39.250	-0.144	0.075
-461.084	-70.271	0.184	-0.070
-460.070	-45.257	-0.144	-0.071
-459.055	123.883	-0.263	0.330
-458.040	-56.252	-0.272	-0.120
-457.026	-200.000	-0.011	0.178
-456.011	154.133	0.143	0.195
-454.997	-100.278	-0.466	0.115
-453.982	-200.000	0.079	0.409
-452.968	-48.945	0.207	0.099
-451.953	-96.190	-0.169	0.045
-450.938	-80.032	-0.135	-0.045
-449.924	-129.109	-0.277	-0.039
-448.909	-74.444	-0.108	-0.039
-447.895	-15.782	0.334	0.212
-446.880	-200.000	-0.021	0.182
-445.865	-29.487	0.212	0.121
-444.851	-94.157	-0.171	0.047
-443.836	800.000	0.009	-0.027
-442.822	-37.658	0.109	0.058
-441.807	-80.700	0.277	-0.092
-440.792	-77.128	-0.234	-0.081
-439.778	-37.206	0.270	-0.144
-438.763	-9.431	-0.136	0.090
-437.749	-200.000	-0.027	-0.299
-436.734	800.000	0.042	0.135
-435.719	-124.652	-0.103	-0.016
-434.705	24.321	-0.116	-0.095
-433.690	-200.000	-0.003	-0.166
-432.676	330.883	-0.145	0.278
-431.661	305.690	-0.096	-0.177
-430.646	451.445	-0.149	-0.328
-429.632	52.177	0.125	0.119
-428.617	-147.343	0.220	-0.019
-427.603	-200.000	0.012	-0.388
-426.588	-173.103	-0.113	-0.003
-425.573	-200.000	-0.002	-0.066
-424.559	800.000	0.054	0.182
-423.544	114.264	0.043	-0.053
-422.530	800.000	0.075	0.210
-421.515	-58.732	-0.294	0.127
-420.500	800.000	-0.115	0.406
-419.486	800.000	0.057	-0.246
-418.471	-20.073	-0.282	0.173
-417.457	-158.815	0.209	0.012
-416.442	132.987	-0.122	0.157
-415.428	25.584	-0.121	0.100
-414.413	-200.000	-0.012	-0.203
-413.398	-149.959	-0.099	-0.008
-412.384	-77.444	0.179	0.062
-411.369	-200.000	0.069	0.507
-410.355	86.541	-0.064	-0.070
-409.340	38.380	-0.084	-0.075
-408.325	-59.142	0.363	-0.156
-407.311	-20.898	0.049	-0.030
-406.296	99.981	-0.097	-0.112
-405.282	39.080	-0.175	0.156
-404.267	-77.576	-0.203	-0.070
-403.252	120.482	0.119	0.147
-402.238	-200.000	0.065	-0.313
-401.223	96.127	-0.128	0.145
-400.209	-24.323	-0.260	-0.154
-399.194	-42.436	-0.229	-0.116
-398.179	-32.957	-0.150	-0.083
-397.165	221.413	-0.145	-0.231
-396.150	335.615	-0.137	0.264
-395.136	109.365	0.201	-0.240
-394.121	95.013	0.128	0.145
-393.106	-200.000	-0.043	-0.335
-392.092	590.460	0.050	0.124
-391.077	213.533	0.116	-0.182
-390.063	-109.977	0.160	0.033
-389.048	151.436	0.104	-0.141
-388.033	364.010	0.097	-0.194
-387.019	-75.434	-0.100	0.035
-386.004	54.776	0.074	0.071
-384.990	-200.000	-0.007	-0.234
-383.975	800.000	-0.057	-0.178
-382.960	-133.861	-0.233	-0.029
-381.946	800.000	-0.087	0.258
-380.931	424.269	0.076	-0.164
-379.917	-56.975	0.096	0.042
-378.902	45.956	0.230	0.212
-377.888	800.000	-0.080	0.227
-376.873	-142.361	0.132	0.013
-375.858	-47.151	-0.324	-0.157
-374.844	-24.028	0.348	-0.207
-373.829	-101.773	0.200	-0.048
-372.815	34.990	0.015	0.013
-371.800	84.032	0.080	0.086
-370.785	-41.468	-0.148	-0.076
-369.771	727.522	0.051	-0.134
-368.756	-119.623	-0.125	-0.021
-367.742	76.253	0.178	-0.188
-366.727	-20.626	0.088	-0.054
-365.712	3.905	-0.048	0.035
-364.698	406.334	0.095	0.200
-363.683	187.337	-0.177	-0.262
-362.669	-200.000	-0.023	0.176
-361.654	2.984	-0.151	-0.109
-360.639	169.862	-0.172	0.245
-359.625	106.497	0.306	-0.360
-358.610	89.580	-0.163	0.181
-357.596	-200.000	-0.008	-0.070
-356.581	-200.000	0.002	0.115
-355.566	-152.021	0.157	0.011
-354.552	206.333	0.135	-0.209
-353.537	-200.000	-0.000	0.345
-352.523	-60.154	0.110	0.047
-351.508	57.121	0.190	-0.184
-350.493	-92.221	0.137	0.038
-349.479	-200.000	-0.001	-0.117
-348.464	800.000	-0.048	-0.169
-347.450	-114.073	0.315	-0.061
-346.435	-46.692	0.350	-0.170
-345.420	261.829	-0.107	0.184
-344.406	89.808	-0.189	0.209
-343.391	-104.425	-0.111	-0.025
-342.377	-127.013	0.217	0.032
-341.362	-6.705	0.133	-0.090
-340.348	-88.229	0.174	-0.052
-339.333	32.819	0.110	-0.094
-338.318	800.000	-0.077	0.277
-337.304	-38.359	-0.079	0.042
-336.289	15.770	-0.245	0.191
-335.275	113.232	-0.169	-0.204
-334.260	-200.000	0.010	-0.070
-333.245	375.446	0.168	0.340
-332.231	800.000	-0.070	-0.237
-331.216	-99.263	-0.092	0.023
-330.202	-149.725	-0.139	0.011
-329.187	-200.000	0.004	0.210
-328.172	65.296	0.142	-0.142
-327.158	194.629	-0.092	0.139
-326.143	800.000	-0.069	0.190
-325.129	724.161	0.093	-0.246
-324.114	-170.197	-0.229	0.008
-323.099	800.000	-0.046	-0.154
-322.085	-61.685	0.329	0.137
-321.070	800.000	0.077	-0.268
-320.056	800.000	0.053	0.225
-319.041	-200.000	-0.013	0.124
-318.026	-63.105	-0.264	0.108
-317.012	530.597	-0.063	0.148
-315.997	800.000	0.123	-0.356
-314.983	800.000	0.019	0.069
-313.968	458.202	-0.091	0.200
-312.953	194.809	-0.140	-0.211
-311.939	-73.502	0.170	-0.062
-310.924	-200.000	-0.038	0.184
-309.910	-125.526	-0.219	0.033
-308.895	-3.907	0.207	0.142
-307.880	-200.000	0.036	0.292
-306.866	419.209	0.119	0.252
-305.851	5.709	-0.073	0.054
-304.837	-165.245	0.260	0.011
-303.822	-79.350	0.110	-0.037
-302.807	-80.739	-0.112	-0.037
-301.793	-5.086	-0.123	0.084
-300.778	560.882	-0.022	0.053
-299.764	-98.028	0.187	-0.048
-298.749	-162.596	0.206	0.010
-297.735	232.771	0.095	-0.155
-296.720	191.445	0.053	-0.079
-295.705	241.168	-0.073	0.121
-294.691	-102.736	-0.187	-0.044
-293.676	-56.481	-0.353	-0.155
-292.662	-200.000	0.006	-0.290
-291.647	-33.326	0.237	-0.130
-290.632	-200.000	0.024	0.202
-289.618	19.569	-0.356	0.284
-288.603	164.192	0.175	-0.244
-287.589	800.000	-0.058	0.248
-286.574	-67.131	0.100	-0.039
-285.559	197.789	-0.065	-0.098
-284.545	-19.132	0.046	0.028
-283.530	-156.576	0.159	-0.010
-282.516	-15.842	0.129	0.081
-281.501	74.092	0.170	-0.177
-280.486	173.838	-0.194	-0.278
-279.472	-160.506	0.224	-0.012
-278.457	408.102	-0.139	0.292
-277.443	-81.938	-0.230	-0.074
-276.428	-106.434	0.360	-0.080
-275.413	-133.338	0.120	0.015
-274.399	592.495	-0.186	-0.455
-273.384	67.919	-0.107	0.108
-272.370	-115.189	0.366	0.069
-271.355	-200.000	0.004	0.061
-270.340	-137.702	0.117	-0.013
-269.326	800.000	0.055	0.215
-268.311	-10.375	-0.087	0.057
-267.297	44.155	-0.130	0.118
-266.282	219.776	-0.215	0.340
-265.267	-2.918	0.119	-0.082
-264.253	170.469	-0.172	-0.244
-263.238	218.049	-0.184	-0.290
-262.224	-95.524	-0.252	0.067
-261.209	-21.731	0.152	0.092
-260.195	-173.472	0.260	-0.008
-259.180	800.000	-0.027	-0.087
-258.165	125.167	-0.056	0.070
-257.151	-30.163	0.222	0.125
-256.136	-72.174	0.271	-0.099
-255.122	-85.792	-0.248	0.076
-254.107	477.396	-0.071	0.158
-253.092	-67.003	0.321	-0.125
-252.078	-175.333	0.266	0.007
-251.063	-200.000	0.014	0.099
-250.049	111.674	-0.236	-0.281
-249.034	-64.445	-0.122	0.049
-248.019	-5.417	-0.094	0.064
-247.005	-166.750	-0.244	0.010
-245.990	-98.690	0.249	-0.063
-244.976	84.195	0.150	0.162
-243.961	-25.259	0.388	-0.227
-242.946	-21.958	-0.068	-0.041
-241.932	32.439	0.161	0.137
-240.917	12.857	0.252	0.193
-239.903	-32.551	0.371	-0.204
-238.888	19.839	0.255	0.203
-237.873	800.000	-0.067	-0.245
-236.859	81.669	-0.204	-0.218
-235.844	170.632	-0.100	-0.142
-234.830	-88.321	-0.108	-0.032
-233.815	-27.345	-0.158	-0.091
-232.800	321.787	0.095	0.179
-231.786	-17.467	-0.183	-0.114
-230.771	42.570	0.051	-0.046
-229.757	130.158	0.074	0.094
-228.742	22.739	-0.165	0.133
-227.727	150.267	-0.090	0.121
-226.713	-161.856	0.180	-0.009
-225.698	228.708	0.023	-0.037
-224.684	69.868	0.097	0.098
-223.669	-200.000	-0.024	-0.260
-222.655	135.332	0.128	0.164
-221.640	143.228	-0.185	-0.243
-220.625	282.284	-0.085	0.151
-219.611	-172.332	0.190	-0.006
-218.596	-101.644	-0.038	-0.009
-217.582	247.998	-0.063	-0.105
-216.567	-12.968	-0.097	0.062
-215.552	-108.409	-0.200	-0.043
-214.538	-186.024	0.266	0.004
-213.523	215.794	0.164	0.256
-212.509	78.206	0.204	-0.215
-211.494	-3.275	0.235	-0.161
-210.479	210.655	0.103	-0.160
-209.465	5.476	0.091	0.067
-208.450	388.988	-0.026	0.053
-207.436	541.115	0.088	-0.208
-206.421	-145.730	-0.421	0.037
-205.406	-20.433	0.338	0.205
-204.392	260.099	-0.112	0.191
-203.377	-88.106	-0.141	0.042
-202.363	44.326	-0.109	-0.099
-201.348	-86.200	-0.165	-0.050
-200.333	218.938	0.206	-0.326
-199.319	110.535	-0.031	0.036
-198.304	-12.314	-0.182	-0.117
-197.290	95.414	-0.099	-0.111
-196.275	-200.000	0.005	0.174
-195.260	-200.000	0.262	-0.000
-194.246	-120.829	0.200	-0.033
-193.231	-107.216	-0.164	0.036
-192.217	306.086	0.072	0.132
-191.202	170.650	0.060	-0.085
-190.187	-78.312	-0.126	-0.043
-189.173	-17.790	-0.156	-0.097
-188.158	-132.602	0.301	0.038
-187.144	-125.797	-0.069	0.010
-186.129	123.478	-0.230	0.285
-185.114	114.897	0.081	-0.098
-184.100	62.696	0.032	-0.031
-183.085	-6.908	0.057	0.038
-182.071	-136.185	0.212	-0.024
-181.056	800.000	-0.062	-0.249
-180.042	-100.425	0.119	-0.029
-179.027	-108.610	0.021	0.004
-178.012	-51.179	-0.133	0.061
-176.998	-77.655	-0.109	0.037
-175.983	-119.308	0.211	0.036
-174.969	-14.263	-0.221	0.141
-173.954	-99.587	-0.393	0.097
-172.939	344.464	0.091	0.176
-171.925	-91.530	0.356	0.100
-170.910	-59.634	-0.279	-0.118
-169.896	-107.080	0.226	0.049
-168.881	352.644	0.115	-0.225
-167.866	800.000	0.115	-0.424
-166.852	-17.751	0.115	-0.071
-165.837	185.587	-0.292	-0.427
-164.823	-185.545	0.133	-0.002
-163.808	212.026	0.203	0.315
-162.793	160.805	-0.169	0.233
-161.779	452.715	0.145	0.315
-160.764	-88.821	-0.177	0.052
-159.750	-32.849	-0.145	0.079
-158.735	-106.317	0.605	0.133
-157.720	80.875	-0.155	0.165
-156.706	-41.833	0.325	0.164
-155.691	-6.827	-0.081	-0.054
-154.677	-200.000	-0.065	0.351
-153.662	800.000	-0.114	-0.469
-152.647	-108.119	0.450	-0.096
-151.633	-9.521	-0.172	0.113
-150.618	-34.502	0.060	-0.032
-149.604	6.156	-0.485	0.354
-148.589	-78.914	0.269	-0.090
-147.574	-58.921	-0.254	-0.108
-146.560	-200.000	0.154	-0.001
-145.545	69.016	0.065	0.066
-144.531	188.391	-0.075	-0.111
-143.516	800.000	-0.075	-0.290
-142.502	285.663	-0.015	0.027
-141.487	-200.000	-0.033	0.191
-140.472	-200.000	-0.030	0.328
-139.458	94.110	-0.324	0.362
-138.443	-85.807	0.075	-0.023
-137.429	-200.000	0.058	-0.261
-136.414	163.416	0.174	-0.241
-135.399	-111.826	-0.150	-0.030
-134.385	72.289	-0.084	0.086
-133.370	-113.410	-0.136	-0.026
-132.356	498.765	-0.077	0.174
-131.341	29.516	0.179	-0.150
-130.326	-120.296	0.325	-0.055
-129.312	127.196	-0.158	0.197
-128.297	-112.843	0.244	0.048
-127.283	-133.887	0.243	0.030
-126.268	800.000	0.012	0.044
-125.253	800.000	-0.054	0.195
-124.239	-108.636	0.162	0.034
-123.224	117.501	0.013	0.016
-122.210	271.248	-0.105	-0.183
-121.195	232.681	0.142	0.229
-120.180	-200.000	0.019	-0.102
-119.166	114.470	-0.087	0.104
-118.151	-57.610	-0.228	0.098
-117.137	-151.598	-0.283	-0.021
-116.122	58.170	0.270	-0.260
-115.107	6.057	-0.097	0.071
-114.093	-89.101	-0.117	0.034
-113.078	-181.166	-0.128	-0.003
-112.064	-44.277	0.145	0.071
-111.049	-119.474	0.425	-0.073
-110.034	457.224	0.095	0.207
-109.020	618.705	-0.052	0.128
-108.005	189.153	-0.016	-0.023
-106.991	26.649	0.186	-0.153
-105.976	-200.000	-0.028	-0.144
-104.962	-18.988	-0.108	0.066
-103.947	157.423	0.061	-0.083
-102.932	-61.587	0.242	0.100
-101.918	800.000	0.094	-0.263
-100.903	571.439	0.100	-0.240
-99.889	-200.000	-0.032	0.242
-98.874	-64.892	-0.159	0.063
-97.859	-200.000	-0.004	0.085
-96.845	-22.395	0.281	-0.168
-95.830	800.000	-0.074	-0.236
-94.816	-73.669	-0.020	0.007
-93.801	-200.000	0.043	-0.208
-92.786	800.000	0.104	0.338
-91.772	-200.000	-0.016	0.215
-90.757	-41.371	0.215	-0.109
-89.743	800.000	0.019	0.076
-88.728	-159.118	0.088	-0.005
-87.713	7.990	0.230	0.169
-86.699	-71.658	0.103	-0.038
-85.684	-200.000	0.012	0.082
-84.670	65.353	-0.100	0.099
-83.655	237.282	-0.170	0.276
-82.640	-145.811	0.224	-0.020
-81.626	119.651	-0.164	0.199
-80.611	37.261	0.113	-0.098
-79.597	-97.440	0.058	0.015
-78.582	19.354	-0.167	-0.132
-77.567	-37.933	-0.140	-0.073
-76.553	-5.212	0.063	-0.042
-75.538	515.175	0.099	0.227
-74.524	47.573	-0.161	0.147
-73.509	-27.552	-0.283	-0.162
-72.494	-93.773	0.043	-0.012
-71.480	-200.000	-0.015	0.453
-70.465	-96.693	-0.285	-0.074
-69.451	322.425	0.065	0.122
-68.436	-52.201	-0.364	0.166
-67.422	5.430	0.143	0.104
-66.407	-4.149	0.050	0.034
-65.392	-56.161	0.120	0.052
-64.378	-49.821	0.242	-0.113
-63.363	268.191	-0.049	0.084
-62.349	-25.573	0.189	0.110
-61.334	106.998	-0.876	-1.021
-60.319	-13.854	0.603	0.382
-59.305	800.000	-0.362	-1.055
-58.290	29.470	0.971	0.810
-57.276	442.652	0.505	1.085
-56.261	-200.000	98.569	610.821
-55.246	603.682	1421.100	3470.163
-54.232	188.352	2619.363	3843.401
-53.217	115.908	2181.144	2619.606
-52.203	41.841	1713.984	1525.083
-51.188	34.067	1526.084	1304.776
-50.173	31.528	1500.431	1265.641
-49.159	51.460	1550.945	1445.786
-48.144	52.553	1568.174	1469.308
-47.130	34.221	1527.333	1306.695
-46.115	31.037	1512.525	1272.292
-45.100	30.911	1508.888	1268.325
-44.086	30.860	1506.799	1266.173
-43.071	30.758	1504.988	1263.903
-42.057	30.859	1503.423	1263.225
-41.042	30.879	1501.991	1262.109
-40.027	30.836	1500.419	1260.446
-39.013	30.762	1498.906	1258.625
-37.998	30.732	1497.559	1257.239
-36.984	30.779	1496.406	1256.540
-35.969	30.856	1494.713	1255.589
-34.954	30.793	1493.662	1254.228
-33.940	30.780	1492.187	1252.854
-32.925	30.823	1490.725	1251.869
-31.911	30.956	1489.419	1251.616
-30.896	30.809	1488.624	1249.910
-29.881	30.929	1486.515	1248.892
-28.867	30.775	1485.473	1246.939
-27.852	30.888	1484.091	1246.482
-26.838	30.853	1482.834	1245.147
-25.823	30.973	1480.969	1244.332
-24.809	30.903	1479.284	1242.398
-23.794	30.870	1477.533	1240.662
-22.779	30.871	1476.680	1239.903
-21.765	30.883	1475.913	1239.284
-20.750	30.841	1474.905	1238.112
-19.736	30.867	1473.645	1237.178
-18.721	30.872	1472.310	1236.038
-17.706	30.723	1471.497	1234.319
-16.692	30.823	1470.488	1234.091
-15.677	30.653	1469.234	1231.864
-14.663	30.825	1467.844	1231.784
-13.648	30.755	1467.648	1231.108
-12.633	30.725	1466.806	1230.153
-11.619	30.719	1465.878	1229.289
-10.604	30.717	1465.113	1228.583
-9.590	30.723	1464.324	1227.915
-8.575	30.716	1463.391	1227.038
-7.560	30.734	1461.977	1225.923
-6.546	30.706	1461.464	1225.254
-5.531	30.687	1460.848	1224.566
-4.517	30.686	1459.359	1223.263
-3.502	30.694	1458.790	1222.794
-2.487	30.752	1457.394	1221.952
-1.473	30.774	1455.917	1220.809
-0.458	30.791	1454.889	1220.013
0.556	28.319	1446.089	1210.161
1.571	26.026	1421.156	1174.286
2.586	23.175	1363.069	1108.357
3.600	22.011	1281.724	1035.260
4.615	20.575	1236.953	990.833
5.629	17.863	1181.787	931.777
6.644	9.339	1095.790	820.567
7.659	1.544	1054.220	750.986
8.673	0.145	1048.801	740.185
9.688	-0.125	1045.829	736.698
10.702	-0.243	1043.742	734.585
11.717	-0.007	1041.710	734.244
12.731	3.541	1046.177	754.701
13.746	12.682	1059.116	809.065
14.761	19.247	1067.620	847.905
15.775	20.818	1069.325	856.918
16.790	21.175	1068.486	857.928
17.804	20.917	1067.989	856.186
18.819	20.810	1067.430	855.134
19.834	20.868	1066.593	854.675
20.848	20.903	1066.080	854.357
21.863	20.911	1065.820	854.116
22.877	20.984	1065.435	854.089
23.892	20.912	1064.813	853.161
24.907	20.882	1064.109	852.376
25.921	20.971	1063.453	852.210
26.936	20.900	1062.364	850.914
27.950	20.817	1061.423	849.682
28.965	20.988	1059.999	849.300
29.980	20.886	1057.943	847.079
30.994	20.726	1057.015	845.487
32.009	20.978	1055.775	845.642
33.023	21.047	1055.329	845.545
34.038	20.828	1054.218	843.516
35.053	20.759	1053.207	842.300
36.067	20.957	1052.661	842.748
37.082	20.854	1052.224	841.822
38.096	20.958	1051.334	841.537
39.111	21.163	1050.801	842.030
40.126	21.317	1049.304	841.496
41.140	21.294	1047.764	840.077
42.155	20.865	1046.689	837.081
43.169	20.588	1045.595	834.799
44.184	20.614	1044.742	834.171
45.199	20.750	1043.057	833.402
46.213	20.608	1042.359	832.093
47.228	20.644	1041.752	831.706
48.242	20.785	1040.538	831.336
49.257	20.905	1039.910	831.331
50.271	20.857	1039.401	830.625
51.286	21.061	1038.336	830.669
52.301	21.029	1037.628	829.879
53.315	21.034	1037.015	829.337
54.330	20.973	1036.152	828.285
55.344	20.837	1035.421	826.980
56.359	20.972	1034.436	826.763
57.374	20.976	1033.354	825.845
58.388	20.893	1032.646	824.810
59.403	20.877	1031.608	823.834
60.417	20.802	1031.153	823.041
61.432	20.731	1029.685	821.465
62.447	20.523	1029.930	820.604
63.461	20.757	1029.034	820.919
64.476	20.899	1028.040	820.726
65.490	20.808	1027.173	819.530
66.505	20.706	1025.980	818.026
67.520	20.615	1025.483	817.130
68.534	20.713	1024.951	817.096
69.549	20.549	1023.794	815.331
70.563	20.419	1022.413	813.553
71.578	20.267	1021.893	812.353
72.593	20.327	1021.128	811.952
73.607	20.199	1020.096	810.463
74.622	20.316	1018.825	809.927
75.636	20.414	1018.935	810.399
76.651	20.628	1017.585	810.252
77.666	20.462	1016.767	808.757
78.680	20.408	1015.692	807.579
79.695	20.460	1015.161	807.326
80.709	20.626	1014.641	807.612
81.724	20.526	1013.926	806.509
82.739	20.596	1012.561	805.678
83.753	20.629	1012.244	805.504
84.768	20.718	1011.745	805.449
85.782	21.051	1011.264	806.533
86.797	21.286	1010.421	806.876
87.812	21.198	1009.068	805.319
88.826	21.127	1008.190	804.220
89.841	21.153	1007.541	803.751
90.855	21.258	1006.658	803.459
91.870	21.309	1005.837	802.966
92.884	21.238	1005.151	802.021
93.899	21.062	1004.190	800.377
94.914	20.926	1003.637	799.242
95.928	21.099	1003.052	799.498
96.943	21.219	1001.687	798.889
97.957	20.840	1000.596	796.214
98.972	20.735	999.232	794.579
99.987	20.526	997.992	792.571
101.001	20.487	997.770	792.146
102.016	20.822	997.241	793.182
103.030	20.953	996.379	793.022
104.045	20.777	995.133	791.160
105.060	20.616	993.793	789.296
106.074	20.622	992.667	788.356
107.089	20.530	992.232	787.526
108.103	20.940	991.705	788.891
109.118	20.951	990.977	788.297
110.133	20.904	989.434	786.787
111.147	20.696	988.581	785.097
112.162	20.691	987.235	783.940
113.176	20.352	985.963	781.332
114.191	20.363	985.494	780.942
115.206	20.644	984.394	781.265
116.220	20.289	983.417	778.824
117.235	20.174	982.234	777.303
118.249	20.313	981.912	777.602
119.264	20.244	981.185	776.652
120.279	20.188	980.094	775.470
121.293	20.286	979.328	775.233
122.308	20.447	978.805	775.469
123.322	20.482	977.381	774.425
124.337	20.412	976.390	773.262
125.352	20.386	974.832	771.843
126.366	20.093	973.186	769.172
127.381	19.512	972.181	765.731
128.395	20.065	971.862	767.863
129.410	20.779	971.515	770.687
130.424	20.920	970.600	770.514
131.439	20.949	969.534	769.727
132.454	20.796	968.805	768.408
133.468	20.951	967.716	768.155
134.483	20.751	966.588	766.315
135.497	20.850	966.127	766.313
136.512	21.126	965.726	767.141
137.527	21.029	965.113	766.161
138.541	20.897	964.591	765.102
139.556	21.034	963.167	764.504
140.570	20.988	962.558	763.750
141.585	20.955	961.877	762.999
142.600	21.317	960.860	763.709
143.614	21.024	960.224	761.854
144.629	21.114	959.323	761.465
145.643	21.452	958.245	762.015
146.658	21.212	957.326	760.170
147.673	21.139	956.301	758.972
148.687	21.053	954.717	757.277
149.702	20.945	954.361	756.457
150.716	20.858	953.166	755.065
151.731	20.852	952.171	754.185
152.746	20.942	951.647	754.092
153.760	21.159	951.069	754.507
154.775	21.173	950.596	754.125
155.789	21.216	949.368	753.270
156.804	21.276	948.188	752.527
157.819	21.200	947.153	751.309
158.833	21.134	946.932	750.783
159.848	21.332	945.801	750.672
160.862	21.458	944.855	750.396
161.877	21.354	943.941	749.158
162.892	21.302	943.129	748.222
163.906	21.382	942.251	747.802
164.921	21.292	941.466	746.728
165.935	21.246	940.370	745.596
166.950	21.265	939.435	744.872
167.964	21.295	938.730	744.377
168.979	21.221	937.761	743.226
169.994	21.118	936.440	741.674
171.008	21.047	935.336	740.435
172.023	21.139	934.641	740.208
173.037	21.356	933.338	740.031
174.052	21.098	932.880	738.511
175.067	21.015	931.848	737.277
176.081	20.994	931.350	736.725
177.096	21.107	929.998	736.068
178.110	21.001	929.372	735.062
179.125	20.818	928.547	733.574
180.140	20.705	927.047	731.850
181.154	20.709	926.478	731.351
182.169	20.785	925.722	731.009
183.183	20.982	925.719	731.770
184.198	21.334	925.266	732.823
185.213	21.213	924.904	731.966
186.227	21.073	924.069	730.654
187.242	21.214	923.263	730.542
188.256	21.353	922.669	730.588
189.271	21.289	921.804	729.569
190.286	21.282	921.083	728.905
191.300	21.315	920.036	728.152
192.315	20.785	918.651	724.784
193.329	19.997	917.662	720.661
194.344	19.659	916.504	718.286
195.359	20.368	916.351	721.046
196.373	20.997	916.886	724.017
197.388	21.206	916.268	724.332
198.402	21.029	915.704	723.087
199.417	21.125	914.969	722.841
200.432	21.156	914.804	722.774
201.446	20.920	913.871	720.997
202.461	20.705	913.114	719.448
203.475	20.754	912.619	719.195
204.490	20.446	910.658	716.319
205.504	19.196	909.616	710.283
206.519	19.758	908.731	711.843
207.534	20.639	909.309	715.862
208.548	20.741	908.628	715.680
209.563	20.989	908.770	716.748
210.577	21.175	907.549	716.484
211.592	20.906	906.703	714.650
212.607	21.348	906.831	716.501
213.621	21.360	906.281	716.051
214.636	21.256	905.427	714.887
215.650	21.429	904.804	715.040
216.665	21.322	903.908	713.832
217.680	21.191	903.945	713.264
218.694	21.408	903.300	713.578
219.709	21.020	902.339	711.173
220.723	20.863	900.718	709.193
221.738	20.909	900.871	709.437
222.753	21.213	900.105	710.008
223.767	21.004	899.904	708.938
224.782	21.167	898.878	708.729
225.796	21.289	898.427	708.804
226.811	21.491	897.380	708.734
227.826	21.103	896.184	706.159
228.840	20.181	894.839	701.310
229.855	20.222	894.376	701.049
230.869	20.407	894.071	701.494
231.884	20.213	892.689	699.564
232.899	20.209	892.167	699.078
233.913	21.028	892.498	702.577
234.928	21.109	892.314	702.697
235.942	21.075	891.761	702.060
236.957	21.220	890.807	701.831
237.972	20.677	890.035	698.982
238.986	20.771	889.298	698.715
240.001	20.797	888.520	698.147
241.015	20.859	888.278	698.145
242.030	20.932	887.006	697.374
243.045	21.139	886.773	697.957
244.059	21.006	886.487	697.139
245.074	21.238	885.981	697.607
246.088	21.210	885.131	696.764
247.103	20.995	883.983	694.942
248.117	20.738	884.041	693.902
249.132	21.294	883.954	695.989
250.147	21.827	883.626	697.790
251.161	21.720	882.943	696.764
252.176	21.956	882.148	697.011
253.190	21.974	881.556	696.552
254.205	22.012	881.383	696.505
255.220	22.110	880.793	696.368
256.234	22.170	880.271	696.131
257.249	22.023	879.758	695.082
258.263	21.988	878.700	694.044
259.278	21.833	878.201	692.975
260.293	22.028	877.938	693.476
261.307	22.024	877.383	692.963
262.322	22.054	876.235	692.111
263.336	21.859	875.899	691.019
264.351	21.383	874.188	687.734
265.366	20.438	872.245	682.434
266.380	19.869	871.261	679.371
267.395	20.686	872.030	683.121
268.409	21.501	871.994	686.228
269.424	21.408	871.652	685.536
270.439	21.709	870.822	686.001
271.453	21.772	870.157	685.660
272.468	21.791	869.551	685.199
273.482	21.956	869.078	685.408
274.497	22.212	868.339	685.764
275.512	22.052	867.310	684.268
276.526	21.335	866.295	680.615
277.541	21.620	865.492	681.032
278.555	21.894	866.086	682.505
279.570	21.756	864.581	680.725
280.585	21.350	864.650	679.142
281.599	21.523	863.496	678.846
282.614	21.752	863.276	679.501
283.628	21.263	862.086	676.608
284.643	20.855	861.120	674.214
285.657	21.362	861.305	676.261
286.672	21.234	860.411	675.003
287.687	20.691	859.189	671.890
288.701	21.193	859.268	673.828
289.716	21.591	859.212	675.260
290.730	21.118	858.585	672.885
291.745	21.085	857.438	671.801
292.760	21.015	856.305	670.583
293.774	20.824	855.942	669.505
294.789	21.803	856.133	673.356
295.803	22.362	856.402	675.657
296.818	22.303	855.915	674.987
297.833	22.427	855.591	675.147
298.847	22.185	854.607	673.385
299.862	21.719	853.453	670.633
300.876	22.023	852.913	671.310
301.891	22.436	852.231	672.291
302.906	22.391	851.888	671.791
303.920	21.970	850.761	669.236
304.935	21.770	850.318	668.067
305.949	22.357	849.838	669.866
306.964	22.346	849.714	669.668
307.979	22.055	848.534	667.572
308.993	22.056	848.248	667.293
310.008	22.447	848.216	668.693
311.022	22.580	847.447	668.532
312.037	22.270	847.141	667.054
313.052	22.088	846.500	665.801
314.066	22.061	845.630	664.958
315.081	21.352	844.139	661.046
316.095	20.765	842.576	657.545
317.110	21.157	843.360	659.579
318.125	21.997	843.541	662.836
319.139	21.657	842.493	660.672
320.154	20.491	840.740	654.846
321.168	20.119	839.492	652.418
322.183	20.712	839.944	654.946
323.197	21.625	839.952	658.326
324.212	21.912	839.890	659.300
325.227	21.865	839.916	659.084
326.241	22.149	839.114	659.463
327.256	22.063	838.469	658.573
328.270	21.986	837.920	657.795
329.285	21.844	837.171	656.618
330.300	21.634	836.403	655.172
331.314	21.523	835.853	654.270
332.329	21.622	834.921	653.850
333.343	22.023	834.624	655.058
334.358	22.283	834.035	655.505
335.373	22.325	833.719	655.355
336.387	22.286	833.500	654.981
337.402	22.438	833.034	655.122
338.416	22.726	832.241	655.511
339.431	22.642	831.844	654.827
340.446	22.601	831.281	654.175
341.460	22.752	830.821	654.315
342.475	22.846	829.916	653.894
343.489	22.544	829.571	652.444
344.504	22.538	829.222	652.091
345.519	22.717	828.424	652.065
346.533	22.932	828.278	652.688
347.548	23.149	828.171	653.346
348.562	22.996	827.878	652.496
349.577	23.093	826.834	651.973
350.592	22.984	826.141	650.963
351.606	22.892	825.665	650.193
352.621	22.918	825.341	649.977
353.635	22.929	824.808	649.539
354.650	22.805	824.280	648.610
355.665	22.498	823.080	646.483
356.679	21.517	821.722	641.765
357.694	21.391	821.245	640.873
358.708	22.124	820.842	643.186
359.723	21.897	820.804	642.269
360.738	22.260	820.215	643.076
361.752	22.678	820.136	644.488
362.767	22.742	819.656	644.286
363.781	22.921	819.631	644.861
364.796	23.202	819.515	645.740
365.810	23.303	818.849	645.526
366.825	23.339	818.689	645.473
367.840	23.373	818.237	645.185
368.854	23.120	818.149	644.138
369.869	22.814	816.779	641.887
370.883	22.632	816.140	640.670
371.898	22.831	815.614	640.921
372.913	22.712	814.711	639.723
373.927	22.570	814.255	638.796
374.942	22.781	813.703	639.068
375.956	23.099	813.169	639.744
376.971	22.947	812.549	638.651
377.986	23.129	812.478	639.194
379.000	23.255	811.839	639.088
380.015	23.273	811.326	638.694
381.029	23.115	810.718	637.590
382.044	23.087	810.209	637.033
383.059	23.260	809.473	637.021
384.073	23.306	808.942	636.712
385.088	23.177	808.861	636.129
386.102	23.277	808.269	635.966
387.117	23.168	807.345	634.792
388.132	22.902	806.923	633.448
389.146	22.865	806.177	632.675
390.161	22.355	805.183	630.011
391.175	22.437	804.784	629.936
392.190	22.959	805.040	631.951
393.205	23.051	804.396	631.717
394.219	22.083	802.643	626.833
395.234	20.463	800.452	619.298
396.248	19.700	799.330	615.657
397.263	20.778	800.329	620.212
398.278	22.524	801.703	627.447
399.292	23.033	801.584	629.111
400.307	22.666	800.639	627.010
401.321	22.621	800.205	626.452
402.336	22.661	799.943	626.335
403.350	22.995	799.739	627.306
404.365	23.297	799.807	628.374
405.380	23.655	799.783	629.569
406.394	23.957	799.216	630.138
407.409	24.023	799.014	630.156
408.423	23.980	798.548	629.582
409.438	23.855	798.010	628.660
410.453	24.058	797.237	628.710
411.467	24.069	796.782	628.335
412.482	23.907	796.465	627.462
413.496	24.040	795.526	627.131
414.511	23.913	796.097	627.082
415.526	24.062	795.104	626.765
416.540	23.918	794.837	625.994
417.555	23.841	794.211	625.174
418.569	23.612	793.414	623.689
419.584	23.551	793.236	623.279
420.599	23.532	792.730	622.760
421.613	155.780	1365.628	1796.584
422.628	134.908	1449.089	1796.691
