DTS Sentinel unit serial number:	SN413079Multiplexer serial number:	ORYXHardware model number:	OX4-SRSoftware version number:	ORYX F/W v4.00 Oryx Data Collector v3.7.2.0data status	okinstallation	princeton_trtdifferential loss correction	single-endedforward channel	channel 3reverse channel	N/Adate	2019/09/11time	20:06:10forward acquisition time	60.00reverse acquisition time	0.00gamma	496.2192k internal	0.2301k external	0.2301temperature offset calibration	1.0021default loss term (dB/km)	0.3790temperature slope calibration	1.0000multiplexer offset coefficient	1.0000multiplexer slope coefficient	1.0000fibre end	0.00T internal ref (°C)	38.56T ext. ref 1 (°C)	1.42T ext. ref 2 (°C)	32.02length (m)	temperature (°C)	Stokes	anti-Stokes-747.200	-200.000	0.023	-0.122
-746.185	800.000	0.065	-0.214
-745.171	-108.775	-0.156	0.034
-744.156	239.135	-0.189	0.321
-743.142	132.311	-0.166	-0.218
-742.127	317.207	-0.046	-0.088
-741.112	-123.465	0.256	-0.041
-740.098	-43.618	-0.182	-0.094
-739.083	800.000	0.090	-0.375
-738.069	-192.344	0.500	0.005
-737.054	154.256	-0.119	0.167
-736.039	15.119	-0.233	0.186
-735.025	8.744	0.323	0.248
-734.010	-109.220	-0.366	-0.079
-732.996	75.586	-0.169	-0.182
-731.981	800.000	0.049	0.177
-730.966	-200.000	0.011	0.260
-729.952	-122.258	-0.292	0.049
-728.937	720.586	-0.052	-0.141
-727.923	800.000	-0.027	0.086
-726.908	25.015	-0.320	-0.271
-725.894	797.854	-0.117	-0.329
-724.879	800.000	-0.117	-0.406
-723.864	800.000	-0.086	-0.288
-722.850	800.000	-0.041	0.137
-721.835	14.317	-0.225	0.179
-720.821	-200.000	-0.026	-0.257
-719.806	-29.492	-0.197	0.115
-718.791	800.000	-0.050	-0.206
-717.777	50.775	0.221	0.214
-716.762	800.000	-0.053	-0.211
-715.748	170.617	-0.028	0.041
-714.733	19.240	0.144	0.117
-713.718	-35.060	0.245	0.136
-712.704	-67.989	-0.238	0.094
-711.689	800.000	-0.024	-0.091
-710.675	-123.477	-0.130	-0.021
-709.660	10.963	-0.082	0.064
-708.645	97.311	0.220	-0.257
-707.631	-189.873	-0.314	0.004
-706.616	14.175	-0.190	0.150
-705.602	119.389	0.119	-0.150
-704.587	-131.050	-0.217	-0.029
-703.572	800.000	-0.044	0.175
-702.558	127.147	0.228	0.295
-701.543	-27.986	0.089	0.053
-700.529	63.268	0.129	-0.131
-699.514	136.657	-0.162	-0.215
-698.499	288.943	0.082	-0.152
-697.485	-155.388	0.336	-0.022
-696.470	-71.515	-0.267	-0.102
-695.456	-200.000	-0.006	-0.358
-694.441	800.000	-0.066	-0.231
-693.426	57.909	0.146	0.146
-692.412	41.291	0.111	0.102
-691.397	-200.000	0.050	-0.253
-690.383	-51.637	-0.152	0.072
-689.368	-24.641	-0.070	0.042
-688.354	-68.915	-0.291	0.114
-687.339	-48.235	0.372	-0.183
-686.324	69.911	-0.346	-0.363
-685.310	-22.615	0.150	0.092
-684.295	705.540	0.055	0.149
-683.281	-176.029	0.112	0.003
-682.266	-200.000	-0.031	-0.269
-681.251	253.929	-0.130	-0.226
-680.237	-36.389	-0.186	-0.102
-679.222	800.000	0.101	0.338
-678.208	-33.988	-0.430	-0.241
-677.193	349.693	0.150	-0.302
-676.178	-93.145	0.150	-0.043
-675.164	800.000	0.054	-0.174
-674.149	177.057	-0.057	-0.084
-673.135	121.524	0.148	-0.188
-672.120	-129.248	-0.187	-0.026
-671.105	-200.000	-0.324	-0.001
-670.091	-200.000	0.008	-0.109
-669.076	-146.930	0.187	0.016
-668.062	420.114	0.096	0.208
-667.047	-18.927	-0.143	0.090
-666.032	-144.572	-0.340	0.032
-665.018	342.634	-0.024	0.048
-664.003	606.494	-0.039	-0.099
-662.989	800.000	0.119	0.362
-661.974	658.567	-0.150	-0.393
-660.959	-64.574	-0.031	-0.013
-659.945	-92.548	-0.064	0.018
-658.930	171.163	-0.102	-0.148
-657.916	217.520	0.070	-0.113
-656.901	-200.000	-0.045	-0.228
-655.886	74.447	-0.041	-0.044
-654.872	-152.093	-0.565	0.042
-653.857	-200.000	-0.005	0.064
-652.843	-200.000	0.043	0.236
-651.828	-200.000	-0.034	-0.374
-650.814	-192.006	0.232	0.002
-649.799	347.831	-0.136	0.273
-648.784	-200.000	-0.018	0.192
-647.770	-132.146	0.290	-0.038
-646.755	99.692	0.208	-0.244
-645.741	-200.000	-0.041	-0.201
-644.726	33.671	-0.095	-0.084
-643.711	-200.000	-0.009	-0.097
-642.697	2.631	-0.103	0.076
-641.682	320.589	0.121	0.233
-640.668	-94.210	-0.176	-0.049
-639.653	-200.000	0.005	-0.214
-638.638	-200.000	0.044	-0.235
-637.624	34.804	0.210	-0.186
-636.609	335.159	0.107	-0.210
-635.595	72.864	-0.282	0.299
-634.580	436.379	-0.017	-0.038
-633.565	800.000	0.015	-0.054
-632.551	39.187	0.126	-0.114
-631.536	-144.423	-0.186	0.018
-630.522	-15.177	0.104	0.068
-629.507	-74.373	0.022	-0.008
-628.492	-200.000	0.078	0.373
-627.478	800.000	-0.065	-0.247
-626.463	330.304	-0.150	-0.293
-625.449	-3.071	0.238	0.168
-624.434	800.000	-0.029	-0.117
-623.419	608.925	0.099	0.252
-622.405	541.942	0.109	-0.265
-621.390	229.761	0.028	0.046
-620.376	593.237	0.134	-0.336
-619.361	-156.596	0.192	0.012
-618.346	800.000	-0.038	0.127
-617.332	67.413	0.212	-0.220
-616.317	309.785	-0.149	0.282
-615.303	-46.158	-0.211	-0.105
-614.288	-51.194	0.283	0.135
-613.273	-106.494	0.256	-0.058
-612.259	99.841	0.151	-0.177
-611.244	29.782	0.322	-0.278
-610.230	-47.138	-0.306	-0.151
-609.215	-176.230	0.311	-0.008
-608.201	111.776	-0.193	-0.236
-607.186	-140.462	0.341	-0.036
-606.171	52.687	-0.154	0.149
-605.157	-38.919	-0.043	0.023
-604.142	-200.000	-0.048	-0.299
-603.128	188.861	0.128	0.194
-602.113	191.275	-0.026	0.040
-601.098	-71.101	0.149	-0.057
-600.084	800.000	-0.037	0.153
-599.069	47.875	-0.091	0.086
-598.055	-37.965	0.514	0.277
-597.040	250.400	-0.103	-0.177
-596.025	-50.289	-0.279	-0.134
-595.011	81.340	-0.175	0.192
-593.996	366.152	0.183	-0.374
-592.982	-200.000	-0.046	-0.251
-591.967	71.281	0.340	0.358
-590.952	-200.000	0.210	0.001
-589.938	-69.250	-0.373	0.145
-588.923	-57.540	-0.473	-0.210
-587.909	-200.000	-0.010	-0.269
-586.894	-200.000	-0.050	-0.338
-585.879	119.499	0.108	0.136
-584.865	800.000	0.040	-0.113
-583.850	218.788	0.174	-0.282
-582.836	-50.974	-0.325	-0.155
-581.821	194.987	-0.103	-0.158
-580.806	-177.343	-0.496	-0.012
-579.792	305.862	0.030	-0.056
-578.777	800.000	0.026	-0.103
-577.763	170.520	0.114	-0.165
-576.748	-186.297	0.259	-0.004
-575.733	498.011	-0.036	-0.085
-574.719	60.032	0.103	-0.103
-573.704	800.000	0.032	0.089
-572.690	-61.280	-0.314	0.134
-571.675	90.478	-0.104	0.118
-570.661	-58.352	-0.266	0.117
-569.646	-3.054	-0.402	-0.284
-568.631	-88.358	0.130	0.039
-567.617	227.624	0.091	0.149
-566.602	104.116	0.169	-0.201
-565.588	-200.000	-0.025	-0.200
-564.573	-187.667	-0.448	0.006
-563.558	-71.722	-0.184	-0.070
-562.544	310.754	0.162	0.308
-561.529	-39.411	-0.135	0.072
-560.515	-200.000	-0.035	-0.312
-559.500	-162.707	-0.130	0.006
-558.485	-125.341	0.159	-0.025
-557.471	800.000	0.113	-0.338
-556.456	-200.000	-0.048	0.289
-555.442	800.000	-0.081	0.280
-554.427	10.631	-0.166	0.128
-553.412	-200.000	-0.006	0.103
-552.398	-99.608	0.368	0.093
-551.383	-123.917	-0.083	0.013
-550.369	61.287	-0.400	-0.402
-549.354	71.983	0.146	0.154
-548.339	-156.921	0.309	0.019
-547.325	-145.624	-0.173	-0.016
-546.310	-112.773	-0.067	0.014
-545.296	-200.000	0.018	0.243
-544.281	-86.402	0.091	-0.028
-543.266	788.728	0.063	0.174
-542.252	489.834	0.062	-0.143
-541.237	102.289	-0.238	0.281
-540.223	-147.075	0.268	0.023
-539.208	-200.000	0.044	0.223
-538.193	-200.000	-0.007	-0.256
-537.179	-103.147	0.158	0.038
-536.164	800.000	-0.063	-0.189
-535.150	-92.769	-0.274	0.078
-534.135	289.936	-0.036	0.065
-533.121	-200.000	-0.035	0.249
-532.106	94.443	-0.154	-0.177
-531.091	307.980	-0.083	0.157
-530.077	428.960	-0.208	-0.455
-529.062	-200.000	-0.008	0.079
-528.048	-193.036	-0.187	0.002
-527.033	5.062	0.226	-0.168
-526.018	755.020	-0.045	-0.122
-525.004	-156.681	0.186	-0.012
-523.989	8.746	-0.128	-0.098
-522.975	-200.000	-0.036	0.229
-521.960	-31.906	0.117	-0.066
-520.945	39.513	0.071	-0.064
-519.931	-74.701	0.246	0.089
-518.916	33.971	-0.242	-0.213
-517.902	628.857	-0.052	0.133
-516.887	-36.291	-0.246	0.134
-515.872	800.000	-0.109	0.423
-514.858	30.971	0.114	-0.099
-513.843	-155.142	0.242	-0.016
-512.829	-146.695	-0.160	-0.014
-511.814	-78.645	0.302	-0.104
-510.799	-33.693	0.239	0.133
-509.785	-69.329	-0.397	-0.154
-508.770	10.240	0.099	0.076
-507.756	37.203	-0.309	0.276
-506.741	115.251	0.186	-0.230
-505.726	-74.436	0.198	0.072
-504.712	-200.000	0.031	-0.139
-503.697	-34.034	-0.376	-0.209
-502.683	-200.000	-0.026	0.118
-501.668	-200.000	-0.015	0.123
-500.653	187.008	0.129	-0.195
-499.639	-138.242	0.225	0.025
-498.624	-96.249	0.204	0.054
-497.610	78.427	0.054	-0.058
-496.595	-61.858	-0.079	-0.033
-495.581	-59.151	0.081	0.035
-494.566	451.345	-0.018	0.039
-493.551	-200.000	-0.027	0.181
-492.537	303.892	0.100	0.188
-491.522	250.596	-0.205	-0.351
-490.508	446.043	0.106	0.234
-489.493	-79.052	0.249	0.085
-488.478	800.000	0.147	-0.439
-487.464	-200.000	0.025	0.136
-486.449	-200.000	-0.035	-0.184
-485.435	130.147	-0.088	0.114
-484.420	108.780	-0.082	-0.099
-483.405	-186.782	-0.403	0.006
-482.391	0.087	0.107	-0.077
-481.376	-161.191	0.204	0.011
-480.362	800.000	-0.095	0.323
-479.347	335.612	0.105	0.206
-478.332	153.706	0.252	0.348
-477.318	-200.000	0.004	-0.047
-476.303	-200.000	-0.068	0.421
-475.289	-28.804	0.294	-0.170
-474.274	478.713	0.067	0.153
-473.259	19.909	-0.347	-0.282
-472.245	438.623	0.113	-0.248
-471.230	253.279	0.059	-0.102
-470.216	-180.934	0.061	0.001
-469.201	-70.365	-0.171	-0.065
-468.186	-87.725	-0.325	-0.099
-467.172	-21.623	-0.151	0.093
-466.157	-29.328	0.257	0.149
-465.143	10.623	-0.109	0.084
-464.128	-91.339	-0.061	0.018
-463.113	71.673	0.166	-0.174
-462.099	-200.000	-0.017	0.216
-461.084	-157.662	0.314	0.019
-460.070	-200.000	-0.022	-0.112
-459.055	-200.000	0.004	-0.027
-458.040	800.000	-0.073	0.304
-457.026	-85.570	0.085	-0.027
-456.011	800.000	0.155	-0.433
-454.997	-92.876	-0.302	0.085
-453.982	800.000	0.102	-0.395
-452.968	-200.000	0.033	0.200
-451.953	220.434	-0.232	-0.375
-450.938	800.000	0.112	-0.479
-449.924	18.224	-0.186	-0.149
-448.909	-51.859	-0.071	-0.033
-447.895	-200.000	0.011	0.140
-446.880	263.144	0.101	0.177
-445.865	-65.720	0.195	-0.079
-444.851	212.810	0.121	0.193
-443.836	800.000	-0.076	0.278
-442.822	-173.964	-0.232	0.007
-441.807	-114.884	0.090	-0.017
-440.792	-80.096	-0.294	0.099
-439.778	73.180	0.261	-0.275
-438.763	-90.768	0.281	-0.082
-437.749	43.892	0.081	0.075
-436.734	62.667	-0.098	-0.098
-435.719	-169.707	0.344	0.013
-434.705	800.000	0.044	-0.127
-433.690	794.841	0.105	-0.291
-432.676	800.000	0.039	0.142
-431.661	-40.489	-0.130	0.068
-430.646	800.000	-0.063	-0.259
-429.632	-183.303	0.222	0.004
-428.617	513.006	-0.074	0.173
-427.603	220.392	-0.051	0.082
-426.588	-200.000	0.008	-0.220
-425.573	351.801	-0.064	-0.129
-424.559	-200.000	0.045	0.409
-423.544	177.340	0.227	0.333
-422.530	-43.842	-0.224	-0.114
-421.515	-109.534	-0.247	-0.053
-420.500	480.915	-0.089	0.203
-419.486	233.956	0.209	-0.347
-418.471	98.803	-0.220	-0.255
-417.457	-59.856	-0.170	-0.073
-416.442	-36.308	0.242	-0.131
-415.428	-112.685	-0.219	0.044
-414.413	362.525	0.075	0.152
-413.398	435.003	-0.051	0.111
-412.384	-99.796	0.358	-0.090
-411.369	-56.001	0.208	-0.094
-410.355	-46.610	-0.211	0.104
-409.340	-116.734	-0.065	0.012
-408.325	-148.922	0.269	0.022
-407.311	-173.312	0.236	-0.007
-406.296	56.787	0.311	-0.305
-405.282	282.099	-0.090	0.162
-404.267	-108.840	0.194	0.042
-403.252	-2.733	0.112	0.079
-402.238	800.000	-0.020	0.081
-401.223	-55.193	0.315	0.143
-400.209	-5.865	0.203	-0.140
-399.194	29.643	-0.018	-0.016
-398.179	36.246	-0.248	-0.220
-397.165	-84.159	-0.281	0.090
-396.150	162.051	-0.116	0.163
-395.136	-20.105	0.344	0.213
-394.121	405.822	0.063	-0.133
-393.106	-200.000	0.014	-0.308
-392.092	27.657	-0.158	-0.134
-391.077	7.267	0.147	-0.110
-390.063	-200.000	-0.078	-0.359
-389.048	182.300	0.132	-0.195
-388.033	-200.000	0.015	0.402
-387.019	30.138	-0.168	0.144
-386.004	-55.815	0.188	-0.084
-384.990	-28.144	0.195	0.113
-383.975	5.303	-0.124	0.092
-382.960	-96.780	0.334	0.088
-381.946	-200.000	0.004	-0.159
-380.931	-124.065	-0.062	-0.010
-379.917	209.869	-0.063	-0.100
-378.902	-200.000	0.003	0.217
-377.888	14.050	-0.369	0.289
-376.873	-0.033	-0.263	-0.188
-375.858	76.475	0.092	-0.098
-374.844	36.370	-0.083	-0.074
-373.829	510.272	-0.234	-0.548
-372.815	118.682	-0.285	0.354
-371.800	-200.000	-0.027	0.131
-370.785	174.970	0.046	-0.067
-369.771	280.799	0.142	0.255
-368.756	243.304	-0.009	-0.015
-367.742	617.378	-0.019	-0.049
-366.727	-174.103	-0.118	0.003
-365.712	11.807	0.144	0.111
-364.698	145.986	0.218	-0.294
-363.683	328.037	-0.032	0.061
-362.669	-200.000	0.008	0.372
-361.654	169.185	0.113	0.162
-360.639	230.074	0.065	0.107
-359.625	-64.729	0.059	0.024
-358.610	-127.690	0.193	0.028
-357.596	52.819	-0.166	0.159
-356.581	124.474	-0.118	0.149
-355.566	800.000	0.030	0.083
-354.552	299.965	-0.170	-0.314
-353.537	302.047	0.133	0.247
-352.523	-200.000	0.021	0.432
-351.508	-200.000	-0.030	0.526
-350.493	-200.000	-0.016	-0.261
-349.479	316.219	-0.149	-0.282
-348.464	497.829	-0.083	0.192
-347.450	-12.064	0.054	0.035
-346.435	-200.000	-0.013	-0.316
-345.420	400.060	0.143	-0.300
-344.406	23.548	0.012	-0.010
-343.391	-200.000	0.031	0.146
-342.377	-200.000	-0.036	-0.235
-341.362	-26.875	0.308	0.181
-340.348	178.619	-0.062	-0.091
-339.333	-116.547	0.262	-0.048
-338.318	129.549	-0.297	0.381
-337.304	-39.829	0.200	-0.105
-336.289	-61.021	-0.113	-0.048
-335.275	-200.000	-0.027	0.147
-334.260	104.897	0.122	0.145
-333.245	800.000	0.084	-0.287
-332.231	-103.470	0.212	0.050
-331.216	12.816	-0.070	-0.054
-330.202	215.847	0.060	-0.095
-329.187	-200.000	-0.026	0.173
-328.172	-67.722	0.211	-0.083
-327.158	-39.571	0.190	0.100
-326.143	131.649	0.085	0.110
-325.129	-28.009	0.136	-0.079
-324.114	-175.404	0.193	-0.005
-323.099	583.676	-0.081	0.199
-322.085	-200.000	0.039	0.397
-321.070	800.000	0.029	-0.095
-320.056	-138.366	0.139	0.015
-319.041	800.000	0.101	0.393
-318.026	21.924	-0.189	0.154
-317.012	-200.000	-0.029	0.444
-315.997	-172.157	0.366	-0.012
-314.983	-25.250	0.229	0.136
-313.968	-120.081	0.299	-0.051
-312.953	-56.213	-0.181	0.081
-311.939	230.164	0.100	-0.164
-310.924	149.786	-0.252	-0.342
-309.910	-11.244	0.348	-0.230
-308.895	-200.000	-0.036	-0.216
-307.880	-200.000	-0.019	-0.121
-306.866	-72.448	0.246	0.091
-305.851	58.111	0.326	0.320
-304.837	8.264	-0.046	-0.034
-303.822	7.043	0.128	0.096
-302.807	800.000	-0.056	0.195
-301.793	555.869	-0.279	0.673
-300.778	2.738	0.127	0.092
-299.764	-96.990	0.235	0.062
-298.749	676.669	-0.091	-0.236
-297.735	-5.596	-0.405	-0.278
-296.720	800.000	0.083	-0.272
-295.705	800.000	-0.072	-0.220
-294.691	-85.911	0.386	0.120
-293.676	212.264	0.056	-0.089
-292.662	300.944	0.085	0.158
-291.647	-125.520	0.157	-0.024
-290.632	-38.433	0.204	-0.108
-289.618	266.154	-0.095	-0.167
-288.603	64.024	-0.152	0.154
-287.589	-200.000	0.001	-0.016
-286.574	439.933	-0.023	-0.050
-285.559	-73.337	-0.368	-0.135
-284.545	-131.826	-0.404	-0.053
-283.530	-169.307	0.336	-0.012
-282.516	800.000	-0.093	0.272
-281.501	-58.351	-0.121	0.053
-280.486	800.000	0.098	0.295
-279.472	577.624	0.152	0.372
-278.457	800.000	-0.120	0.419
-277.443	-137.336	0.074	0.008
-276.428	200.794	-0.182	0.280
-275.413	-43.656	-0.257	0.130
-274.399	-54.084	-0.073	-0.033
-273.384	-200.000	-0.012	-0.086
-272.370	-113.253	-0.486	-0.096
-271.355	-200.000	0.002	0.262
-270.340	-200.000	-0.020	-0.116
-269.326	-62.284	-0.266	-0.111
-268.311	-97.546	0.122	-0.032
-267.297	85.553	0.273	0.300
-266.282	-174.586	-0.324	0.009
-265.267	-24.603	-0.303	0.181
-264.253	-113.646	0.090	0.018
-263.238	-200.000	-0.033	0.517
-262.224	182.511	0.246	-0.363
-261.209	-139.740	-0.256	-0.027
-260.195	-160.404	-0.100	0.005
-259.180	-200.000	-0.010	0.057
-258.165	88.649	0.210	0.233
-257.151	-18.630	-0.179	0.111
-256.136	-200.000	0.037	-0.211
-255.122	8.728	0.345	0.260
-254.107	-20.835	-0.039	-0.024
-253.092	180.853	-0.224	0.329
-252.078	14.136	0.124	-0.097
-251.063	-136.423	-0.303	-0.035
-250.049	115.478	-0.225	-0.275
-249.034	-200.000	0.009	-0.166
-248.019	-43.206	-0.216	-0.109
-247.005	-17.894	-0.109	-0.068
-245.990	-200.000	-0.042	0.186
-244.976	-18.536	-0.174	-0.108
-243.961	-137.213	-0.119	-0.014
-242.946	348.009	0.087	-0.171
-241.932	-88.233	0.110	0.033
-240.917	58.194	0.139	0.136
-239.903	-200.000	0.057	0.262
-238.888	144.661	0.145	0.194
-237.873	682.914	-0.066	-0.172
-236.859	213.963	-0.246	0.388
-235.844	443.481	-0.212	0.465
-234.830	-52.641	0.045	0.021
-233.815	-200.000	-0.049	-0.248
-232.800	-93.031	-0.166	0.046
-231.786	-50.277	0.245	-0.116
-230.771	-59.557	-0.236	-0.101
-229.757	55.292	-0.108	0.105
-228.742	515.101	-0.093	-0.217
-227.727	665.412	-0.025	-0.066
-226.713	-200.000	-0.061	-0.456
-225.698	-200.000	0.021	-0.111
-224.684	-200.000	-0.037	-0.167
-223.669	-200.000	-0.015	0.232
-222.655	-78.220	-0.146	-0.050
-221.640	-136.757	-0.183	0.021
-220.625	4.672	0.126	0.092
-219.611	-65.607	0.136	-0.055
-218.596	168.638	-0.148	0.210
-217.582	180.335	0.151	-0.221
-216.567	-141.434	-0.319	-0.032
-215.552	-117.376	0.236	0.043
-214.538	-25.218	0.247	0.146
-213.523	-85.921	-0.157	-0.048
-212.509	685.659	0.032	-0.084
-211.494	-59.291	-0.111	-0.048
-210.479	16.414	-0.207	-0.163
-209.465	-62.080	0.118	0.049
-208.450	-79.270	0.122	-0.041
-207.436	-106.575	0.204	-0.045
-206.421	-43.927	0.319	-0.160
-205.406	156.743	0.098	0.136
-204.392	-28.517	-0.252	0.145
-203.377	-106.166	-0.209	-0.047
-202.363	-40.725	0.192	0.099
-201.348	-174.611	0.289	0.008
-200.333	-200.000	-0.042	-0.252
-199.319	-47.052	-0.035	0.017
-198.304	168.682	0.058	-0.083
-197.290	525.725	0.079	0.185
-196.275	363.686	-0.162	-0.326
-195.260	-200.000	0.040	0.216
-194.246	-200.000	-0.031	-0.231
-193.231	-49.973	-0.274	0.130
-192.217	-96.960	-0.264	0.069
-191.202	159.067	-0.195	0.271
-190.187	26.308	-0.139	0.116
-189.173	136.297	0.127	-0.166
-188.158	-34.124	-0.416	-0.228
-187.144	214.719	-0.235	0.372
-186.129	147.466	0.160	0.215
-185.114	-200.000	-0.015	-0.156
-184.100	186.438	-0.052	0.078
-183.085	-13.806	-0.182	0.117
-182.071	483.231	-0.102	-0.232
-181.056	-200.000	0.012	-0.304
-180.042	-162.140	0.553	0.028
-179.027	625.791	0.147	0.369
-178.012	-38.144	0.165	0.087
-176.998	-22.740	-0.172	0.104
-175.983	38.315	0.192	-0.170
-174.969	-200.000	-0.017	-0.121
-173.954	351.889	0.038	0.076
-172.939	-53.653	0.255	-0.116
-171.925	-130.418	-0.209	-0.028
-170.910	37.880	0.186	0.164
-169.896	-28.516	-0.054	-0.031
-168.881	159.746	-0.069	-0.095
-167.866	-123.845	-0.372	0.058
-166.852	-200.000	0.003	-0.154
-165.837	16.978	-0.203	-0.160
-164.823	161.152	-0.058	0.081
-163.808	300.752	-0.067	0.123
-162.793	15.497	0.249	-0.195
-161.779	86.071	0.306	-0.336
-160.764	82.421	-0.248	0.268
-159.750	-45.393	-0.201	0.099
-158.735	57.406	-0.277	-0.269
-157.720	-101.009	-0.347	-0.085
-156.706	-17.218	-0.184	0.116
-155.691	-106.921	-0.421	-0.093
-154.677	1.115	0.147	0.105
-153.662	-200.000	-0.011	-0.063
-152.647	311.595	-0.035	0.066
-151.633	58.386	0.381	-0.372
-150.618	800.000	0.092	-0.336
-149.604	228.272	-0.208	0.337
-148.589	-53.383	-0.045	-0.021
-147.574	94.021	-0.183	0.206
-146.560	64.932	0.193	0.194
-145.545	442.425	-0.063	0.138
-144.531	-95.133	0.247	0.066
-143.516	-182.608	0.191	0.003
-142.502	-95.259	0.299	0.080
-141.487	-89.362	0.400	0.117
-140.472	-102.173	-0.274	-0.066
-139.458	800.000	-0.040	-0.145
-138.443	513.049	0.064	0.148
-137.429	224.981	-0.128	0.207
-136.414	-15.814	0.208	-0.132
-135.399	-69.819	-0.146	0.055
-134.385	-113.461	0.437	-0.085
-133.370	800.000	-0.058	-0.181
-132.356	-200.000	0.035	-0.358
-131.341	579.813	-0.131	-0.320
-130.326	-64.460	-0.401	0.162
-129.312	161.400	0.067	-0.094
-128.297	-200.000	0.021	-0.132
-127.283	-200.000	-0.010	0.077
-126.268	800.000	-0.096	0.354
-125.253	83.092	-0.048	-0.052
-124.239	68.570	0.033	-0.033
-123.224	87.274	-0.180	-0.198
-122.210	800.000	-0.057	-0.234
-121.195	-10.653	-0.356	0.235
-120.180	-200.000	-0.014	0.072
-119.166	148.726	0.217	0.292
-118.151	-200.000	-0.059	-0.315
-117.137	328.957	-0.164	0.314
-116.122	46.327	0.316	0.291
-115.107	393.013	0.243	-0.503
-114.093	418.156	-0.101	-0.214
-113.078	-53.851	0.087	-0.039
-112.064	800.000	-0.042	-0.176
-111.049	46.782	0.130	-0.121
-110.034	-135.744	0.163	0.019
-109.020	-12.570	-0.135	-0.087
-108.005	-200.000	-0.036	0.189
-106.991	-31.593	-0.170	0.095
-105.976	-6.551	0.165	-0.112
-104.962	273.847	0.159	-0.280
-103.947	-74.731	0.214	-0.076
-102.932	800.000	0.024	0.070
-101.918	-18.837	-0.017	0.011
-100.903	68.651	0.229	0.234
-99.889	-200.000	-0.004	0.355
-98.874	-109.649	0.623	-0.130
-97.859	86.046	-0.257	0.282
-96.845	-75.303	0.252	-0.089
-95.830	-29.198	0.203	-0.116
-94.816	467.703	0.026	-0.057
-93.801	-103.253	-0.122	0.029
-92.786	-105.719	-0.149	0.033
-91.772	800.000	-0.056	0.204
-90.757	26.444	0.380	0.316
-89.743	-92.873	0.081	-0.022
-88.728	-200.000	-0.019	-0.111
-87.713	584.529	-0.144	0.351
-86.699	800.000	0.045	0.128
-85.684	37.967	0.330	-0.291
-84.670	98.350	-0.091	0.104
-83.655	-64.733	-0.200	0.081
-82.640	-54.094	0.333	-0.150
-81.626	89.813	0.081	-0.090
-80.611	-15.283	-0.356	-0.226
-79.597	276.845	-0.069	-0.121
-78.582	16.600	0.139	-0.109
-77.567	464.055	-0.056	-0.124
-76.553	294.216	0.211	0.383
-75.538	-73.707	-0.172	-0.062
-74.524	60.142	-0.091	0.090
-73.509	122.416	0.180	-0.223
-72.494	-105.365	0.175	-0.040
-71.480	63.298	0.056	0.056
-70.465	-136.046	0.306	0.036
-69.451	68.791	0.117	0.120
-68.436	-200.000	-0.009	-0.049
-67.422	100.815	-0.116	-0.134
-66.407	52.974	-0.050	-0.048
-65.392	-200.000	0.010	0.068
-64.378	-122.813	-0.102	0.016
-63.363	-123.751	0.340	0.053
-62.349	-190.609	-0.259	-0.003
-61.334	302.277	-0.571	-1.049
-60.319	25.063	0.401	0.330
-59.305	800.000	-0.235	-0.993
-58.290	335.534	0.467	0.898
-57.276	320.033	0.735	1.385
-56.261	-200.000	84.706	494.231
-55.246	489.463	1356.778	3077.810
-54.232	149.987	2571.031	3460.252
-53.217	112.583	2215.044	2660.591
-52.203	48.127	1752.983	1626.561
-51.188	41.594	1561.838	1403.418
-50.173	39.082	1534.406	1361.339
-49.159	55.064	1578.934	1513.498
-48.144	59.525	1599.248	1564.302
-47.130	42.132	1557.180	1402.779
-46.115	38.898	1542.046	1366.620
-45.100	38.573	1539.218	1361.797
-44.086	38.570	1536.557	1359.366
-43.071	38.603	1534.144	1357.407
-42.057	38.506	1532.893	1355.574
-41.042	38.610	1531.095	1354.655
-40.027	38.467	1530.448	1353.040
-39.013	38.457	1528.624	1351.305
-37.998	38.504	1527.163	1350.283
-36.984	38.570	1525.260	1348.999
-35.969	38.556	1524.268	1347.972
-34.954	38.538	1523.393	1347.021
-33.940	38.521	1521.963	1345.584
-32.925	38.567	1520.384	1344.451
-31.911	38.560	1518.944	1343.079
-30.896	38.656	1517.399	1342.315
-29.881	38.602	1516.226	1340.856
-28.867	38.682	1514.701	1340.001
-27.852	38.654	1513.156	1338.392
-26.838	38.601	1511.459	1336.472
-25.823	38.590	1510.453	1335.458
-24.809	38.634	1508.530	1334.006
-23.794	38.663	1506.618	1332.458
-22.779	38.528	1506.544	1331.418
-21.765	38.587	1505.160	1330.548
-20.750	38.646	1503.697	1329.596
-19.736	38.665	1502.332	1328.466
-18.721	38.637	1501.122	1327.158
-17.706	38.584	1500.248	1325.969
-16.692	38.622	1498.850	1324.944
-15.677	38.571	1497.770	1323.587
-14.663	38.579	1496.674	1322.624
-13.648	38.448	1496.078	1321.159
-12.633	38.417	1494.915	1319.872
-11.619	38.528	1493.938	1319.703
-10.604	38.599	1492.923	1319.231
-9.590	38.554	1491.948	1318.015
-8.575	38.515	1491.215	1317.054
-7.560	38.540	1490.556	1316.587
-6.546	38.527	1489.505	1315.523
-5.531	38.463	1488.900	1314.502
-4.517	38.435	1487.604	1313.115
-3.502	38.449	1486.453	1312.141
-2.487	38.494	1485.640	1311.676
-1.473	38.586	1484.290	1311.050
-0.458	38.673	1482.567	1310.055
0.556	38.095	1472.829	1296.887
1.571	34.628	1445.283	1249.869
2.586	30.346	1381.477	1167.721
3.600	28.219	1297.816	1084.324
4.615	26.706	1249.584	1035.293
5.629	22.434	1191.593	963.829
6.644	11.571	1101.210	835.386
7.659	2.945	1055.406	758.142
8.673	1.637	1049.783	747.615
9.688	1.442	1046.190	744.035
10.702	1.254	1045.096	742.269
11.717	1.348	1043.278	741.371
12.731	5.144	1047.530	762.911
13.746	15.246	1062.525	823.632
14.761	22.771	1072.150	868.185
15.775	24.110	1073.304	875.631
16.790	24.188	1072.680	875.428
17.804	24.130	1071.754	874.309
18.819	23.912	1070.807	872.393
19.834	23.996	1070.336	872.344
20.848	24.202	1069.633	872.702
21.863	24.222	1069.728	872.799
22.877	24.199	1069.373	872.322
23.892	24.133	1068.393	871.119
24.907	23.948	1067.699	869.575
25.921	24.173	1066.866	869.917
26.936	24.083	1066.090	868.767
27.950	24.031	1065.572	868.016
28.965	24.013	1063.537	866.195
29.980	23.944	1062.333	864.801
30.994	23.930	1061.339	863.850
32.009	24.106	1060.208	863.702
33.023	24.120	1060.301	863.774
34.038	24.000	1058.727	861.833
35.053	23.916	1058.129	860.864
36.067	24.128	1057.653	861.424
37.082	24.292	1055.792	860.622
38.096	24.113	1055.840	859.721
39.111	24.296	1054.788	859.673
40.126	24.388	1053.861	859.283
41.140	24.337	1052.744	858.051
42.155	23.926	1051.381	854.888
43.169	23.724	1050.170	852.863
44.184	23.778	1049.009	852.098
45.199	23.735	1048.151	851.121
46.213	23.712	1046.924	849.942
47.228	23.610	1046.194	848.783
48.242	23.821	1045.646	849.274
49.257	23.861	1045.323	849.128
50.271	24.055	1043.463	848.464
51.286	24.061	1043.644	848.566
52.301	24.160	1042.412	847.961
53.315	24.212	1041.828	847.656
54.330	24.149	1040.968	846.586
55.344	24.031	1040.189	845.316
56.359	24.061	1039.254	844.625
57.374	24.045	1038.266	843.670
58.388	23.924	1037.428	842.339
59.403	23.739	1037.136	841.155
60.417	23.884	1036.262	841.056
61.432	23.643	1035.257	839.027
62.447	23.707	1034.723	838.824
63.461	23.732	1034.343	838.559
64.476	23.944	1033.401	838.720
65.490	23.911	1032.395	837.672
66.505	23.914	1031.079	836.545
67.520	23.703	1030.886	835.324
68.534	23.885	1030.046	835.425
69.549	23.677	1029.351	833.811
70.563	23.440	1028.032	831.555
71.578	23.363	1026.966	830.259
72.593	23.334	1026.133	829.379
73.607	23.282	1024.985	828.130
74.622	23.264	1024.133	827.286
75.636	23.556	1023.597	828.144
76.651	23.735	1022.509	828.023
77.666	23.465	1022.221	826.459
78.680	23.509	1020.785	825.430
79.695	23.386	1020.659	824.682
80.709	23.507	1020.119	824.735
81.724	23.745	1019.323	825.124
82.739	23.797	1018.368	824.519
83.753	23.666	1017.496	823.136
84.768	23.972	1016.997	824.076
85.782	24.199	1016.654	824.776
86.797	24.475	1015.630	825.150
87.812	24.416	1014.512	823.893
88.826	24.180	1013.978	822.298
89.841	24.241	1013.424	822.059
90.855	24.294	1012.264	821.290
91.870	24.374	1011.645	821.081
92.884	24.427	1010.615	820.418
93.899	24.293	1009.693	818.981
94.914	24.152	1008.862	817.587
95.928	24.265	1008.317	817.592
96.943	24.367	1007.204	817.082
97.957	23.956	1006.140	814.266
98.972	23.790	1004.921	812.449
99.987	23.651	1003.969	810.973
101.001	23.693	1003.387	810.621
102.016	23.925	1003.200	811.459
103.030	24.101	1001.740	811.006
104.045	24.007	1000.768	809.724
105.060	23.889	999.329	807.951
106.074	23.694	998.520	806.337
107.089	23.703	997.618	805.580
108.103	23.925	997.621	806.520
109.118	24.126	996.548	806.488
110.133	23.794	995.210	803.832
111.147	23.874	994.055	803.190
112.162	23.677	993.449	801.740
113.176	23.501	991.977	799.689
114.191	23.700	990.771	799.544
115.206	23.667	990.875	799.407
116.220	23.419	989.307	796.955
117.235	23.355	988.536	795.978
118.249	23.566	987.385	795.927
119.264	23.495	986.664	794.957
120.279	23.348	986.057	793.739
121.293	23.413	985.094	793.185
122.308	23.577	984.689	793.521
123.322	23.553	983.666	792.521
124.337	23.334	983.094	791.009
125.352	23.222	981.657	789.284
126.366	22.960	979.958	786.683
127.381	22.646	978.681	784.190
128.395	23.167	978.371	786.190
129.410	23.922	977.954	789.138
130.424	23.981	977.378	788.863
131.439	23.941	976.518	787.922
132.454	23.979	975.199	786.954
133.468	24.096	974.161	786.567
134.483	23.976	973.556	785.478
135.497	23.993	972.966	785.006
136.512	24.085	972.658	785.096
137.527	24.218	971.812	784.931
138.541	24.135	971.096	783.916
139.556	24.240	970.472	783.804
140.570	24.298	969.354	783.088
141.585	24.421	967.943	782.415
142.600	24.388	967.656	781.971
143.614	24.116	966.868	780.076
144.629	24.278	965.926	779.952
145.643	24.591	965.509	780.917
146.658	24.530	964.066	779.414
147.673	24.338	963.225	777.830
148.687	24.210	962.043	776.246
149.702	24.126	960.977	774.955
150.716	23.984	960.218	773.655
151.731	24.037	958.710	772.599
152.746	24.081	958.306	772.399
153.760	24.196	958.007	772.588
154.775	24.361	957.185	772.570
155.789	24.359	956.164	771.670
156.804	24.366	955.204	770.857
157.819	24.267	954.481	769.779
158.833	24.397	953.551	769.522
159.848	24.484	952.559	769.028
160.862	24.566	951.845	768.737
161.877	24.504	950.751	767.518
162.892	24.364	949.730	766.024
163.906	24.336	949.050	765.287
164.921	24.299	948.178	764.360
165.935	24.204	947.297	763.175
166.950	24.387	946.211	763.014
167.964	24.330	945.287	761.958
168.979	24.351	944.568	761.401
169.994	24.169	943.083	759.361
171.008	24.087	941.891	757.985
172.023	24.338	941.439	758.621
173.037	24.466	940.839	758.616
174.052	24.144	939.627	756.205
175.067	24.002	938.960	754.999
176.081	24.010	937.750	753.991
177.096	24.222	937.104	754.304
178.110	24.319	935.867	753.650
179.125	23.970	935.212	751.584
180.140	23.734	934.254	749.749
181.154	23.650	933.673	748.865
182.169	23.837	933.550	749.488
183.183	23.985	933.046	749.642
184.198	24.295	932.359	750.327
185.213	24.238	932.059	749.776
186.227	24.201	930.917	748.637
187.242	24.267	930.461	748.483
188.256	24.292	929.920	748.087
189.271	24.436	928.692	747.634
190.286	24.476	928.058	747.224
191.300	24.261	927.462	745.780
192.315	23.811	925.928	742.600
193.329	23.185	924.008	738.386
194.344	22.561	923.452	735.274
195.359	23.297	923.739	738.506
196.373	23.973	924.073	741.526
197.388	24.312	923.770	742.630
198.402	24.205	922.932	741.446
199.417	24.027	922.486	740.282
200.432	24.221	921.828	740.492
201.446	24.124	921.110	739.450
202.461	23.820	920.249	737.431
203.475	24.054	919.564	737.785
204.490	23.489	918.226	734.308
205.504	22.403	916.552	728.415
206.519	22.680	916.580	729.519
207.534	23.623	916.702	733.451
208.548	23.708	915.860	733.063
209.563	24.141	915.529	734.519
210.577	24.122	915.166	734.084
211.592	23.919	913.918	732.183
212.607	24.351	914.276	734.181
213.621	24.404	913.813	733.961
214.636	24.258	912.829	732.506
215.650	24.281	912.473	732.251
216.665	24.407	911.528	731.946
217.680	24.315	911.382	731.388
218.694	24.384	911.339	731.568
219.709	24.151	910.185	729.626
220.723	23.722	908.817	726.710
221.738	23.941	908.480	727.271
222.753	24.146	907.698	727.417
223.767	24.142	907.134	726.884
224.782	24.332	906.170	726.825
225.796	24.409	906.173	727.073
226.811	24.472	905.440	726.677
227.826	24.146	903.910	724.061
228.840	23.284	902.584	719.436
229.855	23.291	901.837	718.803
230.869	23.556	901.882	719.850
231.884	23.150	900.852	717.322
232.899	23.217	900.196	717.007
233.913	24.007	900.233	720.172
234.928	24.115	900.171	720.493
235.942	24.110	899.225	719.653
236.957	24.038	898.511	718.727
237.972	23.779	897.539	716.842
238.986	23.826	896.791	716.370
240.001	23.910	896.088	716.084
241.015	23.865	895.529	715.393
242.030	23.921	895.043	715.166
243.045	24.040	894.547	715.185
244.059	24.116	894.119	715.085
245.074	24.331	893.697	715.544
246.088	24.216	892.967	714.435
247.103	23.899	891.663	712.064
248.117	23.803	891.549	711.522
249.132	24.349	891.165	713.337
250.147	24.842	891.071	715.169
251.161	24.938	890.168	714.765
252.176	24.972	890.072	714.760
253.190	24.985	889.033	713.916
254.205	25.021	888.829	713.832
255.220	25.381	887.964	714.506
256.234	25.333	887.628	713.983
257.249	25.294	886.392	712.768
258.263	24.994	886.226	711.381
259.278	24.947	885.770	710.768
260.293	25.063	885.379	710.849
261.307	25.267	884.734	711.077
262.322	25.011	884.198	709.570
263.336	24.972	883.498	708.790
264.351	24.570	881.878	705.841
265.366	23.385	880.202	699.760
266.380	23.023	879.029	697.338
267.395	23.778	879.559	700.674
268.409	24.510	879.943	703.807
269.424	24.660	879.174	703.721
270.439	24.641	878.439	702.994
271.453	24.859	877.755	703.241
272.468	24.986	877.120	703.168
273.482	25.084	876.875	703.293
274.497	25.159	876.471	703.204
275.512	24.984	875.020	701.293
276.526	24.386	873.871	697.972
277.541	24.561	873.767	698.510
278.555	24.883	873.633	699.597
279.570	24.693	872.749	698.088
280.585	24.532	872.042	696.833
281.599	24.667	871.434	696.810
282.614	24.742	871.083	696.762
283.628	24.289	870.302	694.311
284.643	24.104	868.838	692.360
285.657	24.356	869.137	693.517
286.672	24.355	868.223	692.724
287.687	23.864	867.411	690.111
288.701	24.099	867.375	690.931
289.716	24.582	867.000	692.444
290.730	24.281	866.054	690.464
291.745	23.996	865.090	688.532
292.760	23.848	864.419	687.362
293.774	23.878	863.569	686.741
294.789	24.812	864.142	690.743
295.803	25.342	864.629	693.117
296.818	25.438	864.364	693.215
297.833	25.578	863.231	692.786
298.847	25.214	862.586	690.807
299.862	24.919	861.248	688.539
300.876	25.016	860.757	688.457
301.891	25.461	860.425	689.839
302.906	25.399	860.361	689.491
303.920	25.085	858.765	686.946
304.935	24.891	857.969	685.504
305.949	25.298	857.963	687.000
306.964	25.415	857.485	687.002
307.979	25.144	856.836	685.386
308.993	25.095	856.150	684.588
310.008	25.456	856.078	685.851
311.022	25.583	855.779	686.032
312.037	25.529	854.909	685.070
313.052	25.223	854.491	683.509
314.066	25.039	853.965	682.328
315.081	24.249	852.464	678.063
316.095	23.741	850.529	674.534
317.110	24.289	850.777	676.755
318.125	24.931	851.403	679.628
319.139	24.633	850.196	677.475
320.154	23.502	848.408	671.711
321.168	23.092	847.653	669.503
322.183	23.668	847.982	671.883
323.197	24.523	848.513	675.480
324.212	24.818	848.157	676.251
325.227	24.920	847.749	676.252
326.241	25.181	846.866	676.472
327.256	25.069	846.568	675.752
328.270	24.876	845.817	674.367
329.285	24.963	845.037	674.013
330.300	24.867	844.189	672.916
331.314	24.395	843.715	670.702
332.329	24.670	842.755	670.915
333.343	24.901	842.643	671.633
334.358	25.284	842.046	672.532
335.373	25.198	841.969	672.087
336.387	25.349	841.437	672.167
337.402	25.447	841.125	672.229
338.416	25.750	840.718	672.974
339.431	25.676	840.176	672.207
340.446	25.703	839.267	671.519
341.460	25.744	839.291	671.632
342.475	25.784	838.558	671.134
343.489	25.564	837.700	669.571
344.504	25.640	837.050	669.274
345.519	25.867	836.577	669.680
346.533	26.080	836.355	670.235
347.548	26.178	836.248	670.452
348.562	26.234	835.400	669.923
349.577	26.097	834.796	668.870
350.592	25.790	834.339	667.308
351.606	25.925	833.805	667.323
352.621	26.077	833.392	667.495
353.635	25.871	833.298	666.599
354.650	25.872	832.363	665.796
355.665	25.536	831.233	663.593
356.679	24.419	829.950	658.392
357.694	24.356	829.133	657.454
358.708	25.053	828.668	659.590
359.723	24.939	828.437	658.928
360.738	25.067	828.339	659.264
361.752	25.598	828.149	661.006
362.767	25.832	827.953	661.651
363.781	25.895	827.744	661.656
364.796	26.283	827.680	662.972
365.810	26.446	827.098	663.044
366.825	26.414	826.663	662.518
367.840	26.392	826.498	662.246
368.854	26.338	825.684	661.341
369.869	25.910	824.430	658.711
370.883	25.679	824.183	657.613
371.898	25.788	823.706	657.571
372.913	25.841	822.542	656.777
373.927	25.622	822.291	655.723
374.942	25.912	821.519	656.104
375.956	26.068	821.340	656.472
376.971	26.095	820.685	655.986
377.986	26.162	820.353	655.907
379.000	26.389	819.798	656.230
380.015	26.358	819.212	655.588
381.029	26.177	818.679	654.449
382.044	26.134	817.753	653.494
383.059	26.331	817.653	654.070
384.073	26.315	817.216	653.604
385.088	26.445	816.395	653.359
386.102	26.355	815.848	652.542
387.117	26.278	814.821	651.385
388.132	26.132	814.478	650.526
389.146	25.849	813.928	649.007
390.161	25.376	812.717	646.282
391.175	25.421	812.769	646.431
392.190	26.062	812.812	648.711
393.205	26.061	812.252	648.206
394.219	25.029	810.287	642.877
395.234	23.345	808.452	635.332
396.248	22.532	807.311	631.468
397.263	23.643	808.132	636.035
398.278	25.469	809.707	643.768
399.292	25.948	809.597	645.337
400.307	25.709	808.811	643.801
401.321	25.624	808.505	643.195
402.336	25.742	808.329	643.421
403.350	25.993	807.760	643.808
404.365	26.474	807.665	645.391
405.380	26.688	807.598	646.044
406.394	27.046	807.273	647.003
407.409	27.103	807.054	646.971
408.423	27.089	806.331	646.285
409.438	26.930	805.754	645.199
410.453	27.055	805.373	645.284
411.467	27.047	804.962	644.869
412.482	27.003	804.374	644.181
413.496	26.987	803.838	643.642
414.511	27.134	803.300	643.673
415.526	27.138	803.019	643.406
416.540	26.947	803.013	642.667
417.555	27.033	802.232	642.290
418.569	26.735	801.520	640.610
419.584	26.607	801.040	639.719
420.599	26.787	800.720	640.040
421.613	101.221	1271.655	1412.254
422.628	86.986	1340.296	1412.385
