DTS Sentinel unit serial number:	SN413079Multiplexer serial number:	ORYXHardware model number:	OX4-SRSoftware version number:	ORYX F/W v4.00 Oryx Data Collector v3.7.2.0data status	okinstallation	princeton_trtdifferential loss correction	single-endedforward channel	channel 3reverse channel	N/Adate	2019/09/11time	18:38:11forward acquisition time	60.00reverse acquisition time	0.00gamma	496.2192k internal	0.2288k external	0.2288temperature offset calibration	0.9995default loss term (dB/km)	0.3790temperature slope calibration	1.0000multiplexer offset coefficient	1.0000multiplexer slope coefficient	1.0000fibre end	0.00T internal ref (°C)	43.56T ext. ref 1 (°C)	1.18T ext. ref 2 (°C)	36.23length (m)	temperature (°C)	Stokes	anti-Stokes-747.200	-86.475	-0.223	0.070
-746.185	238.255	0.233	0.396
-745.171	584.492	-0.155	0.390
-744.156	-200.000	-0.023	0.328
-743.142	38.344	0.306	-0.279
-742.127	-178.342	0.187	0.004
-741.112	74.289	-0.081	0.087
-740.098	800.000	0.021	0.062
-739.083	28.923	-0.135	-0.118
-738.069	800.000	-0.190	0.688
-737.054	5.544	0.125	0.095
-736.039	286.308	-0.265	0.490
-735.025	-84.584	0.090	0.029
-734.010	176.065	-0.220	0.328
-732.996	312.890	-0.241	-0.464
-731.981	-136.114	0.349	0.042
-730.966	275.058	-0.083	0.150
-729.952	4.334	-0.171	-0.128
-728.937	96.632	-0.030	0.035
-727.923	800.000	-0.044	-0.191
-726.908	-200.000	-0.003	0.174
-725.894	-164.254	0.073	0.003
-724.879	800.000	0.078	-0.221
-723.864	-173.706	-0.251	-0.008
-722.850	-78.487	-0.157	0.055
-721.835	-24.272	0.138	-0.084
-720.821	-19.596	0.214	0.136
-719.806	-14.525	-0.044	0.029
-718.791	-147.573	-0.145	0.012
-717.777	784.769	-0.041	-0.114
-716.762	732.956	-0.015	-0.042
-715.748	-200.000	-0.034	-0.187
-714.733	-73.019	0.285	0.107
-713.718	398.404	-0.063	-0.135
-712.704	-4.858	0.083	-0.059
-711.689	-86.937	-0.380	-0.119
-710.675	178.760	0.123	0.184
-709.660	-16.693	-0.033	-0.022
-708.645	33.167	-0.256	-0.227
-707.631	487.499	-0.159	0.372
-706.616	-1.736	0.209	0.150
-705.602	-79.099	0.110	-0.038
-704.587	88.548	-0.127	-0.145
-703.572	-35.994	-0.367	-0.203
-702.558	-31.059	-0.305	-0.176
-701.543	179.544	-0.230	-0.345
-700.529	88.331	0.170	0.193
-699.514	-44.121	-0.127	-0.065
-698.499	53.346	-0.148	0.146
-697.485	45.449	-0.347	0.328
-696.470	251.748	0.198	0.345
-695.456	112.508	-0.160	0.198
-694.441	353.957	0.062	-0.126
-693.426	-200.000	0.013	-0.229
-692.412	800.000	0.132	0.413
-691.397	59.304	-0.199	0.201
-690.383	549.194	0.027	-0.066
-689.368	-200.000	0.040	-0.213
-688.354	109.713	0.190	0.233
-687.339	800.000	-0.047	-0.142
-686.324	-92.225	0.061	-0.018
-685.310	183.170	0.070	0.106
-684.295	-90.380	-0.188	-0.056
-683.281	15.156	0.188	-0.151
-682.266	-39.429	-0.131	0.070
-681.251	622.473	-0.065	0.168
-680.237	-169.329	-0.387	0.015
-679.222	331.058	0.136	-0.268
-678.208	-50.849	0.193	-0.093
-677.193	-24.760	-0.259	0.157
-676.178	-40.284	-0.103	0.055
-675.164	25.070	-0.148	-0.125
-674.149	800.000	0.016	0.047
-673.135	701.961	-0.116	-0.312
-672.120	62.375	0.226	0.230
-671.105	800.000	0.054	-0.225
-670.091	-149.848	-0.141	0.011
-669.076	800.000	0.068	0.280
-668.062	-151.083	0.362	-0.028
-667.047	-200.000	0.004	0.212
-666.032	-200.000	-0.006	0.115
-665.018	-20.210	-0.059	0.037
-664.003	800.000	0.063	0.206
-662.989	205.661	-0.324	0.514
-661.974	206.300	-0.082	0.130
-660.959	705.335	0.014	-0.036
-659.945	13.861	-0.091	-0.072
-658.930	-200.000	-0.039	0.268
-657.916	800.000	0.046	0.131
-656.901	-200.000	-0.039	-0.402
-655.886	112.431	0.298	0.368
-654.872	-26.286	-0.134	-0.080
-653.857	-28.829	-0.124	-0.073
-652.843	-200.000	0.016	-0.360
-651.828	-71.376	-0.169	-0.065
-650.814	79.741	0.203	-0.222
-649.799	38.623	-0.145	0.133
-648.784	67.702	0.106	0.110
-647.770	-39.645	-0.267	0.143
-646.755	-81.980	-0.328	-0.109
-645.741	-70.689	0.198	-0.076
-644.726	-200.000	-0.065	-0.637
-643.711	800.000	0.121	-0.531
-642.697	-138.367	0.119	-0.013
-641.682	252.418	-0.083	-0.145
-640.668	50.432	-0.142	-0.137
-639.653	-19.991	0.099	-0.062
-638.638	-200.000	-0.169	-0.001
-637.624	149.439	-0.085	-0.117
-636.609	4.082	0.101	0.075
-635.595	787.747	-0.061	-0.171
-634.580	-16.839	0.180	0.116
-633.565	-140.733	-0.208	0.022
-632.551	-200.000	-0.014	-0.371
-631.536	-165.397	0.092	-0.004
-630.522	82.355	-0.157	-0.174
-629.507	-106.993	0.293	0.066
-628.492	191.492	-0.159	-0.245
-627.478	34.553	-0.218	-0.195
-626.463	287.552	0.118	0.218
-625.449	800.000	-0.054	0.237
-624.434	-94.569	-0.180	0.050
-623.419	-72.102	0.317	-0.120
-622.405	369.626	-0.096	-0.199
-621.390	223.722	-0.155	0.255
-620.376	-159.289	-0.157	-0.009
-619.361	126.363	-0.219	-0.283
-618.346	-33.922	-0.097	0.054
-617.332	165.240	0.085	-0.122
-616.317	800.000	-0.104	-0.343
-615.303	314.973	0.270	-0.520
-614.288	591.048	-0.070	-0.175
-613.273	351.452	0.040	0.080
-612.259	-58.965	-0.108	-0.048
-611.244	465.807	-0.067	0.153
-610.230	209.831	0.025	-0.041
-609.215	310.432	-0.064	-0.122
-608.201	311.195	0.020	0.038
-607.186	-200.000	0.026	0.219
-606.171	14.869	-0.123	0.098
-605.157	-200.000	-0.007	0.044
-604.142	345.302	0.108	0.217
-603.128	146.144	-0.120	0.164
-602.113	-200.000	0.019	0.143
-601.098	552.092	0.098	0.240
-600.084	446.219	0.046	-0.104
-599.069	-200.000	-0.021	0.102
-598.055	16.990	0.224	0.181
-597.040	0.577	-0.044	0.032
-596.025	98.825	-0.031	0.037
-595.011	800.000	0.064	-0.285
-593.996	-140.561	0.316	-0.033
-592.982	17.906	-0.317	0.258
-591.967	800.000	0.036	-0.158
-590.952	-31.026	-0.392	0.226
-589.938	800.000	0.013	0.046
-588.923	266.868	-0.182	-0.325
-587.909	-87.214	0.239	-0.074
-586.894	-84.431	-0.115	0.037
-585.879	-11.879	0.235	0.157
-584.865	800.000	0.110	0.314
-583.850	-200.000	0.008	0.101
-582.836	-66.073	0.202	-0.082
-581.821	-184.165	-0.278	-0.005
-580.806	-200.000	0.021	0.181
-579.792	75.810	-0.043	0.047
-578.777	24.747	-0.092	-0.077
-577.763	-77.683	-0.217	0.076
-576.748	287.694	0.097	-0.179
-575.733	-200.000	0.003	-0.053
-574.719	402.088	0.104	0.222
-573.704	-4.782	-0.143	0.100
-572.690	800.000	-0.052	0.205
-571.675	-200.000	0.000	-0.151
-570.661	-51.480	0.070	0.033
-569.646	-88.339	0.292	0.089
-568.631	-190.373	-0.364	0.004
-567.617	125.395	-0.160	0.205
-566.602	-81.646	-0.185	0.062
-565.588	-37.842	0.084	-0.046
-564.573	-200.000	-0.006	-0.105
-563.558	-30.987	-0.124	0.071
-562.544	-200.000	-0.019	0.217
-561.529	-200.000	-0.069	-0.343
-560.515	-200.000	0.046	0.224
-559.500	55.052	-0.242	-0.238
-558.485	-200.000	0.033	0.182
-557.471	-56.538	0.533	-0.240
-556.456	74.306	0.117	0.125
-555.442	723.455	0.045	0.122
-554.427	-200.000	-0.005	0.257
-553.412	-97.989	-0.135	-0.035
-552.398	596.190	0.138	-0.348
-551.383	50.472	-0.236	-0.227
-550.369	-105.963	0.151	-0.035
-549.354	-140.733	-0.389	-0.041
-548.339	800.000	-0.015	0.054
-547.325	11.105	0.185	0.144
-546.310	-171.139	-0.248	-0.009
-545.296	-43.907	0.193	0.099
-544.281	146.653	0.148	-0.203
-543.266	-65.260	-0.238	0.098
-542.252	800.000	0.040	0.120
-541.237	187.653	-0.170	0.258
-540.223	300.161	0.114	0.214
-539.208	-31.547	0.164	0.094
-538.193	224.719	-0.195	0.320
-537.179	-131.921	-0.128	0.017
-536.164	-108.561	-0.242	-0.053
-535.150	51.845	-0.181	-0.175
-534.135	193.787	0.146	-0.224
-533.121	184.350	-0.146	0.220
-532.106	24.115	-0.045	0.038
-531.091	298.978	-0.180	-0.337
-530.077	-128.514	0.115	-0.017
-529.062	-200.000	0.001	-0.322
-528.048	800.000	-0.051	0.195
-527.033	-75.156	0.266	0.097
-526.018	-167.580	-0.071	0.003
-525.004	800.000	0.050	-0.200
-523.989	-94.608	-0.233	0.065
-522.975	-72.198	0.150	0.057
-521.960	-121.470	0.162	0.027
-520.945	-19.682	0.357	0.225
-519.931	-142.521	-0.163	-0.016
-518.916	381.307	0.028	-0.059
-517.902	50.688	0.339	-0.326
-516.887	449.528	-0.121	-0.272
-515.872	800.000	-0.180	-0.598
-514.858	-126.527	0.034	0.005
-513.843	194.584	-0.075	0.115
-512.829	87.305	-0.136	-0.153
-511.814	27.102	0.065	-0.056
-510.799	-76.494	-0.313	0.112
-509.785	15.996	0.065	0.052
-508.770	-0.827	0.069	0.049
-507.756	-200.000	-0.012	0.078
-506.741	654.634	0.008	0.020
-505.726	-148.707	0.476	0.039
-504.712	-9.169	-0.249	-0.169
-503.697	200.652	-0.092	-0.143
-502.683	-31.184	0.220	0.126
-501.668	-67.845	0.132	-0.052
-500.653	-200.000	0.114	-0.000
-499.639	309.814	-0.009	-0.017
-498.624	-130.639	-0.370	-0.051
-497.610	107.358	-0.051	0.062
-496.595	761.828	0.039	0.108
-495.581	-200.000	0.052	-0.370
-494.566	-200.000	-0.006	-0.190
-493.551	800.000	0.050	-0.196
-492.537	75.741	0.063	0.068
-491.522	800.000	-0.053	0.159
-490.508	-91.807	0.198	0.057
-489.493	-200.000	0.027	0.636
-488.478	-120.171	0.279	0.048
-487.464	-21.066	0.124	-0.077
-486.449	55.077	0.233	-0.228
-485.435	-200.000	0.015	-0.067
-484.420	-200.000	-0.004	0.112
-483.405	63.812	0.083	-0.085
-482.391	-200.000	-0.017	0.329
-481.376	-124.010	-0.372	0.059
-480.362	-11.671	-0.200	-0.134
-479.347	21.699	-0.125	0.103
-478.332	457.454	-0.162	0.365
-477.318	199.779	-0.051	0.080
-476.303	800.000	0.046	0.179
-475.289	686.979	0.089	0.235
-474.274	54.337	-0.225	-0.220
-473.259	574.463	0.070	0.172
-472.245	800.000	-0.054	0.228
-471.230	31.534	0.071	0.062
-470.216	-200.000	0.012	0.056
-469.201	-80.768	-0.225	-0.076
-468.186	-40.173	-0.191	0.101
-467.172	-171.917	0.191	-0.006
-466.157	26.147	0.074	0.063
-465.143	-33.774	-0.178	0.100
-464.128	-200.000	-0.036	0.333
-463.113	38.890	0.134	0.122
-462.099	-200.000	-0.056	-0.528
-461.084	75.856	0.150	-0.161
-460.070	-95.282	-0.155	-0.042
-459.055	-200.000	0.003	-0.191
-458.040	-47.949	0.247	0.121
-457.026	-78.202	-0.106	0.037
-456.011	58.034	0.141	0.140
-454.997	-114.497	-0.418	0.081
-453.982	40.904	-0.391	0.357
-452.968	-125.914	0.178	0.027
-451.953	-151.416	0.322	-0.024
-450.938	408.488	-0.081	-0.173
-449.924	-200.000	-0.025	0.308
-448.909	-64.952	-0.529	-0.217
-447.895	-179.174	0.293	-0.007
-446.880	39.880	0.086	0.078
-445.865	-44.077	0.154	0.078
-444.851	205.543	0.176	0.276
-443.836	120.434	0.186	-0.234
-442.822	-48.883	0.137	-0.066
-441.807	458.032	0.168	-0.378
-440.792	-95.902	-0.071	-0.019
-439.778	800.000	0.027	-0.111
-438.763	41.941	0.221	-0.203
-437.749	-135.990	-0.358	-0.043
-436.734	-180.201	0.060	-0.001
-435.719	149.807	-0.157	-0.216
-434.705	-34.652	0.057	-0.032
-433.690	7.268	0.152	0.115
-432.676	-117.588	0.124	0.023
-431.661	-200.000	-0.014	0.249
-430.646	-107.630	-0.273	0.061
-429.632	0.913	0.045	-0.033
-428.617	665.635	-0.119	0.311
-427.603	-111.271	0.065	0.014
-426.588	800.000	0.029	0.095
-425.573	-10.840	-0.069	-0.046
-424.559	21.305	-0.085	-0.070
-423.544	150.512	0.107	0.147
-422.530	-1.599	0.097	0.069
-421.515	-96.314	0.276	-0.074
-420.500	722.882	-0.087	-0.235
-419.486	-13.556	-0.459	-0.301
-418.471	39.812	0.099	0.090
-417.457	800.000	-0.074	0.243
-416.442	800.000	-0.085	0.242
-415.428	47.603	0.116	0.110
-414.413	472.406	-0.154	-0.350
-413.398	41.093	0.102	0.093
-412.384	-130.671	0.183	0.025
-411.369	418.285	-0.107	-0.231
-410.355	-152.612	0.249	-0.018
-409.340	-123.971	0.236	0.038
-408.325	-200.000	0.058	0.336
-407.311	88.804	0.129	-0.146
-406.296	-200.000	-0.013	0.297
-405.282	710.868	-0.018	0.047
-404.267	-77.205	0.345	0.122
-403.252	89.229	0.139	0.157
-402.238	-36.190	0.214	-0.117
-401.223	144.063	0.007	0.010
-400.209	-200.000	-0.006	0.221
-399.194	-160.894	0.357	0.019
-398.179	78.458	0.195	-0.211
-397.165	-78.389	0.146	0.051
-396.150	-200.000	-0.024	-0.509
-395.136	-106.623	0.137	-0.031
-394.121	20.314	-0.217	-0.177
-393.106	8.039	-0.264	0.201
-392.092	800.000	-0.045	0.148
-391.077	-137.747	-0.207	0.023
-390.063	7.741	-0.181	-0.137
-389.048	49.116	-0.064	0.061
-388.033	-151.234	0.367	0.028
-387.019	63.175	-0.214	-0.216
-386.004	-200.000	-0.015	-0.396
-384.990	-200.000	-0.022	0.308
-383.975	-85.150	-0.343	0.108
-382.960	-139.782	0.105	0.011
-381.946	-200.000	-0.048	-0.299
-380.931	764.499	-0.015	-0.040
-379.917	-21.342	0.111	-0.069
-378.902	-97.625	-0.307	0.080
-377.888	-48.507	0.173	0.084
-376.873	-200.000	-0.021	-0.180
-375.858	139.933	-0.177	0.236
-374.844	-200.000	-0.038	-0.387
-373.829	236.202	-0.030	-0.051
-372.815	501.261	-0.029	0.067
-371.800	-25.012	0.104	-0.062
-370.785	-65.215	-0.228	0.093
-369.771	168.608	-0.109	-0.157
-368.756	200.697	-0.061	-0.094
-367.742	100.801	0.097	0.114
-366.727	-14.579	0.119	-0.077
-365.712	-183.271	-0.254	0.004
-364.698	-34.962	-0.308	0.170
-363.683	606.731	0.067	-0.169
-362.669	-200.000	-0.031	-0.199
-361.654	-43.425	0.063	-0.032
-360.639	-200.000	-0.029	0.465
-359.625	-12.539	-0.210	0.139
-358.610	-200.000	0.020	-0.159
-357.596	-60.488	0.278	0.119
-356.581	103.040	-0.141	-0.167
-355.566	-200.000	-0.017	0.093
-354.552	-70.321	0.310	-0.119
-353.537	-95.294	0.155	-0.042
-352.523	-200.000	0.012	-0.085
-351.508	558.179	0.040	-0.097
-350.493	-200.000	-0.017	-0.101
-349.479	-127.323	-0.127	-0.019
-348.464	56.731	-0.255	0.251
-347.450	83.260	-0.054	-0.060
-346.435	-129.936	-0.130	-0.018
-345.420	-111.075	0.241	0.050
-344.406	-119.315	0.162	-0.028
-343.391	-144.575	0.447	0.042
-342.377	-200.000	0.021	-0.342
-341.362	-12.478	-0.167	0.110
-340.348	-79.608	-0.371	0.126
-339.333	-117.752	-0.250	-0.045
-338.318	-80.292	-0.210	-0.071
-337.304	800.000	0.044	-0.154
-336.289	-130.787	-0.180	0.024
-335.275	800.000	-0.021	0.083
-334.260	800.000	-0.051	0.223
-333.245	-181.756	-0.296	-0.006
-332.231	34.923	-0.327	-0.289
-331.216	120.278	-0.251	0.314
-330.202	244.335	-0.189	-0.320
-329.187	88.013	0.253	-0.284
-328.172	800.000	0.054	0.204
-327.158	77.660	-0.354	-0.380
-326.143	124.473	-0.059	0.074
-325.129	-39.730	0.165	-0.087
-324.114	-66.936	-0.057	-0.023
-323.099	-37.604	-0.251	0.135
-322.085	299.359	0.059	0.110
-321.070	-14.978	-0.239	-0.155
-320.056	800.000	0.049	0.214
-319.041	9.571	-0.067	0.051
-318.026	-200.000	0.014	0.282
-317.012	-90.918	-0.171	-0.050
-315.997	-108.765	0.064	-0.014
-314.983	-86.437	0.097	-0.030
-313.968	-200.000	0.059	-0.321
-312.953	111.438	0.103	0.125
-311.939	-25.770	0.206	0.123
-310.924	72.523	-0.139	0.146
-309.910	518.324	-0.083	0.195
-308.895	268.534	0.081	0.144
-307.880	-72.973	0.281	0.104
-306.866	-186.701	-0.191	0.003
-305.851	800.000	-0.021	-0.080
-304.837	-200.000	0.021	0.180
-303.822	214.713	0.126	0.202
-302.807	103.051	-0.102	0.121
-301.793	143.996	0.064	-0.087
-300.778	63.847	0.267	0.270
-299.764	-200.000	0.057	-0.264
-298.749	-35.849	-0.240	-0.131
-297.735	800.000	0.028	-0.092
-296.720	-156.520	0.303	0.019
-295.705	132.326	-0.228	0.296
-294.691	-23.897	0.294	-0.177
-293.676	4.069	-0.107	-0.079
-292.662	371.870	0.170	-0.347
-291.647	8.203	-0.344	0.260
-290.632	-63.814	-0.253	0.105
-289.618	-200.000	-0.007	-0.095
-288.603	10.154	-0.053	-0.041
-287.589	-108.922	0.169	-0.036
-286.574	-76.749	-0.453	0.160
-285.559	-91.105	0.238	0.069
-284.545	-200.000	0.006	-0.173
-283.530	371.518	-0.160	-0.328
-282.516	-62.622	-0.246	0.103
-281.501	78.067	0.102	0.110
-280.486	18.153	-0.094	0.076
-279.472	-159.287	0.256	-0.014
-278.457	-200.000	-0.026	-0.201
-277.443	-200.000	-0.019	0.105
-276.428	-77.024	0.232	0.081
-275.413	800.000	-0.092	0.323
-274.399	-85.797	0.108	-0.034
-273.384	-43.346	0.177	0.090
-272.370	65.091	-0.115	-0.117
-271.355	-72.304	-0.487	0.182
-270.340	-200.000	0.014	0.171
-269.326	800.000	-0.064	-0.181
-268.311	-200.000	-0.013	0.150
-267.297	800.000	0.016	0.065
-266.282	139.353	-0.100	-0.132
-265.267	-200.000	-0.012	0.060
-264.253	75.564	0.165	0.176
-263.238	5.555	-0.159	0.118
-262.224	-109.478	0.154	-0.033
-261.209	271.992	-0.201	0.356
-260.195	24.084	0.416	-0.346
-259.180	-42.913	0.312	-0.159
-258.165	-200.000	0.009	-0.059
-257.151	-126.396	0.341	-0.051
-256.136	-80.159	0.199	0.067
-255.122	155.344	-0.177	0.245
-254.107	33.144	0.315	-0.275
-253.092	165.633	0.162	-0.230
-252.078	369.416	-0.052	0.105
-251.063	102.470	-0.055	0.065
-250.049	-98.370	0.145	-0.037
-249.034	-75.654	0.218	-0.078
-248.019	21.305	-0.129	-0.106
-247.005	-60.148	0.058	-0.025
-245.990	-7.707	0.178	0.121
-244.976	25.688	0.115	0.096
-243.961	-82.655	0.374	-0.122
-242.946	177.017	-0.088	0.129
-241.932	87.769	0.126	-0.141
-240.917	190.725	-0.078	0.118
-239.903	42.773	-0.021	-0.019
-238.888	366.049	-0.087	0.176
-237.873	-66.950	-0.157	0.062
-236.859	-128.954	0.489	0.069
-235.844	800.000	0.025	-0.077
-234.830	-0.491	0.163	-0.116
-233.815	-200.000	-0.060	-0.367
-232.800	291.271	-0.064	0.117
-231.786	-93.345	-0.262	-0.073
-230.771	-200.000	0.034	-0.378
-229.757	-200.000	0.007	-0.274
-228.742	216.986	-0.125	-0.200
-227.727	218.381	0.212	0.340
-226.713	14.421	0.459	-0.360
-225.698	-162.949	-0.034	0.002
-224.684	-117.309	0.107	0.019
-223.669	-104.721	0.271	-0.063
-222.655	97.983	-0.008	0.009
-221.640	690.566	0.078	0.205
-220.625	198.987	0.071	-0.109
-219.611	15.185	0.340	0.268
-218.596	800.000	0.064	-0.263
-217.582	-51.730	0.313	-0.146
-216.567	-200.000	-0.052	0.268
-215.552	217.090	0.108	0.172
-214.538	607.439	0.047	0.118
-213.523	-29.944	-0.400	0.229
-212.509	758.763	-0.080	0.218
-211.494	404.168	-0.189	0.400
-210.479	-105.969	-0.083	0.019
-209.465	276.969	-0.103	0.184
-208.450	-200.000	0.030	0.200
-207.436	-200.000	-0.033	-0.190
-206.421	174.599	-0.064	-0.093
-205.406	-80.133	0.170	-0.057
-204.392	-1.907	-0.067	-0.047
-203.377	-97.825	0.098	-0.025
-202.363	800.000	-0.048	-0.195
-201.348	-54.245	-0.153	-0.070
-200.333	-101.479	0.079	-0.019
-199.319	-200.000	0.005	-0.218
-198.304	-154.372	0.281	-0.019
-197.290	-14.356	-0.247	0.160
-196.275	-51.365	0.178	-0.084
-195.260	-200.000	0.029	-0.161
-194.246	65.025	-0.113	0.115
-193.231	-200.000	0.020	-0.458
-192.217	107.324	0.099	-0.119
-191.202	-18.921	-0.046	-0.029
-190.187	63.246	-0.154	-0.155
-189.173	-57.309	-0.259	0.114
-188.158	800.000	0.026	0.083
-187.144	-25.826	0.137	0.081
-186.129	800.000	-0.057	0.206
-185.114	800.000	-0.033	0.144
-184.100	-84.035	-0.213	0.068
-183.085	192.097	-0.090	0.137
-182.071	800.000	-0.089	-0.267
-181.056	-35.767	0.369	-0.200
-180.042	56.731	0.259	-0.253
-179.027	147.749	0.126	-0.170
-178.012	-75.411	-0.217	-0.078
-176.998	-100.746	-0.153	0.038
-175.983	239.278	0.101	0.169
-174.969	-109.453	-0.132	0.028
-173.954	-77.901	0.331	0.115
-172.939	5.710	0.171	0.127
-171.925	-137.322	0.241	0.027
-170.910	-113.402	-0.151	-0.030
-169.896	800.000	-0.088	-0.275
-168.881	-200.000	-0.035	0.218
-167.866	-61.899	0.344	0.144
-166.852	-38.125	-0.078	0.041
-165.837	-88.894	0.435	-0.129
-164.823	-114.877	0.227	0.043
-163.808	-118.203	-0.209	0.037
-162.793	237.608	0.194	-0.323
-161.779	-131.088	0.368	-0.049
-160.764	-12.209	-0.363	0.238
-159.750	31.813	-0.245	0.211
-158.735	-87.438	-0.178	-0.054
-157.720	-4.337	0.129	-0.089
-156.706	800.000	0.010	0.032
-155.691	-52.492	0.066	0.030
-154.677	455.394	-0.150	0.334
-153.662	26.623	-0.180	0.151
-152.647	18.626	0.264	-0.212
-151.633	800.000	-0.089	0.372
-150.618	-47.844	0.199	0.097
-149.604	800.000	0.103	-0.394
-148.589	34.925	0.305	-0.267
-147.574	-100.575	0.281	0.070
-146.560	-200.000	-0.024	-0.309
-145.545	-200.000	0.012	-0.086
-144.531	657.382	0.092	-0.237
-143.516	10.349	0.238	0.181
-142.502	214.174	0.030	0.047
-141.487	-176.663	-0.241	-0.006
-140.472	-67.776	-0.069	-0.027
-139.458	103.602	-0.129	0.151
-138.443	550.167	-0.033	-0.079
-137.429	-200.000	0.001	0.254
-136.414	-123.544	0.299	-0.048
-135.399	-3.199	-0.021	-0.015
-134.385	-62.669	0.356	0.148
-133.370	-93.489	-0.247	0.068
-132.356	426.329	-0.204	-0.440
-131.341	-60.254	0.110	0.047
-130.326	-194.978	0.071	-0.001
-129.312	-160.198	0.087	-0.005
-128.297	-95.284	0.364	0.098
-127.283	88.454	-0.165	-0.184
-126.268	-3.760	-0.054	-0.038
-125.253	39.699	-0.187	-0.168
-124.239	-200.000	0.011	-0.374
-123.224	16.869	-0.179	0.142
-122.210	-99.558	-0.236	-0.059
-121.195	95.728	0.148	0.169
-120.180	29.243	0.247	0.209
-119.166	18.044	0.232	-0.185
-118.151	192.334	0.069	0.104
-117.137	3.739	0.174	0.127
-116.122	-78.305	0.155	0.053
-115.107	-123.040	-0.172	0.028
-114.093	-200.000	0.015	0.097
-113.078	83.196	0.282	0.307
-112.064	269.111	0.077	-0.134
-111.049	-94.458	0.318	-0.087
-110.034	307.161	0.139	0.259
-109.020	800.000	0.052	0.209
-108.005	800.000	-0.068	0.244
-106.991	-200.000	-0.029	0.241
-105.976	-155.618	0.089	-0.006
-104.962	-165.617	-0.538	-0.023
-103.947	13.132	0.195	-0.151
-102.932	800.000	-0.048	0.138
-101.918	50.516	-0.040	-0.038
-100.903	800.000	-0.037	-0.103
-99.889	444.176	0.162	0.355
-98.874	-66.698	-0.119	-0.047
-97.859	-200.000	0.011	0.295
-96.845	170.826	-0.083	0.119
-95.830	137.799	0.202	-0.265
-94.816	-38.284	-0.275	0.146
-93.801	-71.465	0.140	-0.052
-92.786	117.195	-0.213	-0.261
-91.772	-114.361	-0.217	0.042
-90.757	99.983	-0.187	0.216
-89.743	-200.000	0.074	0.390
-88.728	800.000	0.019	0.075
-87.713	127.454	0.275	-0.348
-86.699	789.442	-0.047	-0.129
-85.684	800.000	-0.099	0.420
-84.670	183.579	0.061	0.090
-83.655	800.000	0.062	0.260
-82.640	800.000	0.040	-0.150
-81.626	122.623	0.014	-0.018
-80.611	-42.872	0.315	0.160
-79.597	17.277	-0.369	0.293
-78.582	-11.604	0.160	-0.105
-77.567	-86.053	0.392	0.121
-76.553	97.642	-0.212	0.243
-75.538	378.755	-0.102	0.209
-74.524	102.801	-0.162	-0.189
-73.509	-47.769	-0.161	0.078
-72.494	-42.478	0.362	0.184
-71.480	73.331	-0.179	-0.187
-70.465	203.112	0.109	-0.168
-69.451	800.000	-0.031	-0.087
-68.436	-112.363	-0.268	0.054
-67.422	582.863	-0.163	0.400
-66.407	75.393	0.119	0.126
-65.392	-200.000	-0.001	0.160
-64.378	73.719	0.106	0.111
-63.363	-24.583	-0.272	0.162
-62.349	-83.979	0.144	0.046
-61.334	21.582	-0.630	-0.511
-60.319	-27.467	0.353	0.205
-59.305	800.000	-0.184	-0.715
-58.290	800.000	0.207	0.598
-57.276	401.879	0.722	1.513
-56.261	-200.000	74.997	559.568
-55.246	591.429	1298.105	3197.515
-54.232	145.636	2518.381	3367.226
-53.217	121.847	2237.861	2785.958
-52.203	55.193	1754.811	1692.776
-51.188	47.281	1548.360	1438.856
-50.173	44.364	1518.130	1390.784
-49.159	59.836	1553.558	1530.370
-48.144	67.309	1573.231	1601.221
-47.130	47.654	1536.821	1430.483
-46.115	43.772	1522.686	1390.670
-45.100	43.613	1519.381	1386.507
-44.086	43.584	1516.996	1384.075
-43.071	43.567	1515.108	1382.179
-42.057	43.422	1513.163	1379.360
-41.042	43.560	1511.725	1378.941
-40.027	43.490	1510.349	1377.149
-39.013	43.425	1509.117	1375.528
-37.998	43.560	1507.335	1374.767
-36.984	43.501	1506.859	1373.880
-35.969	43.595	1505.098	1372.856
-34.954	43.630	1503.438	1371.527
-33.940	43.608	1502.195	1370.193
-32.925	43.649	1500.188	1368.580
-31.911	43.664	1498.904	1367.460
-30.896	43.581	1498.043	1366.054
-29.881	43.705	1496.209	1365.166
-28.867	43.623	1495.172	1363.617
-27.852	43.728	1493.705	1362.927
-26.838	43.630	1492.175	1360.817
-25.823	43.624	1490.979	1359.634
-24.809	43.576	1489.140	1357.584
-23.794	43.627	1487.658	1356.518
-22.779	43.531	1486.780	1355.024
-21.765	43.578	1485.276	1353.914
-20.750	43.553	1484.279	1352.783
-19.736	43.585	1482.819	1351.609
-18.721	43.602	1481.757	1350.703
-17.706	43.561	1479.987	1348.761
-16.692	43.548	1479.489	1348.166
-15.677	43.491	1478.688	1347.001
-14.663	43.591	1477.230	1346.291
-13.648	43.484	1476.139	1344.526
-12.633	43.445	1475.498	1343.631
-11.619	43.515	1474.834	1343.442
-10.604	43.464	1474.094	1342.370
-9.590	43.502	1472.757	1341.353
-8.575	43.520	1471.930	1340.667
-7.560	43.547	1471.075	1340.012
-6.546	43.547	1470.303	1339.258
-5.531	43.582	1469.010	1338.257
-4.517	43.474	1468.337	1336.876
-3.502	43.483	1467.379	1336.016
-2.487	43.589	1465.971	1335.381
-1.473	43.536	1465.489	1334.534
-0.458	43.492	1464.459	1333.257
0.556	42.658	1454.107	1321.041
1.571	38.969	1425.224	1270.862
2.586	34.347	1362.089	1185.781
3.600	31.789	1278.888	1098.284
4.615	29.780	1230.790	1045.542
5.629	24.947	1172.957	970.208
6.644	12.610	1081.130	832.169
7.659	2.803	1033.759	748.020
8.673	1.442	1027.328	736.708
9.688	1.214	1024.118	733.236
10.702	1.055	1022.798	731.459
11.717	1.030	1021.179	730.119
12.731	4.851	1026.322	752.213
13.746	15.654	1041.440	815.923
14.761	23.017	1050.291	858.691
15.775	23.734	1050.628	862.373
16.790	23.789	1049.960	862.014
17.804	23.712	1049.002	860.780
18.819	23.449	1048.151	858.728
19.834	23.539	1047.757	858.765
20.848	23.652	1047.293	858.857
21.863	23.722	1046.950	858.836
22.877	23.697	1046.494	858.268
23.892	23.727	1045.380	857.421
24.907	23.494	1045.007	855.916
25.921	23.483	1044.454	855.333
26.936	23.554	1043.453	854.782
27.950	23.529	1042.742	854.005
28.965	23.588	1041.193	852.945
29.980	23.376	1039.944	850.827
30.994	23.456	1038.565	850.004
32.009	23.570	1037.884	849.920
33.023	23.665	1037.261	849.791
34.038	23.425	1036.235	847.724
35.053	23.426	1035.347	846.929
36.067	23.557	1034.631	846.894
37.082	23.570	1033.757	846.166
38.096	23.594	1033.127	845.688
39.111	23.818	1032.465	846.142
40.126	23.960	1031.539	845.979
41.140	23.742	1030.659	844.147
42.155	23.599	1028.844	841.911
43.169	23.275	1027.733	839.389
44.184	23.168	1026.689	837.955
45.199	23.266	1025.905	837.706
46.213	23.258	1024.619	836.545
47.228	23.249	1023.771	835.735
48.242	23.232	1023.830	835.628
49.257	23.514	1022.473	835.777
50.271	23.409	1021.905	834.743
51.286	23.596	1021.254	835.018
52.301	23.601	1020.744	834.552
53.315	23.482	1020.458	833.683
54.330	23.673	1018.894	833.228
55.344	23.520	1017.901	831.628
56.359	23.564	1017.698	831.591
57.374	23.545	1016.931	830.802
58.388	23.414	1015.434	828.895
59.403	23.241	1014.852	827.539
60.417	23.438	1013.886	827.597
61.432	23.126	1013.621	825.849
62.447	23.189	1012.743	825.358
63.461	23.218	1012.187	824.964
64.476	23.355	1011.511	824.980
65.490	23.309	1010.483	823.853
66.505	23.302	1009.453	822.908
67.520	23.344	1008.579	822.316
68.534	23.403	1007.989	822.040
69.549	23.362	1006.768	820.780
70.563	22.882	1006.429	818.206
71.578	22.800	1005.245	816.792
72.593	22.889	1004.377	816.428
73.607	22.850	1003.129	815.163
74.622	22.669	1002.569	813.797
75.636	23.048	1001.998	815.008
76.651	23.169	1001.169	814.822
77.666	22.975	1000.667	813.445
78.680	23.043	999.472	812.714
79.695	23.065	998.773	812.175
80.709	23.079	998.875	812.254
81.724	23.151	997.551	811.433
82.739	23.087	996.781	810.443
83.753	23.107	996.089	809.898
84.768	23.427	995.288	810.641
85.782	23.890	994.587	812.113
86.797	24.073	993.735	812.181
87.812	23.916	993.180	810.940
88.826	23.756	991.998	809.175
89.841	23.743	991.400	808.556
90.855	23.873	990.578	808.402
91.870	23.794	990.105	807.588
92.884	23.835	989.079	806.865
93.899	23.697	988.361	805.584
94.914	23.769	986.741	804.518
95.928	23.815	985.946	804.004
96.943	23.808	985.646	803.658
97.957	23.430	984.617	801.038
98.972	23.204	983.618	799.136
99.987	23.043	982.460	797.400
101.001	23.089	981.835	797.026
102.016	23.343	981.811	798.082
103.030	23.602	980.214	797.880
104.045	23.472	979.081	796.300
105.060	23.419	978.285	795.346
106.074	23.201	977.012	793.265
107.089	23.176	976.434	792.613
108.103	23.458	976.390	793.769
109.118	23.584	975.446	793.493
110.133	23.392	973.786	791.217
111.147	23.250	973.458	790.247
112.162	23.118	972.407	788.737
113.176	22.974	971.249	787.084
114.191	22.973	970.708	786.574
115.206	23.160	969.546	786.393
116.220	22.937	968.141	784.196
117.235	22.805	967.084	782.681
118.249	23.093	966.670	783.555
119.264	22.773	966.376	781.828
120.279	22.836	965.132	781.032
121.293	22.936	964.093	780.567
122.308	23.050	963.353	780.401
123.322	23.015	962.955	779.856
124.337	22.909	961.659	778.270
125.352	22.916	960.564	777.344
126.366	22.554	958.778	774.241
127.381	22.148	957.649	771.477
128.395	22.665	957.685	773.709
129.410	23.337	956.835	775.898
130.424	23.446	956.149	775.748
131.439	23.568	954.899	775.202
132.454	23.533	954.269	774.466
133.468	23.499	954.109	774.121
134.483	23.463	952.973	772.972
135.497	23.500	952.256	772.483
136.512	23.762	951.700	773.106
137.527	23.736	951.190	772.509
138.541	23.699	950.435	771.669
139.556	23.783	949.908	771.535
140.570	23.718	949.024	770.466
141.585	23.778	948.212	770.000
142.600	23.870	947.324	769.607
143.614	23.745	946.638	768.443
144.629	23.884	945.622	768.150
145.643	24.197	944.793	768.762
146.658	24.050	943.717	767.184
147.673	23.848	942.796	765.498
148.687	23.604	941.821	763.587
149.702	23.746	940.566	763.114
150.716	23.577	939.106	761.135
151.731	23.552	938.378	760.371
152.746	23.557	937.947	759.976
153.760	23.713	937.123	759.910
154.775	23.841	936.670	760.023
155.789	23.992	935.787	759.883
156.804	23.868	935.134	758.757
157.819	23.805	934.095	757.577
158.833	23.809	933.467	757.019
159.848	23.921	932.898	756.967
160.862	23.820	932.318	755.997
161.877	23.760	931.074	754.668
162.892	23.839	930.288	754.300
163.906	23.785	929.393	753.280
164.921	23.818	928.490	752.621
165.935	23.762	927.206	751.275
166.950	23.878	926.113	750.815
167.964	23.883	925.254	750.071
168.979	23.907	924.434	749.444
169.994	23.839	923.201	748.091
171.008	23.496	922.368	745.905
172.023	23.587	921.959	745.891
173.037	23.960	920.947	746.573
174.052	23.613	920.040	744.319
175.067	23.570	918.807	743.072
176.081	23.493	918.174	742.173
177.096	23.685	916.896	741.876
178.110	23.668	916.479	741.401
179.125	23.384	915.788	739.595
180.140	23.097	914.506	737.295
181.154	23.192	913.554	736.859
182.169	23.185	913.546	736.756
183.183	23.520	913.154	737.772
184.198	23.776	912.641	738.354
185.213	23.819	911.693	737.703
186.227	23.715	911.246	736.843
187.242	23.643	911.058	736.326
188.256	23.875	909.861	736.257
189.271	23.873	909.091	735.560
190.286	23.869	908.396	734.915
191.300	23.783	907.230	733.553
192.315	23.250	906.580	730.761
193.329	22.483	905.002	726.263
194.344	22.115	903.486	723.469
195.359	22.692	903.976	726.171
196.373	23.551	903.928	729.604
197.388	23.829	903.817	730.595
198.402	23.636	903.602	729.560
199.417	23.625	902.845	728.840
200.432	23.730	902.180	728.670
201.446	23.618	901.767	727.811
202.461	23.346	900.529	725.634
203.475	23.339	900.259	725.325
204.490	23.018	899.075	722.996
205.504	21.843	897.082	716.528
206.519	22.190	896.332	717.282
207.534	23.264	896.939	722.086
208.548	23.185	896.927	721.692
209.563	23.679	896.358	723.183
210.577	23.735	895.748	722.855
211.592	23.438	894.811	720.826
212.607	23.748	895.101	722.256
213.621	23.831	894.583	722.114
214.636	23.783	893.581	721.047
215.650	23.776	893.269	720.703
216.665	23.799	892.582	720.176
217.680	23.805	892.295	719.906
218.694	24.000	891.569	720.046
219.709	23.672	890.792	718.028
220.723	23.237	889.757	715.374
221.738	23.538	889.127	716.016
222.753	23.825	888.409	716.535
223.767	23.698	887.697	715.385
224.782	23.702	887.371	715.074
225.796	23.917	887.092	715.653
226.811	24.024	886.476	715.521
227.826	23.651	884.982	712.757
228.840	22.792	883.449	708.014
229.855	22.704	882.998	707.235
230.869	22.991	882.898	708.243
231.884	22.798	881.823	706.547
232.899	22.724	881.355	705.812
233.913	23.411	881.645	708.729
234.928	23.685	881.139	709.357
235.942	23.637	880.236	708.375
236.957	23.724	879.689	708.218
237.972	23.374	878.751	706.006
238.986	23.125	878.137	704.460
240.001	23.402	877.424	704.928
241.015	23.313	877.141	704.286
242.030	23.531	876.223	704.350
243.045	23.580	875.700	704.062
244.059	23.649	875.307	703.958
245.074	24.022	874.651	704.843
246.088	23.669	874.193	703.018
247.103	23.386	873.086	700.945
248.117	23.472	872.447	700.711
249.132	23.905	872.712	702.573
250.147	24.182	872.724	703.612
251.161	24.452	871.826	703.892
252.176	24.487	871.666	703.839
253.190	24.581	870.767	703.419
254.205	24.616	870.405	703.202
255.220	24.800	870.072	703.597
256.234	24.682	869.617	702.700
257.249	24.739	868.435	701.907
258.263	24.553	868.072	700.823
259.278	24.564	867.277	700.162
260.293	24.525	867.253	699.927
261.307	24.636	866.748	699.893
262.322	24.527	866.040	698.833
263.336	24.586	865.151	698.285
264.351	24.012	863.730	694.836
265.366	22.867	861.755	688.721
266.380	22.408	860.729	686.051
267.395	23.341	861.107	689.929
268.409	24.113	861.146	692.905
269.424	24.018	861.070	692.411
270.439	24.219	860.832	692.940
271.453	24.390	859.742	692.666
272.468	24.371	859.099	692.016
273.482	24.404	859.224	692.180
274.497	24.597	858.652	692.408
275.512	24.590	857.459	691.356
276.526	23.981	856.164	687.899
277.541	24.118	855.720	688.009
278.555	24.399	855.966	689.229
279.570	24.194	855.069	687.659
280.585	24.047	854.059	686.218
281.599	24.154	853.705	686.285
282.614	24.302	853.023	686.244
283.628	23.958	852.248	684.237
284.643	23.560	851.190	681.800
285.657	23.911	851.435	683.284
286.672	23.896	850.360	682.302
287.687	23.296	849.896	679.570
288.701	23.703	849.890	681.067
289.716	24.010	849.590	681.942
290.730	23.784	848.347	680.019
291.745	23.580	847.541	678.533
292.760	23.481	846.609	677.350
293.774	23.354	846.080	676.378
294.789	24.287	846.718	680.392
295.803	24.894	846.815	682.726
296.818	24.902	846.594	682.520
297.833	24.950	846.241	682.357
298.847	24.681	844.744	680.064
299.862	24.441	843.661	678.220
300.876	24.600	843.310	678.484
301.891	24.873	842.936	679.159
302.906	25.051	842.511	679.431
303.920	24.535	841.592	676.676
304.935	24.488	840.955	675.924
305.949	24.766	840.771	676.768
306.964	24.809	840.357	676.537
307.979	24.680	839.536	675.331
308.993	24.544	838.963	674.295
310.008	24.902	838.674	675.353
311.022	25.096	838.362	675.776
312.037	25.026	838.022	675.176
313.052	24.765	836.927	673.253
314.066	24.614	836.392	672.195
315.081	23.955	834.902	668.465
316.095	23.193	833.790	664.653
317.110	23.726	833.912	666.692
318.125	24.725	834.061	670.499
319.139	24.136	833.353	667.666
320.154	23.098	831.524	662.258
321.168	22.551	830.682	659.480
322.183	23.241	830.656	661.983
323.197	24.010	831.113	665.163
324.212	24.341	831.068	666.306
325.227	24.488	830.630	666.446
326.241	24.606	830.295	666.558
327.256	24.672	829.152	665.826
328.270	24.615	828.671	665.169
329.285	24.608	827.812	664.396
330.300	24.287	827.661	663.023
331.314	24.055	826.541	661.206
332.329	24.179	825.759	660.981
333.343	24.513	825.713	662.125
334.358	24.902	825.469	663.310
335.373	24.883	824.667	662.537
336.387	24.842	824.577	662.254
337.402	24.925	824.352	662.321
338.416	25.025	823.811	662.199
339.431	25.282	823.327	662.702
340.446	25.215	822.667	661.862
341.460	25.259	822.503	661.836
342.475	25.363	821.692	661.506
343.489	25.183	820.772	660.046
344.504	25.195	820.044	659.445
345.519	25.503	819.861	660.371
346.533	25.502	819.808	660.265
347.548	25.670	819.155	660.298
348.562	25.669	818.746	659.908
349.577	25.544	818.312	659.039
350.592	25.580	817.780	658.685
351.606	25.427	817.321	657.696
352.621	25.459	816.376	656.996
353.635	25.476	816.073	656.755
354.650	25.408	815.517	656.003
355.665	25.125	814.747	654.294
356.679	23.920	813.179	648.585
357.694	23.917	812.525	647.993
358.708	24.502	812.346	649.924
359.723	24.487	812.000	649.535
360.738	24.741	811.402	649.924
361.752	25.277	811.613	651.981
362.767	25.389	811.237	652.028
363.781	25.447	811.146	652.107
364.796	25.707	811.230	653.063
365.810	25.907	810.486	653.131
366.825	26.127	809.976	653.456
367.840	26.039	809.835	652.967
368.854	25.781	809.016	651.318
369.869	25.539	807.990	649.559
370.883	25.240	807.643	648.140
371.898	25.267	807.161	647.795
372.913	25.192	806.514	646.947
373.927	25.242	806.044	646.693
374.942	25.477	805.330	646.909
375.956	25.466	804.931	646.492
376.971	25.402	804.757	646.064
377.986	25.705	804.101	646.571
379.000	25.962	803.472	646.931
380.015	25.805	802.910	645.856
381.029	25.638	802.672	645.011
382.044	25.642	801.953	644.388
383.059	25.878	800.933	644.355
384.073	26.042	800.418	644.473
385.088	25.942	800.082	643.788
386.102	26.036	799.603	643.681
387.117	25.794	799.047	642.311
388.132	25.559	798.460	640.945
389.146	25.462	797.956	640.140
390.161	24.838	797.110	637.182
391.175	24.929	796.551	637.004
392.190	25.409	796.721	638.792
393.205	25.535	796.330	638.869
394.219	24.731	794.500	634.492
395.234	23.081	792.309	626.842
396.248	22.141	790.969	622.399
397.263	23.157	792.248	626.954
398.278	24.952	793.253	634.056
399.292	25.613	793.087	636.205
400.307	25.253	792.550	634.444
401.321	25.153	792.061	633.643
402.336	25.337	791.768	634.004
403.350	25.527	791.936	634.751
404.365	25.951	791.528	635.866
405.380	26.240	791.295	636.640
406.394	26.480	791.325	637.454
407.409	26.654	791.076	637.811
408.423	26.769	790.197	637.447
409.438	26.479	789.589	635.882
410.453	26.570	789.308	635.921
411.467	26.688	789.142	636.143
412.482	26.393	788.376	634.436
413.496	26.511	787.706	634.254
414.511	26.554	787.728	634.367
415.526	26.580	787.312	634.065
416.540	26.740	786.678	634.060
417.555	26.563	786.347	633.118
418.569	26.329	785.463	631.532
419.584	26.378	784.846	631.151
420.599	26.365	784.563	630.824
421.613	86.535	1243.637	1319.165
422.628	73.416	1310.543	1319.281
