DTS Sentinel unit serial number:	SN413079Multiplexer serial number:	ORYXHardware model number:	OX4-SRSoftware version number:	ORYX F/W v4.00 Oryx Data Collector v3.7.2.0data status	okinstallation	princeton_trtdifferential loss correction	single-endedforward channel	channel 3reverse channel	N/Adate	2019/09/11time	01:58:11forward acquisition time	60.00reverse acquisition time	0.00gamma	496.2192k internal	0.2332k external	0.2332temperature offset calibration	0.9910default loss term (dB/km)	0.3790temperature slope calibration	1.0000multiplexer offset coefficient	1.0000multiplexer slope coefficient	1.0000fibre end	0.00T internal ref (°C)	29.19T ext. ref 1 (°C)	-0.31T ext. ref 2 (°C)	23.28length (m)	temperature (°C)	Stokes	anti-Stokes-747.200	-16.030	0.205	0.132
-746.185	-171.254	-0.652	-0.022
-745.171	240.477	-0.043	0.072
-744.156	483.562	-0.057	0.130
-743.142	-200.000	0.003	-0.111
-742.127	493.127	-0.171	0.395
-741.112	-44.703	-0.155	0.078
-740.098	-200.000	-0.019	-0.310
-739.083	-87.058	0.187	0.057
-738.069	120.083	-0.152	0.190
-737.054	71.545	-0.281	-0.293
-736.039	-105.281	0.068	-0.016
-735.025	-169.803	0.095	0.003
-734.010	237.242	-0.179	-0.298
-732.996	-200.000	-0.020	-0.197
-731.981	73.351	0.219	-0.231
-730.966	-162.922	-0.416	0.020
-729.952	-9.778	-0.115	0.077
-728.937	160.203	-0.193	0.270
-727.923	20.018	-0.138	0.112
-726.908	631.402	-0.138	-0.350
-725.894	137.407	-0.381	-0.501
-724.879	320.540	-0.105	-0.201
-723.864	800.000	0.025	-0.081
-722.850	405.190	0.082	0.174
-721.835	27.613	-0.331	0.280
-720.821	716.165	-0.002	0.007
-719.806	800.000	-0.054	-0.237
-718.791	-200.000	-0.007	0.136
-717.777	-88.869	-0.545	-0.162
-716.762	49.121	0.167	-0.157
-715.748	800.000	0.068	-0.273
-714.733	257.237	0.063	-0.108
-713.718	-50.691	0.392	0.185
-712.704	800.000	-0.052	-0.193
-711.689	-93.576	-0.186	0.052
-710.675	-39.521	-0.173	0.091
-709.660	-35.802	-0.075	-0.041
-708.645	-48.921	-0.162	0.078
-707.631	-200.000	-0.050	-0.244
-706.616	31.037	-0.247	-0.213
-705.602	233.029	0.168	0.278
-704.587	-30.267	0.111	0.063
-703.572	-92.030	0.267	0.076
-702.558	741.200	0.120	0.325
-701.543	41.425	-0.398	0.362
-700.529	-91.961	0.261	0.074
-699.514	134.848	-0.169	-0.221
-698.499	-115.360	-0.103	0.019
-697.485	75.699	0.086	-0.091
-696.470	86.219	-0.141	0.156
-695.456	63.419	-0.161	-0.163
-694.441	102.692	-0.141	0.166
-693.426	-17.844	0.311	0.196
-692.412	407.858	-0.041	0.087
-691.397	-7.240	0.294	-0.200
-690.383	197.574	0.115	-0.177
-689.368	-2.377	0.037	0.026
-688.354	15.518	0.282	-0.222
-687.339	97.729	0.244	-0.281
-686.324	-68.119	0.177	0.069
-685.310	-29.964	0.118	-0.067
-684.295	-32.340	-0.285	-0.160
-683.281	-162.329	0.329	-0.016
-682.266	-22.246	-0.083	-0.050
-681.251	-154.027	-0.155	0.011
-680.237	-22.606	0.136	-0.082
-679.222	83.423	0.175	0.191
-678.208	111.172	-0.291	0.352
-677.193	-98.934	-0.271	0.069
-676.178	94.749	0.069	-0.079
-675.164	-102.969	0.209	-0.050
-674.149	800.000	-0.035	0.098
-673.135	800.000	0.044	-0.162
-672.120	-52.654	-0.020	-0.009
-671.105	-162.676	0.183	-0.009
-670.091	-200.000	-0.009	0.159
-669.076	0.185	0.108	0.077
-668.062	-0.408	0.215	-0.153
-667.047	-23.876	0.209	0.125
-666.032	800.000	0.040	-0.141
-665.018	-83.728	-0.069	0.022
-664.003	-44.996	-0.289	-0.144
-662.989	42.569	0.358	-0.327
-661.974	-3.445	-0.243	0.170
-660.959	259.519	0.068	-0.117
-659.945	308.211	-0.032	0.060
-658.930	402.814	0.034	0.071
-657.916	31.859	0.062	0.054
-656.901	-124.406	0.103	0.016
-655.886	-106.793	-0.181	-0.040
-654.872	547.427	-0.193	0.463
-653.857	-62.174	0.383	-0.160
-652.843	107.840	0.135	0.161
-651.828	-161.430	-0.172	0.009
-650.814	-112.984	-0.166	0.033
-649.799	-112.722	-0.082	0.016
-648.784	-50.404	-0.370	0.175
-647.770	-51.766	-0.232	-0.108
-646.755	-45.209	0.184	-0.092
-645.741	800.000	-0.030	-0.097
-644.726	-143.264	0.464	-0.045
-643.711	-200.000	-0.002	0.081
-642.697	-1.990	-0.280	0.197
-641.682	49.774	-0.101	-0.095
-640.668	53.355	0.097	-0.093
-639.653	-40.610	0.085	0.044
-638.638	49.413	-0.205	-0.193
-637.624	-200.000	-0.024	-0.128
-636.609	275.283	-0.062	0.110
-635.595	83.999	0.078	0.086
-634.580	681.097	-0.120	-0.314
-633.565	289.894	0.085	-0.154
-632.551	-46.088	-0.188	-0.093
-631.536	800.000	0.017	-0.067
-630.522	800.000	0.066	-0.191
-629.507	-45.225	-0.101	0.050
-628.492	-22.525	0.185	-0.112
-627.478	-31.411	0.237	-0.133
-626.463	-200.000	-0.001	0.051
-625.449	-200.000	-0.009	-0.199
-624.434	-77.844	-0.144	-0.050
-623.419	114.049	-0.198	0.241
-622.405	-200.000	0.007	-0.103
-621.390	136.328	0.103	-0.135
-620.376	-200.000	0.000	0.202
-619.361	-117.510	0.182	-0.033
-618.346	-60.965	-0.292	0.123
-617.332	-56.066	-0.289	0.129
-616.317	-105.338	0.317	0.072
-615.303	-64.265	0.224	-0.091
-614.288	-158.293	-0.223	-0.013
-613.273	-35.862	-0.265	-0.144
-612.259	-200.000	-0.006	-0.083
-611.244	-200.000	-0.002	-0.131
-610.230	131.720	-0.150	-0.193
-609.215	-16.380	0.049	0.031
-608.201	-67.432	0.233	0.091
-607.186	430.755	-0.224	0.486
-606.171	96.510	0.115	-0.131
-605.157	-200.000	-0.001	-0.049
-604.142	-200.000	0.004	-0.235
-603.128	252.417	0.138	-0.236
-602.113	-200.000	-0.040	-0.181
-601.098	-25.453	-0.250	-0.148
-600.084	-115.453	-0.076	-0.014
-599.069	485.718	0.120	0.273
-598.055	-193.741	-0.134	-0.001
-597.040	-189.679	-0.273	0.003
-596.025	6.230	-0.142	0.105
-595.011	369.831	-0.046	0.094
-593.996	-200.000	0.021	-0.120
-592.982	-49.077	-0.261	0.125
-591.967	203.355	-0.043	-0.067
-590.952	684.203	0.032	-0.084
-589.938	-63.497	0.226	0.093
-588.923	-200.000	0.002	-0.160
-587.909	124.671	-0.167	-0.210
-586.894	-200.000	0.064	0.315
-585.879	307.274	0.160	0.298
-584.865	434.354	-0.102	0.222
-583.850	-122.977	-0.188	-0.030
-582.836	637.507	-0.152	0.385
-581.821	46.786	0.179	-0.166
-580.806	-12.506	-0.079	-0.051
-579.792	322.760	0.139	-0.264
-578.777	104.655	0.087	-0.103
-577.763	11.792	-0.028	0.022
-576.748	13.563	-0.227	0.176
-575.733	-200.000	-0.000	-0.080
-574.719	482.180	0.057	0.129
-573.704	-78.111	-0.170	0.059
-572.690	58.808	0.120	0.118
-571.675	105.790	0.139	0.165
-570.661	81.348	0.131	-0.141
-569.646	312.497	0.101	0.190
-568.631	340.927	-0.070	0.137
-567.617	266.722	0.167	0.291
-566.602	-200.000	0.014	0.084
-565.588	716.484	-0.106	-0.282
-564.573	-200.000	0.047	-0.239
-563.558	-74.262	-0.145	-0.052
-562.544	800.000	0.042	-0.150
-561.529	-39.997	0.292	-0.152
-560.515	-68.211	0.166	-0.065
-559.500	-87.391	-0.091	0.028
-558.485	-200.000	0.016	0.070
-557.471	130.892	-0.028	0.036
-556.456	-110.517	0.072	0.015
-555.442	459.554	0.166	0.369
-554.427	-59.998	-0.175	-0.074
-553.412	-60.073	-0.240	0.102
-552.398	800.000	0.047	-0.133
-551.383	131.469	-0.074	-0.095
-550.369	72.005	-0.204	0.212
-549.354	-143.083	-0.111	0.011
-548.339	-24.734	0.165	-0.098
-547.325	-77.890	0.105	0.036
-546.310	-101.166	0.174	-0.042
-545.296	622.186	0.012	0.030
-544.281	95.825	0.197	-0.224
-543.266	245.031	-0.097	0.163
-542.252	19.395	0.239	0.192
-541.237	7.649	0.273	0.204
-540.223	270.784	0.018	0.031
-539.208	-48.694	0.189	0.091
-538.193	-200.000	-0.044	0.324
-537.179	-200.000	-0.004	-0.175
-536.164	-200.000	-0.024	0.245
-535.150	362.615	-0.175	0.350
-534.135	-88.706	0.281	0.083
-533.121	-1.607	0.193	0.136
-532.106	-74.288	-0.159	0.057
-531.091	84.007	0.168	-0.183
-530.077	573.146	0.141	-0.342
-529.062	800.000	0.117	-0.357
-528.048	51.066	-0.216	-0.205
-527.033	21.509	-0.173	-0.140
-526.018	800.000	-0.100	0.355
-525.004	321.614	-0.146	-0.277
-523.989	509.329	0.124	0.287
-522.975	800.000	-0.031	-0.107
-521.960	280.311	0.092	-0.163
-520.945	800.000	-0.072	-0.221
-519.931	-176.676	-0.291	0.007
-518.916	483.079	-0.046	0.105
-517.902	354.897	-0.087	0.172
-516.887	-200.000	-0.040	-0.268
-515.872	800.000	-0.049	0.160
-514.858	-200.000	-0.005	-0.204
-513.843	-200.000	-0.470	0.001
-512.829	800.000	-0.027	-0.078
-511.814	-87.170	-0.433	-0.131
-510.799	401.332	0.209	-0.437
-509.785	58.610	-0.187	-0.183
-508.770	16.080	0.210	-0.165
-507.756	689.501	-0.047	0.122
-506.741	800.000	0.038	0.125
-505.726	-200.000	-0.010	-0.220
-504.712	76.056	0.074	0.078
-503.697	37.874	0.132	0.117
-502.683	7.721	-0.146	0.109
-501.668	379.941	-0.261	-0.532
-500.653	800.000	-0.094	-0.279
-499.639	3.669	0.084	-0.061
-498.624	170.182	-0.074	0.106
-497.610	16.801	-0.262	-0.206
-496.595	307.217	-0.069	0.129
-495.581	242.552	-0.063	0.105
-494.566	152.006	-0.138	-0.188
-493.551	314.269	-0.063	-0.119
-492.537	-132.787	0.137	0.017
-491.522	-200.000	0.042	-0.248
-490.508	-36.962	0.159	-0.085
-489.493	31.172	0.143	-0.122
-488.478	-200.000	0.019	-0.259
-487.464	14.753	0.153	-0.119
-486.449	415.303	-0.076	0.162
-485.435	111.616	-0.352	0.423
-484.420	-200.000	-0.012	0.219
-483.405	277.161	0.222	-0.393
-482.391	135.416	-0.010	0.013
-481.376	8.867	0.068	0.051
-480.362	-75.892	-0.144	-0.051
-479.347	-200.000	-0.026	-0.187
-478.332	-170.089	0.094	0.003
-477.318	-200.000	0.011	0.277
-476.303	120.960	0.182	0.226
-475.289	-7.457	-0.117	0.079
-474.274	613.428	-0.119	-0.298
-473.259	136.305	-0.126	-0.164
-472.245	-39.534	-0.345	-0.180
-471.230	-200.000	0.004	0.112
-470.216	-61.793	0.291	-0.121
-469.201	368.225	0.087	-0.175
-468.186	-86.577	0.082	-0.025
-467.172	-95.961	0.148	-0.039
-466.157	-126.112	0.183	-0.027
-465.143	134.560	0.173	-0.223
-464.128	-17.269	0.182	-0.114
-463.113	-49.652	0.258	0.122
-462.099	-49.922	-0.268	-0.126
-461.084	-187.934	0.151	0.002
-460.070	212.512	0.082	0.129
-459.055	800.000	0.072	0.250
-458.040	-1.815	-0.259	-0.182
-457.026	526.859	-0.186	0.435
-456.011	-92.396	-0.229	0.064
-454.997	125.289	0.186	0.233
-453.982	24.646	0.294	0.242
-452.968	60.869	0.273	-0.269
-451.953	67.785	-0.298	0.303
-450.938	705.218	0.040	0.106
-449.924	-135.606	-0.175	-0.021
-448.909	-86.224	0.249	0.076
-447.895	-31.444	-0.193	0.108
-446.880	0.069	0.095	-0.067
-445.865	152.220	0.089	0.121
-444.851	517.989	0.150	0.349
-443.836	-119.913	-0.345	0.059
-442.822	230.191	0.136	0.222
-441.807	-164.257	0.225	0.010
-440.792	274.827	0.124	0.218
-439.778	351.425	0.009	-0.018
-438.763	-200.000	0.020	-0.124
-437.749	72.257	0.088	0.091
-436.734	29.725	-0.076	-0.064
-435.719	764.554	-0.094	0.255
-434.705	178.392	-0.153	0.222
-433.690	-115.542	-0.274	-0.051
-432.676	-200.000	0.022	-0.195
-431.661	-200.000	0.061	-0.327
-430.646	153.553	0.061	0.083
-429.632	-200.000	-0.020	0.229
-428.617	-83.320	-0.161	-0.051
-427.603	-89.015	-0.161	-0.047
-426.588	210.621	-0.062	-0.097
-425.573	-56.001	0.278	-0.123
-424.559	-186.998	-0.291	-0.004
-423.544	-44.443	-0.307	-0.153
-422.530	8.516	0.241	0.180
-421.515	-102.364	-0.208	0.050
-420.500	-153.296	0.163	-0.011
-419.486	74.153	0.294	0.307
-418.471	577.776	0.115	-0.280
-417.457	-29.649	-0.155	0.088
-416.442	317.475	0.044	0.082
-415.428	-200.000	0.185	0.001
-414.413	-184.374	-0.310	-0.005
-413.398	286.684	-0.140	0.251
-412.384	-110.929	0.076	0.016
-411.369	-200.000	0.020	-0.127
-410.355	800.000	0.093	-0.335
-409.340	-143.338	-0.147	0.014
-408.325	800.000	-0.086	-0.341
-407.311	-200.000	0.010	0.156
-406.296	-41.671	-0.047	-0.024
-405.282	19.122	0.044	-0.035
-404.267	-200.000	0.039	-0.235
-403.252	-200.000	0.029	0.187
-402.238	157.521	-0.067	-0.092
-401.223	-79.312	0.030	0.010
-400.209	800.000	0.027	-0.091
-399.194	-200.000	-0.019	0.226
-398.179	-200.000	-0.028	0.326
-397.165	-8.779	-0.202	0.134
-396.150	-200.000	0.041	0.190
-395.136	-200.000	0.021	-0.122
-394.121	541.704	0.091	0.216
-393.106	341.947	0.083	0.162
-392.092	11.595	-0.212	0.161
-391.077	480.842	0.189	0.425
-390.063	-200.000	-0.011	0.049
-389.048	49.977	0.355	0.333
-388.033	448.585	0.090	-0.197
-387.019	-120.180	-0.254	-0.043
-386.004	-200.000	-0.017	0.220
-384.990	340.190	0.074	-0.143
-383.975	7.719	-0.408	-0.303
-382.960	800.000	-0.039	-0.133
-381.946	-125.312	0.073	-0.011
-380.931	-5.795	-0.219	0.148
-379.917	110.291	-0.197	0.234
-378.902	392.821	0.049	0.101
-377.888	-3.149	-0.160	-0.110
-376.873	-171.373	-0.216	0.007
-375.858	-117.713	0.444	-0.079
-374.844	43.366	0.112	-0.101
-373.829	-84.030	-0.041	0.013
-372.815	74.624	-0.182	0.189
-371.800	718.698	0.074	-0.194
-370.785	20.406	0.034	0.028
-369.771	-200.000	-0.024	0.187
-368.756	313.042	0.167	-0.311
-367.742	-200.000	-0.039	-0.287
-366.727	35.170	-0.181	-0.157
-365.712	-17.777	-0.273	-0.170
-364.698	-43.504	-0.227	-0.114
-363.683	-107.994	0.334	0.072
-362.669	-42.097	-0.126	0.064
-361.654	301.986	0.139	-0.255
-360.639	5.285	0.337	-0.246
-359.625	14.873	-0.129	-0.100
-358.610	-59.994	-0.279	0.118
-357.596	800.000	-0.054	0.163
-356.581	107.434	-0.239	0.281
-355.566	29.074	0.152	-0.128
-354.552	108.410	-0.142	-0.168
-353.537	-0.009	0.169	0.119
-352.523	800.000	0.046	0.156
-351.508	-107.897	-0.344	0.074
-350.493	219.677	0.129	0.205
-349.479	-200.000	-0.045	0.224
-348.464	289.507	0.057	-0.103
-347.450	-13.937	-0.147	-0.094
-346.435	19.190	-0.086	-0.069
-345.420	-32.382	0.229	0.127
-344.406	-200.000	0.004	0.134
-343.391	32.033	0.165	-0.141
-342.377	-150.921	-0.183	0.014
-341.362	491.460	-0.117	-0.265
-340.348	9.612	0.247	-0.185
-339.333	-115.784	0.123	-0.023
-338.318	149.601	0.057	-0.077
-337.304	7.901	0.192	-0.143
-336.289	178.004	0.134	-0.194
-335.275	-200.000	-0.034	0.279
-334.260	30.541	0.144	0.122
-333.245	-96.494	0.278	0.073
-332.231	761.668	-0.130	-0.348
-331.216	-97.919	-0.207	0.053
-330.202	-200.000	0.018	0.122
-329.187	86.097	0.144	-0.157
-328.172	-25.736	-0.159	0.093
-327.158	226.257	-0.212	0.341
-326.143	-40.939	-0.170	0.087
-325.129	-200.000	-0.028	-0.230
-324.114	-105.127	0.206	-0.047
-323.099	-161.875	-0.121	-0.006
-322.085	-141.230	-0.257	0.026
-321.070	162.195	0.084	0.117
-320.056	22.935	0.212	0.172
-319.041	800.000	-0.024	-0.092
-318.026	-200.000	0.020	-0.234
-317.012	-143.348	-0.273	0.026
-315.997	61.362	-0.264	0.259
-314.983	-7.220	0.128	-0.086
-313.968	800.000	0.008	-0.030
-312.953	150.819	0.142	-0.191
-311.939	-200.000	-0.002	0.028
-310.924	219.178	-0.110	-0.174
-309.910	-78.494	0.201	0.068
-308.895	24.516	-0.036	-0.030
-307.880	-42.919	0.083	0.042
-306.866	-142.574	-0.225	0.022
-305.851	800.000	0.141	0.400
-304.837	800.000	-0.115	0.376
-303.822	-4.838	0.057	0.039
-302.807	31.758	0.217	-0.185
-301.793	-93.018	0.174	-0.048
-300.778	-200.000	0.008	0.267
-299.764	-53.308	0.157	0.071
-298.749	249.265	0.076	0.127
-297.735	-147.796	0.349	-0.029
-296.720	105.804	0.133	0.155
-295.705	187.903	-0.093	0.137
-294.691	25.357	0.072	0.059
-293.676	-113.563	-0.070	0.014
-292.662	-110.624	0.073	0.015
-291.647	-138.389	0.247	-0.027
-290.632	-200.000	0.024	0.134
-289.618	-25.178	0.059	0.035
-288.603	-20.494	0.264	-0.160
-287.589	-120.676	-0.126	0.021
-286.574	96.951	0.179	-0.203
-285.559	147.834	-0.074	0.098
-284.545	800.000	0.039	-0.121
-283.530	229.147	-0.155	-0.250
-282.516	-111.655	-0.257	0.052
-281.501	-91.246	0.055	-0.016
-280.486	-200.000	-0.034	0.203
-279.472	-200.000	0.053	-0.325
-278.457	-43.826	0.073	-0.036
-277.443	-200.000	0.019	0.239
-276.428	300.198	0.052	0.095
-275.413	34.705	0.226	0.195
-274.399	800.000	-0.058	-0.165
-273.384	-200.000	-0.040	-0.368
-272.370	-77.604	-0.215	-0.073
-271.355	-77.701	0.287	-0.098
-270.340	98.062	-0.262	0.298
-269.326	-177.310	0.130	0.003
-268.311	140.496	0.156	-0.203
-267.297	719.844	0.022	0.058
-266.282	-12.812	0.217	0.140
-265.267	220.445	0.208	-0.329
-264.253	119.067	-0.045	-0.054
-263.238	34.053	-0.031	0.027
-262.224	800.000	-0.029	-0.125
-261.209	-200.000	0.004	0.023
-260.195	455.290	-0.062	-0.136
-259.180	800.000	0.071	-0.202
-258.165	-88.526	-0.258	-0.076
-257.151	-7.508	0.048	-0.032
-256.136	123.188	-0.104	0.128
-255.122	45.067	0.310	0.281
-254.107	800.000	0.178	-0.525
-253.092	26.155	-0.295	0.243
-252.078	211.332	-0.144	-0.223
-251.063	-121.165	0.143	-0.024
-250.049	-123.200	-0.378	0.060
-249.034	-1.639	0.094	-0.065
-248.019	85.606	0.124	-0.134
-247.005	-83.633	0.124	0.039
-245.990	79.117	0.257	0.272
-244.976	-98.558	0.113	-0.028
-243.961	-200.000	-0.006	-0.047
-242.946	-200.000	0.014	-0.212
-241.932	-200.000	-0.008	-0.051
-240.917	-200.000	0.080	0.388
-239.903	-200.000	-0.021	0.160
-238.888	151.916	-0.299	-0.402
-237.873	-153.658	0.118	-0.008
-236.859	27.421	0.162	-0.135
-235.844	508.427	0.076	-0.173
-234.830	164.015	0.163	-0.227
-233.815	-200.000	-0.237	-0.001
-232.800	24.502	0.112	0.091
-231.786	-103.685	0.222	-0.051
-230.771	63.426	0.178	0.176
-229.757	-51.081	0.084	-0.039
-228.742	-200.000	-0.004	-0.120
-227.727	-200.000	0.001	0.025
-226.713	-151.827	-0.319	0.023
-225.698	502.575	0.083	0.190
-224.684	6.668	0.114	-0.084
-223.669	-200.000	-0.002	0.044
-222.655	345.779	-0.043	0.083
-221.640	-145.948	0.221	-0.019
-220.625	-117.740	-0.165	-0.029
-219.611	-200.000	0.035	-0.239
-218.596	-105.724	0.207	-0.046
-217.582	155.447	-0.264	0.358
-216.567	-195.419	0.252	0.002
-215.552	141.696	-0.161	0.210
-214.538	117.195	0.070	-0.085
-213.523	-86.146	0.278	-0.084
-212.509	123.600	-0.080	0.099
-211.494	77.406	0.140	0.147
-210.479	-109.032	0.340	-0.071
-209.465	-51.837	-0.160	0.073
-208.450	3.948	-0.207	-0.149
-207.436	-18.511	-0.524	-0.322
-206.421	-200.000	0.015	-0.294
-205.406	-200.000	-0.004	0.041
-204.392	800.000	0.014	-0.039
-203.377	-69.672	0.287	0.108
-202.363	-200.000	-0.006	0.058
-201.348	-45.264	0.331	-0.162
-200.333	-148.670	-0.155	-0.012
-199.319	561.623	0.100	0.239
-198.304	49.897	0.087	-0.081
-197.290	16.800	0.067	0.052
-196.275	3.593	0.177	-0.127
-195.260	-60.886	0.300	0.125
-194.246	-200.000	-0.013	0.267
-193.231	377.194	0.142	0.285
-192.217	-200.000	-0.007	0.118
-191.202	800.000	0.034	0.127
-190.187	419.955	-0.128	-0.269
-189.173	219.053	-0.039	0.061
-188.158	800.000	0.045	0.190
-187.144	32.239	0.158	0.134
-186.129	-112.956	0.132	-0.026
-185.114	-200.000	0.001	-0.211
-184.100	-137.791	0.265	-0.029
-183.085	-55.550	-0.204	0.090
-182.071	595.750	0.025	-0.060
-181.056	354.691	0.027	0.052
-180.042	421.649	-0.226	0.476
-179.027	353.028	-0.074	0.145
-178.012	56.663	-0.198	0.189
-176.998	127.451	-0.179	-0.224
-175.983	504.959	0.119	-0.271
-174.969	527.412	-0.009	0.020
-173.954	-15.048	0.148	-0.094
-172.939	226.643	-0.107	-0.171
-171.925	201.094	-0.194	0.293
-170.910	-11.509	0.058	-0.038
-169.896	-120.447	-0.278	-0.047
-168.881	299.305	0.139	-0.253
-167.866	406.195	-0.103	0.214
-166.852	15.500	-0.158	0.122
-165.837	-51.300	0.169	0.078
-164.823	12.836	-0.213	-0.162
-163.808	-200.000	0.019	0.138
-162.793	328.533	-0.150	-0.283
-161.779	433.583	0.032	0.067
-160.764	92.565	0.152	-0.169
-159.750	68.832	-0.076	-0.077
-158.735	43.149	0.157	-0.141
-157.720	-107.740	-0.036	-0.008
-156.706	-200.000	0.003	0.216
-155.691	-104.453	-0.214	-0.049
-154.677	-200.000	-0.043	0.190
-153.662	37.787	-0.174	0.152
-152.647	-16.162	0.267	0.167
-151.633	-8.930	-0.410	0.270
-150.618	-123.088	0.234	-0.037
-149.604	176.480	-0.205	-0.293
-148.589	59.003	0.137	-0.132
-147.574	-104.408	0.196	-0.045
-146.560	-83.733	0.160	-0.050
-145.545	168.923	0.159	0.222
-144.531	-200.000	0.000	0.208
-143.516	-89.448	0.247	-0.071
-142.502	29.233	0.328	-0.273
-141.487	800.000	0.053	0.213
-140.472	-114.265	0.142	0.027
-139.458	200.114	-0.098	0.148
-138.443	-62.019	0.475	0.195
-137.429	-102.070	-0.054	-0.013
-136.414	-33.323	0.380	0.206
-135.399	-116.727	-0.137	-0.025
-134.385	-189.693	0.304	0.003
-133.370	-103.567	0.265	-0.061
-132.356	280.210	0.164	0.288
-131.341	617.846	0.087	0.215
-130.326	119.090	0.292	-0.355
-129.312	-49.052	0.093	0.044
-128.297	-200.000	0.015	-0.213
-127.283	-200.000	0.072	-0.499
-126.268	556.834	-0.081	0.192
-125.253	-200.000	-0.041	-0.257
-124.239	800.000	0.030	0.090
-123.224	-59.912	-0.357	-0.150
-122.210	17.908	0.109	-0.085
-121.195	800.000	-0.059	-0.229
-120.180	-96.400	0.241	0.063
-119.166	2.923	0.067	-0.047
-118.151	-200.000	-0.008	-0.294
-117.137	-200.000	0.187	0.000
-116.122	-25.712	-0.113	-0.065
-115.107	-1.968	0.091	-0.063
-114.093	-121.449	-0.162	0.026
-113.078	-112.322	0.275	0.054
-112.064	-24.007	-0.116	-0.068
-111.049	-53.742	-0.271	-0.121
-110.034	800.000	0.094	0.344
-109.020	380.902	0.227	-0.457
-108.005	-134.282	0.183	0.022
-106.991	-200.000	-0.002	0.069
-105.976	-200.000	-0.029	-0.145
-104.962	-143.145	-0.112	0.011
-103.947	800.000	0.018	-0.065
-102.932	-128.627	-0.155	0.022
-101.918	47.218	-0.150	0.137
-100.903	69.036	0.217	0.219
-99.889	8.242	0.200	-0.147
-98.874	101.428	0.152	0.173
-97.859	173.174	-0.103	0.146
-96.845	-200.000	0.013	-0.166
-95.830	-150.412	0.118	-0.009
-94.816	-61.935	-0.222	-0.091
-93.801	-2.159	0.100	0.069
-92.786	204.507	-0.058	-0.088
-91.772	672.017	0.045	-0.114
-90.757	-127.259	0.188	0.027
-89.743	-26.775	0.231	-0.132
-88.728	509.463	0.094	-0.213
-87.713	-154.704	0.075	-0.005
-86.699	70.103	0.195	0.197
-85.684	39.405	-0.205	-0.180
-84.670	571.554	0.059	-0.141
-83.655	-83.700	0.213	-0.067
-82.640	-200.000	-0.009	0.073
-81.626	-200.000	0.062	-0.452
-80.611	64.332	-0.176	-0.173
-79.597	-95.732	0.210	0.055
-78.582	-157.169	0.510	-0.030
-77.567	-102.234	0.264	-0.062
-76.553	356.360	-0.134	-0.261
-75.538	-23.715	-0.116	-0.068
-74.524	368.176	-0.099	-0.197
-73.509	95.044	-0.130	-0.145
-72.494	40.468	-0.065	0.057
-71.480	119.120	0.109	-0.132
-70.465	-112.954	0.143	0.028
-69.451	-129.599	-0.233	0.031
-68.436	-71.767	0.318	0.116
-67.422	-10.909	0.123	0.080
-66.407	36.563	-0.177	0.153
-65.392	800.000	-0.083	0.252
-64.378	271.975	0.144	-0.249
-63.363	800.000	-0.018	0.054
-62.349	-89.366	0.423	0.122
-61.334	188.363	-0.843	-1.235
-60.319	186.630	0.302	0.440
-59.305	206.684	-0.594	-0.906
-58.290	306.811	0.566	1.032
-57.276	800.000	0.408	1.413
-56.261	-200.000	106.880	626.223
-55.246	522.875	1514.033	3483.283
-54.232	176.064	2704.728	3845.454
-53.217	110.803	2184.720	2574.311
-52.203	39.889	1706.185	1500.118
-51.188	32.350	1519.065	1284.310
-50.173	29.994	1492.379	1245.868
-49.159	50.974	1549.067	1437.678
-48.144	51.136	1565.305	1453.803
-47.130	32.487	1520.666	1286.392
-46.115	29.522	1505.884	1253.741
-45.100	29.333	1502.499	1249.592
-44.086	29.264	1500.252	1247.207
-43.071	29.053	1498.952	1244.650
-42.057	29.036	1497.286	1243.099
-41.042	29.168	1495.425	1242.394
-40.027	29.134	1493.841	1240.799
-39.013	29.105	1492.862	1239.745
-37.998	29.168	1491.300	1238.819
-36.984	29.156	1489.640	1237.313
-35.969	29.079	1488.893	1236.130
-34.954	29.193	1486.949	1235.229
-33.940	29.062	1485.595	1233.177
-32.925	29.158	1484.535	1232.892
-31.911	29.181	1483.019	1231.737
-30.896	29.247	1482.111	1231.375
-29.881	29.217	1480.594	1229.862
-28.867	29.355	1479.011	1229.419
-27.852	29.217	1478.309	1227.867
-26.838	29.232	1476.802	1226.669
-25.823	29.155	1475.203	1224.781
-24.809	29.266	1473.399	1223.970
-23.794	29.250	1471.660	1222.371
-22.779	29.284	1470.452	1221.545
-21.765	29.180	1470.282	1220.668
-20.750	29.289	1468.681	1220.011
-19.736	29.194	1467.771	1218.580
-18.721	29.139	1466.747	1217.319
-17.706	29.203	1465.724	1216.841
-16.692	29.308	1464.118	1216.152
-15.677	29.255	1462.948	1214.785
-14.663	29.171	1462.105	1213.478
-13.648	29.151	1461.268	1212.608
-12.633	29.133	1460.546	1211.839
-11.619	29.152	1459.512	1211.061
-10.604	29.280	1458.636	1211.127
-9.590	29.122	1458.221	1209.695
-8.575	29.185	1457.098	1209.127
-7.560	29.213	1455.892	1208.261
-6.546	29.192	1454.873	1207.234
-5.531	29.110	1454.616	1206.435
-4.517	29.089	1453.680	1205.475
-3.502	29.179	1452.207	1204.790
-2.487	29.252	1451.155	1204.348
-1.473	29.093	1450.822	1202.987
-0.458	29.145	1449.146	1201.887
0.556	26.679	1440.051	1190.770
1.571	23.980	1414.545	1152.127
2.586	20.683	1355.261	1083.251
3.600	19.269	1273.760	1009.738
4.615	18.266	1229.194	968.650
5.629	15.784	1174.224	911.814
6.644	7.647	1090.386	805.531
7.659	0.769	1050.504	742.321
8.673	-0.107	1044.487	733.727
9.688	-0.300	1041.555	730.661
10.702	-0.401	1039.801	728.874
11.717	-0.422	1037.784	727.297
12.731	2.521	1040.907	743.727
13.746	11.274	1053.327	795.394
14.761	18.200	1063.058	836.665
15.775	20.105	1064.503	847.048
16.790	20.341	1064.168	847.856
17.804	20.215	1063.135	846.344
18.819	19.932	1062.318	844.238
19.834	20.175	1061.347	844.575
20.848	20.211	1061.453	844.763
21.863	20.305	1060.530	844.409
22.877	20.142	1060.770	843.731
23.892	20.189	1059.479	842.861
24.907	20.118	1058.553	841.705
25.921	20.091	1058.308	841.301
26.936	20.278	1057.265	841.306
27.950	20.117	1056.431	839.791
28.965	20.161	1054.932	838.736
29.980	20.032	1053.430	836.847
30.994	19.941	1051.988	835.187
32.009	20.133	1051.053	835.297
33.023	20.291	1050.692	835.695
34.038	20.040	1049.594	833.541
35.053	20.051	1048.330	832.516
36.067	20.209	1047.808	832.788
37.082	20.237	1046.998	832.204
38.096	20.306	1046.197	831.822
39.111	20.470	1045.740	832.171
40.126	20.416	1045.097	831.330
41.140	20.292	1043.942	829.744
42.155	20.223	1041.502	827.404
43.169	20.054	1040.223	825.508
44.184	19.904	1039.434	824.092
45.199	20.061	1038.316	823.881
46.213	19.964	1037.220	822.476
47.228	19.850	1036.635	821.400
48.242	20.094	1035.457	821.553
49.257	20.059	1034.606	820.638
50.271	20.163	1034.040	820.609
51.286	20.254	1033.260	820.348
52.301	20.204	1032.489	819.426
53.315	20.091	1031.758	818.237
54.330	20.260	1030.921	818.302
55.344	20.171	1029.867	816.970
56.359	20.226	1028.909	816.399
57.374	20.200	1028.284	815.707
58.388	20.058	1027.256	814.154
59.403	19.967	1026.758	813.260
60.417	19.999	1025.979	812.720
61.432	19.973	1024.414	811.285
62.447	20.034	1023.865	811.065
63.461	19.953	1023.541	810.360
64.476	20.060	1022.863	810.249
65.490	19.945	1021.687	808.708
66.505	19.937	1020.892	807.973
67.520	19.910	1020.143	807.179
68.534	20.066	1019.218	807.103
69.549	19.792	1018.663	805.318
70.563	19.736	1016.397	803.194
71.578	19.600	1015.904	802.105
72.593	19.666	1015.325	801.882
73.607	19.599	1013.631	800.164
74.622	19.463	1013.216	799.135
75.636	19.773	1012.982	800.315
76.651	19.890	1011.886	799.916
77.666	19.768	1011.041	798.618
78.680	19.719	1010.096	797.572
79.695	19.724	1009.487	797.042
80.709	19.754	1009.104	796.809
81.724	19.890	1008.687	797.036
82.739	19.887	1007.102	795.700
83.753	19.883	1006.517	795.148
84.768	20.093	1005.672	795.373
85.782	20.413	1005.092	796.315
86.797	20.521	1004.628	796.372
87.812	20.387	1003.504	794.793
88.826	20.249	1002.346	793.178
89.841	20.378	1001.762	793.235
90.855	20.314	1001.033	792.294
91.870	20.496	999.638	791.950
92.884	20.436	999.096	791.177
93.899	20.406	997.562	789.754
94.914	20.309	997.098	788.876
95.928	20.323	996.771	788.614
96.943	20.470	995.251	788.005
97.957	20.264	994.194	786.165
98.972	19.841	993.770	783.846
99.987	19.638	992.475	781.837
101.001	19.880	991.372	781.993
102.016	20.222	990.772	782.996
103.030	20.105	990.128	781.889
104.045	20.112	989.205	781.124
105.060	20.019	987.627	779.389
106.074	19.713	986.739	777.244
107.089	19.946	985.712	777.410
108.103	20.044	986.174	778.147
109.118	20.319	984.769	778.202
110.133	20.180	983.233	776.297
111.147	20.106	982.384	775.226
112.162	20.006	981.087	773.690
113.176	19.769	980.005	771.709
114.191	19.852	979.283	771.442
115.206	19.967	978.162	771.005
116.220	19.555	976.748	767.989
117.235	19.577	975.853	767.317
118.249	19.668	975.358	767.263
119.264	19.850	973.881	766.837
120.279	19.638	973.279	765.359
121.293	19.662	972.622	764.882
122.308	19.734	972.126	764.741
123.322	19.786	971.102	764.099
124.337	19.723	970.478	763.262
125.352	19.760	968.279	761.628
126.366	19.311	966.889	758.489
127.381	18.986	965.624	756.002
128.395	19.530	965.605	758.312
129.410	20.256	964.711	760.727
130.424	20.286	964.253	760.431
131.439	20.266	962.375	758.793
132.454	20.161	961.741	757.768
133.468	20.069	961.122	756.811
134.483	20.177	959.515	755.952
135.497	20.240	958.991	755.748
136.512	20.328	958.739	755.863
137.527	20.314	958.244	755.345
138.541	20.471	956.727	754.766
139.556	20.422	956.185	754.058
140.570	20.425	955.248	753.267
141.585	20.315	954.401	752.053
142.600	20.438	954.054	752.244
143.614	20.271	952.955	750.592
144.629	20.399	952.068	750.377
145.643	20.667	951.538	751.053
146.658	20.517	950.162	749.252
147.673	20.305	949.461	747.721
148.687	20.227	948.715	746.729
149.702	20.165	947.202	745.208
150.716	20.235	946.091	744.567
151.731	20.135	945.316	743.464
152.746	20.339	944.715	743.798
153.760	20.481	944.188	743.928
154.775	20.566	943.302	743.526
155.789	20.450	942.431	742.276
156.804	20.579	941.375	741.931
157.819	20.478	940.299	740.586
158.833	20.591	939.539	740.403
159.848	20.731	938.744	740.309
160.862	20.647	937.687	739.050
161.877	20.602	937.057	738.299
162.892	20.503	936.128	737.081
163.906	20.623	935.868	737.321
164.921	20.548	935.063	736.304
165.935	20.443	933.512	734.572
166.950	20.639	932.571	734.597
167.964	20.499	931.654	733.216
168.979	20.558	930.680	732.633
169.994	20.420	929.625	731.158
171.008	20.331	928.448	729.794
172.023	20.627	927.681	730.370
173.037	20.558	927.222	729.654
174.052	20.537	925.753	728.344
175.067	20.335	924.533	726.477
176.081	20.272	924.251	725.928
177.096	20.242	923.527	725.171
178.110	20.469	922.204	725.013
179.125	20.196	921.209	723.031
180.140	19.942	920.098	721.035
181.154	19.954	919.720	720.724
182.169	20.151	919.270	721.127
183.183	20.294	919.069	721.501
184.198	20.566	918.622	722.218
185.213	20.447	917.734	720.963
186.227	20.437	916.997	720.275
187.242	20.573	916.609	720.473
188.256	20.483	915.768	719.373
189.271	20.602	914.768	719.015
190.286	20.749	913.723	718.738
191.300	20.514	913.074	717.195
192.315	20.100	911.857	714.470
193.329	19.371	910.663	710.468
194.344	18.888	909.993	707.894
195.359	19.486	910.130	710.401
196.373	20.271	910.417	713.791
197.388	20.568	909.886	714.532
198.402	20.474	908.922	713.326
199.417	20.326	908.412	712.257
200.432	20.501	907.823	712.447
201.446	20.299	907.341	711.179
202.461	19.867	906.213	708.466
203.475	20.121	905.492	708.879
204.490	19.679	904.309	706.084
205.504	18.552	902.182	699.763
206.519	19.016	902.206	701.613
207.534	20.006	902.183	705.567
208.548	20.214	901.420	705.754
209.563	20.368	901.852	706.657
210.577	20.412	901.155	706.228
211.592	20.277	899.845	704.591
212.607	20.481	899.747	705.280
213.621	20.561	899.348	705.230
214.636	20.585	898.553	704.641
215.650	20.784	897.856	704.836
216.665	20.649	897.059	703.605
217.680	20.586	897.083	703.304
218.694	20.695	896.422	703.166
219.709	20.355	895.199	700.771
220.723	19.997	894.106	698.411
221.738	20.247	893.807	699.122
222.753	20.375	893.438	699.289
223.767	20.482	892.471	698.900
224.782	20.419	891.865	698.110
225.796	20.640	891.042	698.292
226.811	20.789	890.517	698.414
227.826	20.340	889.634	695.863
228.840	19.623	888.388	691.956
229.855	19.490	887.331	690.538
230.869	19.765	887.158	691.445
231.884	19.559	885.855	689.544
232.899	19.612	885.400	689.340
233.913	20.255	886.095	692.388
234.928	20.503	885.141	692.567
235.942	20.348	884.779	691.606
236.957	20.399	883.901	691.062
237.972	20.254	882.712	689.497
238.986	20.020	882.147	688.064
240.001	20.147	881.799	688.234
241.015	20.071	881.171	687.382
242.030	20.168	880.617	687.275
243.045	20.492	879.625	687.721
244.059	20.339	879.530	686.980
245.074	20.568	878.659	687.146
246.088	20.651	877.936	686.847
247.103	20.231	876.887	684.310
248.117	20.036	876.698	683.331
249.132	20.628	876.556	685.493
250.147	20.917	876.198	686.291
251.161	20.999	875.682	686.149
252.176	21.155	875.120	686.261
253.190	21.251	873.926	685.641
254.205	21.310	873.697	685.635
255.220	21.412	873.195	685.578
256.234	21.390	872.623	684.983
257.249	21.253	872.049	683.935
258.263	21.225	870.959	682.911
259.278	21.210	870.656	682.554
260.293	21.217	870.178	682.148
261.307	21.350	869.502	682.073
262.322	21.231	868.954	681.120
263.336	21.072	868.306	679.932
264.351	20.657	866.243	676.644
265.366	19.398	864.442	670.286
266.380	19.178	863.616	668.734
267.395	20.161	864.155	672.909
268.409	20.910	864.118	675.726
269.424	20.902	863.195	674.912
270.439	20.841	863.067	674.516
271.453	21.045	862.420	674.741
272.468	21.180	861.522	674.498
273.482	21.281	861.158	674.544
274.497	21.401	860.426	674.377
275.512	21.166	859.889	672.989
276.526	20.461	858.405	669.056
277.541	20.797	858.360	670.255
278.555	21.094	858.243	671.246
279.570	21.014	857.121	670.000
280.585	20.867	856.267	668.710
281.599	20.872	855.881	668.368
282.614	20.834	855.741	668.054
283.628	20.506	854.318	665.630
284.643	20.138	853.643	663.635
285.657	20.680	853.258	665.349
286.672	20.475	852.762	664.119
287.687	19.911	851.891	661.229
288.701	20.296	851.684	662.480
289.716	20.768	851.247	663.881
290.730	20.412	850.197	661.648
291.745	20.329	849.566	660.785
292.760	20.105	848.646	659.156
293.774	20.090	848.242	658.729
294.789	21.011	848.576	662.428
295.803	21.622	848.056	664.283
296.818	21.639	847.817	664.104
297.833	21.794	847.123	664.088
298.847	21.470	846.105	662.006
299.862	21.309	845.180	660.616
300.876	21.315	845.008	660.442
301.891	21.546	844.532	660.887
302.906	21.757	843.727	660.992
303.920	21.203	842.578	657.947
304.935	21.047	842.080	656.911
305.949	21.432	841.884	658.149
306.964	21.624	841.005	658.126
307.979	21.404	840.461	656.816
308.993	21.367	840.081	656.324
310.008	21.663	839.645	657.036
311.022	21.798	839.552	657.411
312.037	21.645	839.083	656.412
313.052	21.361	838.118	654.535
314.066	21.196	837.681	653.516
315.081	20.668	835.969	650.151
316.095	20.025	834.652	646.670
317.110	20.349	835.292	648.319
318.125	21.333	834.939	651.660
319.139	20.894	834.292	649.462
320.154	19.895	832.217	644.072
321.168	19.339	831.582	641.456
322.183	20.038	831.661	644.061
323.197	20.889	831.929	647.372
324.212	21.247	831.815	648.556
325.227	21.409	831.303	648.700
326.241	21.427	831.094	648.546
327.256	21.428	830.100	647.719
328.270	21.293	829.566	646.743
329.285	21.247	829.028	646.098
330.300	21.131	828.047	644.848
331.314	20.842	827.288	643.131
332.329	20.858	826.425	642.463
333.343	21.238	826.501	643.867
334.358	21.590	826.068	644.770
335.373	21.425	825.514	643.673
336.387	21.609	824.953	643.854
337.402	21.744	824.770	644.151
338.416	21.893	824.214	644.209
339.431	22.002	823.029	643.625
340.446	21.986	822.713	643.261
341.460	22.067	822.381	643.241
342.475	22.049	822.114	642.910
343.489	21.792	821.030	641.066
344.504	21.819	820.566	640.746
345.519	22.133	820.119	641.488
346.533	22.288	820.379	642.198
347.548	22.315	819.847	641.822
348.562	22.392	819.319	641.636
349.577	22.304	818.858	640.896
350.592	22.377	817.629	640.143
351.606	22.211	817.642	639.494
352.621	22.246	817.186	639.207
353.635	22.067	816.779	638.180
354.650	22.075	815.851	637.429
355.665	21.526	815.518	635.119
356.679	20.693	813.271	630.296
357.694	20.566	813.112	629.658
358.708	21.386	812.748	632.288
359.723	21.198	812.107	631.054
360.738	21.494	812.023	632.002
361.752	21.773	812.459	633.296
362.767	21.830	812.253	633.281
363.781	22.100	811.785	633.837
364.796	22.489	811.453	634.925
365.810	22.448	810.638	634.081
366.825	22.691	810.353	634.679
367.840	22.616	810.257	634.277
368.854	22.369	809.644	632.852
369.869	21.900	808.387	630.130
370.883	21.955	807.954	629.935
371.898	22.032	807.702	629.959
372.913	21.914	806.618	628.635
373.927	21.940	805.956	628.156
374.942	22.015	805.536	628.043
375.956	22.232	805.105	628.427
376.971	22.351	804.332	628.191
377.986	22.485	803.990	628.347
379.000	22.584	803.457	628.225
380.015	22.568	803.148	627.873
381.029	22.340	802.685	626.643
382.044	22.300	802.016	625.924
383.059	22.496	801.380	626.069
384.073	22.445	800.980	625.520
385.088	22.650	800.408	625.745
386.102	22.628	800.091	625.362
387.117	22.467	799.260	624.087
388.132	22.348	798.536	623.047
389.146	22.147	797.913	621.794
390.161	21.735	796.739	619.368
391.175	21.837	796.288	619.325
392.190	22.069	797.060	620.689
393.205	22.121	796.700	620.537
394.219	21.058	794.810	615.265
395.234	19.716	792.350	608.583
396.248	19.123	791.794	606.017
397.263	20.284	791.979	610.189
398.278	21.855	793.437	616.788
399.292	22.269	793.769	618.445
400.307	21.971	793.003	616.747
401.321	22.160	791.705	616.346
402.336	21.938	791.977	615.726
403.350	22.225	792.044	616.730
404.365	22.506	791.954	617.591
405.380	23.013	791.350	618.840
406.394	23.150	791.321	619.244
407.409	23.232	790.978	619.206
408.423	23.262	790.253	618.688
409.438	23.176	789.998	618.135
410.453	23.139	789.439	617.512
411.467	23.266	789.151	617.677
412.482	23.223	788.207	616.734
413.496	23.146	787.542	615.890
414.511	23.143	787.824	616.045
415.526	23.184	787.490	615.871
416.540	23.238	787.062	615.670
417.555	23.228	786.024	614.769
418.569	22.955	785.104	613.048
419.584	22.880	784.921	612.592
420.599	22.978	784.495	612.543
421.613	157.905	1363.803	1799.103
422.628	136.581	1448.199	1799.179
