DTS Sentinel unit serial number:	SN413079Multiplexer serial number:	ORYXHardware model number:	OX4-SRSoftware version number:	ORYX F/W v4.00 Oryx Data Collector v3.7.2.0data status	okinstallation	princeton_trtdifferential loss correction	single-endedforward channel	channel 3reverse channel	N/Adate	2019/09/11time	00:54:10forward acquisition time	60.00reverse acquisition time	0.00gamma	496.2192k internal	0.2332k external	0.2332temperature offset calibration	0.9914default loss term (dB/km)	0.3790temperature slope calibration	1.0000multiplexer offset coefficient	1.0000multiplexer slope coefficient	1.0000fibre end	0.00T internal ref (°C)	29.16T ext. ref 1 (°C)	-0.31T ext. ref 2 (°C)	22.89length (m)	temperature (°C)	Stokes	anti-Stokes-747.200	-200.000	0.014	-0.180
-746.185	-200.000	-0.028	-0.206
-745.171	108.442	-0.128	0.153
-744.156	250.051	-0.036	-0.061
-743.142	800.000	-0.039	0.143
-742.127	-200.000	-0.024	0.369
-741.112	79.000	0.177	0.191
-740.098	800.000	0.061	0.256
-739.083	-61.522	0.082	0.035
-738.069	80.488	-0.271	0.294
-737.054	-200.000	-0.009	-0.174
-736.039	-173.132	-0.180	-0.006
-735.025	-19.517	0.309	-0.193
-734.010	-55.161	0.103	-0.047
-732.996	-200.000	0.090	-0.000
-731.981	-65.670	-0.336	0.136
-730.966	26.122	-0.114	0.095
-729.952	350.635	-0.095	0.189
-728.937	746.974	0.057	-0.155
-727.923	-160.587	0.361	0.019
-726.908	-103.537	0.444	0.105
-725.894	-104.536	-0.449	-0.104
-724.879	-0.126	0.160	-0.114
-723.864	800.000	-0.035	-0.153
-722.850	800.000	0.094	-0.347
-721.835	-88.178	-0.173	-0.052
-720.821	800.000	-0.028	0.102
-719.806	35.232	0.174	-0.154
-718.791	-166.117	-0.258	0.011
-717.777	800.000	-0.043	0.148
-716.762	-200.000	-0.059	0.412
-715.748	708.243	-0.053	0.140
-714.733	-73.849	0.147	-0.054
-713.718	800.000	0.031	0.093
-712.704	8.829	0.143	-0.109
-711.689	-164.248	-0.319	-0.015
-710.675	-200.000	-0.003	0.030
-709.660	-200.000	0.011	0.082
-708.645	-62.276	0.196	-0.082
-707.631	-191.115	0.177	-0.002
-706.616	-170.917	-0.047	-0.002
-705.602	64.103	-0.075	-0.076
-704.587	542.091	-0.032	0.077
-703.572	18.465	-0.119	-0.096
-702.558	34.480	0.181	-0.159
-701.543	-56.805	-0.147	-0.065
-700.529	800.000	-0.092	-0.313
-699.514	331.511	-0.083	0.161
-698.499	-57.984	-0.128	-0.056
-697.485	-90.904	0.215	0.062
-696.470	800.000	0.042	-0.172
-695.456	33.641	-0.258	-0.225
-694.441	800.000	0.024	-0.080
-693.426	-26.359	0.119	-0.070
-692.412	88.468	0.125	0.139
-691.397	-68.982	0.160	0.062
-690.383	800.000	-0.023	-0.082
-689.368	-185.432	-0.168	-0.003
-688.354	-119.224	0.112	-0.020
-687.339	-26.109	0.268	-0.158
-686.324	-25.463	-0.158	0.093
-685.310	340.612	0.194	-0.381
-684.295	-183.960	0.221	0.004
-683.281	-122.385	0.113	-0.018
-682.266	-200.000	-0.006	0.032
-681.251	88.562	0.180	0.201
-680.237	-71.261	-0.304	0.114
-679.222	-27.683	0.102	-0.060
-678.208	-149.988	-0.131	0.010
-677.193	275.244	-0.126	-0.225
-676.178	301.864	0.107	0.198
-675.164	641.821	0.050	0.127
-674.149	96.107	0.063	0.072
-673.135	33.757	0.066	0.057
-672.120	6.814	-0.284	0.212
-671.105	800.000	-0.074	-0.239
-670.091	358.270	-0.019	-0.038
-669.076	237.222	0.065	-0.109
-668.062	366.404	-0.111	-0.224
-667.047	800.000	0.005	-0.018
-666.032	-34.681	-0.101	0.055
-665.018	-200.000	0.026	-0.334
-664.003	486.396	-0.092	-0.211
-662.989	731.846	0.070	0.187
-661.974	-200.000	-0.027	0.190
-660.959	124.853	-0.130	-0.165
-659.945	-22.505	-0.149	0.090
-658.930	139.984	-0.194	-0.256
-657.916	67.246	0.275	-0.281
-656.901	140.214	-0.128	-0.170
-655.886	-47.260	-0.223	0.109
-654.872	-41.648	-0.066	0.034
-653.857	-87.739	0.069	-0.021
-652.843	800.000	-0.072	-0.214
-651.828	208.776	-0.137	0.214
-650.814	-60.268	-0.204	0.087
-649.799	-121.947	0.174	-0.029
-648.784	-68.406	-0.137	-0.053
-647.770	-58.793	0.312	-0.135
-646.755	5.641	0.287	-0.213
-645.741	-52.337	0.294	-0.137
-644.726	-162.061	0.161	0.008
-643.711	-0.620	0.148	-0.105
-642.697	306.796	0.051	0.094
-641.682	205.329	0.102	0.159
-640.668	-200.000	-0.297	-0.000
-639.653	-113.221	-0.044	-0.009
-638.638	-200.000	0.035	0.191
-637.624	10.303	0.145	-0.111
-636.609	-174.007	-0.224	-0.007
-635.595	191.661	-0.037	0.056
-634.580	-200.000	0.056	-0.273
-633.565	1.106	-0.426	0.306
-632.551	-166.396	0.245	-0.010
-631.536	-116.102	-0.201	-0.037
-630.522	289.060	-0.023	0.041
-629.507	-200.000	0.032	0.365
-628.492	424.874	-0.186	0.402
-627.478	2.419	-0.187	-0.135
-626.463	-58.877	0.071	0.031
-625.449	324.787	-0.171	-0.328
-624.434	-200.000	0.046	0.207
-623.419	-67.308	-0.075	0.029
-622.405	-144.649	-0.292	0.027
-621.390	366.792	-0.147	-0.298
-620.376	800.000	-0.094	-0.307
-619.361	7.478	0.296	-0.221
-618.346	-37.831	-0.457	-0.244
-617.332	800.000	0.027	-0.089
-616.317	-38.240	0.245	0.130
-615.303	-30.094	0.287	-0.163
-614.288	-116.456	-0.176	-0.033
-613.273	-200.000	-0.016	-0.173
-612.259	-47.915	-0.306	-0.148
-611.244	-5.181	-0.341	-0.235
-610.230	54.071	0.208	0.200
-609.215	33.028	0.063	-0.054
-608.201	8.100	0.313	-0.235
-607.186	-200.000	0.055	0.344
-606.171	106.632	0.277	0.329
-605.157	-100.079	-0.191	0.048
-604.142	800.000	-0.087	0.329
-603.128	417.981	-0.083	-0.177
-602.113	-200.000	0.036	0.361
-601.098	430.657	-0.068	0.147
-600.084	-117.168	0.084	0.015
-599.069	-44.405	-0.292	-0.146
-598.055	-43.810	0.174	-0.088
-597.040	-200.000	0.005	-0.096
-596.025	-130.695	0.040	0.005
-595.011	288.662	-0.138	-0.250
-593.996	-130.988	-0.375	0.050
-592.982	-19.481	0.243	-0.151
-591.967	31.293	-0.417	-0.358
-590.952	40.141	-0.184	-0.166
-589.938	153.295	0.072	-0.099
-588.923	-6.279	0.261	-0.178
-587.909	-200.000	0.025	-0.220
-586.894	-200.000	0.083	0.455
-585.879	30.834	-0.285	-0.244
-584.865	-200.000	-0.005	-0.398
-583.850	-200.000	-0.043	-0.190
-582.836	-153.622	-0.230	0.016
-581.821	-74.103	0.146	-0.053
-580.806	221.416	0.119	-0.191
-579.792	-99.685	0.125	0.031
-578.777	-170.544	0.575	-0.020
-577.763	414.420	-0.059	0.125
-576.748	-200.000	-0.073	0.432
-575.733	184.754	0.197	0.292
-574.719	137.080	0.239	0.312
-573.704	135.110	0.084	-0.108
-572.690	-200.000	0.089	-0.498
-571.675	102.040	-0.099	0.116
-570.661	-47.211	-0.347	0.169
-569.646	258.035	0.053	-0.091
-568.631	-176.275	-0.251	0.007
-567.617	-200.000	0.012	-0.295
-566.602	-200.000	0.076	-0.354
-565.588	610.203	0.068	0.169
-564.573	146.850	-0.083	-0.112
-563.558	272.908	0.015	0.026
-562.544	103.286	-0.044	-0.051
-561.529	30.657	0.047	0.041
-560.515	-64.709	-0.157	-0.064
-559.500	-27.840	-0.352	0.204
-558.485	-74.586	0.289	0.104
-557.471	6.812	0.174	0.130
-556.456	95.203	-0.033	-0.037
-555.442	0.707	0.047	-0.034
-554.427	-17.424	-0.204	0.128
-553.412	-122.770	-0.206	-0.033
-552.398	-179.625	-0.431	0.009
-551.383	-59.975	-0.247	-0.105
-550.369	-63.570	-0.210	-0.086
-549.354	208.714	-0.165	-0.259
-548.339	546.767	0.020	-0.047
-547.325	-161.766	-0.235	0.012
-546.310	-200.000	-0.013	-0.145
-545.296	-16.753	0.261	0.165
-544.281	800.000	-0.042	-0.134
-543.266	-119.196	0.112	-0.019
-542.252	800.000	-0.103	-0.293
-541.237	-66.205	0.092	-0.037
-540.223	-119.101	0.160	-0.028
-539.208	-0.871	-0.174	-0.123
-538.193	-200.000	-0.014	-0.087
-537.179	665.776	-0.028	-0.072
-536.164	116.296	-0.210	0.257
-535.150	43.532	0.203	0.185
-534.135	-200.000	0.090	0.000
-533.121	421.379	-0.124	0.265
-532.106	800.000	0.046	-0.169
-531.091	800.000	-0.058	-0.220
-530.077	-6.715	-0.149	-0.101
-529.062	-27.414	-0.028	0.016
-528.048	2.892	-0.246	-0.178
-527.033	-134.878	0.075	-0.009
-526.018	15.635	-0.120	-0.094
-525.004	-200.000	-0.031	-0.327
-523.989	310.835	0.117	0.218
-522.975	-112.492	-0.276	-0.055
-521.960	-164.599	0.186	-0.008
-520.945	370.311	0.036	-0.073
-519.931	-66.632	-0.354	0.140
-518.916	36.650	-0.163	0.144
-517.902	-200.000	0.005	0.123
-516.887	800.000	0.088	0.299
-515.872	102.879	-0.285	0.333
-514.858	-145.638	0.049	0.004
-513.843	290.309	0.064	-0.116
-512.829	800.000	-0.071	-0.250
-511.814	545.695	0.028	-0.066
-510.799	219.092	0.203	0.324
-509.785	-39.981	0.070	-0.036
-508.770	221.347	-0.078	-0.125
-507.756	214.900	0.109	0.172
-506.741	-53.801	-0.389	-0.177
-505.726	-61.461	0.169	0.071
-504.712	165.301	0.153	0.216
-503.697	-2.663	0.154	0.108
-502.683	-106.234	-0.119	-0.027
-501.668	149.591	-0.160	-0.216
-500.653	96.611	-0.211	0.241
-499.639	-160.466	0.127	-0.007
-498.624	-200.000	0.008	0.089
-497.610	-200.000	-0.042	-0.230
-496.595	-88.390	0.196	0.058
-495.581	-132.991	0.500	-0.063
-494.566	234.845	-0.124	-0.204
-493.551	-143.828	0.115	-0.011
-492.537	-36.431	0.292	0.157
-491.522	-166.230	-0.029	0.001
-490.508	608.290	0.033	0.083
-489.493	-49.133	0.170	-0.081
-488.478	673.282	0.030	0.077
-487.464	-86.915	0.318	0.097
-486.449	-200.000	0.065	0.000
-485.435	-50.447	0.165	0.078
-484.420	614.621	-0.077	-0.192
-483.405	-44.563	-0.306	0.152
-482.391	5.010	0.045	-0.033
-481.376	-24.791	-0.092	0.055
-480.362	-17.052	0.196	0.123
-479.347	77.884	0.135	-0.144
-478.332	153.170	0.110	-0.150
-477.318	179.989	0.217	-0.317
-476.303	20.435	0.339	-0.273
-475.289	317.313	-0.084	0.158
-474.274	157.205	0.060	0.083
-473.259	-108.619	-0.412	-0.088
-472.245	-27.977	-0.166	0.096
-471.230	-200.000	-0.049	-0.260
-470.216	-80.892	-0.032	0.010
-469.201	-96.035	-0.199	0.053
-468.186	-79.260	-0.283	-0.095
-467.172	-200.000	-0.015	-0.314
-466.157	477.364	0.070	-0.158
-465.143	30.180	0.097	0.082
-464.128	-35.155	0.087	0.047
-463.113	577.712	-0.002	-0.004
-462.099	-200.000	0.001	-0.117
-461.084	-56.728	0.157	0.069
-460.070	134.708	0.264	0.341
-459.055	800.000	0.129	0.455
-458.040	324.614	-0.120	0.228
-457.026	121.696	0.133	-0.165
-456.011	-177.906	0.184	0.004
-454.997	639.464	0.042	0.106
-453.982	2.986	-0.171	0.124
-452.968	387.779	-0.051	0.105
-451.953	-200.000	-0.023	0.162
-450.938	-79.675	-0.033	0.011
-449.924	232.481	-0.027	-0.045
-448.909	-52.061	-0.130	0.060
-447.895	-44.702	-0.322	-0.160
-446.880	-200.000	-0.056	0.264
-445.865	-200.000	-0.044	-0.453
-444.851	-97.911	0.176	0.045
-443.836	-114.161	0.084	-0.016
-442.822	-116.305	-0.113	0.021
-441.807	-157.221	-0.301	-0.018
-440.792	489.548	0.200	-0.455
-439.778	49.667	0.237	0.222
-438.763	800.000	0.096	0.318
-437.749	800.000	0.038	0.144
-436.734	63.051	-0.114	-0.113
-435.719	800.000	0.012	-0.040
-434.705	-200.000	-0.021	-0.125
-433.690	20.033	0.063	-0.050
-432.676	-53.625	0.419	0.190
-431.661	84.811	-0.123	0.134
-430.646	-60.317	-0.100	-0.042
-429.632	-151.466	-0.449	0.033
-428.617	46.673	0.275	-0.254
-427.603	455.514	-0.072	0.158
-426.588	25.005	0.207	-0.171
-425.573	-142.730	-0.420	0.041
-424.559	-19.719	-0.285	-0.175
-423.544	14.912	-0.308	-0.239
-422.530	-123.210	0.207	0.033
-421.515	-200.000	0.018	-0.377
-420.500	88.830	0.097	-0.107
-419.486	-200.000	0.001	-0.195
-418.471	-123.433	-0.259	-0.041
-417.457	54.619	-0.174	-0.167
-416.442	85.408	-0.162	0.177
-415.428	409.054	-0.148	0.312
-414.413	-200.000	0.242	0.001
-413.398	-71.050	0.352	0.132
-412.384	-96.938	0.261	-0.068
-411.369	382.494	-0.114	0.232
-410.355	-200.000	0.038	0.217
-409.340	16.305	0.234	0.183
-408.325	-17.785	-0.429	0.268
-407.311	760.458	0.039	-0.106
-406.296	791.207	-0.088	0.240
-405.282	584.494	-0.066	-0.160
-404.267	800.000	0.029	-0.127
-403.252	33.955	0.017	-0.015
-402.238	-54.613	-0.097	-0.044
-401.223	800.000	-0.054	-0.186
-400.209	-200.000	-0.001	0.143
-399.194	-200.000	-0.032	-0.160
-398.179	-200.000	0.012	-0.098
-397.165	-200.000	-0.257	-0.001
-396.150	-200.000	-0.030	-0.249
-395.136	269.893	-0.054	-0.093
-394.121	-200.000	0.051	0.263
-393.106	-200.000	0.051	-0.300
-392.092	115.871	-0.311	-0.378
-391.077	-54.941	0.090	0.040
-390.063	-200.000	-0.028	0.152
-389.048	-5.087	0.097	0.066
-388.033	256.917	-0.147	0.250
-387.019	61.294	-0.098	0.097
-386.004	21.479	-0.110	-0.089
-384.990	-129.315	-0.274	0.038
-383.975	-18.051	0.132	-0.082
-382.960	-68.178	-0.231	0.089
-381.946	-92.690	0.433	-0.120
-380.931	50.346	-0.158	-0.148
-379.917	-146.854	-0.139	0.012
-378.902	-35.711	-0.347	-0.186
-377.888	-20.950	-0.111	0.068
-376.873	-36.618	0.039	-0.021
-375.858	800.000	0.152	0.492
-374.844	15.196	0.275	0.214
-373.829	-138.077	0.265	0.029
-372.815	-30.635	-0.124	-0.070
-371.800	166.001	0.061	-0.086
-370.785	-0.025	0.008	0.006
-369.771	-70.826	0.418	0.156
-368.756	6.111	0.196	0.144
-367.742	800.000	-0.052	-0.191
-366.727	-34.612	0.106	0.058
-365.712	236.300	-0.111	-0.181
-364.698	94.097	0.136	0.153
-363.683	800.000	0.034	-0.113
-362.669	800.000	-0.013	-0.036
-361.654	435.435	0.156	-0.336
-360.639	-113.555	-0.062	0.012
-359.625	-85.879	0.240	-0.074
-358.610	-33.376	0.104	-0.057
-357.596	72.268	-0.039	-0.041
-356.581	800.000	0.030	0.119
-355.566	-10.836	0.369	0.242
-354.552	400.110	-0.037	-0.078
-353.537	-200.000	0.020	0.189
-352.523	-56.496	0.409	0.180
-351.508	793.287	-0.062	-0.169
-350.493	227.764	0.162	-0.261
-349.479	800.000	0.050	-0.211
-348.464	-94.189	0.534	-0.145
-347.450	-200.000	-0.046	-0.334
-346.435	-106.444	-0.316	0.070
-345.420	-200.000	0.048	0.313
-344.406	-133.571	-0.210	0.026
-343.391	50.538	0.105	0.098
-342.377	-26.139	0.148	0.086
-341.362	-200.000	0.013	0.071
-340.348	-9.533	-0.087	-0.058
-339.333	-61.514	0.037	0.016
-338.318	800.000	0.052	-0.154
-337.304	76.367	-0.169	0.177
-336.289	167.877	0.162	-0.229
-335.275	73.738	-0.195	-0.202
-334.260	50.130	-0.108	-0.101
-333.245	-70.334	0.299	-0.112
-332.231	-51.912	0.246	0.113
-331.216	-98.930	-0.110	-0.028
-330.202	-99.531	-0.351	0.087
-329.187	157.407	0.177	0.242
-328.172	68.623	0.270	-0.274
-327.158	445.303	-0.062	0.135
-326.143	268.180	-0.117	-0.203
-325.129	-200.000	0.006	-0.093
-324.114	800.000	0.065	0.179
-323.099	-61.693	0.132	-0.055
-322.085	-5.819	0.341	0.231
-321.070	530.644	-0.188	0.440
-320.056	102.475	0.096	0.111
-319.041	-200.000	0.008	0.132
-318.026	-98.672	-0.026	0.006
-317.012	139.875	-0.076	-0.100
-315.997	-200.000	0.033	-0.192
-314.983	-71.898	0.434	0.160
-313.968	-200.000	-0.020	0.192
-312.953	669.630	0.129	0.331
-311.939	101.646	0.182	0.210
-310.924	-200.000	-0.037	-0.300
-309.910	-129.814	-0.205	0.028
-308.895	149.733	0.084	0.112
-307.880	-135.873	0.089	-0.010
-306.866	258.405	-0.062	0.105
-305.851	-157.133	-0.277	-0.017
-304.837	6.637	-0.190	-0.140
-303.822	-200.000	-0.044	-0.283
-302.807	653.838	0.079	-0.201
-301.793	-119.588	0.207	0.035
-300.778	-114.225	0.246	-0.047
-299.764	-186.700	0.515	-0.007
-298.749	-200.000	0.024	0.149
-297.735	159.881	-0.164	0.226
-296.720	-200.000	-0.034	0.241
-295.705	-200.000	0.027	0.138
-294.691	10.305	-0.188	-0.142
-293.676	800.000	-0.054	-0.229
-292.662	-28.062	0.108	-0.062
-291.647	-200.000	-0.012	-0.071
-290.632	-16.007	0.139	-0.087
-289.618	-200.000	0.011	0.096
-288.603	-104.698	-0.244	-0.055
-287.589	356.080	0.124	0.244
-286.574	-95.970	-0.382	0.100
-285.559	105.034	0.117	-0.137
-284.545	-143.968	-0.223	-0.021
-283.530	-39.188	-0.134	-0.070
-282.516	-27.653	-0.053	0.030
-281.501	170.718	0.048	-0.068
-280.486	25.151	-0.089	-0.073
-279.472	-200.000	0.000	-0.029
-278.457	-79.752	-0.303	-0.101
-277.443	221.189	-0.112	-0.178
-276.428	95.309	-0.061	-0.068
-275.413	-38.247	-0.113	-0.059
-274.399	-200.000	0.032	0.257
-273.384	-118.395	0.529	0.093
-272.370	-63.881	0.054	-0.022
-271.355	676.768	0.143	0.366
-270.340	-41.127	-0.107	0.054
-269.326	800.000	0.051	-0.217
-268.311	213.649	-0.036	0.056
-267.297	168.571	0.034	-0.048
-266.282	-3.325	0.135	-0.093
-265.267	-200.000	-0.041	0.230
-264.253	-45.740	-0.172	-0.084
-263.238	85.020	0.189	-0.205
-262.224	499.007	0.032	-0.074
-261.209	-108.553	0.356	-0.076
-260.195	800.000	0.132	0.481
-259.180	22.095	0.065	-0.053
-258.165	298.767	0.064	-0.117
-257.151	16.522	-0.266	-0.207
-256.136	-138.927	-0.063	-0.007
-255.122	-60.404	0.158	-0.066
-254.107	256.631	-0.131	-0.222
-253.092	-35.756	0.113	0.061
-252.078	-74.765	0.205	0.073
-251.063	144.420	0.220	-0.290
-250.049	-137.478	-0.314	0.035
-249.034	-46.447	0.167	0.081
-248.019	-52.277	-0.331	-0.151
-247.005	-88.859	0.202	0.059
-245.990	-136.800	-0.136	0.015
-244.976	-38.999	0.234	0.122
-243.961	-65.677	0.070	0.028
-242.946	306.471	0.161	0.296
-241.932	-58.900	-0.116	0.049
-240.917	800.000	-0.077	0.313
-239.903	-200.000	0.003	-0.208
-238.888	604.111	0.050	0.123
-237.873	43.670	0.166	-0.150
-236.859	-59.151	0.106	-0.045
-235.844	-83.246	0.160	-0.051
-234.830	-64.919	0.267	0.107
-233.815	20.641	-0.077	-0.061
-232.800	39.212	-0.233	-0.205
-231.786	-15.837	0.202	-0.127
-230.771	112.643	0.121	-0.144
-229.757	800.000	0.052	0.162
-228.742	30.936	0.138	0.117
-227.727	-3.031	-0.078	-0.054
-226.713	68.581	0.226	-0.229
-225.698	-65.101	0.117	0.047
-224.684	1.874	-0.214	-0.152
-223.669	800.000	-0.078	0.289
-222.655	-59.993	-0.260	-0.109
-221.640	-93.186	-0.207	0.057
-220.625	139.612	0.180	0.234
-219.611	-160.879	0.413	-0.021
-218.596	98.310	-0.226	-0.256
-217.582	-200.000	0.009	0.148
-216.567	-200.000	-0.023	-0.123
-215.552	-58.130	0.069	-0.029
-214.538	-200.000	-0.014	0.287
-213.523	-84.018	-0.166	0.052
-212.509	-82.487	0.404	-0.129
-211.494	-200.000	0.012	0.172
-210.479	424.400	-0.083	0.175
-209.465	-31.868	-0.253	0.140
-208.450	-200.000	-0.015	0.126
-207.436	-5.824	-0.094	-0.063
-206.421	-200.000	0.037	0.268
-205.406	-132.620	-0.141	-0.018
-204.392	-29.068	-0.331	-0.187
-203.377	-16.242	-0.148	-0.093
-202.363	215.782	0.187	-0.293
-201.348	-95.600	-0.172	-0.045
-200.333	3.178	0.484	-0.346
-199.319	-80.010	-0.120	-0.040
-198.304	20.167	-0.276	0.220
-197.290	30.889	-0.040	-0.034
-196.275	157.733	-0.134	-0.183
-195.260	594.891	-0.134	-0.327
-194.246	-71.530	-0.299	-0.110
-193.231	371.052	0.127	0.254
-192.217	800.000	-0.102	0.333
-191.202	-96.825	0.058	-0.015
-190.187	-99.047	-0.180	-0.045
-189.173	-90.863	0.023	0.007
-188.158	-49.855	0.182	0.085
-187.144	800.000	-0.065	0.277
-186.129	103.778	-0.095	0.109
-185.114	-153.492	0.237	0.016
-184.100	-45.843	0.287	0.139
-183.085	800.000	0.075	0.258
-182.071	-111.056	0.167	0.034
-181.056	374.539	-0.255	0.512
-180.042	-95.196	-0.137	0.036
-179.027	800.000	0.078	-0.248
-178.012	96.362	-0.089	-0.100
-176.998	187.023	0.232	0.340
-175.983	182.249	0.123	-0.178
-174.969	82.044	-0.257	0.274
-173.954	94.714	-0.234	0.262
-172.939	-200.000	0.014	0.094
-171.925	560.905	0.151	0.359
-170.910	800.000	0.072	0.215
-169.896	-94.993	-0.080	0.021
-168.881	115.593	0.036	-0.043
-167.866	-4.637	0.067	-0.046
-166.852	118.937	-0.092	-0.112
-165.837	3.248	-0.054	0.039
-164.823	-74.021	-0.115	-0.041
-163.808	-21.053	-0.140	0.084
-162.793	-89.552	0.239	-0.069
-161.779	-40.888	-0.293	-0.149
-160.764	800.000	-0.106	0.348
-159.750	-200.000	0.029	0.217
-158.735	130.435	0.210	0.264
-157.720	58.278	-0.266	-0.257
-156.706	-200.000	-0.001	-0.094
-155.691	-200.000	-0.092	-0.433
-154.677	800.000	-0.003	0.009
-153.662	358.433	0.076	0.149
-152.647	228.669	-0.074	0.118
-151.633	235.981	-0.204	0.332
-150.618	-112.761	0.453	-0.089
-149.604	18.837	-0.130	-0.102
-148.589	-138.444	0.197	-0.021
-147.574	-200.000	0.032	0.215
-146.560	-92.408	-0.190	0.053
-145.545	-85.370	-0.225	-0.069
-144.531	-63.042	-0.163	0.066
-143.516	-77.452	-0.262	-0.089
-142.502	14.988	0.020	0.015
-141.487	555.512	-0.033	0.078
-140.472	214.559	0.179	0.279
-139.458	404.946	-0.106	0.219
-138.443	0.123	-0.101	0.071
-137.429	287.548	0.092	-0.164
-136.414	31.465	0.132	-0.112
-135.399	113.983	0.341	-0.407
-134.385	147.902	-0.145	0.192
-133.370	-1.030	0.209	0.145
-132.356	324.907	-0.035	-0.065
-131.341	259.316	0.109	-0.185
-130.326	456.483	0.037	-0.081
-129.312	-200.000	-0.030	-0.301
-128.297	-152.123	0.126	-0.009
-127.283	-74.233	0.235	0.083
-126.268	242.444	0.025	-0.041
-125.253	439.810	0.049	-0.105
-124.239	474.363	0.142	-0.314
-123.224	352.629	0.092	-0.179
-122.210	-200.000	-0.034	0.164
-121.195	385.893	0.057	-0.116
-120.180	156.471	-0.115	-0.156
-119.166	256.084	-0.095	0.160
-118.151	-73.397	0.355	0.127
-117.137	-200.000	0.054	0.243
-116.122	-69.324	0.326	0.123
-115.107	-200.000	-0.055	0.302
-114.093	-81.008	-0.256	0.083
-113.078	-200.000	-0.008	0.113
-112.064	-200.000	0.034	-0.335
-111.049	-141.036	0.183	-0.018
-110.034	-149.261	0.212	0.017
-109.020	20.626	-0.307	-0.244
-108.005	-200.000	-0.014	-0.110
-106.991	30.609	-0.298	0.250
-105.976	800.000	-0.029	-0.105
-104.962	-36.411	0.342	0.181
-103.947	-200.000	0.055	0.315
-102.932	63.173	-0.172	-0.169
-101.918	-6.141	-0.177	-0.118
-100.903	-57.481	0.183	0.079
-99.889	-200.000	0.027	0.136
-98.874	-200.000	0.006	0.247
-97.859	546.288	-0.071	0.166
-96.845	800.000	0.045	-0.139
-95.830	-141.884	-0.280	0.027
-94.816	57.406	-0.156	0.149
-93.801	-200.000	0.002	-0.148
-92.786	800.000	0.043	-0.175
-91.772	-200.000	0.006	-0.275
-90.757	-11.823	0.039	-0.025
-89.743	365.723	-0.123	-0.243
-88.728	-92.555	0.241	0.066
-87.713	-33.917	0.068	0.037
-86.699	-146.736	-0.258	0.022
-85.684	-200.000	-0.033	0.235
-84.670	62.939	0.190	-0.187
-83.655	800.000	-0.077	0.259
-82.640	88.828	0.450	0.491
-81.626	-200.000	0.001	0.007
-80.611	-200.000	-0.036	0.250
-79.597	-59.851	0.217	-0.091
-78.582	800.000	0.076	-0.289
-77.567	-200.000	-0.036	-0.274
-76.553	-130.266	0.493	-0.066
-75.538	-200.000	-0.001	-0.155
-74.524	150.548	0.241	0.321
-73.509	393.561	-0.121	0.247
-72.494	-18.382	-0.231	-0.141
-71.480	51.510	-0.085	-0.079
-70.465	-200.000	-0.008	0.283
-69.451	152.920	-0.135	0.181
-68.436	-89.781	-0.193	-0.055
-67.422	-200.000	0.050	-0.244
-66.407	-200.000	0.006	-0.168
-65.392	-36.887	0.216	0.114
-64.378	74.410	-0.094	0.096
-63.363	-85.931	0.353	-0.107
-62.349	-70.176	-0.337	-0.126
-61.334	149.863	-0.931	-1.236
-60.319	21.771	0.405	0.324
-59.305	-200.000	-0.176	-0.916
-58.290	500.901	0.505	1.141
-57.276	800.000	0.440	1.662
-56.261	-200.000	107.530	628.926
-55.246	524.661	1513.484	3487.052
-54.232	176.446	2701.628	3844.841
-53.217	110.787	2181.838	2570.899
-52.203	39.950	1705.173	1499.764
-51.188	32.384	1517.662	1283.417
-50.173	29.997	1491.348	1245.090
-49.159	50.815	1547.915	1435.596
-48.144	51.040	1563.803	1451.816
-47.130	32.426	1519.845	1285.346
-46.115	29.449	1505.664	1253.119
-45.100	29.316	1501.687	1248.860
-44.086	29.237	1499.631	1246.564
-43.071	29.208	1497.578	1244.614
-42.057	29.118	1496.242	1242.847
-41.042	29.174	1494.871	1242.035
-40.027	29.245	1493.121	1241.011
-39.013	29.187	1491.237	1239.007
-37.998	29.126	1490.144	1237.638
-36.984	29.109	1489.106	1236.615
-35.969	29.112	1487.914	1235.593
-34.954	29.095	1486.423	1234.194
-33.940	29.188	1484.958	1233.550
-32.925	29.216	1482.846	1231.939
-31.911	29.270	1482.076	1231.610
-30.896	29.191	1481.321	1230.402
-29.881	29.187	1480.194	1229.390
-28.867	29.218	1478.945	1228.514
-27.852	29.297	1476.962	1227.341
-26.838	29.211	1475.588	1225.577
-25.823	29.232	1474.186	1224.508
-24.809	29.154	1472.851	1222.829
-23.794	29.130	1471.293	1221.330
-22.779	29.109	1470.631	1220.591
-21.765	29.183	1469.421	1220.028
-20.750	29.163	1468.482	1219.068
-19.736	29.116	1467.508	1217.899
-18.721	29.189	1466.047	1217.122
-17.706	29.162	1464.980	1216.010
-16.692	29.114	1464.000	1214.836
-15.677	29.227	1462.582	1214.352
-14.663	29.144	1461.893	1213.183
-13.648	29.092	1460.872	1211.950
-12.633	29.195	1459.623	1211.541
-11.619	29.108	1458.997	1210.399
-10.604	29.082	1457.941	1209.306
-9.590	29.106	1456.990	1208.630
-8.575	29.147	1455.795	1207.856
-7.560	29.141	1455.426	1207.465
-6.546	29.162	1454.504	1206.790
-5.531	29.182	1453.399	1205.954
-4.517	29.116	1452.619	1204.829
-3.502	29.155	1451.753	1204.316
-2.487	29.090	1450.807	1203.058
-1.473	29.002	1450.442	1202.134
-0.458	29.032	1448.585	1200.743
0.556	26.768	1439.287	1190.385
1.571	23.868	1413.888	1150.538
2.586	20.748	1354.295	1082.575
3.600	19.141	1273.265	1008.309
4.615	18.100	1228.571	966.947
5.629	15.747	1173.154	910.522
6.644	7.478	1089.274	803.626
7.659	0.762	1049.541	741.394
8.673	-0.179	1043.886	732.745
9.688	-0.328	1040.938	729.887
10.702	-0.334	1038.959	728.404
11.717	-0.389	1037.051	726.737
12.731	2.588	1040.132	743.288
13.746	11.228	1052.686	794.464
14.761	18.039	1062.082	834.872
15.775	19.917	1063.133	844.800
16.790	20.244	1063.072	846.271
17.804	20.011	1061.900	844.129
18.819	19.720	1061.221	842.098
19.834	20.006	1060.364	842.733
20.848	20.013	1060.073	842.461
21.863	20.030	1059.541	842.046
22.877	20.010	1059.672	841.979
23.892	20.037	1058.751	841.303
24.907	19.856	1058.048	839.792
25.921	19.924	1056.972	839.194
26.936	20.036	1055.868	838.785
27.950	19.970	1054.898	837.625
28.965	19.994	1053.634	836.659
29.980	19.715	1052.194	834.095
30.994	19.782	1050.892	833.313
32.009	19.982	1050.082	833.561
33.023	20.016	1049.346	833.065
34.038	19.927	1047.933	831.443
35.053	19.820	1047.497	830.509
36.067	19.892	1046.836	830.261
37.082	20.004	1045.987	830.051
38.096	20.086	1044.930	829.529
39.111	20.123	1044.686	829.437
40.126	20.306	1043.479	829.284
41.140	20.148	1042.525	827.694
42.155	20.022	1040.576	825.475
43.169	19.748	1039.229	823.028
44.184	19.589	1038.836	821.888
45.199	19.870	1037.175	821.838
46.213	19.743	1036.260	820.438
47.228	19.769	1035.089	819.562
48.242	19.737	1034.600	818.946
49.257	19.792	1033.436	818.215
50.271	19.795	1032.737	817.604
51.286	20.126	1031.943	818.463
52.301	20.129	1030.643	817.375
53.315	20.104	1029.884	816.584
54.330	19.993	1029.697	815.841
55.344	19.902	1028.661	814.518
56.359	19.937	1027.684	813.840
57.374	19.942	1026.885	813.157
58.388	19.802	1025.457	811.299
59.403	19.730	1024.949	810.486
60.417	19.790	1024.374	810.242
61.432	19.711	1023.365	809.003
62.447	19.785	1022.526	808.612
63.461	19.925	1021.434	808.331
64.476	19.899	1020.862	807.685
65.490	19.784	1020.265	806.605
66.505	19.736	1018.894	805.228
67.520	19.736	1018.409	804.771
68.534	19.924	1017.490	804.850
69.549	19.750	1016.508	803.192
70.563	19.518	1015.337	801.121
71.578	19.365	1014.730	799.862
72.593	19.422	1013.730	799.267
73.607	19.399	1012.183	797.870
74.622	19.291	1011.845	797.032
75.636	19.568	1011.169	797.709
76.651	19.733	1010.500	797.870
77.666	19.628	1009.332	796.394
78.680	19.536	1008.098	794.927
79.695	19.487	1008.200	794.714
80.709	19.770	1007.377	795.294
81.724	19.725	1007.017	794.736
82.739	19.675	1005.483	793.221
83.753	19.760	1004.546	792.804
84.768	19.893	1003.777	792.737
85.782	20.174	1003.718	793.904
86.797	20.281	1002.772	793.579
87.812	20.166	1002.079	792.432
88.826	20.174	1000.607	791.236
89.841	20.146	999.855	790.444
90.855	20.226	999.376	790.357
91.870	20.153	998.746	789.457
92.884	20.168	997.597	788.548
93.899	20.125	996.461	787.385
94.914	20.122	995.497	786.542
95.928	20.200	994.871	786.329
96.943	20.187	994.193	785.667
97.957	19.846	992.659	782.841
98.972	19.724	991.726	781.486
99.987	19.580	990.331	779.668
101.001	19.715	989.772	779.767
102.016	19.921	989.256	780.220
103.030	20.068	988.398	780.136
104.045	19.911	986.891	778.169
105.060	19.858	985.505	776.770
106.074	19.570	984.743	774.811
107.089	19.667	983.808	774.440
108.103	19.997	983.355	775.493
109.118	20.087	982.610	775.242
110.133	19.802	981.662	773.151
111.147	19.873	980.405	772.408
112.162	19.771	978.785	770.611
113.176	19.533	978.052	768.904
114.191	19.768	976.990	769.045
115.206	19.764	976.008	768.189
116.220	19.398	975.498	766.093
117.235	19.270	974.420	764.610
118.249	19.462	973.813	764.918
119.264	19.526	972.741	764.291
120.279	19.476	971.580	763.092
121.293	19.491	970.677	762.381
122.308	19.588	970.132	762.311
123.322	19.603	969.151	761.539
124.337	19.590	968.241	760.702
125.352	19.471	966.982	759.123
126.366	19.054	965.253	755.865
127.381	18.744	963.794	753.297
128.395	19.299	963.712	755.601
129.410	20.113	962.610	758.230
130.424	20.084	962.303	757.797
131.439	19.989	961.200	756.447
132.454	19.920	960.413	755.456
133.468	19.927	959.279	754.528
134.483	19.818	958.777	753.592
135.497	19.943	957.961	753.429
136.512	20.030	957.652	753.496
137.527	20.162	956.752	753.296
138.541	20.138	955.852	752.418
139.556	20.269	954.954	752.211
140.570	20.104	954.372	750.971
141.585	20.123	953.341	750.174
142.600	20.301	952.701	750.378
143.614	20.250	951.877	749.440
144.629	20.224	950.926	748.512
145.643	20.416	950.397	748.858
146.658	20.231	949.184	747.040
147.673	20.258	948.232	746.339
148.687	20.037	947.712	744.914
149.702	20.215	945.707	744.038
150.716	19.920	945.109	742.236
151.731	20.067	944.115	742.019
152.746	20.232	942.624	741.487
153.760	20.336	942.556	741.810
154.775	20.369	942.314	741.695
155.789	20.414	941.175	740.928
156.804	20.332	940.192	739.739
157.819	20.199	939.054	738.212
158.833	20.375	938.340	738.334
159.848	20.482	937.437	738.013
160.862	20.416	936.889	737.235
161.877	20.360	935.588	735.907
162.892	20.319	934.864	735.100
163.906	20.343	934.161	734.584
164.921	20.456	933.143	734.195
165.935	20.452	931.989	733.207
166.950	20.493	930.699	732.300
167.964	20.457	929.790	731.366
168.979	20.442	928.876	730.520
169.994	20.266	928.090	729.097
171.008	20.213	926.743	727.755
172.023	20.399	925.865	727.779
173.037	20.403	925.366	727.338
174.052	20.128	924.242	725.241
175.067	20.022	923.464	724.125
176.081	20.065	922.492	723.475
177.096	20.190	921.745	723.347
178.110	20.240	920.647	722.629
179.125	20.137	919.914	721.563
180.140	19.691	918.535	718.562
181.154	19.904	917.682	718.716
182.169	19.980	917.220	718.607
183.183	20.028	917.180	718.710
184.198	20.369	916.640	719.638
185.213	20.309	915.634	718.536
186.227	20.299	914.823	717.795
187.242	20.317	914.886	717.855
188.256	20.387	914.029	717.408
189.271	20.281	912.933	716.049
190.286	20.443	912.231	716.101
191.300	20.304	911.159	714.625
192.315	19.918	909.908	711.991
193.329	19.158	908.431	707.651
194.344	18.748	907.881	705.475
195.359	19.395	907.711	707.940
196.373	20.149	907.797	711.037
197.388	20.358	907.326	711.460
198.402	20.254	906.607	710.410
199.417	20.144	906.071	709.475
200.432	20.167	906.160	709.576
201.446	20.002	905.129	708.034
202.461	19.723	904.347	706.218
203.475	19.869	903.868	706.378
204.490	19.455	901.704	702.938
205.504	18.377	900.225	697.335
206.519	18.803	900.237	699.018
207.534	19.659	900.755	702.842
208.548	19.851	900.015	702.982
209.563	20.133	899.962	704.026
210.577	20.322	898.686	703.729
211.592	19.965	898.118	701.776
212.607	20.443	898.047	703.597
213.621	20.389	897.716	703.056
214.636	20.300	896.998	702.069
215.650	20.489	896.284	702.212
216.665	20.381	895.390	701.014
217.680	20.395	894.876	700.606
218.694	20.541	894.552	700.881
219.709	20.188	893.337	698.445
220.723	19.859	892.258	696.215
221.738	20.021	892.312	696.847
222.753	20.307	891.419	697.240
223.767	20.159	890.889	696.168
224.782	20.327	889.739	695.882
225.796	20.367	890.012	696.192
226.811	20.317	889.744	695.722
227.826	20.151	887.666	693.373
228.840	19.324	886.217	688.876
229.855	19.435	885.343	688.578
230.869	19.783	885.197	689.792
231.884	19.352	884.081	687.143
232.899	19.295	883.795	686.634
233.913	20.045	884.043	689.752
234.928	20.258	883.600	690.192
235.942	20.309	882.557	689.520
236.957	20.196	882.220	688.749
237.972	20.018	880.990	687.021
238.986	19.995	880.213	686.263
240.001	20.059	879.797	686.130
241.015	20.109	878.951	685.606
242.030	20.165	878.509	685.425
243.045	20.233	877.538	684.875
244.059	20.138	877.774	684.624
245.074	20.356	876.802	684.666
246.088	20.413	876.098	684.279
247.103	19.965	875.248	681.791
248.117	20.034	874.707	681.578
249.132	20.518	874.609	683.348
250.147	20.664	874.520	683.790
251.161	20.749	873.496	683.265
252.176	21.112	872.535	683.872
253.190	21.049	872.097	683.223
254.205	20.976	871.769	682.619
255.220	21.149	871.669	683.157
256.234	21.298	870.643	682.875
257.249	21.234	869.773	681.883
258.263	20.930	869.256	680.233
259.278	20.851	869.146	679.778
260.293	21.060	868.491	680.019
261.307	21.198	867.927	680.055
262.322	21.094	867.105	678.948
263.336	20.911	866.143	677.420
264.351	20.499	864.401	674.402
265.366	19.237	863.050	668.395
266.380	18.974	861.937	666.455
267.395	19.828	862.492	670.135
268.409	20.617	862.537	673.163
269.424	20.584	861.783	672.391
270.439	20.773	861.137	672.557
271.453	20.909	860.608	672.608
272.468	21.014	859.249	671.892
273.482	20.940	859.664	671.873
274.497	21.241	859.122	672.548
275.512	20.979	858.318	670.852
276.526	20.390	856.773	667.322
277.541	20.697	856.572	668.285
278.555	20.927	856.045	668.695
279.570	20.889	855.008	667.681
280.585	20.478	854.549	665.691
281.599	20.619	854.101	665.821
282.614	20.841	853.630	666.243
283.628	20.474	852.075	663.572
284.643	20.119	851.305	661.559
285.657	20.546	851.452	663.242
286.672	20.269	850.429	661.334
287.687	19.841	849.790	659.147
288.701	20.157	849.645	660.178
289.716	20.575	849.381	661.505
290.730	20.218	848.468	659.379
291.745	20.222	847.644	658.695
292.760	19.943	846.744	656.879
293.774	20.051	845.737	656.451
294.789	20.853	846.564	660.073
295.803	21.259	846.823	661.757
296.818	21.425	846.220	661.855
297.833	21.655	845.434	662.050
298.847	21.173	844.409	659.368
299.862	21.057	843.540	658.193
300.876	21.037	843.535	658.059
301.891	21.476	842.421	658.782
302.906	21.365	842.285	658.200
303.920	20.985	840.618	655.414
304.935	20.996	839.658	654.648
305.949	21.239	839.996	655.764
306.964	21.477	839.033	655.847
307.979	21.150	838.772	654.360
308.993	21.218	838.327	654.209
310.008	21.433	838.130	654.801
311.022	21.617	837.328	654.808
312.037	21.365	836.671	653.293
313.052	21.215	836.118	652.245
314.066	21.135	835.393	651.322
315.081	20.543	833.898	647.894
316.095	19.950	832.525	644.562
317.110	20.410	832.845	646.467
318.125	21.211	833.094	649.583
319.139	20.675	832.010	646.686
320.154	19.768	830.575	642.147
321.168	19.339	829.680	639.809
322.183	19.837	830.015	641.859
323.197	20.756	830.262	645.400
324.212	20.931	829.916	645.723
325.227	21.197	829.304	646.174
326.241	21.306	828.956	646.249
327.256	21.243	828.405	645.531
328.270	20.972	827.956	644.122
329.285	20.947	827.249	643.420
330.300	20.884	826.329	642.417
331.314	20.865	825.457	641.614
332.329	20.772	825.044	640.894
333.343	21.172	824.602	641.963
334.358	21.416	824.030	642.358
335.373	21.202	823.821	641.353
336.387	21.404	823.371	641.687
337.402	21.672	822.730	642.114
338.416	21.836	822.327	642.343
339.431	21.623	822.065	641.300
340.446	21.715	821.084	640.814
341.460	21.999	820.514	641.353
342.475	22.041	819.981	641.033
343.489	21.603	819.460	638.968
344.504	21.808	818.721	639.084
345.519	21.895	818.226	638.957
346.533	22.051	818.495	639.681
347.548	22.168	817.507	639.275
348.562	22.248	816.908	639.040
349.577	22.100	816.771	638.342
350.592	22.066	815.943	637.515
351.606	22.053	815.966	637.428
352.621	22.154	815.169	637.116
353.635	21.950	814.564	635.847
354.650	21.955	814.167	635.497
355.665	21.552	813.075	633.133
356.679	20.673	811.529	628.698
357.694	20.504	810.976	627.603
358.708	21.216	810.377	629.652
359.723	20.979	810.541	628.871
360.738	21.253	810.213	629.548
361.752	21.634	809.802	630.543
362.767	21.811	809.559	630.937
363.781	22.043	809.589	631.737
364.796	22.217	809.617	632.330
365.810	22.286	808.683	631.793
366.825	22.427	808.397	632.019
367.840	22.340	808.070	631.395
368.854	22.257	807.449	630.557
369.869	22.012	806.022	628.511
370.883	21.704	805.852	627.222
371.898	21.749	805.665	627.179
372.913	21.822	804.675	626.613
373.927	21.602	803.971	625.227
374.942	21.965	803.349	625.983
375.956	21.879	803.012	625.358
376.971	22.050	802.593	625.584
377.986	22.133	802.282	625.582
379.000	22.422	801.537	625.972
380.015	22.299	800.955	625.027
381.029	22.239	800.353	624.288
382.044	22.184	799.713	623.539
383.059	22.348	799.710	624.064
384.073	22.365	799.370	623.805
385.088	22.348	798.389	622.922
386.102	22.441	797.571	622.556
387.117	22.311	797.085	621.664
388.132	22.157	796.360	620.498
389.146	22.078	795.672	619.632
390.161	21.521	795.018	617.103
391.175	21.536	794.697	616.850
392.190	22.104	794.345	618.525
393.205	22.036	794.050	618.001
394.219	21.209	792.333	613.702
395.234	19.559	790.346	606.320
396.248	19.095	789.277	603.819
397.263	20.108	790.337	608.135
398.278	21.665	791.591	614.513
399.292	22.135	791.393	615.954
400.307	21.901	790.451	614.344
401.321	21.644	790.469	613.405
402.336	21.795	790.054	613.556
403.350	22.171	790.077	614.835
404.365	22.467	789.628	615.467
405.380	22.633	789.659	616.017
406.394	22.853	789.508	616.613
407.409	23.210	788.632	617.118
408.423	23.119	788.244	616.444
409.438	22.968	787.451	615.243
410.453	23.001	787.205	615.111
411.467	23.008	786.601	614.608
412.482	23.085	786.197	614.507
413.496	22.955	785.902	613.770
414.511	23.112	785.566	614.000
415.526	22.906	785.305	613.024
416.540	22.872	785.114	612.703
417.555	23.132	783.577	612.351
418.569	22.749	783.207	610.682
419.584	22.654	782.677	609.886
420.599	22.593	782.674	609.620
421.613	157.838	1363.970	1798.492
422.628	136.453	1448.668	1798.572
