DTS Sentinel unit serial number:	SN413079Multiplexer serial number:	ORYXHardware model number:	OX4-SRSoftware version number:	ORYX F/W v4.00 Oryx Data Collector v3.7.2.0data status	okinstallation	princeton_trtdifferential loss correction	single-endedforward channel	channel 3reverse channel	N/Adate	2019/09/11time	12:58:11forward acquisition time	60.00reverse acquisition time	0.00gamma	496.2192k internal	0.2294k external	0.2294temperature offset calibration	0.9931default loss term (dB/km)	0.3790temperature slope calibration	1.0000multiplexer offset coefficient	1.0000multiplexer slope coefficient	1.0000fibre end	0.00T internal ref (°C)	41.50T ext. ref 1 (°C)	0.22T ext. ref 2 (°C)	38.65length (m)	temperature (°C)	Stokes	anti-Stokes-747.200	-93.885	0.290	0.081
-746.185	357.496	-0.135	0.275
-745.171	-200.000	0.005	0.070
-744.156	-200.000	-0.089	0.466
-743.142	-9.944	-0.336	-0.228
-742.127	-68.525	-0.190	-0.075
-741.112	601.058	0.050	0.128
-740.098	204.517	-0.076	0.120
-739.083	125.200	-0.134	-0.173
-738.069	-200.000	-0.028	-0.131
-737.054	-62.542	0.115	0.049
-736.039	800.000	0.050	0.193
-735.025	-76.305	0.263	-0.095
-734.010	-200.000	-0.036	-0.207
-732.996	-200.000	-0.023	-0.307
-731.981	589.080	0.094	0.237
-730.966	93.861	-0.085	0.098
-729.952	71.258	-0.433	-0.459
-728.937	8.862	0.086	-0.066
-727.923	-86.745	0.159	-0.050
-726.908	47.140	0.085	-0.081
-725.894	-68.740	-0.140	-0.055
-724.879	115.357	0.169	0.211
-723.864	-149.008	0.396	0.033
-722.850	381.178	0.044	0.091
-721.835	-132.629	-0.180	-0.024
-720.821	-200.000	-0.021	0.264
-719.806	-43.634	-0.112	-0.058
-718.791	-200.000	0.016	-0.200
-717.777	-33.412	-0.366	-0.207
-716.762	-61.791	-0.380	-0.162
-715.748	-200.000	-0.005	0.151
-714.733	-0.127	-0.243	0.176
-713.718	-89.496	-0.044	-0.013
-712.704	7.652	-0.076	0.058
-711.689	225.396	0.023	0.038
-710.675	-61.771	-0.175	0.075
-709.660	14.711	0.228	0.182
-708.645	108.508	-0.124	0.151
-707.631	-47.326	-0.265	0.132
-706.616	-158.703	0.155	-0.009
-705.602	39.588	-0.177	0.162
-704.587	-36.930	-0.086	-0.047
-703.572	-44.097	-0.310	-0.159
-702.558	-83.513	0.027	-0.009
-701.543	-63.911	-0.243	-0.102
-700.529	800.000	0.053	-0.162
-699.514	136.845	-0.088	0.118
-698.499	800.000	0.041	0.122
-697.485	682.413	0.090	-0.241
-696.470	568.625	-0.131	-0.325
-695.456	-19.814	-0.210	0.132
-694.441	-53.563	0.122	-0.057
-693.426	-85.813	-0.065	0.021
-692.412	-127.799	0.175	0.026
-691.397	61.401	0.101	0.102
-690.383	-200.000	0.010	0.081
-689.368	81.301	0.049	0.054
-688.354	800.000	0.033	-0.127
-687.339	43.550	-0.397	-0.370
-686.324	-4.195	0.099	-0.070
-685.310	144.731	-0.100	0.137
-684.295	29.898	0.231	0.201
-683.281	-37.551	-0.218	0.119
-682.266	-200.000	-0.030	-0.205
-681.251	23.373	0.160	-0.134
-680.237	-115.988	-0.213	0.040
-679.222	-105.344	-0.273	0.063
-678.208	-34.868	-0.306	-0.170
-677.193	-200.000	0.024	0.271
-676.178	-200.000	-0.003	-0.289
-675.164	431.308	-0.079	-0.175
-674.149	-160.009	-0.091	-0.005
-673.135	323.711	-0.195	-0.379
-672.120	-12.568	-0.183	0.122
-671.105	-145.884	-0.255	0.023
-670.091	-144.024	0.534	0.051
-669.076	-109.572	0.050	0.011
-668.062	-24.510	0.145	-0.088
-667.047	38.666	0.182	0.166
-666.032	-200.000	0.010	-0.252
-665.018	-200.000	-0.045	-0.595
-664.003	71.457	0.035	0.037
-662.989	-187.547	0.110	-0.001
-661.974	-200.000	-0.009	0.107
-660.959	-200.000	0.038	0.229
-659.945	-12.901	-0.133	-0.088
-658.930	-9.106	0.095	-0.065
-657.916	-101.841	-0.038	0.009
-656.901	-25.574	0.441	-0.265
-655.886	73.063	0.040	0.043
-654.872	58.512	0.111	-0.111
-653.857	-62.996	-0.243	-0.102
-652.843	248.062	-0.129	0.223
-651.828	3.399	0.214	-0.159
-650.814	59.728	-0.080	-0.081
-649.799	800.000	0.019	-0.080
-648.784	102.166	0.104	0.124
-647.770	431.277	-0.034	0.076
-646.755	-21.616	-0.201	0.125
-645.741	81.427	-0.165	0.182
-644.726	-22.799	0.130	-0.080
-643.711	-200.000	0.038	-0.364
-642.697	800.000	0.063	0.185
-641.682	-200.000	-0.011	0.265
-640.668	-200.000	0.001	-0.192
-639.653	88.617	0.198	0.224
-638.638	-200.000	-0.014	0.148
-637.624	11.252	-0.199	0.155
-636.609	0.056	0.150	0.109
-635.595	-63.620	0.285	0.119
-634.580	-200.000	0.007	0.055
-633.565	-55.569	-0.102	0.046
-632.551	249.901	-0.178	0.308
-631.536	6.569	-0.175	0.132
-630.522	-200.000	0.020	0.158
-629.507	606.135	0.109	-0.277
-628.492	81.575	-0.080	-0.089
-627.478	-41.653	0.246	-0.128
-626.463	800.000	-0.080	-0.247
-625.449	-10.341	0.177	-0.120
-624.434	113.752	-0.076	0.094
-623.419	-200.000	-0.032	-0.339
-622.405	6.874	0.172	-0.130
-621.390	31.984	0.204	0.179
-620.376	486.983	0.122	-0.284
-619.361	-3.478	0.319	-0.226
-618.346	257.033	-0.143	0.250
-617.332	-136.412	-0.201	0.024
-616.317	-200.000	-0.019	-0.092
-615.303	-200.000	-0.003	-0.311
-614.288	-129.592	0.184	0.026
-613.273	201.149	0.123	0.192
-612.259	-79.680	0.345	-0.118
-611.244	-89.921	0.170	-0.051
-610.230	450.657	0.086	0.192
-609.215	48.631	0.266	0.254
-608.201	-128.423	0.454	0.066
-607.186	-40.724	-0.559	-0.295
-606.171	145.811	0.102	-0.140
-605.157	-180.618	-0.143	-0.003
-604.142	-103.375	-0.171	0.041
-603.128	130.904	-0.093	-0.121
-602.113	706.364	0.047	0.125
-601.098	800.000	-0.046	0.182
-600.084	-140.376	-0.113	-0.012
-599.069	-42.590	-0.284	-0.147
-598.055	101.099	-0.234	0.276
-597.040	193.255	0.114	-0.176
-596.025	800.000	0.049	0.193
-595.011	47.507	0.243	0.230
-593.996	-155.517	-0.325	0.021
-592.982	7.826	0.133	-0.101
-591.967	565.782	0.061	-0.151
-590.952	227.266	0.042	-0.069
-589.938	-103.583	-0.238	-0.057
-588.923	800.000	-0.034	-0.141
-587.909	-48.384	-0.132	0.064
-586.894	-75.559	-0.064	0.023
-585.879	-13.067	-0.237	-0.156
-584.865	297.140	0.063	-0.117
-583.850	285.200	-0.038	0.069
-582.836	38.587	0.286	0.259
-581.821	-139.775	0.162	-0.017
-580.806	35.517	-0.239	-0.213
-579.792	-85.725	-0.473	0.149
-578.777	-26.571	0.191	-0.114
-577.763	407.678	-0.154	-0.331
-576.748	800.000	-0.046	-0.137
-575.733	323.049	-0.108	0.210
-574.719	-144.145	0.182	0.017
-573.704	-115.236	0.329	-0.063
-572.690	-20.991	-0.235	-0.146
-571.675	-49.705	-0.354	-0.171
-570.661	156.513	-0.182	0.256
-569.646	-102.546	0.068	0.017
-568.631	-200.000	0.029	0.233
-567.617	-93.407	-0.346	-0.098
-566.602	396.345	0.106	-0.224
-565.588	-134.109	0.312	0.039
-564.573	242.903	0.039	-0.066
-563.558	115.123	-0.110	0.136
-562.544	130.461	-0.093	-0.120
-561.529	-134.748	-0.264	-0.033
-560.515	-42.815	-0.289	-0.149
-559.500	-120.515	-0.425	0.073
-558.485	-76.342	-0.253	-0.090
-557.471	800.000	0.045	0.177
-556.456	246.394	-0.220	-0.376
-555.442	51.647	0.124	0.120
-554.427	800.000	-0.167	0.519
-553.412	-39.046	-0.402	0.215
-552.398	-126.671	-0.134	0.020
-551.383	-4.321	0.144	-0.101
-550.369	-131.810	0.241	-0.032
-549.354	-200.000	-0.043	0.203
-548.339	-200.000	-0.026	-0.129
-547.325	-61.199	0.060	-0.026
-546.310	-10.757	0.163	0.109
-545.296	75.724	-0.090	-0.097
-544.281	-55.984	-0.049	0.022
-543.266	-200.000	-0.057	0.256
-542.252	-64.867	-0.210	0.086
-541.237	180.376	0.204	-0.304
-540.223	-128.393	0.045	-0.007
-539.208	7.904	-0.081	-0.062
-538.193	-20.827	0.375	-0.233
-537.179	500.624	0.065	-0.153
-536.164	-84.441	-0.179	-0.057
-535.150	-57.668	0.281	0.125
-534.135	216.475	0.125	0.201
-533.121	-196.621	0.460	-0.003
-532.106	-148.301	0.072	0.006
-531.091	-107.036	0.082	0.018
-530.077	-139.227	-0.211	0.023
-529.062	-200.000	0.002	-0.023
-528.048	326.156	0.137	-0.266
-527.033	-44.442	0.359	-0.182
-526.018	23.468	0.137	-0.115
-525.004	282.966	0.048	-0.088
-523.989	163.008	-0.133	-0.190
-522.975	50.872	0.226	0.217
-521.960	-70.762	0.062	0.024
-520.945	118.991	0.282	-0.354
-519.931	-108.810	-0.242	-0.052
-518.916	37.876	-0.168	0.151
-517.902	4.345	0.282	0.209
-516.887	-89.513	0.157	-0.047
-515.872	139.247	0.252	0.336
-514.858	91.466	-0.157	-0.179
-513.843	-70.285	-0.122	0.047
-512.829	195.239	-0.191	-0.295
-511.814	-114.352	-0.272	0.053
-510.799	-200.000	0.001	-0.207
-509.785	327.803	0.102	-0.197
-508.770	111.583	-0.071	0.087
-507.756	77.110	-0.029	-0.032
-506.741	325.589	-0.133	0.257
-505.726	411.587	0.107	0.230
-504.712	-84.634	-0.163	0.052
-503.697	37.216	0.230	0.206
-502.683	-20.980	-0.061	0.038
-501.668	-57.247	0.199	-0.089
-500.653	-100.680	-0.144	0.036
-499.639	-200.000	0.042	-0.298
-498.624	48.032	-0.201	0.190
-497.610	264.794	-0.106	0.186
-496.595	-107.280	0.167	-0.037
-495.581	-49.666	-0.283	-0.136
-494.566	15.400	-0.161	-0.128
-493.551	-200.000	-0.001	0.050
-492.537	-112.809	0.519	-0.104
-491.522	60.305	0.215	0.215
-490.508	19.333	0.262	-0.213
-489.493	-2.456	-0.347	0.246
-488.478	147.635	-0.187	0.256
-487.464	-101.238	0.266	-0.066
-486.449	-40.041	0.259	-0.136
-485.435	-200.000	0.022	-0.209
-484.420	91.826	-0.131	-0.149
-483.405	-21.267	0.230	0.142
-482.391	-200.000	-0.021	0.207
-481.376	-156.562	-0.238	-0.015
-480.362	22.236	0.041	-0.034
-479.347	563.603	-0.115	0.281
-478.332	32.092	0.286	-0.250
-477.318	523.813	0.036	-0.086
-476.303	119.021	-0.029	-0.037
-475.289	-90.092	-0.070	0.021
-474.274	40.444	0.083	0.076
-473.259	-80.163	0.348	0.118
-472.245	-98.887	0.414	-0.107
-471.230	347.338	-0.060	0.120
-470.216	-200.000	0.023	-0.192
-469.201	800.000	0.111	-0.401
-468.186	-164.588	0.255	0.012
-467.172	800.000	0.088	-0.246
-466.157	572.652	0.017	0.041
-465.143	443.497	0.063	-0.139
-464.128	800.000	-0.042	-0.185
-463.113	-112.851	-0.123	0.025
-462.099	-74.724	0.190	0.069
-461.084	-112.846	-0.262	-0.053
-460.070	-14.323	-0.259	0.169
-459.055	40.413	0.066	-0.060
-458.040	-200.000	0.024	0.114
-457.026	-29.588	0.100	-0.058
-456.011	30.424	0.132	0.114
-454.997	10.561	0.156	-0.120
-453.982	-14.024	0.270	-0.176
-452.968	490.069	0.031	-0.072
-451.953	164.678	0.163	-0.233
-450.938	192.274	-0.043	-0.065
-449.924	321.478	-0.098	-0.189
-448.909	-69.593	-0.220	0.085
-447.895	-200.000	0.027	-0.134
-446.880	800.000	0.040	-0.160
-445.865	77.878	-0.130	-0.140
-444.851	65.119	-0.105	-0.108
-443.836	-26.314	-0.296	0.176
-442.822	-13.736	-0.381	-0.249
-441.807	3.454	-0.147	-0.108
-440.792	14.930	0.206	-0.163
-439.778	-71.093	0.303	-0.115
-438.763	113.838	-0.050	0.061
-437.749	-200.000	0.037	0.212
-436.734	126.847	0.082	0.105
-435.719	-26.819	-0.110	-0.065
-434.705	-85.864	0.319	-0.100
-433.690	-200.000	-0.050	-0.268
-432.676	-54.763	0.346	-0.158
-431.661	-92.745	-0.150	-0.043
-430.646	177.470	-0.183	0.270
-429.632	-34.643	0.194	-0.107
-428.617	-137.522	0.333	-0.038
-427.603	-86.097	0.164	-0.051
-426.588	-76.411	0.241	0.086
-425.573	87.423	0.146	0.163
-424.559	432.396	-0.125	0.275
-423.544	-200.000	-0.035	-0.176
-422.530	-44.567	0.393	0.198
-421.515	-175.231	-0.356	0.010
-420.500	18.371	-0.237	0.191
-419.486	-200.000	-0.008	-0.176
-418.471	-200.000	-0.024	0.112
-417.457	126.325	0.110	-0.141
-416.442	-16.121	-0.149	0.096
-415.428	800.000	0.016	-0.072
-414.413	-200.000	0.007	-0.118
-413.398	100.055	0.187	-0.219
-412.384	-0.178	-0.228	-0.163
-411.369	-79.952	-0.157	-0.053
-410.355	-200.000	0.009	0.066
-409.340	-71.434	0.184	0.069
-408.325	103.993	0.135	0.160
-407.311	-200.000	-0.009	0.076
-406.296	-39.580	-0.155	-0.082
-405.282	67.134	-0.231	0.237
-404.267	-182.739	-0.463	-0.008
-403.252	29.643	0.168	0.144
-402.238	161.027	0.096	0.135
-401.223	121.778	-0.272	-0.342
-400.209	102.932	-0.086	0.102
-399.194	-147.264	-0.242	0.021
-398.179	277.290	-0.075	-0.134
-397.165	-102.951	0.516	0.124
-396.150	800.000	0.107	0.345
-395.136	418.965	-0.098	0.212
-394.121	-108.965	0.039	0.008
-393.106	10.472	-0.182	0.140
-392.092	-79.949	-0.177	0.060
-391.077	90.866	0.119	0.135
-390.063	-33.900	0.239	0.133
-389.048	9.628	0.152	-0.116
-388.033	800.000	-0.114	0.332
-387.019	48.027	-0.272	0.256
-386.004	-77.406	-0.464	0.162
-384.990	-7.562	-0.061	-0.042
-383.975	800.000	-0.080	0.234
-382.960	-172.073	0.172	0.006
-381.946	258.691	-0.159	0.277
-380.931	608.499	0.102	-0.257
-379.917	-200.000	-0.007	0.385
-378.902	-87.986	-0.151	-0.046
-377.888	-27.900	0.005	-0.003
-376.873	-87.517	0.112	0.034
-375.858	58.963	-0.339	-0.337
-374.844	-11.788	-0.250	-0.166
-373.829	236.362	-0.089	-0.148
-372.815	800.000	0.040	0.160
-371.800	-176.510	-0.274	-0.007
-370.785	91.805	-0.117	-0.133
-369.771	-11.238	-0.120	-0.080
-368.756	-42.879	0.143	0.073
-367.742	179.402	-0.075	-0.111
-366.727	-108.471	-0.232	-0.050
-365.712	-200.000	0.067	-0.361
-364.698	-135.449	0.230	0.028
-363.683	-200.000	0.053	0.368
-362.669	-86.984	0.178	0.055
-361.654	-200.000	-0.010	0.105
-360.639	-158.034	-0.440	0.026
-359.625	-200.000	-0.068	-0.318
-358.610	107.704	-0.171	0.205
-357.596	-200.000	0.054	0.246
-356.581	174.771	-0.167	-0.243
-355.566	800.000	0.095	0.324
-354.552	207.002	0.107	-0.168
-353.537	-114.180	0.319	-0.062
-352.523	140.103	-0.216	0.287
-351.508	692.487	0.075	0.199
-350.493	-94.709	0.378	0.103
-349.479	-144.768	0.168	-0.016
-348.464	-82.676	-0.138	0.045
-347.450	-200.000	-0.070	-0.387
-346.435	-200.000	-0.021	0.196
-345.420	-5.186	0.102	-0.071
-344.406	-95.903	0.253	0.068
-343.391	-200.000	0.031	-0.215
-342.377	-200.000	-0.002	0.064
-341.362	-200.000	-0.054	0.493
-340.348	-123.026	-0.288	0.047
-339.333	-10.307	-0.077	-0.051
-338.318	-29.130	-0.117	0.067
-337.304	-121.012	-0.189	0.032
-336.289	-75.069	-0.145	0.052
-335.275	-200.000	-0.019	-0.085
-334.260	-17.454	-0.064	0.041
-333.245	800.000	-0.046	-0.200
-332.231	-25.614	0.263	0.156
-331.216	120.935	-0.143	0.179
-330.202	-200.000	0.024	-0.117
-329.187	-200.000	0.040	0.403
-328.172	36.279	-0.102	0.091
-327.158	152.965	0.127	0.175
-326.143	-31.667	-0.028	-0.016
-325.129	-43.616	-0.187	0.095
-324.114	-82.781	0.081	0.026
-323.099	-89.934	0.215	-0.063
-322.085	392.222	0.090	0.188
-321.070	800.000	0.147	-0.421
-320.056	116.924	-0.231	0.286
-319.041	800.000	-0.032	-0.136
-318.026	40.794	0.065	-0.059
-317.012	-37.122	-0.157	-0.085
-315.997	202.778	0.127	-0.197
-314.983	-59.567	0.402	-0.173
-313.968	153.907	-0.063	0.086
-312.953	-200.000	0.002	-0.079
-311.939	-141.623	-0.345	0.035
-310.924	14.548	0.151	-0.119
-309.910	85.015	-0.202	0.223
-308.895	0.078	-0.052	-0.037
-307.880	200.770	0.204	0.315
-306.866	-137.420	0.251	-0.029
-305.851	-200.000	-0.028	0.140
-304.837	66.622	-0.026	0.026
-303.822	261.617	-0.136	-0.237
-302.807	400.214	0.012	0.025
-301.793	476.096	-0.061	0.139
-300.778	-200.000	-0.033	-0.198
-299.764	-117.750	-0.178	0.032
-298.749	-24.693	0.330	0.197
-297.735	-128.785	-0.263	0.037
-296.720	-200.000	0.038	0.236
-295.705	-200.000	-0.034	0.217
-294.691	-79.241	0.304	-0.104
-293.676	229.843	0.115	-0.189
-292.662	-104.970	-0.418	-0.096
-291.647	800.000	0.049	-0.208
-290.632	-143.115	-0.246	-0.024
-289.618	171.553	0.091	0.131
-288.603	-200.000	0.030	0.184
-287.589	-200.000	-0.038	0.204
-286.574	800.000	-0.114	0.417
-285.559	-99.360	0.065	0.016
-284.545	-43.342	0.282	-0.143
-283.530	-94.018	-0.150	0.041
-282.516	-200.000	0.029	0.305
-281.501	-85.538	-0.314	0.098
-280.486	-51.552	-0.478	0.224
-279.472	89.001	0.062	-0.069
-278.457	149.959	-0.152	-0.207
-277.443	46.640	-0.105	-0.098
-276.428	372.037	0.061	-0.124
-275.413	12.468	0.105	0.081
-274.399	800.000	-0.048	0.169
-273.384	454.225	-0.182	0.404
-272.370	-5.716	-0.095	0.065
-271.355	88.371	-0.100	0.112
-270.340	-118.995	-0.277	-0.049
-269.326	-200.000	-0.004	0.091
-268.311	-30.674	0.241	-0.137
-267.297	-178.798	-0.312	-0.007
-266.282	800.000	0.064	0.202
-265.267	65.949	-0.180	0.183
-264.253	-0.578	0.034	-0.024
-263.238	-92.872	-0.094	-0.026
-262.224	160.340	0.259	-0.363
-261.209	-111.541	0.247	-0.050
-260.195	-64.074	-0.099	0.041
-259.180	47.430	0.212	-0.199
-258.165	87.409	0.151	-0.167
-257.151	51.477	-0.159	-0.151
-256.136	-18.739	0.291	0.182
-255.122	17.667	-0.214	-0.171
-254.107	-200.000	0.018	-0.089
-253.092	183.620	-0.100	0.148
-252.078	382.321	-0.070	-0.145
-251.063	12.761	0.292	-0.226
-250.049	-42.346	0.396	-0.203
-249.034	-200.000	-0.030	0.159
-248.019	-158.035	0.153	0.009
-247.005	68.038	0.152	0.156
-245.990	-137.691	-0.109	0.012
-244.976	-156.678	-0.330	-0.020
-243.961	-156.770	0.089	-0.006
-242.946	-122.928	0.253	0.041
-241.932	-128.988	-0.291	0.041
-240.917	-51.138	-0.230	-0.108
-239.903	800.000	0.045	-0.180
-238.888	708.909	0.087	-0.230
-237.873	800.000	0.089	-0.380
-236.859	643.631	-0.118	0.301
-235.844	800.000	0.057	0.247
-234.830	35.352	0.151	0.133
-233.815	7.068	-0.159	0.119
-232.800	476.137	-0.090	0.205
-231.786	85.614	-0.188	0.207
-230.771	800.000	0.080	0.232
-229.757	-200.000	-0.012	0.435
-228.742	-200.000	0.028	-0.381
-227.727	21.341	-0.044	-0.036
-226.713	-97.673	-0.254	0.066
-225.698	-200.000	-0.005	-0.287
-224.684	-104.570	0.197	-0.046
-223.669	-31.698	-0.094	-0.053
-222.655	800.000	-0.046	-0.162
-221.640	-140.277	-0.193	0.020
-220.625	7.680	-0.053	-0.040
-219.611	85.216	0.404	0.444
-218.596	800.000	0.034	0.095
-217.582	771.597	0.133	0.363
-216.567	93.701	0.066	-0.075
-215.552	291.368	0.018	-0.034
-214.538	-40.656	-0.127	-0.066
-213.523	394.381	-0.121	0.252
-212.509	59.855	0.054	0.053
-211.494	-41.154	0.257	0.133
-210.479	30.753	0.161	-0.138
-209.465	-70.055	0.261	-0.100
-208.450	-73.730	-0.011	0.004
-207.436	800.000	-0.057	0.185
-206.421	172.368	-0.158	-0.228
-205.406	-200.000	0.010	0.228
-204.392	8.281	-0.279	0.210
-203.377	-200.000	-0.030	-0.294
-202.363	13.195	0.059	0.046
-201.348	-200.000	0.023	-0.122
-200.333	-70.126	0.423	-0.161
-199.319	-200.000	0.016	0.126
-198.304	-17.156	0.079	-0.050
-197.290	-52.542	0.142	-0.066
-196.275	-105.656	0.333	0.075
-195.260	-23.797	-0.117	-0.070
-194.246	423.128	-0.083	0.179
-193.231	109.045	0.131	0.157
-192.217	-85.887	0.297	0.092
-191.202	-92.582	-0.256	-0.072
-190.187	-117.461	-0.124	0.023
-189.173	-12.207	0.219	-0.143
-188.158	-106.597	0.518	-0.115
-187.144	30.875	-0.252	-0.216
-186.129	-125.535	0.271	-0.041
-185.114	-46.432	-0.107	-0.053
-184.100	-94.038	-0.092	-0.025
-183.085	212.486	-0.097	0.153
-182.071	-200.000	0.045	-0.229
-181.056	-200.000	0.016	-0.124
-180.042	-188.322	-0.283	-0.004
-179.027	53.270	0.172	0.165
-178.012	-200.000	0.010	0.259
-176.998	-101.931	-0.342	0.083
-175.983	443.909	-0.021	-0.047
-174.969	22.330	-0.278	-0.227
-173.954	-200.000	-0.018	-0.290
-172.939	369.483	-0.050	-0.102
-171.925	41.586	0.176	-0.159
-170.910	-141.966	0.256	-0.026
-169.896	132.315	-0.195	-0.251
-168.881	-3.101	0.068	-0.047
-167.866	800.000	0.054	0.185
-166.852	800.000	-0.043	0.139
-165.837	-4.370	0.055	-0.038
-164.823	800.000	0.071	-0.275
-163.808	-66.263	0.152	0.060
-162.793	800.000	-0.099	-0.274
-161.779	120.583	0.226	-0.281
-160.764	145.236	-0.065	-0.087
-159.750	-124.900	0.225	0.035
-158.735	164.225	0.117	-0.165
-157.720	-200.000	0.023	-0.156
-156.706	75.480	-0.199	0.210
-155.691	656.142	-0.135	-0.347
-154.677	-52.464	-0.095	-0.044
-153.662	489.523	0.121	-0.278
-152.647	800.000	-0.094	-0.286
-151.633	286.058	-0.051	0.091
-150.618	-155.328	-0.204	-0.013
-149.604	-3.565	0.157	-0.109
-148.589	-73.325	0.184	-0.067
-147.574	-200.000	-0.012	-0.060
-146.560	248.241	-0.065	-0.110
-145.545	-93.707	0.275	0.076
-144.531	69.208	0.038	-0.039
-143.516	-168.284	0.089	-0.003
-142.502	-186.011	-0.351	0.005
-141.487	-200.000	-0.023	0.156
-140.472	-9.110	-0.114	-0.076
-139.458	-103.897	-0.192	-0.045
-138.443	800.000	-0.057	0.185
-137.429	271.053	0.135	-0.237
-136.414	800.000	-0.104	0.302
-135.399	58.802	0.191	0.188
-134.385	-96.089	0.179	-0.048
-133.370	-85.980	0.251	-0.077
-132.356	-172.903	-0.487	0.015
-131.341	-200.000	0.053	-0.265
-130.326	159.248	-0.240	-0.333
-129.312	272.037	0.042	-0.074
-128.297	-40.979	0.127	0.066
-127.283	108.632	-0.172	0.206
-126.268	208.272	-0.077	0.120
-125.253	-142.300	0.032	-0.003
-124.239	-109.938	0.224	0.047
-123.224	-100.692	0.276	-0.068
-122.210	-200.000	-0.039	-0.260
-121.195	-182.038	0.307	-0.006
-120.180	-72.734	0.266	-0.098
-119.166	-116.656	-0.283	-0.052
-118.151	182.754	0.045	0.066
-117.137	-7.295	-0.196	-0.132
-116.122	-95.961	-0.293	-0.078
-115.107	-19.350	0.322	-0.199
-114.093	-200.000	-0.034	-0.272
-113.078	303.934	-0.030	0.055
-112.064	11.514	0.168	-0.128
-111.049	358.889	-0.124	0.248
-110.034	-119.876	0.487	0.084
-109.020	-79.993	-0.292	-0.098
-108.005	-83.990	-0.032	-0.010
-106.991	88.764	0.108	0.120
-105.976	-112.818	0.425	-0.084
-104.962	48.739	-0.135	-0.127
-103.947	57.636	-0.184	0.180
-102.932	-57.481	0.070	0.031
-101.918	-200.000	0.050	-0.256
-100.903	-34.289	0.213	-0.117
-99.889	800.000	-0.056	-0.168
-98.874	-78.223	-0.194	0.067
-97.859	-200.000	-0.003	0.272
-96.845	192.040	0.112	-0.169
-95.830	-112.838	-0.180	0.036
-94.816	800.000	0.024	0.105
-93.801	-200.000	0.111	-0.509
-92.786	800.000	-0.029	-0.103
-91.772	-138.213	0.450	-0.050
-90.757	135.015	0.084	-0.109
-89.743	108.472	-0.035	-0.041
-88.728	-200.000	0.011	-0.462
-87.713	-200.000	-0.034	-0.215
-86.699	133.601	0.120	0.155
-85.684	-200.000	-0.191	-0.001
-84.670	-56.205	0.255	-0.113
-83.655	46.471	0.077	0.071
-82.640	-1.585	-0.349	0.245
-81.626	-200.000	0.036	-0.182
-80.611	415.011	0.045	-0.095
-79.597	74.786	0.264	-0.277
-78.582	-200.000	-0.004	0.057
-77.567	219.015	0.199	0.317
-76.553	63.551	0.118	0.118
-75.538	800.000	0.069	-0.233
-74.524	-82.623	-0.030	0.010
-73.509	311.997	-0.135	0.252
-72.494	-200.000	-0.063	0.394
-71.480	37.780	0.253	0.223
-70.465	-200.000	0.121	0.567
-69.451	-108.500	0.331	-0.071
-68.436	-181.742	-0.271	-0.005
-67.422	666.640	-0.067	0.173
-66.407	-90.795	-0.395	-0.114
-65.392	800.000	0.035	-0.147
-64.378	-3.163	0.262	-0.182
-63.363	-60.185	0.147	-0.062
-62.349	-34.786	0.269	-0.146
-61.334	119.004	-0.757	-0.931
-60.319	-200.000	0.066	0.332
-59.305	-200.000	0.044	-0.608
-58.290	-200.000	0.071	1.069
-57.276	800.000	0.531	1.712
-56.261	-200.000	75.460	522.294
-55.246	546.148	1310.171	3118.709
-54.232	144.844	2560.660	3407.594
-53.217	117.340	2263.602	2770.540
-52.203	52.604	1780.706	1693.033
-51.188	45.120	1575.576	1445.235
-50.173	42.274	1545.897	1398.149
-49.159	57.911	1582.563	1541.653
-48.144	64.317	1602.592	1606.163
-47.130	45.460	1565.284	1437.963
-46.115	41.903	1550.249	1399.269
-45.100	41.747	1546.874	1395.079
-44.086	41.607	1545.508	1392.813
-43.071	41.545	1543.797	1390.786
-42.057	41.379	1541.939	1387.900
-41.042	41.538	1539.941	1387.155
-40.027	41.462	1538.826	1385.566
-39.013	41.541	1537.248	1384.639
-37.998	41.544	1536.052	1383.524
-36.984	41.293	1535.830	1381.530
-35.969	41.480	1533.969	1381.094
-34.954	41.562	1532.328	1380.131
-33.940	41.526	1530.779	1378.431
-32.925	41.515	1528.840	1376.554
-31.911	41.576	1527.775	1375.966
-30.896	41.573	1526.247	1374.510
-29.881	41.549	1525.065	1373.231
-28.867	41.650	1523.751	1372.687
-27.852	41.597	1522.363	1371.017
-26.838	41.588	1520.655	1369.358
-25.823	41.522	1519.041	1367.403
-24.809	41.536	1517.659	1366.196
-23.794	41.518	1516.029	1364.551
-22.779	41.594	1514.613	1363.743
-21.765	41.653	1513.186	1362.807
-20.750	41.588	1512.363	1361.567
-19.736	41.545	1511.310	1360.274
-18.721	41.497	1510.146	1358.846
-17.706	41.498	1508.751	1357.542
-16.692	41.487	1507.465	1356.255
-15.677	41.457	1506.691	1355.302
-14.663	41.431	1505.487	1353.991
-13.648	41.358	1504.737	1352.764
-12.633	41.395	1504.024	1352.324
-11.619	41.445	1502.812	1351.517
-10.604	41.463	1502.100	1350.947
-9.590	41.367	1500.942	1349.201
-8.575	41.445	1500.330	1349.127
-7.560	41.501	1499.178	1348.414
-6.546	41.518	1498.474	1347.841
-5.531	41.450	1497.608	1346.550
-4.517	41.399	1496.956	1345.564
-3.502	41.453	1495.392	1344.469
-2.487	41.495	1494.151	1343.585
-1.473	41.471	1493.673	1342.942
-0.458	41.462	1492.384	1341.671
0.556	39.779	1483.602	1333.645
1.571	37.415	1456.295	1293.277
2.586	33.848	1393.964	1215.044
3.600	31.992	1310.251	1130.804
4.615	30.095	1261.724	1077.805
5.629	24.998	1201.503	997.959
6.644	12.153	1106.976	852.992
7.659	2.013	1057.980	764.561
8.673	0.462	1051.022	751.739
9.688	0.242	1047.967	748.396
10.702	0.110	1046.771	746.818
11.717	0.067	1045.313	745.502
12.731	4.234	1051.107	770.301
13.746	15.983	1068.383	841.922
14.761	23.071	1076.805	884.053
15.775	22.781	1074.967	881.016
16.790	22.372	1073.821	877.958
17.804	22.248	1072.916	876.523
18.819	21.998	1072.603	874.948
19.834	22.083	1071.911	874.726
20.848	22.158	1071.262	874.496
21.863	22.188	1070.504	873.948
22.877	22.185	1070.354	873.731
23.892	22.150	1069.678	872.928
24.907	22.155	1068.703	872.078
25.921	22.054	1068.285	871.163
26.936	22.151	1067.537	870.955
27.950	22.177	1066.324	870.017
28.965	22.206	1064.998	869.001
29.980	22.025	1063.339	866.676
30.994	22.036	1061.749	865.359
32.009	22.145	1061.350	865.493
33.023	22.377	1060.273	865.682
34.038	21.986	1059.662	863.183
35.053	21.964	1058.721	862.230
36.067	22.068	1058.557	862.533
37.082	22.077	1057.511	861.646
38.096	22.183	1057.018	861.689
39.111	22.409	1055.847	861.768
40.126	22.478	1054.940	861.289
41.140	22.342	1053.604	859.458
42.155	22.066	1052.361	857.018
43.169	21.631	1051.432	854.063
44.184	21.663	1050.552	853.430
45.199	21.843	1049.132	853.077
46.213	21.668	1048.532	851.662
47.228	21.782	1047.177	851.042
48.242	21.824	1046.847	850.901
49.257	22.147	1045.634	851.403
50.271	22.045	1045.181	850.465
51.286	22.322	1044.062	850.823
52.301	22.226	1043.581	849.891
53.315	22.256	1042.721	849.258
54.330	22.116	1042.251	848.125
55.344	22.053	1041.256	846.938
56.359	22.209	1040.020	846.611
57.374	22.212	1039.334	845.990
58.388	22.027	1038.148	844.062
59.403	21.850	1037.913	842.945
60.417	21.963	1036.766	842.483
61.432	21.671	1036.609	840.878
62.447	21.809	1035.634	840.674
63.461	21.936	1034.887	840.599
64.476	22.044	1034.358	840.615
65.490	22.032	1032.985	839.368
66.505	21.714	1032.205	837.139
67.520	21.817	1031.338	836.853
68.534	21.929	1030.610	836.723
69.549	21.813	1029.447	835.152
70.563	21.509	1028.434	832.811
71.578	21.390	1027.658	831.541
72.593	21.550	1026.717	831.466
73.607	21.361	1025.352	829.392
74.622	21.301	1024.767	828.560
75.636	21.632	1024.200	829.597
76.651	21.750	1023.222	829.290
77.666	21.649	1022.762	828.365
78.680	21.582	1021.822	827.214
79.695	21.564	1021.129	826.495
80.709	21.729	1020.301	826.528
81.724	21.736	1019.912	826.173
82.739	21.656	1018.921	824.924
83.753	21.804	1017.694	824.554
84.768	22.006	1017.007	824.871
85.782	22.323	1016.285	825.700
86.797	22.474	1015.745	825.898
87.812	22.424	1014.623	824.676
88.826	22.371	1013.683	823.593
89.841	22.313	1013.186	822.847
90.855	22.307	1012.731	822.374
91.870	22.324	1011.759	821.592
92.884	22.306	1010.811	820.666
93.899	22.335	1009.864	819.960
94.914	22.102	1008.786	817.928
95.928	22.300	1008.318	818.398
96.943	22.434	1007.450	818.243
97.957	21.961	1006.718	815.379
98.972	21.842	1005.396	813.680
99.987	21.658	1004.073	811.686
101.001	21.728	1003.512	811.487
102.016	21.980	1003.171	812.307
103.030	22.038	1002.674	812.102
104.045	22.037	1001.125	810.767
105.060	21.903	999.815	809.017
106.074	21.754	998.549	807.236
107.089	21.791	997.930	806.835
108.103	22.042	997.802	807.814
109.118	22.231	996.784	807.787
110.133	21.852	995.530	804.960
111.147	21.871	994.422	804.081
112.162	21.690	993.543	802.471
113.176	21.551	992.464	800.889
114.191	21.759	991.352	800.875
115.206	21.748	990.762	800.277
116.220	21.589	989.508	798.466
117.235	21.413	988.389	796.691
118.249	21.604	987.882	797.083
119.264	21.622	987.386	796.692
120.279	21.437	986.696	795.223
121.293	21.560	985.545	794.784
122.308	21.561	985.234	794.466
123.322	21.611	984.204	793.794
124.337	21.604	982.923	792.659
125.352	21.450	981.903	791.070
126.366	21.103	980.222	788.081
127.381	20.849	978.631	785.583
128.395	21.273	978.497	787.318
129.410	21.922	978.342	790.047
130.424	22.107	977.554	790.173
131.439	22.203	976.298	789.521
132.454	21.958	975.784	787.932
133.468	21.966	975.173	787.408
134.483	21.982	974.368	786.758
135.497	21.993	973.454	786.001
136.512	22.279	973.029	786.866
137.527	22.298	972.409	786.383
138.541	22.291	971.301	785.386
139.556	22.319	970.755	784.997
140.570	22.392	969.593	784.316
141.585	22.308	969.088	783.465
142.600	22.528	967.832	783.358
143.614	22.395	966.895	781.938
144.629	22.406	966.555	781.641
145.643	22.656	965.788	782.063
146.658	22.465	964.691	780.258
147.673	22.315	963.703	778.729
148.687	22.332	962.428	777.701
149.702	22.184	961.392	776.143
150.716	22.008	960.590	774.652
151.731	22.059	959.327	773.790
152.746	22.066	958.708	773.253
153.760	22.188	958.272	773.370
154.775	22.404	957.325	773.486
155.789	22.527	956.536	773.319
156.804	22.351	955.885	771.951
157.819	22.351	954.567	770.820
158.833	22.411	953.910	770.482
159.848	22.385	952.960	769.533
160.862	22.604	952.196	769.807
161.877	22.388	951.309	768.076
162.892	22.415	950.571	767.532
163.906	22.394	949.532	766.534
164.921	22.437	948.570	765.875
165.935	22.330	947.473	764.460
166.950	22.307	946.610	763.593
167.964	22.408	945.637	763.181
168.979	22.248	944.300	761.340
169.994	22.380	943.198	760.953
171.008	22.113	942.496	759.170
172.023	22.231	941.734	758.995
173.037	22.536	940.699	759.408
174.052	22.232	940.064	757.522
175.067	21.982	939.205	755.685
176.081	22.022	938.207	754.986
177.096	22.229	937.066	754.892
178.110	22.197	936.167	753.964
179.125	22.135	934.864	752.581
180.140	21.756	934.172	750.337
181.154	21.675	934.015	749.797
182.169	21.847	933.516	750.067
183.183	22.204	932.797	750.947
184.198	22.255	932.579	750.923
185.213	22.229	932.176	750.421
186.227	22.347	931.288	750.142
187.242	22.402	930.302	749.514
188.256	22.421	929.811	749.136
189.271	22.466	928.666	748.338
190.286	22.365	928.228	747.490
191.300	22.341	927.309	746.579
192.315	21.987	925.541	743.594
193.329	21.060	924.441	738.721
194.344	20.578	923.299	735.700
195.359	21.328	923.368	738.865
196.373	22.042	923.873	742.223
197.388	22.342	923.445	743.079
198.402	22.258	922.665	742.031
199.417	22.299	922.181	741.749
200.432	22.246	921.780	741.139
201.446	22.212	921.092	740.374
202.461	21.895	920.043	738.136
203.475	21.965	919.734	738.115
204.490	21.578	918.468	735.411
205.504	20.437	916.301	728.826
206.519	20.740	916.130	729.894
207.534	21.750	916.531	734.384
208.548	21.851	916.028	734.336
209.563	22.089	916.178	735.391
210.577	22.272	914.921	735.081
211.592	21.931	914.163	732.985
212.607	22.307	914.146	734.475
213.621	22.502	913.915	735.038
214.636	22.343	913.200	733.737
215.650	22.308	912.565	733.015
216.665	22.364	911.748	732.526
217.680	22.371	911.321	732.146
218.694	22.578	910.432	732.226
219.709	22.216	909.580	729.977
220.723	21.743	909.005	727.486
221.738	22.087	908.097	728.121
222.753	22.235	907.831	728.456
223.767	22.179	907.075	727.553
224.782	22.222	906.314	727.055
225.796	22.414	906.258	727.741
226.811	22.535	905.645	727.686
227.826	22.254	904.078	725.204
228.840	21.375	902.665	720.387
229.855	21.374	901.591	719.460
230.869	21.647	901.660	720.574
231.884	21.164	900.693	717.753
232.899	21.371	899.458	717.555
233.913	22.066	900.228	720.960
234.928	22.286	899.893	721.527
235.942	22.202	898.861	720.295
236.957	22.206	898.416	719.891
237.972	22.049	897.306	718.296
238.986	21.878	896.580	716.953
240.001	21.924	896.589	717.085
241.015	21.908	895.527	716.106
242.030	22.186	895.075	716.814
243.045	22.140	894.633	716.208
244.059	22.265	894.273	716.367
245.074	22.433	893.682	716.514
246.088	22.447	893.118	716.054
247.103	21.942	892.115	713.136
248.117	21.878	891.430	712.266
249.132	22.350	891.643	714.289
250.147	22.914	891.461	716.370
251.161	23.078	890.619	716.294
252.176	23.044	890.143	715.708
253.190	23.106	889.230	715.161
254.205	23.237	888.534	715.068
255.220	23.353	888.807	715.692
256.234	23.288	887.794	714.553
257.249	23.233	887.469	714.005
258.263	23.082	886.469	712.528
259.278	23.022	885.947	711.803
260.293	23.074	885.439	711.541
261.307	23.338	884.890	712.100
262.322	23.081	884.377	710.591
263.336	23.016	883.460	709.531
264.351	22.578	882.318	706.796
265.366	21.428	880.096	700.349
266.380	21.077	878.884	697.920
267.395	21.954	879.396	701.774
268.409	22.723	879.689	705.019
269.424	22.744	878.871	704.386
270.439	22.863	878.280	704.325
271.453	22.991	877.962	704.515
272.468	22.948	877.273	703.730
273.482	23.131	876.818	704.030
274.497	23.238	876.667	704.274
275.512	23.099	875.460	702.691
276.526	22.616	874.130	699.645
277.541	22.670	873.700	699.452
278.555	23.089	873.270	700.707
279.570	22.922	872.661	699.495
280.585	22.661	872.053	697.910
281.599	22.719	871.333	697.502
282.614	22.958	870.961	698.090
283.628	22.409	869.989	695.081
284.643	21.978	869.275	692.747
285.657	22.523	869.105	694.700
286.672	22.454	868.454	693.848
287.687	22.019	867.300	691.150
288.701	22.249	867.173	691.894
289.716	22.529	867.051	692.836
290.730	22.212	866.063	690.740
291.745	22.233	865.109	690.000
292.760	22.090	864.220	688.671
293.774	22.063	863.368	687.823
294.789	22.667	864.801	691.276
295.803	23.475	864.213	693.905
296.818	23.577	863.929	694.017
297.833	23.649	863.054	693.535
298.847	23.329	862.445	691.732
299.862	22.865	861.401	689.025
300.876	23.293	860.859	690.199
301.891	23.433	860.220	690.169
302.906	23.471	860.137	690.189
303.920	23.131	858.711	687.664
304.935	22.944	857.982	686.294
305.949	23.331	857.882	687.655
306.964	23.365	857.724	687.600
307.979	23.346	856.330	686.346
308.993	23.273	856.317	685.992
310.008	23.622	855.887	686.938
311.022	23.761	855.642	687.218
312.037	23.445	855.120	685.517
313.052	23.256	854.326	684.092
314.066	23.160	853.493	682.991
315.081	22.607	852.086	679.673
316.095	21.826	851.129	675.842
317.110	22.310	851.116	677.634
318.125	22.869	851.662	680.166
319.139	22.856	850.414	679.056
320.154	21.668	848.693	673.062
321.168	21.069	847.825	670.012
322.183	21.735	847.815	672.505
323.197	22.578	848.445	676.180
324.212	22.909	848.039	677.064
325.227	23.060	847.605	677.235
326.241	23.238	846.938	677.326
327.256	23.219	846.189	676.592
328.270	23.238	845.344	675.933
329.285	23.048	844.933	674.816
330.300	22.918	844.302	673.756
331.314	22.710	843.415	672.198
332.329	22.716	843.030	671.853
333.343	23.242	842.423	673.314
334.358	23.231	842.479	673.255
335.373	23.288	841.748	672.826
336.387	23.480	841.170	673.036
337.402	23.589	840.809	673.102
338.416	23.812	840.304	673.481
339.431	23.868	839.705	673.154
340.446	23.902	839.081	672.722
341.460	23.992	839.192	673.092
342.475	23.782	838.720	671.861
343.489	23.670	837.491	670.395
344.504	23.647	837.436	670.203
345.519	23.951	836.742	670.736
346.533	24.230	836.265	671.343
347.548	24.147	836.243	670.954
348.562	24.285	835.343	670.692
349.577	24.154	834.675	669.607
350.592	24.227	833.900	669.200
351.606	24.031	833.785	668.311
352.621	24.166	833.280	668.354
353.635	24.183	832.278	667.553
354.650	23.869	832.082	666.162
355.665	23.592	831.100	664.279
356.679	22.554	829.768	659.276
357.694	22.448	829.392	658.521
358.708	23.096	829.197	660.730
359.723	23.065	828.321	659.857
360.738	23.184	828.443	660.339
361.752	23.735	828.124	662.083
362.767	23.802	827.848	662.052
363.781	24.041	827.632	662.711
364.796	24.387	827.849	664.116
365.810	24.465	827.008	663.674
366.825	24.632	826.064	663.476
367.840	24.583	826.206	663.349
368.854	24.314	825.595	661.801
369.869	23.967	824.939	659.929
370.883	23.763	824.048	658.402
371.898	23.896	823.736	658.589
372.913	23.844	822.668	657.484
373.927	23.695	822.244	656.537
374.942	24.027	821.645	657.225
375.956	23.925	821.096	656.353
376.971	24.049	820.954	656.637
377.986	24.298	820.177	656.878
379.000	24.359	819.927	656.842
380.015	24.435	819.225	656.502
381.029	24.207	818.581	655.090
382.044	24.174	818.035	654.472
383.059	24.402	817.358	654.708
384.073	24.503	816.699	654.493
385.088	24.401	816.538	653.932
386.102	24.563	815.802	653.879
387.117	24.330	814.977	652.307
388.132	24.192	814.344	651.241
389.146	24.128	813.713	650.442
390.161	23.487	812.859	647.364
391.175	23.495	812.672	647.187
392.190	24.114	812.490	649.240
393.205	24.169	812.347	649.269
394.219	23.269	810.684	644.610
395.234	21.608	808.167	636.519
396.248	20.961	806.976	633.175
397.263	21.860	807.732	636.978
398.278	23.664	809.134	644.583
399.292	24.089	809.442	646.315
400.307	23.972	808.471	645.057
401.321	23.815	807.775	643.878
402.336	23.933	807.711	644.196
403.350	23.981	807.842	644.418
404.365	24.612	807.469	646.349
405.380	24.837	807.387	647.037
406.394	25.230	806.860	647.979
407.409	25.247	806.683	647.840
408.423	25.267	805.968	647.280
409.438	25.084	805.654	646.311
410.453	25.167	805.073	646.087
411.467	25.239	805.023	646.247
412.482	25.113	804.264	645.129
413.496	25.058	803.536	644.291
414.511	25.235	803.192	644.592
415.526	25.176	802.719	643.944
416.540	25.173	802.682	643.848
417.555	24.998	802.204	642.780
418.569	24.848	801.313	641.470
419.584	24.732	800.775	640.569
420.599	24.820	800.583	640.671
421.613	91.033	1255.137	1359.495
422.628	77.840	1321.357	1359.643
