DTS Sentinel unit serial number:	SN413079Multiplexer serial number:	ORYXHardware model number:	OX4-SRSoftware version number:	ORYX F/W v4.00 Oryx Data Collector v3.7.2.0data status	okinstallation	princeton_trtdifferential loss correction	single-endedforward channel	channel 3reverse channel	N/Adate	2019/09/11time	03:46:11forward acquisition time	60.00reverse acquisition time	0.00gamma	496.2192k internal	0.2331k external	0.2331temperature offset calibration	0.9907default loss term (dB/km)	0.3790temperature slope calibration	1.0000multiplexer offset coefficient	1.0000multiplexer slope coefficient	1.0000fibre end	0.00T internal ref (°C)	29.56T ext. ref 1 (°C)	-0.29T ext. ref 2 (°C)	23.78length (m)	temperature (°C)	Stokes	anti-Stokes-747.200	602.510	0.061	-0.152
-746.185	514.281	-0.011	-0.025
-745.171	272.355	-0.027	-0.049
-744.156	69.021	0.148	0.153
-743.142	-200.000	0.001	0.230
-742.127	79.923	-0.016	0.017
-741.112	297.381	0.082	-0.152
-740.098	-26.370	-0.168	-0.099
-739.083	300.403	0.144	-0.267
-738.069	-41.882	0.317	-0.164
-737.054	-128.357	-0.282	-0.040
-736.039	-27.487	-0.367	-0.215
-735.025	800.000	0.105	0.310
-734.010	-135.036	0.174	0.021
-732.996	-111.130	-0.037	-0.008
-731.981	-16.775	-0.153	-0.097
-730.966	44.407	0.157	0.145
-729.952	236.209	0.051	0.085
-728.937	-55.390	-0.336	0.152
-727.923	-108.535	-0.180	-0.039
-726.908	63.552	-0.089	-0.090
-725.894	-59.682	0.145	0.062
-724.879	-200.000	0.025	0.253
-723.864	4.228	-0.117	0.086
-722.850	800.000	0.104	-0.350
-721.835	131.282	-0.208	-0.269
-720.821	-15.290	0.108	-0.070
-719.806	29.027	0.247	-0.210
-718.791	-6.951	-0.113	-0.077
-717.777	-17.047	-0.329	-0.209
-716.762	800.000	0.075	0.329
-715.748	-65.212	0.138	0.056
-714.733	68.713	-0.321	0.331
-713.718	-165.149	-0.241	0.011
-712.704	-122.260	-0.288	-0.047
-711.689	-200.000	-0.004	0.150
-710.675	15.016	-0.076	0.060
-709.660	51.074	0.342	0.326
-708.645	156.832	0.156	-0.216
-707.631	800.000	-0.062	0.245
-706.616	31.756	0.237	-0.205
-705.602	-19.781	-0.158	0.098
-704.587	425.703	-0.099	-0.215
-703.572	-36.041	0.228	-0.124
-702.558	-32.180	-0.097	0.055
-701.543	-49.126	-0.137	0.066
-700.529	-128.513	0.323	-0.046
-699.514	-79.423	-0.194	0.066
-698.499	9.436	0.113	0.086
-697.485	-91.046	-0.124	0.036
-696.470	255.695	-0.183	-0.315
-695.456	78.058	0.110	-0.118
-694.441	-56.167	-0.251	-0.112
-693.426	33.347	-0.055	-0.048
-692.412	-200.000	-0.012	0.222
-691.397	-51.844	0.368	-0.172
-690.383	-200.000	-0.008	-0.137
-689.368	-81.793	0.218	-0.072
-688.354	176.735	-0.063	-0.093
-687.339	-200.000	0.010	0.116
-686.324	141.821	-0.021	0.028
-685.310	-172.391	-0.151	0.005
-684.295	313.859	-0.175	-0.331
-683.281	182.243	-0.075	0.111
-682.266	-200.000	-0.061	0.444
-681.251	260.167	0.163	-0.283
-680.237	-121.645	0.198	-0.033
-679.222	57.439	-0.315	0.309
-678.208	-189.438	-0.051	0.001
-677.193	-128.569	0.304	0.043
-676.178	76.325	-0.224	-0.238
-675.164	90.163	-0.222	-0.249
-674.149	361.599	-0.029	-0.059
-673.135	-80.854	-0.033	-0.011
-672.120	133.581	-0.066	0.086
-671.105	26.233	-0.316	-0.265
-670.091	496.253	-0.057	0.131
-669.076	-64.839	0.078	-0.032
-668.062	-200.000	-0.009	-0.074
-667.047	-200.000	-0.017	0.236
-666.032	157.396	-0.094	-0.130
-665.018	156.388	-0.063	0.087
-664.003	383.092	0.038	-0.079
-662.989	-200.000	-0.002	-0.293
-661.974	-120.529	0.147	0.025
-660.959	-42.701	-0.131	-0.067
-659.945	-100.373	-0.476	0.118
-658.930	-118.306	-0.087	0.015
-657.916	-114.132	-0.070	-0.014
-656.901	-95.153	0.267	-0.072
-655.886	800.000	-0.067	-0.214
-654.872	-8.857	0.089	-0.060
-653.857	-102.699	-0.185	-0.044
-652.843	800.000	-0.089	0.312
-651.828	2.626	0.197	0.144
-650.814	-105.049	0.166	0.038
-649.799	98.761	-0.133	-0.154
-648.784	370.749	-0.049	-0.100
-647.770	-200.000	0.047	-0.244
-646.755	-200.000	-0.002	0.086
-645.741	237.796	0.152	-0.253
-644.726	-73.931	-0.037	-0.013
-643.711	445.576	0.044	-0.098
-642.697	-74.562	0.207	0.075
-641.682	-25.465	0.193	0.115
-640.668	-98.924	-0.215	-0.055
-639.653	-40.295	-0.259	0.135
-638.638	800.000	0.092	0.348
-637.624	-177.614	-0.262	-0.006
-636.609	-133.366	-0.088	-0.011
-635.595	-10.463	0.164	-0.109
-634.580	212.626	-0.141	0.223
-633.565	68.691	0.210	0.216
-632.551	-70.223	-0.110	-0.042
-631.536	9.079	-0.236	-0.179
-630.522	800.000	-0.038	-0.150
-629.507	-200.000	-0.026	0.174
-628.492	-102.561	0.236	-0.056
-627.478	-200.000	-0.026	-0.360
-626.463	350.474	-0.117	-0.233
-625.449	-131.876	-0.043	0.006
-624.434	64.116	0.061	-0.061
-623.419	345.847	0.132	-0.260
-622.405	348.286	-0.066	0.131
-621.390	374.521	0.068	0.140
-620.376	-200.000	-0.026	-0.199
-619.361	-131.272	0.305	-0.040
-618.346	800.000	-0.103	0.339
-617.332	-128.655	-0.149	0.021
-616.317	800.000	0.125	-0.351
-615.303	108.541	-0.168	-0.201
-614.288	435.163	-0.060	0.131
-613.273	800.000	0.097	-0.269
-612.259	31.856	-0.214	-0.184
-611.244	800.000	0.092	0.310
-610.230	21.724	-0.096	-0.078
-609.215	156.897	-0.060	0.083
-608.201	24.231	-0.095	-0.079
-607.186	-200.000	0.052	-0.309
-606.171	106.375	-0.099	-0.118
-605.157	-120.797	0.359	0.061
-604.142	-200.000	-0.002	-0.222
-603.128	-79.898	-0.249	0.084
-602.113	800.000	-0.164	0.609
-601.098	-45.127	0.214	0.107
-600.084	266.087	-0.072	-0.125
-599.069	-200.000	-0.035	-0.173
-598.055	540.847	0.110	0.262
-597.040	-200.000	0.002	0.140
-596.025	9.634	-0.230	-0.175
-595.011	54.807	0.375	0.362
-593.996	-26.193	0.152	0.090
-592.982	-96.853	-0.617	-0.162
-591.967	103.892	0.132	-0.155
-590.952	-76.097	-0.298	-0.105
-589.938	490.742	-0.040	0.093
-588.923	-81.384	0.130	0.043
-587.909	-46.275	-0.320	-0.157
-586.894	-138.563	-0.415	-0.046
-585.879	25.944	0.118	-0.098
-584.865	-156.343	0.298	0.019
-583.850	-42.096	-0.381	-0.195
-582.836	62.389	0.210	-0.210
-581.821	800.000	0.049	-0.205
-580.806	-115.717	-0.213	0.040
-579.792	-66.638	0.125	0.049
-578.777	800.000	0.040	0.150
-577.763	-200.000	-0.012	0.192
-576.748	52.829	-0.112	0.108
-575.733	-108.072	0.186	-0.040
-574.719	4.588	-0.150	-0.110
-573.704	-85.129	-0.087	-0.027
-572.690	101.287	0.278	-0.324
-571.675	55.290	-0.118	0.114
-570.661	800.000	0.069	-0.203
-569.646	-200.000	-0.009	-0.250
-568.631	-125.214	-0.337	0.052
-567.617	25.951	0.143	0.119
-566.602	-16.621	-0.272	-0.172
-565.588	34.392	0.109	-0.095
-564.573	-15.025	-0.319	-0.204
-563.558	168.227	0.087	-0.124
-562.544	-59.901	-0.084	-0.036
-561.529	-200.000	0.012	0.189
-560.515	289.122	-0.134	-0.243
-559.500	800.000	0.072	-0.301
-558.485	-74.759	0.188	-0.067
-557.471	-200.000	0.042	0.314
-556.456	534.732	0.111	0.263
-555.442	360.231	0.054	0.109
-554.427	132.495	0.182	-0.234
-553.412	306.135	-0.162	-0.300
-552.398	800.000	0.146	0.474
-551.383	800.000	0.061	-0.249
-550.369	-58.089	0.149	0.065
-549.354	-34.457	-0.157	0.086
-548.339	-130.788	-0.100	-0.013
-547.325	-107.617	-0.173	0.038
-546.310	-200.000	0.041	-0.374
-545.296	709.148	0.012	-0.032
-544.281	153.491	0.218	-0.298
-543.266	35.157	0.096	-0.084
-542.252	119.912	0.115	-0.142
-541.237	-108.714	0.087	0.019
-540.223	-96.675	0.299	-0.079
-539.208	-87.839	-0.024	-0.007
-538.193	281.882	0.152	-0.273
-537.179	-45.988	0.168	0.083
-536.164	-99.160	-0.171	0.043
-535.150	-75.197	-0.051	-0.018
-534.135	-200.000	0.015	-0.335
-533.121	496.538	0.074	0.169
-532.106	800.000	-0.065	0.270
-531.091	29.154	0.070	-0.059
-530.077	-1.653	0.181	0.127
-529.062	-139.546	0.066	0.007
-528.048	-159.299	-0.315	0.018
-527.033	30.030	0.282	-0.240
-526.018	69.269	0.107	-0.110
-525.004	-141.565	-0.400	-0.040
-523.989	-124.906	0.207	-0.032
-522.975	64.278	-0.148	0.149
-521.960	166.676	0.101	0.143
-520.945	-200.000	-0.044	0.291
-519.931	40.282	-0.126	0.113
-518.916	800.000	0.041	-0.121
-517.902	53.110	0.168	-0.160
-516.887	-69.141	-0.163	0.063
-515.872	168.754	0.037	-0.053
-514.858	-200.000	0.029	-0.370
-513.843	15.086	-0.150	-0.117
-512.829	42.726	-0.214	0.195
-511.814	800.000	0.137	-0.380
-510.799	-200.000	0.048	0.331
-509.785	-200.000	-0.016	0.111
-508.770	180.768	0.062	0.091
-507.756	-200.000	0.004	-0.029
-506.741	-44.581	0.102	-0.051
-505.726	608.756	0.060	0.149
-504.712	146.201	-0.107	0.143
-503.697	-85.125	-0.361	0.113
-502.683	173.082	0.047	-0.067
-501.668	-200.000	0.005	0.243
-500.653	-200.000	0.030	0.258
-499.639	680.304	-0.140	-0.363
-498.624	-141.503	0.254	-0.026
-497.610	800.000	-0.079	-0.284
-496.595	-147.163	-0.133	-0.011
-495.581	2.558	-0.164	-0.119
-494.566	-2.294	0.312	-0.218
-493.551	139.597	0.173	0.227
-492.537	569.300	-0.238	0.577
-491.522	220.039	0.133	0.213
-490.508	-38.794	-0.143	-0.075
-489.493	287.991	-0.172	-0.309
-488.478	255.421	-0.096	0.164
-487.464	-98.786	0.064	0.016
-486.449	374.827	0.054	0.110
-485.435	-200.000	0.033	0.340
-484.420	-141.595	0.249	0.025
-483.405	-50.403	0.351	0.165
-482.391	-200.000	-0.012	0.079
-481.376	298.390	-0.035	-0.064
-480.362	-163.645	0.106	0.005
-479.347	-127.110	-0.208	0.030
-478.332	-107.459	0.125	-0.027
-477.318	-63.189	-0.278	0.114
-476.303	-60.153	-0.131	-0.056
-475.289	-200.000	0.016	-0.258
-474.274	-151.819	-0.251	-0.018
-473.259	-105.027	-0.213	-0.049
-472.245	-95.263	-0.327	0.088
-471.230	-73.989	0.050	-0.018
-470.216	269.799	-0.077	-0.135
-469.201	244.138	0.050	-0.084
-468.186	-200.000	-0.045	-0.226
-467.172	164.908	-0.198	0.279
-466.157	-105.362	-0.375	0.085
-465.143	73.823	0.241	-0.252
-464.128	-139.975	-0.267	-0.028
-463.113	-11.817	-0.156	0.102
-462.099	52.801	0.353	0.336
-461.084	-57.379	-0.190	0.083
-460.070	800.000	-0.068	0.212
-459.055	190.280	0.105	-0.156
-458.040	-82.231	0.117	-0.038
-457.026	-1.653	-0.332	-0.233
-456.011	-52.776	0.328	-0.151
-454.997	-41.238	0.058	-0.030
-453.982	-102.371	-0.223	-0.053
-452.968	353.912	0.166	0.327
-451.953	-200.000	-0.005	0.173
-450.938	765.927	0.072	0.194
-449.924	-50.802	-0.094	-0.044
-448.909	113.731	0.031	-0.038
-447.895	-139.729	0.340	0.036
-446.880	64.788	-0.216	-0.217
-445.865	800.000	-0.032	-0.089
-444.851	298.827	0.049	-0.089
-443.836	-17.730	0.210	-0.131
-442.822	346.867	0.072	0.141
-441.807	-40.924	0.250	0.129
-440.792	800.000	0.029	0.119
-439.778	88.207	-0.281	0.310
-438.763	-16.613	0.143	-0.090
-437.749	342.088	-0.089	-0.174
-436.734	-200.000	0.024	-0.172
-435.719	-62.589	0.220	0.091
-434.705	178.462	0.028	0.041
-433.690	-200.000	-0.009	0.207
-432.676	-23.498	0.159	0.095
-431.661	8.432	0.149	-0.112
-430.646	-10.281	0.102	0.067
-429.632	180.541	0.081	0.119
-428.617	405.369	-0.061	-0.127
-427.603	-150.200	0.435	-0.033
-426.588	800.000	-0.115	-0.364
-425.573	-111.097	0.344	0.070
-424.559	-200.000	-0.026	0.122
-423.544	279.266	-0.064	-0.113
-422.530	201.373	-0.132	0.201
-421.515	800.000	0.066	-0.195
-420.500	62.104	0.130	0.129
-419.486	-200.000	0.022	0.179
-418.471	-38.928	0.219	0.115
-417.457	-200.000	-0.021	-0.233
-416.442	-108.374	-0.122	-0.026
-415.428	357.029	-0.023	-0.046
-414.413	-152.208	0.254	0.018
-413.398	163.355	0.131	-0.183
-412.384	-200.000	-0.001	-0.079
-411.369	430.598	0.051	-0.110
-410.355	283.212	-0.130	0.232
-409.340	-6.778	0.153	0.103
-408.325	-103.424	-0.226	0.053
-407.311	-27.649	-0.094	0.054
-406.296	216.416	0.138	0.218
-405.282	-61.966	0.393	-0.163
-404.267	-101.589	-0.171	-0.041
-403.252	209.877	-0.142	0.221
-402.238	164.009	-0.206	0.288
-401.223	19.296	0.210	0.167
-400.209	-16.001	0.192	-0.121
-399.194	145.174	-0.188	-0.250
-398.179	800.000	-0.136	0.406
-397.165	-83.565	-0.268	0.085
-396.150	124.369	0.074	0.092
-395.136	-200.000	-0.042	-0.278
-394.121	-161.628	-0.257	-0.013
-393.106	-74.259	-0.168	0.060
-392.092	-64.863	-0.190	0.076
-391.077	170.047	0.112	-0.160
-390.063	-200.000	-0.020	-0.157
-389.048	287.054	0.168	0.302
-388.033	449.920	0.124	-0.271
-387.019	800.000	0.048	0.173
-386.004	-94.482	-0.103	0.028
-384.990	-104.647	-0.249	-0.057
-383.975	-151.690	0.245	0.018
-382.960	556.588	0.085	-0.202
-381.946	-200.000	-0.040	0.242
-380.931	-17.643	0.081	0.051
-379.917	1.300	-0.162	0.115
-378.902	800.000	-0.020	-0.069
-377.888	-34.496	-0.074	0.040
-376.873	-114.814	0.174	-0.033
-375.858	23.591	0.136	-0.111
-374.844	47.459	0.104	0.096
-373.829	800.000	0.110	0.399
-372.815	-200.000	-0.066	-0.000
-371.800	1.144	0.182	0.129
-370.785	-14.865	-0.335	0.213
-369.771	800.000	0.060	-0.233
-368.756	-143.627	0.294	-0.028
-367.742	-6.828	0.222	0.150
-366.727	0.459	0.309	-0.219
-365.712	800.000	-0.084	0.338
-364.698	-143.488	0.280	0.026
-363.683	-200.000	0.005	-0.241
-362.669	147.829	-0.264	-0.352
-361.654	55.570	-0.221	0.212
-360.639	36.391	-0.348	-0.304
-359.625	-200.000	-0.001	-0.085
-358.610	-63.186	-0.134	0.055
-357.596	6.134	0.272	-0.200
-356.581	-31.993	0.228	-0.126
-355.566	98.870	0.096	0.110
-354.552	-78.358	0.023	0.008
-353.537	800.000	0.026	-0.112
-352.523	-109.125	0.219	0.046
-351.508	109.507	0.041	0.049
-350.493	-60.308	-0.154	0.065
-349.479	129.311	-0.247	0.312
-348.464	1.872	-0.069	0.049
-347.450	125.295	-0.070	-0.087
-346.435	-123.663	0.438	-0.069
-345.420	-13.233	-0.172	0.111
-344.406	232.994	-0.168	-0.273
-343.391	-200.000	-0.088	-0.405
-342.377	800.000	0.099	-0.420
-341.362	-62.841	-0.116	-0.047
-340.348	308.263	0.084	0.154
-339.333	-200.000	0.010	0.378
-338.318	166.286	0.041	0.058
-337.304	-200.000	0.032	-0.174
-336.289	-200.000	-0.023	0.251
-335.275	-124.462	0.168	-0.026
-334.260	-27.741	-0.176	0.101
-333.245	137.597	-0.019	-0.024
-332.231	-200.000	-0.013	0.301
-331.216	-199.310	-0.227	-0.001
-330.202	-121.954	0.364	0.059
-329.187	-57.952	0.338	0.146
-328.172	147.614	-0.258	-0.344
-327.158	-200.000	-0.013	0.176
-326.143	51.747	0.217	0.204
-325.129	-29.344	0.160	0.091
-324.114	-121.957	0.060	-0.010
-323.099	-35.733	-0.428	-0.229
-322.085	-111.950	-0.220	-0.044
-321.070	-94.404	-0.172	-0.047
-320.056	800.000	0.040	0.139
-319.041	-200.000	-0.015	0.125
-318.026	182.854	-0.200	-0.292
-317.012	78.407	0.195	0.206
-315.997	800.000	0.128	-0.487
-314.983	75.750	0.178	-0.187
-313.968	-90.149	0.304	-0.088
-312.953	800.000	-0.108	0.334
-311.939	294.419	-0.202	-0.365
-310.924	148.113	0.027	-0.036
-309.910	-21.516	0.170	-0.102
-308.895	422.189	-0.058	0.123
-307.880	-95.333	0.112	0.030
-306.866	67.806	0.132	0.133
-305.851	118.503	-0.039	-0.048
-304.837	112.213	-0.103	0.124
-303.822	-200.000	-0.021	0.101
-302.807	-102.626	-0.041	-0.010
-301.793	112.558	0.181	0.217
-300.778	-114.777	0.213	0.040
-299.764	-148.956	-0.235	-0.019
-298.749	41.153	0.097	-0.087
-297.735	-161.681	0.224	0.011
-296.720	89.606	-0.341	0.376
-295.705	-153.450	-0.208	0.014
-294.691	-159.215	-0.387	-0.022
-293.676	89.656	0.143	0.158
-292.662	119.217	0.200	0.245
-291.647	12.840	0.120	0.092
-290.632	-54.545	0.113	0.051
-289.618	-150.182	0.111	0.009
-288.603	-200.000	0.046	0.246
-287.589	345.292	0.021	0.040
-286.574	-76.196	-0.246	-0.086
-285.559	-90.860	0.159	0.045
-284.545	-10.154	0.416	-0.273
-283.530	-150.615	-0.142	-0.011
-282.516	-200.000	0.024	-0.236
-281.501	87.961	-0.078	-0.086
-280.486	-200.000	0.011	0.176
-279.472	33.830	0.077	0.066
-278.457	-43.410	0.106	0.053
-277.443	-128.011	-0.184	-0.026
-276.428	-157.565	-0.045	0.003
-275.413	800.000	-0.047	-0.131
-274.399	-200.000	-0.034	0.188
-273.384	-97.809	0.199	0.051
-272.370	104.060	-0.045	-0.052
-271.355	242.977	-0.176	0.292
-270.340	-81.714	0.036	0.012
-269.326	-122.250	-0.033	0.005
-268.311	-111.856	0.237	0.047
-267.297	-123.842	-0.186	-0.029
-266.282	-200.000	-0.008	0.110
-265.267	199.869	-0.169	-0.256
-264.253	404.432	0.019	0.040
-263.238	591.367	0.135	-0.329
-262.224	-111.495	-0.113	-0.023
-261.209	-199.038	0.041	0.000
-260.195	-185.989	-0.488	-0.007
-259.180	124.791	0.110	-0.137
-258.165	191.336	-0.072	0.106
-257.151	11.462	-0.150	0.113
-256.136	5.387	0.125	0.091
-255.122	-3.868	-0.228	0.156
-254.107	-200.000	0.016	-0.175
-253.092	-200.000	-0.008	-0.181
-252.078	397.079	0.184	-0.379
-251.063	514.140	0.101	-0.232
-250.049	-200.000	0.016	0.357
-249.034	-105.825	-0.138	0.031
-248.019	-128.018	-0.194	0.027
-247.005	182.892	-0.175	0.255
-245.990	450.521	0.097	-0.211
-244.976	-200.000	0.011	-0.356
-243.961	-60.443	-0.423	-0.178
-242.946	-200.000	0.025	0.264
-241.932	-84.647	0.231	-0.072
-240.917	-200.000	0.031	-0.142
-239.903	-61.352	0.220	-0.091
-238.888	398.689	0.034	0.070
-237.873	-142.870	0.272	-0.026
-236.859	-18.178	0.184	0.114
-235.844	-194.077	-0.146	0.001
-234.830	-200.000	-0.063	-0.294
-233.815	114.788	0.073	-0.088
-232.800	800.000	0.076	-0.269
-231.786	302.168	-0.159	-0.289
-230.771	382.677	0.057	0.116
-229.757	7.798	0.109	-0.081
-228.742	800.000	-0.051	-0.209
-227.727	800.000	-0.041	0.167
-226.713	77.237	0.199	-0.209
-225.698	-200.000	0.028	0.161
-224.684	-91.848	0.076	-0.021
-223.669	135.468	0.192	-0.247
-222.655	120.490	-0.115	-0.141
-221.640	800.000	-0.051	0.197
-220.625	18.541	-0.181	0.143
-219.611	23.974	0.154	-0.125
-218.596	-70.706	0.197	-0.073
-217.582	514.159	-0.049	-0.113
-216.567	178.096	-0.036	-0.052
-215.552	17.531	0.259	0.203
-214.538	-200.000	0.002	-0.048
-213.523	-109.606	0.247	0.051
-212.509	156.201	0.131	0.178
-211.494	800.000	0.110	0.461
-210.479	129.378	-0.281	0.354
-209.465	-18.582	-0.128	0.078
-208.450	374.236	0.068	-0.135
-207.436	-200.000	0.066	0.552
-206.421	504.304	-0.104	0.237
-205.406	800.000	-0.046	-0.171
-204.392	-200.000	-0.086	0.373
-203.377	-55.714	-0.300	0.132
-202.363	800.000	-0.048	-0.153
-201.348	-126.138	0.370	0.055
-200.333	731.173	-0.138	-0.363
-199.319	-4.740	0.484	-0.329
-198.304	-200.000	0.008	-0.137
-197.290	162.763	-0.139	0.192
-196.275	95.913	-0.130	-0.146
-195.260	219.448	-0.203	-0.320
-194.246	-12.357	0.230	0.148
-193.231	342.316	-0.058	0.112
-192.217	84.036	0.204	0.219
-191.202	32.188	-0.199	-0.169
-190.187	-18.104	-0.093	-0.057
-189.173	800.000	0.095	-0.338
-188.158	-200.000	0.018	-0.152
-187.144	701.438	0.157	0.408
-186.129	-35.502	0.014	0.008
-185.114	-1.263	-0.230	-0.160
-184.100	-88.460	-0.267	-0.078
-183.085	245.253	-0.169	-0.279
-182.071	676.460	-0.122	-0.313
-181.056	-200.000	-0.017	0.198
-180.042	58.092	-0.235	0.227
-179.027	800.000	-0.035	-0.144
-178.012	-107.187	0.191	0.041
-176.998	-150.515	0.258	0.019
-175.983	34.386	0.115	0.098
-174.969	53.828	-0.082	0.078
-173.954	180.453	-0.162	0.234
-172.939	33.817	0.047	0.040
-171.925	578.650	-0.053	0.128
-170.910	800.000	-0.038	0.113
-169.896	-171.666	-0.322	0.010
-168.881	-35.847	0.143	0.076
-167.866	50.556	0.139	0.130
-166.852	-63.723	-0.175	0.071
-165.837	342.775	-0.103	0.198
-164.823	8.194	-0.198	-0.146
-163.808	-75.900	0.263	0.092
-162.793	-185.295	0.566	-0.009
-161.779	388.577	0.069	0.140
-160.764	-65.136	-0.106	0.042
-159.750	800.000	0.132	0.464
-158.735	-91.096	-0.405	-0.114
-157.720	-200.000	0.023	0.303
-156.706	278.668	-0.023	-0.040
-155.691	-82.296	-0.136	0.044
-154.677	27.708	-0.175	-0.145
-153.662	75.646	-0.212	0.221
-152.647	-153.084	0.090	0.006
-151.633	55.488	-0.038	-0.036
-150.618	-200.000	0.054	-0.388
-149.604	50.296	0.244	-0.227
-148.589	-136.741	0.060	0.007
-147.574	18.735	-0.144	0.113
-146.560	-17.886	0.131	-0.081
-145.545	-155.465	-0.192	0.012
-144.531	-138.852	-0.103	-0.011
-143.516	-96.936	-0.248	0.064
-142.502	239.146	-0.184	-0.301
-141.487	800.000	-0.083	0.249
-140.472	152.997	-0.139	0.187
-139.458	-24.490	-0.082	0.048
-138.443	-91.197	0.087	0.024
-137.429	-48.927	-0.081	-0.038
-136.414	-149.994	0.064	-0.005
-135.399	104.347	0.244	0.283
-134.385	-37.014	-0.356	0.188
-133.370	-160.608	-0.185	0.010
-132.356	800.000	0.023	-0.062
-131.341	132.724	-0.124	0.158
-130.326	-200.000	0.035	0.153
-129.312	-19.127	0.141	0.086
-128.297	-148.374	-0.217	0.017
-127.283	124.442	-0.117	-0.144
-126.268	-200.000	-0.026	-0.211
-125.253	-90.207	0.289	-0.083
-124.239	800.000	0.154	0.451
-123.224	-126.974	-0.067	-0.010
-122.210	-200.000	0.015	-0.214
-121.195	-66.984	0.306	0.119
-120.180	118.136	-0.200	0.242
-119.166	-156.004	-0.320	0.020
-118.151	38.973	0.193	0.169
-117.137	-88.396	-0.266	0.078
-116.122	-112.263	0.432	0.085
-115.107	717.096	-0.006	0.017
-114.093	-119.409	0.315	-0.054
-113.078	447.156	0.235	0.507
-112.064	582.889	0.052	0.124
-111.049	-200.000	-0.069	-0.380
-110.034	-200.000	-0.009	-0.130
-109.020	-200.000	-0.015	-0.119
-108.005	273.947	0.138	0.240
-106.991	-200.000	0.010	-0.083
-105.976	-168.110	0.291	-0.011
-104.962	15.833	0.324	-0.251
-103.947	252.456	-0.087	0.146
-102.932	242.405	-0.149	0.246
-101.918	3.545	-0.261	0.187
-100.903	167.016	0.140	0.196
-99.889	412.014	-0.097	0.203
-98.874	800.000	-0.036	0.124
-97.859	-200.000	0.018	-0.086
-96.845	-105.041	0.356	0.080
-95.830	800.000	0.099	-0.327
-94.816	-66.371	0.117	-0.046
-93.801	800.000	-0.095	0.260
-92.786	-200.000	0.005	0.088
-91.772	-200.000	0.056	0.284
-90.757	-200.000	-0.047	0.316
-89.743	-91.315	-0.174	0.049
-88.728	115.381	-0.170	0.204
-87.713	800.000	-0.051	-0.142
-86.699	800.000	0.106	0.384
-85.684	-53.028	-0.156	-0.071
-84.670	-40.391	0.217	0.111
-83.655	800.000	-0.022	-0.060
-82.640	-125.653	-0.249	-0.037
-81.626	575.753	0.056	-0.133
-80.611	-6.993	-0.230	-0.153
-79.597	-33.575	0.209	-0.113
-78.582	193.786	-0.059	-0.088
-77.567	-145.275	0.162	0.014
-76.553	529.325	-0.016	0.037
-75.538	-91.000	-0.183	0.051
-74.524	-200.000	0.022	0.110
-73.509	-72.084	0.246	-0.090
-72.494	92.924	-0.073	-0.081
-71.480	-64.067	0.187	-0.075
-70.465	-173.104	-0.234	-0.007
-69.451	562.956	0.035	0.083
-68.436	-122.791	0.210	0.033
-67.422	-151.102	-0.232	-0.017
-66.407	-90.272	0.260	0.074
-65.392	1.277	0.172	-0.121
-64.378	121.138	0.189	-0.231
-63.363	-109.923	-0.081	-0.017
-62.349	-133.944	0.019	0.002
-61.334	27.718	-0.955	-0.788
-60.319	800.000	0.228	0.778
-59.305	352.250	-0.362	-0.702
-58.290	157.921	0.686	0.931
-57.276	343.863	0.647	1.242
-56.261	-200.000	105.839	610.112
-55.246	503.947	1506.293	3414.671
-54.232	176.562	2699.806	3844.752
-53.217	110.495	2186.076	2574.309
-52.203	40.200	1703.532	1500.768
-51.188	32.786	1512.682	1282.406
-50.173	30.321	1486.529	1243.692
-49.159	51.406	1542.137	1434.758
-48.144	51.730	1558.829	1452.448
-47.130	32.913	1514.809	1284.874
-46.115	29.887	1499.596	1251.488
-45.100	29.748	1496.015	1247.518
-44.086	29.668	1494.348	1245.534
-43.071	29.623	1492.089	1243.303
-42.057	29.529	1490.443	1241.247
-41.042	29.663	1488.865	1240.787
-40.027	29.669	1487.812	1239.897
-39.013	29.648	1485.873	1238.091
-37.998	29.426	1485.652	1236.369
-36.984	29.581	1483.534	1235.599
-35.969	29.585	1482.264	1234.518
-34.954	29.396	1481.399	1232.485
-33.940	29.455	1479.650	1231.373
-32.925	29.522	1477.971	1230.373
-31.911	29.564	1477.177	1229.948
-30.896	29.664	1475.085	1228.823
-29.881	29.607	1474.485	1227.891
-28.867	29.645	1472.833	1226.719
-27.852	29.661	1471.674	1225.809
-26.838	29.644	1470.410	1224.595
-25.823	29.625	1469.067	1223.305
-24.809	29.665	1466.916	1221.730
-23.794	29.545	1466.063	1220.175
-22.779	29.549	1464.638	1218.970
-21.765	29.630	1463.721	1218.692
-20.750	29.602	1462.620	1217.541
-19.736	29.601	1461.111	1216.234
-18.721	29.614	1460.011	1215.356
-17.706	29.551	1459.206	1214.219
-16.692	29.601	1457.599	1213.167
-15.677	29.521	1457.095	1212.173
-14.663	29.617	1455.935	1211.789
-13.648	29.602	1455.267	1211.083
-12.633	29.600	1453.896	1209.882
-11.619	29.430	1453.883	1208.711
-10.604	29.521	1452.378	1208.009
-9.590	29.537	1451.748	1207.540
-8.575	29.593	1450.704	1206.990
-7.560	29.660	1449.499	1206.375
-6.546	29.468	1449.440	1205.026
-5.531	29.423	1448.669	1204.044
-4.517	29.484	1447.628	1203.529
-3.502	29.543	1446.562	1202.978
-2.487	29.566	1444.907	1201.705
-1.473	29.575	1444.122	1201.063
-0.458	29.515	1442.924	1199.626
0.556	27.145	1433.515	1189.270
1.571	24.441	1408.170	1150.733
2.586	21.191	1350.021	1082.990
3.600	19.629	1270.026	1009.605
4.615	18.684	1224.899	968.318
5.629	16.360	1170.058	912.343
6.644	8.106	1086.604	805.637
7.659	1.035	1046.139	741.068
8.673	-0.067	1040.407	731.581
9.688	-0.284	1037.254	728.245
10.702	-0.469	1036.000	726.404
11.717	-0.340	1033.509	725.219
12.731	2.883	1037.343	743.468
13.746	11.808	1049.906	795.982
14.761	18.519	1058.981	835.610
15.775	20.263	1060.762	845.446
16.790	20.544	1060.389	846.444
17.804	20.432	1059.234	844.902
18.819	20.263	1058.621	843.515
19.834	20.406	1058.081	843.705
20.848	20.525	1057.240	843.536
21.863	20.522	1056.902	843.178
22.877	20.534	1056.811	843.089
23.892	20.486	1055.936	842.086
24.907	20.423	1055.153	841.080
25.921	20.484	1054.308	840.630
26.936	20.521	1053.295	839.926
27.950	20.459	1052.242	838.711
28.965	20.292	1051.413	837.171
29.980	20.209	1049.847	835.449
30.994	20.484	1047.668	834.967
32.009	20.532	1047.278	834.810
33.023	20.672	1046.658	834.913
34.038	20.395	1045.299	832.430
35.053	20.341	1044.082	831.127
36.067	20.617	1043.605	831.995
37.082	20.576	1043.331	831.508
38.096	20.579	1042.520	830.803
39.111	20.730	1041.617	830.729
40.126	20.726	1041.037	830.175
41.140	20.722	1039.671	828.994
42.155	20.466	1037.809	826.215
43.169	20.159	1036.733	823.827
44.184	20.195	1035.378	822.847
45.199	20.288	1034.733	822.705
46.213	20.139	1034.109	821.428
47.228	20.089	1032.698	820.002
48.242	20.341	1031.698	820.325
49.257	20.406	1031.001	820.005
50.271	20.345	1030.517	819.257
51.286	20.549	1029.766	819.554
52.301	20.510	1028.759	818.493
53.315	20.565	1028.230	818.259
54.330	20.537	1027.119	817.173
55.344	20.523	1026.182	816.287
56.359	20.570	1025.450	815.856
57.374	20.580	1024.383	814.980
58.388	20.317	1023.869	813.266
59.403	20.232	1023.370	812.402
60.417	20.294	1022.241	811.724
61.432	20.149	1021.402	810.307
62.447	20.277	1019.893	809.635
63.461	20.335	1019.749	809.719
64.476	20.492	1019.121	809.880
65.490	20.354	1018.620	808.768
66.505	20.369	1016.784	807.311
67.520	20.277	1016.374	806.483
68.534	20.249	1015.784	805.813
69.549	20.230	1014.047	804.277
70.563	19.884	1013.365	802.062
71.578	19.865	1012.748	801.416
72.593	19.845	1011.883	800.567
73.607	19.809	1010.467	799.210
74.622	19.698	1009.611	797.948
75.636	19.932	1009.296	798.709
76.651	20.166	1008.111	798.779
77.666	20.032	1007.398	797.529
78.680	19.943	1006.132	796.045
79.695	19.926	1005.955	795.754
80.709	20.188	1005.357	796.418
81.724	20.231	1004.544	795.901
82.739	20.120	1003.747	794.688
83.753	20.141	1002.773	793.941
84.768	20.423	1001.581	794.219
85.782	20.568	1001.555	794.793
86.797	20.759	1000.999	795.150
87.812	20.791	999.569	794.089
88.826	20.682	998.608	792.759
89.841	20.621	997.816	791.786
90.855	20.683	997.262	791.556
91.870	20.820	996.615	791.597
92.884	20.743	995.329	790.154
93.899	20.690	994.380	789.091
94.914	20.511	993.239	787.305
95.928	20.634	993.072	787.659
96.943	20.665	992.299	787.117
97.957	20.327	990.824	784.351
98.972	20.156	989.876	782.760
99.987	19.983	988.858	781.103
101.001	20.030	988.235	780.756
102.016	20.432	987.539	781.947
103.030	20.357	987.194	781.265
104.045	20.395	985.318	779.884
105.060	20.248	983.963	778.081
106.074	20.137	982.744	776.554
107.089	20.163	982.129	776.114
108.103	20.661	981.564	777.825
109.118	20.520	981.247	776.874
110.133	20.215	979.472	774.042
111.147	20.291	978.502	773.544
112.162	20.232	977.414	772.355
113.176	20.066	976.015	770.441
114.191	20.000	975.839	769.941
115.206	20.163	974.744	769.735
116.220	19.848	973.256	767.095
117.235	19.714	972.552	765.878
118.249	19.846	972.466	766.328
119.264	19.854	970.860	765.027
120.279	19.938	970.045	764.690
121.293	19.976	968.908	763.892
122.308	19.979	968.560	763.567
123.322	20.025	967.596	762.939
124.337	20.008	966.501	761.935
125.352	19.935	965.038	760.395
126.366	19.473	963.563	757.135
127.381	19.108	962.065	754.295
128.395	19.696	962.083	756.816
129.410	20.305	961.334	758.822
130.424	20.354	961.206	758.869
131.439	20.422	959.704	757.913
132.454	20.393	958.630	756.872
133.468	20.424	957.573	756.107
134.483	20.197	956.850	754.479
135.497	20.432	956.176	754.906
136.512	20.644	955.144	754.943
137.527	20.584	954.863	754.393
138.541	20.649	953.539	753.562
139.556	20.645	953.301	753.289
140.570	20.597	952.539	752.413
141.585	20.660	951.315	751.655
142.600	20.664	950.541	750.992
143.614	20.578	949.799	749.968
144.629	20.652	949.367	749.880
145.643	21.001	948.316	750.485
146.658	20.850	947.154	748.850
147.673	20.606	946.231	747.007
148.687	20.587	945.122	745.983
149.702	20.368	944.181	744.237
150.716	20.366	943.043	743.264
151.731	20.442	941.709	742.472
152.746	20.399	941.679	742.201
153.760	20.659	940.766	742.525
154.775	20.764	940.300	742.540
155.789	20.980	938.638	742.079
156.804	20.699	938.449	740.668
157.819	20.857	936.821	739.991
158.833	20.766	935.919	738.826
159.848	20.944	935.412	739.113
160.862	21.060	934.308	738.668
161.877	20.685	933.711	736.544
162.892	20.805	932.695	736.183
163.906	20.859	931.877	735.702
164.921	20.884	931.106	735.132
165.935	20.836	929.790	733.829
166.950	20.816	928.884	732.963
167.964	20.802	927.953	732.107
168.979	20.790	927.274	731.455
169.994	20.783	926.231	730.536
171.008	20.547	925.287	728.739
172.023	20.728	924.228	728.597
173.037	20.842	923.557	728.483
174.052	20.609	922.456	726.576
175.067	20.436	921.481	725.021
176.081	20.570	920.558	724.789
177.096	20.641	919.413	724.119
178.110	20.624	918.770	723.476
179.125	20.448	917.819	721.936
180.140	20.218	916.314	719.734
181.154	20.171	916.143	719.339
182.169	20.223	915.920	719.318
183.183	20.437	915.134	719.520
184.198	20.831	914.684	720.736
185.213	20.787	914.039	719.981
186.227	20.707	913.029	718.792
187.242	20.700	913.155	718.796
188.256	20.749	912.444	718.378
189.271	20.753	911.445	717.545
190.286	20.914	910.617	717.489
191.300	20.726	910.020	716.182
192.315	20.265	908.076	712.698
193.329	19.748	906.475	709.255
194.344	19.148	905.767	706.180
195.359	19.758	906.038	708.831
196.373	20.622	905.757	712.087
197.388	20.805	906.221	713.139
198.402	20.471	905.637	711.250
199.417	20.753	904.249	711.246
200.432	20.733	904.024	710.927
201.446	20.581	903.300	709.673
202.461	20.185	902.458	707.336
203.475	20.373	902.041	707.710
204.490	19.872	900.565	704.452
205.504	18.848	898.454	698.577
206.519	19.184	898.628	700.017
207.534	20.153	899.091	704.253
208.548	20.283	898.579	704.318
209.563	20.664	898.137	705.455
210.577	20.679	897.418	704.887
211.592	20.466	896.658	703.366
212.607	20.721	896.528	704.235
213.621	20.877	895.993	704.381
214.636	20.872	895.257	703.723
215.650	20.815	894.942	703.183
216.665	20.836	894.014	702.476
217.680	20.961	893.701	702.669
218.694	20.885	893.045	701.785
219.709	20.526	892.410	699.780
220.723	20.326	891.031	697.831
221.738	20.426	890.845	698.027
222.753	20.747	889.683	698.344
223.767	20.692	889.133	697.628
224.782	20.710	888.690	697.294
225.796	20.843	887.824	697.082
226.811	21.119	887.218	697.648
227.826	20.485	886.438	694.439
228.840	19.698	885.036	690.139
229.855	19.757	884.495	689.893
230.869	20.046	883.836	690.469
231.884	19.751	882.885	688.491
232.899	19.662	882.742	687.964
233.913	20.603	882.825	691.712
234.928	20.740	882.332	691.810
235.942	20.572	881.915	690.752
236.957	20.634	880.916	690.156
237.972	20.378	880.129	688.464
238.986	20.303	879.183	687.366
240.001	20.491	878.605	687.597
241.015	20.334	878.145	686.556
242.030	20.415	877.367	686.205
243.045	20.571	876.884	686.383
244.059	20.612	876.551	686.224
245.074	20.779	875.775	686.214
246.088	20.899	874.914	685.954
247.103	20.558	873.989	683.825
248.117	20.365	873.932	682.959
249.132	20.957	873.648	685.005
250.147	21.249	873.638	686.085
251.161	21.230	873.145	685.563
252.176	21.346	872.382	685.357
253.190	21.531	871.550	685.369
254.205	21.516	871.107	684.898
255.220	21.665	870.709	685.110
256.234	21.708	870.022	684.674
257.249	21.668	869.021	683.672
258.263	21.456	868.505	682.377
259.278	21.421	867.886	681.695
260.293	21.351	867.696	681.210
261.307	21.586	866.982	681.507
262.322	21.428	866.351	680.335
263.336	21.392	865.448	679.428
264.351	20.926	863.927	676.364
265.366	19.670	862.219	670.098
266.380	19.420	861.421	668.451
267.395	20.363	861.407	672.032
268.409	21.151	861.551	675.135
269.424	21.177	861.051	674.785
270.439	21.224	860.862	674.758
271.453	21.296	860.131	674.405
272.468	21.400	859.087	673.926
273.482	21.490	858.754	673.951
274.497	21.557	858.644	674.063
275.512	21.394	857.023	672.103
276.526	20.842	855.941	669.079
277.541	21.033	855.771	669.618
278.555	21.438	855.180	670.649
279.570	21.307	854.336	669.427
280.585	20.886	854.038	667.524
281.599	21.163	853.236	667.897
282.614	21.236	852.916	667.867
283.628	20.835	851.612	665.254
284.643	20.554	851.305	663.881
285.657	20.826	851.100	664.702
286.672	20.865	849.814	663.788
287.687	20.276	849.277	661.067
288.701	20.644	849.194	662.345
289.716	20.915	849.045	663.200
290.730	20.861	847.746	661.925
291.745	20.732	846.925	660.732
292.760	20.317	846.527	658.790
293.774	20.342	845.479	658.012
294.789	21.219	846.059	661.728
295.803	21.816	846.440	664.229
296.818	21.925	845.701	664.003
297.833	21.844	845.379	663.385
298.847	21.619	844.192	661.548
299.862	21.373	842.987	659.614
300.876	21.526	842.628	659.852
301.891	21.858	842.110	660.639
302.906	21.791	841.578	659.913
303.920	21.415	840.470	657.571
304.935	21.393	839.908	656.991
305.949	21.694	839.453	657.708
306.964	21.856	839.222	658.074
307.979	21.639	838.673	656.773
308.993	21.547	838.187	655.988
310.008	21.871	837.979	656.983
311.022	21.930	837.185	656.523
312.037	21.769	836.469	655.301
313.052	21.666	836.307	654.731
314.066	21.554	835.425	653.564
315.081	20.943	834.006	650.118
316.095	20.080	832.799	645.905
317.110	20.683	833.281	648.471
318.125	21.544	833.372	651.690
319.139	21.112	832.230	649.133
320.154	20.178	830.302	644.103
321.168	19.656	829.736	641.668
322.183	20.315	829.348	643.758
323.197	21.213	830.159	647.664
324.212	21.439	829.766	648.138
325.227	21.647	829.469	648.616
326.241	21.649	829.130	648.303
327.256	21.648	828.276	647.575
328.270	21.464	827.700	646.386
329.285	21.432	827.251	645.859
330.300	21.417	825.959	644.738
331.314	21.009	825.501	642.822
332.329	21.174	824.635	642.696
333.343	21.557	824.544	643.978
334.358	21.641	824.446	644.153
335.373	21.858	823.468	644.132
336.387	21.915	822.856	643.804
337.402	21.924	823.063	643.940
338.416	22.096	822.204	643.843
339.431	22.128	821.836	643.613
340.446	22.036	821.161	642.692
341.460	22.240	820.872	643.157
342.475	22.277	820.143	642.663
343.489	22.022	819.527	641.191
344.504	22.058	818.619	640.558
345.519	22.335	818.479	641.401
346.533	22.351	818.567	641.473
347.548	22.625	817.417	641.508
348.562	22.487	817.467	640.989
349.577	22.673	816.482	640.838
350.592	22.465	816.255	639.847
351.606	22.395	815.596	639.018
352.621	22.507	815.492	639.286
353.635	22.408	814.598	638.171
354.650	22.293	814.254	637.428
355.665	22.106	813.061	635.763
356.679	21.011	811.693	630.678
357.694	20.691	811.427	629.258
358.708	21.474	811.218	631.871
359.723	21.515	810.393	631.321
360.738	21.739	810.035	631.794
361.752	22.092	809.930	632.926
362.767	22.186	809.803	633.110
363.781	22.523	809.770	634.240
364.796	22.702	809.233	634.408
365.810	22.739	808.914	634.237
366.825	22.791	808.680	634.182
367.840	22.890	808.046	633.985
368.854	22.732	807.327	632.798
369.869	22.180	806.826	630.371
370.883	22.175	805.790	629.488
371.898	22.367	805.111	629.590
372.913	22.234	804.834	628.838
373.927	22.221	803.953	628.050
374.942	22.238	803.514	627.712
375.956	22.289	803.465	627.801
376.971	22.529	802.678	627.985
377.986	22.593	801.962	627.599
379.000	22.893	801.424	628.186
380.015	22.826	801.057	627.605
381.029	22.728	800.596	626.843
382.044	22.616	799.950	625.881
383.059	22.694	799.526	625.770
384.073	22.891	798.885	625.915
385.088	22.751	798.455	625.024
386.102	22.948	797.851	625.194
387.117	22.718	797.042	623.691
388.132	22.542	796.989	622.971
389.146	22.469	796.228	622.066
390.161	21.870	795.136	619.043
391.175	21.912	794.505	618.646
392.190	22.486	795.210	621.167
393.205	22.552	794.052	620.439
394.219	21.351	792.644	615.059
395.234	20.001	790.639	608.707
396.248	19.271	789.594	605.287
397.263	20.345	790.631	609.801
398.278	22.034	791.853	616.627
399.292	22.556	791.826	618.384
400.307	22.296	790.804	616.619
401.321	22.118	790.035	615.344
402.336	22.162	790.067	615.468
403.350	22.542	789.872	616.591
404.365	22.914	789.712	617.712
405.380	23.260	789.522	618.718
406.394	23.521	789.129	619.269
407.409	23.491	789.079	619.067
408.423	23.564	788.391	618.728
409.438	23.302	788.118	617.546
410.453	23.400	787.235	617.141
411.467	23.661	786.834	617.679
412.482	23.634	786.307	617.119
413.496	23.480	785.804	616.132
414.511	23.691	785.609	616.658
415.526	23.418	785.334	615.440
416.540	23.509	784.893	615.355
417.555	23.398	784.341	614.484
418.569	23.234	783.534	613.230
419.584	23.033	782.958	612.028
420.599	23.076	782.690	611.914
421.613	157.436	1364.102	1798.535
422.628	136.093	1448.820	1798.647
