DTS Sentinel unit serial number:	SN413079Multiplexer serial number:	ORYXHardware model number:	OX4-SRSoftware version number:	ORYX F/W v4.00 Oryx Data Collector v3.7.2.0data status	okinstallation	princeton_trtdifferential loss correction	single-endedforward channel	channel 3reverse channel	N/Adate	2019/09/11time	10:26:11forward acquisition time	60.00reverse acquisition time	0.00gamma	496.2192k internal	0.2298k external	0.2298temperature offset calibration	0.9941default loss term (dB/km)	0.3790temperature slope calibration	1.0000multiplexer offset coefficient	1.0000multiplexer slope coefficient	1.0000fibre end	0.00T internal ref (°C)	36.25T ext. ref 1 (°C)	0.14T ext. ref 2 (°C)	32.63length (m)	temperature (°C)	Stokes	anti-Stokes-747.200	101.820	0.072	0.086
-746.185	-200.000	0.079	0.542
-745.171	-36.728	0.077	-0.042
-744.156	-200.000	0.012	0.278
-743.142	-200.000	0.069	0.341
-742.127	365.170	-0.056	0.115
-741.112	-141.618	-0.394	-0.041
-740.098	-52.385	0.128	0.061
-739.083	-111.499	-0.256	0.053
-738.069	3.194	0.157	0.117
-737.054	45.624	0.159	-0.150
-736.039	-200.000	0.027	-0.123
-735.025	-200.000	0.008	-0.175
-734.010	45.240	-0.135	-0.127
-732.996	-53.402	-0.239	-0.112
-731.981	800.000	-0.115	-0.485
-730.966	-200.000	0.006	0.143
-729.952	-135.082	-0.412	-0.051
-728.937	135.815	-0.071	0.094
-727.923	800.000	0.025	-0.105
-726.908	158.351	-0.075	-0.107
-725.894	-63.230	-0.268	0.113
-724.879	-18.233	0.333	-0.212
-723.864	297.822	-0.142	-0.266
-722.850	-147.816	0.140	0.012
-721.835	-200.000	-0.004	-0.264
-720.821	527.022	0.046	-0.110
-719.806	-64.486	0.114	0.047
-718.791	474.658	-0.053	-0.123
-717.777	-92.499	0.209	0.060
-716.762	24.153	-0.198	0.167
-715.748	346.807	-0.042	-0.084
-714.733	-195.641	-0.114	0.001
-713.718	800.000	-0.051	-0.220
-712.704	-200.000	0.032	-0.291
-711.689	800.000	-0.024	-0.092
-710.675	-200.000	0.001	-0.270
-709.660	-200.000	-0.175	-0.001
-708.645	-143.055	-0.216	-0.021
-707.631	192.002	-0.262	-0.403
-706.616	115.135	-0.227	-0.282
-705.602	-178.758	0.373	0.009
-704.587	639.111	0.049	0.128
-703.572	22.686	-0.222	0.185
-702.558	195.332	0.301	-0.466
-701.543	-12.257	0.213	-0.142
-700.529	-160.345	0.267	0.015
-699.514	224.116	0.138	0.227
-698.499	122.664	-0.203	-0.259
-697.485	173.800	-0.169	-0.249
-696.470	-49.168	0.133	-0.065
-695.456	216.190	0.070	-0.113
-694.441	761.564	-0.059	0.163
-693.426	-200.000	-0.018	0.101
-692.412	-200.000	0.092	-0.416
-691.397	-42.141	-0.133	-0.069
-690.383	59.650	0.303	0.305
-689.368	354.590	0.059	-0.120
-688.354	298.006	0.070	0.131
-687.339	94.002	0.197	-0.228
-686.324	-154.282	0.243	-0.017
-685.310	-106.861	0.262	-0.059
-684.295	-57.202	-0.174	0.078
-683.281	-200.000	-0.002	-0.211
-682.266	55.225	-0.166	-0.164
-681.251	-159.277	0.271	0.016
-680.237	-148.776	0.455	-0.038
-679.222	174.261	0.258	0.380
-678.208	800.000	0.023	-0.073
-677.193	47.800	-0.078	-0.074
-676.178	-145.767	-0.040	0.004
-675.164	-200.000	-0.018	-0.234
-674.149	356.995	0.041	-0.083
-673.135	-200.000	0.060	-0.340
-672.120	-112.847	-0.130	0.026
-671.105	-153.385	-0.152	0.011
-670.091	800.000	0.061	0.176
-669.076	-200.000	-0.010	-0.067
-668.062	-169.868	-0.119	-0.004
-667.047	-8.099	0.245	0.168
-666.032	243.032	0.058	-0.099
-665.018	-114.489	-0.204	0.040
-664.003	-69.153	0.380	-0.149
-662.989	-82.696	0.182	-0.060
-661.974	-22.250	0.139	0.086
-660.959	196.723	-0.109	0.168
-659.945	-200.000	-0.044	-0.431
-658.930	23.328	-0.098	0.082
-657.916	-42.256	0.075	-0.039
-656.901	-200.000	0.019	0.251
-655.886	11.841	-0.164	0.128
-654.872	575.690	-0.110	0.272
-653.857	-142.206	-0.376	-0.038
-652.843	54.628	0.165	-0.162
-651.828	499.504	-0.147	-0.345
-650.814	746.964	0.027	0.073
-649.799	-109.412	0.131	0.028
-648.784	776.927	0.073	0.204
-647.770	-98.599	-0.340	0.088
-646.755	-200.000	-0.011	-0.061
-645.741	-10.974	0.137	0.092
-644.726	455.479	-0.179	-0.403
-643.711	-142.270	0.394	-0.040
-642.697	120.614	-0.171	-0.216
-641.682	231.112	-0.055	-0.091
-640.668	1.724	-0.065	0.047
-639.653	-3.086	-0.294	-0.209
-638.638	-167.545	0.112	0.005
-637.624	-200.000	0.024	0.234
-636.609	-26.665	0.232	0.138
-635.595	-85.885	-0.260	-0.082
-634.580	38.269	0.105	0.095
-633.565	-185.633	0.335	0.005
-632.551	800.000	-0.067	0.198
-631.536	118.643	0.172	-0.216
-630.522	-200.000	0.034	0.450
-629.507	-200.000	-0.036	-0.281
-628.492	-43.304	0.339	0.174
-627.478	-200.000	-0.003	0.037
-626.463	255.505	0.045	0.078
-625.449	-90.060	0.099	0.029
-624.434	141.328	0.146	0.196
-623.419	177.542	0.069	0.102
-622.405	-85.714	0.226	0.071
-621.390	-200.000	0.039	0.186
-620.376	-112.801	-0.231	0.047
-619.361	-130.327	-0.019	0.003
-618.346	-200.000	-0.034	0.596
-617.332	-114.026	-0.206	0.041
-616.317	114.913	-0.061	0.076
-615.303	800.000	-0.074	-0.241
-614.288	-200.000	0.197	-0.001
-613.273	201.978	0.128	-0.200
-612.259	319.861	-0.078	-0.150
-611.244	57.104	-0.282	-0.279
-610.230	-33.187	-0.150	0.085
-609.215	-53.943	-0.335	0.155
-608.201	106.269	0.256	0.308
-607.186	38.154	0.144	-0.130
-606.171	445.018	0.224	-0.500
-605.157	-200.000	-0.008	-0.234
-604.142	800.000	-0.080	-0.272
-603.128	-189.009	0.064	-0.001
-602.113	74.364	0.131	0.139
-601.098	800.000	0.073	0.304
-600.084	-31.223	0.114	0.065
-599.069	357.912	0.123	0.249
-598.055	443.816	-0.068	0.152
-597.040	84.249	-0.115	-0.127
-596.025	553.468	0.129	0.316
-595.011	-126.600	-0.262	0.039
-593.996	-58.590	-0.245	0.108
-592.982	-111.174	-0.088	0.018
-591.967	63.087	-0.200	-0.203
-590.952	-48.522	0.107	-0.052
-589.938	-80.934	-0.186	0.063
-588.923	133.834	0.208	0.274
-587.909	118.698	-0.018	-0.022
-586.894	-200.000	-0.021	-0.290
-585.879	-149.057	0.334	0.027
-584.865	102.301	0.158	0.187
-583.850	40.609	-0.180	-0.164
-582.836	-29.051	-0.224	-0.130
-581.821	-53.963	-0.215	0.099
-580.806	-153.339	0.103	-0.007
-579.792	-97.100	-0.062	-0.016
-578.777	149.062	0.133	-0.183
-577.763	183.324	-0.083	0.125
-576.748	18.845	0.198	0.161
-575.733	10.519	-0.222	0.172
-574.719	288.569	0.129	-0.237
-573.704	70.354	0.284	0.298
-572.690	-200.000	-0.094	-0.447
-571.675	-6.093	-0.139	0.097
-570.661	299.608	-0.023	-0.043
-569.646	-83.744	0.219	-0.071
-568.631	123.619	0.182	0.232
-567.617	18.907	0.063	-0.051
-566.602	1.512	-0.078	-0.057
-565.588	800.000	0.063	-0.187
-564.573	-54.216	0.116	-0.054
-563.558	-200.000	0.050	0.512
-562.544	-61.088	0.226	0.097
-561.529	74.490	0.162	-0.173
-560.515	-166.227	-0.196	0.008
-559.500	-200.000	0.014	-0.138
-558.485	98.637	-0.043	0.051
-557.471	-188.090	-0.233	-0.003
-556.456	-200.000	0.009	0.243
-555.442	11.624	-0.180	-0.140
-554.427	66.178	0.190	-0.195
-553.412	658.162	0.083	0.218
-552.398	400.508	-0.057	-0.122
-551.383	-110.667	-0.452	0.095
-550.369	500.561	0.079	-0.185
-549.354	39.826	0.082	0.075
-548.339	-46.405	-0.396	-0.197
-547.325	11.134	-0.252	-0.195
-546.310	-160.647	-0.214	0.012
-545.296	148.306	-0.233	0.319
-544.281	-6.493	0.366	0.253
-543.266	-80.039	-0.385	0.131
-542.252	-50.483	-0.104	-0.050
-541.237	414.987	0.123	0.266
-540.223	-136.720	-0.044	-0.005
-539.208	800.000	0.035	-0.119
-538.193	267.104	-0.088	0.155
-537.179	-200.000	0.036	-0.275
-536.164	-116.836	-0.070	-0.013
-535.150	19.725	0.315	0.257
-534.135	-92.605	0.219	0.062
-533.121	-104.490	0.113	0.026
-532.106	185.976	-0.140	0.210
-531.091	-108.123	0.182	-0.040
-530.077	162.352	0.123	0.174
-529.062	-200.000	0.043	-0.353
-528.048	80.666	-0.178	0.194
-527.033	-200.000	-0.023	0.108
-526.018	-115.135	0.256	0.049
-525.004	-51.918	0.175	-0.082
-523.989	152.626	-0.063	-0.087
-522.975	-156.388	-0.139	-0.009
-521.960	-79.483	-0.326	-0.111
-520.945	-200.000	-0.048	-0.302
-519.931	-200.000	0.002	0.207
-518.916	-200.000	-0.042	-0.377
-517.902	330.518	-0.060	-0.117
-516.887	-82.124	0.463	-0.153
-515.872	-18.696	-0.297	-0.187
-514.858	-79.037	0.107	0.037
-513.843	-200.000	0.090	0.405
-512.829	-83.029	-0.272	0.089
-511.814	-126.395	0.139	0.021
-510.799	-19.053	0.066	-0.041
-509.785	2.033	-0.210	0.153
-508.770	-128.238	0.283	-0.041
-507.756	443.957	0.098	-0.217
-506.741	-38.310	0.189	-0.101
-505.726	-105.206	-0.216	0.050
-504.712	-200.000	-0.004	-0.122
-503.697	-200.000	-0.014	-0.201
-502.683	-91.729	0.242	-0.070
-501.668	-200.000	-0.030	-0.212
-500.653	-55.910	0.135	0.061
-499.639	-81.455	-0.032	0.011
-498.624	-43.151	0.257	0.132
-497.610	273.842	0.139	-0.248
-496.595	36.973	-0.418	-0.374
-495.581	-8.348	-0.096	-0.065
-494.566	9.674	0.176	-0.135
-493.551	87.867	0.063	0.071
-492.537	-200.000	-0.027	-0.124
-491.522	-11.390	0.109	0.072
-490.508	57.594	-0.353	0.349
-489.493	800.000	0.120	0.362
-488.478	168.534	-0.122	0.175
-487.464	800.000	-0.042	-0.154
-486.449	-44.165	0.480	-0.244
-485.435	-200.000	-0.044	-0.516
-484.420	800.000	-0.018	0.051
-483.405	483.357	0.074	-0.170
-482.391	-67.766	-0.347	-0.137
-481.376	800.000	0.031	-0.102
-480.362	800.000	-0.050	-0.202
-479.347	-200.000	0.032	-0.238
-478.332	800.000	-0.045	-0.148
-477.318	59.483	-0.114	-0.114
-476.303	416.350	-0.036	0.078
-475.289	759.282	-0.032	-0.087
-474.274	-200.000	0.030	-0.157
-473.259	-15.479	-0.120	-0.077
-472.245	-144.385	0.335	0.031
-471.230	-177.650	0.123	-0.003
-470.216	148.951	-0.247	-0.337
-469.201	-23.629	-0.100	0.060
-468.186	14.012	-0.362	0.285
-467.172	-200.000	0.014	0.177
-466.157	-200.000	0.008	0.098
-465.143	-200.000	-0.027	-0.359
-464.128	351.849	0.075	0.150
-463.113	-90.821	-0.065	0.019
-462.099	50.106	-0.179	0.171
-461.084	576.828	0.083	0.205
-460.070	271.941	-0.182	0.324
-459.055	-200.000	-0.093	0.513
-458.040	-13.449	-0.244	0.160
-457.026	113.843	-0.138	-0.169
-456.011	800.000	-0.105	-0.415
-454.997	-47.320	-0.379	0.186
-453.982	-131.465	0.229	0.030
-452.968	-140.296	0.265	0.028
-451.953	-200.000	0.008	-0.069
-450.938	-171.306	-0.209	0.007
-449.924	125.198	0.041	-0.052
-448.909	800.000	0.066	0.235
-447.895	58.900	0.136	0.135
-446.880	800.000	0.063	0.223
-445.865	800.000	-0.108	0.374
-444.851	161.673	-0.170	-0.240
-443.836	-200.000	0.004	-0.245
-442.822	193.549	-0.053	-0.082
-441.807	800.000	-0.079	-0.243
-440.792	345.417	-0.144	-0.286
-439.778	-25.869	-0.215	0.128
-438.763	295.815	-0.080	-0.147
-437.749	-154.703	-0.351	0.024
-436.734	-200.000	-0.027	0.244
-435.719	-14.519	-0.268	0.174
-434.705	-51.549	-0.089	0.042
-433.690	-200.000	-0.003	-0.106
-432.676	-129.557	-0.103	-0.014
-431.661	-200.000	0.005	0.451
-430.646	-200.000	0.002	-0.063
-429.632	13.550	-0.182	0.143
-428.617	47.913	0.104	0.098
-427.603	-103.362	0.347	0.083
-426.588	800.000	-0.071	0.217
-425.573	-157.299	0.213	0.013
-424.559	460.029	0.163	0.366
-423.544	-131.261	0.095	0.013
-422.530	5.912	-0.135	0.101
-421.515	-143.361	0.171	0.017
-420.500	-0.012	-0.107	-0.077
-419.486	-93.795	0.102	-0.028
-418.471	-108.511	0.118	-0.026
-417.457	95.288	-0.242	0.278
-416.442	-53.887	-0.349	0.160
-415.428	-71.680	-0.171	-0.064
-414.413	84.207	-0.234	-0.257
-413.398	14.586	0.080	-0.063
-412.384	-92.435	0.347	-0.098
-411.369	800.000	0.062	-0.186
-410.355	23.573	0.186	-0.154
-409.340	245.717	-0.092	-0.157
-408.325	-171.874	-0.110	-0.004
-407.311	800.000	-0.041	0.120
-406.296	22.915	-0.160	-0.133
-405.282	-200.000	-0.022	0.136
-404.267	-62.104	0.169	-0.071
-403.252	93.395	0.213	0.243
-402.238	-69.831	0.430	-0.165
-401.223	-72.611	0.340	-0.126
-400.209	416.338	0.080	-0.172
-399.194	206.940	-0.064	0.101
-398.179	19.246	0.213	0.172
-397.165	-24.106	0.152	-0.092
-396.150	91.244	0.102	0.116
-395.136	-200.000	0.021	0.391
-394.121	214.134	-0.086	0.136
-393.106	-164.156	0.087	-0.004
-392.092	-162.155	0.372	0.019
-391.077	-11.865	-0.145	-0.095
-390.063	-27.702	0.306	-0.179
-389.048	-81.931	-0.422	0.139
-388.033	226.104	0.051	-0.083
-387.019	-200.000	0.047	0.296
-386.004	150.139	-0.096	0.131
-384.990	-171.541	-0.131	-0.004
-383.975	-200.000	0.010	0.221
-382.960	-16.431	-0.179	0.114
-381.946	-6.173	0.247	0.170
-380.931	13.943	0.070	-0.055
-379.917	-106.985	-0.075	-0.017
-378.902	-200.000	0.003	0.269
-377.888	74.368	-0.272	0.287
-376.873	-60.831	0.304	-0.129
-375.858	220.187	0.024	-0.038
-374.844	-200.000	-0.038	-0.346
-373.829	-121.509	0.105	-0.018
-372.815	-89.188	-0.277	0.082
-371.800	-105.589	0.088	0.020
-370.785	215.697	0.084	0.135
-369.771	384.072	-0.099	0.205
-368.756	121.228	0.201	-0.252
-367.742	-18.629	0.091	-0.057
-366.727	-117.188	0.519	-0.095
-365.712	16.192	-0.045	-0.036
-364.698	391.254	0.037	-0.077
-363.683	25.515	-0.116	0.097
-362.669	78.446	-0.150	-0.161
-361.654	6.325	-0.255	-0.190
-360.639	53.312	-0.028	-0.027
-359.625	-192.606	-0.180	-0.002
-358.610	-82.176	0.210	-0.069
-357.596	39.888	-0.248	-0.224
-356.581	-114.047	-0.275	0.053
-355.566	-8.094	-0.105	0.071
-354.552	741.916	0.103	0.278
-353.537	318.238	0.164	0.312
-352.523	347.091	0.094	-0.186
-351.508	169.136	-0.120	0.172
-350.493	-11.853	0.060	0.040
-349.479	-91.263	-0.296	-0.085
-348.464	56.898	-0.221	0.216
-347.450	-200.000	0.033	0.187
-346.435	135.923	-0.080	-0.104
-345.420	186.313	0.121	0.181
-344.406	107.428	-0.124	0.148
-343.391	-58.538	-0.088	0.039
-342.377	-44.491	-0.208	-0.105
-341.362	350.406	-0.064	-0.126
-340.348	20.713	0.190	0.154
-339.333	415.373	0.072	-0.155
-338.318	800.000	-0.058	-0.236
-337.304	338.442	-0.138	0.271
-336.289	-114.049	-0.151	0.029
-335.275	130.527	0.150	-0.193
-334.260	162.249	-0.083	0.117
-333.245	82.197	-0.073	-0.079
-332.231	-200.000	0.017	-0.115
-331.216	800.000	0.033	0.125
-330.202	1.434	-0.152	0.110
-329.187	69.383	-0.028	0.028
-328.172	-16.763	-0.225	-0.143
-327.158	220.499	0.132	-0.213
-326.143	512.978	-0.030	-0.070
-325.129	-200.000	-0.016	0.283
-324.114	-102.428	0.291	0.070
-323.099	26.231	0.295	0.248
-322.085	-104.337	0.181	0.042
-321.070	-200.000	-0.002	-0.025
-320.056	-87.861	-0.070	-0.021
-319.041	-200.000	-0.047	-0.242
-318.026	105.077	0.164	-0.194
-317.012	14.688	-0.145	0.114
-315.997	87.883	-0.208	0.232
-314.983	-35.407	0.164	0.090
-313.968	62.349	0.044	-0.044
-312.953	-200.000	-0.019	0.096
-311.939	155.580	0.167	-0.230
-310.924	31.025	-0.120	-0.104
-309.910	281.836	0.126	0.226
-308.895	488.702	-0.105	0.240
-307.880	-72.723	-0.272	0.101
-306.866	424.617	-0.131	-0.282
-305.851	92.472	-0.061	-0.069
-304.837	227.675	-0.130	0.213
-303.822	-200.000	0.403	-0.000
-302.807	-73.291	0.369	-0.135
-301.793	-82.712	0.046	0.015
-300.778	369.013	0.016	-0.032
-299.764	26.266	-0.104	0.087
-298.749	-26.359	0.089	0.052
-297.735	63.812	-0.114	-0.115
-296.720	-39.150	-0.286	-0.151
-295.705	-200.000	-0.012	0.492
-294.691	378.018	0.045	0.093
-293.676	73.919	-0.132	-0.138
-292.662	-200.000	0.016	-0.281
-291.647	-200.000	0.035	-0.348
-290.632	-200.000	0.003	0.047
-289.618	141.338	-0.043	0.057
-288.603	-200.000	0.006	0.070
-287.589	-56.676	-0.093	0.041
-286.574	-186.333	-0.198	-0.003
-285.559	484.124	-0.036	-0.082
-284.545	76.122	-0.081	0.086
-283.530	54.228	-0.080	-0.077
-282.516	800.000	0.057	-0.174
-281.501	321.072	0.082	0.156
-280.486	-85.562	-0.328	-0.102
-279.472	800.000	0.119	-0.371
-278.457	177.555	-0.039	-0.057
-277.443	-101.751	0.184	0.045
-276.428	-18.944	0.380	-0.237
-275.413	-154.827	-0.422	-0.028
-274.399	-200.000	0.018	0.161
-273.384	-36.329	-0.292	-0.158
-272.370	106.887	-0.134	-0.160
-271.355	225.929	0.102	-0.166
-270.340	-88.457	0.148	0.044
-269.326	-84.163	0.609	-0.194
-268.311	800.000	0.068	0.241
-267.297	-25.815	0.057	-0.033
-266.282	71.386	0.287	0.298
-265.267	800.000	-0.131	0.456
-264.253	28.416	-0.188	-0.159
-263.238	75.739	0.247	-0.261
-262.224	-47.045	-0.034	0.017
-261.209	-118.102	-0.031	-0.006
-260.195	-9.209	0.114	0.076
-259.180	22.626	-0.276	-0.226
-258.165	7.752	0.291	-0.218
-257.151	-200.000	0.000	-0.021
-256.136	106.780	0.145	0.172
-255.122	27.331	-0.264	0.222
-254.107	-88.074	-0.241	-0.072
-253.092	800.000	-0.025	0.088
-252.078	-20.489	-0.097	-0.060
-251.063	387.243	0.119	-0.246
-250.049	751.094	0.060	0.162
-249.034	800.000	-0.068	0.191
-248.019	-34.797	-0.151	0.083
-247.005	-200.000	0.023	-0.148
-245.990	800.000	-0.027	0.083
-244.976	-60.311	0.235	-0.100
-243.961	7.445	0.033	-0.025
-242.946	-135.335	0.392	-0.047
-241.932	-38.963	0.178	-0.094
-240.917	-200.000	0.014	-0.192
-239.903	-16.122	-0.005	-0.003
-238.888	-200.000	-0.003	0.040
-237.873	125.411	-0.060	0.076
-236.859	-42.403	0.094	0.048
-235.844	16.516	0.375	-0.297
-234.830	-151.633	0.331	0.024
-233.815	-200.000	-0.010	0.174
-232.800	204.050	0.050	-0.077
-231.786	800.000	0.075	-0.258
-230.771	-200.000	-0.005	0.509
-229.757	675.518	-0.121	0.314
-228.742	422.049	-0.060	-0.130
-227.727	80.324	0.083	0.090
-226.713	-166.870	-0.344	-0.014
-225.698	643.997	-0.017	0.044
-224.684	31.483	-0.364	-0.313
-223.669	-200.000	0.076	0.372
-222.655	120.285	0.185	0.229
-221.640	-200.000	0.025	-0.291
-220.625	-102.204	0.164	-0.039
-219.611	28.605	-0.158	0.134
-218.596	-56.907	0.210	-0.093
-217.582	-161.745	0.047	-0.002
-216.567	103.271	-0.171	0.200
-215.552	-200.000	-0.030	-0.147
-214.538	-82.055	0.336	-0.110
-213.523	-89.850	0.108	-0.032
-212.509	-84.357	-0.055	-0.017
-211.494	-41.921	-0.132	0.068
-210.479	120.211	0.129	-0.160
-209.465	800.000	0.084	0.341
-208.450	-200.000	-0.041	-0.406
-207.436	-118.269	-0.173	-0.031
-206.421	-27.172	-0.277	-0.161
-205.406	-200.000	-0.025	-0.549
-204.392	-33.649	-0.370	-0.204
-203.377	343.334	-0.061	0.120
-202.363	-37.026	-0.081	-0.043
-201.348	-200.000	-0.076	-0.372
-200.333	23.935	-0.176	0.145
-199.319	19.197	-0.167	-0.134
-198.304	-200.000	0.025	-0.251
-197.290	688.261	0.116	0.303
-196.275	-87.602	-0.176	-0.053
-195.260	-200.000	-0.008	0.354
-194.246	-64.749	-0.196	0.079
-193.231	43.920	0.087	0.080
-192.217	-19.253	0.118	0.073
-191.202	203.490	-0.015	0.023
-190.187	-80.635	0.178	0.059
-189.173	-166.294	0.184	-0.008
-188.158	46.618	0.235	0.218
-187.144	88.589	-0.076	0.084
-186.129	423.774	-0.039	0.085
-185.114	362.996	-0.092	0.186
-184.100	-141.244	-0.279	-0.028
-183.085	-200.000	0.012	0.071
-182.071	-131.738	-0.212	-0.028
-181.056	-44.113	-0.006	-0.003
-180.042	-200.000	-0.016	-0.376
-179.027	-12.095	0.183	-0.119
-178.012	-200.000	-0.050	-0.245
-176.998	-123.306	0.328	-0.052
-175.983	9.236	0.234	0.177
-174.969	65.552	-0.230	-0.233
-173.954	-48.926	0.213	-0.102
-172.939	-200.000	-0.001	0.045
-171.925	-200.000	-0.000	-0.131
-170.910	-105.400	0.110	0.025
-169.896	296.819	0.047	-0.086
-168.881	43.704	0.232	-0.212
-167.866	-51.093	0.090	-0.042
-166.852	77.608	0.151	-0.160
-165.837	-34.075	0.119	-0.065
-164.823	-200.000	0.012	-0.168
-163.808	-80.003	-0.348	0.117
-162.793	-155.550	0.154	0.010
-161.779	237.059	0.168	-0.277
-160.764	474.729	0.019	0.042
-159.750	-200.000	0.009	0.074
-158.735	-135.829	-0.128	-0.015
-157.720	800.000	-0.149	-0.424
-156.706	-186.031	0.229	0.003
-155.691	-58.054	-0.077	-0.034
-154.677	-69.610	-0.181	0.069
-153.662	-54.348	0.303	-0.137
-152.647	14.812	-0.071	0.055
-151.633	-200.000	0.073	0.339
-150.618	54.873	0.123	0.118
-149.604	-200.000	0.025	0.199
-148.589	144.390	0.142	0.190
-147.574	-200.000	0.154	0.000
-146.560	-95.542	0.253	0.068
-145.545	-38.433	-0.297	-0.157
-144.531	-84.032	-0.119	-0.038
-143.516	-114.650	0.279	-0.053
-142.502	-200.000	-0.031	0.249
-141.487	-13.101	-0.074	0.048
-140.472	-40.877	-0.061	0.031
-139.458	-96.058	0.145	-0.038
-138.443	-200.000	-0.011	-0.137
-137.429	170.932	0.122	-0.174
-136.414	-24.866	0.104	0.062
-135.399	-131.744	-0.138	0.018
-134.385	306.272	0.048	0.090
-133.370	-142.982	-0.128	-0.012
-132.356	-200.000	0.049	-0.312
-131.341	78.245	0.187	0.199
-130.326	-76.954	0.221	-0.077
-129.312	308.052	0.066	0.124
-128.297	-58.998	-0.114	0.049
-127.283	-200.000	-0.007	0.085
-126.268	-20.062	0.107	0.066
-125.253	-49.312	0.168	-0.080
-124.239	800.000	-0.129	0.419
-123.224	95.327	0.108	-0.123
-122.210	800.000	0.046	-0.166
-121.195	800.000	0.134	-0.394
-120.180	-18.009	0.251	0.156
-119.166	-64.843	0.174	0.070
-118.151	-200.000	-0.022	0.305
-117.137	-104.164	0.275	0.064
-116.122	-200.000	-0.044	-0.198
-115.107	-73.968	0.203	0.073
-114.093	-200.000	-0.110	-0.507
-113.078	127.251	0.148	-0.187
-112.064	-48.747	-0.064	-0.031
-111.049	-12.579	-0.080	-0.052
-110.034	-138.784	-0.407	0.044
-109.020	-200.000	-0.031	0.178
-108.005	800.000	-0.027	-0.076
-106.991	800.000	-0.021	-0.083
-105.976	-200.000	-0.019	-0.189
-104.962	-53.424	-0.115	-0.053
-103.947	-200.000	-0.002	0.093
-102.932	182.150	0.220	0.322
-101.918	641.493	0.051	0.130
-100.903	31.831	0.256	-0.219
-99.889	-59.653	-0.298	0.127
-98.874	-124.978	0.312	0.048
-97.859	-134.148	0.096	-0.012
-96.845	-111.014	-0.167	0.034
-95.830	-106.119	0.338	0.075
-94.816	8.321	-0.143	0.107
-93.801	78.787	0.178	-0.190
-92.786	-42.068	-0.093	-0.047
-91.772	-108.298	0.342	-0.073
-90.757	-81.848	0.165	0.054
-89.743	570.286	-0.153	-0.370
-88.728	-109.276	0.087	-0.018
-87.713	14.562	-0.057	-0.045
-86.699	-109.573	0.345	0.072
-85.684	-17.551	0.205	-0.128
-84.670	800.000	-0.011	-0.037
-83.655	46.911	0.037	0.034
-82.640	30.336	0.199	0.169
-81.626	80.375	-0.130	0.139
-80.611	-120.445	0.192	0.032
-79.597	-183.500	0.179	0.003
-78.582	115.075	-0.260	0.316
-77.567	71.233	-0.311	0.321
-76.553	-17.645	0.045	0.028
-75.538	-12.699	0.300	0.194
-74.524	-200.000	-0.000	-0.079
-73.509	247.514	0.168	0.282
-72.494	800.000	-0.018	0.050
-71.480	316.977	0.336	0.632
-70.465	-200.000	-0.018	0.180
-69.451	-163.756	0.094	0.004
-68.436	242.846	-0.105	-0.174
-67.422	-53.537	0.284	-0.129
-66.407	454.370	-0.070	-0.153
-65.392	67.878	-0.136	0.139
-64.378	-200.000	-0.011	-0.079
-63.363	194.779	0.265	0.400
-62.349	-55.691	0.336	0.149
-61.334	48.774	-1.053	-0.982
-60.319	-31.209	0.234	0.131
-59.305	-200.000	-0.123	-0.554
-58.290	-200.000	0.163	0.914
-57.276	800.000	0.473	1.820
-56.261	-200.000	88.012	502.710
-55.246	537.536	1375.076	3246.446
-54.232	183.376	2611.507	3834.704
-53.217	114.697	2246.555	2721.136
-52.203	45.936	1774.120	1631.022
-51.188	39.272	1580.182	1405.277
-50.173	36.837	1551.405	1362.526
-49.159	54.011	1597.569	1526.005
-48.144	57.668	1617.040	1570.656
-47.130	39.725	1575.919	1404.484
-46.115	36.517	1560.177	1367.748
-45.100	36.386	1556.434	1363.484
-44.086	36.331	1554.228	1361.111
-43.071	36.362	1552.217	1359.512
-42.057	36.204	1551.349	1357.585
-41.042	36.213	1549.910	1356.339
-40.027	36.238	1548.289	1355.040
-39.013	36.217	1546.872	1353.601
-37.998	36.182	1545.675	1352.250
-36.984	36.123	1544.482	1350.742
-35.969	36.223	1542.657	1349.793
-34.954	36.324	1541.089	1349.073
-33.940	36.210	1539.809	1347.103
-32.925	36.216	1538.284	1345.755
-31.911	36.271	1537.212	1345.150
-30.896	36.303	1535.965	1344.231
-29.881	36.302	1534.942	1343.272
-28.867	36.260	1533.178	1341.384
-27.852	36.295	1531.787	1340.354
-26.838	36.326	1530.047	1338.997
-25.823	36.280	1528.627	1337.378
-24.809	36.324	1526.510	1335.777
-23.794	36.347	1525.186	1334.724
-22.779	36.345	1523.996	1333.616
-21.765	36.292	1523.854	1333.078
-20.750	36.386	1522.091	1332.129
-19.736	36.208	1521.395	1330.241
-18.721	36.292	1519.774	1329.347
-17.706	36.167	1518.857	1327.634
-16.692	36.177	1517.857	1326.771
-15.677	36.231	1516.717	1326.097
-14.663	36.266	1515.264	1325.014
-13.648	36.217	1514.339	1323.816
-12.633	36.236	1513.462	1323.128
-11.619	36.279	1512.307	1322.356
-10.604	36.373	1511.374	1322.134
-9.590	36.174	1511.238	1320.601
-8.575	36.264	1509.741	1319.857
-7.560	36.216	1508.973	1318.804
-6.546	36.170	1508.419	1317.951
-5.531	36.259	1507.175	1317.419
-4.517	36.239	1506.286	1316.459
-3.502	36.246	1504.972	1315.303
-2.487	36.311	1503.712	1314.590
-1.473	36.160	1502.917	1312.816
-0.458	36.289	1501.082	1312.037
0.556	34.618	1491.933	1302.363
1.571	32.003	1464.840	1261.055
2.586	28.894	1402.545	1187.281
3.600	27.450	1318.785	1107.499
4.615	25.887	1271.541	1058.556
5.629	21.699	1212.295	985.638
6.644	10.344	1119.608	850.869
7.659	1.576	1074.012	771.801
8.673	0.320	1067.842	760.958
9.688	0.145	1064.932	757.936
10.702	0.046	1063.503	756.359
11.717	0.040	1061.429	754.784
12.731	4.000	1066.477	778.247
13.746	14.827	1082.170	844.610
14.761	21.797	1091.054	886.855
15.775	22.225	1090.963	888.869
16.790	22.158	1090.108	887.754
17.804	21.977	1089.554	886.308
18.819	21.893	1088.447	884.906
19.834	21.972	1087.654	884.583
20.848	22.004	1087.177	884.278
21.863	22.083	1086.822	884.307
22.877	22.058	1086.382	883.748
23.892	21.940	1085.853	882.644
24.907	21.908	1084.819	881.564
25.921	21.922	1084.143	881.010
26.936	22.164	1083.188	881.368
27.950	22.053	1082.321	880.025
28.965	21.910	1081.090	878.231
29.980	21.711	1079.799	876.113
30.994	21.739	1078.169	874.852
32.009	21.997	1077.448	875.476
33.023	22.015	1076.765	874.931
34.038	21.815	1075.872	873.135
35.053	21.854	1075.217	872.721
36.067	21.927	1074.270	872.236
37.082	21.948	1074.002	872.047
38.096	22.040	1072.467	871.181
39.111	22.128	1072.071	871.217
40.126	22.221	1071.160	870.858
41.140	22.138	1069.840	869.302
42.155	21.841	1068.530	866.691
43.169	21.633	1066.967	864.318
44.184	21.571	1066.075	863.215
45.199	21.761	1064.594	862.876
46.213	21.654	1063.722	861.564
47.228	21.572	1062.749	860.300
48.242	21.705	1061.834	860.133
49.257	21.785	1061.618	860.278
50.271	21.934	1060.537	860.056
51.286	21.951	1059.888	859.534
52.301	21.988	1059.230	859.106
53.315	22.122	1058.267	858.904
54.330	21.947	1057.743	857.550
55.344	21.837	1057.051	856.375
56.359	21.814	1056.376	855.640
57.374	21.995	1054.771	855.146
58.388	21.734	1054.116	853.267
59.403	21.653	1053.274	852.117
60.417	21.716	1052.811	851.972
61.432	21.595	1051.660	850.379
62.447	21.603	1050.833	849.675
63.461	21.721	1050.608	849.987
64.476	21.718	1049.435	848.952
65.490	21.793	1048.620	848.577
66.505	21.676	1047.296	846.866
67.520	21.682	1047.028	846.605
68.534	21.738	1046.250	846.172
69.549	21.653	1044.989	844.665
70.563	21.387	1043.796	842.344
71.578	21.309	1043.031	841.279
72.593	21.357	1042.191	840.758
73.607	21.142	1041.272	838.908
74.622	21.195	1040.280	838.290
75.636	21.476	1040.030	839.360
76.651	21.604	1038.550	838.708
77.666	21.485	1037.930	837.563
78.680	21.239	1037.179	835.704
79.695	21.340	1036.610	835.657
80.709	21.498	1035.955	835.808
81.724	21.560	1035.108	835.349
82.739	21.467	1034.073	833.995
83.753	21.520	1033.135	833.418
84.768	21.923	1032.477	834.729
85.782	22.157	1031.828	835.246
86.797	22.215	1031.344	835.055
87.812	22.114	1030.597	833.893
88.826	22.055	1029.432	832.598
89.841	22.010	1028.200	831.316
90.855	22.204	1027.890	831.908
91.870	22.192	1026.855	830.944
92.884	22.118	1026.464	830.202
93.899	22.012	1025.255	828.653
94.914	21.912	1023.996	827.086
95.928	21.922	1023.615	826.753
96.943	22.180	1022.166	826.723
97.957	21.846	1021.268	824.356
98.972	21.531	1020.236	821.972
99.987	21.425	1019.071	820.460
101.001	21.442	1018.533	820.034
102.016	21.711	1017.937	820.742
103.030	21.854	1017.314	820.840
104.045	21.794	1015.929	819.368
105.060	21.696	1014.188	817.435
106.074	21.480	1013.324	815.659
107.089	21.429	1012.792	814.919
108.103	21.857	1012.560	816.653
109.118	22.048	1011.051	816.253
110.133	21.751	1009.838	813.823
111.147	21.717	1008.958	812.882
112.162	21.586	1008.049	811.473
113.176	21.468	1006.611	809.696
114.191	21.485	1005.999	809.212
115.206	21.507	1005.578	808.903
116.220	21.170	1004.399	806.326
117.235	21.135	1003.436	805.322
118.249	21.318	1002.426	805.284
119.264	21.285	1001.578	804.377
120.279	21.336	1000.519	803.691
121.293	21.355	999.715	803.059
122.308	21.392	999.316	802.841
123.322	21.371	998.807	802.262
124.337	21.365	997.416	801.047
125.352	21.257	995.920	799.280
126.366	20.893	994.638	796.519
127.381	20.513	992.952	793.361
128.395	20.968	992.735	795.197
129.410	21.690	992.538	798.257
130.424	21.927	991.483	798.419
131.439	21.953	990.195	797.428
132.454	21.848	989.299	796.157
133.468	21.784	988.708	795.325
134.483	21.699	987.946	794.254
135.497	21.897	986.755	794.122
136.512	22.064	986.425	794.541
137.527	22.095	985.777	794.090
138.541	22.113	984.657	793.197
139.556	22.169	983.972	792.829
140.570	22.017	983.641	791.810
141.585	22.187	982.452	791.547
142.600	22.065	981.626	790.263
143.614	22.059	980.824	789.518
144.629	22.088	980.222	789.093
145.643	22.330	979.423	789.466
146.658	22.207	978.177	787.844
147.673	22.053	977.333	786.405
148.687	22.006	976.120	785.148
149.702	21.934	975.245	784.053
150.716	21.825	973.800	782.335
151.731	21.725	973.104	781.262
152.746	21.870	972.433	781.297
153.760	22.019	971.938	781.498
154.775	22.169	971.106	781.423
155.789	22.201	969.929	780.551
156.804	22.243	968.807	779.764
157.819	22.141	968.028	778.617
158.833	22.239	967.038	778.185
159.848	22.351	966.249	777.979
160.862	22.340	966.093	777.734
161.877	22.221	964.338	775.725
162.892	22.177	963.341	774.662
163.906	22.432	962.357	774.924
164.921	22.206	961.886	773.482
165.935	22.156	960.771	772.300
166.950	22.085	960.052	771.342
167.964	22.096	959.256	770.681
168.979	22.092	957.930	769.530
169.994	22.138	956.457	768.482
171.008	21.928	955.417	766.657
172.023	22.118	955.125	767.185
173.037	22.171	954.595	766.924
174.052	22.070	952.880	765.038
175.067	21.795	952.370	763.366
176.081	21.860	951.628	762.982
177.096	22.110	950.384	763.006
178.110	22.009	949.451	761.750
179.125	21.784	948.767	760.161
180.140	21.470	947.944	758.071
181.154	21.486	947.172	757.459
182.169	21.673	946.483	757.647
183.183	21.901	946.071	758.236
184.198	22.199	945.851	759.282
185.213	22.114	944.957	758.128
186.227	21.946	944.354	756.854
187.242	22.206	943.676	757.364
188.256	22.237	942.805	756.730
189.271	22.194	942.372	756.130
190.286	22.129	941.551	755.127
191.300	22.179	940.713	754.602
192.315	21.690	939.028	751.088
193.329	21.117	937.494	747.340
194.344	20.620	936.532	744.381
195.359	21.016	937.454	746.745
196.373	21.990	937.037	750.511
197.388	22.131	937.021	751.038
198.402	22.021	936.283	749.910
199.417	21.921	935.816	749.042
200.432	22.064	935.101	749.014
201.446	22.048	934.095	748.074
202.461	21.613	933.437	745.626
203.475	21.648	932.730	745.147
204.490	21.167	931.631	742.156
205.504	20.226	929.054	736.049
206.519	20.498	929.598	737.569
207.534	21.611	929.289	741.975
208.548	21.746	928.830	742.118
209.563	21.905	929.251	743.061
210.577	21.978	928.522	742.721
211.592	21.742	927.165	740.572
212.607	22.040	927.356	741.919
213.621	22.253	927.121	742.566
214.636	22.151	926.196	741.328
215.650	22.143	925.527	740.694
216.665	22.287	924.658	740.540
217.680	22.292	924.098	740.046
218.694	22.377	923.529	739.881
219.709	21.956	922.854	737.505
220.723	21.579	921.782	735.000
221.738	21.735	921.632	735.471
222.753	21.901	921.074	735.659
223.767	21.928	919.925	734.786
224.782	22.274	918.828	735.291
225.796	22.276	918.458	734.939
226.811	22.349	918.126	734.915
227.826	21.997	916.877	732.382
228.840	21.165	915.513	727.760
229.855	21.022	915.084	726.758
230.869	21.363	914.523	727.669
231.884	21.087	913.233	725.432
232.899	21.115	912.559	724.947
233.913	21.784	913.357	728.300
234.928	22.033	913.006	728.989
235.942	21.977	912.232	728.074
236.957	22.019	911.170	727.336
237.972	21.699	910.425	725.352
238.986	21.600	910.057	724.585
240.001	21.778	909.184	724.561
241.015	21.746	908.644	723.933
242.030	21.829	907.814	723.549
243.045	21.964	907.341	723.666
244.059	22.108	906.702	723.686
245.074	22.240	905.969	723.579
246.088	22.191	905.385	722.849
247.103	21.745	904.311	720.097
248.117	21.699	904.009	719.602
249.132	22.250	903.824	721.653
250.147	22.606	903.943	723.144
251.161	22.692	902.977	722.659
252.176	22.886	902.822	723.266
253.190	22.832	902.198	722.481
254.205	22.880	901.140	721.766
255.220	23.222	900.797	722.824
256.234	23.070	900.282	721.725
257.249	22.986	899.734	720.881
258.263	22.686	899.125	719.107
259.278	22.814	898.325	718.926
260.293	23.016	897.969	719.397
261.307	22.962	897.624	718.837
262.322	22.918	896.762	717.905
263.336	22.801	895.377	716.260
264.351	22.420	894.069	713.607
265.366	21.226	892.387	707.368
266.380	20.739	891.404	704.553
267.395	21.633	892.050	708.621
268.409	22.489	891.905	711.907
269.424	22.479	891.288	711.308
270.439	22.435	891.493	711.233
271.453	22.699	890.124	711.144
272.468	22.723	889.270	710.494
273.482	22.896	889.365	711.203
274.497	22.914	889.040	710.953
275.512	22.867	887.305	709.313
276.526	22.245	886.333	705.979
277.541	22.376	886.083	706.242
278.555	22.826	885.558	707.566
279.570	22.635	885.064	706.343
280.585	22.456	884.198	704.870
281.599	22.560	883.891	704.982
282.614	22.629	883.415	704.815
283.628	22.220	881.822	701.849
284.643	21.761	881.304	699.543
285.657	22.345	881.233	701.756
286.672	22.259	880.135	700.476
287.687	21.722	879.746	697.966
288.701	22.063	879.531	699.092
289.716	22.523	878.954	700.401
290.730	22.003	878.293	697.745
291.745	21.891	877.582	696.673
292.760	21.840	876.286	695.380
293.774	21.688	875.727	694.274
294.789	22.640	876.484	698.586
295.803	23.120	876.719	700.612
296.818	23.106	876.252	700.124
297.833	23.268	875.722	700.277
298.847	23.133	873.892	698.220
299.862	22.859	873.227	696.544
300.876	22.947	872.936	696.600
301.891	23.195	872.464	697.138
302.906	23.297	871.875	697.005
303.920	22.888	870.632	694.345
304.935	22.809	870.095	693.545
305.949	23.077	870.098	694.536
306.964	23.224	869.511	694.584
307.979	23.011	868.456	692.847
308.993	23.046	868.037	692.589
310.008	23.204	867.912	693.046
311.022	23.458	867.401	693.570
312.037	23.271	866.989	692.449
313.052	23.111	865.739	690.763
314.066	22.917	865.572	689.813
315.081	22.275	863.984	685.982
316.095	21.476	862.759	681.834
317.110	22.068	862.847	684.150
318.125	22.946	863.068	687.684
319.139	22.566	861.760	685.105
320.154	21.395	859.869	678.995
321.168	21.066	858.747	676.775
322.183	21.615	859.575	679.498
323.197	22.591	859.687	683.313
324.212	22.735	859.641	683.771
325.227	22.845	859.282	683.853
326.241	23.153	858.606	684.446
327.256	22.984	857.987	683.240
328.270	22.839	857.567	682.284
329.285	22.744	856.586	681.076
330.300	22.599	855.811	679.839
331.314	22.453	855.059	678.621
332.329	22.530	854.296	678.251
333.343	22.953	854.102	679.665
334.358	23.088	854.250	680.241
335.373	23.096	853.700	679.774
336.387	23.013	852.656	678.563
337.402	23.328	852.526	679.609
338.416	23.549	851.802	679.818
339.431	23.501	851.335	679.201
340.446	23.455	850.643	678.413
341.460	23.721	850.433	679.204
342.475	23.666	849.639	678.301
343.489	23.444	848.980	676.864
344.504	23.344	848.570	676.098
345.519	23.622	848.047	676.681
346.533	23.975	847.305	677.373
347.548	23.986	847.003	677.112
348.562	24.073	846.742	677.177
349.577	23.936	846.178	676.144
350.592	23.744	845.869	675.107
351.606	23.839	844.772	674.532
352.621	23.757	844.656	674.069
353.635	23.702	844.186	673.427
354.650	23.654	843.503	672.639
355.665	23.358	842.515	670.674
356.679	22.336	840.628	665.252
357.694	22.161	840.145	664.147
358.708	22.921	840.048	666.882
359.723	22.889	839.630	666.368
360.738	23.029	839.808	666.979
361.752	23.520	839.413	668.459
362.767	23.605	838.949	668.353
363.781	23.809	839.102	669.181
364.796	24.010	838.855	669.682
365.810	24.299	838.148	670.145
366.825	24.260	837.697	669.579
367.840	24.140	837.600	668.990
368.854	24.015	837.349	668.262
369.869	23.642	836.217	665.901
370.883	23.511	835.375	664.681
371.898	23.610	834.648	664.414
372.913	23.510	834.070	663.520
373.927	23.598	833.305	663.180
374.942	23.651	833.260	663.284
375.956	23.773	832.317	662.930
376.971	23.903	831.885	663.012
377.986	23.953	831.241	662.630
379.000	24.177	830.798	663.050
380.015	24.189	830.293	662.633
381.029	24.064	829.533	661.503
382.044	24.095	829.060	661.182
383.059	24.185	828.530	661.036
384.073	24.162	828.053	660.512
385.088	24.205	827.376	660.070
386.102	24.195	826.837	659.547
387.117	23.913	826.269	657.991
388.132	23.905	825.526	657.311
389.146	23.805	824.822	656.323
390.161	23.164	823.862	653.137
391.175	23.238	824.105	653.543
392.190	23.712	823.809	654.999
393.205	23.836	823.595	655.230
394.219	22.982	821.270	650.180
395.234	21.410	819.302	642.794
396.248	20.483	818.110	638.395
397.263	21.626	819.014	643.247
398.278	23.413	820.298	650.764
399.292	23.887	820.436	652.556
400.307	23.522	819.660	650.545
401.321	23.421	819.205	649.754
402.336	23.652	818.822	650.240
403.350	23.926	818.558	650.977
404.365	24.270	818.571	652.189
405.380	24.586	818.364	653.121
406.394	24.772	817.970	653.429
407.409	25.003	817.675	653.977
408.423	24.870	817.145	653.010
409.438	24.794	816.414	652.092
410.453	24.751	816.019	651.561
411.467	24.946	815.615	651.891
412.482	24.918	814.728	651.023
413.496	24.866	814.409	650.522
414.511	24.843	814.403	650.374
415.526	24.888	813.873	650.059
416.540	25.005	813.069	649.782
417.555	24.848	812.866	648.996
418.569	24.587	811.826	647.160
419.584	24.582	811.757	647.029
420.599	24.477	811.331	646.255
421.613	151.054	1365.088	1788.063
422.628	131.251	1445.791	1788.182
