DTS Sentinel unit serial number:	SN413079Multiplexer serial number:	ORYXHardware model number:	OX4-SRSoftware version number:	ORYX F/W v4.00 Oryx Data Collector v3.7.2.0data status	okinstallation	princeton_trtdifferential loss correction	single-endedforward channel	channel 3reverse channel	N/Adate	2019/09/12time	03:54:11forward acquisition time	60.00reverse acquisition time	0.00gamma	496.2192k internal	0.2321k external	0.2321temperature offset calibration	1.0070default loss term (dB/km)	0.3790temperature slope calibration	1.0000multiplexer offset coefficient	1.0000multiplexer slope coefficient	1.0000fibre end	0.00T internal ref (°C)	32.12T ext. ref 1 (°C)	2.15T ext. ref 2 (°C)	26.08length (m)	temperature (°C)	Stokes	anti-Stokes-747.200	270.257	0.187	0.333
-746.185	-200.000	-0.058	0.360
-745.171	28.785	-0.162	0.138
-744.156	-161.384	-0.430	-0.022
-743.142	100.941	0.301	-0.354
-742.127	497.664	-0.068	0.159
-741.112	-200.000	0.028	0.323
-740.098	-200.000	0.004	0.123
-739.083	32.738	0.312	-0.273
-738.069	-200.000	-0.009	0.219
-737.054	-200.000	-0.075	-0.342
-736.039	800.000	0.031	0.104
-735.025	135.692	0.241	0.317
-734.010	-200.000	-0.041	0.239
-732.996	227.765	-0.183	-0.300
-731.981	-160.517	-0.415	-0.022
-730.966	-19.075	0.214	-0.134
-729.952	-128.983	-0.106	0.015
-728.937	6.442	-0.178	-0.134
-727.923	169.655	0.193	-0.279
-726.908	-138.735	0.327	0.036
-725.894	-200.000	-0.001	-0.176
-724.879	-26.770	-0.182	-0.107
-723.864	319.303	-0.102	0.196
-722.850	8.185	0.097	-0.073
-721.835	158.417	0.062	-0.087
-720.821	-123.107	-0.230	-0.037
-719.806	653.966	-0.047	0.121
-718.791	-25.302	-0.260	-0.155
-717.777	324.144	0.156	-0.301
-716.762	364.266	0.103	0.210
-715.748	77.558	0.142	0.152
-714.733	58.174	0.229	0.226
-713.718	200.563	-0.106	0.165
-712.704	-58.088	0.050	-0.022
-711.689	-144.209	0.235	-0.022
-710.675	-110.212	0.311	-0.066
-709.660	-14.999	0.162	0.105
-708.645	-64.174	0.212	-0.087
-707.631	-200.000	0.009	-0.096
-706.616	-200.000	-0.011	0.133
-705.602	-178.432	0.527	-0.012
-704.587	-59.766	-0.185	0.080
-703.572	-39.105	0.117	-0.062
-702.558	-57.226	0.289	-0.128
-701.543	3.609	0.501	-0.368
-700.529	-200.000	-0.006	0.170
-699.514	96.499	0.248	0.286
-698.499	-200.000	0.014	0.109
-697.485	270.710	0.072	0.128
-696.470	-121.207	0.235	0.040
-695.456	-94.604	0.190	-0.052
-694.441	413.266	0.141	0.302
-693.426	-76.882	-0.100	0.035
-692.412	-170.933	0.256	0.009
-691.397	-200.000	-0.067	-0.339
-690.383	125.037	0.246	-0.313
-689.368	162.447	0.005	-0.008
-688.354	26.895	0.224	-0.189
-687.339	17.119	-0.104	0.083
-686.324	522.049	-0.045	-0.107
-685.310	498.843	0.074	0.173
-684.295	37.258	-0.045	-0.040
-683.281	-200.000	-0.013	-0.288
-682.266	800.000	0.080	-0.299
-681.251	-119.419	-0.203	-0.036
-680.237	-22.555	-0.181	-0.110
-679.222	-155.810	0.301	0.019
-678.208	-200.000	0.003	-0.053
-677.193	-200.000	0.040	0.378
-676.178	32.958	0.291	-0.255
-675.164	-200.000	-0.016	-0.233
-674.149	-102.906	0.268	0.064
-673.135	-200.000	0.000	0.206
-672.120	-9.908	0.184	-0.123
-671.105	-44.413	0.089	-0.045
-670.091	-95.526	-0.228	-0.062
-669.076	86.698	0.224	0.249
-668.062	800.000	0.058	0.173
-667.047	-160.960	0.029	-0.002
-666.032	800.000	0.120	-0.356
-665.018	41.590	-0.195	0.178
-664.003	800.000	0.089	-0.338
-662.989	5.429	-0.267	-0.198
-661.974	12.729	-0.167	-0.130
-660.959	41.654	-0.162	-0.148
-659.945	155.070	-0.084	-0.117
-658.930	-7.068	0.103	-0.070
-657.916	695.761	0.091	-0.240
-656.901	-200.000	0.011	0.225
-655.886	-92.755	-0.243	0.069
-654.872	-128.440	0.330	-0.047
-653.857	93.383	-0.133	-0.152
-652.843	25.827	-0.190	-0.160
-651.828	-69.408	-0.103	0.040
-650.814	246.008	0.127	-0.215
-649.799	16.584	-0.104	0.083
-648.784	-54.017	0.511	0.234
-647.770	700.961	-0.068	-0.181
-646.755	800.000	0.100	-0.429
-645.741	-97.558	-0.125	-0.033
-644.726	27.953	-0.125	-0.106
-643.711	551.227	-0.029	-0.071
-642.697	286.449	-0.212	-0.385
-641.682	-139.577	-0.118	-0.013
-640.668	-165.576	-0.116	-0.005
-639.653	103.189	0.188	-0.222
-638.638	-70.604	-0.151	-0.057
-637.624	-75.704	-0.316	-0.113
-636.609	-200.000	0.086	0.411
-635.595	800.000	-0.026	0.076
-634.580	-200.000	0.011	-0.110
-633.565	-172.618	0.381	0.012
-632.551	9.318	-0.112	0.086
-631.536	131.359	0.106	-0.137
-630.522	149.447	0.074	-0.101
-629.507	800.000	-0.156	-0.458
-628.492	238.637	0.100	-0.167
-627.478	-200.000	-0.021	0.106
-626.463	75.358	0.143	-0.151
-625.449	-155.257	-0.278	-0.018
-624.434	-200.000	-0.050	-0.260
-623.419	-52.263	0.458	-0.213
-622.405	257.325	-0.035	0.060
-621.390	-71.601	0.443	-0.166
-620.376	-70.950	0.121	0.046
-619.361	800.000	-0.026	-0.073
-618.346	329.483	0.144	0.279
-617.332	-43.696	-0.121	-0.061
-616.317	625.917	-0.068	-0.172
-615.303	-151.087	-0.219	0.017
-614.288	-135.980	0.098	-0.012
-613.273	-74.365	0.230	-0.083
-612.259	-200.000	0.021	-0.345
-611.244	110.383	0.105	-0.127
-610.230	68.601	0.096	0.099
-609.215	37.170	0.162	0.144
-608.201	-20.264	-0.175	-0.108
-607.186	800.000	0.050	0.155
-606.171	15.475	0.188	0.149
-605.157	44.770	0.225	-0.208
-604.142	81.950	-0.095	0.103
-603.128	69.439	0.169	0.175
-602.113	682.664	-0.040	-0.105
-601.098	800.000	-0.037	0.118
-600.084	-115.215	-0.348	0.066
-599.069	247.316	0.069	-0.117
-598.055	-200.000	-0.040	-0.217
-597.040	-83.175	0.102	-0.033
-596.025	50.632	0.281	-0.267
-595.011	182.837	-0.202	0.299
-593.996	293.635	-0.130	0.239
-592.982	-84.952	0.111	0.035
-591.967	800.000	-0.055	-0.231
-590.952	-90.338	-0.493	0.144
-589.938	-200.000	0.022	0.138
-588.923	30.628	-0.188	0.161
-587.909	-54.252	0.096	-0.044
-586.894	-129.550	-0.372	-0.052
-585.879	391.217	0.100	-0.209
-584.865	-9.053	0.063	-0.042
-583.850	-98.309	0.244	-0.063
-582.836	44.782	-0.119	0.110
-581.821	62.133	0.031	0.031
-580.806	52.188	-0.158	-0.151
-579.792	3.463	0.190	-0.139
-578.777	-200.000	-0.004	0.084
-577.763	-107.922	-0.146	-0.032
-576.748	384.280	-0.139	0.288
-575.733	739.982	0.093	-0.250
-574.719	166.312	-0.079	0.112
-573.704	-109.700	0.197	0.042
-572.690	571.570	0.133	-0.325
-571.675	770.515	0.039	0.107
-570.661	800.000	0.073	0.311
-569.646	-158.896	-0.124	0.007
-568.631	-84.347	-0.270	0.086
-567.617	147.328	-0.183	0.247
-566.602	-61.196	0.040	-0.017
-565.588	-157.307	-0.187	0.011
-564.573	-66.339	0.346	-0.138
-563.558	8.636	0.131	-0.099
-562.544	800.000	0.066	-0.184
-561.529	-200.000	-0.052	0.237
-560.515	119.101	-0.150	-0.186
-559.500	10.848	0.181	-0.138
-558.485	800.000	-0.159	-0.535
-557.471	-175.876	-0.107	-0.003
-556.456	111.521	-0.080	0.097
-555.442	280.595	0.025	-0.046
-554.427	228.808	0.106	-0.174
-553.412	-36.705	-0.257	-0.138
-552.398	800.000	0.037	-0.146
-551.383	-200.000	-0.024	-0.280
-550.369	800.000	-0.047	-0.141
-549.354	-68.168	-0.010	0.004
-548.339	-93.517	0.060	-0.017
-547.325	-8.618	-0.100	0.068
-546.310	-200.000	0.009	-0.240
-545.296	190.312	0.089	0.133
-544.281	-17.221	-0.155	0.098
-543.266	16.305	0.166	0.131
-542.252	-116.153	-0.063	0.012
-541.237	2.064	-0.081	0.058
-540.223	-147.399	0.268	0.023
-539.208	-133.907	-0.193	0.024
-538.193	223.374	-0.145	-0.235
-537.179	-138.864	-0.488	0.053
-536.164	800.000	-0.065	-0.183
-535.150	10.900	0.220	-0.168
-534.135	306.121	0.150	0.279
-533.121	67.098	0.160	0.164
-532.106	738.167	-0.088	-0.235
-531.091	-52.918	-0.160	0.074
-530.077	-118.120	-0.179	0.032
-529.062	800.000	0.046	-0.157
-528.048	-200.000	0.000	0.058
-527.033	42.280	0.071	0.064
-526.018	-147.261	-0.184	-0.016
-525.004	200.732	0.064	0.099
-523.989	774.278	0.028	-0.078
-522.975	341.501	-0.107	-0.209
-521.960	-29.284	-0.126	0.072
-520.945	66.165	0.087	-0.089
-519.931	-88.007	0.220	-0.066
-518.916	-200.000	0.054	0.301
-517.902	-130.691	-0.403	0.054
-516.887	-200.000	-0.056	-0.547
-515.872	800.000	-0.089	0.250
-514.858	92.781	-0.025	0.028
-513.843	800.000	0.098	0.308
-512.829	800.000	-0.060	0.199
-511.814	-140.883	-0.130	0.013
-510.799	601.626	0.111	0.275
-509.785	566.490	-0.164	0.398
-508.770	58.422	-0.147	-0.144
-507.756	-83.825	0.222	0.071
-506.741	449.599	-0.132	0.291
-505.726	-200.000	0.006	-0.368
-504.712	-200.000	-0.042	-0.240
-503.697	201.178	-0.113	0.174
-502.683	326.998	-0.212	-0.408
-501.668	-115.247	-0.162	-0.031
-500.653	-30.732	0.168	-0.095
-499.639	-200.000	0.004	0.280
-498.624	-161.802	-0.136	0.007
-497.610	1.585	0.044	0.032
-496.595	129.195	0.141	-0.180
-495.581	-200.000	-0.012	-0.248
-494.566	-76.806	-0.264	-0.092
-493.551	491.876	0.034	-0.079
-492.537	320.058	-0.142	0.269
-491.522	-200.000	-0.020	0.163
-490.508	-149.876	0.433	-0.034
-489.493	145.199	-0.039	-0.052
-488.478	235.686	0.196	-0.324
-487.464	-89.719	-0.310	-0.091
-486.449	-142.273	-0.452	0.045
-485.435	47.455	-0.225	-0.210
-484.420	-109.199	-0.337	-0.072
-483.405	2.509	-0.203	-0.147
-482.391	214.960	0.250	0.396
-481.376	-93.769	0.248	-0.068
-480.362	197.143	-0.233	-0.356
-479.347	-110.442	0.262	-0.054
-478.332	-200.000	-0.026	0.201
-477.318	17.433	-0.200	-0.159
-476.303	-64.761	-0.264	-0.107
-475.289	272.852	-0.085	0.151
-474.274	-200.000	0.067	0.492
-473.259	-200.000	0.048	0.263
-472.245	-112.599	-0.207	0.041
-471.230	-169.195	-0.078	0.003
-470.216	97.332	0.138	-0.159
-469.201	744.173	0.106	0.285
-468.186	106.712	0.070	-0.083
-467.172	-200.000	0.049	-0.250
-466.157	800.000	-0.155	-0.559
-465.143	-200.000	-0.066	0.415
-464.128	-77.595	0.045	-0.015
-463.113	458.081	-0.063	0.140
-462.099	-71.067	-0.270	-0.102
-461.084	-200.000	0.038	-0.282
-460.070	13.678	0.170	0.132
-459.055	-200.000	0.002	-0.026
-458.040	-200.000	-0.015	0.169
-457.026	-24.756	0.309	-0.183
-456.011	-148.276	-0.044	-0.004
-454.997	175.628	-0.067	-0.097
-453.982	-200.000	-0.001	0.072
-452.968	800.000	0.060	-0.236
-451.953	-200.000	-0.059	-0.429
-450.938	-125.575	-0.370	-0.056
-449.924	63.535	-0.107	0.108
-448.909	-200.000	-0.028	0.211
-447.895	-113.236	0.236	0.046
-446.880	-55.093	-0.051	-0.023
-445.865	592.945	-0.105	0.259
-444.851	800.000	0.061	-0.222
-443.836	15.300	0.034	0.027
-442.822	800.000	0.058	-0.223
-441.807	-2.315	0.220	-0.154
-440.792	-33.595	-0.100	0.055
-439.778	-200.000	0.004	0.246
-438.763	121.860	-0.045	0.057
-437.749	-59.180	-0.354	0.152
-436.734	-131.987	0.239	-0.031
-435.719	243.224	-0.075	-0.125
-434.705	-82.134	0.044	0.014
-433.690	-50.593	0.181	-0.085
-432.676	44.142	0.161	0.148
-431.661	32.226	-0.223	0.192
-430.646	-30.131	-0.193	0.110
-429.632	302.091	0.198	0.365
-428.617	-163.500	0.258	0.012
-427.603	-27.811	-0.185	0.107
-426.588	591.768	0.084	-0.206
-425.573	-114.732	0.304	-0.058
-424.559	-141.897	-0.460	-0.046
-423.544	-7.168	-0.262	-0.177
-422.530	-61.254	-0.107	0.045
-421.515	-67.066	0.057	0.022
-420.500	756.843	-0.078	0.212
-419.486	13.830	0.260	-0.202
-418.471	656.509	0.070	0.179
-417.457	800.000	0.090	0.253
-416.442	-200.000	-0.038	0.393
-415.428	179.345	-0.191	-0.278
-414.413	-108.535	0.301	-0.064
-413.398	-12.389	0.086	-0.056
-412.384	231.694	0.183	0.300
-411.369	126.007	0.111	-0.141
-410.355	-64.761	0.162	0.065
-409.340	-100.566	0.298	-0.073
-408.325	531.162	-0.133	0.315
-407.311	-88.201	0.100	-0.030
-406.296	-145.480	-0.246	0.022
-405.282	-92.292	-0.226	0.064
-404.267	493.319	-0.153	-0.350
-403.252	800.000	-0.033	-0.127
-402.238	73.900	0.150	0.157
-401.223	69.710	-0.089	-0.092
-400.209	332.018	0.070	0.134
-399.194	389.118	-0.246	0.508
-398.179	565.630	0.079	0.192
-397.165	-155.406	-0.070	0.005
-396.150	760.103	0.070	-0.189
-395.136	-124.375	-0.123	-0.019
-394.121	-190.930	-0.105	0.001
-393.106	-200.000	0.000	0.028
-392.092	-200.000	-0.005	-0.045
-391.077	186.184	0.139	-0.206
-390.063	-132.143	0.119	-0.015
-389.048	-138.573	0.042	0.005
-388.033	-200.000	0.001	-0.012
-387.019	41.275	-0.161	0.145
-386.004	435.920	0.127	0.275
-384.990	-144.614	0.072	-0.007
-383.975	-200.000	-0.002	-0.181
-382.960	-11.767	0.046	0.030
-381.946	-200.000	0.004	0.081
-380.931	-9.940	0.482	0.320
-379.917	153.625	-0.125	0.171
-378.902	67.174	0.047	-0.048
-377.888	1.973	0.194	0.139
-376.873	-124.735	0.070	-0.011
-375.858	241.062	-0.194	0.323
-374.844	46.202	-0.187	-0.173
-373.829	79.448	0.197	-0.210
-372.815	800.000	0.118	-0.326
-371.800	252.250	0.053	0.089
-370.785	800.000	-0.057	-0.237
-369.771	-200.000	0.020	-0.284
-368.756	-74.751	0.185	0.066
-367.742	-71.973	0.139	-0.051
-366.727	-200.000	-0.001	-0.445
-365.712	242.852	0.141	0.235
-364.698	245.646	-0.228	0.383
-363.683	-200.000	-0.005	-0.142
-362.669	-200.000	-0.004	-0.095
-361.654	-77.986	0.186	-0.064
-360.639	39.399	0.203	-0.181
-359.625	-200.000	-0.029	-0.186
-358.610	350.619	0.111	-0.218
-357.596	152.155	0.151	-0.206
-356.581	734.360	-0.104	0.278
-355.566	29.398	-0.104	-0.088
-354.552	510.908	-0.219	-0.506
-353.537	-31.968	0.294	0.164
-352.523	-21.593	-0.135	0.082
-351.508	-40.381	0.134	-0.070
-350.493	246.127	0.154	0.259
-349.479	-200.000	-0.060	0.276
-348.464	-25.253	0.211	0.125
-347.450	730.698	0.151	-0.402
-346.435	-33.722	0.204	0.112
-345.420	559.912	-0.122	-0.293
-344.406	-200.000	0.048	0.401
-343.391	-38.906	-0.039	0.020
-342.377	-200.000	-0.018	-0.290
-341.362	-200.000	0.039	0.306
-340.348	694.992	0.078	-0.205
-339.333	-53.020	0.030	0.014
-338.318	-106.649	0.050	0.011
-337.304	-135.609	0.244	0.029
-336.289	138.145	0.153	0.200
-335.275	250.098	-0.173	0.292
-334.260	-72.233	0.367	0.135
-333.245	365.673	0.092	0.185
-332.231	182.406	0.093	-0.136
-331.216	800.000	-0.069	0.271
-330.202	13.668	0.396	-0.306
-329.187	44.721	0.146	-0.134
-328.172	-23.769	-0.109	0.065
-327.158	-66.618	0.077	0.030
-326.143	-44.381	0.302	-0.150
-325.129	-164.143	0.351	-0.016
-324.114	-200.000	-0.064	0.431
-323.099	800.000	0.034	-0.104
-322.085	-143.347	0.196	0.019
-321.070	154.375	-0.176	0.239
-320.056	3.703	0.184	0.133
-319.041	-200.000	0.037	0.191
-318.026	-200.000	-0.028	0.398
-317.012	33.900	0.175	-0.152
-315.997	-10.404	-0.217	-0.143
-314.983	-25.080	-0.244	-0.144
-313.968	-112.668	0.275	0.054
-312.953	-164.427	-0.018	-0.001
-311.939	800.000	-0.095	0.319
-310.924	-200.000	-0.076	0.553
-309.910	6.321	-0.337	-0.249
-308.895	39.393	-0.265	-0.236
-307.880	-109.639	-0.146	-0.031
-306.866	-39.787	-0.228	-0.119
-305.851	65.626	0.145	-0.146
-304.837	141.983	-0.231	0.304
-303.822	800.000	-0.044	-0.123
-302.807	-94.777	0.205	-0.055
-301.793	786.802	-0.081	0.221
-300.778	-92.991	0.123	-0.034
-299.764	317.466	0.038	-0.072
-298.749	196.946	0.080	-0.121
-297.735	157.270	0.182	0.250
-296.720	800.000	-0.150	-0.496
-295.705	-108.886	-0.255	0.054
-294.691	222.116	0.279	-0.446
-293.676	800.000	-0.044	-0.146
-292.662	800.000	-0.068	0.198
-291.647	116.309	-0.209	0.254
-290.632	193.715	-0.075	-0.113
-289.618	-70.065	-0.187	0.071
-288.603	-114.981	0.308	0.058
-287.589	-200.000	0.026	0.224
-286.574	-200.000	-0.022	-0.353
-285.559	800.000	0.020	-0.074
-284.545	-113.722	0.229	0.044
-283.530	-81.759	0.208	-0.068
-282.516	-97.495	-0.179	-0.046
-281.501	-86.048	-0.414	-0.127
-280.486	5.298	0.209	0.153
-279.472	129.889	-0.068	-0.086
-278.457	-121.462	-0.127	-0.021
-277.443	-189.849	0.242	-0.003
-276.428	253.622	0.328	-0.555
-275.413	-37.904	0.058	-0.030
-274.399	-91.467	0.130	-0.037
-273.384	-200.000	0.003	0.226
-272.370	-200.000	0.033	-0.206
-271.355	72.279	-0.078	-0.081
-270.340	383.171	-0.138	0.282
-269.326	30.503	-0.228	0.193
-268.311	-200.000	-0.031	0.156
-267.297	101.455	0.301	0.348
-266.282	-111.652	-0.193	-0.039
-265.267	144.399	-0.027	0.035
-264.253	-139.844	-0.329	0.035
-263.238	-184.366	0.104	-0.002
-262.224	51.572	-0.333	-0.314
-261.209	55.841	-0.229	-0.220
-260.195	-119.709	0.206	-0.035
-259.180	-64.036	0.301	0.122
-258.165	-113.673	0.250	-0.048
-257.151	254.016	-0.114	0.194
-256.136	-20.194	0.139	-0.085
-255.122	-200.000	0.001	0.063
-254.107	-100.914	0.200	0.049
-253.092	39.559	0.042	0.037
-252.078	48.840	0.244	0.227
-251.063	40.060	-0.021	-0.019
-250.049	-200.000	0.065	0.421
-249.034	145.703	-0.148	0.197
-248.019	129.896	-0.224	0.284
-247.005	-70.906	0.109	-0.041
-245.990	-200.000	0.032	0.267
-244.976	-48.825	-0.372	0.177
-243.961	-200.000	0.028	-0.209
-242.946	-200.000	0.019	0.177
-241.932	-90.007	-0.204	0.059
-240.917	150.248	0.088	0.119
-239.903	-89.203	0.168	0.049
-238.888	713.361	0.034	0.090
-237.873	76.697	0.057	-0.060
-236.859	6.478	-0.322	-0.237
-235.844	-200.000	0.016	0.260
-234.830	-47.772	-0.382	-0.183
-233.815	-143.574	-0.180	0.017
-232.800	92.133	-0.102	-0.114
-231.786	-4.166	-0.219	0.150
-230.771	-200.000	0.015	0.091
-229.757	125.781	0.164	-0.205
-228.742	-39.457	-0.230	0.120
-227.727	0.585	-0.042	-0.030
-226.713	-200.000	0.022	0.182
-225.698	-148.650	-0.167	-0.013
-224.684	-94.346	-0.014	-0.004
-223.669	-200.000	0.057	0.404
-222.655	-136.138	0.174	-0.020
-221.640	123.470	-0.062	-0.077
-220.625	169.779	0.159	0.225
-219.611	137.030	-0.228	-0.295
-218.596	33.528	-0.278	0.239
-217.582	-70.213	-0.219	0.083
-216.567	-200.000	-0.056	0.338
-215.552	-167.779	0.177	-0.007
-214.538	-132.076	0.045	0.006
-213.523	106.831	-0.228	-0.268
-212.509	-200.000	0.072	-0.593
-211.494	-29.144	-0.120	-0.068
-210.479	38.462	0.138	0.122
-209.465	159.092	-0.103	-0.141
-208.450	-200.000	0.025	-0.237
-207.436	633.225	-0.084	0.210
-206.421	-200.000	0.050	-0.255
-205.406	-30.703	0.155	-0.087
-204.392	292.690	-0.075	0.136
-203.377	27.026	-0.078	0.065
-202.363	-200.000	-0.019	0.194
-201.348	104.142	0.088	-0.102
-200.333	-178.125	0.211	-0.005
-199.319	65.968	-0.066	-0.066
-198.304	-65.936	-0.312	0.123
-197.290	67.037	-0.288	-0.290
-196.275	7.954	-0.271	-0.201
-195.260	-200.000	0.022	-0.319
-194.246	800.000	-0.054	0.198
-193.231	129.157	0.119	-0.150
-192.217	-106.577	0.208	0.046
-191.202	-200.000	-0.021	-0.184
-190.187	-181.168	-0.342	-0.007
-189.173	-200.000	0.015	0.110
-188.158	-10.091	0.065	0.043
-187.144	-68.098	-0.287	0.111
-186.129	-160.918	0.260	-0.014
-185.114	100.556	0.151	0.174
-184.100	-12.024	-0.111	0.072
-183.085	-200.000	-0.004	0.041
-182.071	639.444	0.088	0.220
-181.056	-128.766	0.322	0.045
-180.042	51.290	-0.085	-0.080
-179.027	196.941	0.111	0.168
-178.012	795.103	0.065	-0.177
-176.998	-23.809	0.077	0.046
-175.983	-155.019	0.417	-0.027
-174.969	193.340	0.260	0.389
-173.954	298.017	0.040	0.073
-172.939	-200.000	-0.025	-0.298
-171.925	156.779	-0.161	-0.219
-170.910	-117.395	0.331	0.059
-169.896	800.000	0.047	0.171
-168.881	134.869	0.157	0.202
-167.866	-80.014	-0.309	0.103
-166.852	-120.953	-0.109	-0.018
-165.837	142.419	-0.039	0.051
-164.823	24.746	0.105	0.086
-163.808	-159.697	0.406	-0.022
-162.793	-200.000	0.006	0.046
-161.779	83.398	0.158	0.170
-160.764	-54.180	0.181	-0.081
-159.750	-32.487	0.365	-0.201
-158.735	-110.963	-0.422	-0.086
-157.720	-118.643	0.121	-0.021
-156.706	-157.564	-0.217	-0.013
-155.691	115.027	-0.082	-0.099
-154.677	74.470	0.343	0.357
-153.662	109.306	-0.082	0.097
-152.647	655.065	-0.162	0.412
-151.633	3.376	-0.051	-0.037
-150.618	-36.540	0.092	0.049
-149.604	18.324	-0.232	-0.183
-148.589	-31.243	0.138	0.077
-147.574	139.172	-0.176	0.228
-146.560	174.230	0.169	0.242
-145.545	525.547	-0.080	-0.185
-144.531	-164.912	0.422	-0.019
-143.516	-64.339	0.119	-0.048
-142.502	-200.000	-0.037	0.369
-141.487	303.890	0.154	0.282
-140.472	-27.845	-0.348	-0.199
-139.458	-20.803	-0.292	0.177
-138.443	364.142	-0.098	0.195
-137.429	-200.000	0.014	-0.140
-136.414	-190.430	-0.130	0.001
-135.399	-53.069	0.341	0.155
-134.385	-67.604	0.116	-0.045
-133.370	45.550	0.229	-0.209
-132.356	-119.962	0.265	-0.045
-131.341	-12.496	0.348	0.224
-130.326	282.962	0.049	0.087
-129.312	-172.449	0.335	0.010
-128.297	670.963	0.141	-0.359
-127.283	-38.965	-0.195	-0.101
-126.268	544.580	0.140	0.330
-125.253	-200.000	-0.019	-0.212
-124.239	-200.000	0.095	-0.424
-123.224	-41.692	-0.358	0.181
-122.210	-200.000	0.043	0.297
-121.195	800.000	0.017	0.060
-120.180	308.305	-0.039	-0.071
-119.166	800.000	0.057	-0.187
-118.151	-77.360	-0.300	-0.103
-117.137	-94.183	-0.233	-0.063
-116.122	332.845	0.183	-0.350
-115.107	243.859	0.122	0.203
-114.093	-131.456	0.200	0.026
-113.078	7.457	0.245	0.181
-112.064	-12.202	0.126	0.081
-111.049	-200.000	0.003	-0.197
-110.034	800.000	-0.153	-0.535
-109.020	-200.000	-0.014	0.147
-108.005	800.000	-0.085	0.314
-106.991	-38.686	-0.272	0.142
-105.976	-200.000	0.049	0.240
-104.962	800.000	-0.056	0.185
-103.947	554.939	0.146	-0.347
-102.932	229.482	0.095	-0.153
-101.918	318.822	0.115	-0.214
-100.903	800.000	-0.133	-0.401
-99.889	-93.154	0.050	0.014
-98.874	-40.977	-0.217	0.111
-97.859	-70.884	0.219	0.081
-96.845	139.185	0.161	0.208
-95.830	537.589	-0.086	0.201
-94.816	83.881	-0.043	-0.046
-93.801	-200.000	-0.001	-0.164
-92.786	-200.000	0.008	0.078
-91.772	-48.607	0.298	0.141
-90.757	-67.358	0.259	-0.100
-89.743	700.567	-0.031	0.081
-88.728	-75.842	-0.076	0.027
-87.713	-200.000	0.034	0.287
-86.699	263.850	0.104	-0.178
-85.684	235.301	0.085	0.138
-84.670	168.340	0.184	-0.257
-83.655	57.306	-0.029	-0.028
-82.640	-37.569	-0.192	-0.101
-81.626	716.741	-0.093	0.244
-80.611	165.694	0.086	0.120
-79.597	359.953	0.113	0.222
-78.582	377.758	0.023	0.047
-77.567	-200.000	-0.018	-0.169
-76.553	-90.954	-0.126	-0.036
-75.538	-82.024	0.278	-0.090
-74.524	-200.000	-0.035	0.168
-73.509	90.708	-0.162	0.178
-72.494	-200.000	-0.021	0.306
-71.480	800.000	0.034	-0.125
-70.465	-86.652	0.056	0.017
-69.451	-18.568	-0.126	-0.077
-68.436	439.289	-0.157	0.338
-67.422	256.524	-0.213	0.361
-66.407	-89.524	-0.031	-0.009
-65.392	-200.000	0.033	-0.159
-64.378	-200.000	0.008	-0.083
-63.363	-103.229	0.509	0.118
-62.349	154.669	0.103	0.140
-61.334	-30.168	-1.012	-0.566
-60.319	82.855	0.503	0.538
-59.305	466.455	-0.391	-0.863
-58.290	249.720	0.625	1.043
-57.276	800.000	0.429	1.545
-56.261	-200.000	95.777	598.417
-55.246	573.448	1362.751	3268.918
-54.232	162.944	2538.790	3507.353
-53.217	112.652	2156.297	2568.184
-52.203	42.812	1703.316	1526.602
-51.188	35.294	1516.384	1307.965
-50.173	32.953	1489.679	1269.171
-49.159	51.870	1539.619	1441.452
-48.144	54.016	1556.625	1471.979
-47.130	35.452	1516.663	1309.080
-46.115	32.377	1501.768	1275.361
-45.100	32.185	1498.473	1271.212
-44.086	32.202	1496.306	1269.438
-43.071	32.169	1494.447	1267.591
-42.057	32.085	1493.524	1266.192
-41.042	32.108	1491.764	1264.803
-40.027	32.007	1490.580	1263.070
-39.013	32.075	1488.823	1261.988
-37.998	32.111	1487.848	1261.355
-36.984	32.109	1486.584	1260.217
-35.969	32.146	1484.743	1258.854
-34.954	32.205	1483.264	1257.943
-33.940	32.129	1482.511	1256.750
-32.925	32.230	1480.575	1255.734
-31.911	32.169	1479.316	1254.209
-30.896	32.199	1478.086	1253.313
-29.881	32.235	1476.349	1252.031
-28.867	32.197	1475.049	1250.632
-27.852	32.158	1474.343	1249.720
-26.838	32.194	1472.945	1248.725
-25.823	32.236	1471.407	1247.652
-24.809	32.121	1469.254	1245.013
-23.794	32.121	1468.125	1244.007
-22.779	32.166	1467.133	1243.414
-21.765	32.168	1465.856	1242.294
-20.750	32.169	1464.619	1241.204
-19.736	32.069	1463.740	1239.749
-18.721	32.081	1462.624	1238.836
-17.706	32.093	1461.294	1237.738
-16.692	32.202	1459.726	1237.077
-15.677	32.108	1459.089	1235.870
-14.663	32.131	1457.889	1234.955
-13.648	32.134	1457.026	1234.195
-12.633	32.038	1456.074	1232.712
-11.619	32.061	1455.223	1232.091
-10.604	32.102	1454.474	1231.680
-9.590	32.043	1453.907	1230.764
-8.575	32.066	1452.593	1229.756
-7.560	32.002	1452.281	1229.018
-6.546	32.131	1451.110	1228.824
-5.531	32.096	1449.850	1227.481
-4.517	32.099	1449.178	1226.881
-3.502	31.991	1448.234	1225.332
-2.487	31.987	1447.158	1224.345
-1.473	32.012	1446.023	1223.495
-0.458	32.023	1444.535	1222.264
0.556	32.741	1434.639	1211.853
1.571	29.714	1410.850	1172.489
2.586	26.633	1356.817	1108.660
3.600	25.235	1278.735	1036.693
4.615	23.669	1230.620	988.881
5.629	20.367	1172.788	924.770
6.644	10.957	1086.267	809.831
7.659	3.261	1044.744	741.842
8.673	2.407	1038.958	733.572
9.688	2.105	1036.131	730.070
10.702	2.078	1034.173	728.496
11.717	2.010	1032.080	726.634
12.731	5.635	1036.439	746.950
13.746	15.409	1050.421	804.000
14.761	23.057	1060.121	848.187
15.775	25.123	1061.587	859.200
16.790	25.465	1061.584	860.757
17.804	25.447	1060.667	859.851
18.819	25.106	1060.201	857.765
19.834	25.371	1059.166	858.119
20.848	25.335	1059.172	857.876
21.863	25.421	1059.106	858.160
22.877	25.409	1058.344	857.407
23.892	25.572	1057.661	857.558
24.907	25.338	1056.845	855.702
25.921	25.538	1055.891	855.807
26.936	25.409	1055.624	854.900
27.950	25.416	1054.012	853.552
28.965	25.381	1052.953	852.455
29.980	25.130	1051.757	850.222
30.994	25.200	1050.547	849.501
32.009	25.550	1049.575	850.292
33.023	25.532	1049.307	849.914
34.038	25.308	1048.234	847.914
35.053	25.336	1047.495	847.374
36.067	25.380	1047.090	847.177
37.082	25.360	1045.994	846.123
38.096	25.412	1045.377	845.794
39.111	25.536	1044.372	845.486
40.126	25.788	1043.358	845.776
41.140	25.648	1042.538	844.381
42.155	25.324	1041.124	841.641
43.169	25.007	1039.831	839.034
44.184	24.974	1038.956	838.103
45.199	24.950	1038.393	837.460
46.213	25.033	1036.784	836.479
47.228	24.999	1035.801	835.453
48.242	25.142	1035.307	835.645
49.257	25.272	1034.804	835.769
50.271	25.442	1033.698	835.594
51.286	25.451	1033.403	835.324
52.301	25.519	1032.399	834.754
53.315	25.579	1031.831	834.500
54.330	25.458	1031.389	833.507
55.344	25.392	1030.359	832.294
56.359	25.396	1029.462	831.515
57.374	25.424	1028.686	830.945
58.388	25.346	1027.031	829.176
59.403	25.256	1026.915	828.593
60.417	25.116	1026.113	827.225
61.432	25.082	1025.272	826.317
62.447	24.995	1024.859	825.510
63.461	25.157	1024.274	825.711
64.476	25.303	1023.537	825.717
65.490	25.241	1022.821	824.780
66.505	25.005	1021.707	822.724
67.520	25.182	1020.562	822.544
68.534	25.191	1020.056	822.104
69.549	25.081	1019.352	820.958
70.563	24.688	1018.153	818.125
71.578	24.640	1017.640	817.420
72.593	24.705	1016.459	816.696
73.607	24.450	1015.760	814.897
74.622	24.563	1014.736	814.517
75.636	24.889	1013.666	815.072
76.651	24.912	1013.622	815.068
77.666	24.878	1012.439	813.892
78.680	24.805	1011.500	812.734
79.695	24.759	1011.071	812.107
80.709	24.936	1010.238	812.169
81.724	25.049	1009.401	811.936
82.739	25.047	1008.511	811.141
83.753	25.201	1007.355	810.834
84.768	25.344	1007.323	811.384
85.782	25.669	1006.936	812.470
86.797	25.832	1006.037	812.405
87.812	25.823	1004.993	811.449
88.826	25.514	1004.461	809.558
89.841	25.683	1003.601	809.555
90.855	25.716	1003.006	809.152
91.870	25.686	1002.235	808.320
92.884	25.604	1001.380	807.193
93.899	25.627	1000.202	806.273
94.914	25.374	999.449	804.462
95.928	25.622	998.447	804.695
96.943	25.596	998.002	804.149
97.957	25.231	996.872	801.535
98.972	25.191	995.232	799.970
99.987	24.928	994.687	798.287
101.001	25.106	993.632	798.163
102.016	25.393	993.051	798.902
103.030	25.299	992.395	797.888
104.045	25.370	991.163	797.139
105.060	25.180	990.018	795.307
106.074	25.035	989.078	793.838
107.089	25.129	988.374	793.618
108.103	25.250	988.393	794.098
109.118	25.379	987.406	793.806
110.133	25.234	985.677	791.706
111.147	25.150	985.163	790.856
112.162	25.068	983.965	789.460
113.176	25.009	982.406	787.884
114.191	24.894	982.164	787.114
115.206	25.117	981.399	787.410
116.220	24.730	980.306	784.763
117.235	24.646	979.054	783.326
118.249	24.708	978.891	783.394
119.264	24.895	977.771	783.248
120.279	24.749	976.939	781.874
121.293	24.597	976.527	780.811
122.308	24.874	975.637	781.240
123.322	24.904	975.021	780.807
124.337	24.863	973.639	779.454
125.352	24.772	972.587	778.146
126.366	24.255	971.100	774.641
127.381	23.944	969.969	772.322
128.395	24.648	969.547	774.972
129.410	25.221	969.945	777.707
130.424	25.392	968.546	777.254
131.439	25.313	967.651	776.124
132.454	25.229	966.676	774.912
133.468	25.168	966.023	774.058
134.483	25.268	964.880	773.507
135.497	25.199	964.257	772.639
136.512	25.485	963.688	773.347
137.527	25.547	962.987	772.980
138.541	25.518	962.315	772.249
139.556	25.397	961.972	771.385
140.570	25.612	960.772	771.276
141.585	25.727	959.865	770.976
142.600	25.539	959.506	769.811
143.614	25.547	958.342	768.845
144.629	25.708	957.613	768.879
145.643	25.956	956.723	769.155
146.658	25.745	955.640	767.318
147.673	25.682	954.401	765.985
148.687	25.433	953.543	764.173
149.702	25.271	952.727	762.760
150.716	25.364	951.277	761.928
151.731	25.288	950.708	761.083
152.746	25.328	949.812	760.468
153.760	25.537	949.305	760.878
154.775	25.655	949.008	761.070
155.789	25.600	948.210	760.133
156.804	25.698	947.013	759.520
157.819	25.685	945.883	758.490
158.833	25.639	945.166	757.654
159.848	25.755	944.418	757.475
160.862	25.868	943.468	757.122
161.877	25.773	942.599	755.960
162.892	25.641	941.547	754.494
163.906	25.740	940.683	754.151
164.921	25.694	940.385	753.654
165.935	25.706	938.434	752.071
166.950	25.547	938.204	751.157
167.964	25.700	937.367	751.058
168.979	25.768	935.852	750.062
169.994	25.519	935.142	748.390
171.008	25.471	934.074	747.269
172.023	25.725	933.310	747.648
173.037	25.822	932.852	747.616
174.052	25.750	931.381	746.072
175.067	25.632	930.465	744.784
176.081	25.547	929.512	743.604
177.096	25.446	929.196	742.867
178.110	25.567	928.193	742.500
179.125	25.340	927.268	740.760
180.140	25.081	926.096	738.688
181.154	25.015	925.334	737.746
182.169	25.159	925.058	738.053
183.183	25.328	924.923	738.577
184.198	25.814	924.360	740.056
185.213	25.643	924.036	739.029
186.227	25.566	922.875	737.721
187.242	25.709	922.333	737.807
188.256	25.857	921.715	737.855
189.271	25.640	921.185	736.475
190.286	25.751	920.224	736.097
191.300	25.662	919.496	735.084
192.315	25.184	917.880	731.780
193.329	24.288	916.328	726.827
194.344	23.791	915.663	724.212
195.359	24.520	915.781	727.210
196.373	25.456	916.302	731.369
197.388	25.684	916.290	732.222
198.402	25.415	915.870	730.728
199.417	25.545	914.745	730.293
200.432	25.680	914.536	730.610
201.446	25.471	913.983	729.256
202.461	25.205	912.712	727.102
203.475	25.279	912.427	727.107
204.490	24.677	911.041	723.506
205.504	23.530	908.993	717.181
206.519	24.026	909.159	719.251
207.534	25.056	908.970	723.196
208.548	25.148	908.716	723.302
209.563	25.495	908.598	724.545
210.577	25.469	907.816	723.750
211.592	25.311	906.711	722.170
212.607	25.611	906.805	723.388
213.621	25.860	906.277	723.904
214.636	25.735	905.437	722.668
215.650	25.827	904.907	722.548
216.665	25.728	904.497	721.762
217.680	25.774	904.035	721.514
218.694	25.734	903.610	720.951
219.709	25.527	902.271	718.990
220.723	25.026	901.586	716.376
221.738	25.466	900.870	717.504
222.753	25.624	900.355	717.658
223.767	25.412	900.038	716.500
224.782	25.628	899.244	716.664
225.796	25.989	898.045	717.080
226.811	25.859	898.369	716.759
227.826	25.547	896.850	714.245
228.840	24.588	895.625	709.398
229.855	24.611	894.829	708.798
230.869	24.882	894.501	709.548
231.884	24.703	893.034	707.612
232.899	24.653	893.185	707.472
233.913	25.361	893.587	710.530
234.928	25.462	893.197	710.559
235.942	25.314	892.685	709.501
236.957	25.408	891.648	708.986
237.972	25.005	891.105	706.904
238.986	25.086	889.713	706.053
240.001	25.364	889.408	706.843
241.015	25.308	888.800	706.079
242.030	25.188	888.458	705.274
243.045	25.461	887.674	705.660
244.059	25.515	887.383	705.578
245.074	25.692	887.235	706.094
246.088	25.558	886.413	704.852
247.103	25.421	884.705	702.892
248.117	25.304	884.757	702.417
249.132	25.813	884.714	704.309
250.147	26.325	884.129	705.781
251.161	26.338	884.162	705.798
252.176	26.567	883.454	706.063
253.190	26.526	882.788	705.308
254.205	26.447	882.514	704.718
255.220	26.699	882.260	705.432
256.234	26.599	881.528	704.398
257.249	26.439	880.858	703.179
258.263	26.360	880.171	702.260
259.278	26.395	879.637	701.909
260.293	26.513	878.976	701.776
261.307	26.725	878.293	701.990
262.322	26.427	877.920	700.476
263.336	26.381	877.052	699.545
264.351	25.935	875.763	696.732
265.366	24.701	873.846	690.381
266.380	24.353	872.932	688.255
267.395	25.232	873.435	691.982
268.409	26.048	873.268	694.933
269.424	26.062	872.452	694.277
270.439	26.157	872.371	694.516
271.453	26.259	871.634	694.260
272.468	26.208	871.096	693.574
273.482	26.352	870.953	693.953
274.497	26.694	870.203	694.605
275.512	26.373	869.469	692.728
276.526	25.815	868.070	689.418
277.541	25.986	867.606	689.640
278.555	26.342	867.362	690.748
279.570	26.157	866.667	689.426
280.585	25.986	865.914	688.113
281.599	26.045	865.399	687.867
282.614	26.234	865.106	688.296
283.628	25.691	863.991	685.280
284.643	25.326	863.075	683.104
285.657	25.779	862.840	684.580
286.672	25.709	862.332	683.851
287.687	25.288	861.183	681.283
288.701	25.488	861.571	682.289
289.716	25.965	860.895	683.502
290.730	25.644	859.972	681.491
291.745	25.372	859.807	680.271
292.760	25.290	858.567	678.918
293.774	25.231	857.906	678.113
294.789	26.128	858.710	682.083
295.803	26.832	858.877	684.814
296.818	26.917	857.772	684.191
297.833	27.088	857.176	684.301
298.847	26.548	856.719	681.839
299.862	26.243	855.730	679.845
300.876	26.399	855.243	679.987
301.891	26.718	854.516	680.545
302.906	26.771	854.419	680.606
303.920	26.462	852.932	678.204
304.935	26.198	852.417	676.746
305.949	26.714	852.150	678.404
306.964	26.770	851.750	678.235
307.979	26.689	850.829	677.141
308.993	26.479	850.671	676.169
310.008	26.855	850.330	677.244
311.022	27.075	849.766	677.557
312.037	26.853	849.172	676.193
313.052	26.666	848.233	674.688
314.066	26.492	847.879	673.702
315.081	25.747	846.478	669.759
316.095	25.071	844.954	665.984
317.110	25.497	845.515	667.950
318.125	26.434	845.506	671.362
319.139	26.017	844.220	668.737
320.154	24.849	842.751	663.189
321.168	24.388	842.277	661.050
322.183	25.147	842.233	663.765
323.197	26.062	842.699	667.462
324.212	26.319	842.028	667.819
325.227	26.426	841.915	668.068
326.241	26.553	841.870	668.442
327.256	26.489	840.875	667.355
328.270	26.528	839.892	666.661
329.285	26.398	839.487	665.802
330.300	26.224	838.717	664.491
331.314	25.886	838.109	662.708
332.329	25.984	837.666	662.659
333.343	26.471	837.092	663.936
334.358	26.666	836.930	664.462
335.373	26.689	836.317	664.002
336.387	26.808	835.818	663.982
337.402	27.031	835.474	664.465
338.416	27.312	835.034	665.085
339.431	27.261	834.265	664.226
340.446	27.014	834.221	663.231
341.460	27.332	833.971	664.135
342.475	27.289	833.253	663.347
343.489	27.144	832.709	662.329
344.504	27.060	831.876	661.299
345.519	27.331	831.684	662.074
346.533	27.547	831.314	662.507
347.548	27.636	830.721	662.301
348.562	27.573	830.093	661.513
349.577	27.433	829.909	660.800
350.592	27.482	829.213	660.365
351.606	27.513	828.739	660.042
352.621	27.434	827.941	659.061
353.635	27.415	827.509	658.590
354.650	27.309	826.919	657.679
355.665	26.960	825.640	655.344
356.679	26.022	824.295	650.836
357.694	25.795	824.114	649.816
358.708	26.423	823.783	651.762
359.723	26.427	823.236	651.287
360.738	26.590	823.248	651.823
361.752	26.955	823.247	653.077
362.767	27.085	822.998	653.290
363.781	27.398	822.874	654.261
364.796	27.729	822.515	655.106
365.810	27.917	822.410	655.640
366.825	27.909	821.869	655.120
367.840	27.855	821.606	654.661
368.854	27.779	820.705	653.613
369.869	27.318	819.905	651.268
370.883	27.103	819.337	649.990
371.898	27.241	818.834	650.026
372.913	27.108	818.228	649.011
373.927	27.240	817.419	648.783
374.942	27.377	816.617	648.578
375.956	27.353	816.606	648.428
376.971	27.583	815.792	648.542
377.986	27.569	815.323	648.062
379.000	27.845	815.226	648.909
380.015	27.813	814.403	648.083
381.029	27.561	814.071	646.868
382.044	27.624	813.323	646.437
383.059	27.806	812.597	646.447
384.073	27.906	811.801	646.110
385.088	27.899	811.562	645.841
386.102	27.842	811.221	645.310
387.117	27.638	810.314	643.809
388.132	27.568	809.703	643.020
389.146	27.407	808.772	641.658
390.161	26.890	808.240	639.356
391.175	26.887	807.971	639.078
392.190	27.354	807.838	640.561
393.205	27.522	807.600	640.907
394.219	26.487	806.062	635.993
395.234	24.768	803.811	628.131
396.248	24.032	802.541	624.501
397.263	25.080	803.695	629.023
398.278	26.889	805.020	636.356
399.292	27.345	804.771	637.700
400.307	27.063	804.152	636.167
401.321	26.837	803.677	634.942
402.336	27.079	803.347	635.472
403.350	27.396	803.099	636.330
404.365	27.976	803.135	638.328
405.380	28.243	802.941	639.051
406.394	28.392	802.548	639.199
407.409	28.552	802.065	639.318
408.423	28.522	801.531	638.729
409.438	28.393	801.288	638.032
410.453	28.471	800.754	637.821
411.467	28.565	800.336	637.757
412.482	28.258	799.740	636.160
413.496	28.270	799.617	636.045
414.511	28.449	799.133	636.227
415.526	28.541	798.620	636.083
416.540	28.500	798.321	635.645
417.555	28.586	797.425	635.172
418.569	28.172	797.161	633.472
419.584	28.088	796.556	632.647
420.599	28.246	795.901	632.615
421.613	111.631	1285.214	1459.384
422.628	96.214	1356.511	1459.490
