DTS Sentinel unit serial number:	SN413079Multiplexer serial number:	ORYXHardware model number:	OX4-SRSoftware version number:	ORYX F/W v4.00 Oryx Data Collector v3.7.2.0data status	okinstallation	princeton_trtdifferential loss correction	single-endedforward channel	channel 3reverse channel	N/Adate	2019/09/10time	19:14:10forward acquisition time	60.00reverse acquisition time	0.00gamma	496.2192k internal	0.2316k external	0.2316temperature offset calibration	0.9910default loss term (dB/km)	0.3790temperature slope calibration	1.0000multiplexer offset coefficient	1.0000multiplexer slope coefficient	1.0000fibre end	0.00T internal ref (°C)	34.03T ext. ref 1 (°C)	-0.36T ext. ref 2 (°C)	26.32length (m)	temperature (°C)	Stokes	anti-Stokes-747.200	310.290	0.104	-0.197
-746.185	-59.902	0.199	0.086
-745.171	800.000	0.110	-0.336
-744.156	122.571	-0.153	0.194
-743.142	-72.948	-0.132	-0.049
-742.127	52.303	-0.198	0.191
-741.112	74.448	-0.205	-0.219
-740.098	175.422	-0.070	0.103
-739.083	-27.622	-0.122	-0.072
-738.069	-63.524	-0.174	-0.072
-737.054	107.879	0.231	0.279
-736.039	-200.000	0.013	-0.144
-735.025	-82.728	0.128	-0.042
-734.010	-86.584	-0.039	-0.012
-732.996	-111.184	-0.377	-0.078
-731.981	-54.599	-0.064	0.029
-730.966	-114.915	0.173	-0.033
-729.952	-200.000	-0.021	-0.233
-728.937	206.000	0.181	-0.285
-727.923	800.000	0.027	-0.114
-726.908	605.237	0.069	0.174
-725.894	-43.233	-0.400	-0.205
-724.879	-93.854	0.376	0.105
-723.864	161.959	0.154	0.218
-722.850	46.260	-0.092	-0.087
-721.835	-90.946	0.146	0.043
-720.821	800.000	-0.066	0.216
-719.806	11.591	-0.194	0.150
-718.791	-200.000	-0.028	0.226
-717.777	-200.000	0.013	0.136
-716.762	126.590	-0.082	-0.106
-715.748	-55.939	-0.025	-0.011
-714.733	221.514	0.178	-0.290
-713.718	154.859	-0.134	0.187
-712.704	47.620	-0.257	-0.243
-711.689	130.587	0.033	-0.042
-710.675	273.221	-0.294	0.526
-709.660	-200.000	0.008	-0.294
-708.645	610.188	-0.142	-0.358
-707.631	28.539	0.155	0.132
-706.616	-130.971	-0.125	-0.017
-705.602	-200.000	-0.016	0.186
-704.587	18.809	0.472	-0.382
-703.572	-79.689	0.248	-0.084
-702.558	435.921	0.138	-0.303
-701.543	-4.905	0.100	0.069
-700.529	38.166	0.226	-0.204
-699.514	-54.478	0.334	-0.153
-698.499	-200.000	-0.017	-0.192
-697.485	160.638	-0.217	0.306
-696.470	34.877	0.298	-0.263
-695.456	800.000	0.007	-0.029
-694.441	681.300	0.092	0.243
-693.426	-99.823	-0.214	0.054
-692.412	800.000	0.108	-0.353
-691.397	-62.243	-0.243	0.102
-690.383	-187.939	-0.438	0.006
-689.368	-50.608	0.103	-0.049
-688.354	19.215	-0.280	-0.227
-687.339	654.098	0.074	0.191
-686.324	-33.951	0.198	0.110
-685.310	-112.177	0.068	-0.014
-684.295	185.249	0.103	-0.155
-683.281	-65.782	0.300	0.121
-682.266	245.947	-0.198	0.337
-681.251	107.998	-0.236	0.285
-680.237	-40.003	-0.192	-0.101
-679.222	-42.151	0.194	0.100
-678.208	800.000	-0.066	-0.201
-677.193	-10.182	0.261	-0.175
-676.178	-56.071	0.047	0.021
-675.164	289.241	-0.074	-0.135
-674.149	-167.947	0.149	0.006
-673.135	5.268	-0.267	0.199
-672.120	159.767	-0.125	-0.176
-671.105	-76.816	-0.257	0.091
-670.091	372.621	-0.063	-0.130
-669.076	-200.000	0.012	0.255
-668.062	92.862	-0.266	-0.304
-667.047	63.956	-0.125	-0.127
-666.032	-77.079	0.234	-0.082
-665.018	-21.820	0.053	-0.032
-664.003	-134.880	-0.321	0.039
-662.989	800.000	-0.044	-0.149
-661.974	111.667	0.291	0.354
-660.959	0.572	-0.330	0.238
-659.945	311.713	0.157	-0.297
-658.930	-120.155	0.062	0.011
-657.916	490.144	-0.207	0.479
-656.901	510.247	0.081	0.191
-655.886	-23.303	0.143	0.087
-654.872	-187.706	0.040	-0.001
-653.857	362.710	-0.030	-0.060
-652.843	651.861	0.037	-0.096
-651.828	288.657	-0.216	0.395
-650.814	86.638	0.135	-0.151
-649.799	-200.000	-0.001	0.014
-648.784	-16.239	0.062	0.040
-647.770	800.000	0.063	0.274
-646.755	13.321	0.083	0.065
-645.741	-30.410	-0.143	0.082
-644.726	-123.936	-0.064	-0.010
-643.711	312.137	-0.071	-0.134
-642.697	-78.836	-0.119	0.041
-641.682	60.675	-0.178	0.178
-640.668	-47.606	-0.093	0.046
-639.653	14.329	0.233	-0.183
-638.638	550.139	-0.093	-0.224
-637.624	-129.441	0.183	-0.026
-636.609	67.661	-0.185	-0.190
-635.595	-64.848	0.203	0.083
-634.580	-200.000	0.045	0.239
-633.565	800.000	0.118	0.331
-632.551	-41.423	-0.180	-0.094
-631.536	-62.932	-0.316	-0.132
-630.522	-27.214	0.194	0.114
-629.507	-200.000	-0.010	-0.070
-628.492	22.727	-0.444	-0.366
-627.478	112.522	-0.113	-0.138
-626.463	82.949	-0.046	-0.050
-625.449	136.107	0.150	-0.198
-624.434	25.178	-0.211	-0.177
-623.419	3.621	0.204	-0.150
-622.405	70.369	-0.103	-0.107
-621.390	418.472	0.155	0.335
-620.376	-136.374	-0.317	-0.037
-619.361	63.456	-0.230	-0.232
-618.346	-15.212	-0.158	0.102
-617.332	-63.159	-0.088	-0.037
-616.317	-200.000	0.041	-0.202
-615.303	124.544	-0.183	0.232
-614.288	463.363	0.084	0.190
-613.273	211.989	-0.179	0.284
-612.259	-117.851	0.302	0.055
-611.244	800.000	-0.043	0.152
-610.230	56.332	0.168	-0.164
-609.215	-200.000	-0.031	0.148
-608.201	103.862	0.010	-0.012
-607.186	-56.586	-0.092	-0.041
-606.171	-200.000	0.034	-0.285
-605.157	-99.006	-0.290	0.074
-604.142	-200.000	-0.003	-0.503
-603.128	-103.382	0.206	0.049
-602.113	-122.173	-0.136	0.022
-601.098	-111.773	-0.351	-0.072
-600.084	-125.018	0.131	-0.020
-599.069	-73.924	0.257	0.094
-598.055	112.789	-0.074	0.090
-597.040	-200.000	-0.029	0.211
-596.025	152.715	-0.033	-0.046
-595.011	-83.319	0.354	-0.114
-593.996	55.174	-0.130	0.126
-592.982	-72.354	0.239	0.089
-591.967	800.000	0.046	0.159
-590.952	172.411	-0.185	-0.267
-589.938	-65.735	0.132	0.053
-588.923	-106.725	0.192	0.043
-587.909	-3.448	-0.123	-0.086
-586.894	433.459	-0.103	0.225
-585.879	-200.000	-0.000	-0.110
-584.865	163.726	-0.099	-0.140
-583.850	128.325	-0.065	-0.083
-582.836	-77.422	0.178	-0.062
-581.821	-200.000	0.028	0.403
-580.806	800.000	-0.059	-0.239
-579.792	176.125	0.101	0.148
-578.777	578.560	-0.119	-0.292
-577.763	-200.000	-0.041	-0.286
-576.748	-200.000	0.016	-0.251
-575.733	129.936	0.099	0.127
-574.719	-138.850	-0.159	-0.017
-573.704	-15.565	-0.202	0.130
-572.690	-200.000	-0.027	0.208
-571.675	251.633	-0.137	-0.234
-570.661	-53.376	0.352	0.162
-569.646	537.780	-0.030	-0.072
-568.631	-55.960	-0.105	-0.047
-567.617	-64.912	-0.312	0.127
-566.602	43.555	-0.341	0.314
-565.588	121.453	0.025	-0.032
-564.573	-188.755	-0.237	0.003
-563.558	-133.133	0.046	0.006
-562.544	-200.000	0.001	-0.358
-561.529	177.878	0.063	-0.092
-560.515	-58.557	-0.179	-0.078
-559.500	-200.000	0.026	0.235
-558.485	34.119	0.244	0.214
-557.471	-110.382	0.092	0.019
-556.456	-159.648	0.347	-0.019
-555.442	147.212	-0.055	-0.074
-554.427	536.581	0.102	0.243
-553.412	-7.323	0.105	0.071
-552.398	-93.767	-0.236	-0.065
-551.383	-200.000	0.048	-0.319
-550.369	-67.775	-0.313	-0.123
-549.354	734.886	0.086	0.231
-548.339	-90.897	-0.066	-0.019
-547.325	-42.844	-0.129	-0.066
-546.310	116.366	-0.120	-0.148
-545.296	800.000	-0.101	-0.388
-544.281	-8.315	0.016	-0.011
-543.266	-71.056	-0.233	-0.088
-542.252	29.526	-0.105	-0.089
-541.237	-44.564	0.146	0.073
-540.223	-77.531	0.138	-0.048
-539.208	92.771	-0.021	0.023
-538.193	-59.798	0.390	-0.168
-537.179	406.420	0.058	-0.122
-536.164	24.879	0.183	0.152
-535.150	800.000	0.084	0.270
-534.135	-39.305	-0.246	-0.130
-533.121	54.509	-0.303	0.293
-532.106	800.000	0.057	0.183
-531.091	80.378	-0.050	0.054
-530.077	-96.851	-0.323	0.085
-529.062	28.747	0.188	0.160
-528.048	-9.623	-0.123	0.082
-527.033	-33.757	-0.117	0.065
-526.018	71.106	0.182	-0.189
-525.004	40.701	0.114	-0.103
-523.989	60.635	0.185	0.184
-522.975	626.243	-0.129	0.326
-521.960	435.638	0.034	0.073
-520.945	-200.000	-0.067	0.347
-519.931	483.072	-0.120	-0.275
-518.916	45.293	-0.221	-0.204
-517.902	161.334	-0.135	-0.189
-516.887	-81.250	-0.366	0.121
-515.872	-200.000	0.056	-0.343
-514.858	-200.000	0.124	-0.668
-513.843	106.030	0.130	0.155
-512.829	235.752	-0.122	0.202
-511.814	-60.106	-0.105	-0.045
-510.799	-128.983	0.225	0.032
-509.785	-184.076	0.387	0.006
-508.770	221.346	0.076	0.123
-507.756	152.695	0.051	0.070
-506.741	-200.000	0.010	0.235
-505.726	-28.367	-0.154	0.089
-504.712	288.453	-0.204	0.370
-503.697	-45.221	0.219	0.109
-502.683	800.000	-0.061	0.215
-501.668	299.431	-0.046	-0.084
-500.653	-77.175	0.342	-0.120
-499.639	-21.645	0.188	-0.115
-498.624	-200.000	0.025	0.275
-497.610	110.574	-0.187	0.225
-496.595	-64.513	0.121	0.049
-495.581	800.000	0.088	0.271
-494.566	301.398	-0.195	-0.362
-493.551	800.000	0.143	-0.451
-492.537	-200.000	-0.048	0.268
-491.522	247.947	0.236	0.400
-490.508	-200.000	0.006	0.029
-489.493	-168.731	-0.202	0.008
-488.478	-200.000	0.006	-0.150
-487.464	-6.744	0.118	0.081
-486.449	-200.000	-0.014	-0.193
-485.435	-200.000	0.062	-0.329
-484.420	800.000	-0.045	-0.176
-483.405	182.939	0.061	0.091
-482.391	-46.460	0.085	-0.042
-481.376	-51.425	-0.543	-0.255
-480.362	-78.796	-0.203	-0.069
-479.347	187.096	-0.100	0.150
-478.332	784.526	-0.050	-0.138
-477.318	-193.800	-0.199	-0.002
-476.303	-87.188	-0.144	-0.044
-475.289	175.277	0.115	-0.167
-474.274	-200.000	-0.040	0.551
-473.259	0.375	-0.072	0.051
-472.245	263.205	-0.104	-0.181
-471.230	140.901	0.129	-0.170
-470.216	92.801	0.045	0.051
-469.201	800.000	0.048	0.140
-468.186	800.000	0.148	-0.522
-467.172	88.643	0.117	0.130
-466.157	-200.000	-0.012	0.232
-465.143	-109.444	-0.327	-0.069
-464.128	-46.982	-0.080	-0.039
-463.113	-200.000	0.026	-0.299
-462.099	-68.450	-0.242	-0.094
-461.084	-200.000	0.009	-0.497
-460.070	800.000	-0.044	0.182
-459.055	-200.000	0.008	-0.099
-458.040	-200.000	-0.052	-0.322
-457.026	342.694	0.077	-0.152
-456.011	24.291	-0.360	0.298
-454.997	9.477	0.167	0.127
-453.982	800.000	-0.031	-0.094
-452.968	800.000	0.065	-0.245
-451.953	-125.532	0.187	0.029
-450.938	-98.229	-0.377	0.097
-449.924	800.000	0.043	0.186
-448.909	-42.545	0.123	-0.063
-447.895	-200.000	-0.002	0.240
-446.880	90.015	-0.293	-0.327
-445.865	328.831	-0.056	-0.108
-444.851	-88.475	0.145	0.043
-443.836	-30.557	0.274	-0.155
-442.822	-42.566	0.228	0.116
-441.807	2.394	-0.414	0.300
-440.792	-200.000	-0.006	0.077
-439.778	-200.000	0.050	-0.220
-438.763	-200.000	-0.024	0.351
-437.749	-200.000	0.040	-0.205
-436.734	-67.377	0.120	-0.047
-435.719	109.413	-0.158	-0.190
-434.705	-49.698	0.081	-0.038
-433.690	-85.255	0.462	0.144
-432.676	46.514	-0.184	-0.170
-431.661	-123.128	-0.316	0.051
-430.646	78.182	-0.235	-0.251
-429.632	166.807	-0.218	0.309
-428.617	-200.000	-0.052	0.357
-427.603	68.336	-0.106	-0.109
-426.588	-80.242	0.257	-0.086
-425.573	28.450	-0.132	-0.111
-424.559	-83.957	0.401	0.128
-423.544	555.515	0.125	0.300
-422.530	-130.533	-0.152	-0.021
-421.515	280.731	-0.164	0.293
-420.500	-180.607	-0.132	-0.003
-419.486	-25.609	0.219	-0.129
-418.471	-173.828	-0.162	-0.005
-417.457	52.045	0.296	-0.282
-416.442	221.618	0.158	-0.255
-415.428	-200.000	-0.032	0.155
-414.413	-66.220	-0.290	-0.116
-413.398	-200.000	-0.014	-0.109
-412.384	118.329	0.027	0.033
-411.369	136.799	-0.166	-0.217
-410.355	367.442	0.092	0.187
-409.340	216.154	0.043	0.068
-408.325	-77.510	-0.500	0.173
-407.311	354.737	0.071	0.141
-406.296	64.762	0.082	0.082
-405.282	-165.377	0.181	-0.008
-404.267	462.466	-0.137	0.306
-403.252	-200.000	-0.005	0.101
-402.238	-200.000	-0.021	-0.127
-401.223	-200.000	0.017	-0.233
-400.209	407.908	0.046	0.096
-399.194	4.673	-0.158	0.116
-398.179	-154.402	0.251	-0.017
-397.165	800.000	0.014	-0.049
-396.150	-139.375	0.276	-0.030
-395.136	-60.614	0.166	-0.070
-394.121	-84.371	0.319	-0.101
-393.106	-105.475	0.212	-0.048
-392.092	-75.153	0.275	0.098
-391.077	304.424	0.067	0.124
-390.063	800.000	0.010	-0.032
-389.048	340.569	0.032	-0.063
-388.033	32.725	-0.128	-0.111
-387.019	209.351	-0.094	0.148
-386.004	-84.768	-0.134	0.042
-384.990	-72.228	0.128	-0.047
-383.975	-163.525	0.173	-0.008
-382.960	-200.000	-0.021	0.110
-381.946	435.233	0.134	0.290
-380.931	-200.000	-0.068	-0.473
-379.917	-200.000	0.000	-0.266
-378.902	-143.169	0.394	-0.038
-377.888	-110.234	0.102	-0.021
-376.873	457.627	-0.121	-0.268
-375.858	800.000	-0.055	0.160
-374.844	-155.318	-0.287	-0.019
-373.829	-200.000	-0.055	-0.289
-372.815	-75.156	0.213	0.076
-371.800	-195.938	-0.154	-0.001
-370.785	-125.096	0.131	-0.020
-369.771	-188.986	-0.300	-0.004
-368.756	388.165	-0.153	-0.316
-367.742	323.367	-0.104	-0.198
-366.727	-62.477	0.077	0.032
-365.712	168.987	-0.163	-0.232
-364.698	146.125	-0.169	-0.227
-363.683	-194.295	-0.153	-0.001
-362.669	-13.316	-0.173	-0.112
-361.654	-35.466	0.319	-0.173
-360.639	-100.499	0.163	-0.040
-359.625	800.000	0.132	0.385
-358.610	618.906	0.034	-0.086
-357.596	6.628	0.093	0.069
-356.581	800.000	-0.039	-0.139
-355.566	16.327	-0.150	-0.118
-354.552	800.000	-0.054	-0.150
-353.537	-76.795	0.097	-0.034
-352.523	32.388	-0.222	0.191
-351.508	250.787	-0.080	0.135
-350.493	9.269	-0.085	0.064
-349.479	94.032	-0.152	0.172
-348.464	-200.000	-0.009	0.170
-347.450	606.952	-0.042	0.105
-346.435	132.538	0.113	-0.145
-345.420	220.125	-0.037	0.060
-344.406	-23.073	0.187	0.112
-343.391	-200.000	0.019	0.284
-342.377	251.895	0.073	0.123
-341.362	551.996	-0.101	0.243
-340.348	800.000	-0.107	0.325
-339.333	252.161	0.261	-0.444
-338.318	800.000	0.040	-0.145
-337.304	-165.102	-0.096	0.004
-336.289	87.962	-0.259	0.286
-335.275	151.727	0.168	-0.228
-334.260	-197.032	0.101	0.001
-333.245	756.343	0.067	-0.182
-332.231	146.816	-0.078	0.105
-331.216	81.139	0.200	0.215
-330.202	23.398	0.179	-0.146
-329.187	-157.802	-0.177	0.010
-328.172	233.468	-0.078	-0.128
-327.158	-200.000	0.056	-0.321
-326.143	148.586	0.100	-0.135
-325.129	121.251	-0.132	0.164
-324.114	-200.000	-0.002	0.228
-323.099	-200.000	0.012	-0.141
-322.085	176.801	0.155	-0.224
-321.070	-200.000	-0.060	0.287
-320.056	239.185	0.119	0.197
-319.041	361.130	-0.141	-0.282
-318.026	-21.593	-0.025	-0.015
-317.012	800.000	0.092	0.283
-315.997	209.102	0.112	-0.175
-314.983	-129.642	-0.108	0.015
-313.968	-200.000	0.011	0.079
-312.953	40.423	0.032	-0.029
-311.939	230.992	0.163	-0.265
-310.924	42.691	0.061	0.055
-309.910	-200.000	0.001	0.078
-308.895	266.287	-0.056	-0.097
-307.880	192.173	0.098	-0.147
-306.866	-26.801	0.444	-0.259
-305.851	60.407	-0.042	-0.041
-304.837	-9.744	-0.056	0.037
-303.822	-186.865	0.434	-0.006
-302.807	-200.000	0.007	0.337
-301.793	86.018	0.185	0.202
-300.778	800.000	-0.035	-0.116
-299.764	28.537	0.152	0.128
-298.749	-111.946	0.101	-0.020
-297.735	118.414	-0.184	0.227
-296.720	-40.983	-0.173	-0.089
-295.705	-200.000	0.022	-0.297
-294.691	278.075	0.074	0.131
-293.676	-87.525	-0.429	0.129
-292.662	-179.599	-0.167	-0.004
-291.647	-82.584	0.410	-0.132
-290.632	-60.303	-0.126	0.053
-289.618	41.585	-0.149	0.134
-288.603	246.356	-0.149	0.249
-287.589	44.988	-0.171	0.156
-286.574	800.000	-0.077	0.254
-285.559	-102.083	0.250	0.060
-284.545	-119.831	-0.133	0.023
-283.530	-28.849	0.104	0.059
-282.516	-200.000	-0.005	-0.112
-281.501	-77.904	-0.181	-0.062
-280.486	-110.220	0.137	-0.028
-279.472	-192.195	0.182	-0.002
-278.457	-200.000	0.011	0.336
-277.443	800.000	0.064	0.188
-276.428	17.639	0.053	-0.042
-275.413	-60.311	0.204	-0.086
-274.399	-200.000	-0.002	-0.158
-273.384	-200.000	0.123	0.554
-272.370	72.973	0.113	0.118
-271.355	-103.317	0.446	-0.104
-270.340	800.000	0.067	0.242
-269.326	108.391	0.182	-0.215
-268.311	800.000	-0.025	-0.097
-267.297	-108.657	0.131	0.028
-266.282	57.410	0.100	-0.097
-265.267	34.632	-0.118	-0.102
-264.253	-184.882	-0.336	0.005
-263.238	-95.953	0.096	-0.025
-262.224	-189.780	0.336	0.004
-261.209	-45.375	0.191	-0.094
-260.195	-200.000	0.020	-0.175
-259.180	-200.000	0.023	-0.163
-258.165	-161.670	0.091	-0.005
-257.151	104.219	-0.173	-0.202
-256.136	-32.119	0.028	-0.015
-255.122	28.058	0.132	-0.110
-254.107	800.000	0.050	0.153
-253.092	-105.643	0.460	-0.104
-252.078	-150.520	0.272	0.021
-251.063	-200.000	-0.023	-0.127
-250.049	123.155	0.152	-0.189
-249.034	-36.373	0.390	0.209
-248.019	-38.682	0.120	0.063
-247.005	-199.825	-0.078	-0.000
-245.990	306.901	0.167	0.310
-244.976	101.031	0.043	0.050
-243.961	422.430	-0.104	0.221
-242.946	-105.351	0.439	-0.099
-241.932	343.253	0.159	-0.310
-240.917	-87.032	0.198	-0.060
-239.903	-15.671	0.253	-0.161
-238.888	442.211	0.059	-0.128
-237.873	-98.897	-0.170	-0.043
-236.859	-21.904	0.033	0.020
-235.844	-135.322	-0.156	0.018
-234.830	537.455	0.078	-0.184
-233.815	85.905	-0.263	0.287
-232.800	800.000	0.100	0.363
-231.786	313.857	-0.064	-0.119
-230.771	-28.685	-0.090	0.052
-229.757	-47.148	0.136	-0.066
-228.742	203.334	-0.077	0.119
-227.727	-200.000	-0.008	0.144
-226.713	-200.000	0.011	0.480
-225.698	-200.000	0.013	-0.292
-224.684	800.000	0.086	0.253
-223.669	-43.887	-0.035	-0.017
-222.655	-27.446	-0.119	0.069
-221.640	-200.000	0.001	0.017
-220.625	622.096	-0.116	-0.290
-219.611	800.000	0.112	0.334
-218.596	-8.753	0.287	-0.191
-217.582	-144.585	0.279	-0.026
-216.567	-169.888	-0.122	0.004
-215.552	-200.000	-0.026	-0.213
-214.538	-198.924	-0.256	0.001
-213.523	800.000	-0.148	-0.427
-212.509	482.947	0.070	0.159
-211.494	87.527	-0.188	-0.206
-210.479	-200.000	-0.012	-0.159
-209.465	-17.125	0.239	-0.149
-208.450	485.929	-0.053	0.121
-207.436	-200.000	0.037	-0.238
-206.421	-175.296	-0.252	0.007
-205.406	506.220	0.089	0.204
-204.392	-200.000	-0.062	0.440
-203.377	-170.328	-0.397	-0.014
-202.363	24.702	0.056	-0.046
-201.348	-200.000	-0.010	-0.191
-200.333	187.652	0.084	-0.124
-199.319	202.487	0.169	0.258
-198.304	194.124	-0.071	-0.106
-197.290	800.000	0.020	0.068
-196.275	24.304	-0.432	-0.354
-195.260	-105.229	0.308	-0.070
-194.246	201.802	0.144	0.219
-193.231	487.018	-0.199	0.450
-192.217	13.313	0.237	-0.182
-191.202	240.585	-0.077	0.127
-190.187	800.000	-0.027	0.094
-189.173	-200.000	-0.008	-0.074
-188.158	69.622	-0.190	-0.194
-187.144	-200.000	0.081	0.363
-186.129	340.302	-0.164	0.316
-185.114	-41.590	-0.098	0.050
-184.100	-200.000	0.000	-0.281
-183.085	-92.835	-0.138	-0.038
-182.071	-99.104	0.186	0.047
-181.056	-69.114	0.251	-0.096
-180.042	-70.644	-0.144	-0.054
-179.027	-200.000	-0.022	0.111
-178.012	-200.000	-0.044	0.448
-176.998	800.000	0.154	0.483
-175.983	572.082	-0.073	0.177
-174.969	51.331	-0.057	-0.053
-173.954	30.697	0.144	-0.122
-172.939	64.675	-0.097	-0.097
-171.925	-96.119	-0.059	0.015
-170.910	233.494	-0.081	0.133
-169.896	183.210	-0.107	0.156
-168.881	-200.000	0.045	-0.197
-167.866	197.651	0.208	-0.314
-166.852	-11.256	-0.152	-0.099
-165.837	-93.939	-0.082	-0.022
-164.823	10.154	-0.049	0.037
-163.808	-200.000	0.014	-0.122
-162.793	-76.210	0.347	-0.121
-161.779	-200.000	0.003	0.153
-160.764	-98.590	-0.278	0.070
-159.750	75.269	-0.171	0.178
-158.735	-200.000	-0.026	0.248
-157.720	-95.850	-0.171	-0.045
-156.706	-143.541	-0.544	0.051
-155.691	-200.000	-0.005	0.194
-154.677	47.665	-0.067	-0.062
-153.662	-61.470	0.173	0.072
-152.647	495.350	0.138	-0.314
-151.633	-82.339	-0.198	-0.064
-150.618	-149.167	-0.112	0.009
-149.604	106.706	-0.211	0.248
-148.589	-15.205	0.183	-0.116
-147.574	-200.000	0.062	0.298
-146.560	64.075	0.232	0.231
-145.545	582.498	-0.052	0.126
-144.531	-200.000	0.013	-0.178
-143.516	-116.358	-0.239	-0.044
-142.502	-87.384	0.109	0.033
-141.487	800.000	0.053	-0.145
-140.472	316.680	0.155	0.290
-139.458	-200.000	-0.014	-0.068
-138.443	387.943	-0.062	-0.127
-137.429	33.084	-0.113	-0.097
-136.414	800.000	0.094	-0.312
-135.399	-200.000	0.020	0.293
-134.385	-200.000	0.022	0.325
-133.370	2.727	-0.092	-0.066
-132.356	-147.057	-0.354	-0.030
-131.341	272.026	-0.027	0.048
-130.326	800.000	0.133	0.425
-129.312	389.333	-0.120	-0.245
-128.297	37.395	0.060	-0.052
-127.283	-200.000	0.011	-0.413
-126.268	-116.398	-0.097	-0.018
-125.253	-13.948	0.264	-0.168
-124.239	49.658	-0.103	-0.096
-123.224	-43.313	-0.173	0.087
-122.210	179.391	-0.105	0.153
-121.195	-200.000	0.017	0.160
-120.180	-200.000	0.054	0.372
-119.166	-48.565	-0.180	0.086
-118.151	346.203	0.135	0.262
-117.137	306.288	-0.067	-0.123
-116.122	-113.809	0.172	0.033
-115.107	284.113	0.061	0.108
-114.093	800.000	-0.094	0.293
-113.078	-62.038	0.164	0.068
-112.064	190.005	0.164	0.243
-111.049	-200.000	0.008	0.121
-110.034	85.256	0.046	-0.050
-109.020	233.223	0.111	0.181
-108.005	-26.898	-0.148	-0.085
-106.991	-21.973	0.132	-0.079
-105.976	92.750	0.137	0.153
-104.962	-116.446	0.140	-0.026
-103.947	-80.601	0.089	-0.029
-102.932	-108.630	-0.124	-0.026
-101.918	-200.000	0.023	0.248
-100.903	-155.703	0.104	0.007
-99.889	800.000	-0.086	0.371
-98.874	-80.914	0.346	0.113
-97.859	-5.456	-0.128	-0.087
-96.845	-153.785	-0.332	-0.022
-95.830	-200.000	-0.020	0.168
-94.816	241.066	-0.163	0.269
-93.801	-74.279	-0.170	0.061
-92.786	57.385	-0.167	0.161
-91.772	-113.864	0.093	-0.018
-90.757	-104.808	0.115	-0.026
-89.743	177.184	0.167	0.240
-88.728	-95.991	0.265	0.070
-87.713	-114.325	-0.161	-0.031
-86.699	-155.097	-0.256	-0.017
-85.684	-50.973	0.329	-0.153
-84.670	-19.090	-0.073	-0.045
-83.655	170.259	-0.222	0.314
-82.640	800.000	-0.071	0.199
-81.626	-39.560	-0.204	0.106
-80.611	-48.815	-0.091	-0.043
-79.597	6.956	-0.164	-0.121
-78.582	-41.909	0.337	-0.170
-77.567	-164.689	-0.004	-0.000
-76.553	-14.686	-0.079	-0.050
-75.538	-95.925	-0.150	-0.039
-74.524	-200.000	0.007	-0.046
-73.509	57.526	-0.236	0.228
-72.494	-200.000	-0.013	-0.060
-71.480	-200.000	0.019	-0.143
-70.465	526.129	0.146	0.339
-69.451	217.799	0.148	-0.233
-68.436	220.808	-0.096	-0.152
-67.422	-200.000	0.050	0.318
-66.407	-140.654	0.317	0.032
-65.392	-57.728	0.104	0.045
-64.378	336.290	0.071	-0.135
-63.363	-133.026	0.063	-0.008
-62.349	-24.138	-0.261	0.154
-61.334	111.653	-0.810	-0.964
-60.319	54.603	0.706	0.671
-59.305	-200.000	0.118	-0.963
-58.290	306.747	0.553	1.015
-57.276	-200.000	0.159	1.606
-56.261	-200.000	102.712	619.247
-55.246	607.743	1438.000	3536.562
-54.232	181.253	2648.852	3839.251
-53.217	118.793	2199.806	2679.032
-52.203	44.592	1728.973	1566.615
-51.188	37.316	1540.166	1345.334
-50.173	34.813	1512.551	1304.111
-49.159	54.459	1567.297	1488.341
-48.144	56.952	1585.105	1522.508
-47.130	37.489	1537.956	1344.385
-46.115	34.357	1522.738	1309.548
-45.100	34.111	1519.270	1304.830
-44.086	34.098	1517.689	1303.327
-43.071	34.061	1515.485	1301.133
-42.057	33.921	1514.416	1299.207
-41.042	34.077	1512.554	1298.623
-40.027	34.129	1511.133	1297.702
-39.013	34.028	1510.067	1296.047
-37.998	34.013	1508.636	1294.665
-36.984	34.014	1507.584	1293.721
-35.969	34.060	1506.060	1292.674
-34.954	34.015	1505.085	1291.479
-33.940	34.065	1503.530	1290.431
-32.925	34.025	1501.991	1288.793
-31.911	34.040	1500.796	1287.818
-30.896	34.163	1499.144	1287.178
-29.881	34.138	1498.253	1286.192
-28.867	34.044	1497.358	1284.741
-27.852	34.016	1495.628	1283.015
-26.838	34.179	1493.230	1282.009
-25.823	34.169	1491.970	1280.808
-24.809	33.991	1491.172	1278.876
-23.794	34.072	1489.474	1277.912
-22.779	33.925	1488.657	1276.174
-21.765	34.102	1487.070	1275.946
-20.750	34.124	1485.146	1274.395
-19.736	34.127	1484.493	1273.804
-18.721	33.979	1484.033	1272.367
-17.706	34.023	1482.318	1271.138
-16.692	34.062	1481.573	1270.708
-15.677	33.949	1480.815	1269.259
-14.663	34.028	1480.080	1269.103
-13.648	34.039	1478.993	1268.193
-12.633	34.029	1477.559	1266.849
-11.619	33.947	1476.878	1265.670
-10.604	33.931	1476.109	1264.851
-9.590	33.938	1475.022	1263.913
-8.575	33.999	1474.323	1263.673
-7.560	34.011	1473.741	1263.205
-6.546	34.027	1472.666	1262.335
-5.531	34.028	1471.615	1261.392
-4.517	34.048	1470.498	1260.518
-3.502	33.978	1469.961	1259.546
-2.487	34.021	1468.675	1258.679
-1.473	33.951	1468.026	1257.607
-0.458	33.933	1466.465	1256.099
0.556	31.398	1456.330	1243.787
1.571	27.844	1429.434	1197.451
2.586	23.764	1365.803	1118.417
3.600	21.905	1282.374	1039.009
4.615	20.641	1237.677	995.475
5.629	17.927	1181.230	935.148
6.644	8.537	1095.772	819.496
7.659	1.045	1052.844	750.325
8.673	-0.146	1047.369	740.486
9.688	-0.387	1044.060	736.895
10.702	-0.478	1042.552	735.321
11.717	-0.438	1040.595	734.071
12.731	2.490	1044.112	750.859
13.746	11.560	1056.901	804.849
14.761	17.918	1064.392	841.934
15.775	18.062	1063.979	842.242
16.790	17.889	1063.155	840.664
17.804	17.717	1061.980	838.816
18.819	17.436	1061.288	836.810
19.834	17.443	1061.016	836.555
20.848	17.535	1059.986	836.125
21.863	17.568	1059.228	835.614
22.877	17.480	1059.440	835.275
23.892	17.496	1058.289	834.370
24.907	17.316	1057.119	832.496
25.921	17.368	1057.193	832.733
26.936	17.324	1056.491	831.890
27.950	17.402	1054.963	830.998
28.965	17.416	1053.699	829.993
29.980	17.344	1051.750	828.034
30.994	17.235	1050.526	826.468
32.009	17.479	1049.524	826.792
33.023	17.542	1048.715	826.388
34.038	17.229	1047.441	823.792
35.053	17.278	1046.837	823.481
36.067	17.488	1046.038	823.797
37.082	17.428	1045.173	822.753
38.096	17.615	1044.420	822.990
39.111	17.821	1043.342	823.065
40.126	17.749	1042.640	822.089
41.140	17.766	1041.009	820.815
42.155	17.505	1039.458	818.264
43.169	17.272	1038.530	816.341
44.184	17.330	1037.054	815.386
45.199	17.381	1036.067	814.782
46.213	17.215	1034.993	813.073
47.228	17.082	1034.293	811.813
48.242	17.223	1033.059	811.451
49.257	17.214	1032.113	810.589
50.271	17.333	1031.095	810.287
51.286	17.382	1030.218	809.757
52.301	17.412	1029.339	809.141
53.315	17.307	1028.914	808.234
54.330	17.429	1027.153	807.357
55.344	17.440	1026.599	806.904
56.359	17.529	1025.644	806.504
57.374	17.531	1024.571	805.596
58.388	17.396	1023.901	804.363
59.403	17.370	1023.038	803.488
60.417	17.364	1022.413	802.896
61.432	17.235	1021.283	801.334
62.447	17.245	1020.642	800.804
63.461	17.390	1019.820	800.773
64.476	17.343	1019.158	799.962
65.490	17.386	1017.917	799.118
66.505	17.295	1017.379	798.195
67.520	17.294	1016.625	797.532
68.534	17.389	1015.577	797.083
69.549	17.406	1014.358	796.133
70.563	17.033	1013.126	793.353
71.578	17.028	1012.815	793.019
72.593	17.173	1011.656	792.715
73.607	17.077	1010.588	791.360
74.622	16.977	1009.687	790.121
75.636	17.154	1009.393	790.646
76.651	17.367	1008.479	790.848
77.666	17.253	1007.560	789.528
78.680	17.171	1006.468	788.222
79.695	17.195	1005.982	787.884
80.709	17.316	1005.144	787.718
81.724	17.238	1004.726	786.960
82.739	17.256	1003.276	785.839
83.753	17.240	1002.906	785.403
84.768	17.357	1001.931	785.110
85.782	17.555	1001.271	785.440
86.797	17.717	1000.442	785.465
87.812	17.538	999.894	784.143
88.826	17.610	998.445	783.269
89.841	17.559	997.896	782.531
90.855	17.566	996.707	781.563
91.870	17.688	995.914	781.430
92.884	17.722	994.936	780.748
93.899	17.589	993.901	779.258
94.914	17.381	993.115	777.624
95.928	17.459	992.549	777.469
96.943	17.742	991.492	777.862
97.957	17.402	989.953	775.038
98.972	17.160	989.420	773.451
99.987	17.047	987.978	771.740
101.001	17.080	987.439	771.403
102.016	17.304	987.170	772.139
103.030	17.337	986.324	771.558
104.045	17.462	984.591	770.703
105.060	17.207	983.252	768.434
106.074	16.942	982.056	766.233
107.089	17.085	981.554	766.418
108.103	17.534	981.054	767.986
109.118	17.626	980.305	767.748
110.133	17.542	978.644	766.002
111.147	17.397	978.277	764.995
112.162	17.346	977.027	763.721
113.176	17.110	975.883	761.700
114.191	17.222	975.110	761.531
115.206	17.257	973.955	760.716
116.220	17.154	972.648	759.168
117.235	17.070	971.607	757.913
118.249	17.074	971.064	757.444
119.264	17.122	969.700	756.525
120.279	17.110	968.957	755.826
121.293	17.190	967.945	755.324
122.308	17.256	967.409	755.130
123.322	17.289	966.548	754.538
124.337	17.230	965.443	753.347
125.352	17.249	964.263	752.444
126.366	16.783	962.475	748.923
127.381	16.521	961.187	746.701
128.395	16.967	960.423	748.008
129.410	17.396	960.400	749.813
130.424	17.589	959.562	749.940
131.439	17.697	957.792	748.966
132.454	17.579	957.032	747.789
133.468	17.579	955.939	746.870
134.483	17.462	955.751	746.143
135.497	17.524	954.486	745.360
136.512	17.715	954.030	745.775
137.527	17.785	953.149	745.325
138.541	17.792	952.049	744.431
139.556	17.767	951.585	743.892
140.570	17.716	950.811	743.000
141.585	17.666	949.956	742.046
142.600	17.807	948.579	741.518
143.614	17.591	947.950	740.025
144.629	17.739	947.225	740.033
145.643	18.039	946.261	740.516
146.658	17.818	945.563	738.946
147.673	17.775	943.965	737.449
148.687	17.638	943.218	736.208
149.702	17.646	941.860	735.116
150.716	17.564	941.276	734.242
151.731	17.477	940.388	733.111
152.746	17.570	939.334	732.622
153.760	17.751	939.133	733.180
154.775	17.805	938.461	732.821
155.789	17.820	937.548	732.109
156.804	17.953	936.292	731.633
157.819	17.860	935.232	730.343
158.833	17.863	934.749	729.915
159.848	17.923	933.808	729.371
160.862	17.943	932.942	728.714
161.877	17.905	931.778	727.580
162.892	17.789	930.853	726.298
163.906	18.002	930.046	726.510
164.921	17.875	929.249	725.284
165.935	17.904	928.311	724.610
166.950	17.943	927.099	723.765
167.964	17.912	926.260	722.918
168.979	17.911	924.862	721.758
169.994	17.887	923.750	720.723
171.008	17.766	923.173	719.702
172.023	17.899	922.505	719.677
173.037	17.767	921.887	718.573
174.052	17.758	920.422	717.330
175.067	17.475	919.374	715.262
176.081	17.667	918.637	715.432
177.096	17.740	918.228	715.353
178.110	17.770	917.288	714.685
179.125	17.643	915.946	713.044
180.140	17.513	914.463	711.286
181.154	17.491	914.005	710.773
182.169	17.590	913.403	710.655
183.183	17.673	913.035	710.654
184.198	17.865	912.484	710.960
185.213	17.822	911.755	710.150
186.227	17.847	910.744	709.405
187.242	18.040	910.356	709.842
188.256	17.928	909.939	708.988
189.271	17.959	909.104	708.403
190.286	17.880	908.202	707.310
191.300	17.845	907.189	706.312
192.315	17.487	906.137	703.952
193.329	16.924	904.540	700.326
194.344	16.732	903.101	698.356
195.359	17.132	903.863	700.537
196.373	17.791	904.049	703.337
197.388	17.945	903.232	703.271
198.402	17.624	902.658	701.440
199.417	17.538	901.574	700.181
200.432	17.707	901.002	700.369
201.446	17.413	900.775	698.926
202.461	17.234	899.472	697.118
203.475	17.291	899.175	697.062
204.490	16.856	897.688	694.065
205.504	16.038	895.691	689.117
206.519	16.414	895.644	690.557
207.534	17.217	896.500	694.439
208.548	17.485	895.753	694.891
209.563	17.785	895.336	695.732
210.577	17.785	894.289	694.856
211.592	17.609	893.519	693.480
212.607	17.909	893.486	694.614
213.621	17.800	893.210	693.893
214.636	17.692	892.526	692.863
215.650	17.972	891.374	693.043
216.665	17.912	890.914	692.382
217.680	18.027	890.381	692.369
218.694	18.040	889.588	691.744
219.709	17.648	888.964	689.612
220.723	17.236	888.069	687.194
221.738	17.514	887.639	687.923
222.753	17.974	886.646	688.949
223.767	17.796	886.094	687.741
224.782	17.857	885.235	687.260
225.796	17.898	884.475	686.771
226.811	18.048	883.698	686.712
227.826	17.718	882.518	684.408
228.840	17.008	881.171	680.457
229.855	17.096	880.649	680.348
230.869	17.200	880.698	680.742
231.884	16.873	879.370	678.346
232.899	17.102	878.742	678.718
233.913	17.693	878.912	681.152
234.928	17.924	878.665	681.820
235.942	17.789	877.729	680.497
236.957	17.902	877.255	680.520
237.972	17.599	875.814	678.137
238.986	17.529	875.183	677.307
240.001	17.699	874.897	677.704
241.015	17.725	874.134	677.155
242.030	17.741	873.247	676.472
243.045	17.734	872.857	676.080
244.059	18.004	872.047	676.465
245.074	17.997	871.750	676.147
246.088	17.967	870.793	675.225
247.103	17.584	869.825	672.902
248.117	17.671	869.277	672.761
249.132	18.110	868.848	674.102
250.147	18.257	868.598	674.426
251.161	18.256	867.883	673.809
252.176	18.516	866.974	674.066
253.190	18.544	866.011	673.367
254.205	18.357	866.183	672.709
255.220	18.607	865.485	673.087
256.234	18.549	864.764	672.238
257.249	18.554	863.973	671.584
258.263	18.446	863.389	670.646
259.278	18.446	863.139	670.394
260.293	18.632	862.358	670.457
261.307	18.646	861.369	669.683
262.322	18.526	860.665	668.607
263.336	18.436	859.908	667.610
264.351	18.049	858.589	665.022
265.366	16.909	856.560	658.964
266.380	16.652	855.746	657.279
267.395	17.411	856.138	660.471
268.409	18.178	855.968	663.258
269.424	18.063	855.505	662.394
270.439	18.343	855.199	663.183
271.453	18.321	854.496	662.495
272.468	18.430	853.679	662.222
273.482	18.642	853.256	662.654
274.497	18.712	852.766	662.488
275.512	18.478	851.921	660.867
276.526	18.020	850.280	657.774
277.541	18.180	849.793	657.954
278.555	18.430	849.466	658.605
279.570	18.286	848.855	657.518
280.585	17.861	848.069	655.222
281.599	18.099	847.630	655.738
282.614	18.318	846.832	655.903
283.628	17.986	845.800	653.773
284.643	17.835	845.354	652.793
285.657	18.112	844.922	653.460
286.672	18.006	843.970	652.260
287.687	17.471	843.114	649.501
288.701	17.726	843.258	650.526
289.716	18.113	843.012	651.758
290.730	17.784	841.889	649.577
291.745	17.869	840.845	649.038
292.760	17.597	840.093	647.366
293.774	17.362	839.458	645.927
294.789	18.194	839.999	649.448
295.803	18.808	839.762	651.537
296.818	18.856	839.419	651.394
297.833	19.135	838.422	651.618
298.847	19.016	837.266	650.213
299.862	18.651	836.477	648.164
300.876	18.742	836.324	648.334
301.891	19.041	835.836	649.025
302.906	18.919	834.918	647.794
303.920	18.565	833.509	645.312
304.935	18.362	833.386	644.394
305.949	18.516	832.531	644.257
306.964	18.759	832.436	645.040
307.979	18.576	831.682	643.713
308.993	18.709	831.012	643.634
310.008	19.008	831.226	644.865
311.022	19.071	830.664	644.608
312.037	18.862	829.760	643.065
313.052	18.830	829.339	642.565
314.066	18.730	828.595	641.557
315.081	18.221	827.297	638.595
316.095	17.627	825.926	635.266
317.110	18.056	826.325	637.116
318.125	18.787	826.008	639.541
319.139	18.379	825.137	637.290
320.154	17.597	823.418	633.002
321.168	17.318	822.494	631.200
322.183	17.738	822.906	633.021
323.197	18.395	822.841	635.351
324.212	18.662	822.733	636.200
325.227	18.885	822.434	636.740
326.241	18.980	821.555	636.354
327.256	18.893	821.133	635.649
328.270	18.905	820.496	635.147
329.285	18.668	820.336	634.088
330.300	18.687	819.296	633.299
331.314	18.597	818.431	632.244
332.329	18.596	817.686	631.608
333.343	18.825	817.111	631.952
334.358	18.914	816.777	631.965
335.373	19.072	816.293	632.115
336.387	18.907	815.820	631.084
337.402	19.234	815.554	632.025
338.416	19.368	814.602	631.720
339.431	19.404	813.626	631.042
340.446	19.242	813.470	630.272
341.460	19.278	813.217	630.150
342.475	19.303	812.368	629.530
343.489	19.069	811.564	627.997
344.504	19.168	810.979	627.849
345.519	19.295	810.662	628.010
346.533	19.512	810.290	628.455
347.548	19.509	809.964	628.139
348.562	19.607	809.548	628.115
349.577	19.617	809.142	627.782
350.592	19.614	808.259	627.032
351.606	19.666	807.980	626.948
352.621	19.625	807.693	626.520
353.635	19.520	807.169	625.676
354.650	19.481	806.285	624.796
355.665	19.215	805.607	623.253
356.679	18.383	803.923	618.889
357.694	18.181	803.681	617.918
358.708	18.821	803.343	619.915
359.723	18.664	802.699	618.798
360.738	18.875	802.863	619.629
361.752	19.341	802.537	621.001
362.767	19.470	802.102	621.075
363.781	19.513	802.134	621.198
364.796	19.758	801.767	621.741
365.810	19.839	801.235	621.565
366.825	19.814	800.852	621.122
367.840	19.918	800.313	621.021
368.854	19.741	799.529	619.726
369.869	19.507	798.944	618.380
370.883	19.383	798.398	617.455
371.898	19.410	797.648	616.920
372.913	19.316	796.698	615.794
373.927	19.171	796.004	614.687
374.942	19.352	795.859	615.164
375.956	19.632	795.395	615.750
376.971	19.601	795.011	615.287
377.986	19.769	794.242	615.235
379.000	19.921	793.628	615.246
380.015	19.978	793.261	615.109
381.029	19.662	793.013	613.742
382.044	19.854	791.923	613.525
383.059	19.813	791.821	613.245
384.073	19.833	791.312	612.868
385.088	19.801	790.670	612.202
386.102	20.030	789.968	612.416
387.117	19.790	789.864	611.430
388.132	19.776	789.186	610.802
389.146	19.703	788.450	609.924
390.161	19.236	787.653	607.605
391.175	19.156	787.162	606.889
392.190	19.530	787.075	608.087
393.205	19.471	786.904	607.693
394.219	18.817	785.136	603.977
395.234	17.467	783.425	597.867
396.248	16.945	783.006	595.662
397.263	18.030	783.352	599.683
398.278	19.481	784.284	605.437
399.292	19.739	784.070	606.122
400.307	19.742	783.107	605.334
401.321	19.795	782.756	605.195
402.336	19.734	782.498	604.730
403.350	19.791	782.645	604.991
404.365	20.161	782.029	605.754
405.380	20.255	781.801	605.852
406.394	20.490	781.281	606.215
407.409	20.336	781.197	605.557
408.423	20.435	780.798	605.539
409.438	20.271	779.641	604.018
410.453	20.473	779.296	604.400
411.467	20.509	778.934	604.193
412.482	20.541	778.444	603.870
413.496	20.468	777.884	603.127
414.511	20.619	777.551	603.339
415.526	20.528	777.664	603.059
416.540	20.498	777.152	602.504
417.555	20.470	776.319	601.710
418.569	20.287	775.627	600.486
419.584	20.246	774.776	599.632
420.599	20.281	774.481	599.471
421.613	155.422	1358.503	1792.121
422.628	134.104	1443.603	1792.232
