DTS Sentinel unit serial number:	SN413079Multiplexer serial number:	ORYXHardware model number:	OX4-SRSoftware version number:	ORYX F/W v4.00 Oryx Data Collector v3.7.2.0data status	okinstallation	princeton_trtdifferential loss correction	single-endedforward channel	channel 3reverse channel	N/Adate	2019/09/12time	02:06:11forward acquisition time	60.00reverse acquisition time	0.00gamma	496.2192k internal	0.2320k external	0.2320temperature offset calibration	1.0064default loss term (dB/km)	0.3790temperature slope calibration	1.0000multiplexer offset coefficient	1.0000multiplexer slope coefficient	1.0000fibre end	0.00T internal ref (°C)	32.69T ext. ref 1 (°C)	2.06T ext. ref 2 (°C)	27.31length (m)	temperature (°C)	Stokes	anti-Stokes-747.200	-48.963	-0.184	-0.089
-746.185	-200.000	-0.006	0.374
-745.171	-104.039	-0.060	0.014
-744.156	231.603	-0.194	0.322
-743.142	-96.792	-0.167	-0.044
-742.127	251.094	-0.161	0.277
-741.112	135.728	-0.132	0.173
-740.098	-200.000	-0.011	0.354
-739.083	12.163	-0.050	0.039
-738.069	-200.000	-0.015	0.193
-737.054	403.595	0.111	-0.235
-736.039	-200.000	-0.006	-0.046
-735.025	418.807	0.020	0.043
-734.010	-102.614	-0.144	-0.035
-732.996	-158.019	-0.184	0.011
-731.981	-57.746	-0.159	0.070
-730.966	112.815	-0.231	-0.283
-729.952	199.678	-0.180	-0.279
-728.937	-178.036	-0.363	0.009
-727.923	-117.044	-0.129	-0.024
-726.908	71.421	0.042	0.044
-725.894	-53.104	-0.278	-0.129
-724.879	24.495	0.228	-0.190
-723.864	800.000	0.112	0.341
-722.850	-5.940	-0.099	0.068
-721.835	414.715	-0.096	0.206
-720.821	305.092	0.069	0.130
-719.806	-142.334	-0.250	0.025
-718.791	370.172	0.150	-0.306
-717.777	-144.075	-0.110	-0.010
-716.762	-200.000	-0.091	-0.437
-715.748	97.785	-0.029	0.034
-714.733	-65.974	-0.362	-0.146
-713.718	435.626	0.190	-0.417
-712.704	371.847	0.124	-0.255
-711.689	65.703	0.066	-0.068
-710.675	233.340	-0.049	-0.081
-709.660	-71.171	0.133	0.050
-708.645	149.975	-0.200	-0.274
-707.631	230.507	-0.268	0.442
-706.616	127.973	-0.268	-0.344
-705.602	800.000	0.041	-0.152
-704.587	186.147	-0.253	-0.379
-703.572	-26.056	-0.087	0.052
-702.558	-22.523	0.269	-0.164
-701.543	-200.000	-0.021	-0.340
-700.529	-166.611	0.225	0.009
-699.514	-1.264	0.280	-0.200
-698.499	800.000	0.067	-0.268
-697.485	-81.174	-0.154	0.051
-696.470	-176.002	0.182	0.005
-695.456	-113.982	-0.152	-0.030
-694.441	590.564	0.025	0.063
-693.426	422.249	-0.105	0.228
-692.412	-59.137	0.190	0.082
-691.397	-18.113	-0.170	0.108
-690.383	-82.305	-0.389	0.128
-689.368	800.000	0.063	0.207
-688.354	-200.000	-0.069	0.410
-687.339	-113.193	-0.158	-0.031
-686.324	-155.707	0.063	-0.004
-685.310	800.000	-0.155	-0.511
-684.295	163.388	-0.135	0.192
-683.281	57.421	0.097	-0.095
-682.266	277.993	0.037	0.067
-681.251	-200.000	0.037	-0.293
-680.237	239.865	0.109	-0.184
-679.222	-60.093	0.281	-0.121
-678.208	-200.000	0.032	-0.170
-677.193	-22.254	-0.165	-0.101
-676.178	800.000	-0.073	-0.221
-675.164	221.846	0.044	0.071
-674.149	-79.308	-0.084	0.029
-673.135	71.785	-0.127	-0.133
-672.120	254.662	0.166	-0.286
-671.105	-87.658	-0.306	-0.093
-670.091	800.000	-0.065	-0.219
-669.076	-91.830	-0.113	-0.032
-668.062	-1.295	0.085	-0.060
-667.047	-200.000	-0.052	0.352
-666.032	-200.000	0.058	-0.318
-665.018	-161.483	-0.146	-0.008
-664.003	-38.157	-0.089	-0.048
-662.989	-200.000	-0.005	-0.098
-661.974	-117.859	-0.088	0.016
-660.959	-56.641	-0.106	-0.047
-659.945	-24.582	-0.214	0.129
-658.930	108.950	0.162	-0.195
-657.916	720.184	-0.104	-0.279
-656.901	-92.072	-0.240	0.068
-655.886	-139.814	-0.075	-0.008
-654.872	280.949	-0.019	0.034
-653.857	-200.000	0.014	-0.362
-652.843	17.356	-0.119	0.095
-651.828	729.982	0.055	0.147
-650.814	625.997	0.121	0.308
-649.799	-90.819	0.332	0.096
-648.784	800.000	0.124	0.451
-647.770	800.000	-0.098	0.340
-646.755	60.667	-0.137	-0.137
-645.741	-84.945	0.310	-0.098
-644.726	-175.917	-0.083	-0.002
-643.711	24.488	-0.094	-0.078
-642.697	129.826	0.267	0.344
-641.682	32.280	0.071	-0.062
-640.668	8.336	0.138	0.105
-639.653	50.032	-0.154	0.146
-638.638	-11.120	0.303	-0.201
-637.624	201.270	0.049	-0.077
-636.609	78.686	-0.063	-0.068
-635.595	800.000	0.019	0.052
-634.580	276.236	-0.043	-0.078
-633.565	99.095	0.024	-0.028
-632.551	-200.000	-0.005	-0.089
-631.536	63.177	-0.121	-0.122
-630.522	-46.074	-0.366	0.182
-629.507	-116.062	-0.325	0.061
-628.492	-50.786	0.077	0.037
-627.478	-47.070	-0.114	-0.056
-626.463	-109.021	-0.140	0.030
-625.449	441.809	0.025	0.054
-624.434	800.000	0.072	-0.283
-623.419	-107.412	-0.118	-0.026
-622.405	-200.000	0.014	0.276
-621.390	-200.000	0.020	-0.137
-620.376	207.934	-0.150	0.236
-619.361	309.409	0.068	-0.129
-618.346	191.446	0.166	0.252
-617.332	-84.253	0.132	0.042
-616.317	-200.000	0.002	-0.063
-615.303	-200.000	-0.076	0.362
-614.288	424.666	-0.093	0.201
-613.273	800.000	0.055	-0.180
-612.259	681.470	-0.041	-0.108
-611.244	-113.994	0.395	0.077
-610.230	7.595	-0.156	-0.118
-609.215	-164.940	0.121	0.005
-608.201	-116.908	-0.161	-0.030
-607.186	-200.000	0.003	0.070
-606.171	-200.000	-0.018	-0.601
-605.157	-179.576	0.018	0.000
-604.142	54.854	0.307	0.298
-603.128	11.819	-0.226	0.175
-602.113	-200.000	-0.002	-0.117
-601.098	109.177	-0.175	-0.211
-600.084	717.091	-0.138	-0.369
-599.069	-37.914	0.270	-0.144
-598.055	-200.000	0.051	0.311
-597.040	-200.000	0.005	0.055
-596.025	-134.722	-0.415	-0.051
-595.011	-200.000	-0.010	0.116
-593.996	132.428	0.347	-0.449
-592.982	-101.365	0.238	0.058
-591.967	404.817	0.031	-0.066
-590.952	-91.449	0.199	-0.057
-589.938	22.200	0.188	0.155
-588.923	-123.112	-0.173	0.028
-587.909	675.929	-0.093	0.242
-586.894	726.540	0.021	-0.056
-585.879	102.647	-0.092	-0.109
-584.865	122.811	-0.272	-0.342
-583.850	-200.000	-0.042	0.196
-582.836	-92.982	0.153	0.043
-581.821	-24.294	-0.181	0.109
-580.806	12.163	-0.396	-0.306
-579.792	-73.493	0.472	0.173
-578.777	-200.000	0.019	-0.088
-577.763	-200.000	-0.072	-0.332
-576.748	-95.395	-0.020	0.005
-575.733	-117.461	-0.261	-0.047
-574.719	-109.427	-0.120	-0.025
-573.704	298.203	-0.067	-0.123
-572.690	-113.522	0.090	0.018
-571.675	-101.335	0.116	0.028
-570.661	-167.682	-0.144	0.006
-569.646	-100.074	-0.321	-0.080
-568.631	-140.873	0.158	-0.016
-567.617	-132.281	0.184	0.024
-566.602	-105.740	-0.242	0.055
-565.588	27.288	-0.166	-0.140
-564.573	-142.096	-0.154	-0.015
-563.558	-41.763	0.206	0.106
-562.544	-2.642	0.121	-0.085
-561.529	208.045	-0.261	-0.409
-560.515	34.925	-0.094	-0.083
-559.500	-36.424	-0.241	-0.130
-558.485	207.773	0.209	-0.328
-557.471	-200.000	-0.049	-0.216
-556.456	-200.000	-0.026	-0.205
-555.442	800.000	0.079	0.258
-554.427	-139.293	-0.287	0.031
-553.412	115.941	0.174	0.214
-552.398	-200.000	0.018	0.101
-551.383	-200.000	-0.045	-0.206
-550.369	-62.453	0.217	-0.091
-549.354	213.487	-0.097	-0.154
-548.339	281.080	0.120	0.215
-547.325	72.298	-0.145	0.152
-546.310	315.320	-0.098	0.186
-545.296	-149.369	0.279	-0.022
-544.281	597.394	0.177	-0.440
-543.266	-115.308	-0.495	-0.094
-542.252	-110.714	0.055	-0.011
-541.237	-92.967	-0.272	-0.076
-540.223	43.139	0.167	-0.152
-539.208	-155.771	-0.104	0.007
-538.193	-2.788	0.137	0.096
-537.179	-187.551	0.389	-0.005
-536.164	-17.968	0.039	0.024
-535.150	-30.519	-0.254	0.144
-534.135	800.000	-0.039	-0.118
-533.121	43.932	-0.047	0.043
-532.106	45.037	-0.237	0.219
-531.091	-200.000	-0.041	-0.220
-530.077	414.907	-0.089	0.190
-529.062	-155.651	0.233	0.015
-528.048	111.457	0.232	-0.281
-527.033	748.119	0.042	-0.113
-526.018	-158.301	-0.334	-0.019
-525.004	-200.000	-0.037	-0.322
-523.989	-115.361	0.067	0.013
-522.975	-3.950	-0.124	0.087
-521.960	15.516	0.128	0.101
-520.945	27.947	0.094	0.080
-519.931	-200.000	0.059	-0.330
-518.916	13.088	-0.279	-0.216
-517.902	-19.595	-0.175	0.108
-516.887	-200.000	-0.006	0.038
-515.872	71.328	0.103	0.107
-514.858	60.769	-0.059	-0.058
-513.843	-200.000	-0.013	-0.339
-512.829	111.897	-0.067	0.082
-511.814	138.450	-0.131	0.172
-510.799	800.000	0.060	0.206
-509.785	-174.179	-0.273	0.008
-508.770	-200.000	0.006	-0.097
-507.756	-200.000	-0.007	-0.058
-506.741	-200.000	0.009	0.349
-505.726	4.770	-0.163	0.120
-504.712	186.209	0.221	0.330
-503.697	-144.145	0.419	0.039
-502.683	-105.438	0.118	-0.027
-501.668	57.842	-0.110	-0.108
-500.653	-47.042	-0.218	0.106
-499.639	-4.803	0.121	-0.084
-498.624	-139.000	0.060	0.007
-497.610	229.475	-0.063	0.103
-496.595	11.255	-0.100	0.077
-495.581	202.031	0.076	-0.118
-494.566	-49.097	-0.214	0.103
-493.551	-115.514	-0.363	0.068
-492.537	-200.000	0.045	0.243
-491.522	-120.213	0.535	-0.091
-490.508	-200.000	0.020	-0.266
-489.493	-21.915	-0.086	-0.053
-488.478	-200.000	-0.070	-0.322
-487.464	116.458	-0.104	-0.128
-486.449	87.043	-0.094	-0.104
-485.435	-80.962	0.098	-0.032
-484.420	-16.793	0.215	-0.136
-483.405	-15.623	0.206	0.132
-482.391	-200.000	-0.005	-0.033
-481.376	231.225	0.088	-0.145
-480.362	6.904	0.216	0.161
-479.347	713.420	0.026	0.069
-478.332	-0.373	0.339	-0.241
-477.318	133.739	0.036	0.047
-476.303	-159.532	0.208	-0.012
-475.289	-186.810	0.141	-0.002
-474.274	43.960	-0.246	0.225
-473.259	-28.295	0.106	-0.061
-472.245	-39.248	0.144	0.076
-471.230	-136.286	0.460	0.054
-470.216	-0.487	0.268	0.191
-469.201	800.000	0.053	-0.166
-468.186	800.000	0.018	0.074
-467.172	117.903	-0.133	0.164
-466.157	-135.842	-0.280	0.033
-465.143	-200.000	-0.026	-0.216
-464.128	800.000	0.055	0.185
-463.113	-200.000	0.006	0.036
-462.099	-200.000	0.046	0.242
-461.084	306.521	-0.171	0.319
-460.070	69.879	-0.163	0.168
-459.055	800.000	-0.089	0.343
-458.040	86.081	0.123	0.135
-457.026	357.916	-0.121	0.242
-456.011	193.475	-0.073	-0.110
-454.997	-114.818	0.101	0.019
-453.982	133.407	0.165	-0.213
-452.968	-200.000	0.069	0.396
-451.953	49.853	0.170	0.160
-450.938	377.075	0.108	0.221
-449.924	-115.816	0.503	-0.094
-448.909	-200.000	-0.031	0.186
-447.895	800.000	-0.004	-0.015
-446.880	-36.870	-0.527	-0.283
-445.865	379.837	-0.166	0.340
-444.851	800.000	0.018	0.077
-443.836	-40.583	-0.239	0.124
-442.822	-200.000	0.028	0.154
-441.807	-200.000	-0.015	0.190
-440.792	-68.343	0.239	0.093
-439.778	178.670	0.139	0.202
-438.763	271.164	-0.097	-0.170
-437.749	-184.726	0.047	0.001
-436.734	120.240	-0.224	0.277
-435.719	-200.000	0.024	0.154
-434.705	-30.470	-0.074	0.042
-433.690	-200.000	-0.008	-0.200
-432.676	-200.000	0.017	-0.148
-431.661	-71.820	0.195	0.073
-430.646	800.000	0.110	0.378
-429.632	206.776	0.070	0.109
-428.617	-83.604	-0.317	0.101
-427.603	-21.944	-0.401	0.243
-426.588	-15.872	-0.094	0.059
-425.573	-60.665	0.059	-0.025
-424.559	-200.000	0.014	0.144
-423.544	-76.466	-0.167	0.058
-422.530	-15.049	-0.149	0.096
-421.515	800.000	0.030	0.100
-420.500	-25.948	-0.114	-0.067
-419.486	-90.385	-0.279	-0.081
-418.471	-139.277	-0.273	-0.029
-417.457	151.624	-0.066	-0.090
-416.442	-200.000	0.004	0.035
-415.428	15.262	-0.052	-0.041
-414.413	124.990	-0.211	0.266
-413.398	686.762	0.100	-0.261
-412.384	-137.541	-0.349	0.039
-411.369	351.337	-0.030	0.059
-410.355	-123.183	-0.228	-0.036
-409.340	-153.109	0.182	-0.013
-408.325	-153.835	-0.171	0.012
-407.311	-200.000	0.095	-0.552
-406.296	11.641	-0.139	0.106
-405.282	-183.649	0.112	-0.002
-404.267	277.909	-0.073	-0.130
-403.252	46.710	0.135	-0.125
-402.238	-70.761	-0.088	0.033
-401.223	319.630	0.046	-0.087
-400.209	-200.000	-0.022	-0.152
-399.194	-18.810	-0.146	-0.091
-398.179	-112.915	-0.164	0.032
-397.165	-32.279	-0.076	0.042
-396.150	-124.700	0.113	0.017
-395.136	-164.555	-0.193	0.009
-394.121	-84.876	0.279	-0.087
-393.106	-0.080	-0.170	0.121
-392.092	-0.885	0.258	0.183
-391.077	-200.000	-0.044	0.293
-390.063	-98.744	0.203	0.051
-389.048	800.000	0.037	0.158
-388.033	23.415	-0.292	0.240
-387.019	143.019	0.154	0.204
-386.004	800.000	0.063	0.258
-384.990	-200.000	0.012	-0.097
-383.975	-200.000	0.012	0.526
-382.960	-200.000	-0.012	-0.296
-381.946	-31.984	-0.053	0.029
-380.931	-200.000	-0.044	0.374
-379.917	-51.754	0.268	0.125
-378.902	800.000	0.033	-0.116
-377.888	-200.000	-0.050	-0.279
-376.873	123.031	0.033	0.041
-375.858	-88.290	0.206	-0.061
-374.844	-172.282	-0.172	-0.005
-373.829	365.965	-0.116	-0.234
-372.815	4.299	-0.253	-0.185
-371.800	-33.405	0.455	-0.251
-370.785	-200.000	-0.089	0.000
-369.771	-133.245	0.263	0.033
-368.756	-60.481	0.126	0.053
-367.742	20.761	-0.040	0.032
-366.727	-200.000	-0.025	-0.152
-365.712	-99.582	-0.254	-0.064
-364.698	-36.159	-0.150	-0.080
-363.683	-54.454	0.308	-0.139
-362.669	165.167	-0.100	-0.141
-361.654	23.701	0.024	0.020
-360.639	50.504	-0.207	-0.195
-359.625	528.718	0.028	-0.066
-358.610	-200.000	0.016	0.384
-357.596	-200.000	-0.071	-0.321
-356.581	-55.372	0.361	-0.161
-355.566	332.255	0.051	-0.099
-354.552	-100.371	0.058	-0.014
-353.537	-166.778	-0.070	-0.003
-352.523	-200.000	0.044	0.309
-351.508	11.700	-0.230	-0.176
-350.493	-200.000	0.018	0.151
-349.479	-24.027	-0.163	-0.097
-348.464	172.506	0.123	-0.176
-347.450	800.000	0.035	0.148
-346.435	-108.002	0.204	-0.044
-345.420	800.000	-0.127	0.407
-344.406	-67.678	0.080	-0.031
-343.391	329.825	-0.082	-0.158
-342.377	-84.320	-0.219	-0.069
-341.362	800.000	0.043	0.162
-340.348	318.446	-0.131	0.246
-339.333	800.000	-0.069	-0.197
-338.318	-54.302	-0.178	-0.080
-337.304	-143.656	-0.125	-0.012
-336.289	-21.291	-0.062	0.038
-335.275	655.770	0.056	0.144
-334.260	-105.620	-0.332	0.075
-333.245	143.632	0.195	0.258
-332.231	-67.808	0.245	-0.095
-331.216	262.699	-0.130	-0.224
-330.202	800.000	0.066	0.229
-329.187	74.516	-0.091	-0.095
-328.172	19.676	-0.193	-0.154
-327.158	-51.438	0.232	-0.108
-326.143	-200.000	0.085	0.495
-325.129	-200.000	-0.023	0.145
-324.114	92.368	-0.071	-0.080
-323.099	109.911	-0.366	-0.437
-322.085	-175.561	-0.572	0.015
-321.070	-176.302	0.196	-0.005
-320.056	-98.228	0.445	-0.114
-319.041	51.351	0.162	-0.153
-318.026	-200.000	-0.010	0.228
-317.012	-40.097	-0.063	0.032
-315.997	-85.482	-0.319	-0.099
-314.983	-172.918	0.148	0.005
-313.968	183.594	0.149	-0.219
-312.953	259.429	-0.228	-0.391
-311.939	80.092	0.044	-0.047
-310.924	-99.755	-0.075	-0.019
-309.910	-200.000	0.008	-0.120
-308.895	135.141	-0.168	-0.218
-307.880	-144.856	0.269	0.024
-306.866	742.701	-0.050	0.133
-305.851	-12.675	-0.054	-0.035
-304.837	3.084	-0.104	-0.075
-303.822	-200.000	0.015	-0.076
-302.807	60.341	-0.088	-0.087
-301.793	-200.000	0.057	-0.352
-300.778	800.000	0.011	-0.043
-299.764	800.000	0.092	-0.271
-298.749	-200.000	-0.029	0.131
-297.735	-99.355	0.275	-0.069
-296.720	408.972	0.098	0.207
-295.705	596.067	0.076	-0.187
-294.691	-115.256	0.267	0.050
-293.676	800.000	0.068	-0.241
-292.662	-190.330	-0.208	-0.002
-291.647	-200.000	0.027	-0.178
-290.632	154.022	0.147	0.200
-289.618	-1.716	-0.245	-0.171
-288.603	-66.941	0.161	0.063
-287.589	13.823	-0.353	-0.273
-286.574	-80.761	-0.194	0.064
-285.559	-200.000	-0.028	0.149
-284.545	54.456	-0.256	0.245
-283.530	36.928	0.289	-0.254
-282.516	-76.087	-0.164	0.058
-281.501	-200.000	-0.036	-0.236
-280.486	-99.768	0.283	-0.070
-279.472	-175.001	0.192	-0.005
-278.457	-35.443	0.311	-0.168
-277.443	307.820	-0.040	0.074
-276.428	-173.065	0.220	-0.007
-275.413	-200.000	-0.004	0.063
-274.399	661.983	-0.104	-0.265
-273.384	-200.000	-0.011	0.128
-272.370	192.725	0.065	0.097
-271.355	-91.035	0.139	-0.040
-270.340	-200.000	0.015	-0.074
-269.326	-200.000	0.003	0.190
-268.311	800.000	0.041	0.152
-267.297	-200.000	0.007	-0.231
-266.282	-113.057	0.265	-0.052
-265.267	41.358	-0.165	0.148
-264.253	-7.158	-0.324	0.218
-263.238	-200.000	-0.021	-0.159
-262.224	244.862	-0.058	0.097
-261.209	800.000	-0.091	-0.321
-260.195	44.078	0.189	-0.172
-259.180	-58.301	-0.169	-0.073
-258.165	800.000	-0.032	-0.115
-257.151	-111.900	0.191	-0.038
-256.136	800.000	0.078	-0.216
-255.122	384.575	-0.084	0.172
-254.107	-24.378	0.380	-0.225
-253.092	36.371	-0.305	0.267
-252.078	-106.930	-0.313	0.069
-251.063	452.522	-0.149	0.326
-250.049	42.917	0.150	-0.136
-249.034	15.859	0.132	0.103
-248.019	-8.960	-0.291	0.193
-247.005	-74.620	0.234	0.084
-245.990	-33.757	-0.216	0.118
-244.976	-94.212	0.170	-0.046
-243.961	-53.939	0.102	0.046
-242.946	800.000	0.017	-0.062
-241.932	-200.000	-0.005	-0.071
-240.917	800.000	0.044	0.165
-239.903	-200.000	-0.043	-0.199
-238.888	14.343	-0.336	-0.259
-237.873	-26.678	0.366	-0.212
-236.859	-27.741	-0.481	0.277
-235.844	129.124	-0.178	-0.225
-234.830	-10.538	0.039	0.025
-233.815	-14.233	-0.299	0.191
-232.800	219.787	0.086	0.137
-231.786	-154.251	-0.175	0.012
-230.771	720.479	-0.136	-0.358
-229.757	149.345	-0.225	-0.303
-228.742	-48.230	-0.264	0.126
-227.727	800.000	0.102	0.297
-226.713	-135.888	0.137	0.016
-225.698	-148.295	0.097	-0.008
-224.684	7.190	0.493	-0.364
-223.669	800.000	-0.079	0.217
-222.655	14.788	0.238	0.185
-221.640	578.773	0.111	0.269
-220.625	531.023	-0.070	-0.164
-219.611	-200.000	-0.016	0.145
-218.596	231.433	0.174	0.283
-217.582	-41.589	0.343	-0.174
-216.567	-46.786	0.051	0.025
-215.552	-200.000	-0.000	0.177
-214.538	-162.768	0.221	-0.011
-213.523	219.241	-0.095	0.151
-212.509	91.745	-0.158	0.176
-211.494	-200.000	0.021	0.176
-210.479	-65.378	0.192	0.076
-209.465	-200.000	0.092	-0.463
-208.450	321.490	-0.134	0.252
-207.436	2.043	-0.090	0.065
-206.421	-19.503	-0.314	0.193
-205.406	195.697	0.086	0.129
-204.392	198.408	0.229	0.347
-203.377	153.102	-0.226	0.306
-202.363	-200.000	-0.017	-0.200
-201.348	345.073	0.113	-0.220
-200.333	-71.262	0.145	0.054
-199.319	-39.514	-0.101	0.053
-198.304	-97.364	0.350	0.090
-197.290	84.542	-0.184	-0.199
-196.275	707.080	-0.035	-0.091
-195.260	9.855	-0.336	-0.253
-194.246	-200.000	0.023	-0.191
-193.231	793.807	0.072	-0.196
-192.217	-200.000	-0.024	0.139
-191.202	789.170	0.024	0.066
-190.187	286.394	-0.049	-0.087
-189.173	-15.764	0.246	-0.155
-188.158	277.511	-0.091	-0.161
-187.144	-59.287	0.081	0.034
-186.129	800.000	0.058	-0.191
-185.114	-53.644	-0.272	-0.123
-184.100	-200.000	0.020	0.180
-183.085	-200.000	0.023	-0.193
-182.071	-185.743	-0.161	0.002
-181.056	-200.000	0.024	-0.111
-180.042	477.844	0.166	-0.372
-179.027	-37.193	0.180	-0.095
-178.012	800.000	0.064	0.220
-176.998	461.251	0.068	0.150
-175.983	25.732	-0.147	-0.121
-174.969	-105.974	0.117	0.026
-173.954	38.156	0.232	-0.205
-172.939	-200.000	-0.003	-0.136
-171.925	-64.999	0.180	-0.072
-170.910	93.912	-0.191	0.214
-169.896	147.856	0.280	0.374
-168.881	-80.603	-0.087	-0.029
-167.866	-200.000	0.008	-0.328
-166.852	-101.987	0.302	-0.072
-165.837	-62.751	0.285	-0.117
-164.823	-200.000	-0.022	-0.164
-163.808	228.768	0.134	0.216
-162.793	104.094	0.233	0.271
-161.779	-114.251	0.202	0.039
-160.764	172.294	-0.136	0.194
-159.750	-128.171	0.093	-0.013
-158.735	23.647	0.259	0.211
-157.720	65.650	-0.204	-0.205
-156.706	-12.554	0.489	0.315
-155.691	136.049	-0.101	0.130
-154.677	-9.398	0.225	-0.148
-153.662	-200.000	-0.032	0.157
-152.647	430.204	-0.095	-0.203
-151.633	-100.062	-0.241	0.059
-150.618	59.697	0.345	0.336
-149.604	-50.483	0.109	0.051
-148.589	328.297	-0.123	0.233
-147.574	108.333	-0.126	0.148
-146.560	188.358	-0.121	-0.179
-145.545	800.000	0.119	-0.367
-144.531	-200.000	-0.021	0.119
-143.516	-200.000	-0.044	-0.192
-142.502	-112.269	0.358	-0.071
-141.487	-44.505	-0.044	-0.022
-140.472	486.908	0.109	-0.246
-139.458	-75.172	-0.093	0.033
-138.443	-31.305	0.175	-0.098
-137.429	-45.959	0.250	0.122
-136.414	-200.000	-0.003	0.045
-135.399	800.000	-0.173	0.564
-134.385	316.373	-0.126	0.236
-133.370	-200.000	-0.001	0.024
-132.356	79.582	0.138	-0.146
-131.341	-105.081	-0.310	0.070
-130.326	28.697	0.121	0.101
-129.312	-4.369	-0.280	0.191
-128.297	-200.000	-0.034	0.284
-127.283	601.532	0.114	0.280
-126.268	198.041	-0.354	0.534
-125.253	800.000	-0.095	0.293
-124.239	-117.170	-0.247	0.044
-123.224	-113.640	-0.111	0.021
-122.210	-156.182	-0.124	0.008
-121.195	-107.542	-0.176	-0.038
-120.180	-130.223	0.211	0.028
-119.166	-1.819	-0.082	0.057
-118.151	44.655	0.170	0.154
-117.137	-127.464	-0.120	-0.017
-116.122	-51.848	-0.126	-0.058
-115.107	800.000	-0.058	0.198
-114.093	-70.827	0.171	-0.064
-113.078	209.585	-0.117	0.182
-112.064	474.593	0.065	-0.145
-111.049	70.840	-0.100	-0.102
-110.034	300.720	-0.166	-0.302
-109.020	-200.000	0.024	-0.111
-108.005	800.000	0.022	-0.068
-106.991	248.053	0.156	0.260
-105.976	0.946	0.382	-0.270
-104.962	21.076	-0.191	0.152
-103.947	6.884	0.140	-0.103
-102.932	-200.000	0.009	-0.077
-101.918	-72.038	0.358	-0.131
-100.903	201.491	-0.042	0.064
-99.889	-107.213	0.149	-0.032
-98.874	267.135	-0.041	0.071
-97.859	-200.000	0.005	-0.239
-96.845	363.723	0.092	0.182
-95.830	-96.067	0.273	-0.071
-94.816	643.160	-0.092	0.230
-93.801	-200.000	0.075	-0.364
-92.786	37.416	-0.169	-0.148
-91.772	-124.222	-0.213	-0.033
-90.757	-126.847	-0.265	-0.039
-89.743	11.260	0.092	-0.069
-88.728	11.993	-0.394	0.299
-87.713	-54.129	-0.158	-0.071
-86.699	-127.992	0.091	-0.013
-85.684	254.158	0.068	0.114
-84.670	-161.262	0.052	0.003
-83.655	-200.000	-0.022	-0.190
-82.640	-43.673	-0.243	-0.121
-81.626	430.174	0.032	-0.068
-80.611	52.858	0.176	0.166
-79.597	108.862	0.129	0.152
-78.582	228.631	0.082	-0.132
-77.567	-200.000	-0.037	0.299
-76.553	-200.000	-0.001	-0.132
-75.538	261.412	-0.113	-0.192
-74.524	-200.000	0.004	0.093
-73.509	-178.466	0.550	0.013
-72.494	-200.000	-0.000	0.334
-71.480	-98.007	-0.125	-0.032
-70.465	-57.949	-0.065	0.028
-69.451	-91.231	-0.496	-0.140
-68.436	-200.000	0.004	0.064
-67.422	-35.163	0.272	-0.146
-66.407	-143.388	-0.247	-0.023
-65.392	242.985	-0.107	-0.176
-64.378	-200.000	-0.017	0.078
-63.363	-200.000	0.020	-0.169
-62.349	-200.000	-0.010	0.046
-61.334	145.986	-0.759	-1.002
-60.319	64.750	0.325	0.323
-59.305	-200.000	-0.179	-1.101
-58.290	236.740	0.664	1.082
-57.276	800.000	0.596	1.683
-56.261	-200.000	96.177	580.242
-55.246	561.386	1373.987	3270.103
-54.232	161.280	2547.089	3505.704
-53.217	111.565	2160.434	2565.372
-52.203	43.051	1705.917	1531.697
-51.188	35.901	1519.611	1315.716
-50.173	33.485	1493.168	1276.519
-49.159	52.131	1541.247	1445.646
-48.144	54.051	1559.077	1475.456
-47.130	36.062	1518.897	1315.993
-46.115	32.949	1504.674	1282.514
-45.100	32.847	1501.074	1278.706
-44.086	32.722	1499.333	1276.320
-43.071	32.669	1497.916	1274.711
-42.057	32.680	1496.167	1273.244
-41.042	32.720	1494.518	1272.062
-40.027	32.665	1493.168	1270.488
-39.013	32.686	1491.279	1268.974
-37.998	32.659	1490.560	1268.129
-36.984	32.646	1488.920	1266.594
-35.969	32.725	1487.477	1265.848
-34.954	32.656	1486.460	1264.471
-33.940	32.700	1484.925	1263.408
-32.925	32.737	1483.654	1262.526
-31.911	32.792	1482.500	1261.858
-30.896	32.765	1480.485	1259.912
-29.881	32.794	1479.777	1259.458
-28.867	32.791	1478.160	1258.010
-27.852	32.769	1476.762	1256.624
-26.838	32.734	1474.997	1254.840
-25.823	32.719	1473.747	1253.624
-24.809	32.757	1472.254	1252.557
-23.794	32.731	1470.405	1250.761
-22.779	32.657	1469.639	1249.571
-21.765	32.804	1468.184	1249.257
-20.750	32.689	1467.519	1247.884
-19.736	32.748	1465.923	1246.863
-18.721	32.652	1465.274	1245.629
-17.706	32.596	1464.588	1244.628
-16.692	32.762	1462.493	1243.889
-15.677	32.676	1461.823	1242.708
-14.663	32.683	1460.715	1241.758
-13.648	32.582	1460.123	1240.544
-12.633	32.624	1459.003	1239.819
-11.619	32.668	1458.215	1239.386
-10.604	32.637	1457.497	1238.524
-9.590	32.652	1456.298	1237.555
-8.575	32.692	1455.444	1237.044
-7.560	32.626	1454.959	1236.153
-6.546	32.581	1454.108	1235.081
-5.531	32.614	1453.094	1234.390
-4.517	32.614	1451.875	1233.305
-3.502	32.622	1450.868	1232.453
-2.487	32.589	1450.296	1231.699
-1.473	32.587	1448.727	1230.308
-0.458	32.647	1447.788	1229.849
0.556	33.103	1438.164	1218.638
1.571	30.257	1413.639	1179.689
2.586	26.908	1361.092	1115.191
3.600	25.409	1283.940	1043.185
4.615	23.894	1235.716	995.444
5.629	20.375	1178.243	930.241
6.644	10.858	1091.099	813.926
7.659	3.296	1049.264	746.124
8.673	2.349	1043.495	737.392
9.688	2.111	1040.288	733.913
10.702	1.974	1038.813	732.154
11.717	1.817	1037.000	730.058
12.731	5.550	1040.800	750.594
13.746	15.265	1055.008	807.795
14.761	23.065	1064.282	852.589
15.775	24.871	1066.954	863.372
16.790	25.252	1066.592	864.839
17.804	25.192	1065.710	863.762
18.819	24.931	1064.979	861.834
19.834	25.062	1064.163	861.727
20.848	25.203	1063.720	861.971
21.863	25.359	1063.369	862.359
22.877	25.330	1063.128	861.949
23.892	25.275	1062.433	861.044
24.907	25.203	1061.459	859.833
25.921	25.139	1061.314	859.335
26.936	25.280	1060.186	859.019
27.950	25.228	1058.906	857.660
28.965	25.177	1057.907	856.528
29.980	24.987	1056.730	854.596
30.994	25.065	1055.261	853.703
32.009	25.197	1054.329	853.502
33.023	25.344	1053.627	853.556
34.038	25.203	1052.499	851.895
35.053	25.096	1051.942	850.866
36.067	25.154	1051.269	850.517
37.082	25.241	1050.474	850.211
38.096	25.308	1049.987	850.063
39.111	25.375	1049.526	849.931
40.126	25.534	1048.713	849.949
41.140	25.415	1046.963	847.893
42.155	25.123	1045.656	845.381
43.169	24.831	1044.758	843.207
44.184	24.756	1043.289	841.595
45.199	25.049	1042.686	842.410
46.213	24.964	1041.440	840.931
47.228	24.877	1040.708	839.856
48.242	24.974	1040.146	839.783
49.257	25.198	1039.454	840.198
50.271	25.136	1039.035	839.494
51.286	25.248	1038.200	839.268
52.301	25.333	1037.393	838.939
53.315	25.307	1036.466	837.997
54.330	25.379	1035.806	837.724
55.344	25.244	1034.852	836.251
56.359	25.234	1034.439	835.794
57.374	25.248	1033.289	834.856
58.388	24.851	1032.625	832.398
59.403	25.046	1031.697	832.487
60.417	25.023	1031.177	831.882
61.432	24.863	1030.683	830.669
62.447	24.940	1029.952	830.364
63.461	25.008	1029.227	830.023
64.476	24.964	1028.347	829.035
65.490	25.049	1027.831	828.938
66.505	24.837	1026.482	826.798
67.520	24.884	1025.862	826.442
68.534	24.972	1025.006	826.086
69.549	24.955	1023.914	825.053
70.563	24.563	1022.688	822.188
71.578	24.486	1022.137	821.319
72.593	24.471	1021.376	820.567
73.607	24.493	1019.926	819.428
74.622	24.228	1019.461	817.767
75.636	24.619	1018.656	818.841
76.651	24.837	1018.113	819.332
77.666	24.612	1017.223	817.511
78.680	24.666	1015.374	816.203
79.695	24.608	1015.542	815.998
80.709	24.831	1014.703	816.272
81.724	24.924	1014.190	816.207
82.739	24.855	1013.070	814.923
83.753	24.898	1012.193	814.339
84.768	24.966	1012.211	814.590
85.782	25.400	1011.457	815.886
86.797	25.636	1010.564	816.160
87.812	25.513	1010.068	815.132
88.826	25.463	1008.785	813.797
89.841	25.492	1007.984	813.212
90.855	25.502	1007.377	812.695
91.870	25.595	1006.549	812.377
92.884	25.413	1005.858	810.924
93.899	25.339	1005.263	810.037
94.914	25.314	1003.543	808.467
95.928	25.416	1003.124	808.519
96.943	25.488	1002.238	808.056
97.957	24.992	1001.401	805.080
98.972	25.021	999.881	803.920
99.987	24.705	999.482	802.110
101.001	24.814	998.353	801.620
102.016	25.236	997.938	803.106
103.030	25.201	997.093	802.199
104.045	25.117	995.802	800.714
105.060	25.037	994.865	799.532
106.074	24.773	993.898	797.508
107.089	24.847	993.157	797.173
108.103	25.247	992.868	798.650
109.118	25.314	991.943	798.135
110.133	25.081	990.695	796.022
111.147	24.969	989.632	794.604
112.162	24.900	988.710	793.484
113.176	24.673	987.423	791.381
114.191	24.794	987.329	791.770
115.206	24.895	985.975	791.057
116.220	24.530	985.229	788.779
117.235	24.423	984.056	787.299
118.249	24.644	983.014	787.370
119.264	24.618	982.843	787.048
120.279	24.540	981.597	785.637
121.293	24.548	980.877	785.026
122.308	24.624	980.487	784.979
123.322	24.512	979.834	783.893
124.337	24.636	978.661	783.431
125.352	24.691	977.068	782.327
126.366	24.094	975.648	778.513
127.381	23.890	974.231	776.420
128.395	24.372	974.334	778.540
129.410	25.013	973.972	780.976
130.424	25.143	972.979	780.674
131.439	25.078	972.487	779.930
132.454	25.067	971.200	778.782
133.468	25.108	970.012	777.936
134.483	25.031	969.856	777.409
135.497	25.076	969.045	776.885
136.512	25.339	968.413	777.448
137.527	25.240	967.939	776.569
138.541	25.392	967.080	776.470
139.556	25.490	965.995	775.955
140.570	25.447	965.230	775.084
141.585	25.500	964.016	774.270
142.600	25.548	963.556	774.036
143.614	25.450	962.449	772.657
144.629	25.429	962.112	772.228
145.643	25.699	961.407	772.756
146.658	25.483	960.421	770.968
147.673	25.371	959.100	769.359
148.687	25.313	957.752	767.964
149.702	25.183	956.875	766.635
150.716	25.056	956.082	765.388
151.731	25.159	954.870	764.791
152.746	25.060	954.704	764.166
153.760	25.434	953.322	764.588
154.775	25.599	953.080	765.026
155.789	25.556	952.243	764.102
156.804	25.527	951.364	763.209
157.819	25.412	950.214	761.730
158.833	25.382	950.019	761.379
159.848	25.644	949.065	761.656
160.862	25.663	948.257	761.022
161.877	25.491	947.582	759.684
162.892	25.378	946.406	758.200
163.906	25.596	945.385	758.235
164.921	25.507	944.248	756.878
165.935	25.507	943.097	755.889
166.950	25.409	942.688	755.083
167.964	25.541	941.497	754.615
168.979	25.497	940.559	753.615
169.994	25.287	939.880	752.123
171.008	25.237	938.476	750.724
172.023	25.516	938.188	751.592
173.037	25.578	937.215	751.004
174.052	25.533	935.820	749.632
175.067	25.124	935.394	747.520
176.081	25.179	934.314	746.822
177.096	25.309	933.177	746.386
178.110	25.396	932.353	746.023
179.125	25.137	931.352	744.083
180.140	24.740	930.902	742.011
181.154	24.904	929.802	741.747
182.169	25.153	929.191	742.223
183.183	25.175	929.390	742.410
184.198	25.538	928.797	743.369
185.213	25.452	928.145	742.429
186.227	25.324	927.759	741.525
187.242	25.385	927.324	741.361
188.256	25.596	926.201	741.271
189.271	25.617	925.487	740.721
190.286	25.575	925.121	740.188
191.300	25.534	924.069	739.112
192.315	24.884	922.667	735.256
193.329	24.170	920.967	730.909
194.344	23.759	920.193	728.545
195.359	24.379	920.410	731.192
196.373	25.242	920.564	734.788
197.388	25.435	920.741	735.654
198.402	25.483	919.558	734.840
199.417	25.280	919.570	733.952
200.432	25.508	918.820	734.223
201.446	25.362	917.889	732.818
202.461	25.029	917.448	731.043
203.475	25.098	916.857	730.788
204.490	24.512	915.373	727.155
205.504	23.410	913.325	720.983
206.519	23.883	912.957	722.552
207.534	24.912	913.475	727.078
208.548	25.045	912.796	727.013
209.563	25.261	912.875	727.890
210.577	25.366	911.900	727.471
211.592	24.986	911.279	725.372
212.607	25.596	910.564	727.209
213.621	25.572	910.813	727.244
214.636	25.494	910.198	726.376
215.650	25.496	909.620	725.856
216.665	25.647	908.859	725.795
217.680	25.556	908.380	724.981
218.694	25.630	907.850	724.793
219.709	25.279	906.918	722.572
220.723	25.036	906.224	720.976
221.738	25.248	905.349	721.067
222.753	25.491	904.607	721.388
223.767	25.455	904.016	720.709
224.782	25.372	903.502	719.905
225.796	25.581	903.062	720.328
226.811	25.659	902.604	720.209
227.826	25.229	901.227	717.329
228.840	24.568	899.535	713.281
229.855	24.496	899.043	712.541
230.869	24.745	898.635	713.145
231.884	24.390	897.727	710.949
232.899	24.417	897.294	710.651
233.913	25.206	897.570	713.948
234.928	25.467	897.040	714.499
235.942	25.156	896.101	712.453
236.957	25.403	895.503	712.897
237.972	25.080	894.655	710.876
238.986	24.967	894.115	709.936
240.001	25.080	893.584	709.898
241.015	25.061	892.919	709.234
242.030	25.077	892.536	708.928
243.045	25.187	891.877	708.780
244.059	25.357	891.327	708.951
245.074	25.504	891.076	709.268
246.088	25.472	890.322	708.478
247.103	25.052	889.369	706.002
248.117	25.198	888.840	706.096
249.132	25.607	889.111	707.857
250.147	26.067	888.754	709.321
251.161	26.180	887.982	709.086
252.176	26.306	887.379	709.035
253.190	26.313	886.962	708.665
254.205	26.129	886.937	707.864
255.220	26.549	886.079	708.761
256.234	26.560	885.281	708.101
257.249	26.265	884.804	706.505
258.263	26.109	884.171	705.327
259.278	26.180	884.049	705.443
260.293	26.338	883.178	705.302
261.307	26.391	882.869	705.200
262.322	26.312	882.134	704.246
263.336	26.076	881.653	702.879
264.351	25.602	879.650	699.378
265.366	24.533	877.918	693.789
266.380	24.159	876.763	691.360
267.395	25.048	877.168	695.071
268.409	26.008	877.080	698.661
269.424	25.866	876.745	697.781
270.439	25.806	876.756	697.496
271.453	26.172	875.342	697.724
272.468	26.094	875.221	697.266
273.482	26.170	874.864	697.213
274.497	26.385	874.334	697.558
275.512	26.109	873.214	695.537
276.526	25.708	871.957	692.933
277.541	25.932	871.469	693.345
278.555	26.215	871.574	694.456
279.570	26.014	870.538	692.797
280.585	25.825	869.891	691.496
281.599	25.880	869.626	691.433
282.614	26.057	868.835	691.421
283.628	25.474	868.122	688.563
284.643	25.120	867.378	686.555
285.657	25.652	867.209	688.395
286.672	25.429	866.534	686.945
287.687	24.985	865.286	684.203
288.701	25.274	865.446	685.372
289.716	25.777	865.169	687.011
290.730	25.350	864.228	684.574
291.745	25.319	863.447	683.779
292.760	25.244	862.208	682.452
293.774	24.973	862.072	681.251
294.789	26.018	862.821	685.761
295.803	26.527	863.040	687.809
296.818	26.614	862.408	687.575
297.833	26.679	861.257	686.840
298.847	26.362	860.470	684.951
299.862	26.013	859.620	682.893
300.876	26.269	859.337	683.576
301.891	26.626	858.892	684.513
302.906	26.810	858.054	684.477
303.920	26.321	856.988	681.723
304.935	26.137	856.367	680.474
305.949	26.408	856.645	681.658
306.964	26.627	855.946	681.868
307.979	26.479	855.191	680.650
308.993	26.326	854.277	679.286
310.008	26.613	854.244	680.275
311.022	26.943	853.713	681.034
312.037	26.681	853.213	679.591
313.052	26.432	852.850	678.307
314.066	26.182	852.043	676.671
315.081	25.616	850.719	673.440
316.095	24.975	849.083	669.689
317.110	25.489	849.365	671.773
318.125	26.335	849.782	675.207
319.139	25.977	848.494	672.790
320.154	24.736	847.044	666.952
321.168	24.267	845.660	664.057
322.183	24.881	845.898	666.472
323.197	25.846	846.714	670.653
324.212	26.146	845.986	671.132
325.227	26.316	845.567	671.369
326.241	26.408	845.788	671.827
327.256	26.310	844.794	670.614
328.270	26.038	844.299	669.155
329.285	26.155	843.618	668.988
330.300	26.031	842.552	667.626
331.314	25.699	842.059	665.950
332.329	25.887	841.420	666.080
333.343	26.263	841.034	667.104
334.358	26.665	840.542	668.135
335.373	26.483	840.204	667.138
336.387	26.415	840.061	666.712
337.402	26.861	839.440	667.806
338.416	26.983	839.032	667.871
339.431	26.911	838.931	667.466
340.446	26.774	838.089	666.233
341.460	27.084	837.595	666.920
342.475	27.142	837.096	666.677
343.489	26.911	836.189	665.047
344.504	27.000	835.295	664.606
345.519	27.183	835.412	665.308
346.533	27.481	834.643	665.726
347.548	27.428	834.379	665.265
348.562	27.431	834.112	665.002
349.577	27.305	833.643	664.110
350.592	27.412	832.658	663.657
351.606	27.254	832.378	662.798
352.621	27.106	832.546	662.335
353.635	27.089	831.676	661.524
354.650	27.059	830.859	660.706
355.665	26.795	829.751	658.807
356.679	25.789	828.192	653.859
357.694	25.560	827.719	652.598
358.708	26.297	827.599	655.118
359.723	26.321	827.078	654.736
360.738	26.452	826.946	655.048
361.752	26.803	827.077	656.362
362.767	26.920	826.587	656.339
363.781	27.287	826.645	657.655
364.796	27.546	826.216	658.191
365.810	27.574	825.946	658.017
366.825	27.515	825.746	657.586
367.840	27.805	824.984	657.968
368.854	27.598	824.317	656.633
369.869	27.036	823.530	653.926
370.883	26.923	822.652	652.763
371.898	27.107	822.216	653.020
372.913	26.876	821.813	651.813
373.927	26.986	821.017	651.520
374.942	27.172	820.431	651.663
375.956	27.243	819.906	651.443
376.971	27.218	819.723	651.149
377.986	27.351	819.222	651.170
379.000	27.569	818.790	651.550
380.015	27.655	818.160	651.298
381.029	27.324	817.612	649.621
382.044	27.438	817.012	649.493
383.059	27.627	816.334	649.572
384.073	27.707	815.901	649.453
385.088	27.714	815.375	649.002
386.102	27.692	814.918	648.504
387.117	27.401	814.279	646.904
388.132	27.231	813.802	645.864
389.146	27.068	812.988	644.581
390.161	26.639	811.763	642.032
391.175	26.676	811.770	642.114
392.190	27.232	811.851	644.091
393.205	27.285	811.176	643.688
394.219	26.356	809.414	638.948
395.234	24.517	807.339	630.765
396.248	23.941	805.834	627.503
397.263	24.856	806.856	631.473
398.278	26.674	808.140	638.840
399.292	27.359	807.860	640.975
400.307	26.902	807.808	639.268
401.321	26.864	807.191	638.588
402.336	26.789	806.741	637.913
403.350	27.115	807.067	639.261
404.365	27.512	807.224	640.723
405.380	27.971	806.666	641.838
406.394	28.326	805.919	642.433
407.409	28.256	805.877	642.096
408.423	28.407	805.026	641.891
409.438	28.317	804.409	641.027
410.453	28.423	804.218	641.190
411.467	28.483	803.858	641.056
412.482	28.283	803.368	639.909
413.496	28.276	803.038	639.564
414.511	28.301	802.295	639.002
415.526	28.289	802.142	638.782
416.540	28.249	802.059	638.522
417.555	28.254	801.130	637.743
418.569	27.980	800.635	636.339
419.584	27.887	800.230	635.635
420.599	27.931	799.663	635.281
421.613	111.055	1284.671	1457.717
422.628	95.815	1355.332	1457.871
