DTS Sentinel unit serial number:	SN413079Multiplexer serial number:	ORYXHardware model number:	OX4-SRSoftware version number:	ORYX F/W v4.00 Oryx Data Collector v3.7.2.0data status	okinstallation	princeton_trtdifferential loss correction	single-endedforward channel	channel 3reverse channel	N/Adate	2019/09/12time	02:14:11forward acquisition time	60.00reverse acquisition time	0.00gamma	496.2192k internal	0.2320k external	0.2320temperature offset calibration	1.0061default loss term (dB/km)	0.3790temperature slope calibration	1.0000multiplexer offset coefficient	1.0000multiplexer slope coefficient	1.0000fibre end	0.00T internal ref (°C)	32.67T ext. ref 1 (°C)	2.05T ext. ref 2 (°C)	27.19length (m)	temperature (°C)	Stokes	anti-Stokes-747.200	-200.000	0.021	-0.268
-746.185	95.048	0.179	0.206
-745.171	800.000	0.076	-0.259
-744.156	4.949	0.118	0.088
-743.142	57.848	0.176	0.174
-742.127	-37.350	-0.151	0.082
-741.112	800.000	0.062	0.221
-740.098	611.552	0.179	0.453
-739.083	335.429	0.126	0.246
-738.069	-200.000	-0.045	0.381
-737.054	55.127	-0.327	0.319
-736.039	800.000	-0.006	0.027
-735.025	-114.161	0.417	0.081
-734.010	377.223	-0.228	-0.471
-732.996	431.331	-0.159	-0.348
-731.981	800.000	-0.038	0.122
-730.966	185.067	0.096	-0.144
-729.952	-200.000	0.057	-0.270
-728.937	-200.000	-0.005	-0.153
-727.923	37.391	0.105	-0.094
-726.908	248.586	0.102	-0.174
-725.894	-90.076	-0.092	0.027
-724.879	-200.000	-0.056	0.354
-723.864	468.262	0.090	-0.205
-722.850	800.000	-0.062	-0.225
-721.835	-63.964	0.196	-0.081
-720.821	-53.500	0.279	0.129
-719.806	-200.000	-0.017	0.099
-718.791	-71.752	-0.311	-0.117
-717.777	-88.896	-0.080	0.024
-716.762	-111.559	0.065	0.013
-715.748	-200.000	-0.016	0.160
-714.733	-46.666	0.087	0.043
-713.718	-200.000	-0.034	0.189
-712.704	-57.732	0.351	0.155
-711.689	23.820	0.233	0.194
-710.675	-151.178	0.179	-0.014
-709.660	-58.653	-0.181	0.079
-708.645	-200.000	-0.013	-0.088
-707.631	428.515	-0.062	0.135
-706.616	383.109	-0.110	-0.229
-705.602	-40.724	0.156	-0.081
-704.587	233.917	-0.147	0.245
-703.572	-111.027	-0.313	0.065
-702.558	68.650	0.155	-0.160
-701.543	-200.000	-0.009	-0.245
-700.529	82.075	0.261	-0.285
-699.514	-6.642	0.158	0.109
-698.499	800.000	0.031	-0.097
-697.485	-200.000	-0.019	0.115
-696.470	-88.690	0.078	0.024
-695.456	-66.038	-0.428	0.172
-694.441	-200.000	0.006	-0.179
-693.426	-106.682	0.189	0.042
-692.412	31.299	0.167	-0.145
-691.397	4.378	0.181	-0.134
-690.383	574.144	0.091	-0.224
-689.368	-120.615	0.196	-0.033
-688.354	800.000	0.065	0.261
-687.339	-200.000	0.089	0.434
-686.324	197.388	-0.076	-0.118
-685.310	320.234	0.197	-0.378
-684.295	-139.338	0.337	-0.037
-683.281	-118.177	-0.538	0.097
-682.266	-40.727	-0.136	0.071
-681.251	-31.689	0.151	0.086
-680.237	10.876	0.104	0.080
-679.222	-82.819	0.132	0.043
-678.208	94.824	-0.204	-0.234
-677.193	-24.795	0.073	0.044
-676.178	-200.000	-0.039	0.302
-675.164	64.355	-0.278	0.282
-674.149	281.209	-0.171	0.309
-673.135	800.000	-0.050	0.221
-672.120	317.279	-0.074	-0.142
-671.105	800.000	0.083	0.254
-670.091	-34.101	-0.134	-0.075
-669.076	-103.796	-0.085	-0.020
-668.062	-115.068	0.169	-0.032
-667.047	-51.549	0.117	0.055
-666.032	-200.000	0.000	-0.010
-665.018	280.773	0.121	0.218
-664.003	-169.493	0.252	-0.009
-662.989	-67.773	0.284	0.112
-661.974	-131.993	-0.225	0.030
-660.959	224.695	0.101	0.164
-659.945	12.300	-0.182	0.142
-658.930	-34.212	0.198	0.110
-657.916	266.331	0.148	0.260
-656.901	354.097	0.139	0.277
-655.886	800.000	-0.086	0.283
-654.872	-200.000	0.002	-0.023
-653.857	-200.000	0.065	-0.512
-652.843	-140.978	0.128	-0.013
-651.828	-135.409	0.216	0.026
-650.814	-116.673	0.252	0.047
-649.799	49.193	-0.115	0.109
-648.784	-200.000	0.006	0.176
-647.770	-200.000	-0.012	-0.317
-646.755	800.000	-0.115	-0.473
-645.741	-71.200	-0.062	0.023
-644.726	-123.708	0.400	-0.064
-643.711	610.205	-0.168	-0.422
-642.697	-66.749	0.234	-0.093
-641.682	-110.538	0.448	0.094
-640.668	-128.690	0.135	-0.019
-639.653	-161.462	0.230	-0.012
-638.638	483.630	0.088	-0.201
-637.624	-42.677	-0.333	-0.170
-636.609	-94.071	0.216	0.060
-635.595	-67.026	0.282	-0.112
-634.580	800.000	0.075	-0.215
-633.565	-23.940	0.257	-0.154
-632.551	800.000	0.036	-0.138
-631.536	-200.000	-0.002	0.024
-630.522	-4.331	-0.201	-0.140
-629.507	-200.000	-0.034	0.241
-628.492	557.068	0.087	0.211
-627.478	50.852	-0.176	0.167
-626.463	-33.630	-0.243	0.135
-625.449	285.093	0.142	0.257
-624.434	-170.693	0.416	-0.014
-623.419	30.238	-0.063	0.054
-622.405	42.366	0.124	0.113
-621.390	-79.542	0.079	0.027
-620.376	69.139	0.245	-0.254
-619.361	-2.605	-0.069	0.048
-618.346	-61.926	0.301	-0.127
-617.332	-200.000	-0.076	0.524
-616.317	9.471	-0.131	0.100
-615.303	122.967	0.058	0.073
-614.288	-97.376	0.357	0.093
-613.273	-27.192	0.072	-0.042
-612.259	-12.209	0.153	0.101
-611.244	-145.799	-0.387	-0.035
-610.230	-140.316	-0.170	0.018
-609.215	284.038	-0.168	0.304
-608.201	-148.195	-0.140	0.012
-607.186	-171.404	0.064	-0.002
-606.171	67.855	-0.184	-0.189
-605.157	-15.369	-0.047	0.030
-604.142	-10.991	-0.208	-0.138
-603.128	-182.782	-0.209	0.004
-602.113	-140.299	-0.067	-0.007
-601.098	800.000	-0.079	0.245
-600.084	195.153	-0.179	-0.274
-599.069	-200.000	-0.008	-0.127
-598.055	800.000	0.101	0.364
-597.040	-73.416	-0.252	-0.092
-596.025	-69.056	-0.056	0.022
-595.011	238.124	0.096	-0.161
-593.996	-128.039	0.186	0.027
-592.982	-105.321	0.263	0.060
-591.967	414.292	-0.016	0.033
-590.952	286.977	0.078	-0.142
-589.938	-143.572	0.246	0.024
-588.923	80.920	-0.274	-0.297
-587.909	-142.649	0.553	-0.054
-586.894	800.000	-0.168	-0.526
-585.879	-117.664	0.268	-0.048
-584.865	-171.803	0.634	0.021
-583.850	411.865	-0.098	0.208
-582.836	-119.371	-0.033	0.006
-581.821	-61.855	-0.093	0.039
-580.806	86.219	-0.178	-0.197
-579.792	173.839	-0.147	-0.213
-578.777	800.000	0.117	0.453
-577.763	795.995	-0.080	0.221
-576.748	156.094	-0.241	-0.334
-575.733	83.846	-0.128	0.141
-574.719	-172.937	0.288	-0.009
-573.704	94.099	-0.047	0.053
-572.690	-200.000	-0.032	-0.169
-571.675	-89.384	0.207	-0.061
-570.661	-104.411	-0.245	-0.057
-569.646	-55.513	0.152	0.068
-568.631	-108.256	-0.115	0.025
-567.617	-36.164	0.098	0.053
-566.602	160.541	0.163	-0.228
-565.588	27.136	-0.176	0.149
-564.573	-145.897	0.047	-0.004
-563.558	216.662	-0.136	-0.218
-562.544	135.105	0.048	-0.062
-561.529	-52.843	0.102	0.047
-560.515	179.160	0.229	0.336
-559.500	71.190	0.272	-0.283
-558.485	4.133	0.335	-0.246
-557.471	800.000	-0.137	-0.401
-556.456	-200.000	-0.091	0.000
-555.442	28.254	0.076	-0.064
-554.427	-54.515	0.089	-0.040
-553.412	9.082	0.109	-0.083
-552.398	-70.855	-0.395	0.149
-551.383	800.000	0.027	0.076
-550.369	800.000	0.043	0.166
-549.354	-101.955	0.131	0.032
-548.339	-98.036	-0.237	-0.061
-547.325	236.413	-0.073	-0.121
-546.310	-126.275	-0.143	-0.021
-545.296	-44.072	0.338	-0.170
-544.281	261.055	-0.120	0.208
-543.266	-130.314	-0.206	0.028
-542.252	-152.201	0.152	0.011
-541.237	800.000	0.087	-0.343
-540.223	155.313	-0.190	0.262
-539.208	-200.000	0.013	-0.110
-538.193	800.000	-0.035	0.136
-537.179	17.698	-0.254	-0.203
-536.164	101.876	-0.150	-0.175
-535.150	-95.967	-0.389	0.104
-534.135	-200.000	-0.005	-0.045
-533.121	800.000	0.052	0.180
-532.106	98.476	-0.220	-0.254
-531.091	-200.000	0.039	0.338
-530.077	670.673	0.066	0.170
-529.062	-200.000	0.010	-0.486
-528.048	103.901	-0.090	0.106
-527.033	-10.660	-0.109	-0.072
-526.018	237.234	0.039	-0.064
-525.004	213.908	0.186	0.296
-523.989	6.544	-0.158	-0.118
-522.975	-50.098	-0.263	-0.125
-521.960	-200.000	0.080	-0.415
-520.945	-116.106	-0.396	-0.074
-519.931	-85.503	0.191	0.060
-518.916	117.671	-0.182	0.225
-517.902	13.534	0.078	0.061
-516.887	-67.520	0.034	-0.013
-515.872	137.967	-0.143	-0.188
-514.858	-200.000	-0.070	-0.415
-513.843	234.114	0.107	0.177
-512.829	236.223	0.018	0.029
-511.814	771.536	-0.090	0.245
-510.799	-70.007	0.195	-0.074
-509.785	266.397	0.209	0.366
-508.770	-200.000	0.018	0.625
-507.756	59.087	-0.353	0.348
-506.741	17.003	-0.239	0.189
-505.726	-82.361	0.379	0.123
-504.712	-44.485	-0.178	-0.089
-503.697	-200.000	0.018	0.131
-502.683	61.041	-0.024	-0.024
-501.668	-34.476	0.158	0.087
-500.653	173.006	-0.102	0.146
-499.639	192.888	-0.166	0.252
-498.624	-139.934	-0.116	-0.012
-497.610	-146.440	-0.140	0.012
-496.595	-79.311	-0.288	-0.098
-495.581	22.041	-0.250	-0.204
-494.566	30.101	0.078	-0.067
-493.551	-114.743	-0.424	-0.081
-492.537	-200.000	-0.006	-0.192
-491.522	-120.347	-0.203	0.035
-490.508	115.058	0.052	0.064
-489.493	227.297	-0.263	-0.429
-488.478	-46.176	0.097	0.048
-487.464	398.946	-0.082	-0.172
-486.449	-43.189	-0.384	-0.195
-485.435	201.801	-0.071	-0.110
-484.420	68.758	0.255	0.262
-483.405	-109.775	-0.201	0.042
-482.391	-159.006	-0.208	-0.012
-481.376	-99.636	-0.178	0.045
-480.362	45.037	-0.026	0.024
-479.347	8.334	0.137	-0.103
-478.332	-200.000	-0.074	0.326
-477.318	800.000	0.024	-0.085
-476.303	222.052	-0.108	-0.173
-475.289	-200.000	-0.029	0.297
-474.274	-53.117	-0.204	0.094
-473.259	206.154	-0.132	-0.206
-472.245	-98.759	-0.266	0.068
-471.230	68.367	0.179	0.184
-470.216	-49.616	-0.156	0.074
-469.201	-84.600	-0.182	-0.057
-468.186	800.000	0.069	0.217
-467.172	753.493	-0.102	-0.274
-466.157	3.546	0.117	-0.086
-465.143	-83.172	0.097	-0.031
-464.128	112.444	-0.153	0.186
-463.113	-122.423	0.189	0.031
-462.099	-45.917	0.052	-0.026
-461.084	51.656	0.084	0.080
-460.070	-200.000	-0.049	0.588
-459.055	275.919	-0.075	0.133
-458.040	436.510	-0.075	-0.164
-457.026	800.000	0.073	-0.259
-456.011	233.863	0.167	-0.275
-454.997	-69.508	0.498	0.191
-453.982	-200.000	-0.063	0.393
-452.968	392.416	0.150	0.312
-451.953	-200.000	0.017	0.208
-450.938	-183.389	0.123	-0.002
-449.924	138.245	-0.057	0.075
-448.909	-127.609	0.184	0.027
-447.895	-200.000	-0.001	0.068
-446.880	-132.687	0.495	-0.063
-445.865	-200.000	-0.023	0.280
-444.851	731.078	0.099	0.266
-443.836	-175.553	0.145	0.004
-442.822	53.530	-0.062	-0.059
-441.807	181.514	-0.168	0.246
-440.792	138.334	-0.072	0.095
-439.778	-200.000	-0.019	0.218
-438.763	120.060	-0.085	-0.105
-437.749	80.696	0.177	-0.191
-436.734	-129.565	0.047	0.006
-435.719	-200.000	0.012	-0.114
-434.705	-152.633	0.357	-0.025
-433.690	800.000	-0.033	-0.104
-432.676	-166.495	0.261	0.011
-431.661	-97.928	0.108	0.028
-430.646	34.689	0.229	0.200
-429.632	42.386	0.194	0.176
-428.617	-200.000	0.032	0.144
-427.603	-120.815	0.194	0.033
-426.588	15.143	0.234	-0.183
-425.573	-134.110	-0.515	-0.064
-424.559	-55.372	0.071	-0.032
-423.544	563.113	0.152	0.368
-422.530	-47.323	0.299	-0.145
-421.515	-35.035	0.186	-0.101
-420.500	-104.317	-0.180	-0.042
-419.486	-128.643	-0.196	-0.028
-418.471	3.438	-0.273	-0.199
-417.457	800.000	0.039	0.118
-416.442	-84.677	0.169	-0.053
-415.428	173.929	0.100	-0.144
-414.413	570.171	-0.064	-0.157
-413.398	-60.430	-0.179	-0.076
-412.384	96.612	-0.221	-0.253
-411.369	28.948	-0.551	-0.466
-410.355	-21.273	-0.164	0.100
-409.340	263.744	0.055	-0.096
-408.325	-200.000	-0.051	-0.258
-407.311	-138.343	0.380	0.042
-406.296	-13.626	-0.166	-0.107
-405.282	-148.992	-0.186	0.015
-404.267	236.835	-0.048	-0.080
-403.252	-200.000	-0.032	-0.165
-402.238	-29.513	-0.101	-0.057
-401.223	60.737	-0.052	-0.052
-400.209	-200.000	0.049	-0.715
-399.194	-94.867	0.367	-0.099
-398.179	42.512	0.161	0.146
-397.165	195.116	-0.075	-0.114
-396.150	14.656	0.152	-0.118
-395.136	-133.524	0.381	0.048
-394.121	-200.000	0.039	0.515
-393.106	46.721	-0.022	0.020
-392.092	-113.057	-0.346	0.068
-391.077	-79.882	0.209	0.070
-390.063	-28.406	0.139	-0.080
-389.048	-26.591	-0.244	0.142
-388.033	320.724	0.249	0.471
-387.019	741.968	0.097	0.259
-386.004	641.519	0.135	0.344
-384.990	-99.731	-0.251	0.063
-383.975	142.650	-0.105	0.139
-382.960	15.889	0.156	-0.123
-381.946	-7.126	0.214	-0.145
-380.931	-200.000	0.005	-0.115
-379.917	800.000	-0.048	0.141
-378.902	-94.721	0.362	0.098
-377.888	-142.509	-0.160	0.016
-376.873	80.434	0.235	0.252
-375.858	190.045	-0.021	-0.032
-374.844	-108.341	-0.200	0.043
-373.829	-185.010	0.365	0.006
-372.815	327.516	-0.109	0.208
-371.800	91.544	0.147	-0.165
-370.785	-121.427	-0.136	-0.023
-369.771	-172.779	-0.283	-0.009
-368.756	7.799	0.122	-0.091
-367.742	-102.966	0.063	0.015
-366.727	-140.498	0.085	0.009
-365.712	741.707	0.097	-0.260
-364.698	197.722	0.070	0.106
-363.683	800.000	0.047	0.158
-362.669	503.037	-0.022	-0.050
-361.654	99.124	0.188	-0.216
-360.639	-71.718	-0.250	-0.093
-359.625	-3.943	-0.113	0.078
-358.610	-62.306	-0.250	0.104
-357.596	-146.967	0.200	-0.017
-356.581	-200.000	0.014	-0.115
-355.566	-162.561	0.406	0.020
-354.552	655.755	0.188	-0.480
-353.537	-200.000	0.001	0.137
-352.523	-1.228	0.114	0.080
-351.508	-71.029	0.343	-0.129
-350.493	338.730	-0.030	0.058
-349.479	105.497	0.228	-0.268
-348.464	-150.214	-0.259	0.020
-347.450	-57.392	0.381	0.167
-346.435	-20.070	-0.112	0.069
-345.420	-118.392	-0.181	-0.032
-344.406	-96.571	-0.097	0.025
-343.391	-86.073	0.199	0.061
-342.377	134.665	0.233	-0.301
-341.362	-18.583	-0.103	0.064
-340.348	-106.756	0.255	-0.056
-339.333	103.849	-0.214	-0.250
-338.318	800.000	0.046	-0.132
-337.304	302.581	-0.137	-0.251
-336.289	-38.490	-0.084	0.044
-335.275	-66.199	-0.379	-0.150
-334.260	11.782	0.133	-0.101
-333.245	218.148	-0.188	0.298
-332.231	-86.845	0.096	-0.029
-331.216	21.401	0.324	-0.262
-330.202	-200.000	-0.011	0.322
-329.187	800.000	-0.019	0.074
-328.172	800.000	0.043	-0.169
-327.158	-90.672	0.111	0.032
-326.143	-200.000	-0.048	0.284
-325.129	-34.750	-0.201	0.109
-324.114	15.080	0.328	0.256
-323.099	-49.775	-0.027	-0.013
-322.085	-94.895	-0.300	-0.081
-321.070	9.069	-0.028	-0.021
-320.056	-200.000	-0.016	-0.072
-319.041	-73.236	-0.133	0.049
-318.026	34.964	-0.184	0.160
-317.012	-11.491	-0.058	-0.038
-315.997	-72.309	-0.183	0.067
-314.983	-89.145	-0.107	0.032
-313.968	-16.709	-0.148	-0.093
-312.953	-160.799	0.362	-0.019
-311.939	800.000	0.020	0.064
-310.924	-126.430	0.044	0.006
-309.910	800.000	0.018	-0.058
-308.895	-140.362	-0.156	-0.016
-307.880	204.841	-0.172	0.265
-306.866	-31.451	0.174	-0.098
-305.851	-200.000	-0.058	-0.340
-304.837	-139.123	0.095	-0.010
-303.822	-200.000	0.040	0.190
-302.807	266.516	0.046	-0.080
-301.793	-71.704	0.096	-0.036
-300.778	-200.000	-0.002	-0.066
-299.764	800.000	-0.097	-0.274
-298.749	-200.000	0.029	-0.284
-297.735	18.346	-0.225	0.179
-296.720	224.046	-0.177	0.285
-295.705	241.406	0.221	0.367
-294.691	55.822	0.241	-0.232
-293.676	-67.105	-0.365	-0.143
-292.662	0.196	-0.209	-0.148
-291.647	-70.802	-0.092	-0.034
-290.632	800.000	0.082	-0.345
-289.618	222.858	-0.150	0.240
-288.603	-200.000	-0.010	-0.089
-287.589	800.000	-0.060	-0.222
-286.574	-147.694	0.124	-0.010
-285.559	-83.254	-0.107	-0.034
-284.545	67.089	0.150	-0.152
-283.530	-117.749	-0.170	0.030
-282.516	620.881	0.107	-0.268
-281.501	-87.121	-0.311	0.094
-280.486	800.000	-0.074	0.269
-279.472	421.495	-0.041	-0.087
-278.457	621.732	-0.111	0.277
-277.443	-34.597	-0.425	-0.231
-276.428	5.600	0.230	-0.169
-275.413	695.663	0.106	-0.275
-274.399	78.978	-0.099	0.105
-273.384	-75.555	0.297	0.105
-272.370	800.000	0.054	0.194
-271.355	800.000	-0.027	0.113
-270.340	-200.000	0.052	0.251
-269.326	800.000	-0.041	-0.127
-268.311	-118.391	-0.114	0.020
-267.297	-53.215	-0.192	0.087
-266.282	-79.942	-0.282	0.094
-265.267	-77.877	-0.120	0.041
-264.253	-200.000	-0.006	-0.315
-263.238	-173.726	-0.168	0.005
-262.224	163.413	0.144	0.201
-261.209	-200.000	0.001	-0.073
-260.195	-200.000	0.002	0.015
-259.180	-123.260	0.233	-0.037
-258.165	25.824	0.067	0.056
-257.151	-200.000	-0.011	0.067
-256.136	-122.333	-0.250	0.040
-255.122	-77.170	0.102	0.035
-254.107	800.000	-0.043	0.182
-253.092	-200.000	0.056	0.422
-252.078	527.153	-0.065	-0.151
-251.063	67.883	0.167	-0.169
-250.049	-114.357	-0.057	-0.011
-249.034	27.713	0.351	-0.293
-248.019	-98.070	0.220	-0.056
-247.005	-200.000	-0.042	-0.260
-245.990	-200.000	-0.063	0.377
-244.976	-10.756	0.123	0.080
-243.961	-200.000	-0.131	0.001
-242.946	34.569	-0.054	-0.047
-241.932	-200.000	-0.043	0.220
-240.917	221.349	0.017	-0.027
-239.903	252.450	-0.097	0.164
-238.888	342.203	0.106	-0.206
-237.873	33.847	0.458	0.395
-236.859	-48.003	0.457	-0.219
-235.844	800.000	-0.090	0.287
-234.830	-3.168	-0.190	-0.131
-233.815	-200.000	0.009	0.234
-232.800	-42.054	0.232	0.118
-231.786	157.919	-0.141	-0.193
-230.771	-126.883	-0.280	0.041
-229.757	800.000	-0.082	-0.300
-228.742	73.930	-0.057	-0.059
-227.727	-71.021	-0.247	0.092
-226.713	-200.000	0.017	0.385
-225.698	-200.000	0.004	0.301
-224.684	-200.000	-0.038	-0.241
-223.669	643.677	0.122	-0.308
-222.655	-19.560	0.253	0.155
-221.640	34.396	0.069	0.059
-220.625	-148.034	0.250	0.021
-219.611	-150.646	-0.290	0.022
-218.596	-14.775	-0.166	-0.106
-217.582	-200.000	-0.001	-0.021
-216.567	-177.013	0.188	0.005
-215.552	-200.000	-0.044	-0.404
-214.538	-200.000	0.000	-0.132
-213.523	-58.876	-0.232	0.099
-212.509	-200.000	-0.017	-0.227
-211.494	592.633	0.073	-0.180
-210.479	800.000	0.084	0.242
-209.465	800.000	-0.046	0.162
-208.450	-3.578	-0.340	-0.234
-207.436	-16.416	-0.208	-0.130
-206.421	-101.950	0.347	0.083
-205.406	-116.597	-0.175	0.032
-204.392	251.845	0.114	0.193
-203.377	-115.199	-0.281	0.053
-202.363	4.771	0.267	-0.194
-201.348	-200.000	-0.018	0.190
-200.333	-4.756	0.180	0.123
-199.319	290.371	-0.103	-0.184
-198.304	356.108	0.069	0.137
-197.290	-141.344	-0.609	-0.061
-196.275	-118.169	-0.233	0.041
-195.260	344.408	-0.126	-0.245
-194.246	-200.000	-0.002	-0.234
-193.231	800.000	0.021	0.074
-192.217	-62.990	0.109	0.044
-191.202	-127.022	0.356	-0.052
-190.187	403.185	0.057	-0.119
-189.173	358.163	-0.089	0.175
-188.158	149.331	-0.073	-0.098
-187.144	-200.000	0.008	0.230
-186.129	-100.322	-0.190	0.047
-185.114	-110.750	0.064	-0.013
-184.100	-78.006	0.198	0.067
-183.085	8.266	0.114	-0.085
-182.071	-155.399	-0.295	-0.019
-181.056	-174.055	0.177	0.005
-180.042	411.650	0.232	0.486
-179.027	288.187	0.051	0.091
-178.012	-200.000	0.017	-0.125
-176.998	-73.445	-0.293	-0.106
-175.983	250.988	-0.057	0.096
-174.969	-200.000	-0.000	0.104
-173.954	154.244	0.085	0.116
-172.939	147.610	-0.204	-0.272
-171.925	-32.394	0.093	-0.051
-170.910	156.950	-0.189	0.259
-169.896	151.722	0.076	0.102
-168.881	-21.375	0.117	0.071
-167.866	617.052	0.049	-0.122
-166.852	-200.000	0.006	0.128
-165.837	-70.704	-0.306	0.114
-164.823	-23.779	0.129	-0.077
-163.808	426.891	0.092	0.196
-162.793	-59.966	-0.106	0.045
-161.779	163.843	0.148	0.205
-160.764	-4.014	0.207	0.142
-159.750	800.000	-0.059	-0.202
-158.735	-64.966	-0.274	0.109
-157.720	-103.937	-0.153	0.035
-156.706	-40.058	0.239	-0.123
-155.691	106.403	-0.151	0.177
-154.677	-110.304	0.310	0.064
-153.662	99.768	-0.268	-0.306
-152.647	357.211	0.070	-0.138
-151.633	500.054	0.115	-0.261
-150.618	-153.096	-0.106	-0.007
-149.604	-200.000	-0.014	0.222
-148.589	-129.793	0.161	0.022
-147.574	701.192	0.079	-0.205
-146.560	-200.000	0.002	0.354
-145.545	470.579	0.049	0.110
-144.531	31.561	0.192	0.163
-143.516	126.617	-0.242	-0.303
-142.502	-55.511	0.124	-0.055
-141.487	633.207	-0.055	-0.136
-140.472	2.801	0.111	0.080
-139.458	431.356	-0.027	-0.059
-138.443	-200.000	0.021	-0.225
-137.429	49.939	-0.166	0.154
-136.414	26.952	-0.168	0.139
-135.399	81.503	-0.167	0.178
-134.385	-123.505	-0.164	-0.026
-133.370	-132.597	-0.168	-0.021
-132.356	-84.867	0.115	-0.036
-131.341	-190.244	-0.265	-0.003
-130.326	-136.941	0.220	0.025
-129.312	-9.555	-0.224	0.148
-128.297	-26.198	0.205	-0.119
-127.283	-200.000	0.020	-0.309
-126.268	30.239	-0.106	-0.089
-125.253	-200.000	-0.085	0.486
-124.239	-200.000	-0.012	0.239
-123.224	349.815	-0.098	0.190
-122.210	-39.772	-0.317	-0.164
-121.195	800.000	-0.042	-0.143
-120.180	-200.000	-0.052	-0.246
-119.166	800.000	-0.114	-0.328
-118.151	149.678	0.142	-0.190
-117.137	-90.887	-0.265	0.075
-116.122	2.411	0.103	0.073
-115.107	-167.993	0.421	-0.016
-114.093	396.253	0.120	0.246
-113.078	-200.000	-0.080	0.387
-112.064	259.427	-0.113	-0.192
-111.049	-125.827	0.273	-0.041
-110.034	-200.000	0.031	0.144
-109.020	-200.000	0.050	0.233
-108.005	-54.353	-0.206	0.092
-106.991	800.000	0.078	0.222
-105.976	119.396	-0.234	-0.285
-104.962	564.084	0.066	0.157
-103.947	-133.678	-0.190	-0.023
-102.932	-200.000	0.016	-0.367
-101.918	-56.723	-0.177	-0.077
-100.903	684.289	0.124	0.318
-99.889	474.020	0.068	0.150
-98.874	106.189	-0.301	0.351
-97.859	548.002	-0.163	0.384
-96.845	-200.000	0.010	-0.191
-95.830	36.992	-0.089	0.078
-94.816	-139.125	-0.282	0.030
-93.801	-50.360	-0.289	-0.134
-92.786	91.002	0.136	0.151
-91.772	9.923	-0.099	0.074
-90.757	-105.443	0.119	-0.027
-89.743	-70.328	0.289	-0.108
-88.728	-99.448	-0.180	0.045
-87.713	-75.753	-0.128	0.045
-86.699	-98.694	-0.250	0.063
-85.684	19.387	0.154	0.122
-84.670	-183.819	0.378	0.006
-83.655	37.521	-0.152	0.133
-82.640	158.609	-0.219	0.300
-81.626	20.948	-0.214	-0.171
-80.611	308.040	-0.128	0.236
-79.597	179.530	-0.060	0.087
-78.582	-149.371	0.043	0.003
-77.567	306.877	-0.083	-0.153
-76.553	-200.000	-0.041	0.291
-75.538	-57.273	-0.112	0.048
-74.524	-129.181	-0.065	0.009
-73.509	-151.059	0.341	0.025
-72.494	0.897	0.046	-0.032
-71.480	-90.450	0.107	0.030
-70.465	-200.000	-0.023	-0.285
-69.451	800.000	0.040	-0.169
-68.436	-165.101	-0.192	-0.008
-67.422	70.919	0.024	0.025
-66.407	341.898	-0.056	-0.108
-65.392	-83.836	0.222	-0.069
-64.378	-200.000	-0.010	0.150
-63.363	-200.000	-0.025	-0.269
-62.349	-12.763	0.121	0.078
-61.334	8.477	-0.947	-0.701
-60.319	13.166	0.586	0.447
-59.305	692.758	-0.363	-0.937
-58.290	244.724	0.612	1.012
-57.276	800.000	0.471	1.353
-56.261	-200.000	95.695	578.927
-55.246	563.262	1371.640	3267.949
-54.232	161.581	2545.896	3505.839
-53.217	112.024	2159.787	2567.818
-52.203	43.145	1705.676	1531.765
-51.188	35.912	1518.935	1314.837
-50.173	33.505	1492.747	1275.936
-49.159	52.091	1541.223	1444.938
-48.144	54.143	1559.079	1475.670
-47.130	36.009	1518.900	1315.257
-46.115	32.851	1504.752	1281.550
-45.100	32.820	1500.853	1277.971
-44.086	32.779	1499.195	1276.232
-43.071	32.803	1496.859	1274.353
-42.057	32.698	1495.713	1272.617
-41.042	32.688	1494.360	1271.347
-40.027	32.715	1492.721	1270.085
-39.013	32.670	1491.236	1268.467
-37.998	32.699	1489.923	1267.493
-36.984	32.692	1489.036	1266.644
-35.969	32.649	1487.745	1265.204
-34.954	32.714	1486.041	1264.146
-33.940	32.725	1484.477	1262.838
-32.925	32.753	1483.519	1262.161
-31.911	32.680	1482.260	1260.553
-30.896	32.764	1480.485	1259.552
-29.881	32.801	1479.432	1258.854
-28.867	32.717	1478.267	1257.254
-27.852	32.809	1476.027	1255.907
-26.838	32.715	1475.190	1254.521
-25.823	32.746	1473.481	1253.224
-24.809	32.714	1471.725	1251.470
-23.794	32.702	1470.208	1250.052
-22.779	32.686	1469.152	1248.997
-21.765	32.712	1468.421	1248.496
-20.750	32.712	1467.236	1247.443
-19.736	32.681	1465.814	1245.979
-18.721	32.652	1464.608	1244.708
-17.706	32.642	1463.697	1243.824
-16.692	32.617	1462.665	1242.727
-15.677	32.654	1461.613	1242.031
-14.663	32.585	1460.994	1241.000
-13.648	32.650	1459.908	1240.457
-12.633	32.711	1458.208	1239.366
-11.619	32.644	1457.896	1238.607
-10.604	32.581	1457.253	1237.600
-9.590	32.632	1456.077	1236.884
-8.575	32.633	1455.320	1236.197
-7.560	32.587	1454.811	1235.417
-6.546	32.581	1453.635	1234.332
-5.531	32.560	1453.342	1233.897
-4.517	32.579	1451.744	1232.615
-3.502	32.554	1450.893	1231.681
-2.487	32.582	1449.666	1230.775
-1.473	32.549	1448.771	1229.746
-0.458	32.564	1447.549	1228.761
0.556	33.064	1438.037	1218.290
1.571	30.077	1413.304	1178.273
2.586	26.764	1360.388	1113.738
3.600	25.441	1281.927	1041.747
4.615	23.763	1234.069	993.393
5.629	20.226	1175.990	927.676
6.644	10.770	1089.547	812.334
7.659	3.260	1047.299	744.554
8.673	2.245	1041.653	735.595
9.688	1.981	1038.819	732.262
10.702	1.981	1037.360	731.168
11.717	2.002	1034.906	729.475
12.731	5.494	1039.169	749.156
13.746	15.286	1052.898	806.284
14.761	23.024	1062.896	851.288
15.775	24.966	1064.579	861.916
16.790	25.211	1064.817	863.208
17.804	25.145	1063.710	861.918
18.819	25.032	1062.613	860.411
19.834	25.106	1062.315	860.450
20.848	25.157	1062.550	860.807
21.863	25.327	1061.642	860.813
22.877	25.395	1060.976	860.519
23.892	25.300	1060.483	859.591
24.907	25.040	1059.645	857.592
25.921	25.165	1059.278	857.817
26.936	25.241	1058.152	857.190
27.950	25.213	1056.928	855.991
28.965	25.191	1055.895	854.974
29.980	25.065	1054.532	853.194
30.994	24.997	1053.507	851.965
32.009	25.267	1052.651	852.483
33.023	25.302	1052.094	852.118
34.038	25.154	1050.892	850.372
35.053	25.185	1049.916	849.652
36.067	25.302	1049.458	849.758
37.082	25.098	1049.149	848.469
38.096	25.155	1048.314	847.990
39.111	25.403	1047.336	848.292
40.126	25.518	1046.825	848.348
41.140	25.504	1045.063	846.780
42.155	25.025	1043.960	843.556
43.169	24.810	1042.647	841.409
44.184	24.833	1041.582	840.583
45.199	25.003	1040.312	840.283
46.213	24.692	1039.761	838.306
47.228	24.717	1039.363	838.025
48.242	24.855	1038.756	838.109
49.257	25.099	1037.866	838.456
50.271	25.122	1037.018	837.807
51.286	25.267	1036.186	837.738
52.301	25.231	1035.446	836.897
53.315	25.238	1034.636	836.200
54.330	25.288	1034.099	835.925
55.344	25.250	1033.411	835.119
56.359	25.187	1032.034	833.639
57.374	25.222	1031.856	833.582
58.388	25.047	1030.563	831.652
59.403	24.927	1030.099	830.649
60.417	24.959	1029.269	830.053
61.432	24.982	1028.161	829.195
62.447	24.703	1028.356	827.986
63.461	24.900	1027.259	827.941
64.476	24.983	1026.581	827.703
65.490	24.984	1025.650	826.884
66.505	24.800	1024.750	825.237
67.520	24.842	1023.856	824.638
68.534	24.976	1023.256	824.697
69.549	24.859	1022.390	823.392
70.563	24.706	1020.775	821.315
71.578	24.441	1020.436	819.751
72.593	24.439	1019.661	819.046
73.607	24.486	1018.127	817.957
74.622	24.385	1017.741	817.110
75.636	24.548	1017.389	817.502
76.651	24.736	1016.150	817.297
77.666	24.673	1015.549	816.453
78.680	24.657	1014.399	815.380
79.695	24.540	1013.871	814.352
80.709	24.578	1013.481	814.141
81.724	24.813	1012.434	814.297
82.739	24.703	1011.982	813.360
83.753	24.780	1010.726	812.627
84.768	25.172	1009.980	813.736
85.782	25.348	1009.684	814.224
86.797	25.534	1009.040	814.475
87.812	25.573	1007.982	813.724
88.826	25.297	1007.363	811.907
89.841	25.477	1006.920	812.291
90.855	25.582	1005.348	811.424
91.870	25.414	1004.920	810.250
92.884	25.432	1004.058	809.565
93.899	25.303	1003.198	808.217
94.914	25.431	1001.715	807.525
95.928	25.505	1000.835	807.079
96.943	25.419	1000.568	806.407
97.957	25.215	998.841	804.029
98.972	24.929	998.067	802.054
99.987	24.794	996.700	800.278
101.001	24.689	996.854	799.863
102.016	25.177	995.762	801.094
103.030	25.265	995.356	801.094
104.045	25.145	994.114	799.485
105.060	24.919	992.850	797.394
106.074	24.822	991.806	796.052
107.089	24.970	991.205	796.157
108.103	25.151	991.004	796.731
109.118	25.352	990.283	796.974
110.133	25.033	988.774	794.270
111.147	24.940	988.189	793.321
112.162	24.837	986.859	791.726
113.176	24.645	985.762	789.927
114.191	24.757	985.080	789.806
115.206	24.841	984.307	789.489
116.220	24.483	983.084	786.858
117.235	24.594	981.936	786.358
118.249	24.594	981.837	786.212
119.264	24.721	980.824	785.889
120.279	24.506	980.119	784.311
121.293	24.547	979.113	783.613
122.308	24.618	978.575	783.427
123.322	24.580	978.143	782.845
124.337	24.500	976.829	781.373
125.352	24.405	975.653	779.949
126.366	24.078	973.678	776.875
127.381	23.811	972.480	774.687
128.395	24.247	972.627	776.632
129.410	24.901	972.183	779.058
130.424	25.122	971.278	779.225
131.439	25.045	970.325	778.056
132.454	25.033	969.238	777.066
133.468	25.162	968.616	777.056
134.483	25.116	967.478	775.874
135.497	24.935	967.357	774.926
136.512	25.290	966.430	775.650
137.527	25.369	965.872	775.472
138.541	25.296	965.027	774.411
139.556	25.379	964.300	774.118
140.570	25.453	963.319	773.580
141.585	25.461	962.576	772.951
142.600	25.494	961.974	772.539
143.614	25.328	961.119	771.071
144.629	25.644	959.969	771.436
145.643	25.716	959.349	771.179
146.658	25.521	958.370	769.490
147.673	25.433	957.225	768.126
148.687	25.287	955.851	766.332
149.702	25.248	954.844	765.288
150.716	25.065	954.479	764.148
151.731	25.058	953.331	763.134
152.746	25.087	952.666	762.655
153.760	25.234	952.257	762.888
154.775	25.600	951.263	763.577
155.789	25.468	950.461	762.308
156.804	25.520	949.477	761.672
157.819	25.408	948.381	760.248
158.833	25.476	947.373	759.661
159.848	25.629	946.905	759.865
160.862	25.611	946.265	759.210
161.877	25.533	945.037	757.825
162.892	25.402	944.207	756.541
163.906	25.387	944.286	756.474
164.921	25.409	943.140	755.585
165.935	25.260	941.797	753.817
166.950	25.533	940.317	753.709
167.964	25.574	939.203	752.920
168.979	25.549	938.516	752.199
169.994	25.408	937.511	750.735
171.008	25.446	936.397	749.936
172.023	25.422	936.021	749.469
173.037	25.592	935.231	749.479
174.052	25.406	933.993	747.649
175.067	25.278	932.845	746.131
176.081	25.146	932.518	745.254
177.096	25.204	931.675	744.757
178.110	25.265	930.873	744.302
179.125	25.071	929.868	742.628
180.140	24.935	928.823	741.166
181.154	24.818	928.069	740.015
182.169	24.996	927.843	740.503
183.183	25.248	927.495	741.201
184.198	25.677	926.863	742.401
185.213	25.488	926.513	741.277
186.227	25.235	925.905	739.680
187.242	25.556	925.099	740.292
188.256	25.464	924.785	739.600
189.271	25.512	923.987	739.091
190.286	25.711	923.170	739.188
191.300	25.430	922.788	737.665
192.315	24.920	920.764	733.894
193.329	24.233	919.050	729.651
194.344	23.848	918.064	727.227
195.359	24.228	918.838	729.332
196.373	25.219	919.134	733.555
197.388	25.347	919.280	734.131
198.402	25.369	917.886	733.044
199.417	25.338	917.743	732.735
200.432	25.328	917.195	732.195
201.446	25.239	916.418	731.145
202.461	25.009	915.316	729.269
203.475	25.127	914.721	729.206
204.490	24.655	913.312	726.103
205.504	23.519	911.470	719.967
206.519	24.032	911.160	721.739
207.534	24.803	911.655	725.192
208.548	24.921	911.383	725.392
209.563	25.257	911.156	726.507
210.577	25.350	910.286	726.124
211.592	25.056	909.469	724.220
212.607	25.461	909.424	725.757
213.621	25.602	908.726	725.704
214.636	25.515	908.330	724.972
215.650	25.598	907.631	724.687
216.665	25.422	907.136	723.519
217.680	25.600	906.239	723.453
218.694	25.686	906.059	723.592
219.709	25.263	905.026	721.004
220.723	24.900	904.302	718.906
221.738	25.071	903.672	719.030
222.753	25.278	903.012	719.269
223.767	25.373	902.295	719.016
224.782	25.371	901.740	718.500
225.796	25.400	901.408	718.290
226.811	25.546	900.889	718.396
227.826	25.199	899.838	716.106
228.840	24.508	898.110	711.915
229.855	24.209	897.477	710.160
230.869	24.579	897.335	711.460
231.884	24.207	896.198	709.013
232.899	24.358	895.514	709.011
233.913	25.154	896.043	712.532
234.928	25.246	895.347	712.279
235.942	25.425	894.502	712.252
236.957	25.279	893.932	711.157
237.972	25.085	892.909	709.513
238.986	24.772	892.448	707.845
240.001	24.914	892.175	708.129
241.015	24.866	891.558	707.385
242.030	24.921	891.075	707.160
243.045	25.244	890.081	707.580
244.059	25.430	889.936	708.135
245.074	25.385	889.364	707.440
246.088	25.508	888.354	707.059
247.103	25.092	887.453	704.644
248.117	25.083	886.986	704.175
249.132	25.612	887.311	706.452
250.147	25.959	887.217	707.672
251.161	26.102	886.380	707.505
252.176	26.233	886.281	707.875
253.190	26.415	885.060	707.552
254.205	26.239	885.238	706.943
255.220	26.541	884.251	707.272
256.234	26.407	883.775	706.305
257.249	26.322	883.198	705.449
258.263	26.199	882.570	704.405
259.278	26.294	881.681	704.005
260.293	26.211	881.656	703.600
261.307	26.243	881.270	703.352
262.322	26.247	880.419	702.627
263.336	26.139	879.503	701.413
264.351	25.664	878.186	698.459
265.366	24.530	876.372	692.558
266.380	24.104	875.540	690.190
267.395	25.117	875.961	694.386
268.409	25.831	876.167	697.252
269.424	25.835	875.114	696.370
270.439	26.085	874.830	697.046
271.453	26.046	874.301	696.413
272.468	26.199	873.686	696.451
273.482	26.214	873.478	696.280
274.497	26.356	873.057	696.432
275.512	26.093	872.018	694.530
276.526	25.648	870.820	691.802
277.541	25.631	870.477	691.405
278.555	25.991	870.079	692.409
279.570	25.971	869.182	691.557
280.585	25.764	868.502	690.162
281.599	25.849	868.260	690.235
282.614	25.979	867.708	690.230
283.628	25.523	866.522	687.484
284.643	25.169	865.731	685.443
285.657	25.573	865.761	686.948
286.672	25.495	865.061	686.036
287.687	25.067	863.910	683.430
288.701	25.317	863.852	684.278
289.716	25.709	863.526	685.451
290.730	25.366	862.942	683.623
291.745	25.305	861.954	682.546
292.760	25.186	860.640	680.994
293.774	25.058	860.774	680.554
294.789	25.951	860.948	684.020
295.803	26.471	861.187	686.121
296.818	26.616	860.685	686.213
297.833	26.665	860.128	685.893
298.847	26.348	859.050	683.773
299.862	26.129	857.980	682.035
300.876	26.129	857.457	681.558
301.891	26.516	857.219	682.770
302.906	26.678	856.672	682.883
303.920	26.185	855.786	680.258
304.935	26.002	855.443	679.239
305.949	26.595	854.527	680.682
306.964	26.749	854.344	681.055
307.979	26.383	853.379	678.850
308.993	26.193	853.144	677.890
310.008	26.619	853.111	679.402
311.022	26.808	852.472	679.540
312.037	26.673	851.826	678.459
313.052	26.332	851.411	676.794
314.066	26.344	850.519	676.069
315.081	25.541	848.928	671.748
316.095	24.753	848.085	668.076
317.110	25.429	847.756	670.282
318.125	26.157	848.129	673.232
319.139	25.930	846.864	671.323
320.154	24.526	845.523	664.977
321.168	24.280	843.992	662.800
322.183	24.885	844.497	665.388
323.197	25.731	845.327	669.130
324.212	26.084	844.822	669.983
325.227	26.220	844.500	670.174
326.241	26.459	843.662	670.333
327.256	26.437	843.252	669.866
328.270	26.124	842.850	668.329
329.285	26.053	842.238	667.523
330.300	25.988	841.106	666.325
331.314	25.798	840.391	664.998
332.329	25.757	840.104	664.561
333.343	26.128	839.600	665.471
334.358	26.539	839.295	666.683
335.373	26.533	838.690	666.123
336.387	26.559	838.213	665.783
337.402	26.848	837.640	666.330
338.416	26.880	837.392	666.192
339.431	26.753	836.899	665.275
340.446	26.901	836.613	665.531
341.460	27.307	835.681	666.217
342.475	27.147	835.535	665.455
343.489	26.879	834.781	663.817
344.504	26.974	833.965	663.457
345.519	27.060	834.184	663.884
346.533	27.243	833.501	663.953
347.548	27.432	832.949	664.142
348.562	27.374	832.446	663.471
349.577	27.349	831.904	662.889
350.592	27.329	831.387	662.345
351.606	27.127	831.027	661.266
352.621	27.247	830.352	661.105
353.635	27.119	829.629	660.006
354.650	26.957	829.419	659.195
355.665	26.800	828.110	657.525
356.679	25.804	826.572	652.641
357.694	25.629	825.958	651.463
358.708	26.247	826.783	654.296
359.723	26.098	825.965	653.052
360.738	26.295	825.344	653.214
361.752	26.888	825.517	655.438
362.767	27.059	825.114	655.675
363.781	27.235	825.060	656.208
364.796	27.533	824.807	657.025
365.810	27.546	824.366	656.663
366.825	27.741	823.898	656.936
367.840	27.673	823.780	656.538
368.854	27.545	822.978	655.378
369.869	27.128	822.078	653.106
370.883	26.925	821.198	651.622
371.898	26.981	820.728	651.393
372.913	26.968	820.264	650.919
373.927	26.792	820.005	650.024
374.942	27.071	819.252	650.370
375.956	27.145	819.041	650.410
376.971	27.326	818.184	650.319
377.986	27.318	817.700	649.846
379.000	27.675	817.079	650.569
380.015	27.509	816.751	649.659
381.029	27.484	815.882	648.823
382.044	27.379	815.571	648.143
383.059	27.426	815.398	648.115
384.073	27.535	814.665	647.862
385.088	27.515	814.163	647.334
386.102	27.573	813.462	646.928
387.117	27.421	812.329	645.431
388.132	27.378	812.007	644.966
389.146	27.231	811.689	644.133
390.161	26.472	810.770	640.663
391.175	26.666	810.320	640.937
392.190	27.070	810.244	642.246
393.205	27.211	809.853	642.379
394.219	26.210	808.405	637.642
395.234	24.454	805.863	629.394
396.248	23.750	804.874	626.084
397.263	24.785	805.995	630.553
398.278	26.738	806.924	638.107
399.292	27.262	806.804	639.799
400.307	26.926	805.981	637.908
401.321	26.906	805.624	637.500
402.336	26.920	805.560	637.442
403.350	27.231	805.434	638.378
404.365	27.611	805.401	639.630
405.380	27.889	805.209	640.396
406.394	28.265	804.905	641.415
407.409	28.271	804.593	641.131
408.423	28.255	804.334	640.809
409.438	28.341	803.157	640.119
410.453	28.390	802.676	639.849
411.467	28.409	802.452	639.679
412.482	28.323	801.667	638.696
413.496	28.263	801.178	638.043
414.511	28.322	800.898	637.968
415.526	28.446	800.611	638.113
416.540	28.362	800.666	637.810
417.555	28.225	799.837	636.616
418.569	27.762	799.551	634.723
419.584	27.978	798.678	634.722
420.599	27.964	798.155	634.204
421.613	111.078	1284.712	1457.883
422.628	95.778	1355.614	1457.990
