DTS Sentinel unit serial number:	SN413079Multiplexer serial number:	ORYXHardware model number:	OX4-SRSoftware version number:	ORYX F/W v4.00 Oryx Data Collector v3.7.2.0data status	okinstallation	princeton_trtdifferential loss correction	single-endedforward channel	channel 3reverse channel	N/Adate	2019/09/11time	09:06:10forward acquisition time	60.00reverse acquisition time	0.00gamma	496.2192k internal	0.2308k external	0.2308temperature offset calibration	0.9938default loss term (dB/km)	0.3790temperature slope calibration	1.0000multiplexer offset coefficient	1.0000multiplexer slope coefficient	1.0000fibre end	0.00T internal ref (°C)	34.22T ext. ref 1 (°C)	0.09T ext. ref 2 (°C)	30.16length (m)	temperature (°C)	Stokes	anti-Stokes-747.200	220.758	0.042	0.069
-746.185	-104.954	-0.233	0.054
-745.171	784.558	-0.080	0.223
-744.156	-200.000	-0.070	0.559
-743.142	23.744	-0.240	-0.201
-742.127	-23.888	0.281	0.171
-741.112	699.786	-0.143	0.383
-740.098	-124.649	-0.195	0.031
-739.083	-92.003	-0.153	0.044
-738.069	-101.647	-0.358	0.088
-737.054	-37.802	0.160	0.087
-736.039	-200.000	0.021	-0.218
-735.025	-179.877	0.305	0.007
-734.010	-115.079	-0.410	-0.079
-732.996	-200.000	-0.002	0.150
-731.981	287.237	-0.091	0.168
-730.966	318.626	0.050	0.096
-729.952	-0.810	-0.068	-0.049
-728.937	341.019	-0.114	0.226
-727.923	800.000	0.104	-0.338
-726.908	800.000	-0.046	-0.151
-725.894	-42.399	-0.253	0.131
-724.879	-128.717	0.173	0.025
-723.864	-189.514	-0.305	0.004
-722.850	21.740	-0.458	0.379
-721.835	5.640	-0.103	-0.077
-720.821	-112.973	-0.226	-0.045
-719.806	-177.776	-0.168	-0.004
-718.791	53.607	-0.114	0.111
-717.777	800.000	0.070	-0.211
-716.762	-93.112	-0.134	-0.038
-715.748	800.000	0.102	-0.321
-714.733	353.689	0.109	0.220
-713.718	-88.082	-0.169	-0.052
-712.704	-200.000	0.002	0.051
-711.689	730.040	-0.073	-0.197
-710.675	354.670	0.075	-0.151
-709.660	128.871	-0.096	0.124
-708.645	329.728	-0.192	0.376
-707.631	800.000	-0.084	0.260
-706.616	-200.000	-0.052	0.277
-705.602	800.000	0.033	-0.135
-704.587	-133.893	0.064	0.008
-703.572	-125.958	0.230	0.035
-702.558	800.000	-0.049	-0.173
-701.543	-75.740	-0.207	-0.074
-700.529	-63.911	0.175	0.073
-699.514	310.398	0.089	-0.169
-698.499	-97.397	-0.230	-0.061
-697.485	42.133	-0.132	0.122
-696.470	70.316	0.090	0.094
-695.456	72.937	-0.174	-0.185
-694.441	-46.790	0.353	0.175
-693.426	-3.135	0.065	0.046
-692.412	800.000	-0.029	-0.119
-691.397	372.703	0.087	0.180
-690.383	396.879	0.091	-0.193
-689.368	-90.973	0.260	-0.076
-688.354	58.493	0.025	0.025
-687.339	378.068	-0.073	0.151
-686.324	-57.388	-0.173	0.077
-685.310	-74.762	0.382	0.139
-684.295	46.022	0.208	0.195
-683.281	-136.904	-0.128	0.015
-682.266	0.481	-0.169	-0.122
-681.251	-89.290	-0.141	-0.042
-680.237	76.875	0.150	0.161
-679.222	32.516	0.376	0.330
-678.208	-167.740	-0.513	0.021
-677.193	779.251	-0.133	-0.368
-676.178	15.808	-0.243	-0.194
-675.164	-142.808	0.037	-0.004
-674.149	39.013	-0.146	-0.132
-673.135	132.094	0.192	0.250
-672.120	-56.988	-0.107	-0.048
-671.105	99.371	-0.147	-0.173
-670.091	-152.410	0.061	0.004
-669.076	800.000	-0.080	0.271
-668.062	743.293	0.099	-0.269
-667.047	-53.216	0.145	0.067
-666.032	94.772	0.263	0.303
-665.018	-200.000	-0.008	0.152
-664.003	537.659	0.028	0.066
-662.989	-143.541	-0.318	0.031
-661.974	-156.579	0.116	-0.007
-660.959	-164.364	-0.316	-0.015
-659.945	38.143	-0.218	0.197
-658.930	103.819	-0.026	0.030
-657.916	800.000	0.079	0.308
-656.901	409.431	-0.077	0.165
-655.886	800.000	0.054	-0.175
-654.872	-27.366	-0.092	-0.054
-653.857	235.124	0.052	0.086
-652.843	-3.810	-0.281	0.198
-651.828	800.000	-0.047	0.182
-650.814	-48.170	-0.053	0.026
-649.799	800.000	-0.077	-0.278
-648.784	-30.431	0.126	0.072
-647.770	499.886	-0.085	0.199
-646.755	-46.035	-0.173	-0.086
-645.741	-66.234	-0.185	-0.075
-644.726	-113.993	-0.414	0.081
-643.711	-42.764	-0.346	-0.178
-642.697	189.079	-0.195	-0.296
-641.682	18.402	-0.166	0.134
-640.668	-17.831	-0.192	0.122
-639.653	379.555	0.073	0.152
-638.638	-2.977	-0.176	-0.125
-637.624	-111.932	0.150	-0.031
-636.609	800.000	0.069	-0.301
-635.595	82.861	-0.132	0.145
-634.580	-29.405	0.143	0.083
-633.565	800.000	-0.076	0.304
-632.551	-200.000	-0.032	0.355
-631.536	18.761	0.051	0.042
-630.522	25.928	-0.076	0.064
-629.507	-200.000	-0.032	-0.242
-628.492	192.401	-0.046	-0.071
-627.478	-186.477	0.080	0.001
-626.463	3.980	0.450	-0.333
-625.449	20.864	0.217	0.178
-624.434	149.379	-0.043	0.059
-623.419	22.909	0.014	0.011
-622.405	21.212	-0.136	0.112
-621.390	-200.000	0.000	-0.183
-620.376	-95.547	0.194	0.053
-619.361	800.000	0.118	0.342
-618.346	55.448	0.171	0.167
-617.332	-146.031	0.169	0.015
-616.317	-42.340	-0.292	0.151
-615.303	-50.289	0.119	-0.057
-614.288	338.929	-0.277	-0.546
-613.273	23.879	0.142	0.118
-612.259	-136.656	-0.244	0.029
-611.244	298.593	-0.165	0.306
-610.230	590.857	-0.129	-0.321
-609.215	-140.803	0.030	-0.003
-608.201	-127.216	0.365	0.054
-607.186	458.997	0.063	0.143
-606.171	-22.583	0.172	-0.105
-605.157	-153.390	-0.145	0.010
-604.142	474.072	-0.139	0.317
-603.128	-162.087	-0.147	-0.007
-602.113	-46.341	0.210	-0.104
-601.098	800.000	-0.075	-0.210
-600.084	251.004	-0.077	0.132
-599.069	-61.090	0.153	-0.065
-598.055	145.095	-0.174	0.235
-597.040	-6.830	-0.137	-0.094
-596.025	105.779	0.095	0.113
-595.011	-142.143	0.275	0.028
-593.996	-103.491	-0.305	0.072
-592.982	563.605	0.030	0.073
-591.967	-156.856	-0.182	0.011
-590.952	203.958	-0.154	-0.240
-589.938	95.626	-0.336	0.387
-588.923	207.875	-0.073	0.116
-587.909	-49.481	0.313	-0.151
-586.894	200.345	-0.117	0.181
-585.879	121.519	0.257	-0.324
-584.865	-11.838	-0.278	-0.185
-583.850	15.906	-0.169	-0.134
-582.836	73.767	0.236	-0.250
-581.821	-200.000	-0.008	-0.199
-580.806	-200.000	0.064	-0.389
-579.792	-90.221	-0.170	0.050
-578.777	-70.649	0.144	-0.055
-577.763	-200.000	0.009	0.290
-576.748	334.560	0.188	0.368
-575.733	118.912	-0.083	-0.104
-574.719	267.815	-0.088	-0.156
-573.704	800.000	-0.055	-0.226
-572.690	-124.933	0.220	-0.034
-571.675	-95.905	0.317	-0.085
-570.661	-134.580	0.312	0.038
-569.646	593.230	0.087	0.216
-568.631	800.000	0.046	0.151
-567.617	-200.000	-0.037	0.304
-566.602	44.212	0.306	-0.283
-565.588	-50.415	0.060	0.029
-564.573	109.726	0.045	0.055
-563.558	-73.040	-0.162	-0.060
-562.544	-200.000	0.016	0.252
-561.529	800.000	-0.028	-0.081
-560.515	-119.248	0.373	-0.066
-559.500	2.524	-0.141	-0.103
-558.485	785.411	-0.049	0.135
-557.471	-93.609	-0.211	0.059
-556.456	-101.183	0.218	-0.054
-555.442	40.235	0.106	0.096
-554.427	214.254	-0.079	-0.127
-553.412	636.408	0.202	0.518
-552.398	-68.036	-0.247	0.097
-551.383	-14.383	-0.263	-0.171
-550.369	268.396	-0.143	-0.253
-549.354	392.715	0.115	0.242
-548.339	800.000	-0.024	0.104
-547.325	-71.802	-0.139	0.052
-546.310	-141.225	-0.125	0.013
-545.296	-115.457	0.015	-0.003
-544.281	-200.000	-0.027	0.193
-543.266	-38.488	0.098	-0.052
-542.252	-93.174	0.241	-0.068
-541.237	-7.909	0.190	-0.129
-540.223	492.500	-0.108	0.250
-539.208	800.000	-0.141	0.438
-538.193	-124.426	0.345	-0.054
-537.179	-24.080	0.068	0.041
-536.164	-200.000	0.033	-0.191
-535.150	-23.244	0.118	-0.072
-534.135	91.561	-0.297	0.336
-533.121	-200.000	-0.006	-0.122
-532.106	-43.569	0.144	-0.073
-531.091	339.953	-0.036	-0.071
-530.077	-172.717	0.375	0.012
-529.062	-79.577	-0.267	0.091
-528.048	91.087	-0.221	-0.250
-527.033	-181.190	0.168	-0.003
-526.018	-168.292	-0.218	-0.008
-525.004	47.425	0.073	-0.068
-523.989	117.449	-0.128	0.159
-522.975	38.355	-0.240	-0.216
-521.960	382.464	-0.218	0.451
-520.945	-102.337	0.531	-0.128
-519.931	-57.989	-0.255	-0.112
-518.916	207.285	-0.071	0.111
-517.902	599.881	0.071	-0.176
-516.887	-29.752	0.108	-0.062
-515.872	107.161	0.191	-0.229
-514.858	-33.249	-0.086	-0.048
-513.843	30.619	0.339	0.292
-512.829	-103.833	0.160	-0.038
-511.814	102.038	0.155	-0.182
-510.799	-199.639	0.381	0.002
-509.785	-56.742	-0.191	0.085
-508.770	-98.417	0.238	0.061
-507.756	800.000	-0.146	-0.430
-506.741	274.154	0.045	-0.080
-505.726	800.000	-0.077	0.291
-504.712	-92.890	-0.196	0.055
-503.697	-200.000	-0.030	0.138
-502.683	27.242	-0.254	0.215
-501.668	-186.648	-0.164	0.002
-500.653	217.121	-0.094	-0.151
-499.639	800.000	-0.059	-0.211
-498.624	-47.745	0.392	-0.192
-497.610	439.815	-0.128	0.281
-496.595	-37.865	-0.252	0.135
-495.581	46.932	0.093	-0.087
-494.566	-66.392	-0.151	-0.061
-493.551	-106.671	-0.391	0.087
-492.537	492.100	-0.053	-0.122
-491.522	800.000	-0.080	-0.225
-490.508	-200.000	0.040	0.000
-489.493	13.642	0.168	0.132
-488.478	-173.443	0.031	0.001
-487.464	-73.988	-0.211	-0.077
-486.449	-154.261	0.464	0.031
-485.435	154.794	-0.157	0.218
-484.420	717.556	0.154	-0.410
-483.405	-158.739	0.378	0.022
-482.391	-44.590	0.211	0.106
-481.376	201.241	0.120	0.185
-480.362	-41.068	0.234	0.122
-479.347	-93.373	0.136	-0.038
-478.332	-118.978	-0.212	0.037
-477.318	113.206	-0.079	-0.096
-476.303	139.380	0.068	0.090
-475.289	312.828	-0.182	-0.345
-474.274	-85.123	-0.025	-0.008
-473.259	153.891	-0.201	-0.277
-472.245	92.082	-0.165	-0.187
-471.230	-116.883	-0.081	-0.015
-470.216	-23.441	0.043	0.026
-469.201	-129.749	-0.259	0.036
-468.186	383.470	-0.159	0.329
-467.172	-200.000	0.008	0.125
-466.157	800.000	-0.042	0.128
-465.143	224.409	-0.026	-0.042
-464.128	104.884	-0.097	0.115
-463.113	-58.182	0.180	-0.079
-462.099	372.816	-0.035	0.072
-461.084	-118.857	0.220	0.039
-460.070	800.000	-0.085	0.255
-459.055	-125.360	0.496	0.076
-458.040	-33.655	0.232	-0.129
-457.026	-200.000	-0.292	0.001
-456.011	-64.849	-0.082	0.033
-454.997	-200.000	-0.073	-0.401
-453.982	-18.238	-0.137	0.086
-452.968	-35.829	0.050	0.027
-451.953	487.063	-0.096	-0.219
-450.938	26.692	-0.213	-0.180
-449.924	-73.814	-0.074	-0.027
-448.909	158.036	-0.088	-0.122
-447.895	545.396	-0.119	-0.285
-446.880	-7.469	0.087	-0.059
-445.865	-200.000	0.021	-0.196
-444.851	-67.473	0.358	0.141
-443.836	-129.376	-0.054	0.008
-442.822	-120.290	0.328	-0.056
-441.807	-142.910	-0.110	0.011
-440.792	57.654	-0.146	0.143
-439.778	-63.429	-0.092	0.038
-438.763	-57.532	-0.129	-0.057
-437.749	-133.138	0.122	-0.016
-436.734	20.478	-0.267	-0.217
-435.719	-49.091	0.266	0.128
-434.705	-200.000	-0.002	0.233
-433.690	-200.000	0.062	-0.430
-432.676	-134.794	-0.334	-0.041
-431.661	-134.910	0.270	0.033
-430.646	73.704	0.103	0.108
-429.632	-113.573	-0.183	-0.036
-428.617	310.406	-0.058	0.109
-427.603	210.225	0.044	-0.069
-426.588	-68.541	0.137	0.053
-425.573	-200.000	0.008	0.065
-424.559	-73.332	0.136	-0.050
-423.544	-142.430	0.131	0.013
-422.530	-50.202	-0.237	0.112
-421.515	493.835	-0.142	-0.327
-420.500	56.379	-0.089	0.087
-419.486	-168.221	0.070	0.003
-418.471	-27.534	0.217	0.126
-417.457	800.000	0.014	0.047
-416.442	-90.000	-0.347	0.102
-415.428	-200.000	-0.017	-0.184
-414.413	-31.248	0.158	0.089
-413.398	368.468	0.058	0.117
-412.384	2.224	-0.178	-0.129
-411.369	-82.756	-0.210	0.068
-410.355	69.378	0.144	-0.149
-409.340	20.333	0.284	-0.230
-408.325	24.348	0.090	0.075
-407.311	-139.610	0.258	0.028
-406.296	292.147	-0.142	-0.260
-405.282	-75.107	-0.102	-0.037
-404.267	20.740	0.532	0.432
-403.252	-88.611	0.113	-0.034
-402.238	-5.771	-0.199	-0.137
-401.223	-200.000	-0.003	-0.086
-400.209	800.000	0.107	-0.366
-399.194	33.564	-0.098	-0.085
-398.179	-43.549	-0.280	0.142
-397.165	-109.851	0.181	0.038
-396.150	-67.350	-0.081	0.032
-395.136	-100.337	-0.048	-0.012
-394.121	-116.519	-0.077	-0.014
-393.106	110.550	0.161	0.194
-392.092	10.330	0.265	-0.202
-391.077	-200.000	0.022	-0.208
-390.063	-200.000	-0.019	-0.263
-389.048	76.419	-0.057	0.060
-388.033	-200.000	-0.054	-0.368
-387.019	141.978	0.154	0.204
-386.004	-39.007	0.172	0.091
-384.990	-200.000	-0.001	0.241
-383.975	800.000	0.127	0.373
-382.960	-102.879	0.096	-0.023
-381.946	-100.759	0.160	0.040
-380.931	130.436	0.139	-0.179
-379.917	-163.170	-0.156	0.008
-378.902	-96.140	-0.190	0.051
-377.888	-27.581	-0.184	-0.107
-376.873	58.475	0.374	0.367
-375.858	-114.390	-0.190	-0.037
-374.844	172.466	0.149	0.214
-373.829	-53.786	0.113	-0.051
-372.815	487.929	-0.086	-0.196
-371.800	-92.176	-0.287	-0.081
-370.785	-80.370	0.443	0.148
-369.771	-200.000	-0.029	0.202
-368.756	717.845	0.078	0.208
-367.742	79.262	-0.095	0.102
-366.727	-197.281	0.100	0.001
-365.712	-150.449	0.322	0.025
-364.698	46.081	-0.226	-0.210
-363.683	-200.000	0.044	-0.318
-362.669	139.322	-0.151	0.199
-361.654	800.000	-0.057	0.182
-360.639	-70.022	0.590	-0.225
-359.625	-80.502	-0.273	0.091
-358.610	-127.819	0.266	0.038
-357.596	-85.601	-0.184	0.057
-356.581	-30.431	0.193	0.110
-355.566	-0.880	0.029	0.021
-354.552	41.587	0.066	-0.060
-353.537	800.000	0.091	-0.380
-352.523	741.981	-0.131	-0.351
-351.508	800.000	0.007	0.027
-350.493	-200.000	0.036	0.276
-349.479	24.462	-0.075	-0.062
-348.464	800.000	0.059	0.217
-347.450	9.293	-0.269	-0.204
-346.435	784.172	0.043	0.119
-345.420	-16.273	0.061	-0.039
-344.406	632.416	-0.128	0.323
-343.391	-119.587	-0.279	-0.048
-342.377	56.878	-0.196	0.191
-341.362	-111.956	0.123	-0.025
-340.348	-75.764	0.313	0.111
-339.333	48.490	0.065	-0.061
-338.318	403.330	0.079	-0.165
-337.304	800.000	-0.037	0.123
-336.289	-6.423	0.054	0.037
-335.275	100.805	-0.139	-0.162
-334.260	109.416	-0.229	-0.274
-333.245	103.581	0.163	-0.192
-332.231	-200.000	0.081	-0.409
-331.216	-76.009	-0.168	0.059
-330.202	-124.575	-0.052	0.008
-329.187	-111.654	0.403	0.082
-328.172	-200.000	0.018	-0.232
-327.158	800.000	0.038	-0.143
-326.143	-200.000	0.022	-0.400
-325.129	-145.518	0.261	0.023
-324.114	60.761	-0.115	-0.114
-323.099	-118.685	-0.125	-0.022
-322.085	-200.000	0.007	0.208
-321.070	-152.149	0.082	-0.006
-320.056	-126.050	-0.263	0.039
-319.041	-111.964	-0.173	0.035
-318.026	800.000	-0.182	0.513
-317.012	-57.433	-0.151	0.066
-315.997	-119.339	0.181	0.031
-314.983	22.092	-0.116	0.094
-313.968	-109.131	-0.102	-0.022
-312.953	390.179	0.065	-0.136
-311.939	-200.000	-0.014	0.156
-310.924	-70.473	-0.261	-0.099
-309.910	-55.279	0.427	0.192
-308.895	67.869	0.198	0.202
-307.880	800.000	-0.014	0.052
-306.866	-200.000	-0.009	-0.072
-305.851	-51.891	0.118	-0.055
-304.837	-0.273	-0.186	0.132
-303.822	-200.000	0.002	-0.148
-302.807	800.000	-0.050	0.177
-301.793	140.166	0.029	0.039
-300.778	-200.000	0.004	0.304
-299.764	50.536	-0.112	-0.106
-298.749	416.080	0.048	0.103
-297.735	435.169	-0.156	-0.338
-296.720	-41.189	0.072	-0.037
-295.705	-11.293	0.052	0.034
-294.691	41.411	0.296	-0.268
-293.676	-109.745	-0.542	0.114
-292.662	-87.168	-0.114	-0.035
-291.647	161.007	0.121	-0.169
-290.632	-95.864	0.303	0.081
-289.618	220.830	-0.073	-0.117
-288.603	465.807	-0.135	0.301
-287.589	-200.000	-0.029	0.286
-286.574	357.163	-0.142	-0.283
-285.559	-49.768	-0.122	-0.058
-284.545	800.000	0.087	0.302
-283.530	-200.000	0.032	-0.261
-282.516	71.976	-0.283	-0.294
-281.501	800.000	-0.052	0.172
-280.486	-69.078	-0.074	0.029
-279.472	-92.215	-0.338	0.095
-278.457	125.536	-0.120	-0.152
-277.443	-23.394	0.233	0.140
-276.428	194.783	-0.114	-0.172
-275.413	-92.555	0.246	-0.069
-274.399	800.000	0.075	0.217
-273.384	515.037	-0.007	0.016
-272.370	136.968	0.199	-0.260
-271.355	135.839	-0.044	0.057
-270.340	22.710	0.493	-0.403
-269.326	43.861	-0.182	-0.166
-268.311	-106.598	0.076	-0.017
-267.297	-53.035	-0.117	-0.054
-266.282	-200.000	0.027	-0.143
-265.267	40.720	0.280	-0.252
-264.253	-200.000	-0.009	0.224
-263.238	-200.000	0.010	-0.215
-262.224	800.000	-0.103	-0.371
-261.209	-113.181	0.103	0.020
-260.195	91.734	-0.211	0.237
-259.180	25.691	-0.370	0.308
-258.165	-116.099	0.174	-0.032
-257.151	-72.170	-0.225	-0.083
-256.136	-162.833	-0.092	-0.004
-255.122	-157.056	-0.322	0.020
-254.107	733.750	0.092	0.246
-253.092	262.697	0.075	-0.129
-252.078	-83.817	0.509	-0.162
-251.063	-200.000	-0.015	-0.105
-250.049	93.745	-0.047	-0.053
-249.034	-78.032	0.173	0.059
-248.019	-53.854	-0.155	-0.070
-247.005	-200.000	0.003	0.129
-245.990	800.000	0.085	0.261
-244.976	-59.561	-0.364	-0.156
-243.961	-61.153	0.336	0.141
-242.946	90.834	0.151	-0.168
-241.932	-19.007	-0.227	0.141
-240.917	-200.000	0.025	0.327
-239.903	-117.644	0.187	0.034
-238.888	-200.000	-0.036	0.166
-237.873	-66.298	-0.508	0.202
-236.859	-200.000	-0.036	0.170
-235.844	-137.886	0.138	0.015
-234.830	-25.388	0.088	-0.052
-233.815	-200.000	0.037	-0.207
-232.800	-155.631	-0.111	-0.007
-231.786	-6.763	0.181	-0.123
-230.771	-85.107	-0.146	-0.045
-229.757	-104.848	-0.090	0.021
-228.742	-200.000	-0.017	0.083
-227.727	-99.091	-0.290	0.073
-226.713	-100.152	-0.273	-0.068
-225.698	70.809	-0.191	0.197
-224.684	78.577	-0.272	0.290
-223.669	-7.005	0.236	0.160
-222.655	221.630	-0.189	-0.303
-221.640	-150.470	0.079	0.006
-220.625	800.000	0.060	0.176
-219.611	-20.166	0.128	-0.079
-218.596	109.481	0.156	-0.186
-217.582	-77.053	-0.277	0.096
-216.567	41.301	-0.237	0.213
-215.552	800.000	0.036	-0.144
-214.538	-44.847	0.083	-0.041
-213.523	-103.980	-0.061	-0.014
-212.509	-50.342	-0.158	0.074
-211.494	-102.870	-0.188	-0.044
-210.479	-33.953	-0.049	-0.027
-209.465	-86.750	0.317	0.097
-208.450	264.020	-0.099	0.172
-207.436	354.258	-0.179	0.355
-206.421	34.905	-0.188	0.163
-205.406	72.418	0.248	-0.257
-204.392	45.304	0.164	-0.151
-203.377	87.798	0.069	-0.076
-202.363	-54.115	0.205	0.093
-201.348	40.853	0.082	-0.073
-200.333	-137.172	-0.194	0.022
-199.319	-200.000	-0.036	0.383
-198.304	-135.582	-0.285	0.034
-197.290	-101.733	-0.257	-0.062
-196.275	-129.937	0.171	0.023
-195.260	-151.917	0.212	0.015
-194.246	-172.459	0.321	0.010
-193.231	-144.537	0.160	-0.015
-192.217	-200.000	0.013	0.179
-191.202	-73.784	-0.101	0.036
-190.187	5.748	0.269	-0.198
-189.173	648.222	-0.077	-0.197
-188.158	-141.110	0.059	-0.006
-187.144	-200.000	-0.075	-0.559
-186.129	457.022	-0.070	-0.155
-185.114	-200.000	-0.023	0.201
-184.100	-200.000	0.042	-0.267
-183.085	96.940	0.111	-0.126
-182.071	-59.600	0.179	-0.076
-181.056	456.875	-0.035	-0.078
-180.042	-51.867	-0.109	0.050
-179.027	598.033	-0.140	0.345
-178.012	-61.025	-0.303	-0.127
-176.998	-24.373	-0.136	0.081
-175.983	-19.539	-0.190	-0.117
-174.969	-200.000	0.054	0.308
-173.954	173.972	-0.190	0.273
-172.939	-111.074	-0.433	-0.088
-171.925	4.637	0.304	0.222
-170.910	-101.218	-0.056	-0.014
-169.896	-200.000	-0.019	-0.171
-168.881	-179.918	0.302	-0.006
-167.866	-58.691	-0.068	0.029
-166.852	137.143	-0.104	-0.136
-165.837	112.770	-0.088	-0.105
-164.823	-200.000	-0.010	0.146
-163.808	-66.559	0.130	-0.051
-162.793	11.169	0.077	-0.059
-161.779	8.915	-0.049	-0.037
-160.764	561.334	0.121	-0.292
-159.750	-22.266	0.154	-0.092
-158.735	-200.000	0.011	0.163
-157.720	-138.496	0.123	0.013
-156.706	-200.000	-0.063	0.432
-155.691	-173.850	0.241	-0.007
-154.677	-127.581	0.224	0.032
-153.662	-10.590	0.108	-0.071
-152.647	-54.174	0.363	0.164
-151.633	18.741	-0.181	0.144
-150.618	-18.166	-0.448	0.278
-149.604	-128.077	0.164	-0.023
-148.589	108.030	-0.153	0.181
-147.574	-87.035	-0.202	-0.061
-146.560	42.786	-0.139	-0.125
-145.545	126.045	-0.126	0.158
-144.531	-78.882	0.192	-0.065
-143.516	-200.000	-0.037	0.278
-142.502	-8.639	-0.146	0.097
-141.487	-78.566	-0.462	-0.157
-140.472	44.400	0.136	0.124
-139.458	-200.000	0.061	-0.308
-138.443	50.170	0.275	-0.258
-137.429	800.000	-0.073	0.260
-136.414	-133.136	-0.076	0.010
-135.399	-200.000	0.021	-0.101
-134.385	137.745	-0.231	0.300
-133.370	-90.166	-0.205	-0.059
-132.356	-155.865	-0.281	0.018
-131.341	252.966	-0.149	-0.251
-130.326	-149.558	0.272	0.021
-129.312	674.241	-0.080	-0.206
-128.297	281.131	0.101	0.179
-127.283	-200.000	-0.033	0.306
-126.268	598.765	0.095	0.234
-125.253	-200.000	0.041	-0.361
-124.239	22.705	0.314	0.255
-123.224	287.176	0.141	-0.252
-122.210	-113.730	-0.114	0.022
-121.195	161.395	-0.080	0.111
-120.180	-76.043	-0.281	-0.099
-119.166	630.984	0.034	-0.085
-118.151	342.801	0.025	-0.049
-117.137	88.783	0.085	-0.094
-116.122	-120.154	0.065	-0.011
-115.107	-111.904	0.355	0.071
-114.093	-200.000	0.002	0.329
-113.078	593.971	0.109	0.268
-112.064	800.000	-0.062	0.195
-111.049	315.664	0.079	0.147
-110.034	-125.131	-0.115	-0.018
-109.020	-9.104	-0.169	0.112
-108.005	3.557	0.097	0.070
-106.991	800.000	-0.007	0.027
-105.976	-200.000	-0.009	0.068
-104.962	-95.788	-0.258	-0.068
-103.947	326.716	0.128	-0.243
-102.932	-153.427	0.243	-0.017
-101.918	-107.033	0.078	0.017
-100.903	-200.000	-0.001	-0.296
-99.889	70.760	0.201	0.206
-98.874	418.894	0.137	0.291
-97.859	-82.006	0.270	-0.087
-96.845	30.031	-0.257	-0.218
-95.830	800.000	-0.037	0.108
-94.816	-188.058	0.125	-0.002
-93.801	320.941	0.134	0.252
-92.786	558.357	0.081	0.194
-91.772	250.071	-0.073	-0.124
-90.757	389.271	0.144	0.296
-89.743	-51.359	0.284	-0.132
-88.728	-200.000	0.059	0.358
-87.713	4.557	0.194	-0.141
-86.699	132.310	-0.078	0.099
-85.684	-200.000	0.038	0.211
-84.670	-53.617	0.181	-0.082
-83.655	-67.806	0.103	-0.040
-82.640	611.654	0.143	-0.354
-81.626	-200.000	-0.047	0.300
-80.611	508.763	0.158	-0.364
-79.597	513.521	-0.065	-0.150
-78.582	-200.000	-0.026	0.191
-77.567	-39.175	0.156	0.081
-76.553	462.865	-0.035	0.078
-75.538	395.833	0.064	0.132
-74.524	-200.000	-0.005	0.301
-73.509	64.745	-0.177	-0.176
-72.494	-156.869	-0.220	0.013
-71.480	-200.000	-0.008	0.323
-70.465	-200.000	-0.052	-0.296
-69.451	44.312	-0.378	0.344
-68.436	-118.016	0.428	-0.076
-67.422	541.808	0.100	-0.236
-66.407	-55.815	-0.018	-0.008
-65.392	430.455	0.114	-0.243
-64.378	-100.865	-0.110	-0.027
-63.363	460.183	-0.055	-0.122
-62.349	85.682	0.023	0.025
-61.334	26.338	-0.944	-0.781
-60.319	-200.000	-0.004	-0.032
-59.305	616.539	-0.273	-0.679
-58.290	332.569	0.541	1.033
-57.276	628.036	0.720	1.801
-56.261	-200.000	97.410	545.752
-55.246	580.576	1397.048	3387.022
-54.232	182.643	2631.998	3841.404
-53.217	117.155	2223.185	2702.902
-52.203	44.597	1753.407	1594.548
-51.188	37.405	1562.429	1370.349
-50.173	34.923	1535.102	1329.106
-49.159	52.966	1586.704	1501.769
-48.144	56.240	1604.370	1541.572
-47.130	37.699	1559.351	1369.498
-46.115	34.418	1544.157	1333.206
-45.100	34.322	1540.554	1329.372
-44.086	34.270	1538.558	1327.232
-43.071	34.320	1536.638	1325.873
-42.057	34.216	1534.845	1323.552
-41.042	34.089	1534.169	1322.034
-40.027	34.261	1532.242	1321.515
-39.013	34.183	1530.837	1319.709
-37.998	34.301	1529.248	1319.103
-36.984	34.280	1528.265	1318.060
-35.969	34.146	1527.389	1316.320
-34.954	34.248	1525.471	1315.323
-33.940	34.216	1524.264	1314.011
-32.925	34.251	1522.433	1312.620
-31.911	34.278	1521.489	1311.940
-30.896	34.221	1520.406	1310.561
-29.881	34.256	1518.960	1309.502
-28.867	34.294	1517.461	1308.421
-27.852	34.249	1516.022	1306.822
-26.838	34.304	1514.201	1305.576
-25.823	34.230	1513.273	1304.213
-24.809	34.241	1511.353	1302.583
-23.794	34.298	1509.786	1301.568
-22.779	34.240	1509.002	1300.446
-21.765	34.226	1507.758	1299.230
-20.750	34.253	1506.593	1298.359
-19.736	34.278	1505.307	1297.365
-18.721	34.152	1504.720	1295.948
-17.706	34.140	1503.685	1294.925
-16.692	34.289	1502.251	1294.654
-15.677	34.220	1501.184	1293.217
-14.663	34.148	1500.466	1292.054
-13.648	34.250	1498.944	1291.382
-12.633	34.220	1498.044	1290.352
-11.619	34.277	1496.933	1289.736
-10.604	34.128	1496.359	1288.181
-9.590	34.212	1495.388	1287.858
-8.575	34.129	1494.813	1286.755
-7.560	34.161	1494.398	1286.560
-6.546	34.160	1493.336	1285.589
-5.531	34.196	1492.260	1284.853
-4.517	34.168	1490.945	1283.484
-3.502	34.151	1490.368	1282.819
-2.487	34.200	1489.131	1282.032
-1.473	34.101	1488.253	1280.564
-0.458	34.315	1486.693	1280.604
0.556	32.384	1477.726	1269.674
1.571	29.749	1451.155	1229.245
2.586	26.542	1389.868	1156.771
3.600	25.142	1307.928	1080.047
4.615	23.677	1261.886	1033.415
5.629	19.589	1203.003	962.376
6.644	9.099	1112.812	835.797
7.659	1.385	1069.003	764.127
8.673	0.328	1062.989	754.470
9.688	0.056	1060.505	751.282
10.702	-0.048	1058.791	749.484
11.717	0.016	1056.646	748.218
12.731	3.909	1061.519	771.033
13.746	13.963	1076.506	832.454
14.761	20.778	1085.725	873.836
15.775	21.748	1086.109	878.935
16.790	21.927	1085.570	879.320
17.804	21.754	1085.034	877.940
18.819	21.687	1083.870	876.584
19.834	21.753	1082.872	876.030
20.848	21.921	1082.639	876.603
21.863	21.927	1082.026	876.059
22.877	21.886	1081.546	875.388
23.892	21.879	1081.113	874.924
24.907	21.731	1080.273	873.433
25.921	21.864	1079.570	873.449
26.936	21.836	1079.165	872.902
27.950	21.748	1077.497	871.040
28.965	21.771	1076.461	870.241
29.980	21.767	1074.750	868.760
30.994	21.574	1073.789	866.951
32.009	21.823	1072.687	867.217
33.023	21.796	1072.606	866.938
34.038	21.640	1071.337	865.066
35.053	21.561	1070.060	863.568
36.067	21.858	1069.698	864.664
37.082	21.757	1068.966	863.499
38.096	21.786	1068.188	862.938
39.111	21.943	1067.778	863.300
40.126	22.079	1066.640	862.973
41.140	22.075	1064.949	861.510
42.155	21.792	1063.667	859.009
43.169	21.498	1062.325	856.412
44.184	21.446	1061.626	855.515
45.199	21.557	1060.192	854.828
46.213	21.393	1059.261	853.201
47.228	21.340	1058.844	852.533
48.242	21.529	1058.209	852.867
49.257	21.604	1056.993	852.178
50.271	21.680	1056.062	851.722
51.286	21.818	1055.697	852.019
52.301	21.847	1054.753	851.324
53.315	21.820	1054.148	850.631
54.330	21.855	1052.990	849.791
55.344	21.839	1051.903	848.759
56.359	21.812	1051.316	848.079
57.374	21.787	1050.548	847.266
58.388	21.671	1049.551	845.825
59.403	21.615	1048.722	844.812
60.417	21.526	1048.054	843.771
61.432	21.389	1047.582	842.656
62.447	21.438	1046.737	842.138
63.461	21.591	1045.656	841.931
64.476	21.620	1044.873	841.362
65.490	21.691	1043.682	840.671
66.505	21.560	1042.679	839.162
67.520	21.589	1042.021	838.698
68.534	21.563	1041.568	838.133
69.549	21.388	1040.376	836.263
70.563	21.178	1039.182	834.225
71.578	21.051	1038.036	832.626
72.593	21.238	1037.245	832.809
73.607	21.010	1036.358	830.935
74.622	21.029	1035.157	829.990
75.636	21.171	1035.237	830.659
76.651	21.543	1034.236	831.546
77.666	21.300	1033.111	829.415
78.680	21.343	1031.956	828.618
79.695	21.200	1031.410	827.430
80.709	21.338	1030.643	827.395
81.724	21.305	1030.139	826.763
82.739	21.401	1029.026	826.248
83.753	21.460	1027.997	825.627
84.768	21.676	1027.481	826.162
85.782	21.937	1027.080	826.997
86.797	22.180	1026.524	827.618
87.812	22.034	1025.572	826.091
88.826	21.802	1024.394	823.976
89.841	21.888	1023.514	823.602
90.855	21.965	1022.922	823.414
91.870	21.933	1022.190	822.600
92.884	22.048	1021.045	822.143
93.899	21.887	1020.243	820.671
94.914	21.760	1019.205	819.174
95.928	21.874	1018.488	819.058
96.943	22.008	1017.477	818.794
97.957	21.702	1016.476	816.493
98.972	21.520	1015.305	814.634
99.987	21.330	1013.860	812.515
101.001	21.382	1013.520	812.413
102.016	21.676	1013.260	813.501
103.030	21.770	1012.276	813.072
104.045	21.760	1010.706	811.692
105.060	21.554	1009.739	809.893
106.074	21.456	1008.308	808.220
107.089	21.433	1007.988	807.785
108.103	21.723	1007.564	808.713
109.118	21.926	1006.445	808.682
110.133	21.631	1005.154	806.215
111.147	21.568	1004.350	805.209
112.162	21.424	1003.176	803.532
113.176	21.301	1001.768	801.768
114.191	21.349	1001.339	801.578
115.206	21.496	1000.608	801.593
116.220	21.224	999.199	799.151
117.235	21.117	997.886	797.538
118.249	21.240	997.766	797.934
119.264	21.115	997.001	796.683
120.279	21.109	995.768	795.598
121.293	21.107	994.872	794.801
122.308	21.217	994.505	794.941
123.322	21.329	993.091	794.250
124.337	21.348	992.253	793.594
125.352	21.116	991.092	791.542
126.366	20.832	989.048	788.557
127.381	20.482	987.763	785.879
128.395	21.055	987.788	788.420
129.410	21.510	987.840	790.445
130.424	21.764	987.214	791.020
131.439	21.708	985.450	789.289
132.454	21.665	984.933	788.609
133.468	21.686	983.802	787.727
134.483	21.644	983.027	786.850
135.497	21.699	982.032	786.231
136.512	21.908	981.323	786.531
137.527	21.971	981.041	786.516
138.541	21.916	979.782	785.191
139.556	21.861	979.339	784.523
140.570	21.898	978.418	783.881
141.585	22.039	977.075	783.361
142.600	21.937	976.708	782.544
143.614	21.935	975.482	781.484
144.629	22.030	974.841	781.324
145.643	22.113	974.796	781.591
146.658	22.201	973.028	780.492
147.673	21.997	971.932	778.639
148.687	21.739	970.871	776.578
149.702	21.785	969.618	775.713
150.716	21.760	968.696	774.794
151.731	21.747	967.390	773.622
152.746	21.604	967.054	772.656
153.760	21.859	966.548	773.305
154.775	22.093	965.697	773.587
155.789	22.074	965.237	773.067
156.804	22.069	964.103	772.070
157.819	22.031	962.975	770.929
158.833	22.048	962.223	770.333
159.848	22.067	961.775	769.990
160.862	22.079	961.047	769.392
161.877	22.003	960.084	768.223
162.892	21.989	958.746	767.022
163.906	22.205	957.694	767.057
164.921	22.060	957.000	765.801
165.935	22.030	955.742	764.596
166.950	21.932	954.921	763.443
167.964	22.023	953.866	762.930
168.979	22.028	952.692	761.944
169.994	21.961	951.579	760.697
171.008	21.699	950.635	758.740
172.023	21.922	950.006	759.135
173.037	22.233	949.061	759.657
174.052	21.901	948.190	757.458
175.067	21.811	946.923	755.993
176.081	21.818	946.374	755.516
177.096	21.764	945.418	754.454
178.110	21.851	944.809	754.276
179.125	21.602	943.786	752.323
180.140	21.539	942.195	750.717
181.154	21.418	941.412	749.507
182.169	21.490	941.361	749.710
183.183	21.860	940.646	750.657
184.198	22.052	940.351	751.178
185.213	22.050	939.568	750.475
186.227	21.971	938.970	749.596
187.242	21.874	938.954	749.102
188.256	22.069	938.202	749.267
189.271	22.089	936.815	748.181
190.286	22.091	936.304	747.713
191.300	22.002	935.436	746.574
192.315	21.390	934.627	743.263
193.329	20.617	933.314	738.872
194.344	20.278	931.734	736.116
195.359	20.970	931.896	739.112
196.373	21.800	932.373	742.944
197.388	22.144	931.700	743.799
198.402	21.941	931.260	742.526
199.417	21.795	930.443	741.190
200.432	22.039	929.669	741.538
201.446	21.930	929.235	740.666
202.461	21.412	928.946	738.185
203.475	21.635	927.705	738.074
204.490	21.254	926.024	735.065
205.504	19.980	924.625	728.533
206.519	20.433	924.184	730.029
207.534	21.400	925.027	734.695
208.548	21.552	924.365	734.742
209.563	21.778	924.017	735.348
210.577	22.014	922.771	735.281
211.592	21.739	922.199	733.609
212.607	22.112	921.926	734.884
213.621	22.159	922.009	735.083
214.636	22.018	921.053	733.670
215.650	22.165	919.971	733.353
216.665	22.047	919.747	732.617
217.680	22.075	919.288	732.307
218.694	22.247	918.215	732.103
219.709	21.879	917.693	730.089
220.723	21.493	916.918	727.802
221.738	21.750	916.106	728.163
222.753	21.893	915.591	728.280
223.767	21.947	914.693	727.726
224.782	21.945	914.134	727.208
225.796	22.106	913.805	727.551
226.811	22.303	913.248	727.858
227.826	21.832	911.503	724.459
228.840	21.040	910.219	720.106
229.855	20.973	909.474	719.175
230.869	21.209	909.323	719.963
231.884	20.759	908.568	717.449
232.899	20.968	907.909	717.728
233.913	21.752	907.985	720.950
234.928	21.850	907.622	720.999
235.942	21.865	907.225	720.681
236.957	21.737	906.280	719.342
237.972	21.613	905.140	717.863
238.986	21.539	904.539	717.023
240.001	21.623	904.050	716.914
241.015	21.536	903.484	716.048
242.030	21.753	902.597	716.166
243.045	21.867	901.861	715.987
244.059	21.933	901.402	715.826
245.074	21.988	901.071	715.727
246.088	21.993	900.312	715.078
247.103	21.596	899.229	712.539
248.117	21.750	898.685	712.671
249.132	22.237	898.724	714.621
250.147	22.444	898.487	715.208
251.161	22.619	897.982	715.452
252.176	22.816	897.543	715.842
253.190	22.806	896.805	715.148
254.205	22.692	896.248	714.178
255.220	22.939	895.808	714.763
256.234	22.917	895.341	714.241
257.249	22.909	894.543	713.506
258.263	22.611	893.844	711.682
259.278	22.764	892.877	711.466
260.293	22.725	892.746	711.144
261.307	22.918	892.131	711.368
262.322	22.858	891.416	710.494
263.336	22.826	890.568	709.626
264.351	22.182	889.456	706.091
265.366	21.048	887.473	699.906
266.380	20.657	886.140	697.226
267.395	21.448	886.509	700.627
268.409	22.302	886.823	704.230
269.424	22.360	886.283	703.974
270.439	22.539	885.829	704.265
271.453	22.532	885.453	703.876
272.468	22.596	885.135	703.817
273.482	22.614	884.236	703.110
274.497	22.937	883.545	703.787
275.512	22.757	882.651	702.296
276.526	22.136	881.191	698.604
277.541	22.281	880.988	698.959
278.555	22.689	880.837	700.397
279.570	22.576	880.038	699.249
280.585	22.254	879.573	697.542
281.599	22.466	878.554	697.511
282.614	22.636	877.908	697.611
283.628	22.163	877.051	694.998
284.643	21.686	876.599	692.694
285.657	22.025	876.505	693.898
286.672	22.021	875.264	692.837
287.687	21.661	874.184	690.504
288.701	21.902	874.113	691.337
289.716	22.381	873.973	693.048
290.730	21.945	872.994	690.496
291.745	21.775	872.388	689.286
292.760	21.691	871.444	688.153
293.774	21.464	871.210	687.013
294.789	22.567	871.497	691.511
295.803	23.174	871.209	693.599
296.818	22.995	871.027	692.692
297.833	23.262	870.824	693.515
298.847	23.044	869.197	691.304
299.862	22.797	868.069	689.383
300.876	22.859	867.600	689.192
301.891	23.015	868.021	690.075
302.906	23.266	866.779	690.006
303.920	22.672	865.891	686.924
304.935	22.784	865.104	686.672
305.949	23.006	865.021	687.409
306.964	23.024	864.609	687.094
307.979	22.939	863.777	686.040
308.993	22.884	863.356	685.432
310.008	23.199	862.917	686.244
311.022	23.384	862.082	686.235
312.037	23.054	861.666	684.569
313.052	22.821	861.023	683.094
314.066	22.751	860.204	682.112
315.081	22.143	858.610	678.442
316.095	21.547	857.356	675.092
317.110	21.952	857.807	676.953
318.125	22.844	858.026	680.503
319.139	22.444	856.814	677.945
320.154	21.330	855.312	672.410
321.168	20.838	854.248	669.625
322.183	21.552	854.636	672.613
323.197	22.335	854.755	675.656
324.212	22.670	854.339	676.554
325.227	22.827	853.981	676.811
326.241	23.004	853.518	677.063
327.256	22.749	852.732	675.403
328.270	22.620	852.826	674.924
329.285	22.610	851.924	674.113
330.300	22.505	851.141	673.031
331.314	22.365	849.951	671.497
332.329	22.479	849.260	671.328
333.343	22.850	849.191	672.624
334.358	22.978	848.942	672.858
335.373	22.933	848.384	672.183
336.387	23.082	848.056	672.430
337.402	23.145	847.437	672.121
338.416	23.489	846.915	672.953
339.431	23.423	846.251	672.115
340.446	23.475	845.841	671.927
341.460	23.613	845.369	672.016
342.475	23.677	844.559	671.552
343.489	23.371	843.900	669.812
344.504	23.270	843.398	668.973
345.519	23.627	843.259	670.151
346.533	23.845	842.785	670.537
347.548	23.824	842.022	669.793
348.562	24.011	841.698	670.181
349.577	23.765	841.549	669.078
350.592	23.842	840.682	668.616
351.606	23.777	840.124	667.870
352.621	23.724	840.042	667.546
353.635	23.600	839.257	666.400
354.650	23.572	838.822	665.889
355.665	23.289	837.872	664.016
356.679	22.253	835.950	658.555
357.694	22.148	835.498	657.747
358.708	22.825	835.543	660.258
359.723	22.602	834.790	658.770
360.738	22.939	834.883	660.046
361.752	23.335	834.864	661.450
362.767	23.462	834.121	661.277
363.781	23.701	833.886	661.923
364.796	24.041	833.631	662.930
365.810	24.060	833.393	662.752
366.825	24.016	833.163	662.347
367.840	24.179	832.487	662.359
368.854	24.019	832.063	661.366
369.869	23.637	830.997	659.041
370.883	23.545	830.406	658.173
371.898	23.552	829.596	657.499
372.913	23.419	828.903	656.402
373.927	23.464	828.308	656.039
374.942	23.656	827.794	656.284
375.956	23.686	827.372	656.000
376.971	23.761	827.033	655.949
377.986	23.870	826.603	655.954
379.000	24.122	825.925	656.286
380.015	24.067	825.711	655.856
381.029	23.885	824.847	654.441
382.044	23.906	823.993	653.782
383.059	23.993	823.750	653.852
384.073	24.098	823.234	653.773
385.088	24.111	822.701	653.338
386.102	24.085	821.857	652.516
387.117	23.970	821.372	651.652
388.132	23.783	821.104	650.694
389.146	23.734	819.825	649.446
390.161	23.065	819.125	646.389
391.175	23.173	818.883	646.534
392.190	23.634	819.153	648.375
393.205	23.755	818.558	648.287
394.219	22.775	816.660	643.158
395.234	21.269	814.330	635.790
396.248	20.515	813.442	632.296
397.263	21.560	814.637	636.977
398.278	23.302	815.958	644.297
399.292	23.871	815.335	645.813
400.307	23.428	815.064	643.934
401.321	23.505	814.344	643.586
402.336	23.667	814.058	643.890
403.350	23.842	813.857	644.310
404.365	24.085	813.997	645.246
405.380	24.484	813.500	646.239
406.394	24.704	813.260	646.786
407.409	24.890	812.910	647.124
408.423	24.806	812.727	646.616
409.438	24.605	811.731	645.040
410.453	24.730	811.529	645.277
411.467	24.798	811.004	645.044
412.482	24.708	810.650	644.381
413.496	24.852	809.828	644.192
414.511	24.748	809.638	643.607
415.526	24.695	809.397	643.170
416.540	24.688	808.882	642.676
417.555	24.723	808.297	642.281
418.569	24.425	807.721	640.699
419.584	24.327	806.943	639.672
420.599	24.507	806.430	639.854
421.613	153.826	1365.012	1794.289
422.628	133.608	1446.396	1794.392
