DTS Sentinel unit serial number:	SN413079Multiplexer serial number:	ORYXHardware model number:	OX4-SRSoftware version number:	ORYX F/W v4.00 Oryx Data Collector v3.7.2.0data status	okinstallation	princeton_trtdifferential loss correction	single-endedforward channel	channel 3reverse channel	N/Adate	2019/09/11time	23:26:11forward acquisition time	60.00reverse acquisition time	0.00gamma	496.2192k internal	0.2317k external	0.2317temperature offset calibration	1.0055default loss term (dB/km)	0.3790temperature slope calibration	1.0000multiplexer offset coefficient	1.0000multiplexer slope coefficient	1.0000fibre end	0.00T internal ref (°C)	34.28T ext. ref 1 (°C)	1.88T ext. ref 2 (°C)	28.76length (m)	temperature (°C)	Stokes	anti-Stokes-747.200	-200.000	0.053	0.426
-746.185	182.461	-0.230	0.343
-745.171	-200.000	-0.027	-0.637
-744.156	-84.128	-0.256	0.082
-743.142	-200.000	0.035	0.232
-742.127	-9.166	-0.146	0.099
-741.112	752.126	0.057	0.155
-740.098	-135.919	-0.084	0.010
-739.083	38.203	0.226	-0.204
-738.069	368.434	0.163	0.334
-737.054	42.436	0.241	0.222
-736.039	-70.739	-0.333	0.127
-735.025	33.520	0.231	-0.203
-734.010	173.183	-0.149	-0.218
-732.996	-145.650	0.188	-0.017
-731.981	-20.285	-0.177	0.111
-730.966	478.495	-0.162	0.371
-729.952	-61.549	0.199	-0.085
-728.937	-67.931	-0.217	0.086
-727.923	-101.738	0.332	0.081
-726.908	561.742	-0.095	-0.232
-725.894	800.000	-0.094	-0.270
-724.879	25.273	-0.282	-0.237
-723.864	719.218	-0.172	0.463
-722.850	29.137	-0.031	0.026
-721.835	-55.801	0.223	-0.101
-720.821	-2.468	0.080	0.057
-719.806	-148.901	-0.298	0.024
-718.791	110.289	0.122	0.148
-717.777	21.127	-0.154	-0.127
-716.762	-154.439	-0.345	-0.023
-715.748	59.612	-0.226	0.226
-714.733	-200.000	0.032	-0.281
-713.718	14.145	0.134	-0.106
-712.704	80.728	0.205	0.224
-711.689	195.211	-0.224	-0.344
-710.675	155.884	0.102	-0.142
-709.660	-200.000	-0.038	0.250
-708.645	35.260	0.361	0.320
-707.631	3.505	-0.302	-0.223
-706.616	800.000	-0.029	-0.090
-705.602	173.763	-0.165	0.241
-704.587	77.135	0.106	0.114
-703.572	8.115	-0.038	0.029
-702.558	-200.000	0.031	0.263
-701.543	-106.425	-0.305	-0.069
-700.529	-93.371	0.097	0.027
-699.514	215.958	0.314	-0.504
-698.499	67.421	-0.032	0.033
-697.485	768.034	0.061	0.167
-696.470	5.588	0.139	-0.103
-695.456	-200.000	0.006	-0.121
-694.441	589.629	0.048	-0.119
-693.426	88.733	-0.021	-0.024
-692.412	321.636	0.083	0.159
-691.397	-200.000	-0.011	-0.117
-690.383	-106.596	-0.413	-0.093
-689.368	-200.000	0.012	0.294
-688.354	306.782	-0.067	-0.126
-687.339	51.975	0.181	-0.174
-686.324	-184.533	0.112	0.002
-685.310	800.000	-0.033	0.112
-684.295	26.084	0.058	0.049
-683.281	-143.146	-0.061	-0.006
-682.266	-76.151	-0.143	-0.051
-681.251	-200.000	0.000	-0.033
-680.237	-54.511	-0.153	0.070
-679.222	-65.215	0.323	-0.131
-678.208	-106.124	-0.323	-0.073
-677.193	-154.252	-0.129	0.009
-676.178	-14.669	-0.190	-0.123
-675.164	205.523	0.218	-0.343
-674.149	800.000	0.034	0.109
-673.135	800.000	0.021	-0.070
-672.120	544.660	0.068	0.164
-671.105	-157.470	-0.354	-0.021
-670.091	59.872	-0.156	0.155
-669.076	65.639	0.124	-0.126
-668.062	55.534	-0.105	-0.103
-667.047	-200.000	0.023	0.124
-666.032	231.117	0.067	-0.110
-665.018	-163.819	0.420	-0.020
-664.003	-200.000	-0.016	0.216
-662.989	-200.000	0.050	-0.289
-661.974	65.813	0.278	0.284
-660.959	15.890	-0.183	-0.145
-659.945	552.597	-0.034	-0.083
-658.930	-92.450	0.361	0.103
-657.916	-200.000	-0.001	0.262
-656.901	-28.007	0.284	-0.166
-655.886	-44.851	0.069	-0.035
-654.872	176.420	0.077	0.113
-653.857	1.128	-0.091	-0.066
-652.843	116.028	-0.026	-0.032
-651.828	-200.000	-0.059	0.279
-650.814	800.000	-0.028	-0.094
-649.799	-70.340	0.137	-0.052
-648.784	-150.373	-0.291	0.023
-647.770	-77.714	0.100	-0.035
-646.755	428.302	0.087	0.191
-645.741	109.887	-0.237	-0.287
-644.726	41.740	0.082	0.075
-643.711	-21.632	0.163	0.100
-642.697	-38.550	-0.066	-0.035
-641.682	800.000	0.027	0.085
-640.668	-16.408	0.096	-0.062
-639.653	-21.134	-0.228	0.141
-638.638	800.000	0.052	0.222
-637.624	-7.427	0.161	-0.110
-636.609	270.886	-0.122	0.217
-635.595	-102.878	0.164	0.039
-634.580	-44.866	0.131	-0.066
-633.565	150.776	-0.085	0.117
-632.551	-69.062	0.235	-0.091
-631.536	800.000	-0.039	-0.127
-630.522	-55.303	-0.378	-0.171
-629.507	-116.955	0.110	0.020
-628.492	-200.000	0.013	0.224
-627.478	105.936	0.067	0.080
-626.463	-20.954	-0.403	-0.249
-625.449	-200.000	0.016	0.368
-624.434	-94.999	0.378	-0.103
-623.419	469.011	0.171	0.387
-622.405	-162.941	-0.184	-0.009
-621.390	800.000	0.098	-0.286
-620.376	78.279	-0.087	-0.094
-619.361	237.083	0.225	0.375
-618.346	264.529	0.096	-0.168
-617.332	800.000	0.042	0.169
-616.317	-200.000	-0.010	0.143
-615.303	-200.000	0.020	0.114
-614.288	-142.990	0.277	0.027
-613.273	-200.000	-0.001	-0.284
-612.259	-95.309	0.278	-0.075
-611.244	800.000	-0.105	-0.312
-610.230	-200.000	0.140	0.000
-609.215	1.744	0.333	-0.242
-608.201	530.426	-0.089	-0.212
-607.186	107.792	-0.045	0.054
-606.171	-84.210	0.413	-0.132
-605.157	-80.084	-0.236	0.080
-604.142	-22.140	-0.100	0.061
-603.128	235.679	-0.147	-0.244
-602.113	166.334	0.089	-0.127
-601.098	225.325	-0.031	0.051
-600.084	112.915	-0.074	0.091
-599.069	-29.421	0.250	0.144
-598.055	72.045	0.172	0.180
-597.040	153.873	-0.072	0.099
-596.025	86.411	0.135	-0.150
-595.011	-121.013	0.323	0.055
-593.996	-200.000	-0.008	-0.045
-592.982	-69.886	-0.288	-0.111
-591.967	-65.967	0.168	-0.067
-590.952	-96.426	0.123	0.033
-589.938	365.794	0.077	-0.157
-588.923	-200.000	-0.012	-0.286
-587.909	-133.400	0.299	0.038
-586.894	-55.672	-0.043	0.019
-585.879	270.373	0.122	0.216
-584.865	-200.000	-0.024	0.121
-583.850	269.872	-0.126	0.223
-582.836	-77.658	-0.166	-0.058
-581.821	601.431	-0.106	0.266
-580.806	83.938	-0.083	-0.091
-579.792	-65.173	0.233	-0.094
-578.777	311.381	0.201	0.379
-577.763	7.039	-0.106	0.080
-576.748	-111.975	-0.361	0.073
-575.733	-60.031	-0.178	-0.077
-574.719	-200.000	0.024	0.208
-573.704	-200.000	-0.006	-0.120
-572.690	27.442	0.087	0.074
-571.675	388.236	-0.100	-0.208
-570.661	268.682	0.132	0.234
-569.646	101.972	0.266	-0.312
-568.631	-121.664	-0.363	0.060
-567.617	-94.660	-0.226	-0.062
-566.602	-40.308	-0.266	-0.139
-565.588	67.683	-0.207	0.213
-564.573	800.000	-0.064	0.237
-563.558	657.961	-0.097	-0.250
-562.544	-88.903	0.337	0.100
-561.529	100.359	-0.089	-0.103
-560.515	74.044	-0.208	-0.219
-559.500	-200.000	0.054	-0.404
-558.485	-66.275	-0.219	0.088
-557.471	-15.052	-0.153	0.099
-556.456	76.840	0.158	-0.169
-555.442	4.503	-0.219	0.162
-554.427	-126.175	-0.281	-0.042
-553.412	348.858	-0.204	-0.405
-552.398	800.000	0.074	-0.214
-551.383	800.000	0.010	0.044
-550.369	-200.000	-0.004	0.306
-549.354	570.477	-0.060	0.147
-548.339	74.339	0.013	0.014
-547.325	-200.000	0.011	0.095
-546.310	-87.482	0.160	-0.049
-545.296	-75.904	0.369	0.131
-544.281	1.102	0.167	0.121
-543.266	-16.309	-0.051	-0.032
-542.252	-200.000	-0.020	0.260
-541.237	689.143	0.037	-0.097
-540.223	-200.000	0.004	-0.087
-539.208	-90.586	-0.191	0.055
-538.193	191.449	-0.106	0.161
-537.179	69.661	0.197	0.204
-536.164	454.814	-0.155	-0.344
-535.150	-56.092	-0.167	-0.075
-534.135	169.324	-0.112	0.160
-533.121	-32.939	0.200	0.112
-532.106	-70.625	0.336	-0.127
-531.091	-117.310	-0.171	-0.031
-530.077	18.810	0.284	-0.228
-529.062	800.000	-0.084	-0.325
-528.048	-46.856	0.100	-0.049
-527.033	-200.000	0.048	-0.238
-526.018	-121.146	0.348	-0.059
-525.004	-18.095	-0.075	-0.047
-523.989	-72.162	-0.015	-0.006
-522.975	-2.639	0.098	-0.069
-521.960	503.978	-0.053	-0.123
-520.945	-9.810	0.159	0.106
-519.931	-111.914	-0.129	-0.026
-518.916	-200.000	0.011	-0.319
-517.902	800.000	0.107	-0.339
-516.887	-49.640	-0.094	0.045
-515.872	33.844	0.015	0.013
-514.858	800.000	-0.059	-0.178
-513.843	-106.867	-0.110	-0.025
-512.829	-63.182	-0.130	0.054
-511.814	113.097	0.151	-0.184
-510.799	-200.000	0.003	0.083
-509.785	185.268	-0.179	0.267
-508.770	-24.604	0.094	0.056
-507.756	66.499	-0.097	-0.099
-506.741	-84.798	-0.171	0.054
-505.726	-21.187	-0.247	0.152
-504.712	-200.000	0.000	-0.404
-503.697	32.754	-0.143	-0.124
-502.683	-15.548	-0.176	0.113
-501.668	-7.709	0.208	0.141
-500.653	-200.000	-0.012	0.124
-499.639	-200.000	-0.005	0.119
-498.624	-200.000	-0.032	0.156
-497.610	-200.000	0.078	0.472
-496.595	-100.178	-0.058	0.014
-495.581	-200.000	0.022	0.181
-494.566	205.939	-0.043	-0.067
-493.551	-58.524	0.467	-0.203
-492.537	168.495	-0.016	0.023
-491.522	33.643	0.067	0.058
-490.508	73.648	-0.316	0.332
-489.493	-200.000	-0.035	0.155
-488.478	-200.000	0.030	-0.213
-487.464	171.919	0.026	-0.037
-486.449	-200.000	-0.027	0.443
-485.435	-42.994	-0.284	-0.144
-484.420	115.179	0.276	-0.338
-483.405	-200.000	0.046	-0.391
-482.391	139.461	0.024	-0.031
-481.376	800.000	0.033	0.136
-480.362	-27.967	0.121	-0.070
-479.347	116.438	-0.300	-0.368
-478.332	-71.004	-0.188	0.071
-477.318	425.551	-0.187	0.403
-476.303	-168.542	-0.251	-0.010
-475.289	678.043	-0.015	-0.038
-474.274	35.020	-0.186	0.163
-473.259	789.810	-0.007	-0.020
-472.245	656.106	0.121	0.311
-471.230	-117.969	-0.053	-0.009
-470.216	-78.574	0.139	-0.048
-469.201	-99.547	-0.268	-0.067
-468.186	-16.495	0.216	-0.137
-467.172	-0.964	-0.141	-0.100
-466.157	221.657	0.075	-0.120
-465.143	-22.628	-0.333	0.201
-464.128	-70.350	0.266	-0.101
-463.113	261.099	0.194	-0.337
-462.099	800.000	-0.071	0.248
-461.084	-23.786	-0.291	-0.174
-460.070	800.000	-0.121	0.350
-459.055	85.254	-0.156	-0.172
-458.040	1.755	0.211	-0.152
-457.026	32.187	-0.298	-0.258
-456.011	-36.975	0.218	0.117
-454.997	-53.821	0.238	-0.109
-453.982	27.058	0.078	0.065
-452.968	286.673	-0.242	-0.437
-451.953	800.000	-0.071	-0.211
-450.938	297.474	-0.165	0.303
-449.924	-114.820	-0.071	0.014
-448.909	-154.703	0.416	-0.028
-447.895	-90.019	-0.031	-0.009
-446.880	800.000	-0.034	0.108
-445.865	72.145	-0.171	0.178
-444.851	667.488	0.128	0.332
-443.836	-152.501	0.172	0.012
-442.822	13.676	0.164	0.127
-441.807	-97.906	-0.103	0.027
-440.792	154.661	0.183	0.252
-439.778	-113.294	-0.157	0.031
-438.763	29.202	0.118	0.100
-437.749	379.338	0.030	-0.060
-436.734	93.811	0.133	-0.151
-435.719	-15.051	0.082	-0.053
-434.705	30.957	-0.137	0.118
-433.690	-200.000	-0.011	0.198
-432.676	525.479	0.055	0.130
-431.661	782.961	0.109	0.297
-430.646	800.000	0.038	0.144
-429.632	-200.000	0.040	-0.279
-428.617	442.126	-0.081	0.177
-427.603	-90.290	-0.284	-0.082
-426.588	-129.006	-0.277	-0.039
-425.573	-25.309	0.398	0.236
-424.559	-17.630	0.231	-0.145
-423.544	25.268	-0.222	-0.184
-422.530	-158.923	-0.069	-0.004
-421.515	264.326	-0.088	-0.153
-420.500	-144.076	-0.414	0.039
-419.486	382.079	-0.129	0.266
-418.471	-159.298	-0.263	-0.015
-417.457	-200.000	0.017	-0.203
-416.442	800.000	-0.074	-0.250
-415.428	-159.192	-0.443	0.025
-414.413	426.523	-0.103	0.221
-413.398	69.520	0.422	0.435
-412.384	139.382	0.114	-0.150
-411.369	-200.000	-0.035	0.278
-410.355	800.000	-0.055	-0.162
-409.340	-55.755	0.422	0.189
-408.325	1.142	0.093	0.067
-407.311	800.000	0.047	0.156
-406.296	-3.146	0.197	-0.137
-405.282	800.000	-0.038	-0.143
-404.267	-200.000	-0.034	-0.180
-403.252	-27.919	-0.197	0.114
-402.238	277.450	-0.145	-0.258
-401.223	116.445	-0.085	0.104
-400.209	161.814	0.205	-0.287
-399.194	-122.134	-0.065	-0.011
-398.179	-200.000	-0.020	-0.277
-397.165	-60.213	-0.198	-0.084
-396.150	-48.371	0.068	-0.033
-395.136	184.878	-0.042	-0.062
-394.121	-24.657	-0.045	-0.026
-393.106	244.770	0.145	-0.243
-392.092	-130.430	-0.212	-0.029
-391.077	-147.736	-0.159	-0.013
-390.063	683.933	-0.055	-0.143
-389.048	45.046	-0.132	-0.121
-388.033	683.039	0.040	-0.105
-387.019	-200.000	0.000	-0.009
-386.004	-21.575	-0.273	-0.166
-384.990	96.069	-0.034	-0.039
-383.975	-27.081	-0.124	0.072
-382.960	12.819	-0.124	-0.096
-381.946	-200.000	0.022	-0.187
-380.931	-21.757	-0.368	0.223
-379.917	800.000	0.063	0.272
-378.902	86.877	-0.367	-0.404
-377.888	71.716	0.176	-0.182
-376.873	-97.273	0.266	-0.069
-375.858	429.507	-0.055	0.118
-374.844	10.874	0.319	-0.243
-373.829	-133.475	0.166	-0.021
-372.815	114.592	-0.233	-0.283
-371.800	800.000	-0.057	0.212
-370.785	-200.000	0.004	0.022
-369.771	800.000	0.071	-0.209
-368.756	123.341	0.232	-0.291
-367.742	-123.903	0.202	-0.032
-366.727	69.246	-0.219	-0.225
-365.712	581.609	-0.100	-0.246
-364.698	-63.691	0.130	0.053
-363.683	-174.757	-0.124	-0.003
-362.669	656.391	0.068	-0.174
-361.654	-100.115	0.176	0.044
-360.639	17.534	0.182	-0.144
-359.625	-200.000	-0.048	-0.385
-358.610	7.949	-0.021	-0.016
-357.596	-115.763	-0.100	-0.019
-356.581	80.752	-0.217	0.234
-355.566	-72.687	0.223	0.082
-354.552	0.195	-0.147	0.105
-353.537	-99.590	-0.408	0.102
-352.523	146.950	-0.240	0.322
-351.508	281.524	0.177	-0.316
-350.493	-129.737	0.194	-0.027
-349.479	-200.000	0.023	0.188
-348.464	-200.000	-0.016	0.185
-347.450	93.387	0.152	-0.171
-346.435	233.096	-0.185	0.303
-345.420	21.371	-0.057	-0.046
-344.406	183.371	-0.141	0.208
-343.391	-200.000	-0.009	0.104
-342.377	-120.408	-0.294	-0.050
-341.362	-200.000	0.008	0.046
-340.348	-133.036	-0.224	0.028
-339.333	203.434	-0.109	-0.168
-338.318	22.728	0.397	-0.324
-337.304	-200.000	-0.003	-0.223
-336.289	-152.554	0.173	0.012
-335.275	-109.367	0.198	0.042
-334.260	-78.694	0.244	-0.083
-333.245	771.118	0.118	-0.319
-332.231	-58.003	0.416	-0.181
-331.216	266.652	0.263	0.458
-330.202	282.454	0.230	0.410
-329.187	249.787	-0.099	-0.167
-328.172	800.000	0.052	0.161
-327.158	-200.000	0.022	0.140
-326.143	-8.192	0.074	-0.050
-325.129	282.175	-0.041	-0.074
-324.114	-112.709	0.292	0.058
-323.099	-114.183	-0.073	0.014
-322.085	75.359	0.097	0.102
-321.070	-200.000	0.004	0.022
-320.056	193.182	0.126	-0.190
-319.041	270.741	-0.150	-0.263
-318.026	-14.177	-0.308	-0.198
-317.012	-136.407	0.200	0.023
-315.997	209.537	-0.137	-0.215
-314.983	800.000	-0.065	0.191
-313.968	292.126	-0.041	-0.074
-312.953	-69.706	-0.211	0.080
-311.939	100.072	0.131	0.151
-310.924	-76.449	0.241	-0.084
-309.910	329.866	-0.073	-0.139
-308.895	800.000	0.093	0.297
-307.880	8.558	-0.247	0.185
-306.866	-44.573	0.362	-0.180
-305.851	-68.148	-0.233	0.090
-304.837	199.925	-0.099	0.151
-303.822	-22.337	-0.259	0.156
-302.807	67.660	-0.131	0.133
-301.793	-87.028	-0.137	-0.042
-300.778	800.000	0.109	0.401
-299.764	208.441	-0.048	0.075
-298.749	6.423	-0.173	-0.128
-297.735	70.730	0.207	-0.214
-296.720	-112.578	0.163	0.032
-295.705	-156.664	-0.085	0.005
-294.691	-200.000	0.014	-0.157
-293.676	-200.000	0.010	0.085
-292.662	-200.000	0.023	0.208
-291.647	-100.647	-0.280	0.069
-290.632	99.227	-0.317	-0.364
-289.618	-200.000	-0.023	0.143
-288.603	-70.713	-0.130	0.049
-287.589	-106.137	0.098	0.022
-286.574	224.674	-0.086	0.138
-285.559	-63.457	0.213	0.087
-284.545	24.783	-0.255	0.210
-283.530	-98.043	0.073	0.019
-282.516	-166.714	0.413	-0.017
-281.501	221.856	-0.155	0.248
-280.486	23.281	-0.159	0.130
-279.472	-99.575	-0.159	0.040
-278.457	332.002	-0.093	0.178
-277.443	-171.470	0.333	0.011
-276.428	27.132	0.166	-0.139
-275.413	172.863	-0.011	0.016
-274.399	71.206	0.078	-0.080
-273.384	55.433	0.063	-0.061
-272.370	584.942	-0.070	0.172
-271.355	-121.414	-0.160	-0.027
-270.340	76.438	0.128	0.135
-269.326	-55.466	0.104	-0.047
-268.311	338.920	0.093	0.180
-267.297	-127.645	-0.260	0.037
-266.282	22.654	0.157	0.127
-265.267	-61.877	-0.292	0.121
-264.253	-77.098	-0.144	-0.050
-263.238	129.046	-0.083	-0.105
-262.224	11.620	0.171	-0.130
-261.209	-149.020	-0.257	0.021
-260.195	118.449	0.080	-0.098
-259.180	-21.024	0.328	-0.199
-258.165	-179.485	0.188	-0.004
-257.151	367.555	0.134	-0.270
-256.136	-40.715	0.108	0.056
-255.122	29.960	0.205	-0.174
-254.107	800.000	0.015	0.042
-253.092	54.438	-0.121	-0.116
-252.078	-6.796	0.392	0.264
-251.063	105.889	0.168	0.197
-250.049	-200.000	0.077	-0.350
-249.034	91.490	-0.184	-0.205
-248.019	125.513	0.066	0.082
-247.005	303.459	-0.051	-0.094
-245.990	267.675	0.070	-0.121
-244.976	-113.398	0.122	-0.024
-243.961	222.656	-0.104	-0.167
-242.946	92.871	0.242	0.272
-241.932	-113.388	-0.300	-0.059
-240.917	-200.000	0.025	-0.256
-239.903	14.545	-0.100	0.077
-238.888	-200.000	0.035	0.216
-237.873	8.135	0.120	0.090
-236.859	153.893	0.054	0.073
-235.844	-197.413	-0.248	0.002
-234.830	-65.268	0.144	0.058
-233.815	-158.805	0.195	-0.011
-232.800	-90.936	-0.225	-0.064
-231.786	-200.000	0.007	0.160
-230.771	0.700	-0.078	0.056
-229.757	-134.821	-0.129	0.015
-228.742	32.239	-0.076	0.065
-227.727	-47.670	0.253	0.122
-226.713	-200.000	-0.028	-0.242
-225.698	368.225	-0.111	0.224
-224.684	-78.579	0.224	-0.076
-223.669	-177.149	0.447	-0.011
-222.655	-141.015	0.223	-0.023
-221.640	18.879	0.170	0.135
-220.625	800.000	-0.083	0.326
-219.611	758.965	-0.046	0.123
-218.596	-12.281	0.072	0.046
-217.582	-143.612	0.484	-0.046
-216.567	586.237	-0.108	-0.262
-215.552	-200.000	0.008	0.057
-214.538	675.392	0.087	0.225
-213.523	4.919	0.180	-0.131
-212.509	-200.000	0.019	0.130
-211.494	-110.437	0.216	0.045
-210.479	-81.500	0.265	0.086
-209.465	-200.000	-0.006	-0.077
-208.450	-21.758	0.038	0.023
-207.436	261.688	0.165	-0.284
-206.421	800.000	-0.027	-0.095
-205.406	800.000	0.095	-0.274
-204.392	-45.922	-0.319	-0.156
-203.377	10.044	-0.139	0.105
-202.363	3.532	0.114	-0.082
-201.348	800.000	0.141	0.396
-200.333	221.883	0.147	-0.235
-199.319	-200.000	-0.033	-0.316
-198.304	-133.818	0.230	0.028
-197.290	-33.638	-0.199	0.109
-196.275	-17.967	0.418	-0.260
-195.260	-144.098	-0.242	-0.022
-194.246	-200.000	0.004	-0.282
-193.231	180.868	-0.146	-0.213
-192.217	-72.997	0.288	0.105
-191.202	200.055	-0.071	-0.107
-190.187	-19.516	0.118	-0.073
-189.173	-200.000	-0.017	-0.123
-188.158	-200.000	-0.039	0.175
-187.144	214.571	-0.021	0.033
-186.129	220.093	-0.164	0.261
-185.114	800.000	-0.036	0.121
-184.100	-200.000	-0.016	-0.169
-183.085	97.341	-0.126	-0.144
-182.071	-7.393	-0.194	-0.130
-181.056	-200.000	0.008	-0.038
-180.042	800.000	-0.068	-0.265
-179.027	-77.790	0.186	-0.064
-178.012	-200.000	-0.016	0.290
-176.998	-79.973	-0.416	-0.138
-175.983	39.671	0.094	-0.084
-174.969	800.000	-0.099	0.281
-173.954	-200.000	0.005	0.249
-172.939	44.980	0.288	0.262
-171.925	464.342	-0.074	0.165
-170.910	368.717	-0.194	0.389
-169.896	65.246	-0.480	0.480
-168.881	221.524	-0.238	0.379
-167.866	554.925	0.094	-0.224
-166.852	-9.768	-0.126	0.083
-165.837	55.309	0.100	0.096
-164.823	-72.816	-0.240	0.088
-163.808	-200.000	0.000	0.185
-162.793	728.208	-0.151	-0.400
-161.779	-200.000	0.006	0.179
-160.764	-95.903	-0.257	-0.068
-159.750	-200.000	0.028	0.402
-158.735	331.437	-0.129	0.246
-157.720	311.162	0.056	-0.105
-156.706	200.517	0.070	0.107
-155.691	-139.868	-0.056	0.006
-154.677	-97.718	-0.125	0.032
-153.662	125.715	-0.143	-0.178
-152.647	-29.033	0.287	-0.163
-151.633	-157.622	0.135	-0.008
-150.618	-105.891	-0.115	-0.026
-149.604	-186.027	-0.221	-0.003
-148.589	38.891	-0.210	-0.186
-147.574	125.068	0.109	-0.136
-146.560	71.148	-0.150	0.153
-145.545	800.000	-0.053	0.171
-144.531	-99.070	-0.120	-0.030
-143.516	-200.000	-0.016	-0.139
-142.502	-82.340	0.420	0.135
-141.487	169.773	0.090	0.127
-140.472	-200.000	0.012	0.065
-139.458	-127.682	-0.152	0.022
-138.443	-200.000	-0.007	-0.208
-137.429	244.213	-0.116	-0.192
-136.414	-200.000	0.002	0.499
-135.399	-118.932	-0.225	-0.039
-134.385	-66.751	0.246	-0.096
-133.370	-200.000	-0.042	-0.190
-132.356	-200.000	-0.021	0.292
-131.341	-37.449	-0.297	0.157
-130.326	38.153	-0.060	-0.053
-129.312	800.000	0.058	-0.183
-128.297	-9.130	-0.293	-0.194
-127.283	-14.220	-0.196	0.125
-126.268	-195.981	-0.263	0.002
-125.253	-64.647	0.089	0.036
-124.239	-26.932	0.170	0.098
-123.224	-22.750	0.069	-0.041
-122.210	67.841	0.304	-0.307
-121.195	184.644	-0.156	0.228
-120.180	148.081	-0.191	0.254
-119.166	-131.749	0.407	0.053
-118.151	-154.602	-0.393	0.026
-117.137	342.297	0.059	0.114
-116.122	60.941	0.187	0.183
-115.107	136.493	-0.113	0.146
-114.093	40.886	0.106	-0.095
-113.078	800.000	0.010	0.041
-112.064	-200.000	-0.015	-0.115
-111.049	800.000	-0.108	0.342
-110.034	-81.200	0.039	-0.013
-109.020	27.522	-0.213	-0.177
-108.005	6.037	-0.090	-0.066
-106.991	-42.234	0.120	-0.061
-105.976	-82.726	-0.145	0.046
-104.962	45.282	0.244	0.222
-103.947	-106.806	0.212	-0.047
-102.932	-200.000	0.033	0.262
-101.918	286.731	-0.134	0.239
-100.903	584.051	-0.090	-0.217
-99.889	-200.000	0.032	0.284
-98.874	-89.861	0.169	-0.049
-97.859	-200.000	0.053	-0.387
-96.845	-101.507	-0.298	-0.072
-95.830	345.376	-0.109	-0.211
-94.816	42.307	-0.155	-0.139
-93.801	-200.000	0.081	0.365
-92.786	-16.143	-0.116	0.073
-91.772	-200.000	-0.082	0.427
-90.757	230.274	0.126	-0.203
-89.743	-72.513	0.141	-0.052
-88.728	152.634	-0.109	0.147
-87.713	206.993	-0.203	0.312
-86.699	-200.000	0.009	0.276
-85.684	30.197	0.260	0.219
-84.670	22.041	0.249	-0.200
-83.655	-155.282	-0.230	0.015
-82.640	-200.000	0.003	-0.193
-81.626	17.288	0.228	-0.179
-80.611	-200.000	0.003	-0.107
-79.597	67.850	-0.051	-0.051
-78.582	540.910	-0.048	0.112
-77.567	345.999	0.093	-0.181
-76.553	80.807	0.101	0.107
-75.538	59.165	0.162	-0.157
-74.524	214.906	0.211	-0.329
-73.509	-79.778	-0.336	-0.112
-72.494	160.873	0.243	-0.335
-71.480	-60.432	0.413	-0.173
-70.465	-200.000	-0.008	0.034
-69.451	-85.190	0.005	-0.002
-68.436	92.044	0.130	-0.144
-67.422	-200.000	0.035	-0.172
-66.407	444.504	0.163	-0.352
-65.392	-200.000	-0.036	-0.238
-64.378	-192.638	-0.044	-0.000
-63.363	35.367	0.037	0.032
-62.349	-200.000	-0.002	0.027
-61.334	104.942	-0.870	-1.011
-60.319	-200.000	0.073	0.528
-59.305	-200.000	-0.044	-1.326
-58.290	527.408	0.274	0.636
-57.276	800.000	0.541	1.796
-56.261	-200.000	98.133	587.659
-55.246	548.229	1393.874	3289.926
-54.232	153.576	2589.410	3495.392
-53.217	112.996	2176.282	2599.682
-52.203	44.514	1713.952	1551.931
-51.188	37.459	1525.934	1333.470
-50.173	35.160	1498.491	1293.935
-49.159	54.721	1550.511	1473.729
-48.144	58.030	1569.355	1514.305
-47.130	37.822	1524.307	1334.323
-46.115	34.608	1508.711	1298.798
-45.100	34.448	1505.437	1294.839
-44.086	34.360	1503.836	1292.810
-43.071	34.277	1501.949	1290.578
-42.057	34.325	1500.607	1289.697
-41.042	34.384	1498.566	1288.292
-40.027	34.430	1497.109	1287.296
-39.013	34.297	1496.197	1285.563
-37.998	34.292	1494.750	1284.237
-36.984	34.215	1493.887	1282.925
-35.969	34.308	1492.278	1282.119
-34.954	34.233	1490.963	1280.437
-33.940	34.294	1489.163	1279.249
-32.925	34.164	1488.843	1278.050
-31.911	34.340	1486.831	1277.451
-30.896	34.277	1485.647	1275.962
-29.881	34.337	1484.318	1275.172
-28.867	34.364	1482.770	1273.975
-27.852	34.339	1481.340	1272.525
-26.838	34.414	1479.826	1271.672
-25.823	34.386	1478.387	1270.200
-24.809	34.318	1476.937	1268.449
-23.794	34.332	1475.528	1267.285
-22.779	34.284	1474.588	1266.105
-21.765	34.313	1473.309	1265.154
-20.750	34.341	1472.091	1264.239
-19.736	34.359	1471.208	1263.550
-18.721	34.346	1470.362	1262.691
-17.706	34.390	1468.825	1261.609
-16.692	34.251	1468.143	1260.054
-15.677	34.189	1467.387	1258.948
-14.663	34.206	1466.576	1258.315
-13.648	34.181	1465.463	1257.143
-12.633	34.315	1464.206	1256.899
-11.619	34.206	1463.528	1255.551
-10.604	34.267	1462.379	1254.913
-9.590	34.181	1461.993	1253.968
-8.575	34.327	1460.775	1253.831
-7.560	34.238	1460.382	1252.859
-6.546	34.303	1459.050	1252.096
-5.531	34.197	1458.263	1250.675
-4.517	34.252	1457.241	1250.110
-3.502	34.190	1456.617	1249.119
-2.487	34.236	1455.425	1248.346
-1.473	34.313	1454.036	1247.612
-0.458	34.282	1452.646	1246.164
0.556	34.495	1444.003	1235.236
1.571	31.514	1418.120	1193.996
2.586	28.236	1357.122	1122.475
3.600	26.533	1276.294	1045.700
4.615	25.103	1229.939	999.664
5.629	21.383	1172.139	932.795
6.644	11.250	1085.149	813.181
7.659	3.211	1042.493	742.487
8.673	2.036	1037.028	732.889
9.688	1.771	1033.939	729.374
10.702	1.906	1031.862	728.489
11.717	1.798	1029.995	726.593
12.731	5.510	1034.304	747.323
13.746	15.542	1048.694	806.016
14.761	23.091	1058.478	849.883
15.775	24.713	1060.026	858.851
16.790	24.963	1059.337	859.417
17.804	24.847	1058.707	858.271
18.819	24.625	1058.104	856.643
19.834	24.770	1056.975	856.348
20.848	24.910	1056.837	856.829
21.863	25.054	1056.502	857.172
22.877	24.937	1056.312	856.381
23.892	24.999	1055.137	855.648
24.907	25.015	1054.365	855.026
25.921	24.719	1054.246	853.440
26.936	24.882	1052.900	853.053
27.950	24.829	1052.157	852.122
28.965	24.880	1050.691	851.103
29.980	24.613	1049.710	848.962
30.994	24.723	1048.472	848.408
32.009	24.900	1047.682	848.535
33.023	24.960	1047.023	848.207
34.038	24.886	1045.714	846.722
35.053	24.734	1045.310	845.605
36.067	25.053	1044.321	846.233
37.082	25.049	1043.208	845.241
38.096	25.053	1042.638	844.724
39.111	25.187	1042.231	844.947
40.126	25.316	1041.689	845.044
41.140	25.176	1040.273	843.160
42.155	24.880	1038.873	840.561
43.169	24.570	1037.954	838.289
44.184	24.517	1036.730	836.976
45.199	24.649	1035.826	836.791
46.213	24.631	1034.572	835.622
47.228	24.575	1033.793	834.657
48.242	24.816	1032.705	834.828
49.257	24.714	1032.814	834.367
50.271	24.784	1031.846	833.835
51.286	25.103	1030.689	834.315
52.301	25.063	1030.595	833.977
53.315	25.156	1029.293	833.280
54.330	24.976	1028.825	831.995
55.344	24.957	1028.508	831.576
56.359	24.889	1027.098	830.044
57.374	24.967	1026.740	830.045
58.388	24.732	1025.538	827.909
59.403	24.611	1025.039	826.876
60.417	24.627	1024.309	826.289
61.432	24.432	1023.682	824.809
62.447	24.513	1022.982	824.545
63.461	24.608	1022.209	824.285
64.476	24.668	1021.548	823.958
65.490	24.773	1020.374	823.421
66.505	24.575	1019.419	821.666
67.520	24.665	1018.643	821.383
68.534	24.684	1018.166	821.015
69.549	24.658	1016.935	819.827
70.563	24.379	1015.567	817.374
71.578	24.131	1015.233	815.898
72.593	24.293	1014.479	815.962
73.607	24.101	1013.068	813.877
74.622	24.095	1012.262	813.131
75.636	24.368	1011.713	813.862
76.651	24.567	1010.954	814.088
77.666	24.452	1010.007	812.729
78.680	24.357	1009.264	811.625
79.695	24.300	1009.042	811.115
80.709	24.334	1008.305	810.608
81.724	24.523	1007.500	810.744
82.739	24.625	1006.283	810.157
83.753	24.554	1005.622	809.233
84.768	24.871	1004.908	810.020
85.782	25.063	1004.756	810.695
86.797	25.269	1004.061	810.993
87.812	25.279	1003.131	810.217
88.826	24.986	1002.135	808.019
89.841	25.075	1001.425	807.777
90.855	25.145	1000.826	807.535
91.870	25.194	1000.205	807.186
92.884	25.211	999.344	806.494
93.899	25.034	998.556	804.993
94.914	25.062	997.029	803.815
95.928	25.181	996.437	803.802
96.943	25.077	995.622	802.606
97.957	24.668	994.707	799.966
98.972	24.583	993.506	798.550
99.987	24.519	992.286	797.216
101.001	24.559	991.923	797.031
102.016	24.803	991.327	797.569
103.030	25.019	990.196	797.549
104.045	24.897	989.326	796.236
105.060	24.810	988.030	794.734
106.074	24.521	987.389	792.868
107.089	24.562	986.273	792.085
108.103	24.976	985.573	793.284
109.118	25.115	984.942	793.323
110.133	24.696	984.053	790.683
111.147	24.616	983.140	789.524
112.162	24.547	982.174	788.376
113.176	24.245	981.225	786.211
114.191	24.533	980.002	786.433
115.206	24.513	979.417	785.804
116.220	24.326	978.451	784.136
117.235	24.124	977.596	782.495
118.249	24.430	976.633	782.997
119.264	24.408	975.636	782.034
120.279	24.297	975.162	781.100
121.293	24.221	974.832	780.432
122.308	24.279	973.996	779.948
123.322	24.465	972.868	779.788
124.337	24.358	971.730	778.342
125.352	24.254	970.942	777.188
126.366	23.863	968.862	773.749
127.381	23.507	967.847	771.325
128.395	23.891	968.104	773.130
129.410	24.815	966.925	776.132
130.424	24.907	966.323	775.977
131.439	24.854	965.493	775.013
132.454	24.793	964.923	774.221
133.468	24.868	963.860	773.624
134.483	24.716	963.239	772.400
135.497	24.758	962.510	771.931
136.512	25.031	961.843	772.504
137.527	25.022	961.390	772.036
138.541	24.921	960.473	770.792
139.556	25.132	959.529	770.874
140.570	25.064	958.895	770.006
141.585	25.071	957.905	769.174
142.600	25.211	957.424	769.321
143.614	25.045	956.606	767.882
144.629	25.088	956.309	767.761
145.643	25.377	955.169	768.012
146.658	25.291	954.021	766.656
147.673	25.033	952.901	764.587
148.687	24.957	952.053	763.515
149.702	24.880	951.222	762.455
150.716	24.913	949.580	761.209
151.731	24.702	948.913	759.712
152.746	24.795	948.519	759.721
153.760	25.063	947.501	759.976
154.775	25.218	946.997	760.161
155.789	25.368	945.742	759.722
156.804	25.239	945.337	758.783
157.819	25.192	944.356	757.732
158.833	25.318	943.288	757.336
159.848	25.413	942.944	757.397
160.862	25.247	942.439	756.226
161.877	25.383	941.069	755.631
162.892	25.161	940.327	754.033
163.906	25.248	939.698	753.827
164.921	25.242	938.490	752.767
165.935	25.116	937.588	751.448
166.950	25.283	936.239	750.999
167.964	25.271	935.431	750.237
168.979	25.205	934.567	749.200
169.994	25.146	933.608	748.119
171.008	24.959	932.315	746.240
172.023	25.221	931.907	746.935
173.037	25.293	931.079	746.507
174.052	25.196	929.587	744.840
175.067	25.062	928.537	743.380
176.081	25.010	928.054	742.711
177.096	24.991	927.499	742.122
178.110	24.907	926.840	741.181
179.125	24.707	925.815	739.469
180.140	24.413	925.113	737.629
181.154	24.570	924.002	737.326
182.169	24.566	924.021	737.257
183.183	24.936	923.252	738.105
184.198	25.158	922.994	738.748
185.213	25.171	922.247	738.139
186.227	24.975	921.898	736.987
187.242	25.173	921.185	737.167
188.256	25.279	920.188	736.737
189.271	25.188	919.366	735.642
190.286	25.333	918.632	735.582
191.300	25.223	917.955	734.526
192.315	24.557	916.335	730.441
193.329	23.893	914.685	726.350
194.344	23.462	914.062	724.030
195.359	23.973	913.937	725.954
196.373	24.789	914.781	729.891
197.388	25.221	913.830	730.829
198.402	25.148	913.297	730.042
199.417	25.158	912.972	729.755
200.432	25.080	912.695	729.152
201.446	24.991	911.610	727.858
202.461	24.610	911.111	725.851
203.475	24.813	910.416	726.057
204.490	24.390	908.988	723.138
205.504	23.235	906.849	716.702
206.519	23.566	906.736	717.887
207.534	24.490	907.181	721.914
208.548	24.727	906.250	722.066
209.563	25.123	906.262	723.610
210.577	25.043	905.549	722.654
211.592	24.727	905.018	720.892
212.607	25.096	904.938	722.252
213.621	25.343	904.477	722.817
214.636	25.391	903.082	721.829
215.650	25.332	902.847	721.341
216.665	25.199	902.809	720.711
217.680	25.262	902.116	720.347
218.694	25.324	901.312	719.890
219.709	25.095	900.239	718.055
220.723	24.591	899.498	715.379
221.738	24.717	899.323	715.684
222.753	25.122	898.986	716.971
223.767	24.876	898.206	715.302
224.782	25.139	897.009	715.335
225.796	25.199	896.917	715.440
226.811	25.566	895.783	715.931
227.826	25.072	894.656	713.004
228.840	24.059	893.725	708.171
229.855	24.093	892.533	707.299
230.869	24.455	892.204	708.413
231.884	24.105	891.512	706.411
232.899	24.005	891.083	705.611
233.913	24.822	891.374	709.020
234.928	25.131	890.879	709.787
235.942	24.984	889.870	708.339
236.957	24.916	889.457	707.677
237.972	24.650	888.484	705.791
238.986	24.631	887.793	705.104
240.001	24.662	887.342	704.806
241.015	24.718	886.426	704.237
242.030	24.968	885.470	704.400
243.045	24.927	885.432	704.145
244.059	24.951	885.379	704.134
245.074	25.127	885.015	704.475
246.088	25.105	884.007	703.525
247.103	24.745	883.036	701.279
248.117	24.903	882.165	701.142
249.132	25.287	882.408	702.778
250.147	25.738	882.140	704.265
251.161	25.830	881.510	704.063
252.176	25.990	880.937	704.165
253.190	25.997	880.258	703.588
254.205	25.995	879.778	703.133
255.220	26.135	879.966	703.770
256.234	26.130	879.349	703.194
257.249	26.053	878.398	702.070
258.263	25.993	877.450	701.017
259.278	25.777	877.169	699.893
260.293	26.065	876.594	700.491
261.307	26.093	876.056	700.108
262.322	25.809	875.751	698.700
263.336	25.745	875.043	697.825
264.351	25.403	873.193	694.963
265.366	24.210	871.226	688.731
266.380	23.735	870.694	686.414
267.395	24.706	871.128	690.445
268.409	25.450	871.560	693.601
269.424	25.396	870.662	692.618
270.439	25.483	870.168	692.498
271.453	25.788	869.786	693.305
272.468	25.707	868.824	692.167
273.482	26.059	868.109	692.889
274.497	26.107	867.916	692.855
275.512	25.852	866.868	690.983
276.526	25.312	865.307	687.607
277.541	25.469	865.617	688.395
278.555	25.928	865.203	689.761
279.570	25.667	864.378	688.046
280.585	25.575	863.467	686.906
281.599	25.578	863.152	686.607
282.614	25.715	862.540	686.584
283.628	25.333	861.403	684.163
284.643	24.982	860.834	682.313
285.657	25.337	860.631	683.442
286.672	25.266	860.007	682.617
287.687	24.770	859.172	680.008
288.701	24.972	859.190	680.732
289.716	25.554	858.384	682.241
290.730	25.146	857.823	680.185
291.745	24.940	857.048	678.733
292.760	24.919	855.817	677.616
293.774	24.746	855.958	677.016
294.789	25.607	856.797	680.877
295.803	26.269	856.175	682.828
296.818	26.360	856.067	683.025
297.833	26.336	855.168	682.154
298.847	26.198	853.829	680.507
299.862	25.809	853.218	678.497
300.876	25.967	852.821	678.714
301.891	26.300	852.199	679.411
302.906	26.460	851.645	679.510
303.920	25.889	850.745	676.589
304.935	25.909	849.891	675.926
305.949	26.038	850.255	676.638
306.964	26.288	849.353	676.797
307.979	26.035	848.876	675.411
308.993	26.055	848.154	674.852
310.008	26.300	848.326	675.843
311.022	26.416	847.939	675.910
312.037	26.169	847.182	674.326
313.052	26.108	846.383	673.402
314.066	25.959	845.779	672.306
315.081	25.343	843.873	668.438
316.095	24.705	842.529	664.944
317.110	25.187	843.106	667.134
318.125	25.955	843.304	670.084
319.139	25.637	841.999	667.810
320.154	24.412	840.560	662.067
321.168	23.996	839.616	659.725
322.183	24.543	840.020	662.012
323.197	25.499	840.561	665.922
324.212	25.870	840.156	666.917
325.227	25.931	839.836	666.827
326.241	26.023	839.617	666.936
327.256	26.041	838.536	666.083
328.270	25.920	838.001	665.153
329.285	26.030	837.179	664.848
330.300	25.762	836.383	663.168
331.314	25.325	836.041	661.233
332.329	25.492	835.372	661.256
333.343	25.874	835.116	662.403
334.358	26.216	834.615	663.200
335.373	26.165	833.999	662.467
336.387	26.314	833.263	662.369
337.402	26.370	833.475	662.685
338.416	26.508	832.951	662.713
339.431	26.651	832.275	662.642
340.446	26.596	831.855	662.048
341.460	26.934	831.371	662.838
342.475	26.675	831.135	661.644
343.489	26.451	830.491	660.257
344.504	26.592	829.733	660.111
345.519	26.757	829.440	660.418
346.533	27.105	829.139	661.388
347.548	27.219	828.011	660.845
348.562	27.049	827.824	660.020
349.577	27.041	827.439	659.624
350.592	26.878	827.135	658.731
351.606	26.839	826.568	658.080
352.621	26.861	826.315	657.903
353.635	26.771	825.768	657.080
354.650	26.778	824.923	656.376
355.665	26.438	824.279	654.575
356.679	25.410	822.208	649.161
357.694	25.199	822.002	648.179
358.708	25.886	821.885	650.509
359.723	25.909	821.074	649.891
360.738	26.168	820.842	650.583
361.752	26.604	820.772	652.041
362.767	26.614	820.771	652.017
363.781	26.797	820.789	652.635
364.796	27.139	820.208	653.346
365.810	27.280	819.816	653.480
366.825	27.432	819.281	653.542
367.840	27.580	818.900	653.710
368.854	27.166	818.778	652.072
369.869	26.727	817.744	649.619
370.883	26.634	816.594	648.314
371.898	26.729	816.358	648.409
372.913	26.811	815.709	648.129
373.927	26.608	815.008	646.790
374.942	26.654	814.645	646.607
375.956	26.870	814.220	646.983
376.971	26.915	813.994	646.909
377.986	27.122	813.436	647.144
379.000	27.343	812.792	647.362
380.015	27.452	812.291	647.292
381.029	27.107	811.701	645.541
382.044	27.108	810.925	644.869
383.059	27.365	810.475	645.365
384.073	27.365	810.036	644.958
385.088	27.309	809.753	644.480
386.102	27.300	809.233	643.974
387.117	27.207	808.276	642.828
388.132	27.040	807.806	641.806
389.146	26.754	807.182	640.245
390.161	26.427	805.930	638.041
391.175	26.331	805.362	637.198
392.190	26.795	805.870	639.178
393.205	26.827	805.750	639.138
394.219	25.875	803.826	634.208
395.234	24.438	801.599	627.348
396.248	23.531	800.261	623.059
397.263	24.649	801.064	627.557
398.278	26.319	802.663	634.627
399.292	26.976	802.436	636.695
400.307	26.554	801.944	634.769
401.321	26.525	801.527	634.280
402.336	26.581	801.075	634.063
403.350	26.990	800.940	635.331
404.365	27.281	801.005	636.347
405.380	27.576	800.699	637.078
406.394	27.984	800.154	638.014
407.409	28.137	800.014	638.379
408.423	28.090	799.350	637.628
409.438	27.835	798.973	636.381
410.453	27.895	798.415	636.090
411.467	28.033	798.356	636.467
412.482	28.016	797.211	635.439
413.496	27.940	796.702	634.713
414.511	27.944	796.778	634.732
415.526	28.150	795.885	634.679
416.540	27.966	796.139	634.187
417.555	27.983	795.461	633.650
418.569	27.665	794.473	631.704
419.584	27.629	793.965	631.122
420.599	27.745	793.259	630.904
421.613	108.970	1281.872	1447.426
422.628	93.743	1353.070	1447.532
