DTS Sentinel unit serial number:	SN413079Multiplexer serial number:	ORYXHardware model number:	OX4-SRSoftware version number:	ORYX F/W v4.00 Oryx Data Collector v3.7.2.0data status	okinstallation	princeton_trtdifferential loss correction	single-endedforward channel	channel 3reverse channel	N/Adate	2019/09/10time	22:18:11forward acquisition time	60.00reverse acquisition time	0.00gamma	496.2192k internal	0.2330k external	0.2330temperature offset calibration	0.9918default loss term (dB/km)	0.3790temperature slope calibration	1.0000multiplexer offset coefficient	1.0000multiplexer slope coefficient	1.0000fibre end	0.00T internal ref (°C)	30.50T ext. ref 1 (°C)	-0.31T ext. ref 2 (°C)	23.94length (m)	temperature (°C)	Stokes	anti-Stokes-747.200	-56.109	-0.364	-0.163
-746.185	-77.272	-0.358	0.125
-745.171	232.492	-0.066	0.110
-744.156	-108.592	-0.310	-0.067
-743.142	317.072	0.048	-0.091
-742.127	800.000	0.098	0.302
-741.112	-31.819	0.188	-0.106
-740.098	-179.557	-0.040	-0.001
-739.083	-39.853	0.139	-0.073
-738.069	-44.045	-0.137	0.070
-737.054	-52.817	-0.192	-0.089
-736.039	255.303	-0.145	0.249
-735.025	-200.000	-0.056	0.326
-734.010	0.073	0.159	-0.114
-732.996	-79.250	-0.378	0.129
-731.981	787.819	0.085	0.236
-730.966	222.921	0.028	0.046
-729.952	-131.092	-0.196	-0.026
-728.937	122.116	0.192	-0.241
-727.923	51.352	0.134	0.128
-726.908	1.273	0.203	0.146
-725.894	-40.558	0.015	-0.008
-724.879	-0.111	-0.272	-0.195
-723.864	31.820	0.282	0.244
-722.850	43.180	-0.145	-0.133
-721.835	-69.977	-0.149	-0.057
-720.821	-200.000	-0.014	-0.179
-719.806	-150.159	-0.145	-0.011
-718.791	-150.947	0.184	0.014
-717.777	800.000	0.010	-0.029
-716.762	-36.113	0.046	0.025
-715.748	74.005	0.201	0.212
-714.733	-79.276	-0.237	0.081
-713.718	462.161	-0.190	-0.426
-712.704	-103.081	-0.243	-0.058
-711.689	800.000	0.070	-0.201
-710.675	-30.197	0.089	-0.051
-709.660	-200.000	0.034	-0.152
-708.645	-87.295	0.078	0.024
-707.631	-21.058	-0.258	0.159
-706.616	-200.000	-0.001	-0.057
-705.602	-120.493	0.223	-0.038
-704.587	382.393	0.067	-0.138
-703.572	-14.134	0.179	-0.116
-702.558	240.771	-0.131	0.219
-701.543	-158.370	-0.229	0.013
-700.529	-27.718	0.125	0.073
-699.514	27.717	0.295	0.250
-698.499	-200.000	-0.040	-0.287
-697.485	201.722	-0.083	-0.129
-696.470	-123.437	-0.261	0.042
-695.456	-113.024	0.061	0.012
-694.441	-21.995	-0.085	0.052
-693.426	75.455	-0.231	0.245
-692.412	239.759	0.123	0.206
-691.397	-73.863	0.173	0.063
-690.383	261.042	-0.135	-0.235
-689.368	29.936	-0.141	-0.121
-688.354	-83.004	-0.188	0.061
-687.339	77.497	-0.237	-0.253
-686.324	800.000	-0.060	-0.241
-685.310	-87.008	0.058	0.018
-684.295	-200.000	0.019	-0.254
-683.281	800.000	0.019	-0.072
-682.266	-99.836	-0.232	0.058
-681.251	81.752	0.033	-0.036
-680.237	-45.155	0.181	-0.090
-679.222	58.595	-0.209	-0.207
-678.208	135.388	0.230	0.300
-677.193	800.000	0.050	0.205
-676.178	78.388	-0.080	-0.086
-675.164	800.000	-0.062	0.198
-674.149	-200.000	-0.003	0.021
-673.135	-109.583	0.478	-0.101
-672.120	-58.083	-0.169	-0.074
-671.105	61.636	-0.111	0.111
-670.091	-112.085	0.334	-0.067
-669.076	29.586	0.042	-0.036
-668.062	800.000	0.129	0.506
-667.047	-147.688	-0.289	-0.024
-666.032	-10.280	-0.344	0.229
-665.018	-200.000	0.011	-0.084
-664.003	-170.748	0.189	0.007
-662.989	-49.986	0.337	-0.161
-661.974	-6.639	-0.113	0.078
-660.959	800.000	0.060	-0.191
-659.945	800.000	-0.091	-0.308
-658.930	60.318	-0.241	0.240
-657.916	352.087	-0.185	0.369
-656.901	36.463	-0.315	0.279
-655.886	-200.000	-0.033	0.000
-654.872	-200.000	0.004	-0.057
-653.857	491.701	0.101	-0.231
-652.843	40.817	-0.167	-0.151
-651.828	-30.142	0.232	0.132
-650.814	-200.000	0.066	0.309
-649.799	-102.584	0.389	-0.093
-648.784	254.225	-0.134	-0.229
-647.770	-200.000	-0.039	-0.300
-646.755	-50.374	-0.098	0.046
-645.741	260.371	0.133	-0.231
-644.726	211.674	0.057	0.089
-643.711	-159.651	0.297	0.016
-642.697	499.588	-0.054	-0.124
-641.682	800.000	-0.053	-0.155
-640.668	89.733	0.082	0.092
-639.653	134.092	-0.133	-0.173
-638.638	468.658	-0.103	-0.232
-637.624	-43.042	-0.011	-0.006
-636.609	-93.319	0.224	0.062
-635.595	200.759	0.118	0.182
-634.580	800.000	0.030	0.110
-633.565	-200.000	0.036	-0.238
-632.551	-200.000	-0.018	-0.606
-631.536	99.984	-0.170	0.197
-630.522	-200.000	-0.012	0.286
-629.507	18.271	-0.322	-0.258
-628.492	217.339	-0.068	0.108
-627.478	-200.000	0.003	0.080
-626.463	800.000	0.067	-0.207
-625.449	-42.777	0.170	0.087
-624.434	-72.829	-0.106	-0.039
-623.419	117.272	-0.151	-0.186
-622.405	123.491	0.160	-0.200
-621.390	-3.795	-0.131	0.091
-620.376	49.258	0.290	0.273
-619.361	2.313	0.333	0.242
-618.346	233.009	0.185	-0.305
-617.332	-200.000	-0.024	0.200
-616.317	-184.379	0.146	0.002
-615.303	-200.000	0.016	-0.246
-614.288	-135.340	-0.361	-0.043
-613.273	-102.379	-0.369	0.088
-612.259	-132.188	-0.205	-0.027
-611.244	-121.654	-0.265	-0.044
-610.230	-48.619	-0.351	-0.169
-609.215	-43.286	-0.188	0.095
-608.201	3.642	0.205	-0.150
-607.186	800.000	-0.049	0.194
-606.171	1.198	-0.081	0.058
-605.157	216.570	-0.043	0.069
-604.142	-148.778	-0.325	-0.026
-603.128	-128.557	0.118	0.017
-602.113	71.035	0.093	-0.097
-601.098	-135.071	-0.035	-0.004
-600.084	75.904	-0.143	0.151
-599.069	-63.158	0.104	-0.043
-598.055	-200.000	-0.047	0.251
-597.040	-65.565	-0.082	0.033
-596.025	-156.890	0.266	-0.016
-595.011	-200.000	0.038	0.394
-593.996	-95.117	0.347	0.094
-592.982	-67.635	-0.418	0.164
-591.967	-200.000	-0.200	0.000
-590.952	169.967	-0.171	0.245
-589.938	572.765	-0.165	0.402
-588.923	-119.586	0.088	0.015
-587.909	-42.903	0.381	-0.193
-586.894	-88.723	0.455	-0.135
-585.879	-39.142	-0.303	-0.160
-584.865	-13.840	0.075	-0.048
-583.850	-173.812	0.150	0.004
-582.836	99.365	-0.135	-0.156
-581.821	-141.446	0.248	0.025
-580.806	-150.370	-0.274	-0.021
-579.792	800.000	-0.054	0.169
-578.777	113.239	0.094	0.115
-577.763	-65.747	-0.420	-0.168
-576.748	-127.847	-0.182	0.026
-575.733	-200.000	0.034	-0.283
-574.719	-200.000	-0.008	-0.373
-573.704	-44.880	-0.074	0.037
-572.690	-90.461	0.138	-0.040
-571.675	-200.000	-0.043	0.195
-570.661	-71.004	-0.250	0.094
-569.646	734.205	0.063	-0.169
-568.631	429.570	-0.143	-0.309
-567.617	-200.000	-0.001	-0.319
-566.602	-40.516	-0.121	0.063
-565.588	-200.000	0.029	0.436
-564.573	66.572	0.114	0.116
-563.558	-154.881	-0.194	0.013
-562.544	284.714	-0.043	-0.078
-561.529	800.000	-0.084	-0.349
-560.515	84.574	-0.136	-0.149
-559.500	140.961	-0.052	0.069
-558.485	-200.000	0.081	0.361
-557.471	121.815	0.127	0.159
-556.456	800.000	-0.121	0.390
-555.442	47.820	-0.171	-0.159
-554.427	-41.923	0.188	0.097
-553.412	800.000	-0.054	0.177
-552.398	800.000	-0.097	-0.271
-551.383	-60.000	-0.190	0.081
-550.369	764.909	0.045	-0.122
-549.354	-200.000	0.001	-0.140
-548.339	47.551	-0.271	-0.253
-547.325	-200.000	0.017	-0.400
-546.310	800.000	-0.020	0.066
-545.296	-94.001	-0.318	0.087
-544.281	233.148	-0.113	0.185
-543.266	-104.195	-0.388	0.090
-542.252	-51.838	-0.239	-0.111
-541.237	178.908	0.108	0.157
-540.223	-125.237	0.078	-0.012
-539.208	631.591	-0.073	-0.185
-538.193	85.560	0.099	-0.109
-537.179	48.315	0.207	0.194
-536.164	-98.978	0.390	-0.099
-535.150	45.287	-0.125	0.115
-534.135	-70.869	0.359	0.135
-533.121	-200.000	0.039	-0.263
-532.106	-94.752	0.175	-0.048
-531.091	-200.000	-0.027	-0.218
-530.077	-107.060	0.077	0.017
-529.062	49.788	-0.143	-0.135
-528.048	-61.653	-0.117	-0.049
-527.033	17.623	-0.201	0.159
-526.018	153.542	-0.161	-0.220
-525.004	-95.871	0.356	-0.095
-523.989	177.129	0.065	-0.094
-522.975	-200.000	0.022	-0.286
-521.960	-22.760	-0.172	-0.103
-520.945	149.887	-0.114	-0.155
-519.931	-200.000	0.022	0.231
-518.916	263.771	-0.098	0.170
-517.902	205.532	-0.036	-0.056
-516.887	-56.144	0.074	-0.033
-515.872	800.000	0.034	0.103
-514.858	-143.185	0.147	-0.014
-513.843	16.277	-0.167	0.131
-512.829	-117.219	-0.112	0.020
-511.814	27.314	0.179	0.150
-510.799	473.281	-0.094	-0.210
-509.785	800.000	-0.091	0.294
-508.770	-62.318	0.334	0.139
-507.756	-200.000	-0.051	-0.240
-506.741	675.284	-0.051	0.131
-505.726	236.946	-0.133	-0.221
-504.712	50.911	0.158	0.149
-503.697	156.506	0.209	0.288
-502.683	143.110	0.267	0.354
-501.668	-96.022	-0.098	-0.026
-500.653	-200.000	-0.007	-0.035
-499.639	0.948	-0.290	-0.208
-498.624	800.000	-0.046	0.162
-497.610	-131.583	-0.192	-0.025
-496.595	149.397	0.153	-0.206
-495.581	-49.712	0.273	0.129
-494.566	-186.390	0.249	0.004
-493.551	9.910	0.175	-0.132
-492.537	-200.000	-0.011	0.324
-491.522	-73.216	-0.347	-0.127
-490.508	-29.877	-0.275	-0.156
-489.493	-121.126	-0.206	-0.034
-488.478	-1.111	-0.188	-0.132
-487.464	591.374	-0.062	-0.152
-486.449	-56.465	0.138	0.061
-485.435	-200.000	-0.004	0.121
-484.420	800.000	0.085	0.248
-483.405	312.636	-0.073	-0.136
-482.391	-200.000	0.020	-0.112
-481.376	-75.431	-0.141	-0.050
-480.362	-33.794	0.169	0.093
-479.347	653.499	0.130	0.331
-478.332	-106.620	0.116	0.026
-477.318	-200.000	-0.069	-0.341
-476.303	-200.000	-0.017	-0.078
-475.289	800.000	0.085	0.290
-474.274	147.013	-0.093	0.124
-473.259	348.683	0.180	-0.354
-472.245	800.000	-0.050	-0.161
-471.230	26.662	0.317	-0.264
-470.216	-87.566	-0.266	0.080
-469.201	108.803	0.149	0.177
-468.186	-177.435	0.321	-0.008
-467.172	-124.887	-0.215	0.033
-466.157	-200.000	0.018	0.139
-465.143	-142.515	-0.239	-0.023
-464.128	-200.000	0.037	-0.162
-463.113	4.239	-0.147	0.107
-462.099	-27.360	0.375	0.217
-461.084	-67.063	-0.400	-0.157
-460.070	800.000	0.041	0.166
-459.055	104.499	-0.121	0.142
-458.040	-127.474	0.272	-0.039
-457.026	80.440	-0.165	-0.177
-456.011	46.467	-0.132	-0.121
-454.997	22.429	-0.186	0.151
-453.982	-200.000	0.006	0.129
-452.968	-144.456	0.058	-0.005
-451.953	-37.748	0.106	-0.056
-450.938	-70.439	-0.342	-0.129
-449.924	-200.000	0.034	0.192
-448.909	-129.970	-0.127	0.017
-447.895	-77.762	-0.433	0.149
-446.880	43.570	-0.067	-0.061
-445.865	-189.964	0.253	0.003
-444.851	179.669	0.157	-0.229
-443.836	-200.000	0.018	-0.225
-442.822	119.841	-0.144	0.178
-441.807	89.146	-0.072	-0.079
-440.792	-32.988	-0.136	-0.075
-439.778	13.223	0.354	0.273
-438.763	-55.668	0.203	-0.090
-437.749	-119.199	0.283	-0.049
-436.734	-82.102	-0.312	0.101
-435.719	150.194	0.068	-0.091
-434.705	-99.249	0.256	0.064
-433.690	142.335	-0.158	-0.208
-432.676	-28.573	-0.298	-0.171
-431.661	-78.706	0.107	-0.036
-430.646	800.000	0.065	-0.245
-429.632	-161.015	0.234	0.012
-428.617	-200.000	-0.022	0.321
-427.603	-91.470	-0.066	-0.019
-426.588	366.290	0.133	0.267
-425.573	-200.000	0.011	0.078
-424.559	51.815	-0.209	-0.198
-423.544	-61.423	-0.157	0.066
-422.530	-6.747	0.307	-0.208
-421.515	-105.950	0.243	-0.054
-420.500	800.000	0.080	0.244
-419.486	-81.719	0.112	-0.037
-418.471	-81.278	-0.201	-0.066
-417.457	-60.219	-0.181	0.077
-416.442	-92.293	-0.169	-0.047
-415.428	-8.234	-0.389	-0.260
-414.413	27.364	-0.274	0.229
-413.398	-118.288	0.121	-0.021
-412.384	-72.908	0.184	-0.067
-411.369	49.616	0.019	0.018
-410.355	349.057	0.104	-0.204
-409.340	-110.035	0.304	0.063
-408.325	84.554	0.068	-0.074
-407.311	-200.000	-0.071	-0.309
-406.296	110.944	0.063	-0.075
-405.282	517.166	-0.039	0.090
-404.267	192.925	0.161	0.241
-403.252	-16.231	-0.110	0.069
-402.238	-200.000	-0.025	0.241
-401.223	-186.025	-0.020	-0.000
-400.209	-157.167	-0.067	-0.004
-399.194	-200.000	-0.055	-0.314
-398.179	143.976	0.052	-0.068
-397.165	-110.368	-0.326	0.067
-396.150	-200.000	0.026	0.138
-395.136	104.157	0.077	-0.090
-394.121	-200.000	-0.001	-0.146
-393.106	-200.000	-0.018	-0.299
-392.092	147.934	0.054	0.072
-391.077	6.690	-0.232	-0.171
-390.063	-12.663	-0.497	-0.322
-389.048	-5.328	-0.094	-0.064
-388.033	800.000	0.036	-0.134
-387.019	-7.262	-0.073	-0.049
-386.004	10.934	-0.224	-0.170
-384.990	66.888	0.213	-0.215
-383.975	135.310	0.097	0.126
-382.960	-127.681	-0.270	-0.039
-381.946	-200.000	-0.057	0.289
-380.931	-107.972	-0.180	0.039
-379.917	35.418	0.361	-0.315
-378.902	-53.461	0.054	0.025
-377.888	800.000	0.075	-0.254
-376.873	-27.102	0.126	-0.073
-375.858	-200.000	-0.013	-0.092
-374.844	-200.000	-0.006	0.170
-373.829	154.842	0.223	0.304
-372.815	800.000	0.042	-0.133
-371.800	-200.000	0.011	-0.271
-370.785	-200.000	-0.040	-0.207
-369.771	-113.979	0.175	0.034
-368.756	27.896	0.042	0.035
-367.742	-200.000	0.005	-0.139
-366.727	12.989	-0.156	0.120
-365.712	800.000	-0.062	-0.254
-364.698	8.662	0.283	0.212
-363.683	800.000	0.092	0.328
-362.669	304.164	-0.103	0.190
-361.654	-102.714	0.261	0.062
-360.639	144.412	-0.169	-0.223
-359.625	-90.326	0.157	-0.045
-358.610	32.962	-0.169	0.145
-357.596	-111.173	0.142	0.029
-356.581	-86.386	0.416	-0.127
-355.566	-160.986	-0.373	0.019
-354.552	0.360	0.203	-0.143
-353.537	-89.396	0.142	0.042
-352.523	-33.326	0.084	0.046
-351.508	-187.524	0.192	-0.003
-350.493	522.837	0.099	0.230
-349.479	195.247	-0.248	-0.373
-348.464	-200.000	0.027	-0.118
-347.450	-134.589	-0.039	0.005
-346.435	-147.687	-0.175	0.015
-345.420	-200.000	0.059	0.272
-344.406	131.606	0.105	-0.133
-343.391	193.554	0.141	0.212
-342.377	-18.294	-0.073	0.045
-341.362	800.000	0.031	0.093
-340.348	124.470	-0.178	0.222
-339.333	-150.001	0.267	-0.021
-338.318	98.526	-0.136	-0.155
-337.304	521.730	-0.058	-0.134
-336.289	-59.011	-0.389	0.167
-335.275	-101.289	0.279	-0.068
-334.260	-200.000	0.025	-0.165
-333.245	-1.574	0.345	0.241
-332.231	358.316	0.073	-0.145
-331.216	-200.000	0.010	0.357
-330.202	676.652	-0.149	0.383
-329.187	90.837	-0.144	0.160
-328.172	-93.511	0.215	-0.059
-327.158	-200.000	0.066	-0.298
-326.143	-51.091	-0.192	0.089
-325.129	800.000	0.033	0.132
-324.114	-101.246	0.364	-0.088
-323.099	319.306	0.131	0.245
-322.085	-25.487	0.310	-0.181
-321.070	24.839	-0.080	0.066
-320.056	800.000	0.088	0.299
-319.041	463.247	-0.038	0.084
-318.026	-8.186	0.223	0.149
-317.012	-115.372	0.315	0.059
-315.997	-200.000	0.000	0.354
-314.983	800.000	0.098	-0.285
-313.968	-4.516	0.075	-0.051
-312.953	-19.073	-0.287	-0.177
-311.939	17.520	0.290	-0.228
-310.924	-34.551	-0.170	0.092
-309.910	-99.252	-0.099	-0.025
-308.895	64.359	-0.241	0.240
-307.880	800.000	0.163	0.463
-306.866	21.624	-0.330	0.266
-305.851	109.530	-0.186	-0.221
-304.837	188.094	0.054	0.080
-303.822	40.728	-0.158	-0.141
-302.807	454.235	-0.102	0.224
-301.793	-200.000	0.001	-0.043
-300.778	-136.969	-0.261	-0.030
-299.764	-74.709	0.032	-0.011
-298.749	-166.432	0.326	-0.014
-297.735	573.850	0.103	-0.248
-296.720	-161.319	-0.153	0.008
-295.705	-142.040	0.213	-0.021
-294.691	-46.603	0.330	-0.160
-293.676	138.980	-0.136	-0.177
-292.662	-111.651	-0.248	0.050
-291.647	-111.384	0.182	-0.037
-290.632	-149.460	0.208	0.016
-289.618	266.901	0.111	-0.191
-288.603	16.816	0.286	0.224
-287.589	87.525	-0.128	0.140
-286.574	335.837	0.179	-0.342
-285.559	84.226	0.233	-0.251
-284.545	125.432	0.255	-0.319
-283.530	-64.887	-0.312	-0.125
-282.516	53.954	0.084	-0.080
-281.501	-200.000	-0.045	0.450
-280.486	-197.485	-0.316	-0.002
-279.472	-200.000	-0.002	0.172
-278.457	-200.000	0.030	0.277
-277.443	678.130	0.093	0.238
-276.428	25.728	0.248	0.204
-275.413	-55.322	-0.343	-0.152
-274.399	7.436	0.169	-0.125
-273.384	123.564	0.132	0.163
-272.370	556.028	-0.146	-0.348
-271.355	-118.103	0.223	0.039
-270.340	4.539	-0.144	-0.105
-269.326	-200.000	-0.034	-0.183
-268.311	8.441	-0.206	0.153
-267.297	-17.480	-0.376	0.233
-266.282	800.000	0.021	0.064
-265.267	192.576	-0.081	0.121
-264.253	-4.400	-0.063	0.043
-263.238	-200.000	0.005	0.077
-262.224	268.671	0.068	0.118
-261.209	-200.000	-0.037	0.188
-260.195	-42.090	-0.086	-0.043
-259.180	202.303	-0.110	0.168
-258.165	-67.815	-0.127	0.049
-257.151	-200.000	-0.006	0.090
-256.136	-125.901	0.252	0.038
-255.122	-200.000	0.118	-0.000
-254.107	-200.000	0.028	0.211
-253.092	-200.000	-0.005	0.062
-252.078	153.228	-0.044	0.060
-251.063	115.469	-0.109	0.131
-250.049	420.813	0.057	0.120
-249.034	800.000	0.038	0.107
-248.019	-200.000	-0.009	0.221
-247.005	-200.000	-0.036	-0.230
-245.990	-100.871	-0.407	0.099
-244.976	-41.387	-0.162	0.082
-243.961	5.918	0.269	0.197
-242.946	-98.637	-0.100	-0.025
-241.932	-200.000	-0.047	0.254
-240.917	-73.892	-0.410	0.147
-239.903	-200.000	0.104	0.000
-238.888	-80.052	-0.043	-0.014
-237.873	143.130	-0.115	-0.151
-236.859	-71.288	0.146	0.054
-235.844	20.439	0.218	-0.174
-234.830	800.000	0.070	-0.218
-233.815	98.948	-0.147	0.167
-232.800	-75.553	0.567	0.199
-231.786	361.404	0.171	-0.338
-230.771	-85.159	-0.201	-0.062
-229.757	10.758	-0.100	0.076
-228.742	719.213	0.083	-0.217
-227.727	-70.023	0.255	0.096
-226.713	-77.072	-0.195	0.067
-225.698	113.500	0.128	-0.154
-224.684	-31.003	-0.503	-0.280
-223.669	-80.828	0.460	0.151
-222.655	154.439	0.144	0.195
-221.640	-200.000	-0.057	-0.287
-220.625	412.922	-0.102	-0.214
-219.611	361.434	0.081	0.159
-218.596	286.072	0.056	-0.100
-217.582	254.982	0.117	0.197
-216.567	75.198	-0.203	0.211
-215.552	-83.719	0.082	-0.026
-214.538	740.246	0.162	0.430
-213.523	-1.317	0.043	0.030
-212.509	-49.619	-0.091	0.043
-211.494	-76.457	-0.120	-0.042
-210.479	187.639	-0.323	0.475
-209.465	-69.854	-0.169	-0.064
-208.450	800.000	0.050	-0.190
-207.436	410.444	-0.071	0.148
-206.421	621.098	-0.050	0.123
-205.406	-12.996	-0.170	0.109
-204.392	53.049	0.229	0.216
-203.377	-63.736	0.213	-0.086
-202.363	-200.000	-0.092	-0.488
-201.348	-140.252	0.226	0.023
-200.333	390.655	-0.114	0.234
-199.319	-73.060	-0.254	-0.092
-198.304	130.023	0.117	-0.147
-197.290	-200.000	-0.123	0.000
-196.275	175.612	0.203	0.290
-195.260	800.000	0.101	-0.279
-194.246	-75.910	-0.381	0.133
-193.231	65.684	0.243	-0.243
-192.217	-147.980	-0.094	-0.008
-191.202	11.334	-0.207	0.156
-190.187	104.547	-0.159	0.184
-189.173	-200.000	-0.026	-0.289
-188.158	-114.951	0.390	-0.073
-187.144	800.000	-0.027	-0.112
-186.129	800.000	0.082	-0.320
-185.114	94.353	0.149	-0.167
-184.100	-67.829	-0.075	-0.029
-183.085	151.700	-0.060	-0.081
-182.071	800.000	0.094	-0.273
-181.056	-154.565	-0.149	0.010
-180.042	-200.000	0.004	-0.116
-179.027	183.700	0.092	-0.134
-178.012	800.000	0.026	0.083
-176.998	-166.261	0.190	-0.008
-175.983	-200.000	-0.039	-0.291
-174.969	-29.546	0.293	-0.165
-173.954	-23.427	0.147	-0.087
-172.939	-104.881	0.154	-0.035
-171.925	41.403	0.102	0.091
-170.910	800.000	0.047	0.140
-169.896	91.348	0.138	0.152
-168.881	800.000	0.068	0.254
-167.866	-200.000	-0.040	0.252
-166.852	202.622	-0.065	-0.100
-165.837	800.000	0.060	-0.191
-164.823	800.000	-0.010	-0.027
-163.808	33.704	0.021	0.018
-162.793	800.000	0.076	0.221
-161.779	-113.249	-0.146	0.028
-160.764	73.662	-0.220	0.227
-159.750	800.000	0.028	0.084
-158.735	286.305	0.104	0.185
-157.720	-74.777	0.402	0.142
-156.706	800.000	0.026	-0.098
-155.691	-58.401	-0.147	0.063
-154.677	-138.252	0.245	0.027
-153.662	24.349	0.050	0.041
-152.647	-97.370	-0.101	0.026
-151.633	-34.456	0.053	0.029
-150.618	75.998	0.376	0.392
-149.604	-48.219	0.126	0.060
-148.589	800.000	-0.048	0.192
-147.574	106.983	0.121	-0.141
-146.560	-69.092	-0.229	-0.087
-145.545	0.866	0.208	-0.146
-144.531	488.304	0.136	0.306
-143.516	-200.000	0.005	0.278
-142.502	26.047	0.262	-0.215
-141.487	-79.921	0.178	-0.059
-140.472	144.613	-0.402	-0.528
-139.458	383.115	0.153	-0.309
-138.443	114.692	-0.017	-0.020
-137.429	-120.565	0.176	0.029
-136.414	109.965	0.169	-0.200
-135.399	-105.682	0.483	0.107
-134.385	264.757	-0.128	-0.219
-133.370	126.321	-0.321	0.399
-132.356	-2.063	0.028	0.019
-131.341	-30.841	0.201	-0.112
-130.326	-99.543	0.272	0.067
-129.312	-14.533	0.184	0.116
-128.297	-200.000	-0.014	0.275
-127.283	-34.901	0.313	0.168
-126.268	-122.205	0.248	-0.040
-125.253	30.637	0.140	0.118
-124.239	-70.028	-0.180	-0.067
-123.224	-8.070	0.083	0.055
-122.210	-200.000	0.029	-0.146
-121.195	62.378	-0.052	0.051
-120.180	67.116	0.099	-0.099
-119.166	-200.000	0.020	0.174
-118.151	-91.045	0.179	0.051
-117.137	-200.000	0.033	-0.159
-116.122	42.520	0.152	-0.136
-115.107	320.458	0.024	-0.045
-114.093	-118.804	0.254	0.044
-113.078	457.925	-0.023	-0.050
-112.064	-154.605	0.120	-0.008
-111.049	-3.055	0.263	0.181
-110.034	-112.113	-0.087	0.017
-109.020	-200.000	-0.008	0.115
-108.005	92.806	0.067	0.074
-106.991	-116.867	0.251	-0.045
-105.976	800.000	-0.058	-0.212
-104.962	-200.000	-0.012	0.392
-103.947	487.475	0.070	-0.157
-102.932	636.947	0.057	-0.141
-101.918	-36.365	-0.067	-0.036
-100.903	139.393	-0.169	-0.218
-99.889	321.462	-0.103	0.192
-98.874	54.429	-0.163	0.154
-97.859	-109.717	0.238	-0.049
-96.845	103.921	-0.077	0.089
-95.830	800.000	0.050	-0.154
-94.816	378.813	0.218	-0.439
-93.801	11.083	0.243	-0.182
-92.786	-200.000	0.049	0.316
-91.772	-147.439	-0.358	0.030
-90.757	136.535	-0.232	-0.298
-89.743	220.606	-0.166	-0.262
-88.728	60.180	-0.198	0.192
-87.713	-142.030	0.400	-0.039
-86.699	-200.000	0.005	-0.374
-85.684	800.000	0.134	0.378
-84.670	-12.433	-0.110	0.070
-83.655	-200.000	0.003	0.395
-82.640	800.000	0.104	0.291
-81.626	-93.635	0.212	-0.057
-80.611	186.422	-0.136	-0.199
-79.597	-126.619	0.144	0.021
-78.582	8.038	0.112	-0.082
-77.567	-134.005	-0.219	0.027
-76.553	29.651	-0.273	-0.228
-75.538	-12.538	-0.262	0.167
-74.524	122.027	0.059	-0.072
-73.509	751.922	0.025	0.065
-72.494	-200.000	-0.091	0.425
-71.480	-200.000	0.029	-0.145
-70.465	20.686	-0.132	0.104
-69.451	-87.291	-0.121	-0.036
-68.436	293.857	0.189	0.339
-67.422	20.552	0.069	-0.055
-66.407	-200.000	-0.100	0.439
-65.392	27.198	-0.115	-0.095
-64.378	-36.092	0.125	0.066
-63.363	108.746	-0.216	0.253
-62.349	41.881	0.156	0.138
-61.334	115.158	-1.010	-1.209
-60.319	327.071	0.344	0.647
-59.305	761.930	-0.439	-1.166
-58.290	800.000	0.357	1.390
-57.276	321.101	0.551	1.026
-56.261	-200.000	102.181	616.477
-55.246	531.388	1460.380	3384.353
-54.232	183.395	2655.388	3845.450
-53.217	114.015	2169.401	2585.556
-52.203	41.223	1694.429	1500.839
-51.188	33.592	1504.516	1281.259
-50.173	31.332	1477.606	1243.276
-49.159	52.185	1531.304	1430.275
-48.144	52.864	1549.080	1451.426
-47.130	33.851	1506.491	1284.490
-46.115	30.774	1491.312	1250.862
-45.100	30.550	1487.743	1246.314
-44.086	30.630	1485.206	1244.674
-43.071	30.484	1483.618	1242.319
-42.057	30.422	1481.979	1240.485
-41.042	30.433	1480.677	1239.415
-40.027	30.450	1479.355	1238.379
-39.013	30.538	1476.943	1236.893
-37.998	30.448	1476.688	1236.032
-36.984	30.467	1475.220	1234.878
-35.969	30.468	1473.995	1233.814
-34.954	30.481	1472.141	1232.298
-33.940	30.444	1471.280	1231.286
-32.925	30.440	1470.067	1230.190
-31.911	30.469	1468.571	1229.082
-30.896	30.569	1467.395	1228.709
-29.881	30.645	1465.602	1227.661
-28.867	30.586	1464.734	1226.500
-27.852	30.522	1463.239	1224.777
-26.838	30.498	1461.914	1223.462
-25.823	30.550	1460.176	1222.298
-24.809	30.556	1458.384	1220.789
-23.794	30.653	1456.924	1220.155
-22.779	30.490	1456.009	1218.269
-21.765	30.535	1454.732	1217.448
-20.750	30.564	1453.964	1216.946
-19.736	30.618	1452.572	1216.087
-18.721	30.562	1451.484	1214.767
-17.706	30.504	1450.951	1213.893
-16.692	30.587	1449.219	1212.937
-15.677	30.554	1448.422	1212.008
-14.663	30.522	1447.664	1211.114
-13.648	30.450	1446.690	1209.782
-12.633	30.475	1445.699	1209.069
-11.619	30.445	1445.502	1208.660
-10.604	30.393	1444.750	1207.645
-9.590	30.480	1443.386	1207.019
-8.575	30.418	1442.932	1206.190
-7.560	30.549	1441.450	1205.756
-6.546	30.436	1440.970	1204.570
-5.531	30.329	1440.403	1203.359
-4.517	30.422	1439.362	1203.041
-3.502	30.440	1438.170	1202.114
-2.487	30.429	1437.426	1201.371
-1.473	30.435	1435.911	1200.097
-0.458	30.329	1435.084	1198.677
0.556	28.096	1425.196	1187.554
1.571	25.080	1398.852	1146.245
2.586	21.706	1338.222	1075.788
3.600	19.990	1257.022	1000.521
4.615	18.900	1212.688	959.069
5.629	16.329	1157.983	902.006
6.644	7.834	1074.459	794.607
7.659	0.891	1034.337	731.398
8.673	-0.174	1029.131	722.531
9.688	-0.358	1025.941	719.344
10.702	-0.487	1025.234	718.169
11.717	-0.211	1021.857	717.056
12.731	2.654	1025.522	733.281
13.746	11.602	1038.435	785.633
14.761	18.113	1046.744	823.305
15.775	19.381	1046.962	829.509
16.790	19.517	1046.572	829.782
17.804	19.264	1045.908	827.967
18.819	19.033	1045.085	826.128
19.834	19.251	1044.216	826.416
20.848	19.281	1043.952	826.279
21.863	19.282	1043.556	825.898
22.877	19.206	1043.394	825.329
23.892	19.273	1042.133	824.583
24.907	19.136	1041.056	822.999
25.921	19.245	1040.556	823.054
26.936	19.258	1040.165	822.735
27.950	19.197	1039.071	821.507
28.965	19.336	1037.450	820.813
29.980	19.152	1035.707	818.485
30.994	19.035	1034.727	817.083
32.009	19.247	1033.996	817.439
33.023	19.418	1032.924	817.329
34.038	19.160	1031.547	814.947
35.053	19.017	1031.245	813.960
36.067	19.276	1030.666	814.657
37.082	19.262	1029.434	813.545
38.096	19.423	1028.682	813.636
39.111	19.430	1028.446	813.412
40.126	19.426	1027.667	812.703
41.140	19.394	1026.002	811.166
42.155	19.214	1024.722	809.234
43.169	19.000	1023.294	807.034
44.184	18.928	1022.822	806.253
45.199	19.013	1021.352	805.420
46.213	18.982	1020.342	804.409
47.228	18.977	1019.080	803.316
48.242	19.040	1018.506	803.088
49.257	19.075	1017.693	802.542
50.271	19.217	1016.476	802.168
51.286	19.229	1016.069	801.836
52.301	19.264	1015.072	801.141
53.315	19.336	1014.096	800.634
54.330	19.322	1013.125	799.728
55.344	19.179	1012.534	798.527
56.359	19.298	1011.363	798.085
57.374	19.273	1010.822	797.474
58.388	19.168	1009.604	795.956
59.403	19.075	1008.729	794.765
60.417	19.209	1007.967	794.713
61.432	18.927	1007.095	792.658
62.447	18.953	1006.465	792.208
63.461	19.001	1006.075	792.053
64.476	19.213	1004.477	791.703
65.490	19.077	1004.224	790.805
66.505	19.090	1002.947	789.793
67.520	19.177	1002.082	789.438
68.534	19.023	1001.828	788.460
69.549	19.094	1000.335	787.543
70.563	18.765	999.007	784.924
71.578	18.641	998.355	783.778
72.593	18.699	997.698	783.457
73.607	18.754	996.348	782.578
74.622	18.597	995.673	781.262
75.636	18.842	995.471	782.148
76.651	19.097	994.374	782.376
77.666	18.913	993.136	780.500
78.680	18.836	992.531	779.606
79.695	18.893	991.974	779.356
80.709	18.901	991.588	779.020
81.724	18.992	990.680	778.651
82.739	18.899	989.861	777.518
83.753	18.811	989.161	776.500
84.768	19.215	988.385	777.649
85.782	19.288	987.872	777.504
86.797	19.556	986.723	777.740
87.812	19.464	985.936	776.635
88.826	19.459	984.495	775.408
89.841	19.415	983.953	774.715
90.855	19.514	983.296	774.573
91.870	19.494	982.410	773.721
92.884	19.385	981.648	772.565
93.899	19.295	980.387	771.097
94.914	19.341	979.643	770.651
95.928	19.468	978.780	770.472
96.943	19.460	977.431	769.306
97.957	19.203	976.907	767.678
98.972	18.951	975.966	765.752
99.987	18.744	974.628	763.714
101.001	18.696	974.711	763.496
102.016	19.133	974.193	764.964
103.030	19.373	972.462	764.603
104.045	19.185	971.413	762.877
105.060	19.029	970.196	761.164
106.074	18.740	969.296	759.111
107.089	18.926	968.465	759.216
108.103	19.397	968.117	760.953
109.118	19.439	967.124	760.293
110.133	19.013	966.607	757.940
111.147	19.236	965.267	757.804
112.162	19.147	963.627	756.059
113.176	18.868	962.977	754.257
114.191	18.870	962.499	753.827
115.206	19.052	961.061	753.430
116.220	18.715	960.137	751.167
117.235	18.585	959.397	749.952
118.249	18.797	958.648	750.226
119.264	18.720	957.726	749.102
120.279	18.807	956.252	748.263
121.293	18.959	955.165	748.007
122.308	18.911	955.125	747.699
123.322	18.829	954.800	747.024
124.337	18.890	953.175	745.948
125.352	18.772	951.936	744.401
126.366	18.360	950.108	741.126
127.381	18.110	948.359	738.615
128.395	18.716	948.224	741.063
129.410	19.161	947.692	742.500
130.424	19.344	946.963	742.652
131.439	19.423	945.836	742.040
132.454	19.171	944.821	740.097
133.468	19.151	944.348	739.575
134.483	19.182	943.346	738.856
135.497	19.360	942.501	738.894
136.512	19.458	942.064	738.907
137.527	19.584	941.405	738.860
138.541	19.519	940.212	737.580
139.556	19.544	939.473	737.044
140.570	19.478	938.647	736.051
141.585	19.470	937.773	735.266
142.600	19.446	937.306	734.730
143.614	19.413	936.194	733.655
144.629	19.651	935.118	733.756
145.643	19.782	934.447	733.720
146.658	19.626	933.551	732.291
147.673	19.464	932.688	730.862
148.687	19.312	931.921	729.554
149.702	19.430	930.520	728.893
150.716	19.344	929.497	727.666
151.731	19.298	928.554	726.667
152.746	19.379	927.983	726.499
153.760	19.554	927.388	726.704
154.775	19.629	926.803	726.496
155.789	19.631	925.756	725.621
156.804	19.590	925.085	724.856
157.819	19.605	923.754	723.812
158.833	19.554	923.079	723.006
159.848	19.702	922.369	723.007
160.862	19.740	921.348	722.299
161.877	19.525	921.066	721.118
162.892	19.601	919.926	720.476
163.906	19.853	919.010	720.747
164.921	19.722	918.414	719.669
165.935	19.645	917.204	718.338
166.950	19.677	916.092	717.538
167.964	19.665	915.021	716.585
168.979	19.758	914.138	716.215
169.994	19.562	913.016	714.463
171.008	19.555	912.001	713.575
172.023	19.578	911.387	713.126
173.037	19.656	910.997	713.082
174.052	19.476	909.570	711.159
175.067	19.313	908.657	709.710
176.081	19.369	907.763	709.182
177.096	19.509	907.182	709.238
178.110	19.434	906.249	708.138
179.125	19.361	904.997	706.797
180.140	19.100	903.808	704.739
181.154	19.100	903.586	704.505
182.169	19.193	902.565	704.027
183.183	19.382	902.365	704.578
184.198	19.782	901.744	705.666
185.213	19.520	901.223	704.127
186.227	19.588	900.485	703.762
187.242	19.657	899.604	703.293
188.256	19.863	899.042	703.630
189.271	19.680	898.326	702.266
190.286	19.712	897.591	701.757
191.300	19.561	896.937	700.571
192.315	19.217	895.191	697.753
193.329	18.623	894.135	694.463
194.344	18.249	893.232	692.190
195.359	18.882	893.131	694.608
196.373	19.400	893.996	697.316
197.388	19.729	893.113	697.892
198.402	19.507	892.564	696.508
199.417	19.459	891.884	695.721
200.432	19.467	891.372	695.292
201.446	19.401	890.506	694.290
202.461	19.078	889.717	692.313
203.475	19.077	889.492	692.074
204.490	18.673	888.162	689.354
205.504	17.568	886.125	683.282
206.519	18.163	886.041	685.545
207.534	19.164	886.273	689.674
208.548	19.114	886.085	689.266
209.563	19.526	885.678	690.538
210.577	19.485	885.049	689.821
211.592	19.252	884.206	688.171
212.607	19.542	884.117	689.199
213.621	19.580	883.404	688.734
214.636	19.667	882.163	688.053
215.650	19.664	882.074	687.910
216.665	19.729	881.013	687.279
217.680	19.798	880.554	687.134
218.694	19.786	880.510	686.992
219.709	19.324	880.043	684.735
220.723	19.048	878.340	682.252
221.738	19.158	878.361	682.647
222.753	19.532	877.436	683.347
223.767	19.462	877.146	682.782
224.782	19.600	875.711	682.152
225.796	19.645	875.606	682.186
226.811	19.715	874.699	681.695
227.826	19.456	873.492	679.675
228.840	18.746	871.970	675.639
229.855	18.651	871.557	674.886
230.869	18.945	871.079	675.611
231.884	18.703	869.913	673.697
232.899	18.698	869.786	673.519
233.913	19.509	869.847	676.687
234.928	19.681	869.349	676.911
235.942	19.645	868.801	676.285
236.957	19.523	867.949	675.086
237.972	19.349	867.210	673.771
238.986	19.315	866.099	672.717
240.001	19.393	865.547	672.532
241.015	19.255	865.168	671.642
242.030	19.434	864.019	671.385
243.045	19.570	863.742	671.638
244.059	19.445	863.585	670.972
245.074	19.797	862.643	671.546
246.088	19.610	861.664	670.000
247.103	19.352	860.648	668.152
248.117	19.194	860.272	667.188
249.132	19.736	859.935	668.965
250.147	19.997	859.736	669.764
251.161	20.088	858.928	669.425
252.176	20.305	858.669	670.001
253.190	20.255	857.582	668.902
254.205	20.287	857.618	668.994
255.220	20.407	857.203	669.073
256.234	20.489	856.140	668.499
257.249	20.328	855.717	667.493
258.263	20.238	855.059	666.573
259.278	20.243	854.298	665.939
260.293	20.357	853.681	665.836
261.307	20.331	853.360	665.429
262.322	20.167	852.528	664.092
263.336	20.194	851.833	663.595
264.351	19.646	850.561	660.452
265.366	18.568	848.581	654.742
266.380	18.155	847.922	652.601
267.395	19.115	848.166	656.394
268.409	19.864	848.142	659.171
269.424	19.840	847.445	658.478
270.439	20.077	846.964	658.948
271.453	20.229	846.032	658.743
272.468	20.221	845.553	658.281
273.482	20.320	845.372	658.459
274.497	20.552	844.419	658.538
275.512	20.363	843.080	656.718
276.526	19.730	842.193	653.579
277.541	19.945	841.902	654.108
278.555	20.258	841.992	655.301
279.570	19.990	840.878	653.364
280.585	19.701	839.925	651.479
281.599	19.900	839.517	651.853
282.614	20.140	839.031	652.319
283.628	19.640	837.872	649.482
284.643	19.400	837.055	647.889
285.657	19.916	836.847	649.611
286.672	19.607	836.230	647.915
287.687	19.112	835.353	645.322
288.701	19.580	835.333	647.002
289.716	19.980	834.867	648.082
290.730	19.591	834.021	645.914
291.745	19.455	833.353	644.832
292.760	19.318	832.254	643.411
293.774	19.122	831.889	642.342
294.789	20.018	832.624	646.198
295.803	20.686	832.064	648.196
296.818	20.672	831.604	647.727
297.833	20.798	831.260	647.869
298.847	20.632	830.125	646.312
299.862	20.302	828.805	644.002
300.876	20.503	828.618	644.547
301.891	20.703	828.144	644.861
302.906	20.664	827.805	644.397
303.920	20.208	826.059	641.294
304.935	20.072	825.785	640.522
305.949	20.449	825.435	641.588
306.964	20.585	825.004	641.698
307.979	20.488	824.252	640.697
308.993	20.506	824.049	640.548
310.008	20.699	823.690	640.923
311.022	20.936	823.088	641.273
312.037	20.612	822.600	639.642
313.052	20.586	821.919	638.962
314.066	20.403	821.284	637.739
315.081	19.814	820.022	634.543
316.095	19.180	818.456	630.953
317.110	19.703	818.636	632.951
318.125	20.522	819.136	636.282
319.139	20.009	818.317	633.714
320.154	19.046	816.426	628.674
321.168	18.648	816.052	626.876
322.183	19.297	815.860	629.046
323.197	20.122	815.842	631.985
324.212	20.370	815.454	632.532
325.227	20.433	814.968	632.328
326.241	20.688	814.810	633.078
327.256	20.618	814.136	632.244
328.270	20.384	813.489	630.833
329.285	20.491	812.960	630.756
330.300	20.302	812.466	629.631
331.314	20.066	811.071	627.643
332.329	20.092	810.857	627.512
333.343	20.618	809.826	628.561
334.358	20.683	809.929	628.819
335.373	20.653	809.486	628.315
336.387	20.734	808.661	627.908
337.402	20.906	808.697	628.501
338.416	20.997	807.937	628.184
339.431	21.017	807.075	627.531
340.446	20.895	806.466	626.561
341.460	21.290	805.879	627.469
342.475	21.043	805.801	626.467
343.489	20.950	804.750	625.261
344.504	20.788	804.573	624.486
345.519	21.204	804.287	625.700
346.533	21.369	803.725	625.799
347.548	21.410	803.317	625.571
348.562	21.419	803.063	625.349
349.577	21.338	802.712	624.733
350.592	21.418	802.063	624.457
351.606	21.365	801.730	623.955
352.621	21.390	801.022	623.436
353.635	21.320	800.917	623.050
354.650	21.188	800.165	621.942
355.665	20.879	798.932	619.827
356.679	19.966	797.701	615.574
357.694	19.748	796.999	614.203
358.708	20.365	796.893	616.257
359.723	20.263	796.404	615.462
360.738	20.599	796.115	616.377
361.752	20.972	796.431	617.889
362.767	21.093	795.764	617.746
363.781	21.198	795.608	617.940
364.796	21.494	794.940	618.416
365.810	21.568	794.683	618.423
366.825	21.591	794.314	618.161
367.840	21.614	794.222	618.114
368.854	21.393	793.279	616.549
369.869	20.986	792.673	614.590
370.883	20.920	792.057	613.825
371.898	21.211	791.537	614.392
372.913	21.059	790.376	612.899
373.927	20.905	790.045	612.048
374.942	21.246	789.439	612.720
375.956	21.218	789.233	612.411
376.971	21.508	788.080	612.475
377.986	21.298	788.356	611.902
379.000	21.606	787.605	612.340
380.015	21.615	787.279	612.067
381.029	21.316	786.752	610.555
382.044	21.417	785.859	610.161
383.059	21.517	785.478	610.159
384.073	21.734	784.844	610.369
385.088	21.736	784.064	609.717
386.102	21.607	784.262	609.369
387.117	21.401	783.650	608.123
388.132	21.417	782.889	607.532
389.146	21.424	782.149	606.929
390.161	20.780	781.480	604.124
391.175	20.946	780.755	604.083
392.190	21.452	780.829	605.839
393.205	21.365	780.027	604.864
394.219	20.379	778.557	600.262
395.234	19.089	776.457	594.142
396.248	18.290	775.945	590.940
397.263	19.430	776.730	595.423
398.278	21.111	777.862	602.043
399.292	21.493	777.858	603.302
400.307	21.172	777.210	601.640
401.321	21.077	776.761	600.912
402.336	21.212	776.292	600.962
403.350	21.480	776.178	601.744
404.365	21.796	775.777	602.462
405.380	22.150	775.656	603.532
406.394	22.349	775.493	604.036
407.409	22.399	775.274	603.983
408.423	22.375	774.319	603.102
409.438	22.193	774.000	602.179
410.453	22.180	773.561	601.738
411.467	22.428	773.162	602.224
412.482	22.322	772.632	601.395
413.496	22.337	771.794	600.740
414.511	22.415	771.795	600.954
415.526	22.325	771.776	600.580
416.540	22.427	770.808	600.122
417.555	22.217	770.687	599.260
418.569	21.985	769.901	597.802
419.584	22.025	769.291	597.415
420.599	21.986	768.713	596.778
421.613	158.666	1361.021	1798.865
422.628	136.782	1447.337	1798.963
