DTS Sentinel unit serial number:	SN413079Multiplexer serial number:	ORYXHardware model number:	OX4-SRSoftware version number:	ORYX F/W v4.00 Oryx Data Collector v3.7.2.0data status	okinstallation	princeton_trtdifferential loss correction	single-endedforward channel	channel 3reverse channel	N/Adate	2019/09/10time	18:30:10forward acquisition time	60.00reverse acquisition time	0.00gamma	496.2192k internal	0.2306k external	0.2306temperature offset calibration	0.9916default loss term (dB/km)	0.3790temperature slope calibration	1.0000multiplexer offset coefficient	1.0000multiplexer slope coefficient	1.0000fibre end	0.00T internal ref (°C)	35.87T ext. ref 1 (°C)	-0.36T ext. ref 2 (°C)	27.97length (m)	temperature (°C)	Stokes	anti-Stokes-747.200	-99.749	0.274	0.070
-746.185	-200.000	0.003	0.184
-745.171	-106.510	0.127	0.029
-744.156	-25.559	-0.275	-0.165
-743.142	-69.450	-0.217	0.085
-742.127	193.397	-0.192	0.295
-741.112	301.192	0.122	0.230
-740.098	-108.932	0.123	-0.027
-739.083	800.000	-0.059	-0.229
-738.069	48.523	0.227	-0.216
-737.054	670.902	0.040	-0.106
-736.039	-124.244	-0.198	0.032
-735.025	800.000	0.104	0.347
-734.010	-118.222	-0.280	0.051
-732.996	-135.618	-0.356	-0.043
-731.981	-179.824	0.186	-0.004
-730.966	-200.000	-0.056	0.262
-729.952	311.187	-0.029	-0.054
-728.937	-111.529	-0.120	0.025
-727.923	-83.786	-0.125	0.041
-726.908	183.208	-0.094	-0.140
-725.894	446.111	-0.082	0.184
-724.879	28.803	0.129	0.111
-723.864	-62.601	-0.386	0.163
-722.850	800.000	0.038	-0.123
-721.835	619.213	0.092	-0.236
-720.821	-192.830	-0.294	-0.003
-719.806	800.000	-0.106	-0.314
-718.791	-4.123	-0.150	-0.105
-717.777	-200.000	-0.002	-0.353
-716.762	-136.901	0.402	-0.047
-715.748	233.827	0.128	0.215
-714.733	734.168	-0.064	0.173
-713.718	11.743	-0.118	-0.092
-712.704	-200.000	0.065	0.321
-711.689	176.633	-0.151	0.223
-710.675	-72.509	-0.129	0.049
-709.660	67.026	-0.179	-0.185
-708.645	289.302	0.127	0.234
-707.631	32.170	-0.054	0.048
-706.616	-200.000	-0.036	0.165
-705.602	-104.335	0.385	0.091
-704.587	19.320	0.134	-0.109
-703.572	-166.111	-0.033	0.001
-702.558	-118.754	-0.045	-0.008
-701.543	-200.000	-0.063	0.280
-700.529	800.000	0.082	0.282
-699.514	-200.000	0.034	0.232
-698.499	800.000	-0.049	-0.177
-697.485	538.338	-0.030	0.073
-696.470	-166.333	0.186	0.008
-695.456	275.473	-0.088	-0.159
-694.441	325.118	-0.086	-0.168
-693.426	-23.158	-0.245	0.150
-692.412	-200.000	0.002	-0.137
-691.397	-200.000	0.058	-0.271
-690.383	-41.897	0.327	0.170
-689.368	67.809	0.173	-0.179
-688.354	452.558	-0.097	-0.217
-687.339	800.000	0.062	-0.257
-686.324	-47.013	-0.179	0.089
-685.310	73.177	0.218	-0.231
-684.295	2.656	-0.033	0.024
-683.281	308.820	0.170	-0.322
-682.266	781.063	-0.056	0.157
-681.251	3.177	-0.106	-0.078
-680.237	800.000	-0.062	-0.252
-679.222	164.319	-0.086	-0.123
-678.208	-9.929	-0.169	-0.114
-677.193	-91.744	-0.268	0.077
-676.178	-77.112	0.239	-0.085
-675.164	-200.000	0.029	-0.202
-674.149	-200.000	-0.016	-0.487
-673.135	150.004	-0.076	-0.105
-672.120	-127.733	-0.234	0.034
-671.105	-51.038	0.075	0.036
-670.091	82.242	0.304	0.334
-669.076	-100.727	-0.372	0.093
-668.062	-75.473	-0.294	-0.106
-667.047	207.955	-0.089	0.141
-666.032	-115.781	-0.332	0.063
-665.018	-77.381	-0.246	0.087
-664.003	800.000	0.053	0.189
-662.989	-200.000	-0.006	0.245
-661.974	72.700	-0.078	-0.082
-660.959	-46.045	0.174	-0.087
-659.945	-1.729	0.394	-0.281
-658.930	-37.060	-0.291	-0.158
-657.916	104.939	0.252	0.301
-656.901	98.306	0.189	0.221
-655.886	370.964	0.177	0.364
-654.872	625.842	0.037	0.095
-653.857	146.641	-0.096	-0.130
-652.843	467.551	-0.231	0.524
-651.828	139.770	-0.083	0.111
-650.814	568.531	-0.070	0.173
-649.799	-200.000	-0.041	0.218
-648.784	-200.000	0.059	-0.359
-647.770	800.000	-0.020	-0.090
-646.755	176.625	0.171	-0.252
-645.741	-10.498	0.099	-0.067
-644.726	48.373	0.092	-0.088
-643.711	-174.325	0.088	-0.003
-642.697	317.771	0.173	0.331
-641.682	800.000	0.045	-0.135
-640.668	-108.144	0.195	-0.043
-639.653	-68.240	0.065	-0.026
-638.638	-6.361	0.252	-0.174
-637.624	800.000	0.030	-0.123
-636.609	240.314	0.092	0.155
-635.595	-200.000	0.027	0.161
-634.580	-32.411	0.063	-0.036
-633.565	-22.095	-0.143	-0.088
-632.551	-62.776	0.310	0.130
-631.536	-36.707	-0.095	0.052
-630.522	-200.000	0.056	-0.266
-629.507	11.632	0.212	-0.164
-628.492	-83.830	-0.356	0.115
-627.478	-64.965	0.333	-0.136
-626.463	-34.977	0.200	0.111
-625.449	505.151	-0.055	-0.130
-624.434	-71.894	0.221	-0.083
-623.419	536.559	-0.115	0.276
-622.405	42.334	-0.213	0.196
-621.390	620.171	-0.059	0.150
-620.376	137.288	0.139	0.184
-619.361	-200.000	-0.000	-0.247
-618.346	-55.272	0.058	-0.026
-617.332	735.706	0.029	-0.079
-616.317	-128.825	-0.104	0.015
-615.303	528.110	0.062	-0.148
-614.288	175.876	0.090	-0.133
-613.273	-117.009	-0.096	-0.018
-612.259	-95.030	-0.088	-0.024
-611.244	-70.579	0.306	-0.117
-610.230	-200.000	-0.029	0.142
-609.215	163.584	-0.053	-0.076
-608.201	331.286	0.253	-0.493
-607.186	157.534	0.235	0.329
-606.171	-16.308	-0.081	0.052
-605.157	800.000	0.081	-0.271
-604.142	-100.047	-0.124	0.031
-603.128	-144.347	0.168	0.016
-602.113	-2.618	0.220	-0.156
-601.098	683.736	-0.038	-0.101
-600.084	-118.423	-0.160	0.029
-599.069	-78.015	-0.474	0.165
-598.055	212.773	-0.133	0.212
-597.040	-25.638	0.149	-0.089
-596.025	-118.940	0.172	0.030
-595.011	-54.302	-0.276	0.127
-593.996	-200.000	0.033	-0.386
-592.982	800.000	-0.015	-0.061
-591.967	-83.033	-0.222	-0.072
-590.952	20.286	0.156	-0.128
-589.938	800.000	-0.106	-0.357
-588.923	-200.000	0.046	-0.347
-587.909	-200.000	-0.029	-0.226
-586.894	800.000	0.045	0.145
-585.879	800.000	-0.161	-0.541
-584.865	-86.642	0.076	-0.023
-583.850	-52.012	-0.177	-0.083
-582.836	137.047	-0.100	-0.132
-581.821	36.275	-0.228	0.203
-580.806	-77.806	0.226	-0.079
-579.792	-200.000	0.065	-0.462
-578.777	37.977	-0.241	-0.217
-577.763	236.567	-0.117	-0.195
-576.748	-97.409	-0.252	-0.066
-575.733	22.974	0.043	-0.036
-574.719	-23.602	-0.141	0.085
-573.704	37.643	-0.309	0.277
-572.690	-59.413	-0.080	0.035
-571.675	276.106	-0.200	-0.358
-570.661	431.588	0.169	0.370
-569.646	-146.242	0.078	-0.007
-568.631	800.000	-0.036	-0.122
-567.617	24.778	-0.223	-0.186
-566.602	466.633	-0.080	0.181
-565.588	-200.000	0.017	0.103
-564.573	-200.000	0.002	-0.089
-563.558	-62.841	-0.369	0.154
-562.544	-44.085	-0.080	-0.041
-561.529	131.345	-0.332	-0.431
-560.515	-164.323	0.136	-0.006
-559.500	-101.842	0.230	0.056
-558.485	-8.422	-0.113	0.077
-557.471	-200.000	-0.009	-0.043
-556.456	28.385	-0.158	0.135
-555.442	800.000	-0.029	-0.113
-554.427	-200.000	-0.027	-0.264
-553.412	-200.000	-0.034	-0.249
-552.398	-96.463	-0.147	-0.039
-551.383	175.132	0.011	0.016
-550.369	-86.955	0.164	0.051
-549.354	776.415	0.084	-0.232
-548.339	-77.886	-0.333	0.116
-547.325	-200.000	-0.036	0.225
-546.310	305.436	0.071	0.133
-545.296	-158.076	-0.101	-0.006
-544.281	55.630	-0.209	0.204
-543.266	-200.000	0.011	0.508
-542.252	-128.102	0.042	0.006
-541.237	-141.930	0.548	-0.055
-540.223	108.206	-0.070	-0.084
-539.208	19.751	0.288	-0.234
-538.193	4.099	-0.128	0.095
-537.179	-200.000	-0.030	0.191
-536.164	-84.540	-0.255	0.081
-535.150	-151.190	0.093	-0.007
-534.135	-141.266	-0.241	0.025
-533.121	53.426	-0.230	0.222
-532.106	-200.000	0.013	0.259
-531.091	-200.000	-0.062	0.303
-530.077	-200.000	-0.010	0.127
-529.062	117.020	0.083	0.102
-528.048	496.714	-0.093	-0.216
-527.033	45.114	-0.064	-0.060
-526.018	-54.933	0.109	-0.050
-525.004	-53.144	0.241	0.112
-523.989	-101.029	-0.002	0.001
-522.975	-144.668	-0.409	-0.038
-521.960	758.588	0.069	-0.190
-520.945	49.692	0.113	-0.107
-519.931	-131.239	-0.400	-0.054
-518.916	147.083	-0.115	0.156
-517.902	71.695	-0.168	-0.177
-516.887	-78.497	0.190	-0.066
-515.872	402.055	0.102	-0.216
-514.858	-62.454	0.101	-0.042
-513.843	395.503	0.134	-0.283
-512.829	-90.921	0.294	0.085
-511.814	77.292	0.077	0.082
-510.799	-11.233	-0.241	-0.160
-509.785	-200.000	0.008	0.174
-508.770	-66.134	-0.295	0.119
-507.756	-200.000	-0.039	0.175
-506.741	-200.000	-0.007	-0.090
-505.726	68.555	-0.125	-0.130
-504.712	226.175	0.090	-0.147
-503.697	-200.000	0.030	-0.320
-502.683	148.381	-0.063	-0.086
-501.668	-200.000	0.033	-0.165
-500.653	-48.328	0.258	-0.125
-499.639	30.510	0.127	-0.110
-498.624	-200.000	0.070	0.362
-497.610	-74.441	0.364	0.132
-496.595	-91.323	0.375	0.108
-495.581	-200.000	0.040	-0.318
-494.566	-200.000	-0.005	-0.052
-493.551	-74.356	-0.284	0.103
-492.537	-58.660	-0.051	-0.022
-491.522	40.983	-0.089	-0.081
-490.508	-88.352	0.301	0.091
-489.493	-200.000	-0.023	0.290
-488.478	-200.000	0.021	0.256
-487.464	-89.733	-0.127	0.038
-486.449	-127.510	-0.227	-0.033
-485.435	-200.000	0.008	0.274
-484.420	18.229	0.259	-0.208
-483.405	800.000	0.031	-0.128
-482.391	-49.018	-0.240	0.116
-481.376	43.910	0.057	0.052
-480.362	100.687	0.036	-0.042
-479.347	471.728	-0.051	0.116
-478.332	398.371	0.170	0.359
-477.318	800.000	-0.098	0.303
-476.303	111.195	-0.102	0.124
-475.289	0.083	-0.101	-0.072
-474.274	60.877	0.071	0.071
-473.259	-22.281	-0.099	-0.061
-472.245	198.937	-0.213	-0.329
-471.230	-132.360	-0.240	0.031
-470.216	-200.000	-0.021	-0.146
-469.201	62.060	-0.156	0.157
-468.186	800.000	-0.023	0.088
-467.172	359.217	0.111	0.224
-466.157	52.634	-0.328	0.316
-465.143	87.359	0.294	-0.328
-464.128	-35.724	-0.172	0.094
-463.113	800.000	0.030	0.106
-462.099	8.335	0.121	-0.092
-461.084	79.812	0.279	0.302
-460.070	19.680	0.048	0.039
-459.055	-4.565	0.053	-0.037
-458.040	-94.875	0.113	0.031
-457.026	800.000	0.035	-0.127
-456.011	800.000	-0.042	-0.120
-454.997	-154.661	-0.267	-0.018
-453.982	-200.000	0.022	0.505
-452.968	-200.000	-0.062	0.363
-451.953	602.896	-0.048	-0.120
-450.938	39.485	-0.077	0.069
-449.924	-30.136	0.083	0.048
-448.909	-53.466	-0.230	0.106
-447.895	9.332	0.204	-0.155
-446.880	71.324	-0.186	-0.194
-445.865	-140.531	-0.269	-0.028
-444.851	-200.000	-0.088	0.419
-443.836	413.121	-0.147	0.314
-442.822	383.350	-0.123	0.254
-441.807	41.534	-0.126	0.115
-440.792	392.553	0.103	-0.215
-439.778	800.000	0.079	-0.280
-438.763	-200.000	0.020	0.193
-437.749	-87.771	-0.281	-0.085
-436.734	57.162	-0.116	0.114
-435.719	-127.968	-0.182	-0.026
-434.705	-95.109	0.265	0.072
-433.690	-10.950	-0.114	0.076
-432.676	-92.663	-0.331	-0.093
-431.661	64.703	-0.242	-0.245
-430.646	597.850	0.030	-0.074
-429.632	-8.123	-0.161	0.109
-428.617	-129.429	0.479	0.067
-427.603	62.792	-0.130	-0.131
-426.588	-58.423	0.379	0.166
-425.573	800.000	-0.038	-0.160
-424.559	49.033	-0.225	-0.212
-423.544	-200.000	0.022	0.333
-422.530	800.000	0.089	-0.257
-421.515	-89.708	-0.253	-0.075
-420.500	26.831	0.054	-0.046
-419.486	97.754	0.146	-0.168
-418.471	442.443	0.167	0.368
-417.457	-200.000	0.032	-0.159
-416.442	-43.794	0.389	-0.197
-415.428	-129.985	-0.126	-0.017
-414.413	800.000	-0.020	-0.087
-413.398	-200.000	0.017	-0.243
-412.384	-74.251	-0.362	-0.132
-411.369	-24.155	-0.028	-0.017
-410.355	800.000	0.079	0.340
-409.340	-59.888	0.259	-0.111
-408.325	121.693	0.106	-0.133
-407.311	-200.000	0.009	0.066
-406.296	63.529	-0.036	0.037
-405.282	-39.269	-0.303	-0.160
-404.267	-93.321	0.060	-0.017
-403.252	800.000	0.079	0.329
-402.238	-102.966	0.233	0.055
-401.223	-200.000	-0.018	0.130
-400.209	0.885	0.208	-0.150
-399.194	-200.000	0.031	0.327
-398.179	211.822	0.093	0.147
-397.165	-82.950	-0.093	0.030
-396.150	-110.242	-0.163	-0.034
-395.136	671.000	0.082	-0.213
-394.121	54.637	-0.062	-0.060
-393.106	76.965	-0.204	-0.218
-392.092	-200.000	0.003	-0.107
-391.077	706.611	0.056	0.148
-390.063	-83.496	0.058	0.019
-389.048	-55.226	0.150	0.068
-388.033	800.000	-0.037	0.158
-387.019	213.363	-0.127	0.201
-386.004	-200.000	0.008	-0.451
-384.990	-53.528	-0.207	0.095
-383.975	77.021	0.109	0.117
-382.960	-49.552	0.070	0.034
-381.946	6.101	-0.027	0.020
-380.931	361.057	-0.090	0.180
-379.917	171.329	0.177	-0.255
-378.902	-200.000	-0.003	-0.279
-377.888	-69.971	-0.255	0.098
-376.873	800.000	0.038	-0.149
-375.858	214.356	0.139	-0.221
-374.844	582.702	-0.056	0.139
-373.829	-76.587	0.264	0.093
-372.815	-189.507	0.400	-0.005
-371.800	-93.366	-0.468	-0.130
-370.785	-87.093	0.020	0.006
-369.771	449.560	-0.072	0.159
-368.756	524.340	-0.029	0.067
-367.742	-25.462	-0.115	0.068
-366.727	563.167	0.174	0.422
-365.712	-62.566	0.276	-0.115
-364.698	-200.000	-0.011	-0.171
-363.683	-80.367	0.256	-0.086
-362.669	373.102	0.097	-0.198
-361.654	-113.996	-0.079	-0.015
-360.639	23.057	0.067	0.055
-359.625	153.044	-0.078	-0.107
-358.610	11.954	0.183	-0.141
-357.596	554.072	0.062	-0.151
-356.581	11.365	0.069	0.053
-355.566	-200.000	-0.059	0.533
-354.552	49.117	0.243	-0.229
-353.537	-30.016	-0.151	0.086
-352.523	-86.263	-0.170	0.052
-351.508	52.537	0.153	0.146
-350.493	-200.000	0.044	-0.248
-349.479	-57.860	-0.234	-0.103
-348.464	-126.619	-0.286	-0.042
-347.450	206.985	-0.103	0.162
-346.435	-200.000	0.023	-0.146
-345.420	-52.284	-0.187	0.087
-344.406	34.690	0.207	0.181
-343.391	237.673	-0.064	0.107
-342.377	800.000	0.052	0.156
-341.362	-200.000	0.068	0.374
-340.348	-12.044	0.087	0.057
-339.333	-64.725	-0.218	0.089
-338.318	-200.000	0.002	-0.110
-337.304	-200.000	-0.049	-0.258
-336.289	55.042	-0.206	-0.199
-335.275	-24.233	-0.234	-0.140
-334.260	321.248	0.114	-0.217
-333.245	380.110	-0.012	0.024
-332.231	800.000	-0.083	0.242
-331.216	11.424	-0.157	0.120
-330.202	-37.522	0.207	0.111
-329.187	-200.000	0.020	-0.183
-328.172	-200.000	0.022	-0.163
-327.158	-200.000	-0.018	-0.116
-326.143	-200.000	0.026	0.261
-325.129	-95.489	0.106	-0.029
-324.114	-163.153	-0.180	-0.009
-323.099	135.324	0.167	-0.218
-322.085	-119.165	-0.103	-0.018
-321.070	800.000	0.088	-0.335
-320.056	462.443	-0.149	-0.333
-319.041	800.000	-0.055	0.228
-318.026	9.685	-0.347	0.263
-317.012	148.469	-0.047	-0.063
-315.997	-82.517	0.267	-0.087
-314.983	800.000	0.087	-0.244
-313.968	-102.319	-0.136	0.033
-312.953	78.518	-0.075	0.080
-311.939	-200.000	-0.003	-0.015
-310.924	-158.198	0.034	-0.002
-309.910	-13.835	-0.270	0.175
-308.895	800.000	0.155	-0.509
-307.880	-200.000	0.002	0.120
-306.866	-200.000	-0.011	0.106
-305.851	-47.666	0.092	-0.045
-304.837	-200.000	-0.019	0.171
-303.822	66.541	-0.156	0.159
-302.807	-43.055	0.172	-0.087
-301.793	-35.000	-0.151	0.082
-300.778	-3.206	0.063	-0.044
-299.764	-17.074	-0.045	-0.028
-298.749	103.207	0.150	-0.176
-297.735	-200.000	0.000	0.048
-296.720	17.944	0.237	-0.189
-295.705	1.981	0.166	0.120
-294.691	96.399	-0.201	0.230
-293.676	800.000	0.073	0.262
-292.662	170.749	-0.121	-0.173
-291.647	10.036	0.087	-0.066
-290.632	351.407	-0.132	0.261
-289.618	229.422	-0.217	-0.354
-288.603	-87.090	0.172	0.052
-287.589	-200.000	0.026	0.115
-286.574	89.369	0.228	0.254
-285.559	-4.424	-0.077	-0.053
-284.545	-16.553	-0.048	-0.030
-283.530	-200.000	0.118	0.001
-282.516	-110.525	-0.036	0.007
-281.501	800.000	-0.092	-0.358
-280.486	214.828	-0.149	-0.236
-279.472	800.000	0.071	0.216
-278.457	-30.359	-0.387	-0.219
-277.443	3.705	0.247	-0.180
-276.428	-200.000	-0.012	0.149
-275.413	-154.933	0.064	0.004
-274.399	-177.972	-0.172	0.004
-273.384	201.186	-0.142	0.218
-272.370	-40.951	-0.207	-0.107
-271.355	-90.326	0.231	0.067
-270.340	-144.427	0.214	0.020
-269.326	565.138	-0.117	0.284
-268.311	800.000	-0.137	0.475
-267.297	-117.570	0.088	0.016
-266.282	800.000	0.158	0.530
-265.267	-87.135	0.183	0.056
-264.253	-107.478	0.120	-0.026
-263.238	-200.000	-0.014	0.098
-262.224	53.047	-0.129	-0.123
-261.209	33.577	0.246	-0.214
-260.195	-200.000	0.002	0.075
-259.180	-71.181	-0.297	0.111
-258.165	284.837	0.061	0.109
-257.151	200.152	0.109	0.166
-256.136	-103.233	-0.267	0.063
-255.122	-139.769	-0.230	-0.024
-254.107	12.402	-0.215	0.165
-253.092	-200.000	0.021	0.177
-252.078	225.168	-0.124	0.200
-251.063	32.694	-0.046	-0.040
-250.049	753.165	-0.091	-0.246
-249.034	-200.000	0.047	0.315
-248.019	132.814	0.071	0.091
-247.005	-139.980	0.082	0.009
-245.990	91.521	-0.110	0.123
-244.976	9.030	-0.352	-0.266
-243.961	-104.555	0.351	0.081
-242.946	-167.366	0.146	0.006
-241.932	-19.881	0.090	-0.055
-240.917	-200.000	0.008	-0.060
-239.903	-200.000	-0.015	-0.215
-238.888	31.866	0.137	-0.117
-237.873	735.358	0.062	0.166
-236.859	-78.700	0.187	0.064
-235.844	-200.000	-0.009	0.103
-234.830	-70.628	-0.147	0.055
-233.815	302.666	-0.134	0.247
-232.800	-200.000	0.014	0.207
-231.786	191.569	-0.116	-0.174
-230.771	-146.077	0.139	0.012
-229.757	-200.000	-0.026	0.120
-228.742	-200.000	0.017	0.262
-227.727	-200.000	0.017	-0.091
-226.713	-29.795	-0.031	0.017
-225.698	800.000	0.148	0.502
-224.684	-81.720	0.317	0.104
-223.669	63.237	0.117	0.117
-222.655	11.750	-0.131	-0.100
-221.640	-200.000	-0.032	-0.258
-220.625	-84.144	-0.180	0.057
-219.611	206.835	0.092	-0.142
-218.596	-87.623	-0.378	-0.114
-217.582	330.763	0.039	-0.076
-216.567	371.340	0.207	-0.419
-215.552	-21.408	0.312	0.190
-214.538	-121.903	0.206	0.034
-213.523	281.471	-0.080	-0.143
-212.509	144.215	0.086	0.115
-211.494	-200.000	-0.035	-0.399
-210.479	78.522	0.227	-0.241
-209.465	-200.000	0.047	-0.307
-208.450	-113.187	0.376	0.074
-207.436	71.675	0.261	-0.270
-206.421	-106.591	0.135	-0.030
-205.406	395.675	0.069	-0.144
-204.392	110.871	-0.278	-0.333
-203.377	800.000	0.049	-0.145
-202.363	31.773	0.113	-0.097
-201.348	-105.819	-0.247	-0.056
-200.333	448.038	0.028	-0.062
-199.319	-54.510	0.296	-0.134
-198.304	-200.000	-0.008	-0.122
-197.290	99.300	-0.038	0.044
-196.275	-200.000	-0.112	0.501
-195.260	-111.571	0.076	0.015
-194.246	-180.381	-0.075	-0.002
-193.231	100.712	0.199	0.230
-192.217	-86.300	0.166	-0.051
-191.202	290.272	-0.167	-0.302
-190.187	-13.846	0.287	0.185
-189.173	744.522	0.036	0.097
-188.158	-14.410	-0.171	0.109
-187.144	288.265	0.133	-0.240
-186.129	-42.421	-0.068	-0.034
-185.114	800.000	-0.082	-0.231
-184.100	339.824	0.134	-0.260
-183.085	800.000	0.044	0.156
-182.071	800.000	-0.073	-0.209
-181.056	-200.000	0.030	-0.381
-180.042	-45.442	0.224	0.111
-179.027	-111.194	0.303	-0.062
-178.012	-93.914	-0.249	0.068
-176.998	-20.284	0.170	-0.104
-175.983	-101.999	-0.121	0.029
-174.969	-75.094	0.179	0.064
-173.954	777.894	0.128	-0.349
-172.939	-106.520	0.081	0.018
-171.925	43.804	-0.127	-0.116
-170.910	-104.360	-0.365	0.084
-169.896	-51.236	0.207	-0.097
-168.881	390.736	0.139	0.286
-167.866	800.000	-0.102	0.335
-166.852	-56.982	-0.103	0.045
-165.837	-143.511	0.098	-0.009
-164.823	-177.224	0.302	-0.007
-163.808	131.989	-0.142	0.181
-162.793	80.971	-0.174	0.187
-161.779	38.299	0.125	0.111
-160.764	-141.219	-0.219	-0.022
-159.750	-133.817	0.234	-0.029
-158.735	-20.835	-0.081	-0.049
-157.720	102.107	-0.404	0.469
-156.706	-200.000	0.101	0.499
-155.691	800.000	0.115	0.406
-154.677	68.872	0.249	0.254
-153.662	-26.608	-0.273	0.159
-152.647	-141.504	0.220	-0.022
-151.633	-29.853	0.155	-0.088
-150.618	498.819	-0.051	-0.117
-149.604	91.161	-0.132	-0.147
-148.589	-200.000	-0.090	0.427
-147.574	-142.601	0.231	0.022
-146.560	-102.412	0.096	0.023
-145.545	-172.180	0.072	0.002
-144.531	800.000	-0.061	0.174
-143.516	-200.000	0.026	0.436
-142.502	-200.000	-0.033	-0.186
-141.487	329.646	-0.141	0.270
-140.472	-200.000	-0.025	0.219
-139.458	678.881	-0.079	-0.204
-138.443	-200.000	0.060	-0.365
-137.429	-123.055	-0.057	0.009
-136.414	-107.717	0.290	0.063
-135.399	75.803	0.205	0.215
-134.385	-81.596	0.259	0.085
-133.370	-97.084	0.122	-0.032
-132.356	46.449	0.318	0.293
-131.341	711.490	0.063	-0.167
-130.326	30.746	-0.025	0.021
-129.312	-112.830	-0.039	0.008
-128.297	-148.852	0.365	0.029
-127.283	-200.000	0.040	-0.218
-126.268	-56.392	0.253	-0.112
-125.253	-200.000	0.038	0.254
-124.239	-63.060	-0.151	-0.062
-123.224	-19.229	-0.205	0.126
-122.210	256.734	-0.161	-0.275
-121.195	-164.658	-0.038	0.002
-120.180	-51.330	-0.413	0.192
-119.166	114.547	-0.200	-0.242
-118.151	108.634	-0.134	-0.159
-117.137	31.881	-0.232	0.199
-116.122	399.277	0.126	-0.263
-115.107	-102.435	-0.239	-0.057
-114.093	-136.274	0.476	0.055
-113.078	800.000	0.069	0.282
-112.064	167.816	-0.231	-0.326
-111.049	-6.083	0.149	0.101
-110.034	14.800	0.219	0.170
-109.020	44.613	-0.229	-0.209
-108.005	-110.124	-0.086	-0.018
-106.991	-85.592	0.233	-0.072
-105.976	-0.213	0.010	-0.007
-104.962	-200.000	0.040	0.302
-103.947	538.771	0.077	-0.183
-102.932	105.558	0.093	-0.109
-101.918	395.251	0.178	0.368
-100.903	-150.437	0.156	-0.012
-99.889	205.544	0.136	0.209
-98.874	-148.285	-0.180	-0.015
-97.859	-200.000	-0.035	-0.219
-96.845	-69.663	0.164	0.062
-95.830	-200.000	-0.037	-0.228
-94.816	-200.000	0.015	0.147
-93.801	-1.670	-0.297	0.207
-92.786	3.767	0.121	0.088
-91.772	-168.135	-0.163	-0.006
-90.757	-112.176	0.201	0.040
-89.743	-126.576	0.184	0.027
-88.728	102.971	0.113	0.131
-87.713	-12.373	0.134	0.087
-86.699	-49.593	0.097	-0.046
-85.684	35.260	0.144	0.125
-84.670	90.887	0.177	0.197
-83.655	800.000	0.154	0.440
-82.640	-128.376	0.307	0.043
-81.626	-130.435	-0.151	-0.020
-80.611	-67.744	-0.235	0.091
-79.597	225.074	0.099	-0.158
-78.582	313.347	0.136	0.254
-77.567	-151.224	0.191	-0.014
-76.553	50.157	-0.075	0.070
-75.538	-34.422	0.156	0.085
-74.524	-200.000	0.017	-0.157
-73.509	405.608	0.062	0.131
-72.494	148.804	0.273	-0.366
-71.480	119.182	-0.266	-0.326
-70.465	-200.000	0.015	-0.083
-69.451	11.432	0.034	-0.026
-68.436	591.799	0.160	0.393
-67.422	-140.879	0.070	-0.007
-66.407	-60.792	0.389	-0.163
-65.392	-25.939	0.262	0.153
-64.378	-127.255	-0.060	0.009
-63.363	-126.734	0.096	0.014
-62.349	122.737	-0.181	0.224
-61.334	-14.217	-0.965	-0.616
-60.319	51.245	0.371	0.349
-59.305	-200.000	0.150	-1.248
-58.290	491.821	0.456	1.035
-57.276	478.759	0.604	1.355
-56.261	-200.000	94.639	535.729
-55.246	579.758	1379.470	3345.800
-54.232	183.042	2623.229	3835.992
-53.217	118.180	2223.549	2715.008
-52.203	45.987	1753.729	1607.293
-51.188	38.934	1559.836	1380.169
-50.173	36.508	1531.689	1338.433
-49.159	54.040	1582.317	1506.583
-48.144	57.780	1601.929	1551.565
-47.130	39.271	1556.663	1379.506
-46.115	36.060	1541.314	1343.508
-45.100	35.851	1538.065	1339.170
-44.086	35.906	1535.553	1337.308
-43.071	35.818	1533.778	1335.099
-42.057	35.738	1532.633	1333.498
-41.042	35.755	1530.980	1332.126
-40.027	35.910	1528.637	1331.101
-39.013	35.845	1527.459	1329.577
-37.998	35.792	1526.363	1328.206
-36.984	35.861	1525.223	1327.637
-35.969	35.867	1523.917	1326.484
-34.954	35.847	1522.804	1325.330
-33.940	35.858	1521.177	1323.931
-32.925	35.888	1519.891	1322.971
-31.911	36.015	1518.667	1322.719
-30.896	35.892	1517.345	1320.677
-29.881	35.916	1515.714	1319.370
-28.867	36.010	1513.848	1318.333
-27.852	35.993	1512.412	1316.912
-26.838	35.892	1511.197	1315.118
-25.823	35.951	1509.710	1314.169
-24.809	35.786	1508.593	1312.020
-23.794	35.838	1507.096	1311.026
-22.779	35.923	1505.419	1310.092
-21.765	35.999	1504.420	1309.686
-20.750	35.956	1503.279	1308.346
-19.736	35.907	1502.237	1307.054
-18.721	35.862	1501.068	1305.680
-17.706	35.785	1500.138	1304.297
-16.692	35.817	1498.957	1303.437
-15.677	35.866	1498.209	1303.068
-14.663	35.923	1496.577	1301.979
-13.648	35.811	1495.911	1300.593
-12.633	35.888	1494.561	1299.888
-11.619	35.855	1493.709	1298.874
-10.604	35.826	1493.122	1298.115
-9.590	35.861	1492.013	1297.334
-8.575	35.797	1491.098	1296.058
-7.560	35.881	1490.048	1295.660
-6.546	35.969	1489.296	1295.543
-5.531	35.824	1488.385	1293.729
-4.517	35.770	1487.904	1292.895
-3.502	35.900	1486.466	1292.466
-2.487	35.860	1485.514	1291.320
-1.473	35.753	1484.651	1289.801
-0.458	35.829	1482.618	1288.492
0.556	33.293	1472.777	1275.681
1.571	29.597	1444.800	1226.848
2.586	25.200	1379.889	1143.658
3.600	23.091	1294.393	1060.076
4.615	21.767	1247.908	1014.265
5.629	18.660	1191.803	951.380
6.644	8.953	1104.137	831.233
7.659	1.096	1060.201	758.859
8.673	-0.212	1054.412	748.134
9.688	-0.332	1051.281	745.251
10.702	-0.423	1049.906	743.762
11.717	-0.483	1048.004	742.050
12.731	2.487	1051.268	759.032
13.746	11.621	1065.016	814.598
14.761	17.661	1071.841	849.957
15.775	17.536	1070.947	848.550
16.790	17.248	1069.692	846.046
17.804	17.053	1068.378	843.963
18.819	16.929	1067.373	842.480
19.834	16.890	1067.214	842.082
20.848	16.826	1066.658	841.253
21.863	16.670	1066.319	840.136
22.877	16.812	1065.533	840.149
23.892	16.661	1065.115	838.993
24.907	16.657	1063.904	837.947
25.921	16.661	1063.736	837.762
26.936	16.796	1062.674	837.516
27.950	16.823	1061.429	836.597
28.965	16.791	1060.090	835.308
29.980	16.637	1058.517	833.237
30.994	16.660	1056.783	831.913
32.009	16.816	1055.542	831.628
33.023	16.853	1055.147	831.422
34.038	16.693	1054.141	829.773
35.053	16.649	1052.667	828.322
36.067	16.960	1052.310	829.491
37.082	16.911	1051.024	828.166
38.096	16.917	1050.699	827.864
39.111	17.172	1049.639	828.197
40.126	17.124	1048.505	826.997
41.140	16.956	1047.451	825.278
42.155	16.859	1045.948	823.547
43.169	16.546	1044.862	821.097
44.184	16.647	1043.490	820.439
45.199	16.646	1042.306	819.429
46.213	16.659	1040.999	818.391
47.228	16.528	1040.053	816.942
48.242	16.580	1038.856	816.182
49.257	16.635	1037.214	815.085
50.271	16.593	1036.797	814.485
51.286	16.910	1035.722	815.092
52.301	16.697	1035.183	813.572
53.315	16.614	1034.348	812.442
54.330	16.811	1033.050	812.296
55.344	16.763	1032.493	811.557
56.359	16.755	1031.584	810.732
57.374	16.873	1030.624	810.471
58.388	16.684	1029.254	808.421
59.403	16.711	1028.708	808.049
60.417	16.805	1027.614	807.566
61.432	16.603	1027.176	806.187
62.447	16.694	1026.054	805.671
63.461	16.710	1025.662	805.366
64.476	16.730	1024.969	804.844
65.490	16.783	1023.855	804.152
66.505	16.705	1022.940	802.989
67.520	16.671	1022.359	802.301
68.534	16.717	1021.360	801.665
69.549	16.710	1019.868	800.390
70.563	16.463	1018.732	798.262
71.578	16.400	1018.256	797.523
72.593	16.468	1017.430	797.126
73.607	16.438	1016.141	795.901
74.622	16.489	1015.316	795.427
75.636	16.756	1014.542	796.005
76.651	16.755	1013.527	795.133
77.666	16.587	1013.014	793.870
78.680	16.527	1011.989	792.716
79.695	16.536	1011.188	792.061
80.709	16.622	1010.906	792.172
81.724	16.720	1009.794	791.691
82.739	16.624	1009.131	790.653
83.753	16.678	1008.415	790.271
84.768	16.780	1007.071	789.627
85.782	16.876	1006.711	789.721
86.797	16.915	1005.828	789.139
87.812	16.961	1004.746	788.432
88.826	16.916	1003.494	787.172
89.841	16.864	1002.657	786.205
90.855	17.005	1001.637	785.990
91.870	16.920	1001.238	785.212
92.884	16.947	1000.194	784.451
93.899	16.888	999.525	783.584
94.914	16.889	998.370	782.613
95.928	16.965	997.482	782.198
96.943	16.980	996.979	781.806
97.957	16.811	995.732	779.979
98.972	16.592	994.731	778.120
99.987	16.425	993.320	776.180
101.001	16.402	992.911	775.684
102.016	16.650	992.242	776.233
103.030	16.668	991.213	775.440
104.045	16.655	990.007	774.369
105.060	16.442	988.709	772.314
106.074	16.405	987.198	770.894
107.089	16.370	986.561	770.168
108.103	16.844	986.403	772.137
109.118	16.886	985.756	771.756
110.133	16.756	984.678	770.253
111.147	16.734	983.677	769.301
112.162	16.656	982.578	768.020
113.176	16.554	981.091	766.325
114.191	16.607	979.936	765.594
115.206	16.663	979.092	765.124
116.220	16.450	977.857	763.130
117.235	16.322	977.223	761.989
118.249	16.453	976.474	761.928
119.264	16.603	975.161	761.509
120.279	16.583	974.193	760.597
121.293	16.545	973.596	759.891
122.308	16.596	973.055	759.633
123.322	16.666	971.960	759.023
124.337	16.654	970.843	758.031
125.352	16.702	969.277	756.956
126.366	16.134	967.649	753.080
127.381	16.026	966.036	751.280
128.395	16.375	965.430	752.297
129.410	16.757	964.884	753.505
130.424	16.924	964.336	753.750
131.439	16.853	963.182	752.468
132.454	16.798	962.077	751.295
133.468	16.795	961.549	750.803
134.483	16.692	960.719	749.629
135.497	16.843	959.679	749.419
136.512	16.966	959.099	749.444
137.527	17.038	958.145	748.949
138.541	17.041	957.102	748.082
139.556	17.123	956.297	747.747
140.570	17.084	955.486	746.876
141.585	16.916	954.409	745.232
142.600	17.033	953.192	744.727
143.614	16.942	952.938	744.063
144.629	17.041	951.964	743.672
145.643	17.169	951.199	743.570
146.658	17.010	950.162	741.995
147.673	16.963	949.030	740.841
148.687	17.066	947.591	740.103
149.702	16.915	947.058	738.961
150.716	16.734	946.261	737.488
151.731	16.761	945.010	736.565
152.746	17.070	944.138	737.161
153.760	17.075	943.531	736.642
154.775	17.161	942.899	736.459
155.789	17.193	941.937	735.779
156.804	17.155	940.693	734.580
157.819	17.100	939.734	733.526
158.833	17.247	939.041	733.556
159.848	17.157	938.468	732.655
160.862	17.078	937.458	731.462
161.877	16.856	936.899	730.006
162.892	17.017	935.386	729.452
163.906	17.136	935.241	729.789
164.921	17.264	933.769	729.123
165.935	17.133	932.754	727.707
166.950	17.195	931.575	726.987
167.964	17.154	930.585	725.974
168.979	17.134	929.517	724.992
169.994	16.960	928.777	723.610
171.008	16.910	927.755	722.534
172.023	17.026	927.011	722.386
173.037	17.155	926.094	722.154
174.052	16.931	925.157	720.411
175.067	16.679	924.323	718.627
176.081	16.858	923.530	718.707
177.096	16.947	922.606	718.302
178.110	17.136	921.795	718.405
179.125	16.891	920.602	716.374
180.140	16.637	919.454	714.347
181.154	16.593	918.984	713.735
182.169	16.783	918.390	714.010
183.183	16.876	917.957	714.001
184.198	17.104	917.385	714.452
185.213	17.084	916.667	713.745
186.227	17.047	915.771	712.832
187.242	17.258	915.016	713.063
188.256	17.270	914.409	712.580
189.271	17.104	913.622	711.208
190.286	17.213	912.596	710.800
191.300	17.090	911.909	709.690
192.315	16.809	910.678	707.497
193.329	16.260	909.634	704.333
194.344	15.802	908.870	701.770
195.359	16.295	908.724	703.650
196.373	17.027	908.760	706.662
197.388	17.107	908.553	706.772
198.402	16.985	907.211	705.159
199.417	16.921	906.149	704.005
200.432	16.813	906.221	703.549
201.446	16.629	905.161	701.905
202.461	16.439	904.355	700.429
203.475	16.518	903.970	700.395
204.490	16.100	902.740	697.652
205.504	15.335	900.505	692.702
206.519	15.756	900.586	694.445
207.534	16.675	900.397	698.030
208.548	16.659	900.123	697.688
209.563	17.003	899.706	698.720
210.577	16.949	899.345	698.153
211.592	16.891	898.171	696.945
212.607	17.023	898.054	697.333
213.621	17.061	897.333	696.869
214.636	17.181	896.130	696.364
215.650	17.280	895.721	696.389
216.665	17.105	895.448	695.401
217.680	17.226	894.697	695.252
218.694	17.230	894.230	694.844
219.709	17.000	893.308	693.124
220.723	16.652	892.087	690.696
221.738	16.941	891.619	691.449
222.753	17.248	890.958	692.129
223.767	17.185	890.130	691.168
224.782	17.026	889.578	690.030
225.796	17.146	889.158	690.134
226.811	17.228	888.412	689.826
227.826	16.877	887.554	687.675
228.840	16.362	886.295	684.551
229.855	16.313	885.177	683.427
230.869	16.616	884.668	684.202
231.884	16.377	883.624	682.367
232.899	16.265	883.500	681.760
233.913	17.054	883.186	684.640
234.928	17.211	883.114	685.158
235.942	17.123	882.312	684.118
236.957	17.313	881.330	684.063
237.972	17.151	880.335	682.579
238.986	16.959	879.639	681.205
240.001	17.076	879.056	681.165
241.015	16.995	878.626	680.447
242.030	17.013	877.527	679.609
243.045	17.136	876.920	679.569
244.059	17.134	876.377	679.082
245.074	17.350	876.137	679.699
246.088	17.178	875.059	678.115
247.103	16.961	873.945	676.328
248.117	16.925	872.932	675.338
249.132	17.343	872.553	676.650
250.147	17.555	872.107	677.086
251.161	17.486	871.456	676.247
252.176	17.688	870.872	676.535
253.190	17.751	870.219	676.217
254.205	17.745	869.382	675.484
255.220	17.855	869.147	675.679
256.234	17.806	868.434	674.872
257.249	17.770	868.014	674.342
258.263	17.689	867.022	673.192
259.278	17.748	866.361	672.849
260.293	17.803	865.802	672.575
261.307	18.025	865.102	672.847
262.322	17.671	864.473	670.904
263.336	17.584	864.063	670.184
264.351	17.221	862.497	667.483
265.366	16.269	860.604	662.227
266.380	15.786	859.878	659.715
267.395	16.666	859.789	663.036
268.409	17.271	860.066	665.562
269.424	17.526	859.033	665.703
270.439	17.601	858.439	665.474
271.453	17.707	858.286	665.712
272.468	17.730	857.268	664.953
273.482	17.937	856.646	665.218
274.497	17.938	856.722	665.223
275.512	17.852	855.110	663.579
276.526	17.321	853.919	660.533
277.541	17.412	853.330	660.371
278.555	17.785	852.914	661.437
279.570	17.539	852.405	660.031
280.585	17.221	851.312	657.895
281.599	17.399	850.596	657.972
282.614	17.565	850.240	658.280
283.628	17.298	849.552	656.661
284.643	17.089	848.311	654.834
285.657	17.639	848.060	656.703
286.672	17.388	847.572	655.299
287.687	16.877	846.458	652.415
288.701	17.050	846.471	653.035
289.716	17.457	845.967	654.151
290.730	17.151	845.273	652.383
291.745	17.212	844.052	651.617
292.760	16.824	843.559	649.690
293.774	16.731	842.657	648.582
294.789	17.599	842.957	652.079
295.803	18.067	842.855	653.734
296.818	18.156	842.411	653.670
297.833	18.390	841.949	654.147
298.847	18.089	840.799	652.048
299.862	17.812	839.707	650.090
300.876	17.849	839.155	649.747
301.891	17.984	839.126	650.181
302.906	18.126	838.096	649.864
303.920	17.836	837.156	647.975
304.935	17.673	836.019	646.419
305.949	17.868	835.406	646.629
306.964	18.189	835.119	647.566
307.979	17.992	834.517	646.295
308.993	17.974	834.378	646.062
310.008	18.239	834.097	646.790
311.022	18.395	833.466	646.830
312.037	18.279	832.392	645.505
313.052	18.014	832.334	644.402
314.066	18.055	831.485	643.840
315.081	17.593	830.150	641.012
316.095	16.946	828.977	637.618
317.110	17.297	828.909	638.828
318.125	17.963	829.242	641.532
319.139	17.716	828.043	639.621
320.154	16.907	826.786	635.562
321.168	16.546	826.103	633.630
322.183	16.973	826.020	635.107
323.197	17.783	825.903	637.994
324.212	17.931	825.419	638.116
325.227	18.070	825.276	638.467
326.241	18.202	824.710	638.466
327.256	18.218	824.171	638.053
328.270	18.338	823.215	637.703
329.285	18.005	822.897	636.161
330.300	18.031	822.043	635.539
331.314	17.688	821.539	633.820
332.329	17.795	820.289	633.195
333.343	18.159	819.893	634.183
334.358	18.343	819.497	634.504
335.373	18.160	819.128	633.486
336.387	18.359	818.115	633.380
337.402	18.331	818.389	633.433
338.416	18.445	817.640	633.218
339.431	18.369	816.773	632.212
340.446	18.428	816.050	631.814
341.460	18.487	815.672	631.682
342.475	18.590	815.114	631.572
343.489	18.209	814.398	629.560
344.504	18.188	813.873	629.020
345.519	18.385	813.724	629.577
346.533	18.638	813.436	630.226
347.548	18.728	812.646	629.889
348.562	18.879	812.333	630.143
349.577	18.942	811.595	629.747
350.592	18.785	811.147	628.768
351.606	18.789	810.622	628.320
352.621	18.866	810.187	628.208
353.635	18.674	809.654	627.038
354.650	18.581	809.409	626.453
355.665	18.430	808.144	624.867
356.679	17.604	806.914	620.853
357.694	17.509	806.573	620.191
358.708	17.869	806.035	621.031
359.723	17.988	805.387	620.910
360.738	18.155	805.613	621.636
361.752	18.574	805.460	622.986
362.767	18.515	805.072	622.416
363.781	18.791	804.265	622.737
364.796	18.966	803.839	622.986
365.810	19.130	803.119	622.967
366.825	19.098	803.266	622.909
367.840	19.000	802.769	622.115
368.854	18.929	802.276	621.423
369.869	18.544	801.418	619.311
370.883	18.571	800.759	618.846
371.898	18.783	799.847	618.851
372.913	18.731	799.064	618.003
373.927	18.474	798.628	616.687
374.942	18.674	798.102	616.945
375.956	18.858	797.666	617.214
376.971	18.843	797.206	616.750
377.986	18.976	796.686	616.769
379.000	19.073	796.455	616.882
380.015	19.016	795.886	616.185
381.029	19.042	795.078	615.599
382.044	18.858	794.738	614.620
383.059	18.998	793.938	614.448
384.073	19.012	793.305	613.953
385.088	18.899	793.209	613.424
386.102	19.043	793.123	613.815
387.117	19.170	792.016	613.355
388.132	18.869	791.636	611.937
389.146	19.058	791.114	612.150
390.161	18.535	790.028	609.399
391.175	18.423	789.838	608.801
392.190	18.648	789.814	609.525
393.205	18.622	789.407	609.064
394.219	18.161	787.808	606.146
395.234	16.992	786.078	600.626
396.248	16.486	785.036	597.985
397.263	17.200	785.887	601.109
398.278	18.520	786.670	606.324
399.292	18.936	786.616	607.699
400.307	18.878	785.881	606.875
401.321	18.978	785.404	606.805
402.336	19.033	784.780	606.462
403.350	19.252	784.524	606.983
404.365	19.299	784.284	606.909
405.380	19.542	783.952	607.454
406.394	19.757	783.496	607.802
407.409	19.748	783.169	607.465
408.423	19.702	782.567	606.780
409.438	19.364	782.243	605.291
410.453	19.520	781.792	605.433
411.467	19.830	781.371	606.140
412.482	19.616	781.006	605.055
413.496	19.627	780.266	604.467
414.511	19.635	780.039	604.266
415.526	19.754	779.579	604.273
416.540	19.614	779.054	603.322
417.555	19.606	778.694	602.961
418.569	19.259	778.079	601.221
419.584	19.288	777.361	600.716
420.599	19.336	776.814	600.408
421.613	153.503	1357.570	1788.754
422.628	132.470	1442.170	1788.856
