DTS Sentinel unit serial number:	SN413079Multiplexer serial number:	ORYXHardware model number:	OX4-SRSoftware version number:	ORYX F/W v4.00 Oryx Data Collector v3.7.2.0data status	okinstallation	princeton_trtdifferential loss correction	single-endedforward channel	channel 3reverse channel	N/Adate	2019/09/12time	07:06:11forward acquisition time	60.00reverse acquisition time	0.00gamma	496.2192k internal	0.2320k external	0.2320temperature offset calibration	1.0032default loss term (dB/km)	0.3790temperature slope calibration	1.0000multiplexer offset coefficient	1.0000multiplexer slope coefficient	1.0000fibre end	0.00T internal ref (°C)	32.17T ext. ref 1 (°C)	1.60T ext. ref 2 (°C)	27.51length (m)	temperature (°C)	Stokes	anti-Stokes-747.200	631.080	0.053	0.136
-746.185	-180.094	-0.141	0.003
-745.171	509.857	0.009	-0.020
-744.156	357.154	0.043	0.086
-743.142	36.862	0.325	0.291
-742.127	800.000	-0.068	0.285
-741.112	139.130	-0.240	0.319
-740.098	-162.157	-0.364	0.018
-739.083	-109.518	-0.138	-0.030
-738.069	800.000	-0.084	0.245
-737.054	29.656	-0.209	0.180
-736.039	-14.982	-0.193	-0.125
-735.025	-65.892	-0.322	-0.130
-734.010	-59.884	-0.155	0.067
-732.996	-171.739	-0.147	-0.005
-731.981	-138.472	-0.142	-0.016
-730.966	22.712	-0.388	-0.322
-729.952	-200.000	0.020	-0.178
-728.937	-77.675	-0.128	0.045
-727.923	-200.000	-0.006	0.286
-726.908	-200.000	-0.042	-0.216
-725.894	175.644	-0.149	-0.219
-724.879	412.663	-0.091	-0.195
-723.864	-200.000	0.015	-0.204
-722.850	-26.959	0.206	-0.122
-721.835	14.219	-0.088	-0.070
-720.821	100.126	0.080	-0.094
-719.806	-200.000	-0.022	-0.217
-718.791	-200.000	0.027	-0.121
-717.777	-64.582	0.140	0.057
-716.762	-136.913	-0.266	0.031
-715.748	-200.000	0.023	0.169
-714.733	-97.317	-0.189	0.050
-713.718	800.000	0.054	-0.159
-712.704	121.615	-0.236	-0.297
-711.689	52.617	0.187	0.181
-710.675	-65.988	0.114	0.046
-709.660	-200.000	-0.042	-0.264
-708.645	84.730	0.229	-0.254
-707.631	-22.358	-0.300	-0.183
-706.616	23.982	-0.281	-0.234
-705.602	134.440	-0.162	-0.212
-704.587	800.000	0.083	-0.248
-703.572	-139.875	-0.141	0.015
-702.558	800.000	0.026	0.094
-701.543	-105.677	-0.233	0.053
-700.529	-113.563	-0.081	-0.016
-699.514	-200.000	0.036	-0.331
-698.499	-58.021	0.255	0.112
-697.485	-200.000	0.001	0.036
-696.470	-158.210	-0.060	-0.004
-695.456	-200.000	0.001	0.238
-694.441	-156.838	0.132	0.008
-693.426	-82.566	0.039	0.013
-692.412	-82.621	0.180	0.059
-691.397	241.547	-0.056	-0.094
-690.383	-200.000	-0.032	-0.199
-689.368	-40.552	0.197	0.103
-688.354	-70.437	0.293	0.112
-687.339	70.665	0.221	0.230
-686.324	-11.156	-0.195	-0.130
-685.310	265.704	0.127	-0.224
-684.295	309.126	-0.029	0.055
-683.281	-110.023	0.235	-0.050
-682.266	136.401	0.162	0.213
-681.251	101.779	0.234	0.275
-680.237	-200.000	0.003	-0.267
-679.222	267.221	-0.050	-0.088
-678.208	-200.000	-0.055	-0.331
-677.193	15.328	-0.229	-0.182
-676.178	-76.246	0.147	0.052
-675.164	-198.420	0.085	0.000
-674.149	-59.467	-0.409	-0.177
-673.135	800.000	0.067	-0.215
-672.120	773.290	0.099	-0.272
-671.105	31.212	0.185	-0.160
-670.091	-200.000	-0.024	0.154
-669.076	-157.204	0.077	-0.005
-668.062	23.072	-0.101	0.084
-667.047	23.272	-0.123	0.102
-666.032	464.717	0.066	-0.149
-665.018	-57.289	-0.204	-0.091
-664.003	84.574	-0.147	-0.162
-662.989	618.768	-0.137	0.347
-661.974	-57.185	-0.235	0.104
-660.959	-200.000	0.085	-0.423
-659.945	134.284	0.179	0.234
-658.930	-99.105	-0.305	-0.078
-657.916	-42.308	0.242	-0.125
-656.901	800.000	0.094	0.311
-655.886	-69.167	-0.269	0.104
-654.872	186.873	-0.286	-0.429
-653.857	159.941	-0.276	-0.388
-652.843	-65.478	-0.237	0.096
-651.828	800.000	0.026	-0.114
-650.814	258.270	-0.099	0.172
-649.799	800.000	-0.089	0.320
-648.784	-7.327	0.085	-0.058
-647.770	310.443	0.091	-0.171
-646.755	-200.000	-0.010	-0.109
-645.741	-41.925	-0.202	-0.104
-644.726	-110.770	-0.443	0.092
-643.711	-43.731	0.108	0.055
-642.697	-28.033	-0.156	0.091
-641.682	0.237	-0.255	-0.183
-640.668	40.718	0.074	-0.068
-639.653	-200.000	0.004	0.053
-638.638	60.438	-0.273	-0.272
-637.624	-200.000	-0.002	0.269
-636.609	-88.011	0.048	0.014
-635.595	366.201	0.100	0.204
-634.580	118.013	0.027	0.033
-633.565	281.205	-0.224	-0.403
-632.551	-58.638	0.206	0.090
-631.536	-74.157	-0.268	0.098
-630.522	5.347	-0.288	0.214
-629.507	263.959	-0.110	-0.193
-628.492	-98.625	0.474	-0.122
-627.478	-159.563	-0.308	-0.017
-626.463	-33.922	-0.438	-0.243
-625.449	-200.000	-0.107	-0.481
-624.434	800.000	-0.116	0.441
-623.419	-107.843	-0.303	-0.066
-622.405	36.550	0.225	0.200
-621.390	150.147	0.189	-0.258
-620.376	96.137	-0.099	-0.114
-619.361	143.029	-0.071	0.095
-618.346	-200.000	0.019	-0.125
-617.332	-116.116	-0.200	-0.037
-616.317	-88.527	-0.140	0.042
-615.303	-92.139	-0.104	0.030
-614.288	-33.336	0.112	-0.062
-613.273	388.433	0.154	0.322
-612.259	353.453	-0.098	0.195
-611.244	197.543	-0.105	0.161
-610.230	56.144	-0.125	-0.122
-609.215	27.663	-0.208	0.176
-608.201	-138.053	0.141	0.016
-607.186	-85.018	-0.383	-0.121
-606.171	-131.377	0.130	-0.017
-605.157	602.210	-0.078	-0.195
-604.142	-108.781	-0.137	0.029
-603.128	-153.227	0.078	-0.005
-602.113	-156.071	0.102	-0.006
-601.098	-200.000	-0.022	-0.253
-600.084	397.759	-0.144	-0.304
-599.069	334.024	-0.043	-0.083
-598.055	2.792	-0.034	-0.025
-597.040	572.375	-0.065	0.158
-596.025	-200.000	0.018	0.150
-595.011	42.544	-0.320	-0.293
-593.996	213.302	0.025	0.039
-592.982	800.000	0.109	-0.349
-591.967	-200.000	-0.033	-0.330
-590.952	-200.000	0.003	-0.053
-589.938	800.000	0.091	-0.354
-588.923	-48.350	-0.165	0.080
-587.909	-70.229	0.088	0.034
-586.894	309.382	0.038	0.072
-585.879	1.578	-0.105	0.076
-584.865	22.908	-0.187	-0.154
-583.850	-18.810	-0.231	0.144
-582.836	-16.805	0.367	0.233
-581.821	-116.193	0.115	0.021
-580.806	800.000	0.060	-0.173
-579.792	800.000	-0.101	-0.282
-578.777	800.000	0.066	0.191
-577.763	800.000	-0.046	0.139
-576.748	-4.573	-0.092	-0.064
-575.733	50.626	0.208	-0.198
-574.719	-200.000	0.010	0.127
-573.704	-8.482	-0.138	0.093
-572.690	800.000	0.100	-0.380
-571.675	366.743	-0.194	0.393
-570.661	-114.452	0.283	-0.055
-569.646	58.522	-0.061	0.061
-568.631	-35.213	0.354	0.193
-567.617	140.325	0.136	0.180
-566.602	-200.000	-0.016	0.276
-565.588	-18.127	0.205	0.129
-564.573	76.551	-0.311	0.331
-563.558	-115.263	0.301	-0.057
-562.544	294.665	-0.231	-0.423
-561.529	89.700	0.161	0.180
-560.515	-142.450	-0.230	-0.023
-559.500	-53.190	-0.136	-0.063
-558.485	195.741	0.179	-0.273
-557.471	44.223	-0.131	-0.120
-556.456	144.896	-0.102	0.136
-555.442	-86.138	-0.059	0.018
-554.427	-200.000	-0.020	0.097
-553.412	-77.271	-0.211	0.074
-552.398	252.042	-0.063	0.107
-551.383	800.000	0.052	0.152
-550.369	409.073	-0.155	-0.330
-549.354	-64.896	-0.087	0.035
-548.339	85.529	-0.135	-0.149
-547.325	-10.141	0.144	0.096
-546.310	659.670	0.039	-0.101
-545.296	-90.823	-0.128	0.037
-544.281	-200.000	-0.026	-0.307
-543.266	86.483	0.180	0.199
-542.252	603.318	-0.081	0.201
-541.237	-30.054	0.232	0.133
-540.223	410.342	0.055	0.116
-539.208	-62.008	0.245	0.103
-538.193	181.113	0.233	0.344
-537.179	88.065	0.221	-0.246
-536.164	-200.000	0.087	-0.478
-535.150	57.016	0.068	-0.066
-534.135	90.285	-0.056	0.063
-533.121	269.458	0.003	0.005
-532.106	800.000	-0.132	-0.399
-531.091	-155.396	-0.141	-0.009
-530.077	251.801	-0.187	0.320
-529.062	-109.380	0.031	0.007
-528.048	-200.000	0.014	-0.125
-527.033	-200.000	0.035	-0.244
-526.018	595.582	0.097	0.241
-525.004	57.162	0.102	-0.100
-523.989	-74.089	0.543	0.197
-522.975	-121.050	0.178	0.030
-521.960	12.941	0.166	-0.129
-520.945	303.208	-0.230	-0.427
-519.931	347.052	0.036	0.071
-518.916	-32.842	-0.176	0.098
-517.902	800.000	-0.026	0.101
-516.887	-200.000	-0.052	0.358
-515.872	-4.382	-0.273	0.189
-514.858	450.880	-0.084	0.185
-513.843	-110.856	0.172	0.035
-512.829	46.060	-0.412	-0.383
-511.814	-121.079	0.601	-0.101
-510.799	0.004	-0.125	0.090
-509.785	-76.448	-0.190	-0.067
-508.770	352.322	0.087	0.172
-507.756	-63.883	0.120	0.049
-506.741	92.204	-0.067	0.076
-505.726	800.000	0.092	-0.313
-504.712	-91.092	0.140	-0.040
-503.697	238.716	0.154	-0.257
-502.683	800.000	-0.096	0.337
-501.668	-200.000	-0.037	0.273
-500.653	25.243	-0.153	-0.128
-499.639	-200.000	-0.001	-0.196
-498.624	227.026	-0.133	-0.217
-497.610	345.987	-0.107	0.212
-496.595	-73.304	0.105	0.038
-495.581	-108.895	0.584	0.125
-494.566	-66.815	-0.115	-0.046
-493.551	189.896	-0.053	0.080
-492.537	-200.000	-0.048	0.242
-491.522	800.000	-0.054	-0.220
-490.508	-200.000	0.081	-0.521
-489.493	-179.092	0.331	0.007
-488.478	164.009	-0.135	-0.190
-487.464	-200.000	-0.017	0.122
-486.449	290.232	-0.154	0.280
-485.435	-200.000	0.004	-0.234
-484.420	-38.277	-0.081	-0.043
-483.405	-163.662	0.236	-0.011
-482.391	74.590	0.162	0.170
-481.376	119.493	0.170	0.211
-480.362	-98.383	0.090	0.023
-479.347	-125.241	-0.206	-0.032
-478.332	39.151	-0.058	0.052
-477.318	331.760	0.089	-0.172
-476.303	-35.070	-0.295	0.161
-475.289	151.355	0.099	0.136
-474.274	800.000	0.088	0.248
-473.259	-200.000	-0.029	0.380
-472.245	14.531	-0.261	0.204
-471.230	42.977	-0.069	-0.063
-470.216	220.032	-0.180	0.288
-469.201	-122.896	0.045	0.007
-468.186	66.827	-0.065	0.067
-467.172	-79.844	-0.221	-0.074
-466.157	136.396	0.165	-0.216
-465.143	-200.000	0.037	-0.180
-464.128	800.000	-0.079	-0.251
-463.113	59.710	-0.157	-0.155
-462.099	30.224	0.088	-0.076
-461.084	-71.608	-0.050	-0.019
-460.070	488.618	0.022	0.050
-459.055	-13.009	-0.203	0.132
-458.040	-200.000	0.023	-0.179
-457.026	-175.630	-0.274	-0.007
-456.011	228.470	0.123	-0.200
-454.997	56.500	0.109	0.106
-453.982	144.048	-0.037	-0.049
-452.968	-139.346	-0.165	0.018
-451.953	10.601	0.205	-0.157
-450.938	174.600	-0.094	0.136
-449.924	-94.482	0.104	-0.028
-448.909	-52.350	-0.048	-0.022
-447.895	800.000	-0.025	0.087
-446.880	-95.114	-0.185	0.050
-445.865	13.055	-0.090	-0.070
-444.851	-70.048	0.128	-0.049
-443.836	149.094	-0.090	0.121
-442.822	-48.094	0.140	-0.068
-441.807	-40.756	-0.115	0.060
-440.792	-10.141	0.244	-0.162
-439.778	701.938	-0.028	-0.074
-438.763	365.150	-0.247	-0.496
-437.749	-124.101	-0.187	0.029
-436.734	-131.748	0.267	-0.035
-435.719	49.082	-0.262	-0.246
-434.705	0.984	0.158	0.113
-433.690	381.599	-0.032	-0.066
-432.676	-118.798	-0.070	-0.012
-431.661	-93.038	-0.233	0.065
-430.646	328.784	0.200	0.383
-429.632	800.000	0.083	0.293
-428.617	178.441	0.132	-0.193
-427.603	-58.285	0.219	0.095
-426.588	-200.000	0.009	0.204
-425.573	-116.710	0.379	0.070
-424.559	800.000	-0.048	0.183
-423.544	-200.000	-0.002	0.171
-422.530	16.611	-0.268	0.212
-421.515	3.327	0.262	0.190
-420.500	380.949	0.044	-0.090
-419.486	156.381	-0.081	0.112
-418.471	-160.847	0.380	-0.020
-417.457	-138.672	0.105	0.011
-416.442	-153.948	-0.148	0.010
-415.428	39.569	0.122	0.109
-414.413	-76.643	0.311	-0.109
-413.398	-115.467	0.233	0.044
-412.384	72.858	0.132	0.138
-411.369	62.776	-0.275	0.274
-410.355	486.718	0.146	-0.333
-409.340	-200.000	-0.013	-0.235
-408.325	800.000	0.041	0.129
-407.311	31.713	0.167	-0.144
-406.296	542.713	-0.071	-0.170
-405.282	42.529	-0.093	-0.084
-404.267	800.000	-0.100	0.403
-403.252	-126.509	0.064	0.010
-402.238	-146.657	0.295	0.026
-401.223	800.000	-0.110	0.367
-400.209	-118.918	-0.008	0.001
-399.194	-200.000	-0.041	-0.212
-398.179	-127.521	0.253	-0.037
-397.165	-97.482	-0.215	0.056
-396.150	-200.000	0.047	-0.212
-395.136	316.958	-0.122	0.230
-394.121	20.618	0.134	0.108
-393.106	-80.290	-0.205	0.068
-392.092	-24.123	-0.185	0.110
-391.077	180.859	0.189	-0.276
-390.063	-9.170	-0.201	-0.134
-389.048	-200.000	0.029	-0.191
-388.033	36.889	-0.217	0.191
-387.019	-42.488	-0.295	-0.150
-386.004	-200.000	0.032	0.301
-384.990	-140.320	0.290	0.030
-383.975	-5.898	-0.229	0.156
-382.960	-31.325	0.241	0.135
-381.946	609.520	0.149	0.370
-380.931	26.824	-0.210	0.176
-379.917	-200.000	-0.009	0.283
-378.902	-67.350	-0.156	0.061
-377.888	-86.273	0.357	-0.110
-376.873	42.528	-0.048	0.043
-375.858	-200.000	-0.005	-0.028
-374.844	-56.988	0.303	-0.133
-373.829	610.164	0.056	-0.138
-372.815	397.711	0.189	-0.393
-371.800	800.000	-0.034	-0.104
-370.785	-132.309	0.169	0.022
-369.771	-175.255	-0.210	-0.006
-368.756	27.756	0.202	-0.170
-367.742	73.473	0.184	-0.192
-366.727	-56.600	-0.082	-0.036
-365.712	195.673	0.131	0.199
-364.698	121.114	-0.087	-0.108
-363.683	-62.294	0.050	-0.021
-362.669	-110.154	0.409	0.085
-361.654	-200.000	0.075	0.359
-360.639	-11.524	-0.142	0.093
-359.625	-16.113	0.222	0.141
-358.610	-161.474	-0.166	0.009
-357.596	124.547	0.068	0.086
-356.581	-110.665	0.377	-0.078
-355.566	173.505	-0.092	0.132
-354.552	-98.939	0.151	0.038
-353.537	103.589	0.206	-0.241
-352.523	184.576	0.048	0.071
-351.508	26.153	0.049	0.040
-350.493	-67.234	0.466	-0.183
-349.479	-200.000	-0.027	-0.226
-348.464	97.892	-0.038	0.043
-347.450	195.976	-0.213	0.323
-346.435	-200.000	0.049	0.240
-345.420	102.213	0.153	0.178
-344.406	472.985	-0.089	-0.200
-343.391	112.012	0.089	-0.107
-342.377	-200.000	-0.005	0.132
-341.362	-14.178	0.117	-0.075
-340.348	-124.209	0.112	0.017
-339.333	800.000	0.019	0.074
-338.318	-87.549	0.305	-0.092
-337.304	800.000	-0.049	0.167
-336.289	154.107	0.060	0.082
-335.275	-142.071	-0.492	-0.049
-334.260	-174.290	-0.302	-0.009
-333.245	196.232	-0.059	0.089
-332.231	-34.549	-0.090	-0.049
-331.216	-120.496	0.142	0.024
-330.202	558.757	-0.178	-0.427
-329.187	-91.591	-0.337	-0.096
-328.172	15.903	0.166	-0.130
-327.158	-200.000	-0.072	0.433
-326.143	-200.000	-0.040	-0.203
-325.129	800.000	-0.054	0.174
-324.114	800.000	-0.053	0.200
-323.099	-106.878	0.054	0.012
-322.085	800.000	0.040	-0.170
-321.070	-200.000	0.012	0.131
-320.056	-27.436	0.095	0.055
-319.041	419.708	0.122	0.261
-318.026	69.211	-0.170	0.174
-317.012	26.161	-0.118	0.098
-315.997	7.247	-0.186	-0.138
-314.983	-1.927	-0.135	0.094
-313.968	-200.000	-0.045	-0.206
-312.953	194.071	0.063	0.095
-311.939	-200.000	0.018	0.240
-310.924	-69.519	0.053	-0.020
-309.910	-77.623	-0.310	-0.107
-308.895	-200.000	-0.007	0.030
-307.880	-175.540	0.339	-0.009
-306.866	-163.966	-0.090	-0.004
-305.851	-199.843	-0.158	0.001
-304.837	-167.283	0.207	0.008
-303.822	124.549	-0.127	0.159
-302.807	165.810	-0.033	0.047
-301.793	-154.606	-0.234	0.015
-300.778	344.144	-0.110	-0.214
-299.764	-75.002	0.090	0.032
-298.749	678.102	0.080	-0.206
-297.735	87.184	0.058	0.064
-296.720	-2.827	-0.243	0.169
-295.705	-174.944	-0.295	0.008
-294.691	-200.000	0.012	-0.217
-293.676	-110.342	0.205	-0.042
-292.662	-132.977	-0.096	0.012
-291.647	-154.756	0.181	0.012
-290.632	-200.000	0.052	0.468
-289.618	-151.633	-0.240	-0.018
-288.603	150.021	0.274	-0.369
-287.589	-61.551	-0.315	-0.131
-286.574	-200.000	-0.046	-0.282
-285.559	-114.516	0.134	-0.026
-284.545	28.311	-0.085	-0.071
-283.530	-12.791	-0.122	-0.079
-282.516	-150.654	0.370	-0.028
-281.501	0.311	0.178	-0.126
-280.486	-71.569	0.348	0.129
-279.472	-77.448	-0.160	0.055
-278.457	29.049	-0.292	0.246
-277.443	51.024	0.032	0.030
-276.428	800.000	-0.050	0.167
-275.413	86.318	-0.174	0.190
-274.399	448.822	-0.132	0.290
-273.384	-126.927	0.133	0.019
-272.370	56.114	0.161	-0.155
-271.355	-200.000	0.016	0.158
-270.340	223.761	0.047	-0.076
-269.326	-200.000	-0.037	-0.303
-268.311	-16.102	0.205	-0.129
-267.297	-77.907	0.174	0.060
-266.282	-102.968	-0.210	-0.050
-265.267	179.231	0.157	0.229
-264.253	116.828	-0.061	0.075
-263.238	-193.761	0.047	-0.000
-262.224	-200.000	-0.041	0.319
-261.209	-121.054	-0.179	0.030
-260.195	-95.823	0.319	-0.084
-259.180	-164.962	-0.296	0.013
-258.165	-53.220	-0.156	-0.071
-257.151	72.304	-0.227	-0.234
-256.136	71.647	0.120	0.123
-255.122	-47.376	0.219	0.106
-254.107	-200.000	0.015	0.157
-253.092	800.000	-0.041	0.150
-252.078	-98.763	-0.087	-0.022
-251.063	800.000	-0.083	0.295
-250.049	4.648	0.254	-0.185
-249.034	124.908	-0.143	-0.178
-248.019	-172.815	-0.332	0.010
-247.005	-200.000	-0.063	0.360
-245.990	-71.952	-0.118	-0.044
-244.976	-89.126	-0.128	-0.038
-243.961	238.667	0.199	-0.328
-242.946	111.822	-0.205	-0.245
-241.932	-146.824	-0.353	0.030
-240.917	23.443	-0.179	-0.146
-239.903	800.000	-0.051	-0.157
-238.888	-90.999	0.209	0.059
-237.873	-32.250	0.162	-0.090
-236.859	-200.000	-0.009	-0.211
-235.844	-159.061	-0.402	0.023
-234.830	-99.205	0.297	0.074
-233.815	385.431	0.078	-0.160
-232.800	36.200	0.266	-0.232
-231.786	246.393	-0.123	-0.206
-230.771	-200.000	-0.031	-0.352
-229.757	120.955	0.144	-0.178
-228.742	-200.000	0.003	-0.307
-227.727	105.327	-0.142	-0.166
-226.713	107.188	0.244	0.288
-225.698	39.259	-0.203	0.180
-224.684	800.000	-0.043	0.163
-223.669	258.893	0.129	-0.220
-222.655	-24.938	0.243	0.143
-221.640	-43.161	-0.123	-0.062
-220.625	235.410	0.301	0.492
-219.611	-200.000	-0.031	-0.329
-218.596	-140.153	-0.208	-0.022
-217.582	-97.444	0.034	0.009
-216.567	-40.240	0.184	-0.095
-215.552	717.323	-0.134	0.354
-214.538	-37.479	-0.133	-0.070
-213.523	567.862	-0.071	-0.170
-212.509	-84.114	0.274	0.086
-211.494	-200.000	0.010	0.127
-210.479	36.789	-0.095	0.083
-209.465	-200.000	0.002	-0.068
-208.450	-72.847	0.315	-0.115
-207.436	95.222	0.204	0.230
-206.421	-131.106	-0.209	0.028
-205.406	52.324	-0.114	0.108
-204.392	-200.000	-0.045	-0.211
-203.377	-1.116	-0.212	0.148
-202.363	782.119	0.115	0.313
-201.348	187.810	0.054	-0.080
-200.333	-200.000	-0.028	-0.148
-199.319	125.258	0.087	0.109
-198.304	723.098	-0.131	-0.345
-197.290	8.586	0.027	0.020
-196.275	-200.000	0.004	0.028
-195.260	677.920	-0.025	-0.065
-194.246	-200.000	-0.014	0.202
-193.231	-124.933	0.241	-0.037
-192.217	-108.246	0.202	0.043
-191.202	-20.769	0.112	0.068
-190.187	61.478	0.217	-0.213
-189.173	109.496	0.083	-0.098
-188.158	-124.430	0.059	0.009
-187.144	18.937	-0.200	0.158
-186.129	-24.771	0.015	-0.009
-185.114	-82.645	0.213	-0.068
-184.100	118.782	0.180	-0.220
-183.085	-73.287	0.194	-0.070
-182.071	161.842	-0.109	-0.151
-181.056	-45.178	0.039	-0.019
-180.042	-122.948	-0.326	0.052
-179.027	-4.784	0.124	0.084
-178.012	-130.672	0.236	-0.031
-176.998	118.072	0.146	-0.177
-175.983	146.585	-0.157	-0.209
-174.969	800.000	-0.040	0.119
-173.954	438.317	-0.084	0.181
-172.939	-125.723	-0.181	0.027
-171.925	267.172	-0.098	-0.169
-170.910	-136.324	-0.201	-0.023
-169.896	-107.342	0.082	-0.018
-168.881	67.268	-0.283	-0.286
-167.866	-21.166	-0.192	-0.116
-166.852	-200.000	-0.029	-0.275
-165.837	-111.699	-0.108	0.022
-164.823	-55.011	0.205	0.091
-163.808	-60.842	-0.251	0.105
-162.793	195.948	0.117	-0.176
-161.779	-174.677	0.346	0.010
-160.764	37.246	-0.167	0.146
-159.750	180.687	0.201	-0.291
-158.735	70.159	-0.111	0.113
-157.720	-77.980	0.109	0.037
-156.706	105.390	0.102	-0.119
-155.691	-200.000	-0.057	0.260
-154.677	-58.163	0.102	0.044
-153.662	-134.119	0.138	0.017
-152.647	-200.000	0.057	-0.255
-151.633	124.411	0.277	0.345
-150.618	800.000	0.022	0.069
-149.604	-200.000	0.056	0.291
-148.589	564.239	-0.131	0.313
-147.574	2.683	-0.077	0.055
-146.560	-200.000	-0.003	0.244
-145.545	41.408	0.246	-0.220
-144.531	800.000	-0.006	0.022
-143.516	-38.085	-0.044	0.023
-142.502	800.000	-0.127	0.374
-141.487	-200.000	0.005	0.056
-140.472	98.120	-0.149	-0.169
-139.458	8.066	0.172	0.127
-138.443	-179.952	0.212	0.004
-137.429	213.792	0.098	0.153
-136.414	800.000	-0.027	-0.105
-135.399	413.518	0.039	-0.081
-134.385	-80.159	0.161	-0.053
-133.370	-140.551	0.360	0.037
-132.356	95.916	-0.157	-0.177
-131.341	-146.434	0.183	0.016
-130.326	-200.000	0.078	0.546
-129.312	800.000	-0.036	-0.142
-128.297	172.603	0.078	0.110
-127.283	-200.000	-0.015	0.254
-126.268	-156.210	0.311	0.019
-125.253	-98.064	-0.303	0.077
-124.239	-200.000	-0.011	0.154
-123.224	-58.148	-0.184	0.079
-122.210	-11.388	0.218	0.142
-121.195	7.780	-0.190	-0.140
-120.180	-40.331	0.236	0.121
-119.166	800.000	-0.012	-0.038
-118.151	-118.823	0.026	-0.005
-117.137	-200.000	-0.012	0.370
-116.122	-17.594	0.189	-0.117
-115.107	139.564	-0.133	-0.172
-114.093	-110.942	0.139	-0.028
-113.078	47.138	-0.381	0.350
-112.064	137.374	0.169	0.218
-111.049	260.436	0.160	0.274
-110.034	42.772	-0.189	-0.170
-109.020	-99.506	0.049	0.012
-108.005	88.785	0.356	-0.390
-106.991	-90.092	-0.114	0.033
-105.976	175.151	-0.145	0.207
-104.962	-150.800	0.277	-0.021
-103.947	-200.000	0.049	-0.221
-102.932	-200.000	-0.041	0.350
-101.918	118.588	-0.090	0.109
-100.903	-75.825	-0.205	-0.072
-99.889	91.683	-0.094	-0.105
-98.874	273.761	-0.139	0.242
-97.859	-200.000	0.034	0.155
-96.845	-171.500	-0.384	-0.013
-95.830	-200.000	0.068	0.295
-94.816	-77.105	-0.123	0.042
-93.801	-200.000	-0.004	0.324
-92.786	220.024	-0.085	-0.134
-91.772	200.403	-0.200	-0.302
-90.757	800.000	0.083	0.243
-89.743	50.798	-0.064	0.060
-88.728	266.278	-0.060	0.103
-87.713	-83.670	0.297	-0.094
-86.699	-79.970	-0.192	0.063
-85.684	-103.336	-0.130	0.030
-84.670	-41.944	0.089	0.045
-83.655	-41.766	-0.144	-0.073
-82.640	-124.514	-0.201	-0.031
-81.626	279.278	-0.094	-0.165
-80.611	647.539	0.015	0.037
-79.597	-200.000	0.014	0.265
-78.582	42.417	-0.232	0.208
-77.567	-200.000	-0.299	0.001
-76.553	195.541	0.050	0.075
-75.538	-200.000	-0.012	0.145
-74.524	316.242	-0.246	0.457
-73.509	800.000	0.140	-0.464
-72.494	230.537	-0.162	0.262
-71.480	-200.000	-0.036	-0.172
-70.465	104.005	0.111	-0.128
-69.451	-144.661	0.321	-0.029
-68.436	800.000	0.081	0.267
-67.422	44.743	0.147	0.133
-66.407	800.000	-0.042	0.154
-65.392	396.440	-0.043	-0.089
-64.378	800.000	0.036	0.142
-63.363	-76.330	-0.388	-0.134
-62.349	-145.767	-0.160	-0.014
-61.334	44.721	-0.699	-0.633
-60.319	-5.229	0.302	0.204
-59.305	327.612	-0.326	-0.616
-58.290	187.813	0.793	1.165
-57.276	800.000	0.370	1.334
-56.261	-200.000	96.014	595.429
-55.246	564.865	1374.777	3279.926
-54.232	160.553	2552.850	3506.753
-53.217	112.236	2163.468	2574.641
-52.203	42.918	1708.685	1533.103
-51.188	35.325	1522.483	1314.203
-50.173	32.908	1495.883	1274.892
-49.159	52.089	1544.692	1448.521
-48.144	53.949	1561.567	1477.051
-47.130	35.524	1521.579	1314.574
-46.115	32.427	1507.061	1280.940
-45.100	32.331	1503.339	1277.070
-44.086	32.291	1501.698	1275.354
-43.071	32.246	1499.956	1273.521
-42.057	32.236	1498.095	1271.821
-41.042	32.117	1496.946	1269.994
-40.027	32.175	1495.681	1269.264
-39.013	32.094	1494.742	1267.864
-37.998	32.180	1492.735	1266.693
-36.984	32.220	1491.996	1266.286
-35.969	32.270	1490.013	1264.891
-34.954	32.162	1488.614	1262.928
-33.940	32.195	1487.471	1262.127
-32.925	32.240	1486.001	1261.130
-31.911	32.335	1484.432	1260.387
-30.896	32.249	1483.073	1258.608
-29.881	32.213	1482.031	1257.432
-28.867	32.258	1480.943	1256.761
-27.852	32.169	1479.706	1255.063
-26.838	32.283	1477.817	1254.174
-25.823	32.267	1476.066	1252.533
-24.809	32.216	1474.300	1250.642
-23.794	32.186	1473.157	1249.427
-22.779	32.201	1472.073	1248.559
-21.765	32.231	1470.988	1247.786
-20.750	32.301	1469.310	1246.778
-19.736	32.141	1468.482	1244.966
-18.721	32.159	1467.763	1244.426
-17.706	32.140	1466.761	1243.402
-16.692	32.125	1465.274	1241.990
-15.677	32.152	1464.697	1241.630
-14.663	32.154	1463.299	1240.409
-13.648	32.095	1462.241	1239.074
-12.633	32.127	1461.380	1238.510
-11.619	32.110	1460.850	1237.900
-10.604	32.038	1460.222	1236.842
-9.590	32.088	1459.220	1236.273
-8.575	32.106	1458.226	1235.501
-7.560	32.209	1457.096	1235.167
-6.546	32.116	1456.623	1234.112
-5.531	32.041	1455.274	1232.423
-4.517	32.092	1454.156	1231.763
-3.502	32.088	1453.099	1230.795
-2.487	32.073	1452.556	1230.187
-1.473	32.018	1450.855	1228.339
-0.458	32.105	1449.593	1227.790
0.556	31.979	1440.348	1217.070
1.571	29.285	1415.042	1178.381
2.586	25.965	1358.992	1111.186
3.600	24.419	1279.906	1037.445
4.615	23.041	1233.499	992.019
5.629	19.360	1175.284	925.396
6.644	9.671	1088.497	808.603
7.659	2.782	1046.768	744.210
8.673	1.774	1042.100	735.957
9.688	1.673	1038.823	733.092
10.702	1.499	1037.031	730.923
11.717	1.445	1035.084	729.231
12.731	4.390	1037.827	745.250
13.746	13.961	1051.782	801.584
14.761	22.201	1063.073	850.140
15.775	24.699	1065.246	863.887
16.790	24.950	1064.991	864.816
17.804	24.808	1064.423	863.593
18.819	24.574	1063.648	861.760
19.834	24.738	1062.963	861.918
20.848	24.987	1062.254	862.465
21.863	25.004	1061.916	862.198
22.877	25.057	1061.473	862.019
23.892	25.049	1060.745	861.310
24.907	24.888	1060.193	860.014
25.921	24.931	1059.427	859.523
26.936	24.944	1059.205	859.328
27.950	24.884	1058.123	858.085
28.965	24.854	1056.576	856.615
29.980	24.849	1054.847	855.114
30.994	24.802	1053.980	854.110
32.009	24.926	1053.076	853.892
33.023	25.010	1052.573	853.810
34.038	24.875	1051.229	852.001
35.053	24.852	1050.293	851.056
36.067	24.896	1050.297	851.193
37.082	24.960	1049.154	850.496
38.096	25.042	1048.280	850.103
39.111	25.122	1047.768	849.989
40.126	25.199	1047.483	850.048
41.140	25.189	1045.781	848.546
42.155	24.857	1044.210	845.628
43.169	24.455	1043.095	842.752
44.184	24.520	1042.244	842.297
45.199	24.640	1040.994	841.776
46.213	24.498	1040.554	840.678
47.228	24.483	1039.529	839.707
48.242	24.786	1038.583	840.293
49.257	24.741	1037.952	839.493
50.271	24.905	1037.042	839.451
51.286	25.024	1036.565	839.550
52.301	25.023	1035.994	839.010
53.315	25.050	1035.133	838.363
54.330	25.037	1034.359	837.604
55.344	24.963	1033.884	836.797
56.359	24.907	1032.928	835.688
57.374	24.914	1032.044	834.933
58.388	24.808	1031.084	833.590
59.403	24.635	1030.596	832.315
60.417	24.760	1029.478	831.920
61.432	24.648	1028.875	830.836
62.447	24.578	1028.351	830.014
63.461	24.752	1027.714	830.233
64.476	24.665	1027.039	829.211
65.490	24.695	1026.411	828.771
66.505	24.517	1025.139	826.849
67.520	24.535	1024.134	826.045
68.534	24.744	1023.440	826.379
69.549	24.562	1022.639	824.818
70.563	24.144	1021.401	821.820
71.578	24.154	1020.468	821.041
72.593	24.261	1019.941	821.039
73.607	24.223	1018.400	819.550
74.622	24.054	1017.749	818.179
75.636	24.380	1017.491	819.395
76.651	24.401	1016.592	818.696
77.666	24.315	1015.723	817.529
78.680	24.265	1014.891	816.558
79.695	24.464	1014.026	816.700
80.709	24.323	1014.235	816.152
81.724	24.653	1012.743	816.389
82.739	24.616	1011.671	815.280
83.753	24.532	1011.261	814.496
84.768	24.802	1010.753	815.243
85.782	25.223	1010.063	816.534
86.797	25.354	1009.290	816.431
87.812	25.298	1008.275	815.282
88.826	25.204	1007.384	814.062
89.841	25.028	1006.971	812.859
90.855	25.269	1005.745	812.888
91.870	25.257	1005.201	812.326
92.884	25.176	1004.464	811.292
93.899	24.945	1003.623	809.496
94.914	25.032	1002.109	808.596
95.928	25.068	1001.593	808.269
96.943	25.187	1000.872	808.154
97.957	24.803	999.873	805.545
98.972	24.681	998.557	803.866
99.987	24.402	997.432	801.636
101.001	24.617	996.725	801.961
102.016	24.867	996.164	802.559
103.030	24.959	995.468	802.340
104.045	24.712	994.547	800.423
105.060	24.781	992.922	799.350
106.074	24.592	991.509	797.300
107.089	24.640	991.175	797.174
108.103	24.962	991.256	798.607
109.118	25.026	990.310	798.057
110.133	24.705	989.356	795.789
111.147	24.762	987.713	794.652
112.162	24.547	986.993	793.049
113.176	24.300	986.013	791.094
114.191	24.465	985.213	791.112
115.206	24.586	984.474	790.989
116.220	24.273	983.328	788.613
117.235	24.174	982.373	787.339
118.249	24.393	981.860	787.823
119.264	24.323	981.098	786.835
120.279	24.172	980.114	785.310
121.293	24.146	979.711	784.805
122.308	24.317	979.030	784.942
123.322	24.443	977.799	784.437
124.337	24.328	976.693	782.976
125.352	24.271	975.599	781.781
126.366	23.745	974.149	778.244
127.381	23.380	973.312	775.910
128.395	24.137	972.519	778.521
129.410	24.696	972.428	780.818
130.424	24.855	971.812	780.952
131.439	24.749	970.714	779.536
132.454	24.721	970.095	778.847
133.468	24.826	968.691	778.109
134.483	24.783	968.190	777.451
135.497	25.046	967.025	777.588
136.512	25.029	966.901	777.344
137.527	24.927	966.430	776.457
138.541	25.020	965.681	776.188
139.556	25.094	965.119	775.988
140.570	25.068	963.954	774.870
141.585	25.170	963.454	774.841
142.600	25.209	962.546	774.212
143.614	24.971	961.635	772.385
144.629	25.222	960.784	772.713
145.643	25.407	960.128	772.912
146.658	25.230	959.057	771.220
147.673	25.150	957.885	769.869
148.687	25.040	956.886	768.525
149.702	25.006	956.017	767.615
150.716	24.894	954.928	766.190
151.731	24.805	954.162	765.128
152.746	24.865	953.467	764.761
153.760	25.064	953.148	765.286
154.775	25.201	952.437	765.231
155.789	25.355	951.327	764.928
156.804	25.358	949.982	763.791
157.819	25.155	949.795	762.710
158.833	25.144	948.587	761.627
159.848	25.314	947.650	761.528
160.862	25.444	947.021	761.506
161.877	25.337	946.437	760.518
162.892	25.220	944.876	758.698
163.906	25.203	944.436	758.207
164.921	25.244	943.414	757.495
165.935	25.065	942.736	756.126
166.950	25.232	941.610	755.859
167.964	25.198	940.809	755.008
168.979	25.149	939.877	753.986
169.994	25.229	938.820	753.408
171.008	24.933	937.827	751.305
172.023	25.231	937.215	751.994
173.037	25.270	936.731	751.703
174.052	25.201	935.333	750.226
175.067	24.885	934.574	748.232
176.081	25.098	933.379	748.097
177.096	25.140	932.583	747.568
178.110	25.054	932.026	746.698
179.125	24.952	930.807	745.230
180.140	24.560	930.097	742.965
181.154	24.647	929.567	742.840
182.169	24.717	928.980	742.592
183.183	25.052	928.524	743.553
184.198	25.367	928.112	744.465
185.213	25.190	927.650	743.293
186.227	25.075	926.869	742.127
187.242	25.173	926.833	742.438
188.256	25.257	925.852	741.934
189.271	25.278	925.045	741.307
190.286	25.232	924.982	741.001
191.300	25.153	923.356	739.307
192.315	24.660	921.967	736.101
193.329	23.804	920.622	731.440
194.344	23.398	919.720	728.988
195.359	24.063	919.831	731.747
196.373	24.835	920.514	735.400
197.388	25.102	919.829	735.882
198.402	25.023	919.097	734.911
199.417	25.173	918.327	734.843
200.432	25.224	918.127	734.826
201.446	24.960	917.422	733.117
202.461	24.772	917.235	732.134
203.475	24.941	916.194	731.930
204.490	24.411	914.876	728.646
205.504	23.260	912.929	722.342
206.519	23.649	912.588	723.592
207.534	24.586	912.805	727.517
208.548	24.717	912.211	727.511
209.563	25.129	911.928	728.899
210.577	25.111	911.506	728.424
211.592	24.851	910.777	726.720
212.607	25.125	910.808	727.793
213.621	25.420	909.945	728.235
214.636	25.154	909.248	726.536
215.650	25.272	908.819	726.605
216.665	25.212	908.265	725.856
217.680	25.312	907.780	725.809
218.694	25.407	907.483	725.891
219.709	25.140	906.216	723.735
220.723	24.604	905.629	721.039
221.738	24.991	904.928	721.978
222.753	25.105	904.429	721.976
223.767	25.064	903.481	720.988
224.782	25.245	902.726	721.053
225.796	25.397	902.476	721.398
226.811	25.406	901.876	720.892
227.826	25.074	900.699	718.557
228.840	24.256	898.840	713.733
229.855	24.223	898.464	713.240
230.869	24.419	898.299	713.831
231.884	24.138	896.961	711.584
232.899	24.119	896.302	710.921
233.913	24.909	896.922	714.505
234.928	25.248	896.003	715.062
235.942	24.943	895.809	713.625
236.957	25.020	895.039	713.258
237.972	24.605	894.024	710.734
238.986	24.674	893.407	710.453
240.001	24.916	892.801	710.872
241.015	24.710	892.439	709.701
242.030	24.768	891.864	709.411
243.045	24.996	891.323	709.824
244.059	25.070	890.826	709.657
245.074	25.184	890.650	709.906
246.088	25.175	889.582	708.957
247.103	24.846	888.654	706.853
248.117	24.853	888.239	706.488
249.132	25.552	887.744	708.791
250.147	25.841	887.789	709.901
251.161	25.782	887.592	709.449
252.176	25.996	887.174	709.895
253.190	25.976	886.565	709.264
254.205	25.929	885.918	708.502
255.220	26.216	885.599	709.310
256.234	26.278	884.763	708.823
257.249	26.053	884.598	707.745
258.263	25.882	883.965	706.503
259.278	25.924	883.118	705.928
260.293	26.072	882.474	705.932
261.307	26.167	881.848	705.738
262.322	26.098	881.208	704.897
263.336	25.853	880.838	703.581
264.351	25.482	879.443	700.958
265.366	24.315	877.355	694.688
266.380	23.795	876.793	692.158
267.395	24.707	877.380	696.111
268.409	25.481	877.177	698.901
269.424	25.461	876.659	698.347
270.439	25.654	875.931	698.455
271.453	25.725	875.578	698.386
272.468	25.835	874.743	698.087
273.482	25.979	873.964	697.961
274.497	26.209	873.776	698.639
275.512	25.852	872.861	696.464
276.526	25.529	871.088	693.741
277.541	25.516	870.878	693.462
278.555	25.780	871.082	694.583
279.570	25.751	870.093	693.621
280.585	25.617	869.423	692.509
281.599	25.621	869.228	692.308
282.614	25.672	868.736	692.052
283.628	25.304	867.477	689.574
284.643	24.872	866.933	687.423
285.657	25.332	866.752	688.983
286.672	25.238	865.961	687.932
287.687	24.632	864.858	684.673
288.701	25.020	864.493	685.812
289.716	25.389	864.947	687.522
290.730	25.079	864.106	685.609
291.745	25.076	862.815	684.513
292.760	24.861	862.378	683.283
293.774	24.693	861.754	682.087
294.789	25.677	862.236	686.164
295.803	26.448	861.801	688.692
296.818	26.385	861.723	688.330
297.833	26.521	860.781	688.033
298.847	26.225	860.034	686.252
299.862	25.810	859.075	683.848
300.876	26.001	858.699	684.213
301.891	26.231	858.736	685.057
302.906	26.431	857.914	685.097
303.920	25.832	856.781	681.867
304.935	25.688	856.500	681.037
305.949	26.374	855.684	682.921
306.964	26.337	855.516	682.586
307.979	26.169	854.691	681.232
308.993	26.057	853.979	680.181
310.008	26.261	854.080	680.974
311.022	26.511	853.360	681.278
312.037	26.355	853.097	680.421
313.052	25.961	852.501	678.402
314.066	25.941	851.487	677.464
315.081	25.413	849.802	674.082
316.095	24.430	848.883	669.607
317.110	24.988	849.310	671.979
318.125	25.971	849.304	675.597
319.139	25.435	848.310	672.743
320.154	24.414	846.365	667.322
321.168	23.926	845.668	664.891
322.183	24.660	845.603	667.522
323.197	25.441	846.076	670.754
324.212	25.862	845.756	672.013
325.227	26.044	845.312	672.277
326.241	26.165	845.180	672.563
327.256	26.007	844.224	671.158
328.270	25.950	843.787	670.536
329.285	25.865	842.925	669.476
330.300	25.669	842.407	668.278
331.314	25.412	841.782	666.772
332.329	25.655	841.018	667.006
333.343	25.950	840.746	667.825
334.358	26.140	840.797	668.511
335.373	26.064	840.006	667.540
336.387	26.186	839.706	667.696
337.402	26.339	839.363	667.927
338.416	26.663	838.783	668.603
339.431	26.451	838.563	667.585
340.446	26.677	837.666	667.649
341.460	26.783	837.675	667.986
342.475	26.747	836.569	666.913
343.489	26.561	835.884	665.625
344.504	26.634	835.481	665.510
345.519	26.828	835.166	665.914
346.533	27.077	834.818	666.491
347.548	26.976	834.671	665.944
348.562	27.008	833.849	665.347
349.577	27.165	832.822	665.045
350.592	26.944	832.654	664.043
351.606	26.909	832.177	663.475
352.621	26.937	831.777	663.198
353.635	26.754	831.441	662.206
354.650	26.751	830.767	661.599
355.665	26.564	829.727	660.031
356.679	25.318	828.065	654.112
357.694	25.217	827.352	653.123
358.708	25.837	827.522	655.455
359.723	25.943	826.798	655.209
360.738	26.096	826.778	655.691
361.752	26.550	826.439	657.016
362.767	26.694	826.329	657.391
363.781	27.002	826.282	658.412
364.796	27.204	825.949	658.819
365.810	27.253	825.713	658.753
366.825	27.261	825.603	658.635
367.840	27.237	824.993	658.003
368.854	27.156	824.136	656.970
369.869	26.886	823.176	655.170
370.883	26.730	822.408	653.938
371.898	26.834	822.087	654.002
372.913	26.685	821.537	652.968
373.927	26.775	820.780	652.631
374.942	26.842	820.196	652.350
375.956	26.903	819.777	652.180
376.971	27.080	819.332	652.403
377.986	27.271	818.814	652.619
379.000	27.367	818.206	652.422
380.015	27.376	817.567	651.885
381.029	27.215	816.844	650.674
382.044	27.157	816.373	650.035
383.059	27.340	816.013	650.346
384.073	27.275	815.606	649.733
385.088	27.273	815.549	649.621
386.102	27.275	814.768	648.950
387.117	27.263	813.208	647.607
388.132	27.007	812.976	646.452
389.146	26.744	812.625	645.180
390.161	26.200	811.780	642.518
391.175	26.327	811.289	642.521
392.190	26.851	811.578	644.560
393.205	26.992	811.082	644.609
394.219	26.027	808.980	639.460
395.234	24.353	806.882	631.822
396.248	23.380	806.084	627.695
397.263	24.685	806.587	632.652
398.278	26.425	808.241	640.060
399.292	26.843	808.002	641.293
400.307	26.531	807.235	639.523
401.321	26.528	807.287	639.500
402.336	26.485	806.790	638.898
403.350	26.789	806.724	639.862
404.365	27.348	806.527	641.620
405.380	27.570	806.432	642.270
406.394	27.913	806.027	643.099
407.409	28.002	805.895	643.250
408.423	28.032	804.845	642.458
409.438	27.941	804.329	641.671
410.453	28.018	804.176	641.764
411.467	28.083	803.560	641.442
412.482	27.892	803.180	640.414
413.496	27.932	802.764	640.163
414.511	27.966	802.257	639.824
415.526	28.151	802.032	640.233
416.540	28.025	801.806	639.557
417.555	27.944	800.914	638.504
418.569	27.657	800.007	636.725
419.584	27.592	799.626	636.136
420.599	27.639	799.351	636.026
421.613	109.874	1286.660	1458.773
422.628	94.673	1357.643	1458.876
