DTS Sentinel unit serial number:	SN413079Multiplexer serial number:	ORYXHardware model number:	OX4-SRSoftware version number:	ORYX F/W v4.00 Oryx Data Collector v3.7.2.0data status	okinstallation	princeton_trtdifferential loss correction	single-endedforward channel	channel 3reverse channel	N/Adate	2019/09/11time	11:38:11forward acquisition time	60.00reverse acquisition time	0.00gamma	496.2192k internal	0.2293k external	0.2293temperature offset calibration	0.9939default loss term (dB/km)	0.3790temperature slope calibration	1.0000multiplexer offset coefficient	1.0000multiplexer slope coefficient	1.0000fibre end	0.00T internal ref (°C)	38.36T ext. ref 1 (°C)	0.19T ext. ref 2 (°C)	35.88length (m)	temperature (°C)	Stokes	anti-Stokes-747.200	424.573	-0.127	0.279
-746.185	250.979	0.174	0.302
-745.171	-154.746	0.415	0.028
-744.156	-58.974	-0.165	0.073
-743.142	-200.000	-0.013	0.067
-742.127	-145.128	0.088	0.008
-741.112	-200.000	0.004	-0.267
-740.098	800.000	-0.072	0.243
-739.083	260.612	0.074	0.131
-738.069	-13.939	0.166	0.110
-737.054	-7.656	0.146	0.101
-736.039	-33.748	0.299	-0.169
-735.025	25.482	0.140	-0.119
-734.010	-60.762	-0.131	0.057
-732.996	-43.156	-0.113	-0.059
-731.981	-48.345	-0.092	0.045
-730.966	221.211	-0.140	0.229
-729.952	-123.209	-0.246	0.040
-728.937	-200.000	-0.051	-0.321
-727.923	-14.177	-0.183	-0.121
-726.908	68.574	0.146	-0.154
-725.894	-1.267	-0.151	-0.109
-724.879	-200.000	-0.013	0.074
-723.864	-80.363	0.338	-0.115
-722.850	800.000	-0.126	-0.373
-721.835	-99.849	-0.235	0.060
-720.821	94.327	0.051	0.060
-719.806	-200.000	0.032	-0.309
-718.791	-105.111	0.081	-0.019
-717.777	-200.000	-0.041	-0.242
-716.762	-50.261	-0.342	0.165
-715.748	353.447	-0.108	-0.218
-714.733	-48.702	-0.234	0.115
-713.718	-100.743	0.185	0.046
-712.704	268.656	0.059	0.107
-711.689	171.738	0.136	0.200
-710.675	138.855	0.020	-0.027
-709.660	800.000	-0.027	-0.100
-708.645	659.876	0.051	-0.135
-707.631	72.174	0.105	-0.112
-706.616	-144.219	-0.266	-0.025
-705.602	-144.224	0.433	-0.041
-704.587	800.000	0.067	0.298
-703.572	-138.485	0.235	0.026
-702.558	-200.000	-0.013	-0.239
-701.543	-71.568	-0.225	-0.086
-700.529	-121.514	0.237	0.040
-699.514	55.126	0.149	0.147
-698.499	-159.272	-0.406	0.023
-697.485	250.181	-0.073	-0.127
-696.470	-123.426	-0.261	0.042
-695.456	4.482	0.208	-0.156
-694.441	100.059	0.157	0.186
-693.426	-75.969	-0.263	0.095
-692.412	-39.221	0.388	-0.208
-691.397	56.260	0.237	0.235
-690.383	-200.000	-0.221	0.000
-689.368	-26.573	-0.399	-0.239
-688.354	94.663	-0.088	0.102
-687.339	-54.419	0.075	0.035
-686.324	-56.645	0.166	0.075
-685.310	331.290	-0.178	-0.350
-684.295	-77.091	-0.457	0.163
-683.281	800.000	0.065	-0.199
-682.266	-116.777	-0.276	-0.052
-681.251	-200.000	-0.006	-0.101
-680.237	-200.000	0.015	-0.083
-679.222	128.465	-0.133	-0.172
-678.208	-200.000	0.023	-0.191
-677.193	-200.000	-0.010	-0.184
-676.178	-105.644	0.069	0.016
-675.164	-26.448	0.107	0.064
-674.149	-70.066	-0.268	0.104
-673.135	55.407	-0.185	-0.182
-672.120	-102.398	-0.202	-0.049
-671.105	-200.000	-0.014	0.244
-670.091	68.836	0.141	-0.147
-669.076	-200.000	-0.010	-0.049
-668.062	-200.000	0.021	-0.368
-667.047	-200.000	0.010	-0.220
-666.032	69.920	-0.283	-0.298
-665.018	-200.000	0.205	-0.001
-664.003	-105.445	-0.189	0.044
-662.989	142.392	0.059	-0.080
-661.974	-114.279	0.197	-0.039
-660.959	201.575	0.136	-0.213
-659.945	222.580	-0.202	0.331
-658.930	396.276	0.170	-0.362
-657.916	-139.203	0.363	-0.040
-656.901	-59.519	0.262	-0.115
-655.886	-200.000	-0.023	0.155
-654.872	-200.000	0.070	-0.314
-653.857	-56.438	0.168	-0.076
-652.843	19.980	-0.176	-0.145
-651.828	-177.938	0.098	-0.002
-650.814	19.227	0.170	-0.139
-649.799	-200.000	-0.062	-0.278
-648.784	800.000	-0.054	-0.238
-647.770	180.697	-0.208	-0.312
-646.755	54.433	0.139	0.137
-645.741	216.538	0.070	0.113
-644.726	-36.495	0.247	-0.136
-643.711	-78.721	0.263	0.091
-642.697	800.000	-0.038	0.157
-641.682	199.337	0.068	-0.106
-640.668	-97.501	-0.101	-0.027
-639.653	-200.000	0.002	0.111
-638.638	-168.415	0.525	0.021
-637.624	-52.245	-0.319	-0.151
-636.609	229.116	0.173	-0.287
-635.595	-200.000	0.020	-0.092
-634.580	-129.305	0.375	-0.053
-633.565	-56.009	-0.201	-0.091
-632.551	63.089	0.360	-0.368
-631.536	-125.242	0.124	0.019
-630.522	13.517	0.223	-0.177
-629.507	127.928	0.150	0.194
-628.492	-99.442	0.265	0.068
-627.478	-200.000	-0.002	0.432
-626.463	271.392	-0.152	0.272
-625.449	-200.000	-0.021	0.160
-624.434	14.159	-0.185	-0.147
-623.419	-123.797	-0.227	0.036
-622.405	379.703	-0.141	0.295
-621.390	-10.170	-0.137	-0.092
-620.376	-200.000	-0.005	-0.093
-619.361	142.468	-0.178	-0.241
-618.346	-200.000	-0.033	-0.161
-617.332	-200.000	0.023	0.139
-616.317	31.530	-0.290	-0.253
-615.303	-200.000	0.028	0.418
-614.288	-62.837	-0.494	0.208
-613.273	-156.296	-0.134	0.009
-612.259	336.578	0.139	-0.274
-611.244	61.344	0.166	-0.168
-610.230	-14.477	0.154	-0.101
-609.215	-4.291	0.065	-0.046
-608.201	-123.218	-0.023	-0.004
-607.186	145.281	-0.056	0.076
-606.171	-7.304	-0.462	-0.319
-605.157	-87.266	-0.241	0.075
-604.142	-157.164	-0.262	0.016
-603.128	-103.407	0.063	-0.015
-602.113	-9.021	0.114	0.077
-601.098	141.682	0.115	0.156
-600.084	304.425	-0.092	0.174
-599.069	-200.000	0.016	-0.177
-598.055	216.759	-0.033	-0.053
-597.040	-200.000	0.035	0.214
-596.025	-200.000	-0.013	0.065
-595.011	-200.000	0.002	0.216
-593.996	800.000	-0.053	-0.161
-592.982	-133.493	0.236	-0.030
-591.967	-200.000	0.015	0.128
-590.952	-62.046	0.281	-0.120
-589.938	-171.198	-0.163	-0.006
-588.923	-125.790	-0.146	0.022
-587.909	57.788	0.133	-0.132
-586.894	84.071	-0.164	0.182
-585.879	102.183	-0.107	0.127
-584.865	800.000	0.053	-0.232
-583.850	207.512	-0.107	-0.169
-582.836	-73.573	-0.308	-0.114
-581.821	110.747	-0.146	0.179
-580.806	125.819	0.148	0.190
-579.792	-77.901	-0.342	0.120
-578.777	-167.681	-0.360	0.015
-577.763	-35.252	-0.211	0.117
-576.748	-200.000	0.008	-0.083
-575.733	-65.620	0.119	-0.048
-574.719	412.463	0.156	0.336
-573.704	-42.331	-0.206	0.107
-572.690	800.000	0.021	0.090
-571.675	8.288	0.207	0.158
-570.661	243.593	0.094	-0.160
-569.646	242.024	-0.179	-0.305
-568.631	84.739	-0.036	0.040
-567.617	641.635	-0.054	0.139
-566.602	-41.671	0.034	-0.018
-565.588	-82.638	0.203	0.067
-564.573	800.000	-0.026	0.097
-563.558	-110.750	-0.157	0.033
-562.544	-137.744	-0.078	0.009
-561.529	401.683	0.103	-0.220
-560.515	784.746	0.141	-0.393
-559.500	-86.711	0.460	0.143
-558.485	-200.000	-0.008	0.061
-557.471	-19.603	0.184	-0.116
-556.456	-19.033	0.153	0.096
-555.442	-170.919	0.093	-0.003
-554.427	82.533	-0.356	0.392
-553.412	-62.171	-0.209	-0.088
-552.398	333.771	0.142	-0.279
-551.383	-40.952	-0.477	-0.250
-550.369	800.000	-0.011	-0.034
-549.354	208.344	0.019	-0.030
-548.339	-2.746	-0.018	-0.013
-547.325	-33.388	-0.150	0.084
-546.310	-200.000	0.011	0.142
-545.296	-87.146	-0.150	-0.046
-544.281	246.975	0.064	-0.110
-543.266	800.000	0.013	-0.053
-542.252	504.416	0.053	-0.123
-541.237	-151.454	-0.117	-0.009
-540.223	-90.840	0.128	0.037
-539.208	-200.000	0.013	0.058
-538.193	-200.000	0.073	0.402
-537.179	-98.576	0.251	0.065
-536.164	-200.000	0.041	0.199
-535.150	-200.000	0.004	-0.138
-534.135	678.646	-0.082	-0.216
-533.121	-200.000	0.001	-0.404
-532.106	303.250	-0.122	0.228
-531.091	-200.000	-0.016	0.144
-530.077	177.067	-0.054	-0.079
-529.062	684.622	0.030	-0.079
-528.048	52.998	-0.054	-0.052
-527.033	-149.453	0.136	-0.011
-526.018	-42.478	0.383	0.198
-525.004	-154.950	0.055	-0.004
-523.989	306.766	-0.123	-0.233
-522.975	-149.440	-0.098	0.008
-521.960	24.819	0.107	0.090
-520.945	-138.416	-0.191	-0.021
-519.931	170.324	0.061	-0.089
-518.916	77.530	-0.151	-0.164
-517.902	-157.882	0.126	0.008
-516.887	-200.000	0.026	0.211
-515.872	180.770	-0.106	0.158
-514.858	-200.000	0.015	-0.122
-513.843	-200.000	-0.012	0.078
-512.829	50.950	-0.346	0.332
-511.814	79.850	0.181	0.197
-510.799	-74.211	0.290	-0.106
-509.785	-200.000	0.000	-0.141
-508.770	-200.000	0.026	-0.129
-507.756	-121.702	-0.075	0.013
-506.741	-200.000	-0.047	-0.587
-505.726	11.900	0.398	-0.310
-504.712	-80.657	0.147	0.050
-503.697	691.222	0.094	0.250
-502.683	80.712	0.123	0.135
-501.668	-165.373	-0.187	-0.008
-500.653	58.890	0.148	-0.148
-499.639	-37.454	0.033	-0.018
-498.624	50.856	0.273	-0.262
-497.610	800.000	0.072	0.243
-496.595	800.000	0.018	0.077
-495.581	-46.415	-0.035	0.017
-494.566	-6.870	-0.410	-0.282
-493.551	-92.626	0.128	0.036
-492.537	0.209	-0.268	0.194
-491.522	384.676	-0.086	-0.179
-490.508	-136.688	-0.123	-0.014
-489.493	-35.445	-0.557	0.306
-488.478	11.030	0.276	0.214
-487.464	-200.000	0.007	-0.117
-486.449	655.240	-0.073	-0.191
-485.435	19.363	-0.047	-0.039
-484.420	17.957	-0.292	-0.235
-483.405	223.160	-0.134	0.219
-482.391	-55.903	-0.372	0.168
-481.376	297.348	-0.114	-0.212
-480.362	122.569	-0.202	-0.256
-479.347	348.799	0.104	0.208
-478.332	-200.000	-0.020	0.220
-477.318	-64.620	-0.231	0.095
-476.303	-137.951	0.182	0.021
-475.289	47.603	0.205	-0.194
-474.274	56.124	0.156	0.153
-473.259	72.164	0.408	0.430
-472.245	800.000	-0.075	0.270
-471.230	800.000	0.022	-0.085
-470.216	-200.000	0.027	0.265
-469.201	64.020	-0.017	0.017
-468.186	-200.000	-0.015	0.231
-467.172	11.694	-0.184	-0.143
-466.157	-126.545	0.258	-0.039
-465.143	-200.000	0.006	-0.262
-464.128	216.330	0.158	-0.254
-463.113	-39.428	-0.133	0.071
-462.099	800.000	-0.070	0.204
-461.084	-122.521	-0.042	-0.007
-460.070	-200.000	0.025	0.255
-459.055	-106.904	-0.044	-0.010
-458.040	612.918	-0.166	0.422
-457.026	119.679	0.092	0.116
-456.011	800.000	-0.090	0.283
-454.997	-101.915	0.347	-0.085
-453.982	143.104	-0.048	0.064
-452.968	800.000	-0.061	-0.227
-451.953	-85.643	-0.286	0.090
-450.938	13.270	-0.100	0.078
-449.924	800.000	0.013	0.038
-448.909	-90.905	-0.293	0.085
-447.895	800.000	0.069	0.269
-446.880	191.510	-0.174	-0.265
-445.865	176.648	-0.070	0.102
-444.851	-107.901	0.123	0.027
-443.836	167.780	-0.053	-0.076
-442.822	-122.755	0.064	0.011
-441.807	-58.458	-0.144	-0.063
-440.792	-21.395	-0.095	0.059
-439.778	-25.908	0.104	0.062
-438.763	-56.911	-0.229	-0.102
-437.749	236.364	-0.153	0.257
-436.734	800.000	0.033	0.109
-435.719	273.557	0.208	-0.371
-434.705	67.807	-0.291	-0.301
-433.690	382.713	0.092	0.191
-432.676	93.525	0.217	0.248
-431.661	-36.274	0.110	-0.060
-430.646	-200.000	0.051	0.303
-429.632	68.472	0.222	0.230
-428.617	-90.077	0.179	-0.053
-427.603	-0.279	0.212	-0.152
-426.588	800.000	0.046	-0.165
-425.573	64.270	-0.204	0.208
-424.559	800.000	-0.123	-0.370
-423.544	-96.438	0.063	0.017
-422.530	350.175	-0.111	-0.223
-421.515	45.124	0.097	0.090
-420.500	-72.570	-0.277	-0.103
-419.486	107.146	-0.125	-0.150
-418.471	-45.059	0.245	0.123
-417.457	-200.000	-0.022	-0.159
-416.442	-70.763	0.135	0.051
-415.428	-200.000	-0.063	-0.371
-414.413	-21.472	0.189	0.116
-413.398	201.667	0.060	0.093
-412.384	-132.339	-0.278	-0.036
-411.369	-70.566	0.246	0.094
-410.355	346.352	-0.072	0.143
-409.340	162.728	-0.075	-0.106
-408.325	67.674	0.094	-0.097
-407.311	89.746	-0.160	-0.180
-406.296	683.733	0.068	0.179
-405.282	-86.741	0.027	0.008
-404.267	214.036	-0.207	0.331
-403.252	-66.603	0.085	0.034
-402.238	317.658	-0.076	-0.146
-401.223	-45.770	0.068	-0.034
-400.209	92.110	0.059	0.067
-399.194	155.828	0.151	0.210
-398.179	88.164	0.124	-0.138
-397.165	408.987	0.029	-0.062
-396.150	800.000	-0.156	-0.445
-395.136	-163.453	-0.184	-0.009
-394.121	373.040	0.132	-0.270
-393.106	-200.000	-0.007	-0.172
-392.092	-80.135	-0.278	-0.094
-391.077	800.000	0.009	-0.031
-390.063	-68.712	0.240	-0.094
-389.048	-98.361	0.164	0.042
-388.033	235.153	-0.016	-0.027
-387.019	800.000	0.017	-0.072
-386.004	-200.000	-0.008	-0.233
-384.990	-149.068	0.120	-0.010
-383.975	800.000	0.064	0.200
-382.960	800.000	0.071	0.203
-381.946	-200.000	-0.032	0.324
-380.931	51.213	-0.114	-0.109
-379.917	-200.000	-0.050	-0.566
-378.902	-39.278	-0.262	0.139
-377.888	158.777	0.053	-0.074
-376.873	194.068	0.151	0.230
-375.858	-68.669	0.434	-0.170
-374.844	-16.907	-0.062	0.040
-373.829	-143.049	-0.099	-0.010
-372.815	-167.244	-0.121	0.005
-371.800	-200.000	0.036	0.245
-370.785	-176.549	0.293	0.008
-369.771	17.804	0.023	-0.019
-368.756	-9.399	-0.229	-0.154
-367.742	140.216	-0.178	-0.237
-366.727	-114.695	0.181	-0.035
-365.712	57.975	-0.177	-0.175
-364.698	-200.000	-0.043	-0.401
-363.683	670.944	0.111	-0.290
-362.669	334.896	-0.128	0.250
-361.654	-172.149	-0.229	-0.007
-360.639	-139.609	0.385	0.041
-359.625	140.757	0.198	0.264
-358.610	-27.549	-0.080	0.047
-357.596	419.750	-0.114	-0.245
-356.581	156.981	-0.095	-0.133
-355.566	137.394	0.073	0.097
-354.552	141.469	-0.053	-0.071
-353.537	437.076	0.081	0.177
-352.523	233.632	-0.169	0.280
-351.508	72.659	-0.235	0.247
-350.493	-200.000	-0.005	-0.162
-349.479	154.752	0.190	0.263
-348.464	-200.000	0.005	0.118
-347.450	-192.218	0.204	-0.002
-346.435	-200.000	-0.010	-0.093
-345.420	238.458	0.042	-0.070
-344.406	-35.548	0.143	0.078
-343.391	-78.975	0.055	-0.019
-342.377	-57.540	-0.273	-0.121
-341.362	452.669	-0.068	-0.151
-340.348	800.000	0.061	-0.233
-339.333	-76.965	0.213	-0.075
-338.318	-43.857	-0.075	-0.038
-337.304	-56.377	0.174	-0.078
-336.289	-51.550	0.092	-0.043
-335.275	-83.037	0.114	-0.037
-334.260	-89.804	0.143	-0.042
-333.245	340.849	-0.115	-0.226
-332.231	70.945	0.274	-0.286
-331.216	-102.143	0.163	0.039
-330.202	-200.000	0.019	-0.112
-329.187	77.905	-0.065	0.070
-328.172	101.746	0.267	-0.314
-327.158	56.649	0.253	-0.248
-326.143	395.402	0.081	0.171
-325.129	-70.440	0.114	-0.043
-324.114	414.646	-0.093	0.200
-323.099	800.000	0.058	-0.187
-322.085	-200.000	0.053	-0.257
-321.070	-37.387	-0.231	-0.124
-320.056	23.474	-0.119	-0.099
-319.041	-10.991	0.117	0.078
-318.026	199.059	0.063	-0.097
-317.012	-0.976	-0.206	0.147
-315.997	26.536	-0.107	-0.090
-314.983	156.960	-0.118	0.164
-313.968	434.846	0.041	0.089
-312.953	236.774	-0.072	0.119
-311.939	81.905	0.093	-0.102
-310.924	-200.000	0.016	-0.119
-309.910	-200.000	0.033	-0.460
-308.895	267.603	-0.190	-0.334
-307.880	-25.272	-0.290	0.172
-306.866	-200.000	-0.041	0.315
-305.851	-51.746	-0.101	0.047
-304.837	0.447	-0.335	0.241
-303.822	-200.000	0.003	0.212
-302.807	584.690	-0.080	-0.197
-301.793	-35.574	-0.284	0.155
-300.778	655.352	-0.025	-0.064
-299.764	-200.000	0.013	0.376
-298.749	-6.297	-0.303	-0.208
-297.735	96.949	-0.079	-0.091
-296.720	-63.604	0.115	0.047
-295.705	800.000	0.045	0.161
-294.691	109.745	0.077	-0.093
-293.676	-61.367	-0.151	-0.064
-292.662	-82.704	0.103	0.033
-291.647	-200.000	0.024	0.186
-290.632	-16.747	0.455	0.289
-289.618	13.449	0.253	-0.198
-288.603	-200.000	-0.035	-0.317
-287.589	800.000	0.103	-0.303
-286.574	800.000	-0.122	0.374
-285.559	800.000	0.139	0.464
-284.545	-62.447	0.248	-0.104
-283.530	800.000	0.068	0.202
-282.516	411.963	0.049	-0.104
-281.501	356.064	-0.115	-0.230
-280.486	-2.893	0.170	-0.119
-279.472	-11.539	0.119	-0.079
-278.457	681.671	0.022	0.059
-277.443	56.173	0.150	-0.146
-276.428	-153.065	-0.177	-0.012
-275.413	36.663	-0.309	0.274
-274.399	-200.000	-0.013	-0.144
-273.384	-24.783	-0.206	0.123
-272.370	-200.000	-0.025	-0.119
-271.355	240.849	0.145	-0.243
-270.340	469.704	-0.097	0.218
-269.326	-111.070	0.069	-0.014
-268.311	10.972	0.198	-0.152
-267.297	-40.738	0.062	-0.032
-266.282	-70.125	-0.240	0.092
-265.267	269.749	0.126	-0.222
-264.253	-78.778	0.110	-0.038
-263.238	559.186	-0.038	-0.093
-262.224	-1.693	0.136	0.096
-261.209	800.000	-0.058	-0.210
-260.195	351.824	-0.111	0.221
-259.180	-60.171	-0.233	0.100
-258.165	44.522	0.403	-0.372
-257.151	-190.639	-0.340	-0.004
-256.136	1.552	-0.197	0.142
-255.122	-10.861	-0.128	-0.085
-254.107	19.264	-0.096	-0.077
-253.092	-200.000	0.031	0.233
-252.078	131.435	-0.035	0.045
-251.063	-67.435	0.381	0.150
-250.049	635.486	0.060	0.152
-249.034	-77.713	0.146	0.051
-248.019	219.088	-0.176	0.283
-247.005	35.326	-0.118	0.104
-245.990	-133.292	-0.228	0.029
-244.976	-98.372	-0.172	0.044
-243.961	-200.000	0.011	0.480
-242.946	-200.000	0.026	0.292
-241.932	9.043	0.061	-0.046
-240.917	603.508	-0.086	0.214
-239.903	199.091	-0.132	0.202
-238.888	-200.000	0.031	-0.179
-237.873	-200.000	0.024	0.240
-236.859	-200.000	-0.036	0.176
-235.844	-200.000	-0.002	-0.007
-234.830	27.863	0.244	-0.206
-233.815	800.000	0.040	0.166
-232.800	-200.000	0.022	0.447
-231.786	-35.462	0.110	0.060
-230.771	-200.000	-0.022	-0.305
-229.757	800.000	-0.078	-0.243
-228.742	800.000	-0.058	-0.170
-227.727	-40.983	0.225	0.117
-226.713	156.604	-0.123	-0.171
-225.698	-141.963	-0.246	-0.025
-224.684	-31.592	-0.369	-0.208
-223.669	-107.069	0.169	-0.037
-222.655	-96.438	0.141	0.037
-221.640	-200.000	0.028	0.137
-220.625	-200.000	0.032	0.151
-219.611	-57.991	-0.331	-0.145
-218.596	-44.975	0.288	0.144
-217.582	-76.063	-0.054	-0.019
-216.567	479.361	-0.020	0.045
-215.552	768.398	0.136	-0.372
-214.538	22.782	0.058	0.048
-213.523	-76.751	-0.243	-0.085
-212.509	-200.000	-0.034	0.186
-211.494	294.101	0.099	0.182
-210.479	56.008	0.086	0.083
-209.465	-142.311	0.048	-0.005
-208.450	-7.674	0.072	0.049
-207.436	-200.000	0.062	0.336
-206.421	85.263	-0.215	0.236
-205.406	-200.000	-0.026	-0.138
-204.392	220.640	-0.182	0.292
-203.377	-55.945	-0.077	0.034
-202.363	-200.000	0.057	-0.286
-201.348	-12.458	-0.386	-0.252
-200.333	-200.000	0.116	-0.586
-199.319	800.000	-0.104	-0.326
-198.304	-65.092	0.217	0.088
-197.290	-165.223	-0.188	-0.008
-196.275	-159.850	-0.319	0.018
-195.260	233.668	0.114	0.187
-194.246	602.343	0.012	-0.030
-193.231	-28.032	0.325	-0.188
-192.217	55.111	-0.187	-0.181
-191.202	144.988	-0.137	-0.183
-190.187	663.445	0.015	0.038
-189.173	-200.000	-0.020	0.388
-188.158	-70.317	0.111	-0.042
-187.144	418.710	0.077	0.165
-186.129	17.217	0.311	0.247
-185.114	-50.829	-0.107	-0.050
-184.100	-116.460	0.272	0.050
-183.085	-200.000	0.005	-0.043
-182.071	-29.458	0.281	-0.161
-181.056	92.467	0.292	-0.329
-180.042	-34.720	-0.090	0.049
-179.027	133.785	-0.176	-0.228
-178.012	176.236	0.187	0.271
-176.998	112.002	-0.200	0.241
-175.983	262.422	0.137	0.238
-174.969	-175.005	0.219	-0.006
-173.954	-200.000	0.003	0.165
-172.939	-200.000	-0.031	-0.227
-171.925	233.061	0.072	-0.119
-170.910	21.857	0.092	-0.075
-169.896	-200.000	0.024	-0.110
-168.881	-145.225	0.100	-0.009
-167.866	-200.000	0.016	-0.145
-166.852	64.383	-0.126	-0.127
-165.837	50.576	0.173	-0.164
-164.823	800.000	0.057	0.190
-163.808	317.614	0.016	0.030
-162.793	16.054	-0.023	-0.018
-161.779	67.900	0.052	0.053
-160.764	-3.429	0.234	-0.163
-159.750	-135.036	-0.285	0.034
-158.735	19.350	0.149	-0.120
-157.720	-200.000	0.004	0.121
-156.706	45.972	0.342	0.316
-155.691	41.696	-0.383	0.347
-154.677	-182.000	0.088	-0.002
-153.662	232.053	0.242	0.397
-152.647	800.000	-0.078	0.250
-151.633	-38.830	0.181	-0.096
-150.618	-200.000	-0.047	-0.237
-149.604	794.775	0.033	0.090
-148.589	-184.443	0.184	-0.003
-147.574	-133.117	0.254	-0.032
-146.560	-200.000	0.024	-0.172
-145.545	109.911	0.137	-0.165
-144.531	-38.366	0.147	0.078
-143.516	42.818	0.234	0.213
-142.502	-63.781	-0.159	0.065
-141.487	122.472	-0.121	-0.151
-140.472	-122.669	0.120	0.019
-139.458	-200.000	-0.018	0.312
-138.443	-51.229	-0.137	-0.064
-137.429	-57.840	-0.131	-0.057
-136.414	-200.000	-0.047	0.280
-135.399	-200.000	0.027	0.246
-134.385	463.869	-0.129	-0.289
-133.370	48.065	0.264	-0.246
-132.356	-77.187	0.195	0.068
-131.341	161.349	-0.081	-0.113
-130.326	800.000	-0.093	0.278
-129.312	-200.000	0.049	0.239
-128.297	800.000	0.101	-0.376
-127.283	-110.577	0.188	-0.039
-126.268	-200.000	-0.046	0.282
-125.253	200.016	0.180	0.276
-124.239	507.561	-0.098	-0.227
-123.224	-126.858	-0.356	0.052
-122.210	-108.428	0.215	-0.046
-121.195	81.100	0.158	0.170
-120.180	479.706	0.061	0.138
-119.166	-168.664	0.291	0.011
-118.151	-116.844	-0.196	-0.036
-117.137	-33.470	0.130	-0.072
-116.122	-200.000	0.001	-0.149
-115.107	-165.820	-0.247	-0.011
-114.093	23.805	-0.057	0.047
-113.078	61.250	0.179	0.178
-112.064	-177.960	0.298	0.007
-111.049	23.918	-0.144	-0.118
-110.034	-74.955	0.145	0.052
-109.020	-106.236	0.352	0.079
-108.005	-169.060	0.302	0.011
-106.991	-127.980	-0.136	0.019
-105.976	291.900	0.039	0.071
-104.962	226.624	0.125	0.202
-103.947	224.094	-0.022	-0.035
-102.932	234.330	-0.104	-0.170
-101.918	-142.319	-0.395	-0.039
-100.903	343.390	0.100	0.195
-99.889	-200.000	-0.076	0.482
-98.874	114.523	0.184	-0.224
-97.859	-45.816	-0.205	0.101
-96.845	250.579	-0.169	-0.286
-95.830	50.180	0.056	-0.053
-94.816	-200.000	-0.026	0.209
-93.801	-18.696	-0.147	-0.092
-92.786	-89.294	-0.144	0.042
-91.772	304.142	0.083	-0.154
-90.757	453.389	0.055	0.121
-89.743	192.808	0.208	-0.314
-88.728	501.831	0.088	0.203
-87.713	-108.956	-0.233	0.050
-86.699	172.722	0.198	-0.284
-85.684	-200.000	-0.012	-0.117
-84.670	-97.272	0.244	0.063
-83.655	237.094	-0.114	0.189
-82.640	-23.062	-0.182	-0.109
-81.626	170.276	-0.130	-0.186
-80.611	-1.019	-0.282	-0.199
-79.597	-60.553	-0.236	0.100
-78.582	-182.479	-0.164	0.003
-77.567	-127.347	-0.264	0.038
-76.553	-12.683	-0.230	0.149
-75.538	-147.491	0.349	0.029
-74.524	-82.578	0.099	-0.032
-73.509	151.124	0.155	-0.211
-72.494	-115.022	0.117	-0.022
-71.480	-110.449	-0.206	0.043
-70.465	-96.635	0.035	0.009
-69.451	-118.603	0.097	-0.017
-68.436	3.232	0.140	-0.102
-67.422	113.932	0.096	0.116
-66.407	65.642	0.179	0.180
-65.392	150.808	-0.117	-0.158
-64.378	129.944	0.048	-0.061
-63.363	-200.000	-0.006	-0.178
-62.349	60.041	-0.141	-0.139
-61.334	57.606	-0.728	-0.709
-60.319	-173.352	0.356	-0.011
-59.305	800.000	-0.265	-0.801
-58.290	516.209	0.505	1.176
-57.276	800.000	0.562	1.633
-56.261	-200.000	81.831	498.173
-55.246	552.831	1377.680	3296.605
-54.232	179.875	2618.285	3820.528
-53.217	121.097	2274.657	2818.924
-52.203	48.528	1802.225	1681.288
-51.188	41.315	1608.155	1448.028
-50.173	38.958	1579.623	1405.436
-49.159	55.183	1619.051	1558.196
-48.144	59.489	1638.309	1607.813
-47.130	42.006	1601.421	1446.734
-46.115	38.690	1586.943	1409.796
-45.100	38.542	1583.778	1405.865
-44.086	38.431	1582.236	1403.648
-43.071	38.442	1579.933	1401.623
-42.057	38.369	1578.410	1399.694
-41.042	38.403	1576.754	1398.412
-40.027	38.368	1575.183	1396.719
-39.013	38.266	1573.522	1394.460
-37.998	38.246	1572.331	1393.207
-36.984	38.323	1571.166	1392.666
-35.969	38.365	1569.983	1391.864
-34.954	38.376	1568.490	1390.563
-33.940	38.381	1566.593	1388.859
-32.925	38.338	1565.470	1387.509
-31.911	38.390	1563.821	1386.360
-30.896	38.331	1562.962	1385.125
-29.881	38.475	1561.208	1384.531
-28.867	38.449	1559.962	1383.187
-27.852	38.419	1558.686	1381.787
-26.838	38.424	1557.156	1380.413
-25.823	38.391	1555.837	1378.957
-24.809	38.490	1553.466	1377.500
-23.794	38.387	1552.558	1375.917
-22.779	38.464	1551.103	1375.111
-21.765	38.405	1550.139	1373.787
-20.750	38.498	1548.613	1373.031
-19.736	38.417	1547.519	1371.440
-18.721	38.435	1546.264	1370.398
-17.706	38.409	1545.106	1369.135
-16.692	38.337	1544.038	1367.635
-15.677	38.355	1543.312	1367.064
-14.663	38.287	1542.189	1365.540
-13.648	38.305	1540.889	1364.455
-12.633	38.305	1539.918	1363.542
-11.619	38.342	1538.851	1362.802
-10.604	38.271	1538.252	1361.724
-9.590	38.280	1537.373	1360.955
-8.575	38.303	1536.438	1360.231
-7.560	38.383	1535.684	1360.066
-6.546	38.301	1534.596	1358.483
-5.531	38.322	1533.884	1357.944
-4.517	38.255	1533.180	1356.801
-3.502	38.180	1531.971	1355.152
-2.487	38.291	1530.703	1354.748
-1.473	38.212	1529.879	1353.416
-0.458	38.353	1527.966	1352.647
0.556	36.705	1519.113	1343.659
1.571	34.500	1492.568	1305.002
2.586	31.502	1428.090	1228.857
3.600	29.833	1342.240	1144.561
4.615	28.151	1293.452	1092.826
5.629	23.312	1232.049	1013.248
6.644	11.080	1136.117	869.337
7.659	1.775	1088.871	785.312
8.673	0.421	1082.685	773.834
9.688	0.220	1079.292	770.312
10.702	0.036	1077.908	768.321
11.717	0.064	1076.044	767.064
12.731	4.358	1081.938	793.177
13.746	15.639	1098.578	863.565
14.761	22.452	1107.370	905.563
15.775	22.505	1106.712	905.219
16.790	22.373	1105.484	903.455
17.804	22.100	1104.937	901.528
18.819	21.855	1104.285	899.659
19.834	21.980	1103.046	899.211
20.848	22.128	1103.070	899.908
21.863	22.080	1102.534	899.146
22.877	22.140	1101.897	898.853
23.892	22.121	1101.397	898.271
24.907	22.002	1100.146	896.560
25.921	22.104	1099.456	896.440
26.936	22.160	1098.586	895.938
27.950	22.085	1097.834	894.864
28.965	22.092	1096.511	893.744
29.980	21.944	1094.585	891.343
30.994	21.820	1093.562	889.801
32.009	22.076	1092.642	890.271
33.023	22.046	1092.463	889.894
34.038	22.012	1090.402	887.962
35.053	21.975	1089.646	887.086
36.067	22.121	1089.295	887.458
37.082	22.115	1088.277	886.518
38.096	22.065	1087.963	885.933
39.111	22.138	1087.425	885.782
40.126	22.299	1086.091	885.427
41.140	22.222	1085.022	884.091
42.155	21.899	1083.948	881.517
43.169	21.759	1082.540	879.590
44.184	21.725	1081.514	878.508
45.199	21.811	1080.378	877.938
46.213	21.645	1079.147	876.028
47.228	21.610	1078.584	875.321
48.242	21.831	1077.552	875.512
49.257	21.916	1076.853	875.288
50.271	21.935	1076.364	874.910
51.286	22.242	1075.269	875.466
52.301	22.190	1074.662	874.637
53.315	22.127	1074.042	873.745
54.330	22.193	1072.782	872.970
55.344	22.019	1072.463	871.769
56.359	21.988	1071.710	870.924
57.374	21.952	1070.928	870.035
58.388	21.891	1069.555	868.540
59.403	21.863	1068.331	867.328
60.417	21.956	1068.104	867.529
61.432	21.614	1067.077	864.932
62.447	21.663	1066.303	864.468
63.461	21.723	1065.880	864.344
64.476	21.815	1065.257	864.213
65.490	21.868	1063.821	863.237
66.505	21.803	1063.049	862.213
67.520	21.881	1062.222	861.847
68.534	21.924	1061.289	861.227
69.549	21.739	1060.678	859.748
70.563	21.380	1059.415	856.886
71.578	21.270	1058.591	855.604
72.593	21.371	1057.594	855.222
73.607	21.192	1056.394	853.299
74.622	21.188	1055.314	852.332
75.636	21.517	1054.780	853.427
76.651	21.621	1054.214	853.400
77.666	21.494	1053.205	851.893
78.680	21.501	1052.161	851.006
79.695	21.472	1051.894	850.577
80.709	21.597	1051.156	850.508
81.724	21.571	1050.526	849.798
82.739	21.633	1049.367	849.084
83.753	21.637	1048.495	848.322
84.768	21.984	1047.699	849.287
85.782	22.235	1047.371	850.155
86.797	22.348	1046.403	849.840
87.812	22.380	1045.099	848.861
88.826	22.173	1044.373	847.199
89.841	22.065	1043.891	846.215
90.855	22.234	1042.903	846.152
91.870	22.242	1042.191	845.539
92.884	22.219	1040.947	844.341
93.899	22.209	1039.998	843.450
94.914	22.185	1038.927	842.390
95.928	22.061	1038.807	841.627
96.943	22.191	1037.627	841.218
97.957	21.900	1036.432	838.782
98.972	21.762	1034.804	836.732
99.987	21.524	1034.021	834.889
101.001	21.653	1033.595	835.090
102.016	21.893	1033.136	835.785
103.030	21.892	1031.950	834.750
104.045	21.814	1031.069	833.592
105.060	21.855	1029.183	832.189
106.074	21.635	1027.903	830.035
107.089	21.629	1027.689	829.762
108.103	21.922	1027.211	830.691
109.118	22.251	1026.168	831.327
110.133	21.823	1024.854	828.167
111.147	21.821	1023.916	827.328
112.162	21.640	1023.144	825.777
113.176	21.491	1021.479	823.661
114.191	21.504	1021.169	823.396
115.206	21.561	1020.336	822.919
116.220	21.415	1018.679	820.829
117.235	21.203	1017.917	819.147
118.249	21.295	1017.184	818.915
119.264	21.466	1016.206	818.857
120.279	21.372	1015.730	817.958
121.293	21.321	1014.575	816.719
122.308	21.474	1014.077	816.961
123.322	21.447	1013.228	816.078
124.337	21.362	1012.311	814.872
125.352	21.350	1011.151	813.809
126.366	20.912	1009.198	810.129
127.381	20.685	1007.679	807.788
128.395	21.088	1007.429	809.386
129.410	21.855	1006.934	812.470
130.424	21.901	1006.253	812.059
131.439	21.994	1004.955	811.370
132.454	21.798	1003.937	809.571
133.468	21.924	1003.509	809.737
134.483	21.890	1002.774	808.916
135.497	21.920	1002.027	808.381
136.512	22.161	1001.053	808.632
137.527	22.159	1000.838	808.377
138.541	22.060	999.789	807.004
139.556	22.216	999.168	807.146
140.570	22.133	998.362	806.041
141.585	22.191	997.048	805.178
142.600	22.240	996.339	804.755
143.614	22.162	995.622	803.748
144.629	22.337	994.688	803.723
145.643	22.536	994.221	804.184
146.658	22.358	992.931	802.260
147.673	22.217	991.379	800.290
148.687	22.201	990.643	799.554
149.702	21.960	989.395	797.383
150.716	21.934	988.351	796.349
151.731	21.774	987.531	794.893
152.746	21.882	986.488	794.477
153.760	22.260	985.763	795.531
154.775	22.362	985.131	795.413
155.789	22.275	984.659	794.569
156.804	22.355	983.533	793.948
157.819	22.362	982.383	792.981
158.833	22.317	981.622	792.093
159.848	22.433	980.498	791.638
160.862	22.394	980.297	791.233
161.877	22.239	979.220	789.597
162.892	22.186	978.267	788.518
163.906	22.233	977.441	787.996
164.921	22.178	976.716	787.094
165.935	22.284	975.305	786.362
166.950	22.362	974.101	785.671
167.964	22.396	973.176	785.006
168.979	22.394	972.044	784.016
169.994	22.287	971.065	782.681
171.008	22.006	970.537	780.936
172.023	22.150	969.883	780.979
173.037	22.356	968.770	780.929
174.052	22.242	967.644	779.447
175.067	21.972	966.332	777.124
176.081	22.007	965.456	776.505
177.096	22.088	964.757	776.234
178.110	22.053	964.077	775.464
179.125	21.904	963.018	773.887
180.140	21.692	961.248	771.462
181.154	21.701	961.143	771.351
182.169	21.758	960.669	771.149
183.183	21.919	960.464	771.629
184.198	22.254	960.237	772.849
185.213	22.142	959.325	771.554
186.227	22.191	958.739	771.230
187.242	22.151	958.130	770.494
188.256	22.301	957.104	770.261
189.271	22.316	956.277	769.593
190.286	22.391	955.417	769.159
191.300	22.253	954.557	767.798
192.315	21.746	953.314	764.518
193.329	21.015	951.751	760.014
194.344	20.567	950.841	757.265
195.359	21.265	950.689	760.119
196.373	22.031	951.173	763.769
197.388	22.342	950.908	764.842
198.402	22.131	949.930	763.071
199.417	22.022	949.592	762.260
200.432	22.110	949.428	762.442
201.446	22.052	948.333	761.242
202.461	21.741	947.437	759.109
203.475	21.732	946.905	758.576
204.490	21.288	945.784	755.694
205.504	20.265	943.334	749.252
206.519	20.680	942.940	750.664
207.534	21.526	943.589	754.767
208.548	21.797	942.651	755.117
209.563	22.158	942.642	756.598
210.577	22.140	941.652	755.660
211.592	21.842	940.885	753.694
212.607	22.200	941.193	755.411
213.621	22.436	940.295	755.638
214.636	22.168	939.975	754.163
215.650	22.314	939.269	754.158
216.665	22.259	938.766	753.450
217.680	22.336	937.956	753.065
218.694	22.329	937.557	752.647
219.709	21.880	937.115	750.307
220.723	21.736	935.480	748.314
221.738	22.038	934.797	748.990
222.753	22.233	934.627	749.619
223.767	22.080	933.746	748.197
224.782	22.242	932.843	748.094
225.796	22.306	932.514	748.036
226.811	22.461	931.668	747.951
227.826	22.031	930.581	745.187
228.840	21.217	929.136	740.514
229.855	21.207	928.537	739.929
230.869	21.445	928.295	740.677
231.884	21.245	926.950	738.696
232.899	21.115	927.189	738.269
233.913	21.878	926.902	741.200
234.928	22.114	926.413	741.740
235.942	22.039	925.593	740.700
236.957	22.103	924.912	740.363
237.972	21.873	923.606	738.283
238.986	21.648	923.291	737.019
240.001	21.787	922.554	736.950
241.015	21.746	922.175	736.408
242.030	21.893	921.378	736.324
243.045	22.171	920.519	736.737
244.059	22.170	920.449	736.613
245.074	22.356	920.015	736.979
246.088	22.274	918.802	735.599
247.103	21.907	918.040	733.389
248.117	22.042	917.256	733.265
249.132	22.481	917.563	735.276
250.147	22.782	917.295	736.252
251.161	22.827	916.682	735.884
252.176	22.966	916.357	736.138
253.190	23.027	915.408	735.564
254.205	23.046	914.658	734.974
255.220	23.153	914.357	735.113
256.234	23.117	913.983	734.599
257.249	23.074	913.297	733.802
258.263	22.814	912.928	732.362
259.278	23.006	911.867	732.242
260.293	22.936	911.721	731.770
261.307	23.113	911.010	731.868
262.322	22.916	910.429	730.523
263.336	22.949	909.286	729.677
264.351	22.379	907.869	726.121
265.366	21.247	906.104	719.981
266.380	20.829	905.295	717.554
267.395	21.666	905.913	721.430
268.409	22.613	905.684	725.082
269.424	22.638	904.684	724.319
270.439	22.629	904.647	724.188
271.453	22.850	904.053	724.557
272.468	22.745	903.114	723.307
273.482	23.017	902.547	723.903
274.497	23.032	902.241	723.655
275.512	22.892	900.994	722.020
276.526	22.386	899.807	718.937
277.541	22.511	899.366	719.031
278.555	22.857	899.672	720.626
279.570	22.688	898.485	718.923
280.585	22.483	897.668	717.370
281.599	22.441	897.509	717.011
282.614	22.756	896.575	717.480
283.628	22.249	895.283	714.323
284.643	21.784	895.260	712.354
285.657	22.335	894.459	713.889
286.672	22.416	893.387	713.300
287.687	21.798	892.781	710.250
288.701	22.119	892.822	711.521
289.716	22.476	892.256	712.449
290.730	22.166	891.590	710.600
291.745	21.991	890.948	709.322
292.760	21.871	889.848	707.896
293.774	21.857	889.140	707.217
294.789	22.701	889.485	710.831
295.803	23.364	889.715	713.620
296.818	23.367	889.216	713.170
297.833	23.534	888.460	713.173
298.847	23.161	887.672	710.978
299.862	22.792	886.793	708.730
300.876	22.864	886.552	708.763
301.891	23.432	885.553	710.180
302.906	23.336	885.100	709.369
303.920	23.028	883.899	707.112
304.935	22.847	883.340	705.877
305.949	23.259	882.979	707.171
306.964	23.403	882.665	707.434
307.979	23.083	882.069	705.618
308.993	23.077	881.593	705.149
310.008	23.471	880.857	706.066
311.022	23.474	881.205	706.297
312.037	23.300	880.134	704.685
313.052	23.009	879.295	702.793
314.066	23.047	878.683	702.392
315.081	22.377	877.155	698.449
316.095	21.650	875.893	694.502
317.110	22.086	876.359	696.539
318.125	22.995	876.208	699.957
319.139	22.704	874.972	697.758
320.154	21.553	873.078	691.642
321.168	21.063	872.409	689.113
322.183	21.572	872.746	691.330
323.197	22.555	872.898	695.270
324.212	22.906	872.548	696.314
325.227	22.984	872.732	696.709
326.241	23.179	871.981	696.812
327.256	23.033	871.128	695.497
328.270	23.002	870.423	694.748
329.285	22.842	869.976	693.702
330.300	22.805	869.481	693.104
331.314	22.516	868.297	690.964
332.329	22.666	867.459	690.822
333.343	23.008	867.300	691.975
334.358	23.213	867.185	692.625
335.373	23.122	866.403	691.583
336.387	23.162	865.903	691.278
337.402	23.334	865.886	691.876
338.416	23.619	865.202	692.380
339.431	23.702	864.136	691.787
340.446	23.790	863.430	691.504
341.460	23.781	863.458	691.432
342.475	23.790	862.778	690.861
343.489	23.555	862.128	689.367
344.504	23.436	861.514	688.350
345.519	23.855	861.129	689.610
346.533	23.915	861.024	689.694
347.548	24.119	860.155	689.729
348.562	24.124	859.721	689.339
349.577	23.982	859.163	688.282
350.592	23.888	858.948	687.683
351.606	23.790	858.524	686.906
352.621	23.860	857.827	686.557
353.635	23.806	856.953	685.591
354.650	23.686	856.641	684.818
355.665	23.552	855.619	683.423
356.679	22.455	853.775	677.669
357.694	22.284	853.375	676.636
358.708	23.027	852.967	679.106
359.723	22.909	852.522	678.241
360.738	23.213	852.501	679.328
361.752	23.744	852.226	681.085
362.767	23.706	851.948	680.658
363.781	23.933	851.657	681.237
364.796	24.240	851.728	682.409
365.810	24.318	850.752	681.862
366.825	24.381	850.738	682.031
367.840	24.349	850.285	681.486
368.854	24.176	849.749	680.335
369.869	23.915	848.607	678.367
370.883	23.738	847.659	676.874
371.898	23.734	847.398	676.590
372.913	23.685	846.775	675.847
373.927	23.641	846.371	675.297
374.942	23.817	845.629	675.313
375.956	23.864	845.346	675.208
376.971	23.963	844.742	675.041
377.986	23.990	844.281	674.715
379.000	24.248	843.734	675.194
380.015	24.414	842.996	675.172
381.029	24.154	842.331	673.599
382.044	24.082	841.820	672.860
383.059	24.206	841.599	673.091
384.073	24.316	840.868	672.860
385.088	24.369	840.366	672.599
386.102	24.148	840.133	671.521
387.117	23.998	838.949	669.951
388.132	24.059	838.328	669.625
389.146	23.850	837.773	668.336
390.161	23.310	837.125	665.733
391.175	23.459	836.278	665.560
392.190	23.846	836.591	667.201
393.205	24.003	835.988	667.251
394.219	23.013	834.402	662.217
395.234	21.419	832.128	654.394
396.248	20.610	830.858	650.313
397.263	21.721	831.948	655.267
398.278	23.370	833.399	662.523
399.292	24.063	832.791	664.570
400.307	23.423	832.547	661.926
401.321	23.631	832.041	662.241
402.336	23.572	831.673	661.671
403.350	23.876	831.434	662.554
404.365	24.425	831.382	664.499
405.380	24.688	831.252	665.315
406.394	24.838	831.004	665.617
407.409	25.042	830.044	665.546
408.423	25.005	830.001	665.317
409.438	24.825	829.439	664.139
410.453	24.855	828.911	663.767
411.467	24.965	828.743	663.982
412.482	24.920	827.992	663.153
413.496	24.837	827.569	662.449
414.511	25.064	827.010	662.784
415.526	24.981	826.971	662.388
416.540	25.016	826.233	661.867
417.555	25.023	825.459	661.214
418.569	24.689	824.885	659.465
419.584	24.627	824.195	658.626
420.599	24.705	823.641	658.411
421.613	147.698	1362.956	1772.771
422.628	128.639	1441.571	1772.875
