DTS Sentinel unit serial number:	SN413079Multiplexer serial number:	ORYXHardware model number:	OX4-SRSoftware version number:	ORYX F/W v4.00 Oryx Data Collector v3.7.2.0data status	okinstallation	princeton_trtdifferential loss correction	single-endedforward channel	channel 3reverse channel	N/Adate	2019/09/11time	02:50:10forward acquisition time	60.00reverse acquisition time	0.00gamma	496.2192k internal	0.2331k external	0.2331temperature offset calibration	0.9911default loss term (dB/km)	0.3790temperature slope calibration	1.0000multiplexer offset coefficient	1.0000multiplexer slope coefficient	1.0000fibre end	0.00T internal ref (°C)	29.25T ext. ref 1 (°C)	-0.29T ext. ref 2 (°C)	23.51length (m)	temperature (°C)	Stokes	anti-Stokes-747.200	148.483	0.301	-0.410
-746.185	-156.529	-0.396	0.025
-745.171	60.931	-0.081	-0.081
-744.156	800.000	0.027	-0.106
-743.142	-94.003	0.166	-0.046
-742.127	312.636	0.140	-0.265
-741.112	-50.169	-0.445	-0.212
-740.098	138.380	0.064	0.084
-739.083	800.000	0.094	0.287
-738.069	4.525	-0.100	-0.074
-737.054	800.000	0.028	-0.102
-736.039	-2.642	-0.107	0.076
-735.025	-160.664	0.211	0.011
-734.010	34.858	-0.183	-0.161
-732.996	-64.512	0.446	-0.182
-731.981	-79.840	-0.277	0.094
-730.966	130.888	-0.209	0.270
-729.952	-31.910	0.149	-0.084
-728.937	14.289	-0.304	-0.238
-727.923	-136.885	-0.149	-0.017
-726.908	800.000	0.058	0.163
-725.894	-112.586	-0.252	-0.051
-724.879	291.871	-0.105	-0.192
-723.864	-200.000	0.000	-0.064
-722.850	124.390	-0.089	-0.113
-721.835	-74.222	0.044	0.016
-720.821	-30.891	-0.036	-0.020
-719.806	-83.306	0.132	0.042
-718.791	-200.000	0.026	-0.318
-717.777	281.479	0.141	-0.253
-716.762	-40.069	-0.243	0.127
-715.748	77.727	0.074	0.079
-714.733	-136.427	0.203	-0.024
-713.718	-96.304	-0.207	-0.055
-712.704	800.000	-0.079	-0.281
-711.689	-150.341	-0.208	-0.016
-710.675	-140.928	-0.084	-0.009
-709.660	-148.940	0.509	0.041
-708.645	29.668	0.323	-0.276
-707.631	-200.000	-0.016	-0.292
-706.616	-95.469	-0.251	-0.068
-705.602	72.529	0.157	-0.165
-704.587	344.694	-0.150	0.296
-703.572	110.441	0.140	0.168
-702.558	57.101	-0.338	-0.332
-701.543	4.045	0.335	0.246
-700.529	80.498	-0.348	-0.377
-699.514	-200.000	0.042	-0.284
-698.499	-200.000	-0.036	-0.269
-697.485	-29.775	-0.103	0.059
-696.470	-200.000	0.009	-0.204
-695.456	800.000	0.116	0.425
-694.441	209.571	-0.126	0.198
-693.426	467.827	-0.030	-0.067
-692.412	15.687	-0.303	-0.239
-691.397	-139.254	0.345	-0.037
-690.383	800.000	0.036	0.121
-689.368	-46.314	-0.316	0.156
-688.354	240.196	0.085	-0.142
-687.339	143.309	-0.201	-0.268
-686.324	-4.752	-0.208	0.144
-685.310	215.335	-0.126	-0.201
-684.295	-56.768	-0.290	-0.129
-683.281	-29.738	0.135	0.077
-682.266	-127.098	0.163	-0.024
-681.251	-160.783	0.291	0.015
-680.237	-164.283	0.055	0.003
-679.222	147.363	0.086	-0.117
-678.208	800.000	-0.089	-0.262
-677.193	340.258	0.190	-0.373
-676.178	-94.704	-0.167	0.046
-675.164	-200.000	0.032	-0.282
-674.149	75.938	-0.157	-0.167
-673.135	-55.810	0.164	0.074
-672.120	-135.559	-0.255	0.030
-671.105	-55.138	-0.251	0.113
-670.091	-200.000	-0.009	0.200
-669.076	-200.000	0.006	-0.160
-668.062	-80.985	-0.447	-0.149
-667.047	-200.000	-0.002	-0.218
-666.032	-200.000	0.029	-0.166
-665.018	20.819	-0.143	-0.116
-664.003	23.124	-0.269	0.221
-662.989	-200.000	0.021	0.180
-661.974	-200.000	-0.029	-0.203
-660.959	604.685	-0.050	0.125
-659.945	673.640	0.028	-0.072
-658.930	-126.976	0.099	-0.015
-657.916	-96.579	-0.106	-0.028
-656.901	145.077	-0.073	-0.098
-655.886	672.631	-0.107	-0.279
-654.872	-200.000	0.081	-0.516
-653.857	-111.823	0.078	0.016
-652.843	159.870	0.131	-0.183
-651.828	-113.885	0.154	0.030
-650.814	-108.612	0.229	0.049
-649.799	800.000	0.032	0.093
-648.784	37.754	-0.159	0.141
-647.770	456.524	-0.154	-0.343
-646.755	-200.000	-0.020	-0.237
-645.741	63.045	0.171	0.172
-644.726	464.084	0.018	0.041
-643.711	26.103	0.121	0.101
-642.697	166.897	0.117	0.167
-641.682	-12.993	0.216	-0.141
-640.668	-84.098	-0.160	-0.051
-639.653	52.653	-0.185	-0.177
-638.638	63.009	-0.145	-0.146
-637.624	259.838	-0.057	0.099
-636.609	27.859	-0.280	0.236
-635.595	-63.382	0.029	0.012
-634.580	263.113	0.187	0.326
-633.565	-200.000	-0.030	-0.195
-632.551	778.745	0.172	0.470
-631.536	-4.628	-0.087	0.060
-630.522	60.790	0.139	-0.138
-629.507	-83.112	0.036	-0.012
-628.492	-155.914	-0.290	-0.019
-627.478	458.159	0.159	0.355
-626.463	209.937	-0.041	0.065
-625.449	800.000	-0.046	0.130
-624.434	-200.000	0.050	-0.304
-623.419	26.663	-0.249	-0.209
-622.405	26.014	0.165	-0.138
-621.390	37.335	-0.272	-0.241
-620.376	-65.729	0.104	-0.042
-619.361	-111.039	-0.253	-0.052
-618.346	-16.418	-0.124	-0.079
-617.332	800.000	-0.177	0.514
-616.317	14.700	-0.314	-0.246
-615.303	-22.761	-0.225	0.136
-614.288	800.000	-0.042	0.132
-613.273	-107.789	0.043	0.009
-612.259	589.167	-0.047	0.116
-611.244	73.629	-0.207	-0.217
-610.230	46.655	0.153	0.142
-609.215	-68.005	0.194	-0.076
-608.201	-48.808	0.280	-0.134
-607.186	-48.607	0.288	-0.139
-606.171	210.028	-0.290	-0.456
-605.157	-69.758	0.083	0.032
-604.142	77.922	0.107	0.114
-603.128	787.650	-0.077	0.210
-602.113	124.437	0.141	-0.177
-601.098	-200.000	0.029	-0.155
-600.084	-200.000	0.024	-0.355
-599.069	-62.459	0.226	-0.094
-598.055	-123.301	-0.243	-0.039
-597.040	-200.000	-0.036	0.232
-596.025	-149.458	0.248	-0.020
-595.011	65.044	-0.112	-0.114
-593.996	800.000	0.042	0.128
-592.982	-200.000	-0.077	-0.387
-591.967	80.130	-0.065	-0.070
-590.952	619.987	0.032	-0.080
-589.938	-167.524	-0.079	0.003
-588.923	-136.780	-0.112	-0.013
-587.909	-40.423	0.122	0.064
-586.894	-200.000	-0.022	-0.117
-585.879	-17.649	-0.197	-0.124
-584.865	429.254	-0.049	-0.106
-583.850	-14.980	0.239	-0.153
-582.836	-200.000	0.011	0.364
-581.821	-38.090	-0.280	0.149
-580.806	-7.181	-0.265	-0.180
-579.792	-133.672	-0.079	0.010
-578.777	800.000	0.065	-0.184
-577.763	513.463	0.129	-0.300
-576.748	606.276	-0.114	-0.284
-575.733	-98.092	0.359	-0.092
-574.719	-200.000	-0.015	-0.381
-573.704	293.219	-0.096	0.176
-572.690	-32.576	0.268	-0.149
-571.675	-85.548	-0.066	-0.021
-570.661	97.104	0.302	-0.346
-569.646	-200.000	0.031	0.321
-568.631	35.778	0.320	-0.281
-567.617	408.808	-0.063	0.132
-566.602	159.547	0.064	-0.089
-565.588	800.000	0.011	0.031
-564.573	3.972	0.229	-0.167
-563.558	-44.261	-0.242	-0.121
-562.544	-8.313	-0.184	0.123
-561.529	210.960	0.082	0.129
-560.515	-200.000	-0.007	0.226
-559.500	-200.000	-0.078	0.640
-558.485	61.820	-0.170	0.169
-557.471	1.731	0.200	-0.144
-556.456	-200.000	-0.022	-0.510
-555.442	114.783	-0.096	-0.116
-554.427	-200.000	-0.018	0.340
-553.412	469.292	0.101	0.228
-552.398	-20.771	-0.289	-0.177
-551.383	59.985	-0.039	-0.038
-550.369	-95.290	-0.127	-0.034
-549.354	-200.000	-0.017	0.093
-548.339	-149.186	0.252	-0.020
-547.325	-28.150	-0.144	0.083
-546.310	115.240	0.149	-0.181
-545.296	-86.636	-0.084	0.026
-544.281	-200.000	-0.002	-0.406
-543.266	134.337	-0.239	-0.309
-542.252	-81.952	0.232	-0.076
-541.237	-7.721	0.368	-0.249
-540.223	-75.020	0.233	0.083
-539.208	-64.824	-0.342	-0.138
-538.193	775.720	-0.102	0.278
-537.179	-42.937	0.336	-0.170
-536.164	-94.644	0.139	0.038
-535.150	265.138	-0.061	0.106
-534.135	5.510	0.167	-0.123
-533.121	290.410	0.124	-0.224
-532.106	2.706	-0.256	0.186
-531.091	18.886	0.284	-0.227
-530.077	-53.195	0.117	0.054
-529.062	-74.219	-0.347	-0.125
-528.048	800.000	0.081	0.236
-527.033	96.219	0.096	0.110
-526.018	67.846	-0.121	0.123
-525.004	73.332	0.106	0.110
-523.989	17.352	-0.075	0.059
-522.975	-76.750	-0.270	-0.094
-521.960	430.925	0.136	0.294
-520.945	17.413	0.115	0.091
-519.931	-200.000	-0.000	0.109
-518.916	-20.984	-0.177	-0.108
-517.902	129.050	-0.156	-0.199
-516.887	477.341	-0.064	-0.145
-515.872	-79.409	-0.285	-0.096
-514.858	-122.027	0.120	0.020
-513.843	12.948	0.302	0.233
-512.829	800.000	0.131	0.396
-511.814	-200.000	-0.019	0.220
-510.799	334.344	0.052	0.101
-509.785	-17.039	0.042	0.026
-508.770	-7.328	0.365	-0.247
-507.756	-200.000	0.048	-0.337
-506.741	69.850	-0.173	0.178
-505.726	-200.000	-0.010	-0.108
-504.712	-191.825	0.276	0.003
-503.697	581.634	-0.076	-0.185
-502.683	-165.656	-0.174	-0.008
-501.668	-200.000	0.018	0.094
-500.653	101.117	0.114	-0.132
-499.639	-131.763	0.332	-0.043
-498.624	-61.644	0.229	-0.096
-497.610	-179.729	0.263	0.006
-496.595	-62.559	-0.087	0.036
-495.581	605.090	-0.040	0.098
-494.566	36.516	-0.070	0.062
-493.551	-79.038	0.145	0.049
-492.537	38.180	-0.106	0.094
-491.522	-90.105	-0.387	-0.112
-490.508	351.813	0.056	-0.110
-489.493	208.515	0.030	-0.046
-488.478	-105.189	-0.232	0.053
-487.464	72.253	-0.272	0.282
-486.449	-117.800	0.322	0.058
-485.435	51.770	-0.093	-0.089
-484.420	731.653	-0.065	-0.173
-483.405	-162.907	0.157	0.008
-482.391	-200.000	0.049	-0.283
-481.376	2.704	0.233	0.168
-480.362	337.453	0.140	-0.271
-479.347	-31.253	0.181	-0.102
-478.332	-13.324	-0.442	-0.286
-477.318	155.921	-0.217	-0.298
-476.303	-147.894	-0.489	-0.041
-475.289	374.969	0.080	-0.163
-474.274	-132.526	-0.334	-0.043
-473.259	75.931	0.224	-0.236
-472.245	-82.940	0.246	0.079
-471.230	-76.670	0.244	-0.085
-470.216	800.000	-0.039	0.153
-469.201	-9.034	-0.274	0.182
-468.186	-96.287	0.328	0.086
-467.172	51.553	0.140	-0.132
-466.157	206.253	0.127	0.197
-465.143	130.810	-0.165	0.211
-464.128	472.310	-0.145	0.326
-463.113	-149.553	0.164	0.013
-462.099	-105.568	-0.068	-0.015
-461.084	-99.237	0.298	-0.075
-460.070	-200.000	0.045	-0.239
-459.055	-200.000	0.042	-0.292
-458.040	-17.633	-0.118	0.074
-457.026	-200.000	0.002	-0.152
-456.011	5.886	-0.121	0.089
-454.997	-119.352	-0.539	0.093
-453.982	261.295	-0.070	-0.121
-452.968	-200.000	0.022	0.162
-451.953	283.724	0.177	-0.317
-450.938	-130.763	-0.197	-0.026
-449.924	-108.240	-0.133	-0.029
-448.909	-200.000	0.024	-0.147
-447.895	-111.916	-0.391	0.078
-446.880	-58.958	0.118	0.051
-445.865	-96.904	-0.201	0.053
-444.851	-73.685	-0.200	-0.072
-443.836	-3.424	0.236	0.163
-442.822	217.982	0.128	0.203
-441.807	258.620	-0.216	-0.370
-440.792	-16.594	0.215	-0.135
-439.778	-200.000	-0.001	0.371
-438.763	800.000	0.092	-0.280
-437.749	800.000	0.069	0.194
-436.734	-77.933	-0.194	-0.066
-435.719	-46.656	0.095	0.046
-434.705	800.000	-0.063	0.240
-433.690	-105.604	0.111	-0.025
-432.676	-49.983	-0.146	-0.069
-431.661	171.622	0.103	0.148
-430.646	179.666	0.118	-0.172
-429.632	116.368	0.198	0.242
-428.617	-200.000	-0.039	-0.183
-427.603	-67.335	0.154	0.060
-426.588	-200.000	0.035	-0.199
-425.573	-200.000	-0.005	0.255
-424.559	-37.286	-0.082	0.044
-423.544	313.328	-0.180	-0.337
-422.530	553.244	-0.062	0.148
-421.515	-122.626	0.194	-0.031
-420.500	800.000	-0.058	-0.171
-419.486	265.564	0.138	0.240
-418.471	-120.654	-0.107	0.018
-417.457	178.983	0.030	-0.043
-416.442	-200.000	-0.032	-0.300
-415.428	-61.992	-0.357	-0.148
-414.413	-200.000	-0.038	-0.257
-413.398	-28.740	-0.306	-0.175
-412.384	-61.051	0.185	0.078
-411.369	654.662	0.119	0.304
-410.355	-78.722	0.315	-0.107
-409.340	-200.000	0.032	0.251
-408.325	-200.000	-0.007	0.153
-407.311	-200.000	-0.047	-0.208
-406.296	-26.161	0.305	0.178
-405.282	-200.000	0.025	0.480
-404.267	51.202	0.305	0.287
-403.252	-68.993	0.041	0.016
-402.238	-41.073	0.074	0.038
-401.223	-144.836	0.343	-0.031
-400.209	63.340	-0.049	0.049
-399.194	-200.000	-0.049	-0.501
-398.179	24.232	-0.345	-0.283
-397.165	184.748	0.191	-0.281
-396.150	-200.000	0.009	0.162
-395.136	19.531	-0.196	0.156
-394.121	38.811	-0.084	0.075
-393.106	-69.900	-0.299	0.113
-392.092	766.928	-0.122	0.330
-391.077	-200.000	0.026	-0.135
-390.063	223.322	-0.108	0.174
-389.048	58.864	-0.259	-0.253
-388.033	11.735	-0.248	0.189
-387.019	-22.824	0.238	0.143
-386.004	-200.000	0.044	0.216
-384.990	-139.196	-0.203	-0.022
-383.975	96.063	-0.310	0.352
-382.960	-200.000	0.010	-0.148
-381.946	132.922	0.061	-0.078
-380.931	-108.863	-0.269	-0.057
-379.917	400.815	0.071	0.148
-378.902	159.306	0.167	-0.230
-377.888	-200.000	0.010	-0.097
-376.873	800.000	0.056	0.230
-375.858	800.000	0.020	0.082
-374.844	89.471	-0.141	0.156
-373.829	60.813	-0.098	-0.096
-372.815	252.577	-0.025	-0.042
-371.800	-4.384	0.263	-0.180
-370.785	-200.000	0.048	-0.443
-369.771	-45.426	0.136	0.067
-368.756	-200.000	-0.029	0.139
-367.742	-200.000	-0.053	0.346
-366.727	-166.663	0.284	-0.012
-365.712	105.367	0.148	0.173
-364.698	-19.397	-0.229	0.141
-363.683	-107.476	0.090	-0.020
-362.669	800.000	-0.063	0.223
-361.654	-200.000	0.013	0.000
-360.639	800.000	0.032	0.109
-359.625	-62.667	-0.140	-0.058
-358.610	107.979	0.183	0.217
-357.596	-114.018	-0.293	0.056
-356.581	800.000	-0.060	0.259
-355.566	-10.200	-0.286	0.188
-354.552	-200.000	-0.069	0.396
-353.537	34.001	0.060	0.052
-352.523	-35.791	0.408	-0.219
-351.508	-5.767	-0.054	-0.037
-350.493	66.970	-0.117	-0.118
-349.479	-11.891	-0.129	-0.084
-348.464	234.707	-0.198	-0.323
-347.450	330.817	0.032	0.062
-346.435	-24.731	0.107	0.063
-345.420	27.148	-0.181	-0.151
-344.406	-132.413	0.325	-0.041
-343.391	-1.453	0.238	0.166
-342.377	-200.000	-0.023	0.305
-341.362	-72.066	0.255	-0.094
-340.348	534.096	-0.081	0.189
-339.333	-200.000	0.052	0.331
-338.318	-97.250	-0.328	-0.085
-337.304	800.000	-0.062	-0.202
-336.289	-109.819	-0.166	0.035
-335.275	-157.888	0.276	0.016
-334.260	76.704	0.169	-0.178
-333.245	-138.815	0.057	-0.006
-332.231	97.418	0.132	-0.150
-331.216	-174.217	0.169	-0.005
-330.202	-200.000	0.021	0.119
-329.187	326.381	-0.099	-0.188
-328.172	35.235	0.260	0.226
-327.158	-96.195	-0.175	0.046
-326.143	154.953	-0.171	-0.232
-325.129	800.000	-0.090	-0.286
-324.114	104.682	-0.029	0.033
-323.099	-72.683	0.280	0.102
-322.085	-45.500	-0.262	-0.129
-321.070	-147.959	0.111	-0.009
-320.056	-7.597	-0.177	-0.118
-319.041	-27.932	0.184	0.105
-318.026	384.314	0.082	0.167
-317.012	-153.448	0.108	-0.007
-315.997	20.194	0.184	-0.147
-314.983	409.133	-0.049	-0.103
-313.968	-109.380	0.679	-0.142
-312.953	178.873	-0.118	-0.171
-311.939	375.280	-0.127	0.257
-310.924	20.236	0.198	-0.158
-309.910	-200.000	0.051	-0.455
-308.895	15.750	-0.196	-0.153
-307.880	-87.115	-0.080	0.024
-306.866	93.464	0.078	-0.088
-305.851	692.363	-0.121	0.313
-304.837	106.402	-0.151	0.177
-303.822	-109.674	0.100	-0.021
-302.807	-12.348	-0.100	-0.065
-301.793	-200.000	-0.014	0.071
-300.778	181.745	0.125	0.182
-299.764	-193.523	0.483	-0.004
-298.749	-124.877	-0.266	0.041
-297.735	800.000	-0.065	0.196
-296.720	376.248	-0.041	0.082
-295.705	800.000	-0.009	-0.029
-294.691	-79.183	-0.175	-0.059
-293.676	406.243	-0.103	-0.214
-292.662	2.800	-0.170	-0.122
-291.647	-200.000	-0.026	0.136
-290.632	145.678	-0.164	0.217
-289.618	177.991	-0.200	-0.289
-288.603	176.089	0.139	-0.199
-287.589	114.587	-0.017	-0.021
-286.574	-96.394	-0.265	0.069
-285.559	209.273	0.058	0.090
-284.545	24.229	0.096	-0.078
-283.530	-91.847	0.156	0.044
-282.516	-70.098	0.210	-0.079
-281.501	460.357	-0.063	0.139
-280.486	101.556	-0.136	0.157
-279.472	-6.218	-0.297	0.200
-278.457	-134.827	-0.391	0.047
-277.443	23.875	-0.120	0.098
-276.428	-200.000	-0.013	-0.064
-275.413	-200.000	0.038	0.207
-274.399	800.000	0.053	-0.218
-273.384	52.299	-0.124	0.117
-272.370	95.285	0.126	0.142
-271.355	-1.703	-0.327	-0.227
-270.340	-200.000	0.020	-0.158
-269.326	-103.925	-0.213	0.049
-268.311	118.692	0.071	0.087
-267.297	66.169	-0.312	0.313
-266.282	-200.000	-0.007	0.163
-265.267	-200.000	-0.017	-0.183
-264.253	-37.442	-0.174	0.092
-263.238	-34.145	-0.108	-0.059
-262.224	96.865	-0.261	-0.295
-261.209	317.949	-0.131	-0.245
-260.195	-200.000	-0.002	0.064
-259.180	-145.672	-0.014	0.001
-258.165	138.093	-0.130	0.168
-257.151	800.000	-0.050	-0.183
-256.136	-115.644	-0.153	0.028
-255.122	-47.442	-0.103	-0.049
-254.107	52.983	0.262	-0.248
-253.092	-200.000	0.027	0.275
-252.078	295.695	0.188	0.339
-251.063	-200.000	0.013	0.409
-250.049	-80.527	0.104	-0.034
-249.034	800.000	0.052	0.142
-248.019	-8.054	0.212	0.141
-247.005	627.770	0.142	-0.354
-245.990	-146.870	-0.182	0.015
-244.976	-200.000	0.066	0.332
-243.961	-18.516	0.240	-0.148
-242.946	-90.204	0.267	0.077
-241.932	-45.845	0.288	0.140
-240.917	22.344	-0.125	0.101
-239.903	-190.011	0.056	0.001
-238.888	46.909	0.225	0.207
-237.873	77.258	-0.436	0.458
-236.859	-57.641	-0.022	-0.009
-235.844	-132.593	-0.291	0.037
-234.830	-60.719	-0.089	0.037
-233.815	586.057	-0.058	-0.140
-232.800	188.877	-0.167	-0.246
-231.786	206.699	0.119	0.182
-230.771	336.898	-0.120	-0.230
-229.757	-107.022	0.358	-0.078
-228.742	-200.000	-0.016	-0.331
-227.727	-200.000	-0.002	-0.228
-226.713	-145.714	0.323	-0.028
-225.698	-87.021	0.090	-0.027
-224.684	-111.666	0.064	-0.013
-223.669	155.073	-0.142	-0.193
-222.655	-59.714	0.166	-0.070
-221.640	-200.000	0.022	0.284
-220.625	-16.321	-0.218	0.136
-219.611	-138.829	-0.319	-0.034
-218.596	-53.746	0.271	0.122
-217.582	-200.000	0.030	0.153
-216.567	-200.000	0.003	-0.077
-215.552	180.191	0.132	-0.191
-214.538	800.000	-0.069	0.206
-213.523	-200.000	-0.022	0.160
-212.509	-200.000	0.004	0.419
-211.494	-97.207	0.233	0.060
-210.479	-77.684	-0.111	0.038
-209.465	69.923	0.095	0.097
-208.450	800.000	0.051	-0.146
-207.436	240.264	0.136	0.224
-206.421	78.255	-0.037	0.039
-205.406	-200.000	0.044	0.385
-204.392	-124.952	0.361	-0.055
-203.377	78.351	-0.180	0.190
-202.363	-0.881	-0.200	-0.140
-201.348	123.969	-0.078	0.096
-200.333	208.478	-0.090	0.139
-199.319	-200.000	0.009	-0.428
-198.304	-200.000	0.005	-0.232
-197.290	-24.594	0.243	-0.143
-196.275	-200.000	0.022	-0.132
-195.260	85.136	-0.275	0.298
-194.246	-89.045	0.092	0.027
-193.231	-133.677	-0.403	0.050
-192.217	-200.000	0.011	-0.329
-191.202	-99.392	0.477	-0.118
-190.187	333.535	-0.038	-0.073
-189.173	-27.859	-0.111	-0.063
-188.158	449.522	0.151	0.327
-187.144	22.950	-0.061	0.049
-186.129	126.202	0.034	0.042
-185.114	800.000	0.118	0.480
-184.100	-140.024	0.290	-0.030
-183.085	-200.000	-0.038	0.224
-182.071	229.915	-0.076	0.121
-181.056	52.950	-0.089	-0.084
-180.042	-63.852	0.400	-0.161
-179.027	-90.886	-0.233	0.066
-178.012	-27.258	0.324	0.186
-176.998	92.342	0.100	0.111
-175.983	-17.842	0.215	-0.133
-174.969	357.090	0.068	-0.133
-173.954	60.897	0.035	0.034
-172.939	146.062	0.392	0.518
-171.925	39.851	0.060	-0.053
-170.910	579.618	-0.034	-0.082
-169.896	-200.000	-0.072	0.310
-168.881	-129.311	-0.051	0.007
-167.866	118.068	0.125	-0.151
-166.852	632.348	0.105	-0.263
-165.837	-200.000	-0.031	-0.284
-164.823	463.705	0.120	-0.264
-163.808	188.061	-0.126	-0.186
-162.793	-200.000	-0.013	-0.068
-161.779	-34.270	-0.304	-0.164
-160.764	33.203	0.174	-0.149
-159.750	77.987	0.089	0.093
-158.735	296.109	-0.148	0.267
-157.720	410.570	-0.081	0.169
-156.706	142.884	0.016	0.021
-155.691	-148.222	0.207	0.017
-154.677	-147.985	-0.221	-0.018
-153.662	73.100	0.071	0.073
-152.647	-128.404	-0.309	0.043
-151.633	-200.000	-0.045	-0.293
-150.618	-102.977	0.200	0.047
-149.604	-32.007	0.275	0.151
-148.589	-50.287	-0.275	0.128
-147.574	-200.000	0.012	0.056
-146.560	126.551	0.011	0.013
-145.545	-58.924	0.139	0.059
-144.531	82.352	0.066	0.070
-143.516	55.042	0.173	0.164
-142.502	-13.071	0.220	0.141
-141.487	18.487	-0.078	0.061
-140.472	80.015	0.291	-0.307
-139.458	82.614	0.158	-0.168
-138.443	55.814	-0.128	-0.122
-137.429	-15.354	-0.321	0.202
-136.414	-200.000	0.014	-0.103
-135.399	16.473	-0.270	-0.210
-134.385	-200.000	0.006	0.206
-133.370	-15.673	0.268	-0.168
-132.356	-45.412	-0.275	0.134
-131.341	-134.413	0.340	0.041
-130.326	25.819	0.270	-0.221
-129.312	112.465	0.027	-0.032
-128.297	800.000	-0.094	-0.316
-127.283	13.700	0.225	-0.172
-126.268	546.161	-0.039	0.092
-125.253	-96.743	0.146	0.038
-124.239	-16.197	-0.324	0.202
-123.224	-200.000	-0.029	0.349
-122.210	800.000	-0.043	0.182
-121.195	-3.983	0.228	-0.155
-120.180	-124.721	-0.138	0.021
-119.166	77.902	-0.081	-0.084
-118.151	67.618	-0.149	-0.149
-117.137	3.086	-0.148	-0.106
-116.122	-0.944	0.261	0.182
-115.107	337.871	0.106	0.203
-114.093	353.709	-0.203	0.396
-113.078	268.878	-0.117	-0.202
-112.064	556.481	-0.062	-0.146
-111.049	119.957	0.127	-0.154
-110.034	20.236	-0.231	0.183
-109.020	-200.000	-0.014	0.139
-108.005	45.308	-0.141	-0.128
-106.991	716.987	0.023	0.059
-105.976	-45.352	0.104	0.050
-104.962	-123.713	-0.390	0.061
-103.947	152.286	0.121	-0.162
-102.932	800.000	0.132	-0.391
-101.918	800.000	-0.110	0.303
-100.903	-0.871	0.332	-0.231
-99.889	-143.494	-0.186	0.017
-98.874	3.432	-0.072	-0.051
-97.859	-53.116	-0.275	-0.124
-96.845	800.000	-0.054	0.186
-95.830	-200.000	-0.072	0.326
-94.816	385.753	0.121	-0.245
-93.801	106.194	0.107	-0.125
-92.786	-125.997	-0.436	-0.064
-91.772	139.668	0.104	-0.134
-90.757	-143.503	0.232	0.022
-89.743	-200.000	-0.004	-0.185
-88.728	191.066	-0.059	-0.087
-87.713	-153.051	-0.096	-0.007
-86.699	194.871	0.032	-0.048
-85.684	-113.176	0.218	0.042
-84.670	-200.000	0.025	-0.289
-83.655	2.312	-0.239	-0.169
-82.640	-200.000	-0.010	-0.174
-81.626	-11.545	0.310	0.200
-80.611	-176.314	-0.396	0.010
-79.597	-68.383	0.284	-0.108
-78.582	800.000	-0.016	-0.058
-77.567	-68.068	0.111	-0.043
-76.553	-200.000	-0.029	-0.417
-75.538	-57.825	-0.048	0.021
-74.524	162.611	0.101	0.139
-73.509	764.646	-0.057	0.152
-72.494	-200.000	-0.015	0.189
-71.480	564.558	-0.122	-0.290
-70.465	-200.000	-0.035	-0.491
-69.451	-71.258	-0.208	0.077
-68.436	125.827	-0.044	-0.054
-67.422	800.000	-0.061	0.221
-66.407	12.895	-0.340	0.257
-65.392	-200.000	0.007	0.092
-64.378	528.002	-0.117	0.272
-63.363	-200.000	0.003	0.045
-62.349	409.483	-0.165	-0.343
-61.334	86.264	-0.984	-1.063
-60.319	57.929	0.508	0.487
-59.305	-200.000	-0.238	-1.143
-58.290	177.251	0.590	0.841
-57.276	800.000	0.504	1.509
-56.261	-200.000	106.809	619.433
-55.246	513.875	1511.813	3454.825
-54.232	176.040	2703.771	3845.376
-53.217	110.052	2185.447	2569.660
-52.203	39.903	1706.603	1501.176
-51.188	32.315	1518.778	1284.329
-50.173	30.109	1491.399	1246.313
-49.159	51.174	1547.348	1438.000
-48.144	51.314	1563.872	1454.262
-47.130	32.514	1520.097	1286.602
-46.115	29.468	1505.446	1253.501
-45.100	29.359	1501.320	1249.275
-44.086	29.356	1499.360	1247.575
-43.071	29.232	1497.112	1244.814
-42.057	29.113	1495.875	1242.936
-41.042	29.244	1494.313	1242.473
-40.027	29.274	1492.733	1241.310
-39.013	29.158	1491.599	1239.542
-37.998	29.186	1489.794	1238.176
-36.984	29.275	1488.580	1237.720
-35.969	29.260	1487.328	1236.527
-34.954	29.234	1485.790	1235.022
-33.940	29.298	1484.181	1234.069
-32.925	29.230	1483.289	1232.821
-31.911	29.239	1482.133	1231.870
-30.896	29.272	1480.937	1231.046
-29.881	29.350	1479.364	1230.211
-28.867	29.276	1478.372	1228.843
-27.852	29.256	1477.021	1227.544
-26.838	29.294	1475.218	1226.247
-25.823	29.317	1473.761	1225.136
-24.809	29.289	1472.093	1223.516
-23.794	29.342	1470.840	1222.782
-22.779	29.353	1469.675	1221.834
-21.765	29.278	1468.922	1220.663
-20.750	29.335	1467.884	1220.132
-19.736	29.242	1466.927	1218.675
-18.721	29.393	1464.920	1217.954
-17.706	29.254	1464.332	1216.497
-16.692	29.297	1462.794	1215.453
-15.677	29.291	1461.467	1214.266
-14.663	29.237	1460.915	1213.400
-13.648	29.285	1460.191	1213.068
-12.633	29.236	1459.103	1211.795
-11.619	29.050	1458.866	1210.327
-10.604	29.252	1457.348	1210.350
-9.590	29.224	1456.326	1209.266
-8.575	29.237	1455.891	1208.946
-7.560	29.192	1454.954	1207.824
-6.546	29.201	1454.391	1207.367
-5.531	29.107	1453.441	1205.916
-4.517	29.248	1452.554	1206.052
-3.502	29.193	1451.753	1204.980
-2.487	29.261	1450.032	1203.948
-1.473	29.103	1449.408	1202.352
-0.458	29.177	1448.064	1201.670
0.556	26.850	1438.606	1191.035
1.571	24.139	1412.883	1152.122
2.586	20.811	1355.016	1084.161
3.600	19.451	1274.356	1011.561
4.615	18.381	1229.876	970.113
5.629	16.166	1174.624	914.455
6.644	7.965	1090.973	807.808
7.659	0.899	1050.876	743.430
8.673	-0.138	1045.405	734.426
9.688	-0.253	1041.972	731.389
10.702	-0.510	1040.818	729.263
11.717	-0.278	1037.970	728.331
12.731	2.894	1041.882	746.446
13.746	11.695	1054.757	798.758
14.761	18.550	1062.959	838.536
15.775	20.188	1065.061	848.134
16.790	20.438	1064.281	848.662
17.804	20.312	1063.945	847.704
18.819	20.189	1063.024	846.294
19.834	20.222	1062.195	845.719
20.848	20.322	1061.910	845.909
21.863	20.507	1060.942	845.962
22.877	20.392	1060.481	844.958
23.892	20.408	1060.096	844.657
24.907	20.274	1059.595	843.531
25.921	20.280	1058.794	842.845
26.936	20.378	1057.665	842.350
27.950	20.429	1056.469	841.568
28.965	20.262	1055.456	839.877
29.980	20.212	1053.997	838.403
30.994	20.243	1052.488	837.279
32.009	20.320	1052.048	837.225
33.023	20.338	1051.268	836.618
34.038	20.402	1049.248	835.243
35.053	20.210	1048.608	833.739
36.067	20.386	1048.393	834.338
37.082	20.374	1047.473	833.474
38.096	20.378	1046.937	832.994
39.111	20.590	1045.710	832.959
40.126	20.757	1044.808	832.967
41.140	20.494	1043.813	830.842
42.155	20.298	1042.161	828.516
43.169	20.105	1041.122	826.698
44.184	19.921	1040.250	825.054
45.199	20.065	1038.874	824.579
46.213	20.143	1037.639	823.895
47.228	19.972	1036.975	822.480
48.242	20.125	1036.101	822.443
49.257	20.256	1035.324	822.374
50.271	20.279	1034.488	821.746
51.286	20.376	1034.004	821.748
52.301	20.468	1032.927	821.253
53.315	20.317	1032.085	819.796
54.330	20.483	1031.214	819.817
55.344	20.263	1030.613	818.232
56.359	20.361	1029.746	817.932
57.374	20.377	1028.356	816.827
58.388	20.269	1027.136	815.282
59.403	20.171	1026.769	814.459
60.417	20.196	1026.006	813.899
61.432	19.957	1025.362	812.193
62.447	20.020	1024.698	811.889
63.461	20.204	1024.027	812.147
64.476	20.290	1022.800	811.506
65.490	20.203	1022.197	810.550
66.505	19.989	1021.500	808.927
67.520	20.142	1020.288	808.608
68.534	20.257	1019.436	808.399
69.549	20.097	1018.615	806.930
70.563	19.813	1017.498	804.654
71.578	19.727	1016.650	803.511
72.593	19.801	1015.550	802.916
73.607	19.631	1014.013	800.841
74.622	19.615	1013.432	800.234
75.636	19.834	1013.364	801.126
76.651	19.980	1012.461	801.015
77.666	19.900	1011.478	799.796
78.680	19.803	1009.973	798.090
79.695	19.898	1009.598	798.160
80.709	20.016	1009.056	798.207
81.724	20.052	1008.463	797.833
82.739	19.929	1007.639	796.544
83.753	20.033	1006.377	795.952
84.768	20.266	1006.176	796.795
85.782	20.523	1005.181	797.116
86.797	20.541	1004.404	796.509
87.812	20.635	1003.090	795.829
88.826	20.498	1002.057	794.312
89.841	20.579	1001.421	794.106
90.855	20.680	1000.427	793.712
91.870	20.579	999.990	792.831
92.884	20.543	999.380	792.112
93.899	20.584	998.241	791.327
94.914	20.333	997.166	789.262
95.928	20.446	996.782	789.406
96.943	20.497	995.614	788.639
97.957	20.193	994.488	786.300
98.972	20.100	993.200	784.794
99.987	19.987	991.825	783.127
101.001	19.990	991.722	782.989
102.016	20.307	990.682	783.529
103.030	20.429	989.864	783.361
104.045	20.241	988.793	781.598
105.060	20.021	987.461	779.487
106.074	20.030	986.162	778.433
107.089	20.069	985.939	778.366
108.103	20.323	985.592	779.160
109.118	20.365	984.401	778.339
110.133	20.052	983.681	776.297
111.147	20.096	982.533	775.522
112.162	20.114	981.316	774.574
113.176	19.888	979.928	772.401
114.191	19.987	979.116	772.132
115.206	20.159	978.080	772.015
116.220	19.787	977.425	769.770
117.235	19.785	976.384	768.876
118.249	19.734	975.815	768.133
119.264	19.857	974.332	767.445
120.279	19.696	973.736	766.191
121.293	19.794	972.443	765.539
122.308	19.824	972.402	765.574
123.322	19.972	971.267	765.267
124.337	19.946	969.667	763.824
125.352	19.825	968.659	762.430
126.366	19.390	966.736	758.933
127.381	19.175	965.931	757.289
128.395	19.622	965.320	758.706
129.410	20.145	965.188	760.833
130.424	20.287	964.200	760.608
131.439	20.347	962.933	759.804
132.454	20.342	961.814	758.832
133.468	20.211	961.061	757.601
134.483	20.296	959.866	756.960
135.497	20.248	959.616	756.487
136.512	20.375	959.342	756.759
137.527	20.400	958.534	756.160
138.541	20.548	957.330	755.789
139.556	20.586	956.626	755.333
140.570	20.510	955.930	754.387
141.585	20.445	955.184	753.449
142.600	20.503	954.513	753.105
143.614	20.457	952.916	751.578
144.629	20.503	952.520	751.397
145.643	20.837	951.730	752.151
146.658	20.694	950.909	750.817
147.673	20.452	949.375	748.501
148.687	20.483	948.412	747.805
149.702	20.432	947.481	746.788
150.716	20.395	946.204	745.557
151.731	20.263	945.537	744.398
152.746	20.393	944.384	743.982
153.760	20.534	944.289	744.447
154.775	20.671	943.668	744.474
155.789	20.723	942.360	743.598
156.804	20.510	941.597	742.021
157.819	20.585	940.113	741.109
158.833	20.544	940.039	740.807
159.848	20.842	938.691	740.947
160.862	20.771	938.093	740.110
161.877	20.569	937.395	738.636
162.892	20.556	936.505	737.814
163.906	20.643	935.984	737.704
164.921	20.640	935.355	737.131
165.935	20.533	933.882	735.452
166.950	20.625	932.897	735.001
167.964	20.757	931.649	734.511
168.979	20.610	930.674	733.058
169.994	20.666	929.146	732.024
171.008	20.421	928.384	730.330
172.023	20.715	927.727	730.982
173.037	20.683	927.396	730.525
174.052	20.555	925.891	728.735
175.067	20.294	924.761	726.690
176.081	20.445	924.246	726.851
177.096	20.664	923.159	726.848
178.110	20.477	922.830	725.745
179.125	20.294	922.109	724.350
180.140	20.011	920.536	721.870
181.154	19.895	920.453	721.258
182.169	20.307	919.054	721.813
183.183	20.385	919.162	722.158
184.198	20.629	918.977	722.962
185.213	20.588	917.986	721.947
186.227	20.526	917.300	721.089
187.242	20.585	916.603	720.723
188.256	20.612	916.044	720.330
189.271	20.576	915.378	719.594
190.286	20.747	914.286	719.377
191.300	20.530	913.338	717.672
192.315	20.061	912.019	714.640
193.329	19.489	910.351	710.911
194.344	19.292	909.417	709.308
195.359	19.688	910.082	711.397
196.373	20.365	910.571	714.501
197.388	20.555	910.259	714.977
198.402	20.502	908.708	713.478
199.417	20.422	908.474	712.901
200.432	20.568	907.774	712.890
201.446	20.204	907.703	711.275
202.461	20.033	906.589	709.640
203.475	20.069	906.012	709.273
204.490	19.790	904.163	706.624
205.504	18.625	902.428	700.451
206.519	19.152	902.361	702.486
207.534	19.988	902.875	706.236
208.548	20.108	902.197	706.133
209.563	20.458	902.110	707.428
210.577	20.615	900.917	707.067
211.592	20.305	900.235	705.212
212.607	20.663	899.765	706.233
213.621	20.713	899.585	706.232
214.636	20.632	898.925	705.323
215.650	20.829	898.402	705.648
216.665	20.657	897.593	704.255
217.680	20.622	897.603	704.058
218.694	20.964	896.237	704.308
219.709	20.460	895.662	701.757
220.723	20.168	894.679	699.745
221.738	20.297	894.399	699.988
222.753	20.489	893.786	700.218
223.767	20.496	892.999	699.567
224.782	20.608	892.342	699.440
225.796	20.845	891.501	699.674
226.811	20.852	891.529	699.663
227.826	20.265	890.369	696.334
228.840	19.754	888.392	692.681
229.855	19.472	888.434	691.523
230.869	19.842	887.864	692.498
231.884	19.646	886.466	690.562
232.899	19.747	886.090	690.612
233.913	20.420	886.398	693.479
234.928	20.596	885.583	693.483
235.942	20.623	885.412	693.395
236.957	20.457	884.957	692.315
237.972	20.149	883.855	690.168
238.986	20.227	883.030	689.770
240.001	20.320	882.208	689.438
241.015	20.262	881.592	688.666
242.030	20.413	881.246	688.933
243.045	20.491	880.349	688.477
244.059	20.545	879.741	688.158
245.074	20.626	879.007	687.843
246.088	20.619	878.772	687.569
247.103	20.357	877.653	685.599
248.117	20.209	876.972	684.423
249.132	20.825	876.749	686.617
250.147	21.112	876.594	687.568
251.161	21.093	876.260	687.168
252.176	21.400	875.400	687.642
253.190	21.362	874.757	686.926
254.205	21.362	874.220	686.442
255.220	21.545	873.947	686.886
256.234	21.547	873.293	686.319
257.249	21.424	872.123	684.857
258.263	21.357	871.810	684.290
259.278	21.289	871.712	683.884
260.293	21.358	870.994	683.532
261.307	21.524	870.266	683.546
262.322	21.456	869.458	682.589
263.336	21.163	868.857	680.913
264.351	20.699	867.496	677.979
265.366	19.708	865.005	672.121
266.380	19.194	864.301	669.516
267.395	20.136	865.167	673.791
268.409	21.087	864.548	676.938
269.424	20.890	864.522	676.095
270.439	21.005	864.156	676.196
271.453	21.260	863.156	676.342
272.468	21.177	862.526	675.467
273.482	21.291	862.428	675.770
274.497	21.507	862.020	676.226
275.512	21.244	861.045	674.387
276.526	20.692	859.518	671.002
277.541	20.911	858.896	671.300
278.555	21.191	858.780	672.228
279.570	21.110	857.716	671.024
280.585	20.833	856.838	669.216
281.599	20.940	856.640	669.412
282.614	21.033	856.110	669.296
283.628	20.523	855.010	666.422
284.643	20.318	854.272	665.002
285.657	20.636	854.620	666.432
286.672	20.692	853.386	665.626
287.687	20.200	852.407	662.922
288.701	20.597	851.925	664.007
289.716	20.930	851.984	665.264
290.730	20.558	851.170	663.150
291.745	20.616	850.057	662.446
292.760	20.331	849.251	660.673
293.774	20.179	848.794	659.681
294.789	20.990	849.528	663.282
295.803	21.642	849.014	665.298
296.818	21.656	848.982	665.267
297.833	21.829	848.359	665.376
298.847	21.574	846.968	663.263
299.862	21.294	846.152	661.503
300.876	21.495	845.369	661.591
301.891	21.650	845.696	662.377
302.906	21.695	844.720	661.725
303.920	21.351	843.448	659.372
304.935	21.273	842.712	658.444
305.949	21.705	842.600	659.924
306.964	21.704	842.048	659.432
307.979	21.488	841.846	658.401
308.993	21.475	841.129	657.732
310.008	21.687	841.050	658.409
311.022	21.749	840.457	658.123
312.037	21.541	839.967	656.898
313.052	21.369	839.116	655.529
314.066	21.387	838.581	655.121
315.081	20.807	836.745	651.462
316.095	20.205	835.270	648.005
317.110	20.491	836.316	649.830
318.125	21.293	836.526	652.934
319.139	21.176	834.962	651.217
320.154	19.968	833.177	645.269
321.168	19.602	832.548	643.363
322.183	20.171	832.666	645.515
323.197	21.009	832.914	648.768
324.212	21.284	832.744	649.602
325.227	21.445	832.324	649.817
326.241	21.605	831.745	649.900
327.256	21.497	831.362	649.141
328.270	21.405	830.682	648.215
329.285	21.403	829.552	647.267
330.300	21.189	828.984	645.975
331.314	20.990	827.950	644.378
332.329	21.016	827.696	644.216
333.343	21.297	827.422	644.987
334.358	21.654	826.812	645.767
335.373	21.600	826.640	645.379
336.387	21.708	825.915	645.153
337.402	21.799	825.593	645.181
338.416	22.017	825.337	645.724
339.431	22.050	824.442	645.088
340.446	22.001	823.698	644.268
341.460	22.182	823.183	644.474
342.475	22.349	822.504	644.497
343.489	21.921	821.786	642.311
344.504	21.947	821.397	642.045
345.519	22.211	820.981	642.628
346.533	22.395	820.635	642.973
347.548	22.356	820.561	642.713
348.562	22.417	820.004	642.444
349.577	22.406	819.560	642.000
350.592	22.308	818.719	640.925
351.606	22.311	818.463	640.681
352.621	22.335	818.197	640.501
353.635	22.243	817.333	639.435
354.650	22.221	816.942	638.994
355.665	21.782	816.245	636.797
356.679	20.884	814.040	631.765
357.694	20.776	814.205	631.447
358.708	21.463	813.891	633.637
359.723	21.386	812.770	632.430
360.738	21.393	812.845	632.456
361.752	21.915	813.041	634.443
362.767	22.109	812.133	634.377
363.781	22.374	812.002	635.175
364.796	22.588	811.791	635.726
365.810	22.726	811.160	635.672
366.825	22.645	811.175	635.334
367.840	22.726	810.019	634.665
368.854	22.579	809.683	633.817
369.869	22.119	809.318	631.822
370.883	22.011	808.760	630.943
371.898	22.160	807.940	630.783
372.913	21.983	807.283	629.579
373.927	22.094	806.402	629.233
374.942	22.131	806.161	629.123
375.956	22.259	805.589	629.079
376.971	22.447	804.935	629.184
377.986	22.436	804.785	628.973
379.000	22.606	804.142	629.018
380.015	22.584	803.809	628.627
381.029	22.578	803.055	627.958
382.044	22.383	802.545	626.811
383.059	22.653	802.108	627.375
384.073	22.756	801.516	627.223
385.088	22.617	801.011	626.277
386.102	22.601	800.503	625.766
387.117	22.461	799.970	624.798
388.132	22.540	799.174	624.403
389.146	22.295	798.541	622.984
390.161	21.776	797.684	620.423
391.175	21.952	796.862	620.352
392.190	22.186	797.251	621.429
393.205	22.325	797.052	621.710
394.219	21.277	795.039	616.389
395.234	19.807	792.953	609.540
396.248	19.223	792.246	606.885
397.263	20.273	793.034	611.137
398.278	21.909	794.417	617.915
399.292	22.508	793.768	619.460
400.307	22.005	793.312	617.284
401.321	22.099	792.868	617.212
402.336	22.057	792.581	616.789
403.350	22.383	792.323	617.677
404.365	22.740	792.410	618.943
405.380	23.020	792.050	619.589
406.394	23.350	791.768	620.468
407.409	23.623	791.129	620.870
408.423	23.313	790.627	619.336
409.438	23.292	790.286	618.942
410.453	23.199	790.126	618.433
411.467	23.448	789.511	618.768
412.482	23.459	788.760	618.163
413.496	23.433	788.263	617.629
414.511	23.287	788.063	616.908
415.526	23.308	787.856	616.765
416.540	23.349	787.186	616.328
417.555	23.282	786.684	615.649
418.569	22.998	786.068	614.125
419.584	22.843	785.516	613.101
420.599	23.013	784.854	613.120
421.613	157.755	1364.058	1799.227
422.628	136.447	1448.466	1799.310
