DTS Sentinel unit serial number:	SN413079Multiplexer serial number:	ORYXHardware model number:	OX4-SRSoftware version number:	ORYX F/W v4.00 Oryx Data Collector v3.7.2.0data status	okinstallation	princeton_trtdifferential loss correction	single-endedforward channel	channel 3reverse channel	N/Adate	2019/09/12time	00:42:11forward acquisition time	60.00reverse acquisition time	0.00gamma	496.2192k internal	0.2319k external	0.2319temperature offset calibration	1.0065default loss term (dB/km)	0.3790temperature slope calibration	1.0000multiplexer offset coefficient	1.0000multiplexer slope coefficient	1.0000fibre end	0.00T internal ref (°C)	33.31T ext. ref 1 (°C)	2.07T ext. ref 2 (°C)	28.06length (m)	temperature (°C)	Stokes	anti-Stokes-747.200	-200.000	-0.005	0.288
-746.185	800.000	-0.138	0.403
-745.171	423.066	-0.133	0.289
-744.156	25.898	-0.144	0.121
-743.142	-200.000	-0.001	-0.152
-742.127	-200.000	-0.011	0.424
-741.112	-37.140	-0.172	-0.093
-740.098	-11.664	-0.302	-0.201
-739.083	43.657	-0.151	0.140
-738.069	210.307	-0.115	0.182
-737.054	-77.700	0.078	-0.027
-736.039	137.270	-0.066	-0.088
-735.025	-51.666	0.330	-0.156
-734.010	-196.252	-0.419	-0.003
-732.996	36.846	0.216	-0.193
-731.981	-200.000	0.036	-0.274
-730.966	-46.569	-0.337	0.167
-729.952	-68.056	-0.188	-0.074
-728.937	106.775	-0.072	-0.087
-727.923	472.468	-0.091	-0.208
-726.908	-200.000	-0.000	0.234
-725.894	-200.000	0.030	-0.250
-724.879	256.354	-0.147	-0.255
-723.864	102.584	0.057	-0.067
-722.850	-119.271	-0.168	-0.030
-721.835	515.572	-0.079	-0.188
-720.821	337.654	0.203	-0.399
-719.806	76.657	-0.132	0.142
-718.791	133.351	-0.135	0.177
-717.777	-141.341	-0.281	-0.029
-716.762	234.398	0.372	-0.621
-715.748	-161.823	-0.178	-0.009
-714.733	-200.000	-0.027	0.151
-713.718	-77.796	-0.295	0.103
-712.704	173.979	0.176	-0.257
-711.689	16.381	-0.286	-0.228
-710.675	-29.371	0.417	-0.241
-709.660	13.004	0.079	0.061
-708.645	272.211	-0.243	0.432
-707.631	174.854	0.060	-0.088
-706.616	429.026	-0.115	0.252
-705.602	800.000	-0.070	-0.305
-704.587	-0.379	-0.259	0.186
-703.572	-146.230	0.129	0.011
-702.558	-200.000	0.037	0.182
-701.543	-117.082	0.242	-0.045
-700.529	-129.250	-0.168	-0.024
-699.514	-29.217	0.115	0.067
-698.499	-200.000	-0.008	0.078
-697.485	-59.633	-0.115	-0.050
-696.470	-71.232	0.027	-0.010
-695.456	212.362	-0.178	-0.284
-694.441	35.016	0.173	0.153
-693.426	-87.896	-0.164	-0.050
-692.412	356.127	-0.173	0.348
-691.397	140.475	0.158	0.210
-690.383	-135.388	-0.040	0.005
-689.368	800.000	0.067	-0.296
-688.354	-38.995	0.158	0.084
-687.339	800.000	0.116	-0.511
-686.324	214.423	-0.116	-0.185
-685.310	-200.000	-0.027	0.158
-684.295	160.240	-0.079	-0.111
-683.281	-200.000	-0.067	0.437
-682.266	-143.262	0.342	-0.033
-681.251	-200.000	-0.024	-0.185
-680.237	-200.000	-0.013	0.334
-679.222	231.895	-0.200	-0.332
-678.208	115.282	-0.249	-0.307
-677.193	800.000	0.104	-0.358
-676.178	800.000	-0.046	0.164
-675.164	10.778	-0.062	-0.048
-674.149	-200.000	0.001	-0.263
-673.135	-6.751	-0.103	-0.071
-672.120	800.000	-0.021	-0.077
-671.105	-35.081	-0.163	-0.089
-670.091	-65.208	0.180	-0.073
-669.076	-74.284	-0.081	-0.029
-668.062	-200.000	0.025	-0.486
-667.047	800.000	-0.058	-0.180
-666.032	45.473	-0.261	0.243
-665.018	181.606	0.167	-0.248
-664.003	152.203	-0.147	0.202
-662.989	-111.272	-0.314	-0.065
-661.974	-64.224	-0.037	-0.015
-660.959	106.728	-0.195	0.234
-659.945	-56.076	-0.405	-0.182
-658.930	409.815	-0.030	-0.064
-657.916	-133.130	-0.046	0.006
-656.901	-85.918	-0.256	0.080
-655.886	-200.000	-0.051	-0.277
-654.872	301.302	0.094	-0.175
-653.857	82.579	0.054	0.059
-652.843	-110.450	-0.258	-0.054
-651.828	-42.062	0.121	0.062
-650.814	-159.901	-0.367	-0.020
-649.799	800.000	0.059	0.212
-648.784	224.264	0.180	-0.293
-647.770	-200.000	-0.007	-0.231
-646.755	-109.610	0.241	-0.051
-645.741	-200.000	0.003	-0.501
-644.726	38.756	0.180	0.162
-643.711	-123.701	-0.138	-0.022
-642.697	221.561	-0.289	0.468
-641.682	-200.000	0.067	0.313
-640.668	800.000	0.079	-0.314
-639.653	800.000	-0.085	-0.248
-638.638	-39.633	0.061	-0.032
-637.624	-120.466	-0.227	-0.039
-636.609	119.281	0.169	-0.210
-635.595	-146.535	-0.080	0.007
-634.580	-7.841	-0.281	0.191
-633.565	115.110	-0.113	-0.139
-632.551	264.304	0.201	0.353
-631.536	-107.218	-0.329	0.073
-630.522	44.233	0.048	0.045
-629.507	-187.136	-0.348	0.005
-628.492	27.148	0.133	0.113
-627.478	-62.828	0.076	-0.032
-626.463	-113.036	-0.192	0.038
-625.449	-200.000	-0.026	0.214
-624.434	365.406	-0.101	-0.205
-623.419	-73.224	-0.259	-0.095
-622.405	-79.501	0.151	-0.051
-621.390	-42.303	-0.400	0.205
-620.376	800.000	0.054	-0.229
-619.361	-200.000	-0.033	-0.236
-618.346	719.159	0.096	-0.256
-617.332	197.407	-0.049	-0.076
-616.317	376.522	0.150	-0.308
-615.303	800.000	-0.059	0.202
-614.288	-200.000	-0.032	0.146
-613.273	-200.000	-0.022	-0.140
-612.259	-38.178	-0.258	-0.138
-611.244	40.219	-0.368	0.333
-610.230	-200.000	0.111	0.000
-609.215	-70.287	-0.124	0.047
-608.201	800.000	0.009	-0.030
-607.186	-116.614	-0.227	-0.042
-606.171	155.603	-0.142	-0.196
-605.157	145.173	0.173	0.233
-604.142	83.172	-0.198	0.217
-603.128	-29.351	-0.137	-0.079
-602.113	800.000	-0.055	0.228
-601.098	800.000	-0.037	0.151
-600.084	-200.000	0.007	-0.060
-599.069	-200.000	0.024	-0.116
-598.055	-0.227	0.252	0.180
-597.040	179.715	-0.148	-0.217
-596.025	-152.983	0.106	-0.008
-595.011	-200.000	0.050	-0.226
-593.996	-13.124	-0.204	0.133
-592.982	-200.000	0.069	-0.345
-591.967	71.672	0.211	0.221
-590.952	-144.784	0.260	-0.024
-589.938	18.296	0.036	0.029
-588.923	800.000	-0.116	0.322
-587.909	-1.098	0.274	-0.195
-586.894	-30.133	0.175	-0.100
-585.879	-3.886	-0.094	-0.066
-584.865	-25.727	0.330	-0.196
-583.850	609.044	-0.094	-0.237
-582.836	109.407	0.184	-0.222
-581.821	129.699	-0.159	-0.204
-580.806	-78.731	0.247	-0.085
-579.792	-125.174	-0.199	-0.031
-578.777	-13.739	-0.333	0.217
-577.763	83.162	0.255	-0.279
-576.748	-46.035	-0.025	0.013
-575.733	57.051	0.076	-0.075
-574.719	62.372	0.201	-0.201
-573.704	-77.105	-0.266	-0.093
-572.690	800.000	-0.121	0.358
-571.675	56.215	0.169	-0.165
-570.661	132.670	-0.193	0.250
-569.646	-164.191	0.319	-0.015
-568.631	326.368	0.055	0.106
-567.617	-45.376	-0.260	0.130
-566.602	-80.746	0.260	-0.087
-565.588	41.924	-0.260	-0.237
-564.573	341.140	0.096	0.189
-563.558	70.568	0.052	-0.054
-562.544	-200.000	0.020	-0.200
-561.529	278.576	0.165	0.295
-560.515	153.851	-0.010	-0.014
-559.500	-79.881	0.235	0.080
-558.485	242.302	-0.045	0.075
-557.471	330.274	-0.085	0.164
-556.456	34.084	-0.162	0.141
-555.442	-66.178	-0.170	0.068
-554.427	48.580	-0.075	-0.070
-553.412	-150.242	0.216	0.017
-552.398	389.343	0.077	0.160
-551.383	-200.000	0.340	0.001
-550.369	517.030	0.080	0.188
-549.354	800.000	0.033	-0.104
-548.339	297.192	0.133	0.246
-547.325	17.997	0.212	0.170
-546.310	-154.352	-0.239	-0.016
-545.296	59.162	0.072	0.071
-544.281	328.194	-0.098	-0.189
-543.266	-133.898	0.148	0.018
-542.252	10.901	0.125	0.096
-541.237	357.681	-0.081	-0.162
-540.223	261.945	0.110	0.191
-539.208	76.506	-0.099	-0.105
-538.193	294.313	0.069	-0.126
-537.179	-50.859	-0.112	0.053
-536.164	-169.305	-0.299	-0.011
-535.150	67.143	-0.252	0.258
-534.135	615.097	0.128	0.321
-533.121	-50.769	-0.172	-0.081
-532.106	106.726	-0.167	0.199
-531.091	800.000	-0.062	-0.228
-530.077	193.995	-0.166	-0.253
-529.062	-36.627	0.099	-0.053
-528.048	221.811	0.183	0.294
-527.033	800.000	-0.144	-0.398
-526.018	711.420	-0.055	-0.145
-525.004	800.000	-0.031	0.094
-523.989	-152.003	-0.084	-0.006
-522.975	379.631	-0.129	0.266
-521.960	3.498	-0.136	0.100
-520.945	78.783	-0.308	-0.331
-519.931	-200.000	0.023	0.116
-518.916	179.656	0.158	-0.233
-517.902	183.004	-0.340	-0.504
-516.887	-26.404	-0.029	-0.017
-515.872	6.373	0.250	0.186
-514.858	-55.660	-0.105	-0.047
-513.843	351.696	0.113	-0.225
-512.829	-135.301	-0.146	0.018
-511.814	0.760	-0.167	-0.120
-510.799	27.222	0.343	-0.289
-509.785	800.000	-0.049	-0.141
-508.770	-200.000	0.017	-0.201
-507.756	13.414	-0.215	0.167
-506.741	800.000	-0.036	-0.117
-505.726	185.921	0.019	0.028
-504.712	800.000	0.060	0.196
-503.697	-109.724	-0.399	-0.084
-502.683	156.439	0.063	-0.088
-501.668	-15.405	-0.249	-0.159
-500.653	-200.000	-0.059	0.459
-499.639	24.559	0.208	-0.172
-498.624	-200.000	0.031	-0.215
-497.610	-200.000	0.030	-0.188
-496.595	800.000	0.078	-0.273
-495.581	-129.990	0.283	-0.039
-494.566	-72.369	-0.286	-0.106
-493.551	-1.550	0.329	-0.233
-492.537	-200.000	0.047	-0.369
-491.522	-200.000	-0.016	0.166
-490.508	331.763	-0.219	-0.424
-489.493	-200.000	-0.070	0.371
-488.478	-102.171	-0.149	-0.036
-487.464	-130.072	-0.147	-0.020
-486.449	83.497	-0.109	0.119
-485.435	50.362	0.129	0.122
-484.420	17.906	-0.188	0.150
-483.405	-67.467	0.094	0.037
-482.391	-111.342	0.065	-0.013
-481.376	196.577	0.061	-0.092
-480.362	-200.000	-0.016	-0.185
-479.347	-200.000	0.028	0.245
-478.332	196.084	0.083	0.126
-477.318	246.714	0.003	-0.005
-476.303	342.287	0.124	-0.242
-475.289	-91.274	0.457	0.131
-474.274	62.207	-0.108	0.108
-473.259	664.222	0.102	-0.265
-472.245	-200.000	-0.012	-0.274
-471.230	800.000	-0.017	-0.064
-470.216	-200.000	-0.010	0.182
-469.201	-17.501	-0.098	-0.062
-468.186	-68.013	-0.157	0.061
-467.172	-2.778	-0.114	-0.080
-466.157	-108.261	0.137	0.030
-465.143	-2.697	0.144	-0.101
-464.128	-2.472	-0.325	0.228
-463.113	-122.947	-0.056	-0.009
-462.099	108.251	-0.146	-0.174
-461.084	-79.091	0.188	-0.064
-460.070	-200.000	0.004	-0.387
-459.055	-33.014	0.099	-0.055
-458.040	32.140	-0.098	-0.084
-457.026	800.000	0.055	-0.165
-456.011	-33.839	0.237	0.131
-454.997	-58.559	-0.075	-0.033
-453.982	196.585	-0.069	0.105
-452.968	-113.049	0.252	-0.050
-451.953	-200.000	-0.057	0.248
-450.938	118.563	-0.139	0.172
-449.924	341.699	0.107	-0.210
-448.909	800.000	-0.019	-0.060
-447.895	468.059	-0.113	0.254
-446.880	-172.566	0.172	-0.005
-445.865	63.296	0.099	-0.099
-444.851	-124.194	0.236	-0.037
-443.836	-200.000	0.033	0.294
-442.822	199.819	0.159	-0.244
-441.807	-69.436	-0.367	-0.141
-440.792	-137.904	-0.401	0.045
-439.778	800.000	0.036	-0.150
-438.763	-72.403	0.275	0.102
-437.749	357.892	-0.141	-0.282
-436.734	228.268	-0.082	-0.133
-435.719	-72.836	0.192	-0.071
-434.705	130.018	-0.223	0.285
-433.690	10.186	-0.006	-0.005
-432.676	286.524	0.109	0.197
-431.661	-52.351	0.204	0.095
-430.646	464.720	-0.107	-0.238
-429.632	-94.623	-0.166	-0.045
-428.617	800.000	0.041	-0.179
-427.603	-200.000	0.001	0.175
-426.588	-95.964	0.190	0.051
-425.573	800.000	-0.034	-0.098
-424.559	-46.547	0.386	-0.189
-423.544	613.321	0.082	-0.205
-422.530	-16.678	0.103	-0.065
-421.515	41.839	0.251	-0.227
-420.500	200.803	-0.034	0.053
-419.486	800.000	-0.067	0.207
-418.471	44.340	-0.062	0.057
-417.457	-71.948	0.075	0.028
-416.442	-131.470	0.187	-0.025
-415.428	-126.421	0.266	0.040
-414.413	85.459	-0.119	0.131
-413.398	-200.000	-0.011	-0.159
-412.384	89.632	-0.066	0.074
-411.369	82.045	0.201	-0.218
-410.355	713.025	0.040	-0.106
-409.340	-200.000	0.024	0.170
-408.325	-200.000	-0.025	-0.254
-407.311	-18.364	-0.423	-0.264
-406.296	-200.000	-0.017	-0.084
-405.282	211.793	-0.108	-0.169
-404.267	-105.055	0.088	0.020
-403.252	81.205	-0.171	-0.185
-402.238	-200.000	-0.038	0.178
-401.223	8.593	0.184	0.139
-400.209	-33.593	-0.132	0.073
-399.194	294.382	0.183	0.334
-398.179	-33.689	-0.168	-0.093
-397.165	800.000	0.106	0.412
-396.150	258.355	-0.105	-0.180
-395.136	-71.875	0.196	0.073
-394.121	16.992	0.147	-0.116
-393.106	424.830	-0.143	0.306
-392.092	-200.000	-0.078	0.382
-391.077	45.788	0.197	0.182
-390.063	128.581	0.137	-0.174
-389.048	-158.938	0.174	-0.010
-388.033	-200.000	-0.020	-0.098
-387.019	94.312	0.130	0.147
-386.004	-200.000	-0.048	0.268
-384.990	17.097	0.047	0.037
-383.975	565.472	0.053	-0.129
-382.960	-98.931	0.047	0.012
-381.946	32.057	-0.021	-0.018
-380.931	87.672	0.177	0.196
-379.917	800.000	-0.037	-0.149
-378.902	-100.244	0.276	-0.068
-377.888	133.165	0.245	-0.315
-376.873	286.896	-0.102	-0.184
-375.858	800.000	-0.049	0.148
-374.844	-156.095	-0.118	0.007
-373.829	9.861	-0.162	-0.123
-372.815	744.974	0.036	-0.096
-371.800	55.498	-0.192	0.186
-370.785	427.077	-0.071	-0.153
-369.771	-66.351	-0.286	-0.113
-368.756	-200.000	-0.048	-0.272
-367.742	-200.000	0.006	0.133
-366.727	-5.276	-0.130	0.089
-365.712	-111.396	-0.097	0.020
-364.698	666.908	-0.123	-0.317
-363.683	-128.061	-0.211	-0.030
-362.669	104.182	0.155	0.182
-361.654	-135.544	-0.114	0.014
-360.639	117.589	-0.151	-0.185
-359.625	712.938	-0.104	-0.275
-358.610	217.068	0.121	-0.193
-357.596	116.177	-0.043	0.053
-356.581	-98.922	-0.254	0.064
-355.566	-141.659	0.262	0.026
-354.552	-200.000	-0.000	-0.213
-353.537	4.166	-0.147	-0.107
-352.523	-200.000	-0.007	0.134
-351.508	467.824	-0.037	0.082
-350.493	74.105	-0.095	0.099
-349.479	136.823	0.156	-0.203
-348.464	21.371	0.269	0.217
-347.450	800.000	0.096	-0.337
-346.435	-200.000	-0.060	-0.264
-345.420	598.654	0.054	-0.133
-344.406	-200.000	-0.022	-0.421
-343.391	-200.000	-0.003	0.035
-342.377	-95.066	0.145	0.039
-341.362	-200.000	0.001	-0.033
-340.348	800.000	-0.108	0.312
-339.333	-130.758	0.154	0.021
-338.318	-109.613	0.058	0.012
-337.304	413.064	0.037	-0.078
-336.289	-50.636	0.054	0.025
-335.275	-200.000	-0.019	0.117
-334.260	-72.994	-0.529	0.193
-333.245	-123.662	0.119	0.019
-332.231	800.000	-0.093	0.292
-331.216	-159.752	-0.104	0.006
-330.202	-200.000	0.001	-0.254
-329.187	-113.020	0.090	0.018
-328.172	358.861	-0.094	0.187
-327.158	-129.371	0.192	-0.026
-326.143	-200.000	-0.019	0.206
-325.129	-149.468	0.051	0.004
-324.114	0.042	0.182	0.129
-323.099	553.951	0.071	-0.171
-322.085	-200.000	-0.032	0.182
-321.070	-39.678	0.327	0.170
-320.056	-200.000	-0.022	0.298
-319.041	95.467	-0.049	0.055
-318.026	468.539	0.103	0.230
-317.012	-200.000	-0.011	-0.228
-315.997	434.153	0.033	0.072
-314.983	425.590	0.168	0.360
-313.968	-45.497	-0.194	0.096
-312.953	-56.645	-0.109	-0.048
-311.939	342.593	0.090	-0.176
-310.924	566.207	0.151	-0.365
-309.910	-177.500	0.400	-0.010
-308.895	302.183	0.125	-0.230
-307.880	-157.789	0.122	-0.007
-306.866	-77.402	-0.178	-0.061
-305.851	4.323	-0.281	-0.205
-304.837	545.262	-0.088	0.209
-303.822	-200.000	-0.004	0.038
-302.807	-129.426	-0.243	-0.033
-301.793	-200.000	0.041	0.220
-300.778	20.773	-0.334	0.269
-299.764	-200.000	-0.013	0.144
-298.749	-148.593	0.338	-0.027
-297.735	-38.162	0.094	-0.049
-296.720	-63.191	0.302	0.124
-295.705	307.102	0.029	0.053
-294.691	737.316	0.106	0.281
-293.676	-68.135	-0.384	0.148
-292.662	24.662	0.226	-0.186
-291.647	-9.252	0.374	0.248
-290.632	16.751	-0.075	0.059
-289.618	741.618	-0.045	-0.120
-288.603	-40.412	-0.344	0.178
-287.589	-131.366	0.221	-0.029
-286.574	-200.000	0.005	-0.048
-285.559	-66.569	-0.486	-0.192
-284.545	-200.000	-0.051	-0.392
-283.530	24.429	-0.200	-0.164
-282.516	-42.786	0.260	0.131
-281.501	1.514	-0.219	0.156
-280.486	-39.572	0.280	-0.146
-279.472	-70.472	-0.072	0.027
-278.457	-44.160	0.258	0.129
-277.443	591.492	0.085	-0.207
-276.428	800.000	0.035	0.113
-275.413	800.000	-0.063	-0.260
-274.399	-13.069	-0.113	-0.073
-273.384	-200.000	0.064	0.356
-272.370	-59.247	-0.175	-0.075
-271.355	82.894	-0.153	-0.165
-270.340	37.877	-0.292	-0.257
-269.326	-133.872	-0.437	-0.054
-268.311	208.242	0.113	0.175
-267.297	65.331	-0.088	-0.088
-266.282	800.000	-0.084	0.364
-265.267	448.712	-0.047	0.104
-264.253	-104.928	0.057	-0.013
-263.238	-165.483	-0.129	-0.006
-262.224	186.840	-0.093	0.138
-261.209	-200.000	-0.005	0.081
-260.195	-20.677	-0.133	-0.081
-259.180	-124.813	-0.274	-0.042
-258.165	-36.192	-0.152	0.081
-257.151	136.337	-0.175	0.226
-256.136	32.546	0.128	0.110
-255.122	-53.357	0.152	0.069
-254.107	63.007	0.130	0.129
-253.092	265.061	-0.059	-0.103
-252.078	-128.591	0.269	0.038
-251.063	9.643	0.017	-0.013
-250.049	241.932	0.175	0.290
-249.034	-7.195	-0.131	0.088
-248.019	-200.000	0.007	0.183
-247.005	-18.471	-0.184	-0.114
-245.990	607.381	0.076	0.189
-244.976	-200.000	0.044	0.274
-243.961	-108.061	-0.138	-0.030
-242.946	624.000	0.102	-0.256
-241.932	-200.000	0.000	0.058
-240.917	-176.733	0.131	0.003
-239.903	114.255	0.289	0.349
-238.888	331.083	0.136	0.260
-237.873	-64.025	0.381	0.154
-236.859	420.022	0.118	0.252
-235.844	-28.063	-0.126	0.072
-234.830	13.087	-0.186	0.143
-233.815	-200.000	0.055	0.252
-232.800	800.000	-0.121	0.392
-231.786	800.000	-0.084	-0.233
-230.771	-37.366	0.046	-0.024
-229.757	4.470	-0.310	0.225
-228.742	-105.252	0.132	0.030
-227.727	305.168	-0.048	0.089
-226.713	163.619	0.089	0.124
-225.698	120.511	0.445	-0.549
-224.684	-200.000	-0.004	0.503
-223.669	-200.000	-0.052	0.254
-222.655	800.000	-0.093	0.271
-221.640	-106.674	-0.130	-0.029
-220.625	55.811	0.073	-0.070
-219.611	15.106	0.106	-0.083
-218.596	-37.247	0.105	0.056
-217.582	800.000	-0.043	-0.152
-216.567	565.702	-0.040	0.096
-215.552	-10.264	-0.157	-0.103
-214.538	-138.185	0.210	0.023
-213.523	-200.000	0.000	-0.265
-212.509	-113.701	0.266	0.052
-211.494	591.925	0.039	0.095
-210.479	46.246	-0.087	0.080
-209.465	800.000	0.055	-0.163
-208.450	121.817	-0.104	-0.129
-207.436	-40.456	0.271	-0.140
-206.421	308.240	0.105	-0.195
-205.406	800.000	-0.046	0.135
-204.392	-200.000	-0.034	0.239
-203.377	-200.000	0.006	0.463
-202.363	-140.295	-0.140	-0.014
-201.348	3.932	-0.155	-0.112
-200.333	-117.410	-0.045	-0.008
-199.319	800.000	0.118	0.352
-198.304	-138.920	0.055	-0.006
-197.290	-110.742	-0.221	-0.045
-196.275	98.887	0.229	-0.262
-195.260	-116.199	0.174	0.032
-194.246	-58.970	0.210	0.090
-193.231	5.695	0.088	0.065
-192.217	-141.766	-0.153	-0.015
-191.202	-200.000	-0.063	0.329
-190.187	60.970	-0.240	-0.236
-189.173	200.291	0.087	0.132
-188.158	-147.822	0.033	0.003
-187.144	247.441	0.186	-0.311
-186.129	-95.655	0.176	-0.047
-185.114	13.599	0.182	-0.140
-184.100	-50.606	-0.371	0.173
-183.085	-49.304	-0.200	-0.095
-182.071	-14.455	0.128	-0.082
-181.056	369.491	-0.233	0.466
-180.042	58.352	0.133	-0.129
-179.027	800.000	0.060	0.170
-178.012	231.766	0.062	-0.100
-176.998	142.349	-0.093	-0.122
-175.983	800.000	0.103	0.325
-174.969	-83.721	0.318	-0.100
-173.954	483.735	-0.072	-0.162
-172.939	-181.662	-0.212	0.004
-171.925	-159.573	-0.049	0.003
-170.910	-200.000	0.005	-0.371
-169.896	-187.616	0.246	-0.003
-168.881	-184.924	0.212	0.003
-167.866	315.612	-0.023	-0.042
-166.852	800.000	-0.067	0.189
-165.837	8.603	0.172	-0.128
-164.823	-117.344	-0.256	-0.046
-163.808	123.378	0.205	0.255
-162.793	-200.000	0.009	0.280
-161.779	120.595	0.265	0.326
-160.764	-200.000	-0.001	0.135
-159.750	-200.000	0.001	0.232
-158.735	-154.469	0.181	-0.012
-157.720	39.225	-0.119	-0.105
-156.706	-144.647	-0.271	-0.025
-155.691	-16.020	0.105	0.066
-154.677	35.567	-0.311	-0.270
-153.662	800.000	0.091	-0.319
-152.647	-200.000	0.019	-0.237
-151.633	-196.126	-0.092	0.001
-150.618	-9.351	-0.096	0.064
-149.604	-90.025	0.091	0.026
-148.589	140.456	0.118	0.154
-147.574	800.000	-0.057	0.177
-146.560	-200.000	0.001	0.300
-145.545	-20.811	-0.283	0.172
-144.531	61.911	0.150	0.148
-143.516	-114.117	0.143	-0.027
-142.502	-200.000	-0.014	0.271
-141.487	-87.775	-0.241	0.072
-140.472	150.398	0.082	-0.110
-139.458	-33.940	-0.292	-0.159
-138.443	22.227	-0.105	0.085
-137.429	-111.807	0.119	0.024
-136.414	-64.394	0.407	-0.164
-135.399	53.115	0.121	-0.115
-134.385	11.379	-0.249	0.189
-133.370	506.715	0.054	-0.125
-132.356	-119.719	0.240	0.041
-131.341	-140.677	0.222	-0.023
-130.326	446.146	0.050	-0.109
-129.312	8.370	-0.133	-0.099
-128.297	224.454	-0.105	-0.167
-127.283	647.581	-0.040	-0.100
-126.268	-200.000	-0.036	0.233
-125.253	-5.036	-0.036	0.025
-124.239	146.045	0.103	-0.137
-123.224	-86.340	-0.246	-0.075
-122.210	124.530	0.094	-0.116
-121.195	-200.000	0.044	0.264
-120.180	-200.000	0.096	0.428
-119.166	800.000	0.075	0.253
-118.151	800.000	-0.019	-0.060
-117.137	588.632	-0.126	-0.306
-116.122	-200.000	0.023	-0.173
-115.107	800.000	0.038	-0.132
-114.093	-200.000	-0.082	-0.425
-113.078	11.520	-0.167	-0.127
-112.064	176.977	0.157	-0.226
-111.049	104.156	-0.152	-0.176
-110.034	-116.132	0.146	-0.027
-109.020	-20.096	0.140	-0.085
-108.005	141.170	0.035	0.046
-106.991	-77.582	0.219	-0.075
-105.976	-83.976	-0.303	-0.095
-104.962	67.926	0.123	-0.124
-103.947	169.378	-0.050	0.070
-102.932	12.302	0.177	0.134
-101.918	115.493	0.122	0.147
-100.903	-200.000	0.002	-0.144
-99.889	800.000	0.105	0.322
-98.874	-0.350	0.158	0.111
-97.859	-200.000	-0.048	0.297
-96.845	-7.258	0.198	-0.132
-95.830	-65.549	0.394	0.156
-94.816	-95.590	-0.476	-0.126
-93.801	800.000	0.038	0.138
-92.786	-148.156	0.354	-0.029
-91.772	-96.172	0.210	-0.055
-90.757	-22.483	0.195	-0.117
-89.743	800.000	-0.058	0.188
-88.728	-200.000	-0.012	0.404
-87.713	-200.000	-0.010	0.324
-86.699	410.561	-0.136	-0.285
-85.684	-62.573	-0.226	-0.092
-84.670	-148.461	-0.271	-0.022
-83.655	48.193	0.257	0.237
-82.640	28.201	0.044	-0.036
-81.626	-200.000	-0.047	-0.272
-80.611	800.000	0.097	-0.295
-79.597	355.067	0.174	0.341
-78.582	-185.570	0.161	0.002
-77.567	-170.867	-0.135	-0.005
-76.553	-127.803	-0.148	-0.021
-75.538	-96.360	-0.089	0.023
-74.524	-82.794	-0.359	-0.114
-73.509	11.355	0.238	-0.180
-72.494	-86.075	0.205	0.062
-71.480	-151.154	0.242	-0.018
-70.465	-105.878	-0.296	0.066
-69.451	-3.316	-0.119	0.081
-68.436	113.801	0.028	-0.033
-67.422	3.681	0.185	0.133
-66.407	-48.498	0.217	0.103
-65.392	253.390	-0.200	0.337
-64.378	765.102	-0.091	-0.244
-63.363	39.946	0.229	-0.203
-62.349	-81.334	0.330	-0.107
-61.334	109.551	-0.979	-1.156
-60.319	800.000	0.093	0.264
-59.305	698.369	-0.357	-0.925
-58.290	800.000	0.235	0.864
-57.276	358.631	0.791	1.556
-56.261	-200.000	96.926	578.302
-55.246	543.113	1388.131	3261.787
-54.232	157.618	2568.312	3502.583
-53.217	110.965	2165.520	2567.579
-52.203	43.523	1708.635	1538.533
-51.188	36.535	1521.839	1322.676
-50.173	34.097	1495.397	1283.226
-49.159	53.227	1544.020	1456.443
-48.144	55.131	1562.160	1486.544
-47.130	36.721	1521.193	1323.176
-46.115	33.636	1506.103	1289.077
-45.100	33.420	1502.731	1284.670
-44.086	33.283	1501.543	1282.674
-43.071	33.337	1499.325	1281.100
-42.057	33.280	1498.027	1279.555
-41.042	33.257	1496.753	1278.260
-40.027	33.389	1495.155	1277.735
-39.013	33.372	1493.478	1276.134
-37.998	33.339	1491.989	1274.588
-36.984	33.308	1491.335	1273.768
-35.969	33.341	1489.832	1272.659
-34.954	33.317	1488.838	1271.597
-33.940	33.344	1486.896	1270.068
-32.925	33.387	1485.583	1269.184
-31.911	33.474	1484.162	1268.507
-30.896	33.388	1483.112	1266.984
-29.881	33.383	1481.782	1265.759
-28.867	33.356	1480.614	1264.535
-27.852	33.355	1478.968	1263.072
-26.838	33.501	1477.282	1262.554
-25.823	33.359	1476.246	1260.675
-24.809	33.359	1474.315	1258.972
-23.794	33.300	1472.910	1257.334
-22.779	33.370	1471.840	1256.833
-21.765	33.310	1471.081	1255.736
-20.750	33.434	1469.448	1255.116
-19.736	33.404	1468.493	1254.054
-18.721	33.194	1468.027	1252.216
-17.706	33.253	1466.783	1251.490
-16.692	33.287	1465.601	1250.656
-15.677	33.333	1464.230	1249.743
-14.663	33.199	1464.091	1248.688
-13.648	33.234	1462.489	1247.506
-12.633	33.180	1461.698	1246.422
-11.619	33.316	1460.668	1246.393
-10.604	33.228	1459.579	1244.832
-9.590	33.225	1458.744	1244.055
-8.575	33.324	1457.836	1243.880
-7.560	33.234	1457.193	1242.691
-6.546	33.280	1456.498	1242.353
-5.531	33.160	1456.199	1241.260
-4.517	33.263	1454.161	1240.145
-3.502	33.177	1453.616	1239.069
-2.487	33.224	1452.626	1238.482
-1.473	33.205	1451.451	1237.312
-0.458	33.338	1449.994	1236.888
0.556	33.706	1440.798	1225.344
1.571	30.963	1416.390	1187.041
2.586	27.723	1361.826	1121.334
3.600	26.268	1282.873	1047.795
4.615	24.925	1235.640	1001.625
5.629	21.448	1178.160	936.363
6.644	11.274	1091.075	816.373
7.659	3.430	1047.413	745.809
8.673	2.280	1042.076	736.405
9.688	2.112	1038.923	733.301
10.702	1.974	1036.971	731.199
11.717	1.924	1035.932	730.165
12.731	5.630	1039.782	750.597
13.746	15.717	1054.252	809.775
14.761	23.370	1063.583	853.902
15.775	24.893	1065.352	862.590
16.790	25.285	1064.520	863.728
17.804	25.053	1064.090	862.187
18.819	24.965	1063.041	860.839
19.834	25.049	1062.680	860.870
20.848	25.112	1062.284	860.779
21.863	25.346	1061.687	861.340
22.877	25.229	1061.466	860.522
23.892	25.163	1060.862	859.641
24.907	25.043	1059.900	858.209
25.921	25.048	1059.506	857.839
26.936	25.172	1058.655	857.667
27.950	25.014	1057.329	855.762
28.965	25.083	1056.207	855.110
29.980	25.095	1054.848	853.989
30.994	24.971	1053.339	852.102
32.009	25.111	1052.956	852.385
33.023	25.296	1052.438	852.765
34.038	24.948	1051.153	850.000
35.053	24.901	1050.529	849.195
36.067	25.123	1049.660	849.470
37.082	25.172	1049.025	849.112
38.096	25.107	1047.989	847.892
39.111	25.266	1047.221	847.946
40.126	25.371	1046.662	847.916
41.140	25.319	1045.276	846.474
42.155	25.016	1043.946	843.894
43.169	24.677	1042.794	841.291
44.184	24.790	1042.015	841.121
45.199	24.964	1040.737	840.831
46.213	24.741	1040.076	839.178
47.228	24.751	1038.883	838.186
48.242	24.953	1038.568	838.807
49.257	25.010	1037.553	838.178
50.271	25.106	1037.082	838.175
51.286	25.135	1036.378	837.665
52.301	25.198	1035.403	837.095
53.315	25.243	1034.770	836.721
54.330	25.218	1033.876	835.808
55.344	24.980	1033.439	834.274
56.359	25.211	1032.248	834.309
57.374	25.100	1031.784	833.346
58.388	24.962	1030.815	831.847
59.403	24.861	1030.097	830.726
60.417	24.868	1029.333	830.069
61.432	24.784	1028.288	828.763
62.447	24.771	1027.662	828.124
63.461	24.874	1027.315	828.249
64.476	24.844	1026.659	827.507
65.490	24.875	1025.829	826.910
66.505	24.947	1024.184	825.845
67.520	24.947	1023.434	825.167
68.534	25.000	1023.055	825.030
69.549	24.879	1021.906	823.473
70.563	24.413	1020.937	820.479
71.578	24.411	1020.324	819.904
72.593	24.429	1019.638	819.361
73.607	24.323	1018.256	817.693
74.622	24.227	1017.509	816.582
75.636	24.553	1017.013	817.603
76.651	24.771	1015.828	817.578
77.666	24.516	1015.436	816.023
78.680	24.435	1014.802	815.070
79.695	24.598	1013.819	814.953
80.709	24.735	1012.948	814.804
81.724	24.771	1012.452	814.496
82.739	24.688	1011.726	813.463
83.753	24.832	1010.686	813.210
84.768	25.040	1009.831	813.395
85.782	25.332	1009.501	814.384
86.797	25.607	1008.887	815.060
87.812	25.444	1008.338	813.806
88.826	25.351	1007.205	812.400
89.841	25.346	1006.445	811.694
90.855	25.351	1005.875	811.186
91.870	25.401	1005.094	810.709
92.884	25.362	1004.401	809.900
93.899	25.250	1003.224	808.378
94.914	25.099	1002.101	806.722
95.928	25.181	1001.833	806.804
96.943	25.381	1000.324	806.411
97.957	24.996	999.777	804.171
98.972	24.817	998.366	802.166
99.987	24.593	997.734	800.584
101.001	24.605	997.210	800.144
102.016	25.108	996.527	801.774
103.030	25.222	995.688	801.540
104.045	24.985	994.639	799.565
105.060	24.883	993.576	798.185
106.074	24.717	992.487	796.500
107.089	24.658	991.859	795.666
108.103	24.944	991.654	796.704
109.118	25.162	990.670	796.811
110.133	24.840	989.761	794.580
111.147	24.888	988.336	793.578
112.162	24.611	987.507	791.614
113.176	24.505	986.427	790.211
114.191	24.663	985.648	790.214
115.206	24.742	984.532	789.599
116.220	24.546	983.368	787.729
117.235	24.373	982.491	786.195
118.249	24.371	982.306	785.970
119.264	24.611	981.298	786.152
120.279	24.490	980.288	784.739
121.293	24.396	979.495	783.621
122.308	24.675	979.042	784.415
123.322	24.646	977.968	783.356
124.337	24.547	977.079	782.142
125.352	24.447	975.785	780.599
126.366	24.085	974.167	777.656
127.381	23.718	973.145	775.170
128.395	24.210	972.875	777.032
129.410	24.924	972.741	779.968
130.424	25.062	972.151	780.025
131.439	24.977	970.901	778.587
132.454	24.954	969.929	777.639
133.468	25.084	969.258	777.595
134.483	24.933	968.390	776.176
135.497	24.934	968.235	775.985
136.512	25.284	967.205	776.608
137.527	25.211	966.287	775.487
138.541	25.312	965.882	775.526
139.556	25.334	964.783	774.671
140.570	25.320	963.780	773.739
141.585	25.287	963.228	773.085
142.600	25.309	962.325	772.387
143.614	25.192	961.645	771.268
144.629	25.279	961.229	771.239
145.643	25.595	960.383	771.850
146.658	25.450	958.827	769.909
147.673	25.303	957.918	768.484
148.687	25.237	956.906	767.321
149.702	25.134	955.911	766.016
150.716	25.202	954.549	765.148
151.731	25.054	953.492	763.599
152.746	25.129	952.776	763.280
153.760	25.318	952.505	763.800
154.775	25.361	952.032	763.535
155.789	25.391	951.221	762.945
156.804	25.506	949.988	762.375
157.819	25.359	948.738	760.680
158.833	25.333	948.646	760.432
159.848	25.573	947.774	760.681
160.862	25.662	946.656	760.090
161.877	25.392	945.952	758.320
162.892	25.413	945.220	757.755
163.906	25.418	944.576	757.191
164.921	25.468	943.778	756.695
165.935	25.490	941.989	755.285
166.950	25.438	941.599	754.688
167.964	25.451	940.814	754.046
168.979	25.489	939.556	753.133
169.994	25.393	938.185	751.565
171.008	25.080	937.596	749.715
172.023	25.459	937.098	750.835
173.037	25.527	935.961	750.141
174.052	25.362	934.850	748.497
175.067	25.207	934.088	747.177
176.081	25.040	933.398	745.863
177.096	25.336	931.968	745.883
178.110	25.119	931.701	744.703
179.125	25.026	930.567	743.344
180.140	24.731	929.717	741.376
181.154	24.803	928.711	740.808
182.169	24.924	928.494	741.071
183.183	25.079	928.245	741.447
184.198	25.464	928.064	742.828
185.213	25.389	926.813	741.453
186.227	25.255	926.539	740.614
187.242	25.418	926.201	740.953
188.256	25.531	924.716	740.162
189.271	25.394	924.488	739.349
190.286	25.679	923.680	739.811
191.300	25.337	922.888	737.708
192.315	24.750	921.551	734.163
193.329	23.970	919.471	729.246
194.344	23.636	918.722	727.218
195.359	24.441	918.505	730.279
196.373	25.157	919.354	733.819
197.388	25.340	919.016	734.232
198.402	25.293	918.474	733.544
199.417	25.307	918.006	733.162
200.432	25.338	917.610	732.907
201.446	25.217	916.557	731.508
202.461	24.972	915.469	729.579
203.475	24.901	915.537	729.279
204.490	24.429	914.265	726.278
205.504	23.527	911.838	720.625
206.519	23.690	911.738	721.144
207.534	24.885	911.689	725.891
208.548	24.969	911.474	725.995
209.563	25.304	911.294	727.147
210.577	25.349	910.523	726.646
211.592	25.222	909.511	725.261
212.607	25.545	909.127	726.197
213.621	25.518	908.909	725.849
214.636	25.349	908.264	724.589
215.650	25.464	907.804	724.620
216.665	25.504	907.101	724.156
217.680	25.496	906.800	723.821
218.694	25.711	906.076	724.045
219.709	25.235	905.359	721.492
220.723	24.929	904.712	719.682
221.738	25.041	904.056	719.546
222.753	25.313	903.317	719.989
223.767	25.184	902.727	718.937
224.782	25.409	901.722	718.973
225.796	25.567	901.744	719.560
226.811	25.585	901.057	719.020
227.826	25.143	899.819	716.204
228.840	24.407	897.998	711.757
229.855	24.417	897.664	711.466
230.869	24.639	897.353	712.041
231.884	24.202	896.689	709.711
232.899	24.323	895.846	709.465
233.913	25.021	896.240	712.488
234.928	25.418	895.735	713.602
235.942	25.202	895.088	712.165
236.957	25.209	894.337	711.533
237.972	24.841	893.414	709.278
238.986	24.714	892.708	708.153
240.001	25.004	892.045	708.711
241.015	24.885	891.692	707.896
242.030	24.958	891.106	707.659
243.045	25.038	890.988	707.818
244.059	25.250	890.093	707.880
245.074	25.429	889.762	708.261
246.088	25.452	888.994	707.678
247.103	25.053	888.195	705.409
248.117	25.102	887.613	705.076
249.132	25.587	887.383	706.739
250.147	25.971	887.208	708.042
251.161	26.122	886.794	708.244
252.176	26.148	886.605	708.130
253.190	26.227	885.754	707.697
254.205	26.244	885.168	707.233
255.220	26.401	884.643	707.366
256.234	26.211	884.422	706.385
257.249	26.135	883.814	705.539
258.263	25.968	883.191	704.325
259.278	26.134	882.407	704.286
260.293	26.115	882.129	703.930
261.307	26.168	881.770	703.785
262.322	26.151	880.639	702.757
263.336	25.941	880.102	701.446
264.351	25.554	878.610	698.693
265.366	24.430	876.562	692.643
266.380	24.067	875.663	690.462
267.395	25.044	876.167	694.589
268.409	25.704	876.347	697.227
269.424	25.861	875.476	697.081
270.439	25.811	875.392	696.760
271.453	26.131	874.183	696.972
272.468	26.006	873.806	696.127
273.482	26.065	873.642	696.162
274.497	26.180	873.364	696.321
275.512	26.061	871.985	694.704
276.526	25.544	870.631	691.573
277.541	25.644	870.608	691.878
278.555	26.036	870.238	693.032
279.570	26.006	869.056	691.914
280.585	25.532	868.940	689.939
281.599	25.830	868.478	690.655
282.614	25.823	867.970	690.164
283.628	25.487	866.879	687.951
284.643	25.147	865.753	685.696
285.657	25.466	865.894	686.965
286.672	25.431	865.349	686.340
287.687	24.992	863.734	683.321
288.701	25.257	864.134	684.591
289.716	25.749	863.818	686.157
290.730	25.362	863.030	683.996
291.745	25.191	862.318	682.718
292.760	24.881	861.320	680.688
293.774	24.912	860.886	680.405
294.789	25.804	861.647	684.335
295.803	26.448	861.577	686.664
296.818	26.471	860.790	686.065
297.833	26.863	860.044	686.895
298.847	26.451	858.789	684.274
299.862	25.922	858.670	682.118
300.876	26.315	857.994	683.004
301.891	26.484	857.854	683.471
302.906	26.566	857.231	683.225
303.920	26.154	856.122	680.727
304.935	26.089	855.451	679.886
305.949	26.438	855.164	680.912
306.964	26.619	854.847	681.281
307.979	26.215	853.855	678.912
308.993	26.152	853.737	678.522
310.008	26.531	853.544	679.734
311.022	26.692	852.964	679.813
312.037	26.644	852.210	678.974
313.052	26.179	851.903	676.927
314.066	26.173	850.826	675.988
315.081	25.486	849.363	672.196
316.095	24.791	848.108	668.548
317.110	25.334	848.041	670.464
318.125	26.043	848.705	673.579
319.139	25.748	847.447	671.422
320.154	24.574	845.764	665.656
321.168	24.203	844.908	663.543
322.183	24.926	844.901	666.169
323.197	25.723	845.750	669.747
324.212	26.019	845.217	670.364
325.227	26.192	844.718	670.551
326.241	26.375	844.112	670.691
327.256	26.198	843.751	669.687
328.270	26.132	842.909	668.717
329.285	25.939	842.487	667.606
330.300	25.865	841.901	666.810
331.314	25.676	840.788	665.171
332.329	25.739	840.423	665.058
333.343	26.216	840.039	666.454
334.358	26.357	840.150	667.002
335.373	26.392	839.258	666.367
336.387	26.478	838.539	666.051
337.402	26.687	838.413	666.662
338.416	26.869	837.610	666.632
339.431	26.852	837.613	666.514
340.446	26.920	836.998	666.214
341.460	27.055	836.442	666.211
342.475	27.009	836.098	665.709
343.489	26.696	835.369	663.924
344.504	26.840	834.794	663.933
345.519	27.062	834.346	664.330
346.533	27.320	833.719	664.714
347.548	27.278	833.637	664.438
348.562	27.305	833.548	664.406
349.577	27.173	832.412	662.961
350.592	27.031	832.016	662.069
351.606	27.242	831.307	662.214
352.621	27.251	830.743	661.741
353.635	26.975	830.832	660.748
354.650	27.007	829.630	659.851
355.665	26.821	828.720	658.391
356.679	25.712	827.104	653.028
357.694	25.518	826.750	651.989
358.708	26.228	826.822	654.561
359.723	26.149	826.281	653.789
360.738	26.201	825.883	653.604
361.752	26.698	825.663	655.169
362.767	26.895	825.526	655.718
363.781	27.096	825.458	656.330
364.796	27.518	824.958	657.398
365.810	27.378	825.071	656.923
366.825	27.605	824.447	657.186
367.840	27.593	823.763	656.540
368.854	27.384	823.644	655.636
369.869	26.955	822.597	653.200
370.883	26.803	821.692	651.877
371.898	26.970	821.516	652.280
372.913	26.740	820.773	650.808
373.927	26.830	820.096	650.535
374.942	27.005	819.610	650.720
375.956	27.136	818.951	650.609
376.971	27.263	818.575	650.708
377.986	27.129	818.196	649.870
379.000	27.548	817.793	650.989
380.015	27.560	817.081	650.408
381.029	27.408	816.528	649.368
382.044	27.128	816.224	648.068
383.059	27.525	815.382	648.757
384.073	27.593	815.097	648.716
385.088	27.513	814.533	647.924
386.102	27.516	813.811	647.303
387.117	27.335	812.911	645.888
388.132	27.366	812.369	645.509
389.146	27.102	811.727	644.006
390.161	26.452	810.966	641.045
391.175	26.537	810.768	641.129
392.190	27.196	810.693	643.349
393.205	27.010	810.348	642.359
394.219	26.193	808.570	638.008
395.234	24.632	806.031	630.445
396.248	23.787	805.353	626.881
397.263	24.804	806.069	630.969
398.278	26.727	807.717	638.993
399.292	27.252	807.387	640.525
400.307	26.925	806.483	638.601
401.321	26.893	806.213	638.216
402.336	26.769	805.866	637.451
403.350	26.952	805.929	638.087
404.365	27.601	805.597	640.048
405.380	27.865	805.330	640.705
406.394	28.207	805.178	641.728
407.409	28.305	805.081	641.935
408.423	28.379	804.195	641.432
409.438	28.005	804.208	640.077
410.453	28.065	803.529	639.688
411.467	28.238	803.016	639.828
412.482	28.293	802.441	639.506
413.496	28.157	801.701	638.385
414.511	28.322	801.728	638.925
415.526	28.309	801.007	638.250
416.540	28.360	800.490	637.961
417.555	28.110	800.219	636.815
418.569	27.960	799.391	635.580
419.584	27.845	799.120	634.907
420.599	27.868	798.530	634.461
421.613	110.603	1283.356	1454.695
422.628	95.381	1353.970	1454.788
