DTS Sentinel unit serial number:	SN413079Multiplexer serial number:	ORYXHardware model number:	OX4-SRSoftware version number:	ORYX F/W v4.00 Oryx Data Collector v3.7.2.0data status	okinstallation	princeton_trtdifferential loss correction	single-endedforward channel	channel 3reverse channel	N/Adate	2019/09/11time	23:54:11forward acquisition time	60.00reverse acquisition time	0.00gamma	496.2192k internal	0.2318k external	0.2318temperature offset calibration	1.0068default loss term (dB/km)	0.3790temperature slope calibration	1.0000multiplexer offset coefficient	1.0000multiplexer slope coefficient	1.0000fibre end	0.00T internal ref (°C)	33.83T ext. ref 1 (°C)	2.02T ext. ref 2 (°C)	28.01length (m)	temperature (°C)	Stokes	anti-Stokes-747.200	688.628	0.077	0.204
-746.185	-200.000	0.052	0.534
-745.171	-200.000	-0.008	0.131
-744.156	500.165	0.132	0.307
-743.142	-120.707	-0.326	0.056
-742.127	342.730	-0.114	0.225
-741.112	22.113	-0.062	-0.051
-740.098	-137.187	-0.202	-0.023
-739.083	22.935	0.223	-0.185
-738.069	50.203	-0.084	0.080
-737.054	800.000	0.089	-0.353
-736.039	66.496	-0.437	-0.450
-735.025	445.073	0.100	0.223
-734.010	-62.540	-0.261	-0.110
-732.996	-200.000	-0.007	-0.164
-731.981	-106.268	-0.130	0.030
-730.966	-89.271	-0.218	0.065
-729.952	141.503	-0.020	0.027
-728.937	-61.656	-0.201	0.085
-727.923	800.000	0.048	0.171
-726.908	-200.000	-0.020	-0.235
-725.894	322.197	-0.116	-0.223
-724.879	756.758	-0.083	-0.227
-723.864	-60.383	0.314	-0.135
-722.850	-18.969	-0.337	0.212
-721.835	113.083	0.123	-0.151
-720.821	800.000	-0.046	0.130
-719.806	205.858	-0.196	-0.308
-718.791	-158.238	-0.215	-0.013
-717.777	-54.006	-0.375	-0.173
-716.762	-11.512	-0.170	-0.113
-715.748	-34.825	0.149	0.082
-714.733	85.702	0.075	-0.084
-713.718	40.166	-0.235	0.213
-712.704	-87.875	-0.185	-0.056
-711.689	96.408	-0.244	-0.282
-710.675	86.393	-0.176	0.196
-709.660	-50.463	0.172	-0.082
-708.645	514.443	0.066	-0.156
-707.631	-200.000	-0.036	0.171
-706.616	-1.681	0.148	0.105
-705.602	800.000	0.029	0.109
-704.587	126.403	-0.199	-0.255
-703.572	800.000	0.044	-0.178
-702.558	654.533	-0.111	-0.288
-701.543	1.735	0.078	-0.057
-700.529	522.827	0.068	0.161
-699.514	-51.290	0.132	-0.062
-698.499	800.000	-0.132	-0.382
-697.485	-200.000	0.009	0.077
-696.470	-93.286	-0.063	-0.018
-695.456	362.555	-0.096	-0.194
-694.441	80.348	0.301	-0.328
-693.426	-43.304	-0.156	-0.080
-692.412	-130.320	0.140	0.019
-691.397	795.257	-0.044	0.122
-690.383	-200.000	0.090	0.539
-689.368	334.602	-0.023	-0.046
-688.354	-40.321	0.268	-0.141
-687.339	-122.029	0.227	0.038
-686.324	79.095	0.129	0.139
-685.310	-53.089	0.211	0.098
-684.295	-200.000	0.018	-0.086
-683.281	800.000	-0.112	0.396
-682.266	-200.000	0.003	0.222
-681.251	-61.091	0.140	0.060
-680.237	44.173	-0.214	0.198
-679.222	-200.000	0.026	-0.250
-678.208	64.195	0.136	0.138
-677.193	109.861	-0.119	-0.144
-676.178	-200.000	-0.027	-0.123
-675.164	50.570	0.347	0.331
-674.149	-200.000	0.145	-0.000
-673.135	-200.000	-0.006	-0.144
-672.120	143.071	-0.160	-0.215
-671.105	-200.000	-0.032	-0.336
-670.091	65.501	-0.030	0.031
-669.076	-88.127	-0.113	0.034
-668.062	568.918	0.090	-0.220
-667.047	-200.000	0.019	-0.173
-666.032	28.256	0.081	-0.069
-665.018	-200.000	-0.007	0.322
-664.003	30.182	0.140	-0.121
-662.989	-200.000	-0.040	0.324
-661.974	-149.952	0.080	-0.006
-660.959	-101.000	-0.262	-0.065
-659.945	461.210	0.066	0.149
-658.930	-200.000	0.024	-0.201
-657.916	-138.855	-0.082	-0.009
-656.901	566.121	0.028	0.067
-655.886	5.024	0.244	-0.181
-654.872	37.597	0.334	0.299
-653.857	-145.911	-0.238	-0.021
-652.843	191.359	0.107	0.163
-651.828	90.617	-0.155	0.175
-650.814	36.966	0.175	0.156
-649.799	404.853	-0.052	0.111
-648.784	-200.000	-0.052	-0.279
-647.770	138.559	0.190	-0.251
-646.755	-87.066	0.053	-0.016
-645.741	436.877	0.094	0.207
-644.726	-200.000	-0.002	-0.169
-643.711	48.435	-0.206	0.195
-642.697	-57.184	0.124	0.055
-641.682	-77.022	0.197	0.069
-640.668	563.791	-0.086	-0.211
-639.653	-115.182	0.388	-0.074
-638.638	-27.101	0.094	0.055
-637.624	-67.718	0.063	0.025
-636.609	-200.000	0.018	0.351
-635.595	-141.483	-0.270	-0.027
-634.580	-160.646	0.075	0.004
-633.565	-200.000	0.014	-0.076
-632.551	-200.000	-0.042	-0.334
-631.536	-200.000	0.047	0.458
-630.522	-200.000	0.024	0.346
-629.507	-200.000	0.003	-0.104
-628.492	97.244	-0.142	-0.164
-627.478	26.152	0.290	-0.244
-626.463	-12.026	0.490	0.323
-625.449	81.483	-0.131	-0.143
-624.434	-15.409	-0.307	-0.198
-623.419	62.275	0.072	-0.073
-622.405	-200.000	-0.040	-0.270
-621.390	-200.000	-0.007	0.081
-620.376	-25.102	-0.113	-0.068
-619.361	-106.201	-0.218	0.049
-618.346	-85.524	-0.354	0.111
-617.332	800.000	-0.062	-0.236
-616.317	-200.000	-0.007	0.042
-615.303	-43.572	0.255	-0.130
-614.288	-53.661	0.212	0.097
-613.273	-200.000	0.012	-0.201
-612.259	140.533	-0.133	-0.177
-611.244	7.494	0.120	-0.091
-610.230	-44.798	-0.376	-0.189
-609.215	181.772	0.122	-0.181
-608.201	-68.691	0.387	-0.151
-607.186	11.502	-0.070	-0.054
-606.171	20.230	0.160	-0.130
-605.157	86.536	-0.105	-0.117
-604.142	101.703	-0.176	-0.207
-603.128	34.598	-0.183	0.161
-602.113	350.999	-0.175	-0.348
-601.098	-200.000	-0.086	-0.476
-600.084	-200.000	-0.016	-0.073
-599.069	181.344	-0.051	-0.076
-598.055	-200.000	-0.011	0.182
-597.040	-200.000	-0.033	-0.209
-596.025	-47.621	0.078	0.038
-595.011	-44.570	0.109	0.055
-593.996	-200.000	0.008	-0.345
-592.982	5.146	0.257	0.191
-591.967	-200.000	-0.018	0.080
-590.952	-200.000	0.017	-0.197
-589.938	-200.000	0.016	-0.259
-588.923	-116.718	-0.203	-0.037
-587.909	314.006	0.101	-0.191
-586.894	44.793	-0.231	-0.213
-585.879	-200.000	0.069	-0.411
-584.865	77.868	-0.157	0.168
-583.850	-200.000	-0.000	-0.137
-582.836	-43.418	-0.384	-0.195
-581.821	800.000	-0.028	0.090
-580.806	-132.049	-0.156	-0.020
-579.792	-76.409	0.098	-0.035
-578.777	98.920	-0.213	0.247
-577.763	-92.490	0.397	-0.112
-576.748	-55.501	0.271	-0.122
-575.733	-131.045	0.118	-0.016
-574.719	195.271	0.148	-0.226
-573.704	-113.963	-0.257	-0.050
-572.690	-8.305	-0.291	-0.197
-571.675	-25.848	0.193	-0.115
-570.661	-200.000	-0.036	-0.202
-569.646	10.135	0.146	-0.112
-568.631	-101.438	0.151	-0.037
-567.617	-53.186	-0.144	-0.067
-566.602	-41.013	0.207	-0.107
-565.588	102.487	-0.071	-0.084
-564.573	1.610	-0.048	-0.034
-563.558	-59.778	0.036	-0.016
-562.544	289.308	-0.253	-0.461
-561.529	293.744	-0.053	-0.097
-560.515	-121.618	0.327	0.055
-559.500	-200.000	0.005	0.183
-558.485	-200.000	-0.034	0.180
-557.471	-41.105	-0.431	0.224
-556.456	183.330	0.207	0.307
-555.442	-56.590	0.176	0.078
-554.427	-200.000	-0.011	-0.235
-553.412	-81.847	-0.231	0.076
-552.398	-128.943	-0.128	-0.018
-551.383	-52.007	-0.129	-0.060
-550.369	-131.775	0.364	-0.048
-549.354	39.376	0.177	-0.159
-548.339	-200.000	-0.002	0.167
-547.325	800.000	-0.074	0.245
-546.310	-130.606	0.298	-0.040
-545.296	-55.919	-0.345	-0.154
-544.281	800.000	0.032	-0.095
-543.266	-77.866	-0.091	0.031
-542.252	-200.000	-0.048	0.234
-541.237	118.275	-0.153	-0.190
-540.223	-200.000	0.008	0.118
-539.208	87.092	-0.078	-0.086
-538.193	-79.652	0.392	-0.133
-537.179	-92.942	-0.342	-0.096
-536.164	335.058	-0.122	0.237
-535.150	138.458	0.090	0.119
-534.135	768.823	-0.057	-0.156
-533.121	800.000	0.078	0.241
-532.106	408.186	-0.051	0.108
-531.091	55.506	-0.074	0.072
-530.077	63.044	0.307	-0.308
-529.062	-91.932	-0.181	0.051
-528.048	-200.000	0.065	-0.334
-527.033	-131.283	-0.196	-0.026
-526.018	-28.167	-0.127	-0.074
-525.004	-200.000	-0.006	0.055
-523.989	191.317	-0.239	-0.361
-522.975	247.112	-0.068	-0.115
-521.960	149.675	-0.050	0.069
-520.945	-200.000	-0.009	-0.090
-519.931	-94.807	-0.111	0.030
-518.916	39.228	-0.166	-0.149
-517.902	-200.000	0.010	-0.127
-516.887	33.989	-0.102	0.089
-515.872	439.231	-0.162	0.355
-514.858	79.098	0.197	-0.212
-513.843	-139.599	0.306	0.033
-512.829	486.320	-0.199	0.456
-511.814	-96.923	-0.229	-0.060
-510.799	800.000	0.027	0.082
-509.785	800.000	-0.075	-0.233
-508.770	243.548	0.045	-0.076
-507.756	-152.197	0.134	-0.010
-506.741	574.266	-0.064	-0.157
-505.726	800.000	-0.023	0.069
-504.712	800.000	-0.072	-0.279
-503.697	800.000	0.079	-0.318
-502.683	52.097	-0.133	0.127
-501.668	-149.972	-0.323	0.025
-500.653	-137.233	0.289	0.033
-499.639	95.433	0.120	-0.137
-498.624	-96.469	0.301	-0.080
-497.610	-91.485	-0.240	0.069
-496.595	209.785	0.118	0.186
-495.581	129.248	-0.137	-0.175
-494.566	-133.620	0.108	-0.014
-493.551	27.350	-0.180	0.152
-492.537	-133.549	-0.176	-0.022
-491.522	-103.132	0.143	0.034
-490.508	-61.258	-0.107	0.045
-489.493	-136.501	0.189	0.022
-488.478	800.000	0.039	-0.122
-487.464	-133.659	0.367	0.046
-486.449	331.705	-0.075	-0.145
-485.435	-138.683	0.283	-0.031
-484.420	-78.874	-0.289	-0.099
-483.405	-102.505	-0.082	0.020
-482.391	323.589	0.134	0.255
-481.376	59.206	0.056	0.056
-480.362	153.323	0.119	0.164
-479.347	-104.899	0.233	0.054
-478.332	-33.704	-0.381	-0.211
-477.318	27.812	-0.176	-0.149
-476.303	-150.473	0.210	-0.016
-475.289	-50.437	0.081	0.038
-474.274	-200.000	0.024	0.228
-473.259	776.442	-0.105	-0.288
-472.245	-200.000	-0.008	-0.198
-471.230	-45.513	0.182	0.090
-470.216	226.388	0.105	-0.171
-469.201	-79.116	-0.192	-0.065
-468.186	-200.000	0.044	-0.243
-467.172	800.000	-0.066	-0.221
-466.157	-200.000	0.018	-0.120
-465.143	-200.000	0.026	0.280
-464.128	101.149	-0.074	0.087
-463.113	135.314	-0.158	0.206
-462.099	512.828	0.052	-0.122
-461.084	-38.951	-0.057	0.030
-460.070	-200.000	-0.009	0.417
-459.055	-56.091	0.187	0.083
-458.040	-193.783	-0.135	-0.001
-457.026	-200.000	0.022	0.145
-456.011	800.000	-0.086	0.264
-454.997	-127.573	0.173	-0.025
-453.982	-200.000	-0.003	0.103
-452.968	800.000	0.058	0.220
-451.953	316.564	-0.108	0.205
-450.938	-37.624	-0.265	0.142
-449.924	45.158	-0.130	0.120
-448.909	107.000	0.043	0.051
-447.895	60.683	-0.186	-0.184
-446.880	-200.000	-0.032	-0.205
-445.865	80.306	0.162	-0.175
-444.851	-70.530	-0.199	-0.075
-443.836	325.760	0.031	0.060
-442.822	800.000	0.066	0.185
-441.807	-84.814	-0.306	-0.096
-440.792	-15.674	0.395	-0.252
-439.778	-28.481	0.388	-0.224
-438.763	-35.109	-0.314	-0.171
-437.749	404.082	-0.048	0.102
-436.734	800.000	-0.030	0.085
-435.719	800.000	0.028	-0.094
-434.705	-125.215	-0.421	0.064
-433.690	68.583	-0.095	-0.097
-432.676	800.000	-0.099	-0.288
-431.661	6.200	0.218	0.161
-430.646	297.474	-0.118	0.217
-429.632	-32.447	0.192	0.107
-428.617	-200.000	-0.080	-0.377
-427.603	-113.105	-0.278	0.055
-426.588	-177.288	0.183	0.005
-425.573	-200.000	-0.006	-0.050
-424.559	800.000	0.075	-0.222
-423.544	354.261	0.174	-0.346
-422.530	9.804	-0.089	0.067
-421.515	800.000	-0.051	0.145
-420.500	-200.000	0.047	0.229
-419.486	357.924	0.112	0.224
-418.471	-200.000	0.018	0.238
-417.457	314.981	-0.077	0.144
-416.442	-150.146	-0.242	0.019
-415.428	422.806	-0.039	-0.083
-414.413	67.390	0.118	-0.120
-413.398	33.760	-0.108	0.094
-412.384	279.008	0.076	-0.136
-411.369	227.453	0.051	0.083
-410.355	800.000	-0.051	-0.222
-409.340	-97.305	0.144	0.038
-408.325	36.136	-0.065	-0.057
-407.311	-26.023	-0.186	0.109
-406.296	-43.102	0.147	0.074
-405.282	21.803	-0.279	-0.227
-404.267	-86.765	0.496	0.151
-403.252	-85.330	-0.014	-0.004
-402.238	-95.883	0.147	0.039
-401.223	-164.960	-0.159	-0.007
-400.209	-78.703	0.262	-0.089
-399.194	-61.272	-0.296	-0.125
-398.179	162.647	-0.160	0.224
-397.165	-91.167	0.255	-0.073
-396.150	562.606	-0.086	-0.208
-395.136	-76.458	0.090	0.032
-394.121	800.000	0.047	-0.157
-393.106	235.332	-0.081	-0.133
-392.092	283.526	0.082	0.147
-391.077	800.000	-0.030	-0.087
-390.063	-135.228	-0.034	0.004
-389.048	734.660	0.097	0.260
-388.033	170.491	-0.113	0.162
-387.019	-9.711	0.238	0.158
-386.004	800.000	-0.053	0.179
-384.990	800.000	-0.011	0.031
-383.975	176.996	-0.210	0.305
-382.960	79.734	0.114	-0.122
-381.946	269.105	0.078	-0.136
-380.931	250.745	-0.086	-0.145
-379.917	-153.775	-0.371	-0.025
-378.902	70.901	-0.099	-0.102
-377.888	800.000	0.011	0.042
-376.873	-110.680	-0.218	-0.045
-375.858	-129.924	0.270	-0.037
-374.844	-17.624	-0.235	0.147
-373.829	-164.182	-0.146	-0.007
-372.815	553.938	-0.042	-0.101
-371.800	624.427	-0.106	-0.267
-370.785	22.551	0.147	0.120
-369.771	-92.920	0.110	0.031
-368.756	155.723	0.158	0.217
-367.742	214.361	-0.048	0.076
-366.727	-50.588	0.087	-0.041
-365.712	-30.927	0.066	-0.037
-364.698	-200.000	-0.032	0.184
-363.683	-154.554	-0.184	-0.012
-362.669	-3.348	0.435	0.302
-361.654	800.000	0.067	0.260
-360.639	800.000	-0.148	0.461
-359.625	-35.944	0.231	0.124
-358.610	24.807	0.127	-0.105
-357.596	-11.281	0.244	-0.160
-356.581	-200.000	-0.026	0.152
-355.566	-55.444	-0.039	0.018
-354.552	39.572	0.086	0.076
-353.537	-168.937	0.082	0.003
-352.523	-200.000	-0.015	0.120
-351.508	-200.000	0.002	0.258
-350.493	800.000	-0.085	0.288
-349.479	36.924	0.165	-0.146
-348.464	-130.605	-0.243	0.033
-347.450	-62.629	-0.351	0.145
-346.435	-45.056	-0.067	0.033
-345.420	582.120	-0.034	0.084
-344.406	800.000	-0.085	0.296
-343.391	-12.066	-0.336	0.219
-342.377	-25.867	0.094	-0.055
-341.362	198.494	-0.102	0.155
-340.348	-83.448	-0.179	0.057
-339.333	-200.000	-0.038	0.293
-338.318	231.514	0.162	0.264
-337.304	800.000	-0.027	0.102
-336.289	253.915	-0.079	0.134
-335.275	-1.923	-0.323	-0.226
-334.260	21.330	0.032	-0.026
-333.245	800.000	-0.045	0.137
-332.231	-135.272	0.120	0.014
-331.216	800.000	-0.028	-0.101
-330.202	-129.915	0.227	0.031
-329.187	-200.000	0.001	-0.141
-328.172	-200.000	-0.037	0.175
-327.158	486.049	0.054	-0.123
-326.143	-67.808	0.152	0.059
-325.129	134.594	-0.082	0.107
-324.114	187.504	-0.137	0.203
-323.099	-25.402	-0.277	0.163
-322.085	-14.318	-0.390	-0.250
-321.070	393.159	-0.044	0.091
-320.056	-200.000	0.034	0.350
-319.041	409.281	-0.136	0.287
-318.026	-102.513	0.496	-0.118
-317.012	93.218	0.015	0.017
-315.997	550.856	-0.188	0.448
-314.983	208.665	-0.099	0.155
-313.968	-28.268	0.327	0.188
-312.953	-82.089	0.223	-0.072
-311.939	-38.464	0.315	0.166
-310.924	309.887	-0.162	0.301
-309.910	307.306	-0.093	-0.172
-308.895	-200.000	0.017	0.158
-307.880	-95.733	-0.165	0.044
-306.866	800.000	0.061	-0.195
-305.851	800.000	0.039	0.166
-304.837	-188.464	-0.089	-0.001
-303.822	178.020	0.046	0.067
-302.807	383.971	0.104	-0.212
-301.793	-35.849	0.186	0.100
-300.778	-39.769	-0.088	-0.046
-299.764	388.102	-0.068	0.140
-298.749	16.478	0.317	0.249
-297.735	-112.314	0.121	-0.024
-296.720	-96.810	0.229	-0.060
-295.705	424.249	-0.225	0.482
-294.691	800.000	0.074	-0.243
-293.676	50.822	-0.049	0.046
-292.662	-53.286	-0.200	-0.091
-291.647	654.533	-0.054	-0.137
-290.632	800.000	0.045	-0.139
-289.618	21.894	0.334	0.270
-288.603	136.264	0.124	0.161
-287.589	78.619	-0.040	0.042
-286.574	-200.000	-0.034	0.242
-285.559	522.177	-0.109	-0.255
-284.545	-200.000	0.019	-0.204
-283.530	-135.032	-0.250	0.030
-282.516	800.000	0.109	0.305
-281.501	-119.150	0.119	-0.021
-280.486	359.326	-0.045	0.090
-279.472	-200.000	-0.023	-0.231
-278.457	37.393	0.541	-0.477
-277.443	283.215	-0.070	0.125
-276.428	-120.977	0.200	-0.033
-275.413	-24.895	0.114	-0.067
-274.399	144.847	-0.116	-0.154
-273.384	47.594	0.303	0.280
-272.370	246.221	0.073	0.122
-271.355	-200.000	-0.003	-0.338
-270.340	-200.000	-0.021	0.203
-269.326	676.050	-0.022	0.056
-268.311	42.834	0.373	0.338
-267.297	-48.487	-0.148	0.071
-266.282	13.148	0.293	-0.225
-265.267	125.284	-0.083	-0.104
-264.253	36.181	-0.021	0.018
-263.238	-136.326	0.049	0.006
-262.224	0.215	0.084	0.060
-261.209	11.371	-0.193	-0.146
-260.195	-79.967	-0.145	0.048
-259.180	-49.818	-0.189	-0.089
-258.165	64.034	-0.207	0.207
-257.151	-64.142	0.405	0.164
-256.136	217.500	0.210	0.332
-255.122	-83.134	0.137	-0.044
-254.107	257.575	-0.181	0.310
-253.092	-40.564	0.150	-0.077
-252.078	274.020	-0.117	0.206
-251.063	-69.297	0.219	0.084
-250.049	61.261	0.058	-0.058
-249.034	51.347	-0.046	-0.043
-248.019	800.000	-0.057	-0.190
-247.005	536.485	0.039	0.092
-245.990	-147.472	0.165	-0.014
-244.976	-125.511	0.272	-0.041
-243.961	800.000	0.076	-0.312
-242.946	405.850	0.061	0.129
-241.932	-110.906	-0.047	0.010
-240.917	-45.513	-0.185	-0.091
-239.903	83.054	0.211	-0.228
-238.888	723.281	-0.114	-0.301
-237.873	-141.292	0.196	0.020
-236.859	35.921	0.157	0.137
-235.844	-88.102	-0.350	-0.104
-234.830	-80.997	0.173	-0.057
-233.815	-200.000	-0.002	0.047
-232.800	800.000	-0.043	-0.150
-231.786	-103.740	0.060	0.014
-230.771	-200.000	0.010	0.294
-229.757	551.174	-0.190	0.453
-228.742	-111.915	0.359	0.072
-227.727	420.779	-0.120	0.256
-226.713	-163.460	-0.257	-0.012
-225.698	584.276	-0.163	0.397
-224.684	323.412	-0.017	0.032
-223.669	-10.524	-0.207	-0.136
-222.655	58.774	-0.352	-0.343
-221.640	-11.664	-0.158	0.103
-220.625	800.000	-0.053	0.219
-219.611	222.925	0.114	-0.182
-218.596	-200.000	-0.002	0.232
-217.582	-200.000	-0.014	-0.201
-216.567	339.508	-0.071	0.138
-215.552	776.192	0.183	-0.495
-214.538	-46.505	0.280	-0.136
-213.523	-97.043	0.359	-0.093
-212.509	-50.286	0.218	-0.102
-211.494	-143.087	-0.193	-0.018
-210.479	-78.584	-0.068	-0.023
-209.465	-78.345	-0.428	-0.146
-208.450	-200.000	0.032	-0.223
-207.436	301.446	-0.130	0.238
-206.421	-168.311	0.412	0.016
-205.406	73.939	0.070	-0.073
-204.392	800.000	0.085	0.313
-203.377	800.000	0.044	0.128
-202.363	176.462	-0.151	0.218
-201.348	103.386	-0.187	-0.217
-200.333	338.012	-0.059	-0.114
-199.319	-93.468	0.237	0.065
-198.304	51.533	0.393	-0.370
-197.290	175.852	0.166	-0.238
-196.275	800.000	0.082	-0.354
-195.260	74.485	-0.152	0.158
-194.246	-101.609	-0.175	-0.042
-193.231	315.178	0.068	-0.128
-192.217	-200.000	-0.003	-0.230
-191.202	-200.000	-0.042	0.230
-190.187	-154.930	0.222	-0.014
-189.173	-25.208	-0.068	0.040
-188.158	65.598	-0.328	-0.329
-187.144	-147.518	-0.193	0.016
-186.129	10.986	0.243	0.184
-185.114	259.251	0.270	0.460
-184.100	249.728	0.052	0.087
-183.085	285.278	0.038	0.067
-182.071	4.989	0.252	-0.184
-181.056	-200.000	0.004	0.255
-180.042	-101.401	-0.402	-0.097
-179.027	-98.393	-0.032	0.008
-178.012	-54.119	-0.159	-0.072
-176.998	-130.599	0.124	0.017
-175.983	212.868	-0.035	0.055
-174.969	-200.000	0.012	0.076
-173.954	81.902	0.069	0.074
-172.939	-89.334	0.142	0.041
-171.925	28.739	0.062	-0.052
-170.910	30.310	-0.061	0.052
-169.896	556.669	0.060	-0.144
-168.881	307.064	-0.113	0.208
-167.866	461.811	0.070	-0.155
-166.852	-7.716	0.247	-0.165
-165.837	15.486	0.357	0.278
-164.823	46.366	-0.097	-0.089
-163.808	800.000	-0.067	-0.191
-162.793	423.338	0.154	-0.327
-161.779	-200.000	-0.025	0.205
-160.764	-63.768	-0.178	0.072
-159.750	-62.726	0.258	0.106
-158.735	585.479	0.043	-0.103
-157.720	75.025	-0.244	-0.254
-156.706	-76.740	-0.389	0.135
-155.691	183.653	-0.031	-0.045
-154.677	83.066	-0.248	0.267
-153.662	-151.065	-0.286	-0.021
-152.647	-7.092	-0.058	0.039
-151.633	39.289	-0.069	0.061
-150.618	-129.231	-0.085	-0.012
-149.604	-25.114	-0.269	0.158
-148.589	90.999	-0.200	0.222
-147.574	358.844	0.196	0.388
-146.560	459.686	0.057	0.125
-145.545	-16.354	0.231	0.145
-144.531	-200.000	0.039	0.355
-143.516	-43.859	-0.116	-0.058
-142.502	64.259	-0.214	-0.213
-141.487	6.524	-0.094	0.069
-140.472	-200.000	0.047	0.387
-139.458	-44.441	-0.334	-0.165
-138.443	110.911	0.147	-0.174
-137.429	-89.078	0.173	0.051
-136.414	-51.489	0.069	0.032
-135.399	-200.000	0.013	0.191
-134.385	800.000	-0.069	0.222
-133.370	-161.643	0.193	-0.010
-132.356	321.248	0.175	-0.330
-131.341	181.772	-0.130	0.189
-130.326	527.008	0.030	0.069
-129.312	227.134	-0.108	-0.174
-128.297	89.309	-0.153	-0.168
-127.283	-80.267	0.369	-0.122
-126.268	-200.000	-0.029	-0.266
-125.253	-112.014	-0.153	0.030
-124.239	-81.486	-0.224	0.073
-123.224	-112.162	0.121	0.024
-122.210	-67.011	-0.235	0.092
-121.195	800.000	-0.159	0.461
-120.180	548.475	-0.062	-0.147
-119.166	-200.000	-0.021	-0.228
-118.151	78.131	-0.227	-0.239
-117.137	16.042	0.217	0.169
-116.122	-138.046	0.138	-0.015
-115.107	-60.126	0.205	0.086
-114.093	128.774	-0.086	-0.108
-113.078	-119.849	0.239	0.041
-112.064	-44.025	-0.097	0.048
-111.049	88.318	0.040	-0.044
-110.034	409.757	0.137	-0.287
-109.020	-27.363	-0.370	-0.213
-108.005	-200.000	0.015	0.072
-106.991	40.477	0.150	-0.133
-105.976	-200.000	0.028	-0.221
-104.962	-136.760	-0.319	-0.036
-103.947	215.464	0.072	0.113
-102.932	-165.562	-0.313	-0.013
-101.918	-155.494	0.132	0.008
-100.903	-200.000	0.008	-0.043
-99.889	-90.152	0.278	0.080
-98.874	-25.773	-0.038	-0.022
-97.859	-74.676	-0.150	0.053
-96.845	-200.000	-0.219	-0.000
-95.830	-200.000	0.025	-0.262
-94.816	-93.520	-0.221	0.060
-93.801	278.876	-0.073	-0.129
-92.786	13.033	0.071	-0.055
-91.772	-85.581	0.252	0.077
-90.757	143.213	-0.150	-0.196
-89.743	140.638	0.119	-0.155
-88.728	800.000	0.065	0.187
-87.713	-93.138	0.321	-0.088
-86.699	45.476	0.092	0.084
-85.684	157.894	-0.048	-0.065
-84.670	333.820	0.099	0.188
-83.655	32.785	0.283	0.241
-82.640	8.289	0.135	-0.100
-81.626	-150.720	0.295	0.022
-80.611	148.948	0.080	-0.107
-79.597	800.000	-0.030	-0.104
-78.582	200.878	-0.104	0.157
-77.567	-200.000	-0.027	0.237
-76.553	-87.261	0.121	0.036
-75.538	-83.002	0.180	-0.057
-74.524	-200.000	0.031	0.232
-73.509	27.332	0.033	0.027
-72.494	-64.855	0.339	-0.135
-71.480	800.000	0.068	-0.216
-70.465	-70.406	0.143	-0.053
-69.451	-119.024	0.181	-0.031
-68.436	12.289	-0.079	-0.060
-67.422	-106.417	0.242	0.053
-66.407	-200.000	-0.039	-0.169
-65.392	6.218	0.130	-0.095
-64.378	-133.903	-0.163	0.020
-63.363	-172.109	0.352	-0.011
-62.349	97.745	-0.233	0.264
-61.334	14.531	-0.943	-0.726
-60.319	-65.062	0.566	0.225
-59.305	-200.000	-0.237	-1.032
-58.290	266.013	0.534	0.918
-57.276	559.321	0.637	1.516
-56.261	-200.000	96.635	584.281
-55.246	546.813	1388.169	3271.828
-54.232	155.774	2577.518	3498.832
-53.217	111.430	2170.144	2577.861
-52.203	43.996	1710.681	1544.448
-51.188	37.084	1523.939	1328.668
-50.173	34.582	1497.246	1288.480
-49.159	54.238	1547.106	1466.667
-48.144	56.234	1565.499	1497.735
-47.130	37.102	1523.341	1328.059
-46.115	34.020	1507.648	1293.403
-45.100	33.965	1504.224	1290.040
-44.086	33.914	1502.594	1288.246
-43.071	33.808	1500.619	1285.778
-42.057	33.721	1499.157	1283.888
-41.042	33.836	1497.470	1283.171
-40.027	33.822	1496.589	1282.268
-39.013	33.801	1494.909	1280.639
-37.998	33.879	1493.418	1279.838
-36.984	33.865	1492.503	1278.907
-35.969	33.824	1491.389	1277.624
-34.954	33.817	1489.524	1275.933
-33.940	33.738	1488.697	1274.639
-32.925	33.823	1486.875	1273.597
-31.911	33.870	1485.425	1272.622
-30.896	33.907	1484.163	1271.735
-29.881	33.887	1482.885	1270.461
-28.867	33.921	1481.551	1269.492
-27.852	33.937	1480.083	1268.294
-26.838	33.892	1478.864	1266.897
-25.823	33.899	1477.427	1265.664
-24.809	33.821	1475.673	1263.591
-23.794	33.824	1474.476	1262.536
-22.779	33.867	1472.935	1261.451
-21.765	33.775	1472.199	1260.158
-20.750	33.839	1470.715	1259.265
-19.736	33.927	1469.659	1258.892
-18.721	33.889	1468.730	1257.795
-17.706	33.822	1467.504	1256.249
-16.692	33.802	1467.047	1255.680
-15.677	33.769	1466.045	1254.555
-14.663	33.768	1465.158	1253.736
-13.648	33.722	1463.971	1252.371
-12.633	33.817	1463.026	1252.136
-11.619	33.823	1462.303	1251.506
-10.604	33.748	1461.334	1250.136
-9.590	33.811	1459.996	1249.356
-8.575	33.792	1459.729	1248.952
-7.560	33.822	1458.602	1248.138
-6.546	33.853	1457.679	1247.498
-5.531	33.838	1456.986	1246.761
-4.517	33.719	1456.035	1245.115
-3.502	33.710	1455.410	1244.475
-2.487	33.810	1454.145	1244.000
-1.473	33.803	1452.923	1242.855
-0.458	33.794	1451.789	1241.777
0.556	34.185	1442.358	1229.747
1.571	31.324	1417.479	1190.238
2.586	27.988	1359.009	1120.621
3.600	26.437	1278.582	1045.251
4.615	25.330	1231.008	1000.107
5.629	21.741	1174.406	934.930
6.644	11.678	1086.959	815.298
7.659	3.494	1043.740	743.490
8.673	2.205	1038.238	733.320
9.688	1.986	1035.182	730.050
10.702	1.900	1033.648	728.493
11.717	1.969	1032.058	727.637
12.731	5.696	1036.548	748.567
13.746	15.888	1050.467	807.678
14.761	23.493	1060.007	851.610
15.775	24.968	1061.746	860.018
16.790	25.150	1061.183	860.358
17.804	25.033	1060.184	858.911
18.819	24.910	1059.617	857.789
19.834	25.024	1058.522	857.371
20.848	25.141	1058.789	858.070
21.863	25.264	1057.729	857.724
22.877	25.199	1057.773	857.376
23.892	25.251	1056.831	856.784
24.907	24.999	1056.566	855.291
25.921	25.071	1055.583	854.760
26.936	25.131	1054.907	854.425
27.950	25.118	1053.885	853.461
28.965	25.130	1052.363	852.206
29.980	24.939	1051.029	850.147
30.994	24.988	1049.799	849.306
32.009	25.120	1049.021	849.227
33.023	25.278	1048.585	849.548
34.038	25.084	1047.378	847.578
35.053	24.991	1046.752	846.558
36.067	25.033	1046.121	846.169
37.082	24.996	1045.704	845.581
38.096	25.138	1044.830	845.473
39.111	25.264	1043.855	845.199
40.126	25.477	1042.831	845.297
41.140	25.214	1042.083	843.380
42.155	25.036	1040.325	841.050
43.169	24.883	1038.652	838.904
44.184	24.836	1037.943	838.036
45.199	24.842	1037.489	837.627
46.213	24.699	1036.287	835.913
47.228	24.763	1035.307	835.345
48.242	24.852	1034.953	835.405
49.257	24.891	1034.670	835.281
50.271	25.097	1033.331	835.089
51.286	25.086	1032.930	834.638
52.301	25.080	1032.372	834.086
53.315	25.149	1031.446	833.583
54.330	25.153	1030.294	832.598
55.344	25.156	1029.415	831.828
56.359	25.006	1029.607	831.215
57.374	25.205	1028.397	831.085
58.388	24.968	1027.357	829.075
59.403	25.032	1026.363	828.493
60.417	24.825	1026.250	827.374
61.432	24.735	1025.191	826.030
62.447	24.735	1024.530	825.427
63.461	24.915	1024.005	825.757
64.476	24.983	1023.300	825.431
65.490	24.909	1021.994	823.964
66.505	24.883	1021.407	823.300
67.520	24.827	1020.539	822.270
68.534	24.821	1019.839	821.605
69.549	24.704	1018.903	820.239
70.563	24.469	1017.939	818.316
71.578	24.159	1017.025	816.088
72.593	24.413	1016.599	816.835
73.607	24.214	1015.042	814.602
74.622	24.336	1014.253	814.454
75.636	24.583	1013.793	815.142
76.651	24.729	1013.202	815.259
77.666	24.619	1011.787	813.549
78.680	24.488	1011.234	812.435
79.695	24.480	1010.883	812.047
80.709	24.578	1010.224	811.888
81.724	24.739	1009.346	811.842
82.739	24.641	1008.128	810.346
83.753	24.739	1007.141	809.924
84.768	24.923	1007.019	810.590
85.782	25.289	1006.246	811.549
86.797	25.395	1005.591	811.427
87.812	25.456	1004.925	811.097
88.826	25.357	1003.744	809.627
89.841	25.384	1002.760	808.883
90.855	25.272	1002.346	807.972
91.870	25.337	1001.772	807.731
92.884	25.365	1000.788	806.990
93.899	25.186	999.775	805.297
94.914	25.065	999.038	804.090
95.928	25.344	998.134	804.540
96.943	25.263	997.494	803.591
97.957	25.104	996.008	801.614
98.972	24.770	995.082	799.306
99.987	24.597	993.816	797.445
101.001	24.734	993.217	797.504
102.016	25.073	992.656	798.493
103.030	25.065	992.228	798.042
104.045	24.892	991.277	796.439
105.060	24.918	989.754	795.260
106.074	24.643	988.874	793.260
107.089	24.782	987.709	792.874
108.103	25.082	987.537	793.994
109.118	25.141	986.634	793.462
110.133	24.825	985.547	791.120
111.147	24.779	984.744	790.202
112.162	24.775	983.372	789.014
113.176	24.542	982.318	787.070
114.191	24.570	981.909	786.795
115.206	24.643	981.175	786.460
116.220	24.485	979.840	784.627
117.235	24.402	978.806	783.364
118.249	24.558	978.433	783.681
119.264	24.600	977.608	783.134
120.279	24.384	976.877	781.534
121.293	24.503	976.270	781.497
122.308	24.466	975.899	780.971
123.322	24.481	974.450	779.811
124.337	24.349	974.009	778.812
125.352	24.337	972.505	777.485
126.366	23.924	971.019	774.434
127.381	23.749	968.847	771.871
128.395	24.285	969.473	774.632
129.410	24.887	969.164	776.929
130.424	24.947	967.993	776.180
131.439	25.004	967.491	775.957
132.454	25.030	966.357	775.091
133.468	25.159	965.124	774.591
134.483	25.003	964.931	773.693
135.497	25.062	964.188	773.283
136.512	25.258	963.631	773.613
137.527	25.388	962.635	773.304
138.541	25.272	962.300	772.471
139.556	25.291	961.554	771.882
140.570	25.338	960.376	771.071
141.585	25.309	959.484	770.162
142.600	25.392	959.218	770.240
143.614	25.383	957.981	769.136
144.629	25.240	958.027	768.493
145.643	25.582	957.029	769.088
146.658	25.422	955.628	767.211
147.673	25.284	954.670	765.788
148.687	25.243	953.565	764.655
149.702	25.107	952.892	763.469
150.716	25.026	951.390	761.856
151.731	24.854	951.000	760.744
152.746	25.154	949.911	761.078
153.760	25.438	949.210	761.656
154.775	25.397	948.617	760.938
155.789	25.405	948.450	760.770
156.804	25.351	947.301	759.552
157.819	25.278	946.063	758.186
158.833	25.394	945.481	758.141
159.848	25.582	944.081	757.744
160.862	25.601	943.661	757.419
161.877	25.472	942.721	756.054
162.892	25.453	941.557	754.974
163.906	25.521	940.778	754.569
164.921	25.510	939.899	753.751
165.935	25.309	939.138	752.233
166.950	25.436	937.764	751.597
167.964	25.360	937.246	750.797
168.979	25.412	936.243	750.143
169.994	25.380	934.706	748.713
171.008	25.319	933.829	747.689
172.023	25.309	933.267	747.131
173.037	25.551	932.583	747.526
174.052	25.496	931.562	746.413
175.067	25.021	930.885	743.832
176.081	25.042	929.799	742.986
177.096	25.280	928.939	743.219
178.110	25.068	928.328	741.784
179.125	25.073	927.062	740.730
180.140	24.941	925.876	739.170
181.154	24.624	925.916	737.828
182.169	24.798	925.526	738.172
183.183	25.183	924.685	739.021
184.198	25.359	924.648	739.651
185.213	25.486	923.985	739.578
186.227	25.293	922.920	737.867
187.242	25.338	922.761	737.858
188.256	25.377	921.696	737.103
189.271	25.471	921.107	736.953
190.286	25.527	920.470	736.606
191.300	25.415	919.300	735.149
192.315	24.751	917.884	731.236
193.329	24.101	916.392	727.328
194.344	23.711	915.373	724.863
195.359	24.259	915.929	727.479
196.373	25.060	916.172	730.875
197.388	25.351	915.884	731.765
198.402	25.282	914.997	730.712
199.417	25.097	914.933	729.841
200.432	25.270	914.349	730.014
201.446	25.212	913.493	729.031
202.461	24.810	912.510	726.552
203.475	24.909	912.181	726.628
204.490	24.498	910.681	723.702
205.504	23.468	908.548	717.776
206.519	23.818	908.537	719.118
207.534	24.684	909.100	723.005
208.548	24.851	908.067	722.794
209.563	25.260	908.409	724.655
210.577	25.229	907.290	723.572
211.592	25.023	906.625	722.149
212.607	25.443	906.448	723.637
213.621	25.550	906.073	723.701
214.636	25.523	904.989	722.665
215.650	25.544	904.647	722.411
216.665	25.426	904.145	721.474
217.680	25.495	903.588	721.242
218.694	25.574	903.095	721.100
219.709	25.249	902.221	719.037
220.723	24.967	900.863	716.763
221.738	25.167	900.525	717.231
222.753	25.255	900.492	717.495
223.767	25.297	899.526	716.830
224.782	25.259	899.111	716.281
225.796	25.283	898.563	715.877
226.811	25.463	898.078	716.145
227.826	25.216	896.726	714.021
228.840	24.324	895.235	709.224
229.855	24.371	894.345	708.644
230.869	24.539	894.233	709.160
231.884	24.369	893.312	707.692
232.899	24.281	892.781	706.859
233.913	24.967	893.112	709.780
234.928	25.271	892.810	710.680
235.942	25.061	891.946	709.098
236.957	25.157	891.025	708.685
237.972	24.857	890.271	706.835
238.986	24.889	889.175	706.031
240.001	24.995	888.915	706.178
241.015	24.868	888.234	705.076
242.030	24.944	887.890	705.037
243.045	25.142	887.524	705.467
244.059	25.132	887.132	705.052
245.074	25.374	886.241	705.232
246.088	25.377	885.608	704.675
247.103	25.053	884.383	702.370
248.117	24.937	884.328	701.810
249.132	25.624	884.181	704.322
250.147	25.801	884.200	704.967
251.161	26.039	883.668	705.412
252.176	26.190	882.897	705.324
253.190	26.187	882.627	705.034
254.205	26.181	881.880	704.351
255.220	26.311	881.449	704.453
256.234	26.342	880.947	704.110
257.249	26.151	880.160	702.675
258.263	26.170	879.428	702.102
259.278	26.134	879.085	701.624
260.293	26.203	878.784	701.592
261.307	26.104	877.864	700.412
262.322	26.176	877.213	700.108
263.336	26.072	876.469	699.050
264.351	25.601	874.958	695.962
265.366	24.376	873.122	689.708
266.380	24.073	872.254	687.791
267.395	24.894	872.768	691.306
268.409	25.720	872.960	694.586
269.424	25.681	871.838	693.481
270.439	25.824	871.570	693.757
271.453	25.957	870.920	693.689
272.468	25.872	870.477	692.950
273.482	26.137	869.981	693.509
274.497	26.257	869.861	693.816
275.512	26.182	868.154	692.105
276.526	25.414	867.463	688.551
277.541	25.629	867.423	689.280
278.555	26.021	866.994	690.379
279.570	25.768	866.323	688.818
280.585	25.607	865.252	687.288
281.599	25.875	864.964	688.024
282.614	25.859	864.744	687.725
283.628	25.361	863.177	684.523
284.643	25.000	862.787	682.776
285.657	25.648	862.159	684.687
286.672	25.383	861.695	683.250
287.687	24.907	860.484	680.419
288.701	25.208	860.818	681.768
289.716	25.710	860.124	683.064
290.730	25.409	859.000	680.969
291.745	25.211	858.880	680.063
292.760	24.997	857.830	678.362
293.774	24.831	857.166	677.149
294.789	25.946	857.696	681.726
295.803	26.533	857.761	683.935
296.818	26.426	857.358	683.148
297.833	26.652	856.859	683.546
298.847	26.150	856.230	681.089
299.862	25.882	854.815	678.892
300.876	26.210	854.329	679.683
301.891	26.483	854.268	680.600
302.906	26.491	853.391	679.872
303.920	26.229	852.494	678.112
304.935	25.980	851.949	676.687
305.949	26.488	851.472	678.152
306.964	26.450	851.339	677.844
307.979	26.302	850.573	676.621
308.993	26.148	850.102	675.609
310.008	26.519	849.733	676.642
311.022	26.636	849.520	676.849
312.037	26.575	848.859	676.035
313.052	26.319	848.116	674.430
314.066	26.263	847.208	673.440
315.081	25.457	845.691	669.175
316.095	24.615	844.659	665.166
317.110	25.329	844.769	667.852
318.125	26.188	845.083	671.233
319.139	25.704	844.144	668.631
320.154	24.603	842.189	662.942
321.168	24.162	841.156	660.435
322.183	24.808	841.674	663.179
323.197	25.648	842.136	666.596
324.212	26.044	841.629	667.601
325.227	26.136	841.472	667.760
326.241	26.316	841.110	668.078
327.256	26.217	840.288	666.999
328.270	25.968	839.646	665.511
329.285	25.895	838.991	664.664
330.300	25.846	838.178	663.783
331.314	25.726	837.340	662.618
332.329	25.629	836.948	661.892
333.343	26.179	836.528	663.525
334.358	26.428	836.303	664.202
335.373	26.298	835.798	663.265
336.387	26.482	835.322	663.501
337.402	26.774	834.422	663.799
338.416	26.860	834.697	664.272
339.431	26.736	833.836	663.074
340.446	26.687	833.351	662.453
341.460	27.118	832.887	663.600
342.475	27.016	832.282	662.688
343.489	26.862	831.327	661.306
344.504	26.746	831.011	660.574
345.519	26.952	830.913	661.188
346.533	27.152	830.567	661.580
347.548	27.287	830.021	661.580
348.562	27.317	829.353	661.096
349.577	27.325	828.794	660.624
350.592	27.017	828.609	659.297
351.606	27.100	828.148	659.176
352.621	27.209	827.041	658.631
353.635	27.071	826.837	657.908
354.650	26.775	826.632	656.616
355.665	26.516	825.517	654.736
356.679	25.592	823.650	649.860
357.694	25.537	822.989	649.081
358.708	26.144	823.294	651.456
359.723	26.214	822.512	651.031
360.738	26.404	822.263	651.462
361.752	26.751	822.456	652.808
362.767	26.799	822.343	652.834
363.781	27.026	822.068	653.372
364.796	27.534	821.638	654.799
365.810	27.448	821.305	654.170
366.825	27.483	821.150	654.113
367.840	27.608	820.672	654.120
368.854	27.388	819.791	652.573
369.869	27.058	818.951	650.666
370.883	26.832	818.351	649.321
371.898	26.935	817.779	649.179
372.913	26.716	817.396	648.035
373.927	26.931	816.285	647.863
374.942	26.976	816.203	647.902
375.956	27.049	815.604	647.630
376.971	27.259	814.816	647.697
377.986	27.335	814.824	647.916
379.000	27.412	814.244	647.668
380.015	27.485	813.813	647.528
381.029	27.183	813.434	646.098
382.044	27.405	812.277	645.910
383.059	27.523	811.867	645.946
384.073	27.523	811.418	645.528
385.088	27.333	811.320	644.722
386.102	27.477	810.652	644.645
387.117	27.414	809.786	643.675
388.132	27.336	809.296	642.954
389.146	26.998	808.499	641.068
390.161	26.396	807.645	638.213
391.175	26.434	807.483	638.161
392.190	27.016	807.577	640.232
393.205	27.218	807.106	640.512
394.219	26.092	804.939	634.779
395.234	24.548	802.512	627.389
396.248	23.738	801.671	623.835
397.263	24.741	802.370	627.844
398.278	26.772	803.881	636.107
399.292	27.067	803.753	636.985
400.307	26.728	803.034	635.172
401.321	26.754	802.757	634.986
402.336	26.799	802.328	634.749
403.350	27.151	802.383	635.969
404.365	27.550	802.317	637.254
405.380	27.738	802.176	637.741
406.394	28.125	801.699	638.659
407.409	28.178	801.597	638.705
408.423	28.132	801.173	638.151
409.438	28.180	800.320	637.584
410.453	28.314	799.878	637.641
411.467	28.163	799.860	637.044
412.482	28.085	799.268	636.246
413.496	28.237	798.513	636.115
414.511	28.189	798.481	635.868
415.526	28.104	797.824	634.994
416.540	28.217	797.646	635.187
417.555	28.118	796.983	634.260
418.569	27.782	796.082	632.324
419.584	27.746	795.541	631.710
420.599	27.987	794.892	631.976
421.613	110.080	1282.287	1450.901
422.628	94.812	1353.288	1451.011
