DTS Sentinel unit serial number:	SN413079Multiplexer serial number:	ORYXHardware model number:	OX4-SRSoftware version number:	ORYX F/W v4.00 Oryx Data Collector v3.7.2.0data status	okinstallation	princeton_trtdifferential loss correction	single-endedforward channel	channel 3reverse channel	N/Adate	2019/09/11time	02:42:11forward acquisition time	60.00reverse acquisition time	0.00gamma	496.2192k internal	0.2332k external	0.2332temperature offset calibration	0.9904default loss term (dB/km)	0.3790temperature slope calibration	1.0000multiplexer offset coefficient	1.0000multiplexer slope coefficient	1.0000fibre end	0.00T internal ref (°C)	29.27T ext. ref 1 (°C)	-0.31T ext. ref 2 (°C)	23.14length (m)	temperature (°C)	Stokes	anti-Stokes-747.200	532.116	-0.071	-0.170
-746.185	532.390	0.096	-0.229
-745.171	0.475	-0.103	-0.074
-744.156	-200.000	0.022	0.144
-743.142	207.148	0.046	0.072
-742.127	-200.000	0.026	-0.260
-741.112	-48.934	-0.119	-0.057
-740.098	800.000	-0.108	-0.383
-739.083	-126.789	-0.241	-0.036
-738.069	-76.931	0.208	-0.073
-737.054	-18.255	-0.166	0.105
-736.039	239.029	0.221	-0.370
-735.025	-109.064	-0.125	-0.027
-734.010	-37.409	-0.322	0.173
-732.996	79.977	0.147	-0.159
-731.981	800.000	-0.027	-0.082
-730.966	-105.771	0.078	0.018
-729.952	-39.102	-0.257	-0.136
-728.937	45.112	-0.175	-0.162
-727.923	40.556	0.344	-0.312
-726.908	-75.224	-0.185	-0.066
-725.894	-163.102	-0.196	0.010
-724.879	-90.728	0.353	-0.102
-723.864	25.910	0.346	-0.290
-722.850	-47.780	0.179	-0.087
-721.835	-124.977	-0.337	0.052
-720.821	-186.034	-0.282	0.004
-719.806	-200.000	-0.012	0.168
-718.791	800.000	0.028	-0.113
-717.777	-200.000	-0.004	0.107
-716.762	492.605	-0.036	-0.082
-715.748	406.292	-0.142	0.302
-714.733	251.034	-0.097	-0.165
-713.718	200.174	0.127	0.196
-712.704	-145.227	0.352	0.032
-711.689	-98.235	0.434	0.112
-710.675	-200.000	-0.080	0.412
-709.660	-78.875	-0.318	-0.109
-708.645	254.191	-0.233	-0.400
-707.631	-138.068	0.508	-0.057
-706.616	-200.000	-0.032	-0.167
-705.602	15.124	0.053	-0.042
-704.587	-104.049	0.139	-0.033
-703.572	6.198	0.242	-0.180
-702.558	338.412	0.071	-0.138
-701.543	433.254	-0.037	-0.080
-700.529	-50.501	-0.320	-0.152
-699.514	-32.585	-0.082	-0.046
-698.499	-58.256	-0.004	-0.002
-697.485	-85.675	0.412	-0.129
-696.470	-13.649	-0.289	-0.188
-695.456	153.998	-0.319	-0.440
-694.441	-200.000	-0.028	-0.261
-693.426	-75.841	0.317	0.113
-692.412	231.952	-0.076	0.125
-691.397	8.973	0.146	0.111
-690.383	-200.000	-0.045	-0.217
-689.368	680.740	-0.032	-0.085
-688.354	-74.225	0.168	-0.061
-687.339	31.238	0.028	-0.024
-686.324	-128.775	0.254	0.036
-685.310	2.764	-0.243	-0.177
-684.295	-200.000	0.054	0.359
-683.281	-114.143	-0.425	0.082
-682.266	-23.718	-0.267	-0.160
-681.251	322.622	-0.207	-0.395
-680.237	22.331	-0.224	0.183
-679.222	147.589	-0.218	0.295
-678.208	145.756	-0.087	0.117
-677.193	800.000	0.012	0.052
-676.178	0.912	-0.108	0.078
-675.164	-86.347	0.220	-0.068
-674.149	-133.525	-0.341	0.043
-673.135	-73.729	0.154	-0.056
-672.120	152.678	-0.071	0.097
-671.105	-200.000	0.010	-0.187
-670.091	391.032	0.072	0.150
-669.076	-137.552	0.264	0.030
-668.062	800.000	-0.035	0.136
-667.047	-200.000	-0.023	-0.176
-666.032	-16.622	0.075	0.048
-665.018	138.933	0.127	-0.167
-664.003	-200.000	-0.013	-0.350
-662.989	-14.086	-0.132	0.086
-661.974	281.948	-0.092	-0.166
-660.959	-47.716	0.120	0.058
-659.945	-121.572	-0.382	-0.064
-658.930	-39.683	0.406	-0.213
-657.916	800.000	-0.106	0.343
-656.901	-182.010	0.124	-0.002
-655.886	-165.398	0.162	0.007
-654.872	-60.072	0.137	0.059
-653.857	7.100	-0.115	0.086
-652.843	-200.000	-0.020	-0.117
-651.828	-200.000	0.001	0.129
-650.814	-67.750	-0.172	-0.067
-649.799	536.058	-0.073	-0.174
-648.784	-200.000	-0.017	-0.367
-647.770	-18.191	-0.049	0.031
-646.755	-131.894	0.150	0.020
-645.741	-118.121	-0.125	-0.022
-644.726	-126.548	-0.211	-0.031
-643.711	137.599	0.176	0.231
-642.697	800.000	0.018	0.053
-641.682	-188.696	-0.119	-0.001
-640.668	-174.222	-0.159	0.005
-639.653	-200.000	0.040	-0.284
-638.638	-200.000	-0.015	-0.102
-637.624	800.000	-0.115	-0.397
-636.609	-200.000	-0.009	-0.261
-635.595	72.968	0.179	-0.187
-634.580	-30.625	0.080	-0.045
-633.565	800.000	-0.064	-0.200
-632.551	-113.650	-0.217	-0.042
-631.536	-116.254	0.102	0.019
-630.522	-64.058	-0.196	0.080
-629.507	-81.567	0.120	-0.040
-628.492	-200.000	0.019	0.099
-627.478	-34.009	0.177	0.097
-626.463	59.198	-0.133	0.131
-625.449	800.000	0.118	-0.504
-624.434	75.844	-0.143	0.151
-623.419	42.698	0.133	-0.121
-622.405	-132.236	-0.093	0.012
-621.390	-200.000	-0.013	-0.318
-620.376	-200.000	0.005	-0.136
-619.361	-37.562	0.135	0.072
-618.346	21.398	0.044	0.036
-617.332	-67.422	-0.256	-0.101
-616.317	162.492	0.118	-0.166
-615.303	2.687	-0.274	0.199
-614.288	-200.000	0.075	0.393
-613.273	-1.354	-0.053	-0.037
-612.259	36.410	-0.214	-0.189
-611.244	-108.749	0.247	-0.053
-610.230	800.000	0.045	-0.196
-609.215	142.098	-0.069	-0.092
-608.201	-4.744	-0.173	-0.120
-607.186	-53.020	-0.358	-0.165
-606.171	800.000	-0.073	0.210
-605.157	58.092	-0.213	0.209
-604.142	31.386	-0.156	0.134
-603.128	800.000	-0.070	-0.217
-602.113	800.000	0.014	-0.042
-601.098	-57.748	-0.241	0.106
-600.084	800.000	0.035	-0.127
-599.069	48.367	-0.221	-0.207
-598.055	-132.852	-0.116	-0.015
-597.040	-19.567	-0.242	0.150
-596.025	800.000	0.032	-0.089
-595.011	153.198	0.178	0.243
-593.996	-70.708	-0.114	0.043
-592.982	800.000	-0.056	-0.219
-591.967	-200.000	0.075	0.441
-590.952	-200.000	0.051	0.293
-589.938	-200.000	-0.012	0.094
-588.923	-200.000	-0.025	-0.200
-587.909	-33.857	0.079	0.043
-586.894	-94.731	0.102	-0.028
-585.879	-47.898	-0.267	0.129
-584.865	139.580	-0.158	0.208
-583.850	120.199	0.159	-0.197
-582.836	60.921	0.045	0.045
-581.821	-113.127	-0.151	-0.030
-580.806	72.188	0.084	-0.087
-579.792	-116.602	-0.281	0.052
-578.777	-116.224	-0.259	-0.048
-577.763	800.000	0.036	0.111
-576.748	-139.998	-0.301	-0.032
-575.733	58.930	0.220	-0.217
-574.719	-49.557	-0.127	0.061
-573.704	-156.545	-0.198	-0.012
-572.690	453.726	-0.042	0.093
-571.675	800.000	-0.042	-0.119
-570.661	-9.578	-0.413	-0.275
-569.646	45.844	-0.087	0.081
-568.631	-200.000	-0.070	-0.377
-567.617	-34.437	-0.166	0.091
-566.602	154.239	0.081	0.112
-565.588	-170.834	-0.360	0.012
-564.573	185.875	-0.075	0.112
-563.558	40.173	-0.220	-0.198
-562.544	516.973	-0.121	-0.282
-561.529	-41.236	-0.186	-0.096
-560.515	4.156	-0.079	0.057
-559.500	-138.590	-0.099	0.011
-558.485	800.000	0.029	0.095
-557.471	215.764	0.141	0.224
-556.456	-54.149	0.221	0.101
-555.442	324.611	0.156	-0.298
-554.427	318.109	-0.199	0.376
-553.412	-200.000	0.061	0.401
-552.398	-84.468	-0.193	0.061
-551.383	-200.000	0.008	-0.081
-550.369	295.711	-0.033	0.060
-549.354	-29.111	0.229	0.131
-548.339	310.502	0.198	0.370
-547.325	46.796	-0.239	0.222
-546.310	-200.000	-0.012	0.273
-545.296	-23.155	-0.178	-0.107
-544.281	68.147	-0.090	-0.092
-543.266	795.100	-0.040	-0.109
-542.252	-200.000	-0.003	-0.299
-541.237	800.000	0.099	-0.316
-540.223	-77.505	-0.069	0.024
-539.208	-200.000	0.039	-0.187
-538.193	-200.000	0.075	0.386
-537.179	95.632	0.131	0.150
-536.164	800.000	-0.063	-0.199
-535.150	-72.547	0.215	-0.079
-534.135	-200.000	0.040	0.188
-533.121	121.512	0.151	-0.188
-532.106	-41.535	-0.072	0.037
-531.091	-200.000	0.042	-0.224
-530.077	800.000	-0.078	-0.295
-529.062	-109.434	0.262	0.055
-528.048	-174.827	-0.354	0.010
-527.033	-143.603	-0.122	-0.012
-526.018	327.926	0.116	0.223
-525.004	322.122	-0.046	0.087
-523.989	-109.919	-0.153	-0.032
-522.975	320.516	0.184	-0.349
-521.960	-174.667	0.158	0.004
-520.945	-190.698	0.082	-0.001
-519.931	-200.000	0.045	0.245
-518.916	-200.000	0.026	0.215
-517.902	-161.612	0.107	-0.005
-516.887	7.812	0.136	0.102
-515.872	220.560	0.140	-0.224
-514.858	360.169	-0.091	-0.182
-513.843	-169.100	0.087	-0.003
-512.829	-146.330	0.104	0.009
-511.814	-119.737	0.270	-0.046
-510.799	800.000	0.074	-0.227
-509.785	-52.050	0.126	-0.058
-508.770	-119.376	0.099	0.017
-507.756	-200.000	0.005	-0.109
-506.741	-61.515	0.182	0.076
-505.726	101.768	-0.061	-0.070
-504.712	-200.000	0.025	-0.159
-503.697	253.799	0.042	-0.071
-502.683	-131.200	0.265	-0.035
-501.668	20.610	-0.193	0.155
-500.653	117.061	-0.064	-0.078
-499.639	800.000	-0.049	-0.216
-498.624	-26.053	0.371	-0.218
-497.610	303.638	0.136	-0.251
-496.595	-200.000	0.010	-0.325
-495.581	-102.960	-0.318	-0.075
-494.566	-19.223	0.174	0.108
-493.551	-68.811	0.364	0.140
-492.537	563.177	-0.091	0.219
-491.522	-8.528	-0.159	0.107
-490.508	-160.813	0.157	-0.008
-489.493	441.606	0.034	0.074
-488.478	-137.050	0.212	0.024
-487.464	-192.165	0.391	0.004
-486.449	372.676	-0.144	-0.292
-485.435	219.861	-0.244	-0.390
-484.420	516.890	0.104	-0.242
-483.405	-125.229	-0.088	0.013
-482.391	-68.842	0.131	0.050
-481.376	93.935	-0.181	-0.204
-480.362	-200.000	0.331	0.000
-479.347	800.000	-0.125	-0.347
-478.332	-200.000	0.007	-0.153
-477.318	328.006	0.062	0.118
-476.303	17.597	-0.182	0.144
-475.289	315.469	0.119	-0.224
-474.274	-96.158	-0.352	0.093
-473.259	410.324	0.065	-0.138
-472.245	48.766	0.075	-0.070
-471.230	800.000	0.049	-0.195
-470.216	-200.000	-0.002	-0.088
-469.201	742.610	0.032	-0.086
-468.186	-38.749	-0.298	-0.157
-467.172	-200.000	0.042	0.253
-466.157	35.994	0.268	0.235
-465.143	-162.588	-0.084	-0.004
-464.128	-200.000	0.012	0.113
-463.113	-200.000	0.024	0.205
-462.099	130.520	0.051	0.065
-461.084	124.641	-0.160	0.200
-460.070	-70.113	-0.152	-0.058
-459.055	435.251	0.049	-0.105
-458.040	-200.000	-0.012	0.155
-457.026	-8.770	0.103	0.069
-456.011	638.132	0.051	0.128
-454.997	58.187	0.222	0.216
-453.982	-200.000	0.001	0.126
-452.968	-21.482	-0.254	0.154
-451.953	362.234	-0.122	0.243
-450.938	-95.848	-0.335	-0.089
-449.924	800.000	-0.072	-0.207
-448.909	178.639	-0.077	0.113
-447.895	-62.466	-0.387	0.160
-446.880	-112.342	-0.138	-0.028
-445.865	-61.314	-0.116	0.049
-444.851	-200.000	-0.009	-0.184
-443.836	-5.769	0.034	0.023
-442.822	531.116	-0.097	-0.229
-441.807	800.000	-0.047	0.171
-440.792	-200.000	-0.059	0.405
-439.778	-111.902	0.196	-0.039
-438.763	64.160	0.157	0.157
-437.749	-134.445	0.143	0.017
-436.734	800.000	-0.048	0.140
-435.719	-162.877	0.389	-0.019
-434.705	38.773	-0.007	-0.007
-433.690	120.875	0.100	-0.124
-432.676	-174.726	0.369	0.010
-431.661	-200.000	0.025	-0.193
-430.646	800.000	0.110	-0.377
-429.632	174.240	0.192	0.276
-428.617	-200.000	0.004	-0.022
-427.603	119.119	-0.123	0.152
-426.588	-200.000	-0.005	0.214
-425.573	35.854	-0.105	-0.091
-424.559	99.582	-0.179	-0.206
-423.544	-93.167	0.042	-0.012
-422.530	142.081	-0.042	0.056
-421.515	-200.000	0.009	-0.094
-420.500	-158.780	0.396	-0.023
-419.486	-21.760	0.270	0.163
-418.471	266.634	0.099	0.172
-417.457	-109.242	-0.207	-0.044
-416.442	-200.000	0.210	0.000
-415.428	-200.000	0.018	0.142
-414.413	-46.025	-0.216	0.106
-413.398	259.214	-0.060	0.103
-412.384	293.350	0.061	0.110
-411.369	218.855	-0.124	-0.196
-410.355	170.428	0.086	0.122
-409.340	-200.000	0.020	0.211
-408.325	132.222	-0.089	-0.114
-407.311	-37.661	0.111	-0.059
-406.296	-73.907	0.256	0.092
-405.282	-200.000	-0.054	0.244
-404.267	-159.834	0.098	-0.005
-403.252	-20.798	-0.274	-0.167
-402.238	-12.842	-0.269	-0.174
-401.223	232.220	-0.008	-0.013
-400.209	-200.000	-0.044	0.207
-399.194	-200.000	0.063	0.290
-398.179	95.873	-0.117	-0.133
-397.165	-131.850	0.114	-0.015
-396.150	-200.000	-0.005	0.257
-395.136	-54.501	0.312	-0.140
-394.121	-80.873	-0.095	-0.031
-393.106	3.198	0.181	-0.130
-392.092	-140.927	-0.323	0.033
-391.077	48.427	-0.358	0.333
-390.063	800.000	-0.169	0.485
-389.048	-200.000	0.058	0.280
-388.033	800.000	0.016	-0.053
-387.019	240.975	-0.149	-0.246
-386.004	-15.258	-0.366	-0.232
-384.990	-122.642	-0.071	0.011
-383.975	-44.733	-0.330	-0.164
-382.960	39.217	0.155	0.137
-381.946	81.944	0.144	-0.154
-380.931	282.143	0.149	0.265
-379.917	-200.000	0.033	0.167
-378.902	-149.771	0.141	-0.011
-377.888	168.155	-0.147	-0.208
-376.873	105.357	0.285	-0.334
-375.858	-63.774	0.074	0.030
-374.844	-200.000	0.004	0.249
-373.829	-200.000	-0.020	0.275
-372.815	81.477	-0.208	-0.223
-371.800	-200.000	0.030	0.216
-370.785	-38.250	-0.087	-0.046
-369.771	-200.000	0.011	0.136
-368.756	83.349	-0.045	0.049
-367.742	200.280	0.190	-0.289
-366.727	28.633	-0.145	-0.122
-365.712	800.000	-0.058	-0.235
-364.698	-200.000	0.059	0.289
-363.683	44.130	-0.122	-0.111
-362.669	193.862	0.178	0.267
-361.654	-152.479	-0.315	0.022
-360.639	-112.960	-0.072	-0.014
-359.625	46.715	0.016	-0.015
-358.610	-71.682	0.211	-0.078
-357.596	271.556	0.015	0.026
-356.581	-165.274	-0.062	0.003
-355.566	-200.000	-0.033	0.154
-354.552	800.000	-0.042	0.121
-353.537	-167.554	-0.248	0.010
-352.523	267.242	0.046	-0.080
-351.508	39.856	-0.148	-0.132
-350.493	263.002	0.213	-0.366
-349.479	-184.091	0.250	-0.004
-348.464	137.693	0.130	-0.169
-347.450	-76.556	0.299	0.104
-346.435	-41.754	-0.335	-0.170
-345.420	800.000	-0.078	0.299
-344.406	-44.252	-0.272	0.135
-343.391	484.900	-0.046	-0.103
-342.377	573.490	-0.042	0.102
-341.362	367.693	-0.058	0.117
-340.348	-200.000	-0.049	0.362
-339.333	223.206	0.186	0.298
-338.318	-200.000	-0.040	-0.409
-337.304	-200.000	0.007	-0.104
-336.289	162.911	0.223	0.310
-335.275	-122.322	0.073	0.012
-334.260	15.487	-0.099	0.077
-333.245	-98.569	-0.323	0.082
-332.231	-101.731	0.302	0.072
-331.216	590.186	0.069	-0.168
-330.202	4.084	0.111	-0.080
-329.187	-50.356	0.445	-0.208
-328.172	-127.931	0.207	-0.029
-327.158	800.000	-0.046	0.168
-326.143	93.230	0.070	-0.079
-325.129	-142.440	-0.044	-0.004
-324.114	-147.677	-0.187	-0.016
-323.099	180.510	0.190	-0.277
-322.085	-200.000	-0.014	-0.105
-321.070	194.964	0.195	-0.292
-320.056	800.000	-0.057	-0.156
-319.041	90.639	0.182	-0.202
-318.026	-30.257	-0.409	0.230
-317.012	-42.078	-0.097	-0.049
-315.997	-200.000	-0.061	0.297
-314.983	613.176	-0.076	0.188
-313.968	-36.920	0.340	0.180
-312.953	-26.900	-0.323	-0.187
-311.939	-141.043	-0.189	0.019
-310.924	-200.000	0.005	0.058
-309.910	-67.035	-0.104	-0.041
-308.895	-14.174	-0.021	0.014
-307.880	766.808	-0.050	0.133
-306.866	-135.868	0.198	-0.023
-305.851	215.753	-0.093	0.145
-304.837	800.000	0.102	0.367
-303.822	-121.865	0.111	-0.018
-302.807	-200.000	-0.016	-0.080
-301.793	-116.014	-0.248	0.046
-300.778	28.884	-0.095	-0.079
-299.764	110.749	0.288	0.343
-298.749	800.000	-0.126	-0.346
-297.735	-89.922	-0.108	-0.031
-296.720	260.897	-0.024	-0.041
-295.705	800.000	-0.052	-0.214
-294.691	800.000	-0.081	-0.257
-293.676	-51.661	0.080	0.037
-292.662	214.600	0.143	0.224
-291.647	114.863	0.049	-0.060
-290.632	-200.000	-0.099	-0.492
-289.618	-78.576	0.126	0.043
-288.603	-200.000	-0.014	-0.100
-287.589	-88.965	-0.339	-0.099
-286.574	247.796	0.099	-0.165
-285.559	-200.000	-0.096	0.445
-284.545	-200.000	-0.070	0.327
-283.530	800.000	0.084	-0.338
-282.516	-143.289	0.058	0.006
-281.501	-153.494	0.351	-0.024
-280.486	75.367	0.072	0.075
-279.472	23.768	-0.053	0.043
-278.457	-200.000	0.003	-0.109
-277.443	-200.000	-0.022	0.415
-276.428	-200.000	0.011	0.337
-275.413	-57.856	-0.185	-0.080
-274.399	-15.743	0.120	0.076
-273.384	-134.132	-0.271	-0.033
-272.370	-200.000	-0.045	-0.352
-271.355	-175.870	0.108	0.003
-270.340	800.000	0.066	0.226
-269.326	22.645	-0.073	0.059
-268.311	-121.973	0.526	0.085
-267.297	-120.938	0.283	0.047
-266.282	-94.752	0.179	-0.048
-265.267	92.898	-0.190	-0.212
-264.253	197.163	-0.121	-0.182
-263.238	78.275	-0.329	-0.347
-262.224	28.791	0.302	0.253
-261.209	-39.291	-0.545	0.283
-260.195	-141.443	0.384	-0.038
-259.180	64.949	0.250	0.250
-258.165	-200.000	-0.020	-0.162
-257.151	3.552	0.218	0.157
-256.136	674.956	-0.076	0.194
-255.122	-200.000	0.009	0.284
-254.107	471.539	-0.022	0.050
-253.092	-80.362	0.406	-0.134
-252.078	295.613	0.135	0.244
-251.063	-136.877	0.090	-0.010
-250.049	-200.000	-0.023	-0.108
-249.034	37.396	0.050	-0.044
-248.019	-200.000	-0.003	-0.093
-247.005	12.393	-0.426	0.324
-245.990	82.320	0.133	-0.142
-244.976	-41.204	-0.145	0.074
-243.961	-27.784	0.110	-0.063
-242.946	641.356	-0.022	0.057
-241.932	-200.000	0.013	0.159
-240.917	800.000	0.063	-0.185
-239.903	299.652	-0.158	0.286
-238.888	179.014	-0.243	0.351
-237.873	290.757	0.019	0.033
-236.859	-123.754	-0.124	-0.019
-235.844	491.907	-0.105	-0.238
-234.830	331.257	0.025	-0.048
-233.815	-123.665	-0.476	0.074
-232.800	30.496	-0.286	0.241
-231.786	69.493	0.428	0.435
-230.771	-44.978	0.269	-0.132
-229.757	-99.285	-0.275	-0.068
-228.742	800.000	0.064	-0.211
-227.727	118.383	-0.254	-0.309
-226.713	-200.000	0.042	-0.200
-225.698	21.066	-0.098	-0.079
-224.684	-107.996	-0.114	0.024
-223.669	456.928	0.131	0.287
-222.655	658.350	0.108	-0.275
-221.640	42.707	0.195	0.175
-220.625	800.000	-0.046	0.162
-219.611	84.753	-0.288	0.311
-218.596	-63.621	0.181	0.073
-217.582	-200.000	0.051	0.306
-216.567	247.417	0.110	0.183
-215.552	-41.342	-0.123	0.062
-214.538	-38.015	0.271	-0.142
-213.523	385.459	-0.042	0.085
-212.509	-200.000	0.029	0.168
-211.494	32.465	0.042	-0.035
-210.479	-3.498	-0.283	0.194
-209.465	103.784	0.053	-0.061
-208.450	-200.000	0.053	-0.244
-207.436	285.470	0.158	-0.281
-206.421	26.574	-0.170	-0.141
-205.406	-38.054	0.291	-0.152
-204.392	-97.944	-0.078	-0.020
-203.377	-200.000	0.085	0.372
-202.363	-200.000	0.014	0.221
-201.348	-38.897	0.355	0.184
-200.333	279.050	0.152	-0.267
-199.319	-200.000	-0.006	-0.087
-198.304	-175.994	-0.141	-0.004
-197.290	-156.184	-0.239	0.015
-196.275	800.000	0.056	-0.161
-195.260	407.557	-0.073	-0.151
-194.246	113.001	-0.168	-0.200
-193.231	195.450	0.072	0.108
-192.217	-145.068	-0.354	0.032
-191.202	-200.000	0.011	-0.127
-190.187	91.526	0.169	-0.187
-189.173	-168.808	-0.236	0.009
-188.158	-200.000	0.006	0.099
-187.144	298.179	0.091	-0.164
-186.129	-173.496	0.489	-0.015
-185.114	271.281	0.081	-0.140
-184.100	163.631	-0.076	0.106
-183.085	-18.457	0.339	-0.208
-182.071	116.458	-0.077	0.093
-181.056	800.000	0.052	0.152
-180.042	-66.749	-0.157	-0.061
-179.027	-32.037	0.427	0.235
-178.012	-159.681	-0.148	0.008
-176.998	-14.906	0.326	-0.206
-175.983	-200.000	-0.015	-0.466
-174.969	800.000	0.046	0.131
-173.954	-7.770	0.076	0.051
-172.939	156.936	-0.246	0.335
-171.925	-200.000	-0.003	0.016
-170.910	-88.455	-0.183	0.054
-169.896	-200.000	0.018	0.096
-168.881	126.588	-0.135	0.168
-167.866	-57.421	0.115	-0.050
-166.852	-102.846	0.074	-0.017
-165.837	-50.304	0.326	0.152
-164.823	-89.289	0.178	0.052
-163.808	788.000	-0.102	-0.277
-162.793	-66.272	0.162	0.063
-161.779	-3.654	0.170	-0.116
-160.764	-181.551	0.239	-0.005
-159.750	-70.815	0.078	-0.029
-158.735	34.400	-0.133	0.114
-157.720	-51.736	0.233	-0.107
-156.706	4.426	0.158	0.114
-155.691	-200.000	0.021	-0.311
-154.677	0.258	0.153	0.108
-153.662	-107.495	0.073	-0.016
-152.647	-164.931	0.185	-0.008
-151.633	800.000	0.060	-0.187
-150.618	-105.992	-0.030	0.007
-149.604	454.071	-0.107	0.233
-148.589	-200.000	-0.018	0.373
-147.574	-200.000	-0.018	0.139
-146.560	485.567	-0.046	-0.104
-145.545	-8.895	0.277	0.182
-144.531	-200.000	-0.017	-0.239
-143.516	21.705	0.126	-0.101
-142.502	800.000	-0.097	0.282
-141.487	-200.000	-0.041	0.247
-140.472	29.893	-0.182	0.152
-139.458	-126.729	-0.212	-0.031
-138.443	97.639	-0.190	-0.214
-137.429	800.000	0.127	0.415
-136.414	31.156	0.068	-0.057
-135.399	-172.650	0.082	0.003
-134.385	145.449	0.161	-0.212
-133.370	-17.438	-0.248	0.153
-132.356	646.801	-0.042	-0.105
-131.341	-24.130	0.131	0.077
-130.326	3.323	-0.117	0.084
-129.312	119.055	0.198	0.241
-128.297	-19.381	0.122	0.074
-127.283	178.342	0.147	-0.211
-126.268	-45.520	-0.237	0.115
-125.253	-166.055	-0.439	-0.018
-124.239	539.704	0.127	0.297
-123.224	-200.000	-0.015	-0.067
-122.210	737.412	-0.038	-0.101
-121.195	-67.002	0.300	0.116
-120.180	-200.000	-0.019	0.504
-119.166	109.668	-0.248	0.292
-118.151	84.496	0.324	-0.348
-117.137	800.000	-0.100	-0.310
-116.122	-200.000	0.006	-0.103
-115.107	228.070	0.119	0.190
-114.093	-100.355	0.051	0.012
-113.078	-140.826	0.325	-0.033
-112.064	-115.047	0.065	0.012
-111.049	129.057	0.262	0.328
-110.034	-200.000	-0.020	0.121
-109.020	192.276	-0.136	-0.202
-108.005	65.515	0.267	-0.265
-106.991	234.493	-0.136	0.220
-105.976	-200.000	0.015	0.079
-104.962	-54.327	-0.418	0.186
-103.947	-51.593	0.359	-0.164
-102.932	-87.363	0.109	0.032
-101.918	-128.308	-0.066	0.009
-100.903	780.947	-0.157	0.421
-99.889	800.000	0.042	-0.173
-98.874	105.917	0.127	-0.147
-97.859	800.000	-0.023	-0.089
-96.845	215.222	0.129	-0.201
-95.830	58.729	0.116	0.112
-94.816	800.000	0.062	-0.172
-93.801	389.287	0.074	0.150
-92.786	-200.000	-0.002	0.274
-91.772	-57.154	-0.103	-0.045
-90.757	693.782	0.099	0.255
-89.743	-200.000	0.030	0.146
-88.728	331.822	0.063	-0.119
-87.713	-158.378	0.248	0.014
-86.699	13.889	-0.206	0.157
-85.684	-133.282	-0.246	0.030
-84.670	230.179	-0.217	0.347
-83.655	63.641	-0.177	-0.175
-82.640	267.531	-0.049	-0.085
-81.626	230.098	-0.068	-0.108
-80.611	83.119	-0.279	-0.298
-79.597	-199.029	0.359	-0.002
-78.582	800.000	0.041	0.137
-77.567	-200.000	-0.001	0.036
-76.553	-89.988	0.170	0.049
-75.538	-200.000	0.047	-0.206
-74.524	37.141	0.216	0.187
-73.509	800.000	0.016	-0.052
-72.494	235.018	0.122	-0.198
-71.480	411.839	0.135	0.282
-70.465	-43.273	0.127	0.063
-69.451	800.000	0.083	0.263
-68.436	-33.199	0.201	0.109
-67.422	-112.225	0.096	0.019
-66.407	-109.004	0.190	-0.040
-65.392	-120.819	-0.260	-0.043
-64.378	800.000	0.040	-0.151
-63.363	-200.000	0.050	0.319
-62.349	224.568	-0.126	-0.200
-61.334	117.162	-0.822	-0.990
-60.319	-200.000	0.118	1.075
-59.305	800.000	-0.289	-1.180
-58.290	90.636	1.078	1.182
-57.276	774.002	0.637	1.702
-56.261	-200.000	106.468	619.296
-55.246	514.456	1512.669	3457.224
-54.232	175.933	2705.359	3845.333
-53.217	110.142	2186.933	2571.323
-52.203	39.929	1707.238	1501.428
-51.188	32.380	1518.980	1284.513
-50.173	30.182	1491.572	1246.531
-49.159	51.161	1548.760	1438.745
-48.144	51.199	1564.767	1453.819
-47.130	32.551	1520.721	1286.948
-46.115	29.510	1506.181	1253.972
-45.100	29.358	1502.561	1249.882
-44.086	29.370	1500.199	1247.951
-43.071	29.259	1497.817	1245.170
-42.057	29.223	1496.277	1243.596
-41.042	29.195	1495.356	1242.594
-40.027	29.304	1493.847	1242.024
-39.013	29.178	1492.018	1239.604
-37.998	29.199	1490.686	1238.592
-36.984	29.242	1489.248	1237.633
-35.969	29.229	1488.189	1236.619
-34.954	29.191	1486.826	1235.181
-33.940	29.209	1485.265	1233.957
-32.925	29.312	1483.835	1233.407
-31.911	29.267	1482.721	1232.134
-30.896	29.253	1481.851	1231.270
-29.881	29.400	1479.881	1230.560
-28.867	29.316	1478.895	1229.132
-27.852	29.308	1477.627	1227.976
-26.838	29.360	1476.170	1227.067
-25.823	29.404	1474.423	1225.856
-24.809	29.354	1472.912	1224.218
-23.794	29.310	1471.551	1222.750
-22.779	29.288	1470.630	1221.790
-21.765	29.351	1469.465	1221.187
-20.750	29.298	1468.451	1219.946
-19.736	29.330	1467.799	1219.570
-18.721	29.282	1466.452	1218.084
-17.706	29.259	1464.995	1216.671
-16.692	29.244	1464.276	1215.927
-15.677	29.210	1462.843	1214.468
-14.663	29.365	1461.745	1214.528
-13.648	29.161	1461.126	1212.620
-12.633	29.179	1460.194	1211.917
-11.619	29.296	1458.869	1211.539
-10.604	29.186	1458.462	1210.428
-9.590	29.211	1457.436	1209.698
-8.575	29.313	1456.491	1209.534
-7.560	29.325	1455.562	1208.791
-6.546	29.305	1454.635	1207.846
-5.531	29.135	1454.340	1206.439
-4.517	29.269	1452.788	1205.980
-3.502	29.201	1452.395	1205.162
-2.487	29.182	1451.251	1204.036
-1.473	29.325	1449.732	1203.660
-0.458	29.335	1448.627	1202.765
0.556	26.753	1439.256	1191.376
1.571	23.904	1413.884	1151.847
2.586	20.723	1354.653	1083.719
3.600	19.158	1274.039	1009.967
4.615	18.141	1230.110	969.296
5.629	15.957	1174.580	913.625
6.644	7.824	1090.931	807.359
7.659	0.935	1051.073	744.022
8.673	-0.057	1045.501	735.161
9.688	-0.290	1042.078	731.555
10.702	-0.464	1040.718	729.687
11.717	-0.417	1038.402	728.226
12.731	2.638	1042.254	745.742
13.746	11.320	1054.589	797.097
14.761	18.267	1062.984	837.482
15.775	20.009	1064.967	847.500
16.790	20.487	1064.415	849.323
17.804	20.271	1063.536	847.491
18.819	20.092	1062.592	845.793
19.834	20.215	1061.988	845.833
20.848	20.260	1061.687	845.738
21.863	20.303	1061.538	845.757
22.877	20.260	1061.244	845.238
23.892	20.247	1060.565	844.558
24.907	20.235	1059.343	843.450
25.921	20.229	1058.751	842.879
26.936	20.172	1057.903	841.849
27.950	20.224	1057.156	841.432
28.965	20.264	1055.855	840.518
29.980	20.176	1053.894	838.456
30.994	19.951	1052.849	836.467
32.009	20.179	1051.974	836.795
33.023	20.282	1051.394	836.757
34.038	20.139	1050.315	835.137
35.053	20.076	1049.433	834.057
36.067	20.184	1048.747	833.959
37.082	20.264	1047.868	833.572
38.096	20.254	1047.329	833.020
39.111	20.592	1045.944	833.463
40.126	20.498	1045.310	832.433
41.140	20.394	1043.975	830.801
42.155	20.204	1042.420	828.580
43.169	19.937	1041.030	826.128
44.184	19.968	1039.911	825.316
45.199	20.086	1038.920	825.020
46.213	19.845	1038.303	823.307
47.228	19.924	1036.865	822.471
48.242	20.003	1036.419	822.419
49.257	20.041	1035.854	822.081
50.271	20.186	1034.739	821.811
51.286	20.328	1033.723	821.602
52.301	20.297	1033.549	821.245
53.315	20.345	1032.389	820.477
54.330	20.258	1031.656	819.410
55.344	20.025	1031.302	817.958
56.359	20.235	1029.982	817.825
57.374	20.382	1028.770	817.486
58.388	20.019	1027.773	814.912
59.403	20.041	1027.359	814.614
60.417	20.162	1026.130	814.138
61.432	19.984	1025.429	812.672
62.447	19.921	1024.868	811.862
63.461	20.085	1024.366	812.163
64.476	20.036	1023.170	810.912
65.490	20.099	1022.347	810.482
66.505	20.090	1021.238	809.487
67.520	20.044	1020.690	808.768
68.534	20.023	1020.068	808.106
69.549	19.988	1018.828	806.891
70.563	19.685	1017.425	804.296
71.578	19.537	1016.877	803.104
72.593	19.757	1015.780	803.188
73.607	19.515	1014.701	801.141
74.622	19.513	1013.928	800.450
75.636	19.874	1013.212	801.489
76.651	19.918	1012.578	801.118
77.666	19.855	1011.341	799.776
78.680	19.639	1010.406	797.971
79.695	19.628	1010.259	797.732
80.709	19.727	1009.570	797.576
81.724	19.909	1008.907	797.818
82.739	19.937	1007.998	797.161
83.753	19.958	1006.909	796.322
84.768	20.258	1005.854	796.795
85.782	20.502	1005.159	797.297
86.797	20.594	1004.476	797.106
87.812	20.403	1003.840	795.653
88.826	20.292	1002.644	794.131
89.841	20.360	1001.775	793.682
90.855	20.457	1001.054	793.485
91.870	20.371	1000.472	792.557
92.884	20.428	999.615	792.070
93.899	20.336	998.426	790.637
94.914	20.265	997.246	789.312
95.928	20.394	996.712	789.405
96.943	20.458	995.880	788.969
97.957	20.096	994.763	786.368
98.972	19.911	993.610	784.548
99.987	19.664	992.848	782.761
101.001	19.793	992.148	782.723
102.016	20.125	990.988	783.240
103.030	20.190	990.423	783.016
104.045	20.020	989.606	781.532
105.060	19.989	987.747	779.857
106.074	19.907	986.510	778.442
107.089	19.854	986.169	777.868
108.103	20.265	985.742	779.309
109.118	20.354	984.949	779.013
110.133	20.098	983.497	776.649
111.147	20.179	982.494	776.148
112.162	19.920	981.317	773.995
113.176	19.748	980.253	772.316
114.191	19.965	979.343	772.498
115.206	19.883	978.592	771.471
116.220	19.677	977.512	769.637
117.235	19.506	976.257	767.818
118.249	19.661	975.970	768.217
119.264	19.743	975.022	767.765
120.279	19.655	974.122	766.599
121.293	19.600	973.268	765.612
122.308	19.707	972.438	765.369
123.322	19.775	971.844	765.132
124.337	19.756	970.273	763.744
125.352	19.557	969.292	762.028
126.366	19.195	967.716	759.126
127.381	18.986	965.895	756.710
128.395	19.501	965.953	758.953
129.410	20.181	965.425	761.457
130.424	20.252	964.344	760.849
131.439	20.198	963.276	759.705
132.454	20.256	961.905	758.810
133.468	20.153	961.458	757.938
134.483	20.153	960.500	757.116
135.497	20.155	959.947	756.623
136.512	20.288	959.267	756.601
137.527	20.357	958.823	756.483
138.541	20.362	957.908	755.716
139.556	20.320	957.326	755.009
140.570	20.558	956.191	755.081
141.585	20.399	955.488	753.770
142.600	20.514	954.519	753.435
143.614	20.325	953.525	751.763
144.629	20.492	952.586	751.682
145.643	20.785	951.972	752.397
146.658	20.512	951.197	750.540
147.673	20.522	949.565	749.225
148.687	20.245	949.355	747.800
149.702	20.177	947.902	746.299
150.716	20.224	946.769	745.542
151.731	20.155	945.607	744.264
152.746	20.265	945.474	744.566
153.760	20.421	944.671	744.536
154.775	20.505	943.812	744.154
155.789	20.681	942.939	744.152
156.804	20.538	942.055	742.780
157.819	20.539	940.940	741.840
158.833	20.492	939.880	740.734
159.848	20.712	939.480	741.294
160.862	20.578	938.501	739.885
161.877	20.576	937.724	739.196
162.892	20.472	936.794	737.956
163.906	20.503	936.513	737.801
164.921	20.643	935.106	737.224
165.935	20.579	934.313	736.261
166.950	20.527	932.915	734.874
167.964	20.654	932.220	734.800
168.979	20.533	931.365	733.546
169.994	20.573	929.802	732.422
171.008	20.372	929.207	731.041
172.023	20.529	928.344	730.957
173.037	20.636	927.669	730.813
174.052	20.305	926.746	728.630
175.067	20.354	925.049	727.438
176.081	20.330	924.281	726.668
177.096	20.349	923.841	726.339
178.110	20.357	923.305	725.886
179.125	20.093	922.082	723.758
180.140	20.046	920.992	722.642
181.154	20.003	920.507	722.018
182.169	20.025	920.152	721.766
183.183	20.306	919.368	722.256
184.198	20.496	919.096	722.772
185.213	20.508	917.736	721.688
186.227	20.545	917.513	721.603
187.242	20.412	917.449	720.936
188.256	20.477	916.672	720.531
189.271	20.560	915.109	719.582
190.286	20.604	914.852	719.499
191.300	20.452	914.401	718.452
192.315	20.031	912.866	715.441
193.329	19.317	911.029	710.997
194.344	19.021	909.710	708.687
195.359	19.749	910.058	711.891
196.373	20.227	910.654	714.265
197.388	20.572	910.320	715.358
198.402	20.300	909.670	713.666
199.417	20.380	909.043	713.441
200.432	20.468	908.383	713.220
201.446	20.376	907.509	712.091
202.461	19.870	907.145	709.669
203.475	20.108	906.388	709.990
204.490	19.503	905.153	706.483
205.504	18.566	903.027	700.934
206.519	19.008	902.587	702.335
207.534	19.894	903.105	706.293
208.548	20.127	902.281	706.540
209.563	20.484	902.439	708.056
210.577	20.337	901.794	706.888
211.592	20.067	900.895	705.022
212.607	20.512	900.799	706.691
213.621	20.576	900.194	706.415
214.636	20.541	899.295	705.508
215.650	20.488	898.950	704.958
216.665	20.511	898.085	704.309
217.680	20.548	897.719	704.113
218.694	20.820	897.099	704.663
219.709	20.449	895.897	702.156
220.723	20.043	895.216	699.920
221.738	20.300	894.688	700.485
222.753	20.546	894.026	700.896
223.767	20.298	893.614	699.511
224.782	20.460	893.064	699.670
225.796	20.682	892.586	700.128
226.811	20.640	891.991	699.432
227.826	20.248	890.447	696.586
228.840	19.625	888.885	692.804
229.855	19.519	888.288	691.852
230.869	19.653	888.245	692.295
231.884	19.444	886.876	690.328
232.899	19.390	886.820	690.010
233.913	20.356	886.787	693.786
234.928	20.483	886.041	693.646
235.942	20.359	885.818	692.914
236.957	20.395	884.950	692.319
237.972	20.153	883.759	690.364
238.986	20.168	882.925	689.708
240.001	20.203	882.974	689.828
241.015	20.264	881.996	689.243
242.030	20.229	881.366	688.552
243.045	20.355	880.848	688.586
244.059	20.422	880.299	688.363
245.074	20.550	880.007	688.578
246.088	20.608	878.841	687.833
247.103	20.156	877.891	685.246
248.117	20.292	876.948	684.985
249.132	20.778	877.455	687.240
250.147	21.208	877.088	688.588
251.161	21.012	876.662	687.418
252.176	21.197	876.127	687.669
253.190	21.199	875.596	687.198
254.205	21.140	874.738	686.230
255.220	21.465	874.521	687.276
256.234	21.503	873.745	686.755
257.249	21.456	872.940	685.877
258.263	21.120	872.292	683.990
259.278	21.085	871.924	683.507
260.293	21.360	871.196	683.950
261.307	21.419	870.465	683.548
262.322	21.226	870.036	682.396
263.336	21.020	869.272	680.933
264.351	20.682	867.849	678.439
265.366	19.512	865.753	672.186
266.380	19.012	865.168	669.727
267.395	20.110	865.126	673.909
268.409	20.859	865.378	676.956
269.424	20.848	864.455	676.130
270.439	21.024	864.458	676.757
271.453	21.043	863.741	676.209
272.468	21.084	863.010	675.734
273.482	21.342	862.450	676.235
274.497	21.301	862.738	676.245
275.512	21.158	861.400	674.583
276.526	20.533	859.837	670.885
277.541	20.744	859.496	671.375
278.555	21.101	859.465	672.667
279.570	20.949	858.189	671.025
280.585	20.646	857.267	669.079
281.599	20.848	856.896	669.505
282.614	21.100	856.185	669.861
283.628	20.440	855.538	666.764
284.643	20.271	854.786	665.469
285.657	20.551	854.593	666.333
286.672	20.712	853.266	665.855
287.687	20.067	852.679	662.873
288.701	20.488	852.876	664.576
289.716	20.798	852.408	665.339
290.730	20.326	851.607	662.850
291.745	20.479	850.421	662.454
292.760	20.321	849.365	660.969
293.774	20.092	849.201	659.912
294.789	21.029	849.669	663.785
295.803	21.544	849.704	665.713
296.818	21.591	849.146	665.396
297.833	21.707	848.661	665.398
298.847	21.444	847.622	663.528
299.862	21.270	846.378	661.835
300.876	21.239	846.057	661.406
301.891	21.627	845.747	662.575
302.906	21.684	845.025	662.166
303.920	21.128	844.448	659.554
304.935	20.977	843.751	658.384
305.949	21.419	843.300	659.641
306.964	21.559	842.526	659.506
307.979	21.417	841.798	658.341
308.993	21.342	841.221	657.548
310.008	21.645	841.480	658.835
311.022	21.692	840.917	658.511
312.037	21.556	840.257	657.427
313.052	21.341	839.649	656.086
314.066	21.248	838.742	654.967
315.081	20.777	837.198	651.943
316.095	20.102	835.555	648.080
317.110	20.486	836.332	650.062
318.125	21.386	836.269	653.324
319.139	20.968	835.017	650.726
320.154	19.896	833.458	645.458
321.168	19.416	832.526	642.892
322.183	20.096	833.109	645.820
323.197	20.947	833.358	649.125
324.212	21.077	833.267	649.480
325.227	21.444	832.665	650.319
326.241	21.482	832.218	650.055
327.256	21.365	831.409	648.930
328.270	21.292	831.070	648.338
329.285	21.040	830.682	647.044
330.300	21.088	829.585	646.310
331.314	20.946	828.591	644.951
332.329	21.053	827.920	644.768
333.343	21.225	827.818	645.268
334.358	21.608	827.332	646.245
335.373	21.577	826.550	645.464
336.387	21.536	826.259	645.027
337.402	21.640	826.290	645.379
338.416	21.923	825.528	645.768
339.431	21.882	824.860	645.035
340.446	21.949	824.318	644.802
341.460	22.128	823.940	645.107
342.475	21.916	823.478	643.910
343.489	21.638	822.448	642.027
344.504	21.792	822.217	642.356
345.519	22.096	821.982	643.230
346.533	22.185	821.316	642.977
347.548	22.259	821.008	642.947
348.562	22.389	820.486	642.957
349.577	22.457	819.461	642.346
350.592	22.275	819.132	641.368
351.606	22.353	818.650	641.216
352.621	22.132	818.809	640.481
353.635	22.156	818.231	640.059
354.650	22.092	817.468	639.172
355.665	21.577	816.381	636.395
356.679	20.711	814.581	631.793
357.694	20.614	814.086	631.001
358.708	21.169	814.222	633.063
359.723	21.067	813.766	632.282
360.738	21.377	813.173	632.889
361.752	21.825	813.404	634.633
362.767	22.098	812.832	635.118
363.781	22.226	812.540	635.297
364.796	22.444	812.407	635.924
365.810	22.562	811.924	635.915
366.825	22.589	811.441	635.578
367.840	22.581	811.105	635.232
368.854	22.497	810.088	634.073
369.869	22.141	809.661	632.404
370.883	21.887	809.314	631.164
371.898	21.984	808.607	630.904
372.913	21.914	807.549	629.773
373.927	21.952	807.162	629.553
374.942	21.909	806.451	628.788
375.956	22.141	806.103	629.290
376.971	22.424	805.438	629.730
377.986	22.246	805.237	628.877
379.000	22.531	804.487	629.254
380.015	22.511	804.093	628.819
381.029	22.376	803.387	627.730
382.044	22.349	803.058	627.321
383.059	22.433	802.752	627.328
384.073	22.514	802.147	627.087
385.088	22.524	801.319	626.419
386.102	22.671	800.726	626.423
387.117	22.454	800.200	625.185
388.132	22.306	799.561	624.105
389.146	22.169	799.192	623.277
390.161	21.655	798.062	620.521
391.175	21.690	797.983	620.528
392.190	22.224	798.159	622.502
393.205	22.289	797.180	621.911
394.219	21.327	795.206	616.922
395.234	19.841	793.211	610.084
396.248	19.087	792.480	606.812
397.263	20.066	793.549	611.031
398.278	21.917	794.428	618.178
399.292	22.514	794.351	620.168
400.307	22.047	793.819	618.056
401.321	22.049	793.549	617.795
402.336	21.953	793.050	617.014
403.350	22.258	792.756	617.804
404.365	22.731	792.700	619.368
405.380	22.904	792.512	619.771
406.394	23.197	792.092	620.415
407.409	23.343	791.864	620.694
408.423	23.231	791.581	620.024
409.438	23.280	790.653	619.416
410.453	23.094	790.514	618.599
411.467	23.180	790.038	618.474
412.482	23.089	789.336	617.552
413.496	23.197	788.563	617.269
414.511	23.088	788.420	616.722
415.526	23.303	788.035	617.115
416.540	23.175	788.033	616.613
417.555	23.250	787.306	616.251
418.569	22.779	786.526	613.948
419.584	22.762	785.886	613.336
420.599	22.946	785.438	613.572
421.613	157.577	1364.157	1799.170
422.628	136.309	1448.467	1799.244
