DTS Sentinel unit serial number:	SN413079Multiplexer serial number:	ORYXHardware model number:	OX4-SRSoftware version number:	ORYX F/W v4.00 Oryx Data Collector v3.7.2.0data status	okinstallation	princeton_trtdifferential loss correction	single-endedforward channel	channel 3reverse channel	N/Adate	2019/09/11time	21:34:11forward acquisition time	60.00reverse acquisition time	0.00gamma	496.2192k internal	0.2310k external	0.2310temperature offset calibration	1.0033default loss term (dB/km)	0.3790temperature slope calibration	1.0000multiplexer offset coefficient	1.0000multiplexer slope coefficient	1.0000fibre end	0.00T internal ref (°C)	35.94T ext. ref 1 (°C)	1.63T ext. ref 2 (°C)	30.02length (m)	temperature (°C)	Stokes	anti-Stokes-747.200	-52.497	-0.108	0.051
-746.185	800.000	-0.059	0.222
-745.171	670.550	0.103	-0.272
-744.156	756.375	-0.033	0.090
-743.142	9.546	0.154	-0.119
-742.127	13.011	0.082	0.064
-741.112	33.657	-0.150	-0.133
-740.098	178.302	-0.162	0.240
-739.083	3.361	0.271	0.200
-738.069	186.603	0.052	-0.079
-737.054	-51.151	-0.216	0.103
-736.039	51.694	-0.176	-0.170
-735.025	-133.193	0.140	0.018
-734.010	-30.057	0.312	-0.180
-732.996	87.970	0.064	0.072
-731.981	-1.573	-0.135	0.096
-730.966	-40.879	0.091	-0.048
-729.952	-200.000	-0.017	0.291
-728.937	-18.921	0.025	-0.016
-727.923	367.155	-0.182	-0.373
-726.908	-13.043	0.096	0.064
-725.894	800.000	-0.018	-0.059
-724.879	10.576	0.149	-0.115
-723.864	563.189	-0.110	-0.271
-722.850	-200.000	-0.026	-0.234
-721.835	800.000	-0.045	0.200
-720.821	78.722	0.292	-0.316
-719.806	800.000	0.078	0.250
-718.791	299.819	-0.167	-0.312
-717.777	-200.000	-0.007	0.210
-716.762	221.095	0.062	0.101
-715.748	-47.781	-0.417	0.205
-714.733	593.279	0.110	-0.277
-713.718	-123.633	-0.428	-0.069
-712.704	-193.577	-0.163	-0.001
-711.689	-42.292	-0.182	0.094
-710.675	-5.637	-0.180	0.125
-709.660	-130.541	-0.381	0.052
-708.645	-101.546	-0.105	-0.026
-707.631	-24.430	0.221	-0.134
-706.616	-200.000	0.001	0.147
-705.602	-90.440	0.317	-0.093
-704.587	-23.017	-0.030	-0.018
-703.572	146.826	-0.253	-0.345
-702.558	-168.876	0.263	0.010
-701.543	-35.378	0.304	0.168
-700.529	211.884	0.064	-0.102
-699.514	-49.961	-0.097	-0.046
-698.499	-200.000	0.020	0.117
-697.485	185.482	0.112	0.168
-696.470	800.000	0.055	0.198
-695.456	155.013	-0.091	-0.126
-694.441	332.544	-0.163	0.319
-693.426	48.883	0.157	0.149
-692.412	800.000	0.075	0.228
-691.397	-135.624	0.191	-0.023
-690.383	467.192	0.100	0.226
-689.368	-88.511	-0.328	-0.099
-688.354	800.000	0.075	-0.266
-687.339	-5.843	-0.162	-0.112
-686.324	473.310	-0.146	-0.334
-685.310	61.264	0.023	-0.023
-684.295	-200.000	-0.007	0.129
-683.281	800.000	0.041	-0.158
-682.266	-26.572	0.287	-0.170
-681.251	-102.889	0.268	-0.065
-680.237	-200.000	-0.013	-0.068
-679.222	-68.754	-0.021	-0.008
-678.208	-154.796	0.362	-0.024
-677.193	99.087	-0.062	-0.073
-676.178	4.258	-0.095	-0.070
-675.164	117.475	0.032	0.040
-674.149	-200.000	-0.002	-0.106
-673.135	-200.000	0.024	0.113
-672.120	394.691	-0.101	-0.214
-671.105	-36.316	-0.045	0.025
-670.091	-124.845	0.342	-0.053
-669.076	-200.000	0.045	0.312
-668.062	113.981	-0.073	0.090
-667.047	10.378	0.394	-0.304
-666.032	-189.283	-0.131	-0.002
-665.018	314.996	-0.030	0.057
-664.003	235.286	-0.087	0.145
-662.989	661.044	-0.048	0.125
-661.974	184.381	0.087	0.131
-660.959	494.180	0.060	0.140
-659.945	79.671	-0.306	-0.332
-658.930	709.082	-0.060	-0.160
-657.916	7.908	-0.115	-0.088
-656.901	8.209	0.079	-0.060
-655.886	93.739	-0.126	-0.145
-654.872	-200.000	-0.006	0.107
-653.857	-75.915	0.266	0.095
-652.843	-80.918	-0.131	-0.044
-651.828	800.000	-0.027	0.075
-650.814	-162.329	-0.296	0.015
-649.799	615.858	0.082	0.208
-648.784	215.737	-0.116	0.187
-647.770	-191.749	-0.111	0.001
-646.755	130.219	0.049	0.063
-645.741	-158.832	-0.305	0.018
-644.726	-136.064	0.314	0.037
-643.711	-200.000	-0.297	-0.001
-642.697	58.187	-0.079	-0.079
-641.682	-106.537	0.223	0.050
-640.668	-2.276	-0.336	-0.238
-639.653	-200.000	0.072	-0.386
-638.638	-188.997	-0.180	-0.002
-637.624	168.612	-0.013	-0.019
-636.609	-92.160	0.280	0.080
-635.595	-5.783	0.153	0.106
-634.580	-200.000	-0.119	-0.000
-633.565	-102.915	0.231	-0.055
-632.551	162.347	-0.027	0.038
-631.536	-200.000	0.028	0.196
-630.522	84.625	0.126	-0.140
-629.507	-200.000	-0.030	0.196
-628.492	478.785	-0.088	0.202
-627.478	161.070	-0.274	0.387
-626.463	32.855	0.156	0.137
-625.449	800.000	0.110	0.324
-624.434	-51.052	-0.389	-0.185
-623.419	800.000	0.054	0.185
-622.405	285.327	0.124	0.226
-621.390	-11.790	0.069	-0.046
-620.376	59.011	-0.170	-0.169
-619.361	-200.000	0.013	-0.181
-618.346	-40.002	0.210	-0.111
-617.332	197.875	-0.192	0.296
-616.317	-19.763	0.113	0.071
-615.303	-61.401	0.147	0.062
-614.288	-40.802	-0.093	-0.049
-613.273	-200.000	0.077	0.385
-612.259	168.944	0.278	0.401
-611.244	106.370	-0.288	-0.344
-610.230	-48.176	-0.150	0.073
-609.215	-200.000	0.038	-0.198
-608.201	84.028	0.201	-0.222
-607.186	-200.000	-0.003	-0.340
-606.171	-148.758	0.158	0.013
-605.157	291.595	0.079	-0.145
-604.142	-200.000	0.034	-0.250
-603.128	-3.570	0.195	0.137
-602.113	-52.911	0.064	-0.030
-601.098	4.628	-0.224	0.166
-600.084	474.916	0.056	0.128
-599.069	-200.000	-0.023	0.126
-598.055	-39.387	-0.113	0.060
-597.040	-68.005	-0.039	-0.015
-596.025	-113.359	0.203	-0.040
-595.011	-56.088	-0.324	0.146
-593.996	-200.000	0.050	-0.404
-592.982	320.442	0.037	-0.072
-591.967	260.609	0.140	-0.244
-590.952	-36.044	-0.300	-0.164
-589.938	20.885	0.126	-0.103
-588.923	800.000	-0.011	0.033
-587.909	-55.924	0.252	-0.114
-586.894	-140.105	-0.419	0.044
-585.879	485.766	-0.057	0.132
-584.865	-99.029	-0.135	-0.035
-583.850	317.243	0.062	0.118
-582.836	509.938	0.155	-0.364
-581.821	-57.724	0.229	-0.101
-580.806	146.197	0.026	0.035
-579.792	242.296	-0.150	0.253
-578.777	-200.000	-0.014	0.213
-577.763	-147.071	0.099	-0.009
-576.748	193.928	0.221	0.337
-575.733	-86.105	0.230	0.072
-574.719	-185.835	0.202	0.003
-573.704	14.112	-0.176	-0.139
-572.690	30.552	-0.089	-0.077
-571.675	133.422	-0.075	-0.098
-570.661	-200.000	0.074	0.482
-569.646	125.886	-0.208	0.265
-568.631	800.000	-0.034	-0.136
-567.617	-81.487	0.066	0.022
-566.602	629.075	-0.123	-0.314
-565.588	626.706	-0.042	0.106
-564.573	-200.000	-0.053	0.272
-563.558	-75.126	-0.103	-0.037
-562.544	-27.860	-0.162	-0.095
-561.529	-99.987	0.029	-0.007
-560.515	84.054	0.290	-0.320
-559.500	257.616	0.138	-0.239
-558.485	-52.358	-0.107	-0.050
-557.471	611.288	-0.067	0.169
-556.456	-33.906	0.026	-0.014
-555.442	-13.233	0.357	-0.234
-554.427	-200.000	-0.031	-0.176
-553.412	56.993	-0.411	0.404
-552.398	417.162	0.082	0.176
-551.383	187.217	0.152	0.229
-550.369	96.139	-0.277	0.319
-549.354	800.000	0.071	0.262
-548.339	-81.729	0.329	-0.109
-547.325	-72.766	0.049	-0.018
-546.310	-99.306	0.049	0.012
-545.296	241.573	-0.259	-0.437
-544.281	800.000	-0.052	-0.150
-543.266	800.000	-0.062	-0.195
-542.252	800.000	-0.076	-0.242
-541.237	-200.000	-0.008	0.349
-540.223	-114.610	-0.224	0.043
-539.208	-95.042	0.253	0.069
-538.193	-31.656	-0.264	0.149
-537.179	-200.000	-0.040	-0.223
-536.164	800.000	0.025	-0.072
-535.150	218.766	-0.040	-0.065
-534.135	112.800	-0.149	-0.182
-533.121	56.277	-0.105	0.102
-532.106	800.000	-0.047	0.146
-531.091	69.597	-0.199	-0.207
-530.077	678.185	-0.079	0.206
-529.062	-112.816	0.230	0.046
-528.048	-200.000	-0.016	0.262
-527.033	-173.794	-0.053	-0.002
-526.018	613.543	-0.034	-0.085
-525.004	-67.602	-0.295	-0.116
-523.989	-200.000	-0.021	-0.112
-522.975	-103.802	-0.211	0.050
-521.960	585.371	0.022	-0.055
-520.945	36.173	0.126	-0.112
-519.931	229.150	-0.035	-0.057
-518.916	428.295	-0.072	-0.156
-517.902	-200.000	0.043	0.203
-516.887	-72.473	-0.471	0.175
-515.872	-200.000	-0.005	-0.275
-514.858	-57.035	0.143	0.064
-513.843	-200.000	0.005	-0.182
-512.829	800.000	0.060	-0.182
-511.814	150.305	-0.159	0.217
-510.799	-200.000	-0.060	0.429
-509.785	-200.000	0.011	-0.171
-508.770	121.868	-0.137	0.171
-507.756	59.065	-0.020	-0.020
-506.741	296.742	-0.104	0.193
-505.726	-89.911	-0.147	-0.043
-504.712	-172.094	-0.077	-0.002
-503.697	715.173	0.105	-0.279
-502.683	-101.675	-0.372	-0.091
-501.668	166.293	0.050	0.071
-500.653	-200.000	-0.017	0.149
-499.639	-176.574	0.158	-0.004
-498.624	144.117	0.200	0.268
-497.610	415.322	-0.058	-0.123
-496.595	73.861	-0.069	-0.073
-495.581	-200.000	-0.049	-0.336
-494.566	-145.776	-0.271	0.024
-493.551	-114.336	0.125	-0.024
-492.537	-6.920	0.321	0.220
-491.522	197.588	-0.073	0.113
-490.508	9.996	0.107	-0.082
-489.493	787.151	-0.065	-0.179
-488.478	221.401	0.072	-0.116
-487.464	-200.000	-0.065	0.556
-486.449	-129.268	-0.293	-0.041
-485.435	229.962	0.189	0.311
-484.420	-200.000	-0.005	-0.246
-483.405	-18.458	0.325	0.204
-482.391	-200.000	0.003	-0.054
-481.376	-200.000	0.041	0.183
-480.362	-50.193	-0.171	0.081
-479.347	-151.101	0.052	0.004
-478.332	-78.370	-0.234	-0.081
-477.318	-129.979	0.195	-0.027
-476.303	-200.000	0.002	-0.066
-475.289	-200.000	-0.025	-0.183
-474.274	-164.013	-0.068	0.003
-473.259	46.327	0.186	-0.173
-472.245	91.677	-0.254	-0.287
-471.230	-188.750	-0.150	0.002
-470.216	-23.836	0.209	-0.126
-469.201	-65.917	0.277	0.111
-468.186	-7.986	-0.184	-0.124
-467.172	-200.000	-0.434	-0.001
-466.157	351.926	0.009	-0.019
-465.143	81.099	0.301	-0.326
-464.128	312.746	-0.084	-0.159
-463.113	-71.607	0.569	0.214
-462.099	-65.206	-0.134	0.054
-461.084	-60.312	0.447	0.191
-460.070	-104.844	-0.116	-0.027
-459.055	-200.000	-0.050	-0.309
-458.040	-93.927	-0.079	0.022
-457.026	173.061	0.085	0.123
-456.011	-96.211	0.295	0.079
-454.997	-37.359	0.169	0.090
-453.982	-64.148	-0.281	0.115
-452.968	-81.025	0.504	0.168
-451.953	-136.118	-0.359	-0.042
-450.938	90.092	0.073	0.082
-449.924	191.908	0.106	-0.161
-448.909	-93.976	0.363	-0.100
-447.895	-23.143	-0.142	0.086
-446.880	-200.000	0.019	0.226
-445.865	230.899	0.061	0.101
-444.851	-68.851	-0.196	0.076
-443.836	-125.295	0.170	0.026
-442.822	-200.000	0.004	-0.195
-441.807	-200.000	-0.033	0.249
-440.792	97.070	0.066	-0.076
-439.778	-114.612	0.094	0.018
-438.763	-15.100	0.233	-0.150
-437.749	-128.654	-0.167	-0.024
-436.734	-134.494	-0.117	0.014
-435.719	-200.000	-0.033	-0.293
-434.705	168.814	0.041	0.059
-433.690	28.008	0.305	-0.258
-432.676	-7.057	0.141	0.096
-431.661	800.000	0.046	0.195
-430.646	143.534	-0.311	-0.416
-429.632	1.628	-0.137	0.099
-428.617	616.151	0.053	0.133
-427.603	-6.048	-0.267	0.183
-426.588	49.083	-0.240	-0.227
-425.573	-200.000	-0.049	-0.311
-424.559	634.861	-0.111	-0.282
-423.544	211.863	-0.100	-0.158
-422.530	-156.635	0.152	0.009
-421.515	-156.972	-0.094	-0.006
-420.500	30.936	-0.062	-0.053
-419.486	85.449	-0.045	-0.049
-418.471	800.000	-0.128	-0.423
-417.457	126.506	-0.031	0.040
-416.442	72.293	0.260	0.272
-415.428	-200.000	-0.030	-0.218
-414.413	-10.932	-0.288	0.190
-413.398	295.332	0.251	0.462
-412.384	130.213	0.075	0.096
-411.369	-200.000	-0.005	-0.396
-410.355	-200.000	0.008	0.213
-409.340	-45.104	-0.041	0.020
-408.325	695.137	0.114	-0.300
-407.311	-90.168	0.303	0.088
-406.296	-200.000	0.071	-0.370
-405.282	437.659	0.256	0.559
-404.267	-182.411	0.180	0.003
-403.252	800.000	0.129	-0.390
-402.238	-124.646	-0.181	-0.028
-401.223	27.473	0.166	0.140
-400.209	-174.469	-0.173	-0.005
-399.194	-66.493	0.153	0.061
-398.179	-127.449	-0.122	0.018
-397.165	-136.891	0.377	-0.043
-396.150	-44.982	0.196	-0.098
-395.136	-60.100	-0.213	-0.091
-394.121	352.619	0.051	-0.101
-393.106	203.755	-0.078	-0.121
-392.092	-125.725	-0.309	-0.047
-391.077	28.349	0.315	0.266
-390.063	245.785	-0.139	0.235
-389.048	311.279	0.019	-0.036
-388.033	-52.660	-0.157	-0.073
-387.019	266.693	0.131	0.229
-386.004	-55.354	-0.110	-0.050
-384.990	-110.663	0.415	-0.086
-383.975	-200.000	0.020	-0.087
-382.960	99.999	0.038	0.045
-381.946	-77.523	0.287	-0.100
-380.931	624.036	0.095	0.239
-379.917	-34.707	-0.167	0.092
-378.902	-137.365	-0.235	-0.027
-377.888	-100.635	-0.236	0.058
-376.873	53.612	-0.220	0.211
-375.858	5.733	-0.324	0.240
-374.844	-7.156	-0.130	-0.088
-373.829	158.912	-0.166	-0.231
-372.815	143.442	-0.104	-0.139
-371.800	16.445	-0.070	0.055
-370.785	23.138	-0.055	-0.046
-369.771	216.105	-0.107	0.170
-368.756	-98.427	0.420	0.108
-367.742	418.346	-0.147	0.315
-366.727	-95.049	0.145	0.039
-365.712	25.417	-0.133	0.111
-364.698	-55.612	-0.205	-0.092
-363.683	140.952	-0.218	0.289
-362.669	-88.706	0.314	-0.094
-361.654	5.521	0.197	-0.146
-360.639	-200.000	0.016	-0.078
-359.625	723.415	0.051	-0.135
-358.610	-17.739	-0.119	0.075
-357.596	-141.545	-0.336	0.034
-356.581	-200.000	0.024	-0.172
-355.566	-61.967	0.133	0.055
-354.552	318.463	0.072	0.136
-353.537	107.106	0.085	-0.102
-352.523	-137.247	-0.189	-0.021
-351.508	-200.000	0.025	-0.183
-350.493	-200.000	0.053	-0.285
-349.479	43.516	-0.472	-0.432
-348.464	724.320	-0.087	0.231
-347.450	-200.000	0.034	0.225
-346.435	-73.382	-0.195	0.071
-345.420	-200.000	-0.098	0.000
-344.406	-39.652	-0.033	-0.017
-343.391	-79.646	-0.390	0.131
-342.377	118.082	0.127	0.156
-341.362	-195.026	-0.108	-0.001
-340.348	623.522	-0.090	-0.228
-339.333	263.126	0.199	-0.345
-338.318	7.175	0.139	0.104
-337.304	-112.049	0.249	-0.050
-336.289	-200.000	0.021	0.115
-335.275	113.591	-0.098	0.118
-334.260	-200.000	-0.069	0.312
-333.245	-117.652	0.080	-0.014
-332.231	115.286	0.097	0.118
-331.216	-74.763	-0.030	-0.011
-330.202	800.000	0.105	-0.361
-329.187	-37.364	0.063	0.034
-328.172	-200.000	-0.007	-0.144
-327.158	-200.000	0.036	-0.207
-326.143	-68.772	0.332	0.128
-325.129	26.748	-0.401	-0.336
-324.114	673.488	0.124	-0.321
-323.099	103.799	0.098	-0.115
-322.085	77.286	-0.124	0.131
-321.070	184.086	0.165	0.245
-320.056	-200.000	0.032	0.176
-319.041	58.443	0.153	-0.150
-318.026	-77.834	0.056	0.019
-317.012	24.372	0.271	0.223
-315.997	80.105	-0.073	-0.078
-314.983	-200.000	0.023	0.115
-313.968	369.622	-0.185	0.375
-312.953	800.000	0.028	-0.080
-311.939	-25.292	-0.021	-0.012
-310.924	-105.183	-0.083	0.019
-309.910	381.209	-0.063	-0.129
-308.895	738.162	0.053	-0.142
-307.880	-200.000	0.007	0.073
-306.866	587.764	0.067	0.165
-305.851	-38.524	0.243	0.128
-304.837	-200.000	-0.015	0.324
-303.822	146.746	-0.073	0.098
-302.807	-4.856	-0.295	-0.203
-301.793	-129.065	0.185	-0.026
-300.778	380.951	0.090	0.184
-299.764	391.811	0.022	0.045
-298.749	420.984	0.168	-0.360
-297.735	-131.069	-0.135	0.018
-296.720	285.067	0.056	-0.101
-295.705	572.675	-0.130	-0.317
-294.691	800.000	-0.087	0.326
-293.676	-200.000	-0.002	-0.304
-292.662	-126.835	0.082	-0.012
-291.647	34.425	0.145	-0.126
-290.632	18.873	0.052	0.042
-289.618	163.037	0.173	-0.243
-288.603	430.889	-0.148	0.319
-287.589	-200.000	-0.186	0.000
-286.574	-112.426	-0.315	-0.063
-285.559	-86.233	-0.102	0.031
-284.545	-107.669	-0.053	-0.012
-283.530	-169.797	0.311	0.011
-282.516	155.799	0.062	0.086
-281.501	-47.192	-0.144	-0.070
-280.486	-166.997	0.300	0.012
-279.472	-117.462	0.156	-0.028
-278.457	-1.542	0.089	-0.062
-277.443	-182.870	0.081	-0.001
-276.428	164.317	0.141	-0.198
-275.413	-40.814	-0.220	-0.114
-274.399	-79.937	-0.083	-0.028
-273.384	-12.210	-0.210	-0.137
-272.370	-2.611	0.293	0.205
-271.355	42.688	-0.071	0.064
-270.340	-117.215	0.299	-0.054
-269.326	585.906	0.092	0.226
-268.311	42.007	0.169	-0.153
-267.297	33.643	-0.183	0.158
-266.282	-162.008	-0.226	0.011
-265.267	-200.000	-0.040	0.192
-264.253	409.450	0.186	-0.393
-263.238	461.772	0.017	-0.038
-262.224	-200.000	0.047	-0.315
-261.209	-200.000	-0.063	0.304
-260.195	-68.520	0.204	-0.079
-259.180	-85.060	0.152	0.047
-258.165	-200.000	-0.004	0.059
-257.151	-11.546	-0.234	-0.153
-256.136	-200.000	0.006	-0.135
-255.122	489.096	0.148	0.338
-254.107	800.000	0.053	0.201
-253.092	53.570	-0.140	-0.134
-252.078	122.530	0.176	0.219
-251.063	-94.669	0.289	0.078
-250.049	36.223	0.261	0.229
-249.034	-170.911	-0.354	0.012
-248.019	-61.958	0.411	-0.171
-247.005	34.761	-0.025	-0.022
-245.990	189.532	0.047	-0.070
-244.976	-93.832	0.169	0.046
-243.961	-85.438	0.032	0.010
-242.946	-42.678	0.107	-0.054
-241.932	-66.528	-0.128	0.051
-240.917	800.000	0.073	-0.239
-239.903	258.465	-0.256	-0.438
-238.888	-125.925	-0.284	0.043
-237.873	269.196	-0.052	0.091
-236.859	-67.610	-0.051	-0.020
-235.844	40.221	0.196	0.175
-234.830	-73.179	0.237	-0.086
-233.815	350.985	0.053	-0.104
-232.800	33.959	-0.040	-0.034
-231.786	-12.660	-0.301	-0.195
-230.771	-110.584	-0.195	0.040
-229.757	-87.602	-0.137	-0.041
-228.742	-45.740	0.439	0.216
-227.727	253.711	-0.100	-0.170
-226.713	-85.848	0.088	-0.027
-225.698	80.611	0.173	0.185
-224.684	132.314	0.122	0.156
-223.669	-173.539	-0.008	-0.000
-222.655	-69.031	-0.151	-0.058
-221.640	80.593	-0.357	0.382
-220.625	165.872	0.017	0.023
-219.611	306.411	0.052	-0.096
-218.596	-41.147	0.246	0.126
-217.582	800.000	-0.040	0.153
-216.567	-200.000	-0.004	-0.247
-215.552	-24.739	0.375	-0.221
-214.538	-154.896	0.347	0.023
-213.523	-172.188	0.141	0.005
-212.509	-177.914	-0.292	-0.007
-211.494	-200.000	0.012	-0.151
-210.479	71.643	-0.182	0.188
-209.465	-58.963	0.034	0.015
-208.450	800.000	-0.029	-0.094
-207.436	-80.307	-0.204	0.068
-206.421	800.000	-0.063	0.269
-205.406	-38.476	-0.304	-0.160
-204.392	26.414	-0.521	-0.433
-203.377	800.000	-0.047	-0.181
-202.363	143.019	0.115	-0.152
-201.348	-58.535	-0.182	0.079
-200.333	-88.816	-0.292	0.086
-199.319	-25.429	0.288	0.169
-198.304	5.137	0.158	0.116
-197.290	-6.635	-0.158	0.107
-196.275	202.520	-0.097	0.150
-195.260	-79.441	-0.043	0.014
-194.246	590.887	-0.132	0.323
-193.231	625.777	-0.090	0.226
-192.217	-200.000	-0.020	0.111
-191.202	77.675	0.214	0.226
-190.187	-91.442	-0.228	0.065
-189.173	-200.000	0.017	0.190
-188.158	-79.198	0.430	0.145
-187.144	800.000	0.061	0.208
-186.129	47.023	-0.143	0.132
-185.114	-105.107	-0.301	-0.068
-184.100	23.989	-0.009	0.007
-183.085	800.000	-0.043	-0.125
-182.071	-200.000	-0.009	-0.255
-181.056	-109.672	0.307	0.064
-180.042	-121.396	0.190	-0.031
-179.027	-25.282	-0.107	0.063
-178.012	-41.516	-0.096	-0.049
-176.998	-61.292	0.079	0.033
-175.983	347.395	0.121	-0.237
-174.969	-53.610	-0.171	-0.078
-173.954	35.703	0.189	-0.165
-172.939	-21.815	0.131	0.079
-171.925	155.534	-0.144	0.197
-170.910	23.191	-0.035	-0.028
-169.896	72.863	0.140	-0.146
-168.881	-79.021	-0.305	-0.103
-167.866	-200.000	-0.065	-0.311
-166.852	-200.000	-0.102	0.500
-165.837	800.000	0.069	-0.292
-164.823	61.852	0.091	0.090
-163.808	-44.484	0.049	-0.024
-162.793	-47.881	0.065	-0.031
-161.779	10.309	-0.108	-0.082
-160.764	800.000	-0.054	-0.203
-159.750	-138.343	0.026	0.003
-158.735	-200.000	0.052	-0.453
-157.720	93.938	-0.107	-0.120
-156.706	-200.000	0.001	-0.022
-155.691	-53.502	-0.230	0.104
-154.677	-94.998	0.125	0.033
-153.662	-151.154	0.231	-0.017
-152.647	-0.469	0.096	0.068
-151.633	-125.586	0.273	0.041
-150.618	-131.709	0.237	0.031
-149.604	-200.000	-0.004	-0.398
-148.589	-91.631	0.175	-0.049
-147.574	395.024	-0.142	0.293
-146.560	-200.000	-0.031	-0.249
-145.545	-36.866	0.080	-0.043
-144.531	-200.000	-0.025	0.163
-143.516	-33.722	0.373	0.204
-142.502	15.644	0.197	0.153
-141.487	-127.618	0.278	-0.040
-140.472	41.419	0.281	-0.252
-139.458	16.495	0.125	-0.098
-138.443	-31.126	-0.094	-0.053
-137.429	-9.306	0.187	-0.124
-136.414	-200.000	0.015	0.283
-135.399	-64.390	0.274	-0.110
-134.385	-28.675	0.207	-0.118
-133.370	800.000	-0.067	-0.232
-132.356	-200.000	0.037	0.168
-131.341	-48.032	-0.280	-0.134
-130.326	-200.000	-0.018	-0.324
-129.312	-84.812	-0.165	-0.051
-128.297	15.734	0.070	-0.054
-127.283	493.380	-0.027	-0.061
-126.268	-77.750	-0.191	0.066
-125.253	493.942	-0.114	-0.260
-124.239	686.267	0.130	0.335
-123.224	-200.000	0.014	-0.080
-122.210	17.415	-0.050	0.039
-121.195	-128.412	0.199	-0.028
-120.180	573.241	0.047	0.113
-119.166	-200.000	0.010	-0.121
-118.151	786.126	0.149	-0.405
-117.137	-7.606	0.282	-0.189
-116.122	59.427	0.131	-0.128
-115.107	-83.363	0.388	-0.123
-114.093	7.177	-0.107	-0.079
-113.078	280.175	-0.103	0.182
-112.064	-14.441	-0.290	0.185
-111.049	25.628	-0.165	0.136
-110.034	-200.000	0.009	0.052
-109.020	57.549	0.181	-0.176
-108.005	106.126	-0.208	-0.244
-106.991	32.993	-0.184	0.158
-105.976	35.658	0.324	-0.282
-104.962	800.000	0.042	0.160
-103.947	800.000	-0.092	0.296
-102.932	-81.737	0.200	-0.065
-101.918	44.704	0.081	-0.074
-100.903	314.122	0.228	-0.425
-99.889	3.818	0.228	0.165
-98.874	135.574	-0.147	0.190
-97.859	-159.869	-0.275	-0.015
-96.845	-200.000	-0.006	0.171
-95.830	761.398	-0.037	0.099
-94.816	-91.007	-0.313	0.089
-93.801	-111.759	0.263	0.053
-92.786	-200.000	-0.018	0.138
-91.772	-150.593	-0.146	0.011
-90.757	346.577	0.033	-0.064
-89.743	50.552	-0.286	0.268
-88.728	-93.089	-0.374	0.103
-87.713	-5.968	0.053	0.036
-86.699	95.118	-0.099	0.112
-85.684	32.987	0.118	-0.102
-84.670	185.562	-0.153	0.225
-83.655	180.243	-0.190	0.276
-82.640	27.118	-0.075	0.063
-81.626	800.000	-0.064	0.227
-80.611	800.000	0.030	0.082
-79.597	-51.486	-0.285	-0.132
-78.582	-41.146	-0.209	0.107
-77.567	-78.581	0.284	0.096
-76.553	800.000	-0.007	0.023
-75.538	-25.947	-0.109	0.063
-74.524	-15.824	0.223	-0.141
-73.509	800.000	-0.039	-0.122
-72.494	762.871	-0.042	-0.113
-71.480	-90.812	-0.256	-0.073
-70.465	-76.641	0.353	0.122
-69.451	-102.687	-0.252	-0.059
-68.436	-193.705	-0.296	-0.002
-67.422	-129.081	-0.377	0.052
-66.407	-6.831	0.246	-0.166
-65.392	-200.000	-0.015	0.316
-64.378	800.000	-0.020	0.064
-63.363	413.734	-0.064	0.134
-62.349	-24.423	0.132	-0.078
-61.334	216.502	-0.549	-0.864
-60.319	175.528	0.339	0.486
-59.305	-200.000	0.076	-0.799
-58.290	66.010	0.755	0.757
-57.276	800.000	0.578	1.688
-56.261	-200.000	93.347	564.874
-55.246	556.849	1365.020	3252.213
-54.232	153.650	2572.898	3484.637
-53.217	116.581	2184.193	2648.391
-52.203	46.463	1724.117	1580.996
-51.188	38.992	1534.922	1356.110
-50.173	36.611	1506.845	1315.083
-49.159	55.778	1556.551	1491.320
-48.144	59.638	1576.103	1536.648
-47.130	39.483	1531.642	1356.376
-46.115	36.214	1516.435	1320.522
-45.100	36.072	1512.825	1316.355
-44.086	35.928	1511.297	1313.994
-43.071	35.905	1509.290	1312.037
-42.057	35.926	1507.568	1310.630
-41.042	35.881	1506.392	1309.251
-40.027	35.880	1505.331	1308.272
-39.013	35.820	1503.683	1306.382
-37.998	35.949	1502.184	1305.905
-36.984	35.872	1501.043	1304.334
-35.969	35.872	1499.799	1303.201
-34.954	35.919	1498.127	1302.018
-33.940	35.943	1496.995	1301.143
-32.925	35.991	1494.976	1299.663
-31.911	36.047	1494.169	1299.286
-30.896	35.975	1492.747	1297.509
-29.881	35.965	1491.810	1296.578
-28.867	36.024	1489.910	1295.274
-27.852	36.009	1488.591	1293.976
-26.838	35.918	1487.460	1292.326
-25.823	35.939	1485.650	1290.846
-24.809	35.983	1484.078	1289.724
-23.794	35.961	1482.541	1288.186
-22.779	36.004	1481.079	1287.153
-21.765	36.027	1480.396	1286.664
-20.750	35.922	1479.396	1285.044
-19.736	35.999	1477.983	1284.280
-18.721	35.906	1476.957	1282.714
-17.706	35.978	1475.587	1281.955
-16.692	35.961	1474.659	1280.980
-15.677	35.965	1473.880	1280.283
-14.663	35.993	1472.984	1279.639
-13.648	35.878	1471.858	1277.844
-12.633	35.861	1470.590	1276.580
-11.619	35.936	1470.374	1276.843
-10.604	35.929	1469.342	1275.850
-9.590	35.831	1468.469	1274.390
-8.575	35.975	1467.422	1274.383
-7.560	35.981	1466.432	1273.515
-6.546	35.886	1465.573	1272.091
-5.531	35.891	1464.932	1271.518
-4.517	35.945	1463.792	1270.829
-3.502	35.794	1463.452	1269.490
-2.487	35.886	1462.109	1268.881
-1.473	35.914	1461.043	1268.088
-0.458	35.915	1459.599	1266.791
0.556	35.785	1449.752	1255.120
1.571	32.692	1424.363	1213.164
2.586	29.166	1363.053	1139.081
3.600	27.435	1280.187	1059.674
4.615	25.873	1232.960	1011.729
5.629	21.820	1175.577	942.811
6.644	11.195	1087.096	818.660
7.659	2.923	1043.491	745.725
8.673	1.769	1037.750	735.978
9.688	1.690	1034.351	733.126
10.702	1.490	1032.964	731.116
11.717	1.581	1030.463	729.717
12.731	5.180	1035.457	750.512
13.746	15.310	1049.664	809.893
14.761	22.869	1059.264	853.928
15.775	24.305	1060.640	861.909
16.790	24.541	1059.443	861.998
17.804	24.423	1059.263	861.207
18.819	24.259	1057.810	859.159
19.834	24.183	1057.758	858.678
20.848	24.400	1057.616	859.532
21.863	24.399	1056.944	858.901
22.877	24.534	1056.424	859.052
23.892	24.433	1056.017	858.160
24.907	24.317	1055.138	856.814
25.921	24.377	1054.737	856.699
26.936	24.449	1053.273	855.779
27.950	24.447	1052.441	855.020
28.965	24.290	1051.329	853.288
29.980	24.182	1049.762	851.424
30.994	24.164	1048.311	850.085
32.009	24.494	1047.906	851.258
33.023	24.406	1047.319	850.286
34.038	24.262	1046.435	848.807
35.053	24.259	1045.354	847.841
36.067	24.319	1045.246	847.966
37.082	24.468	1043.714	847.353
38.096	24.509	1043.141	847.006
39.111	24.661	1042.880	847.439
40.126	24.582	1042.290	846.514
41.140	24.668	1040.427	845.332
42.155	24.288	1039.255	842.507
43.169	24.083	1037.950	840.409
44.184	23.934	1037.139	838.974
45.199	24.014	1036.096	838.432
46.213	23.959	1035.084	837.284
47.228	24.023	1034.486	837.025
48.242	24.093	1033.513	836.493
49.257	24.280	1032.816	836.735
50.271	24.265	1032.093	836.001
51.286	24.415	1031.597	836.231
52.301	24.458	1030.846	835.750
53.315	24.319	1030.163	834.470
54.330	24.416	1029.021	833.923
55.344	24.391	1028.124	833.007
56.359	24.309	1027.501	832.046
57.374	24.315	1026.607	831.278
58.388	24.205	1025.837	830.066
59.403	24.098	1025.172	828.957
60.417	24.250	1024.144	828.761
61.432	23.971	1023.626	826.970
62.447	23.967	1022.996	826.371
63.461	24.216	1022.030	826.670
64.476	24.241	1021.202	826.046
65.490	24.150	1020.517	824.994
66.505	24.057	1019.597	823.748
67.520	24.129	1019.044	823.562
68.534	24.077	1018.252	822.611
69.549	24.033	1017.336	821.592
70.563	23.660	1016.025	818.743
71.578	23.441	1015.770	817.457
72.593	23.740	1014.453	817.698
73.607	23.624	1013.073	815.979
74.622	23.508	1012.381	814.820
75.636	23.919	1012.280	816.553
76.651	23.906	1011.687	815.944
77.666	23.863	1010.725	814.896
78.680	23.710	1009.974	813.520
79.695	23.688	1009.089	812.635
80.709	23.904	1008.683	813.224
81.724	23.979	1007.786	812.770
82.739	23.968	1006.832	811.880
83.753	24.051	1005.889	811.426
84.768	24.262	1005.583	812.066
85.782	24.412	1005.477	812.593
86.797	24.703	1004.136	812.761
87.812	24.678	1003.586	812.127
88.826	24.414	1002.698	810.142
89.841	24.466	1002.098	809.820
90.855	24.639	1000.842	809.518
91.870	24.645	1000.206	808.956
92.884	24.389	999.662	807.291
93.899	24.616	998.192	807.056
94.914	24.542	997.315	805.940
95.928	24.632	996.978	806.006
96.943	24.490	996.496	804.902
97.957	24.253	995.006	802.560
98.972	23.997	993.994	800.521
99.987	23.831	992.662	798.631
101.001	23.897	992.276	798.549
102.016	24.229	991.903	799.667
103.030	24.422	990.894	799.649
104.045	24.363	989.594	798.264
105.060	24.132	988.399	796.195
106.074	23.923	987.524	794.489
107.089	23.999	986.730	794.117
108.103	24.305	986.637	795.339
109.118	24.448	985.265	794.800
110.133	24.150	984.371	792.684
111.147	24.093	983.409	791.582
112.162	24.059	981.941	790.180
113.176	23.902	980.598	788.335
114.191	23.907	980.486	788.194
115.206	23.990	979.733	787.887
116.220	23.693	978.374	785.412
117.235	23.495	977.549	783.805
118.249	23.702	977.071	784.268
119.264	23.802	976.242	783.973
120.279	23.794	975.095	782.949
121.293	23.660	974.618	781.905
122.308	23.750	973.829	781.598
123.322	23.770	973.041	780.986
124.337	23.680	972.043	779.720
125.352	23.653	970.707	778.461
126.366	23.283	968.819	775.262
127.381	22.930	967.519	772.605
128.395	23.371	967.497	774.447
129.410	24.104	966.850	777.061
130.424	24.192	966.507	777.102
131.439	24.374	965.104	776.698
132.454	24.334	963.889	775.476
133.468	24.212	963.508	774.570
134.483	24.181	962.857	773.845
135.497	24.133	962.260	773.089
136.512	24.357	961.712	773.550
137.527	24.453	961.360	773.614
138.541	24.560	959.987	772.906
139.556	24.535	959.225	772.117
140.570	24.579	958.627	771.756
141.585	24.548	957.690	770.802
142.600	24.577	956.987	770.292
143.614	24.464	955.810	768.787
144.629	24.574	955.117	768.636
145.643	24.816	954.612	769.203
146.658	24.644	953.846	767.779
147.673	24.562	952.211	766.046
148.687	24.539	951.048	764.944
149.702	24.305	950.146	763.149
150.716	24.152	949.352	761.788
151.731	24.242	948.495	761.419
152.746	24.265	947.498	760.646
153.760	24.470	947.087	761.124
154.775	24.723	946.078	761.321
155.789	24.771	945.172	760.731
156.804	24.742	944.365	759.892
157.819	24.530	943.287	758.055
158.833	24.604	942.923	758.009
159.848	24.653	942.235	757.597
160.862	24.844	941.189	757.497
161.877	24.693	940.170	755.973
162.892	24.690	939.336	755.222
163.906	24.614	938.732	754.351
164.921	24.631	938.181	753.913
165.935	24.578	936.414	752.203
166.950	24.645	935.579	751.749
167.964	24.661	934.645	750.998
168.979	24.608	933.682	749.936
169.994	24.652	932.378	749.005
171.008	24.464	931.608	747.531
172.023	24.574	931.075	747.498
173.037	24.677	930.495	747.398
174.052	24.498	929.290	745.616
175.067	24.370	928.085	744.049
176.081	24.317	927.349	743.172
177.096	24.427	926.588	742.955
178.110	24.486	925.644	742.381
179.125	24.360	924.410	740.800
180.140	24.012	923.491	738.554
181.154	24.024	922.800	737.987
182.169	24.031	922.820	737.967
183.183	24.274	922.420	738.589
184.198	24.526	922.031	739.256
185.213	24.537	921.131	738.513
186.227	24.599	920.085	737.865
187.242	24.426	920.145	737.132
188.256	24.609	919.187	737.053
189.271	24.569	918.384	736.180
190.286	24.769	917.381	736.134
191.300	24.470	917.059	734.581
192.315	24.097	915.299	731.577
193.329	23.355	913.797	727.265
194.344	22.783	913.185	724.366
195.359	23.410	913.114	726.820
196.373	24.233	913.786	730.665
197.388	24.544	913.111	731.333
198.402	24.475	912.580	730.563
199.417	24.535	911.711	730.048
200.432	24.320	911.859	729.222
201.446	24.268	910.801	728.101
202.461	24.004	910.252	726.519
203.475	24.153	909.446	726.416
204.490	23.792	907.804	723.572
205.504	22.529	905.751	716.739
206.519	22.878	906.068	718.343
207.534	24.054	906.120	723.102
208.548	24.214	905.691	723.344
209.563	24.498	905.409	724.207
210.577	24.447	904.510	723.219
211.592	24.242	903.676	721.658
212.607	24.414	903.793	722.383
213.621	24.763	903.147	723.214
214.636	24.629	902.658	722.217
215.650	24.679	902.065	721.883
216.665	24.691	901.554	721.458
217.680	24.729	900.824	720.962
218.694	24.681	900.489	720.436
219.709	24.384	899.612	718.476
220.723	24.069	898.783	716.484
221.738	24.307	898.340	717.022
222.753	24.563	897.683	717.463
223.767	24.500	896.883	716.510
224.782	24.541	896.119	715.997
225.796	24.595	895.706	715.820
226.811	24.876	895.229	716.503
227.826	24.440	893.953	713.675
228.840	23.620	892.661	709.305
229.855	23.487	891.878	708.087
230.869	23.785	891.834	709.182
231.884	23.407	890.606	706.634
232.899	23.426	890.194	706.321
233.913	24.217	890.217	709.426
234.928	24.508	890.083	710.417
235.942	24.371	889.029	708.965
236.957	24.281	888.562	708.176
237.972	24.056	887.316	706.226
238.986	23.907	886.947	705.279
240.001	24.163	886.431	705.820
241.015	24.149	885.958	705.326
242.030	24.157	885.193	704.685
243.045	24.294	884.694	704.769
244.059	24.547	883.864	705.043
245.074	24.729	883.582	705.473
246.088	24.599	882.912	704.363
247.103	24.243	881.710	701.941
248.117	24.187	881.559	701.539
249.132	24.736	881.329	703.455
250.147	25.114	881.233	704.802
251.161	25.258	880.546	704.755
252.176	25.322	880.334	704.776
253.190	25.434	879.283	704.311
254.205	25.415	879.418	704.280
255.220	25.580	878.994	704.524
256.234	25.567	877.956	703.580
257.249	25.393	877.608	702.557
258.263	25.283	876.752	701.380
259.278	25.316	876.126	700.946
260.293	25.420	875.600	700.868
261.307	25.451	875.199	700.610
262.322	25.305	874.504	699.419
263.336	25.225	874.031	698.670
264.351	24.682	872.659	695.400
265.366	23.528	870.742	689.328
266.380	23.229	869.806	687.367
267.395	24.230	870.017	691.356
268.409	25.061	870.284	694.731
269.424	25.094	869.044	693.808
270.439	24.942	869.182	693.269
271.453	25.209	868.530	693.719
272.468	25.350	867.761	693.589
273.482	25.440	867.399	693.586
274.497	25.383	867.271	693.199
275.512	25.233	866.019	691.559
276.526	24.607	864.718	688.052
277.541	24.913	864.067	688.650
278.555	25.222	864.296	689.957
279.570	25.122	863.421	688.815
280.585	24.735	863.045	686.967
281.599	24.960	861.752	686.742
282.614	25.200	861.533	687.426
283.628	24.758	860.183	684.595
284.643	24.237	859.822	682.253
285.657	24.652	860.049	683.965
286.672	24.607	858.955	682.861
287.687	24.090	858.005	680.070
288.701	24.390	858.085	681.218
289.716	24.860	857.401	682.409
290.730	24.479	856.927	680.518
291.745	24.454	856.120	679.724
292.760	24.140	855.458	677.943
293.774	24.143	854.575	677.192
294.789	24.987	855.475	681.056
295.803	25.664	855.164	683.320
296.818	25.607	854.568	682.567
297.833	25.794	853.799	682.604
298.847	25.558	853.087	681.080
299.862	25.261	851.967	679.003
300.876	25.273	851.657	678.739
301.891	25.622	851.642	679.985
302.906	25.763	850.674	679.687
303.920	25.418	849.616	677.481
304.935	25.113	849.368	676.071
305.949	25.607	849.081	677.644
306.964	25.720	848.479	677.531
307.979	25.441	847.672	675.775
308.993	25.371	847.198	675.076
310.008	25.807	846.635	676.204
311.022	25.929	846.350	676.374
312.037	25.715	846.095	675.308
313.052	25.339	845.266	673.178
314.066	25.322	844.525	672.465
315.081	24.593	843.251	668.664
316.095	23.902	841.740	664.822
317.110	24.486	842.309	667.398
318.125	25.385	842.141	670.562
319.139	24.951	841.323	668.235
320.154	23.880	839.248	662.541
321.168	23.328	838.534	659.862
322.183	23.914	838.629	662.058
323.197	24.875	839.187	666.019
324.212	25.204	838.958	667.001
325.227	25.333	838.579	667.120
326.241	25.432	838.183	667.113
327.256	25.524	837.386	666.761
328.270	25.376	836.526	665.471
329.285	25.205	836.224	664.538
330.300	24.946	835.525	662.966
331.314	24.874	834.418	661.761
332.329	24.820	834.111	661.259
333.343	25.341	833.738	662.829
334.358	25.596	833.229	663.305
335.373	25.742	832.363	663.096
336.387	25.648	832.309	662.649
337.402	25.787	832.281	663.078
338.416	26.029	831.969	663.664
339.431	25.909	831.337	662.657
340.446	26.006	830.480	662.273
341.460	26.072	830.190	662.224
342.475	25.982	829.761	661.494
343.489	25.835	828.800	660.131
344.504	25.878	828.153	659.714
345.519	26.198	827.848	660.583
346.533	26.192	827.727	660.406
347.548	26.589	827.155	661.344
348.562	26.575	826.973	661.087
349.577	26.287	826.490	659.591
350.592	26.450	825.474	659.318
351.606	26.406	825.007	658.725
352.621	26.223	824.561	657.646
353.635	26.225	823.976	657.126
354.650	26.227	823.614	656.788
355.665	25.806	822.503	654.316
356.679	24.772	821.031	649.335
357.694	24.590	820.170	647.936
358.708	25.338	820.223	650.634
359.723	25.393	819.592	650.275
360.738	25.432	819.761	650.492
361.752	26.050	819.312	652.312
362.767	25.936	819.435	651.941
363.781	26.225	819.329	652.843
364.796	26.521	818.965	653.565
365.810	26.641	818.649	653.688
366.825	26.764	818.317	653.808
367.840	26.603	818.029	652.938
368.854	26.556	816.945	651.848
369.869	26.240	815.692	649.655
370.883	25.979	815.335	648.372
371.898	25.972	815.342	648.296
372.913	26.153	813.910	647.750
373.927	26.066	813.630	647.159
374.942	26.204	813.425	647.434
375.956	26.317	812.399	646.962
376.971	26.339	811.867	646.561
377.986	26.388	811.785	646.612
379.000	26.536	811.665	646.991
380.015	26.607	810.731	646.442
381.029	26.586	810.166	645.861
382.044	26.595	809.242	645.099
383.059	26.511	809.475	644.929
384.073	26.691	808.775	644.955
385.088	26.804	808.371	644.977
386.102	26.707	807.528	643.900
387.117	26.571	806.645	642.658
388.132	26.490	806.237	641.988
389.146	26.202	805.499	640.322
390.161	25.720	804.313	637.615
391.175	25.750	804.044	637.454
392.190	26.446	804.057	639.869
393.205	26.326	803.713	639.116
394.219	25.398	802.259	634.624
395.234	23.789	800.025	627.128
396.248	22.962	799.168	623.486
397.263	24.146	799.612	627.952
398.278	25.737	801.225	634.780
399.292	26.189	800.931	636.083
400.307	25.940	800.200	634.568
401.321	26.024	799.675	634.393
402.336	25.957	799.387	633.873
403.350	26.208	799.312	634.639
404.365	26.722	799.410	636.464
405.380	26.999	799.042	637.087
406.394	27.131	799.177	637.603
407.409	27.412	798.880	638.296
408.423	27.462	798.030	637.736
409.438	27.386	796.965	636.561
410.453	27.390	796.898	636.464
411.467	27.471	796.762	636.584
412.482	27.435	796.093	635.869
413.496	27.284	795.367	634.703
414.511	27.452	795.121	635.038
415.526	27.326	795.140	634.556
416.540	27.211	794.980	633.973
417.555	27.336	794.013	633.580
418.569	27.110	793.132	632.035
419.584	27.015	792.664	631.278
420.599	27.300	792.078	631.745
421.613	106.406	1276.713	1436.548
422.628	91.444	1347.331	1436.686
