DTS Sentinel unit serial number:	SN413079Multiplexer serial number:	ORYXHardware model number:	OX4-SRSoftware version number:	ORYX F/W v4.00 Oryx Data Collector v3.7.2.0data status	okinstallation	princeton_trtdifferential loss correction	single-endedforward channel	channel 3reverse channel	N/Adate	2019/09/11time	18:26:10forward acquisition time	60.00reverse acquisition time	0.00gamma	496.2192k internal	0.2287k external	0.2287temperature offset calibration	0.9997default loss term (dB/km)	0.3790temperature slope calibration	1.0000multiplexer offset coefficient	1.0000multiplexer slope coefficient	1.0000fibre end	0.00T internal ref (°C)	43.94T ext. ref 1 (°C)	1.15T ext. ref 2 (°C)	37.81length (m)	temperature (°C)	Stokes	anti-Stokes-747.200	-39.930	-0.016	-0.009
-746.185	800.000	-0.098	0.371
-745.171	-160.934	-0.105	0.006
-744.156	-153.533	-0.136	0.010
-743.142	54.993	0.176	0.174
-742.127	-50.754	0.053	0.026
-741.112	-70.433	-0.072	0.028
-740.098	800.000	0.079	0.276
-739.083	153.284	0.168	-0.236
-738.069	171.855	-0.083	-0.122
-737.054	-37.764	-0.015	0.008
-736.039	800.000	-0.160	0.467
-735.025	-142.395	0.436	0.044
-734.010	30.228	-0.173	0.152
-732.996	-200.000	0.025	-0.398
-731.981	-66.845	-0.075	0.030
-730.966	19.836	0.248	-0.205
-729.952	-12.446	-0.097	-0.065
-728.937	-186.679	-0.347	-0.005
-727.923	-112.544	-0.295	-0.060
-726.908	-173.054	-0.287	0.009
-725.894	-27.653	-0.234	-0.139
-724.879	-107.242	-0.148	-0.033
-723.864	-84.889	-0.223	0.072
-722.850	-68.587	0.190	-0.075
-721.835	-60.349	0.113	0.049
-720.821	-36.090	0.187	-0.104
-719.806	234.988	0.164	0.278
-718.791	-147.292	0.192	-0.017
-717.777	-177.078	0.324	0.008
-716.762	224.266	0.112	-0.186
-715.748	-135.992	-0.333	0.040
-714.733	323.743	-0.201	0.394
-713.718	-94.183	-0.239	-0.067
-712.704	800.000	-0.112	0.339
-711.689	-64.213	-0.214	0.089
-710.675	800.000	-0.086	0.300
-709.660	-115.014	0.216	0.042
-708.645	-197.268	0.094	0.001
-707.631	-200.000	0.015	-0.128
-706.616	-158.176	-0.282	-0.017
-705.602	69.038	-0.207	0.218
-704.587	-88.006	-0.151	-0.046
-703.572	-88.430	-0.243	-0.074
-702.558	-131.847	-0.209	0.028
-701.543	-200.000	-0.006	-0.108
-700.529	-154.416	0.220	-0.015
-699.514	709.336	0.067	-0.180
-698.499	69.834	-0.098	-0.103
-697.485	-200.000	0.002	0.154
-696.470	-87.153	0.134	0.042
-695.456	350.570	-0.047	0.095
-694.441	182.979	-0.117	0.178
-693.426	-41.918	-0.287	-0.151
-692.412	516.073	0.098	0.235
-691.397	800.000	-0.132	0.461
-690.383	-87.857	0.229	0.071
-689.368	4.174	-0.167	-0.125
-688.354	800.000	0.069	0.280
-687.339	-200.000	0.003	-0.040
-686.324	800.000	-0.056	-0.209
-685.310	-200.000	-0.022	-0.116
-684.295	92.559	-0.132	0.152
-683.281	-36.244	-0.335	-0.185
-682.266	50.159	0.093	-0.090
-681.251	24.637	0.210	0.178
-680.237	16.617	-0.088	-0.071
-679.222	-96.124	-0.317	-0.086
-678.208	-200.000	0.154	-0.000
-677.193	-91.376	0.139	-0.041
-676.178	39.596	-0.235	-0.216
-675.164	-159.569	-0.055	0.003
-674.149	236.928	-0.159	0.269
-673.135	-126.139	-0.086	-0.013
-672.120	-169.582	0.032	0.001
-671.105	800.000	0.137	0.461
-670.091	-39.916	0.040	0.021
-669.076	144.419	-0.132	-0.181
-668.062	-200.000	-0.022	0.176
-667.047	-142.411	-0.431	-0.043
-666.032	-200.000	0.005	0.075
-665.018	-196.767	0.242	-0.002
-664.003	-192.101	-0.089	-0.001
-662.989	609.010	0.126	-0.320
-661.974	-200.000	0.038	0.327
-660.959	86.411	-0.176	-0.198
-659.945	355.072	0.118	-0.241
-658.930	-159.058	-0.172	0.010
-657.916	-55.552	-0.189	-0.087
-656.901	53.396	-0.057	0.056
-655.886	-65.318	-0.162	0.067
-654.872	-200.000	0.013	-0.128
-653.857	548.343	0.035	-0.086
-652.843	-89.194	0.272	0.082
-651.828	193.880	-0.063	-0.098
-650.814	-200.000	0.036	0.256
-649.799	-200.000	-0.035	-0.269
-648.784	201.547	-0.236	-0.372
-647.770	800.000	-0.168	-0.476
-646.755	-25.051	-0.260	-0.157
-645.741	347.927	0.085	0.171
-644.726	378.818	-0.052	-0.108
-643.711	-46.151	0.076	0.038
-642.697	5.983	0.162	0.123
-641.682	-200.000	-0.069	-0.359
-640.668	-35.129	-0.202	-0.113
-639.653	2.591	-0.082	-0.060
-638.638	-110.467	0.234	0.050
-637.624	-80.818	-0.324	0.110
-636.609	-200.000	-0.045	0.306
-635.595	182.649	0.039	-0.059
-634.580	-62.696	-0.183	-0.077
-633.565	146.130	-0.175	0.240
-632.551	-74.118	-0.129	-0.048
-631.536	-145.787	-0.114	0.010
-630.522	800.000	0.160	0.487
-629.507	-51.499	-0.226	-0.108
-628.492	-200.000	-0.011	-0.150
-627.478	-115.101	0.230	-0.045
-626.463	-124.607	0.182	0.029
-625.449	686.102	-0.080	-0.213
-624.434	77.496	-0.021	-0.023
-623.419	-200.000	-0.051	-0.257
-622.405	-77.428	0.137	0.048
-621.390	45.340	0.222	0.209
-620.376	-21.038	0.379	0.237
-619.361	-200.000	0.027	-0.145
-618.346	-77.408	0.253	-0.090
-617.332	-200.000	0.074	-0.459
-616.317	100.627	-0.186	-0.221
-615.303	49.547	-0.193	0.186
-614.288	133.889	-0.102	-0.134
-613.273	-200.000	-0.047	-0.326
-612.259	-135.713	-0.207	0.025
-611.244	-16.769	-0.055	0.036
-610.230	188.225	0.224	0.342
-609.215	-133.456	0.135	-0.017
-608.201	-14.027	0.150	-0.099
-607.186	78.572	-0.195	0.213
-606.171	10.774	0.373	0.290
-605.157	373.949	-0.051	0.105
-604.142	444.184	-0.221	0.494
-603.128	216.139	-0.097	0.157
-602.113	-200.000	-0.004	-0.197
-601.098	800.000	-0.099	0.299
-600.084	-200.000	-0.019	0.110
-599.069	244.089	-0.087	-0.149
-598.055	-24.798	0.293	-0.177
-597.040	-47.476	-0.295	0.146
-596.025	-200.000	-0.046	0.328
-595.011	-60.739	-0.067	-0.029
-593.996	144.627	-0.131	0.179
-592.982	-110.731	0.044	0.009
-591.967	228.932	-0.123	-0.205
-590.952	-106.025	0.295	0.068
-589.938	-88.432	0.073	0.022
-588.923	-121.772	-0.259	0.044
-587.909	447.784	-0.036	0.081
-586.894	156.462	-0.118	0.167
-585.879	-123.308	0.153	0.025
-584.865	672.539	0.097	-0.255
-583.850	-200.000	0.021	0.000
-582.836	-88.977	-0.553	-0.167
-581.821	-181.717	0.196	0.004
-580.806	-131.284	0.111	0.015
-579.792	-111.551	0.436	-0.090
-578.777	-200.000	-0.019	0.204
-577.763	-200.000	0.001	0.084
-576.748	800.000	0.073	-0.287
-575.733	416.359	0.107	0.233
-574.719	-161.441	0.102	0.005
-573.704	-199.174	0.244	0.001
-572.690	187.944	-0.135	0.206
-571.675	77.134	-0.257	0.278
-570.661	348.659	0.203	-0.409
-569.646	-88.857	0.173	0.052
-568.631	-144.274	0.295	-0.028
-567.617	142.648	-0.189	-0.255
-566.602	5.684	-0.381	-0.287
-565.588	-200.000	0.016	0.327
-564.573	0.977	-0.184	-0.134
-563.558	131.997	-0.217	-0.285
-562.544	-49.967	0.254	0.123
-561.529	-104.346	-0.094	-0.022
-560.515	5.509	-0.246	-0.185
-559.500	122.730	-0.129	0.164
-558.485	800.000	0.065	-0.277
-557.471	-24.941	-0.110	-0.067
-556.456	130.868	-0.188	0.245
-555.442	-70.405	-0.303	0.117
-554.427	8.266	0.182	0.140
-553.412	90.216	-0.089	-0.102
-552.398	204.816	-0.011	0.017
-551.383	800.000	0.048	0.140
-550.369	116.290	-0.191	0.238
-549.354	269.084	0.065	-0.116
-548.339	-61.242	-0.150	0.064
-547.325	-200.000	0.026	-0.141
-546.310	258.545	0.065	0.114
-545.296	-200.000	-0.003	-0.372
-544.281	-200.000	-0.067	-0.326
-543.266	-126.161	-0.149	-0.023
-542.252	800.000	-0.071	0.241
-541.237	-129.142	0.264	0.038
-540.223	-40.703	0.098	0.052
-539.208	519.213	-0.101	0.240
-538.193	43.338	-0.090	0.084
-537.179	14.334	0.132	-0.105
-536.164	-200.000	0.011	0.082
-535.150	31.367	0.158	-0.138
-534.135	-127.710	0.194	-0.028
-533.121	-127.042	0.169	-0.025
-532.106	800.000	0.021	-0.071
-531.091	24.616	0.163	-0.137
-530.077	-36.987	-0.236	-0.129
-529.062	-87.681	-0.238	0.073
-528.048	7.673	0.098	-0.075
-527.033	-200.000	0.021	0.121
-526.018	800.000	0.038	0.111
-525.004	128.944	0.138	0.180
-523.989	219.636	0.076	-0.124
-522.975	581.038	-0.102	0.253
-521.960	261.216	0.217	0.382
-520.945	-16.902	-0.201	-0.129
-519.931	23.956	-0.128	-0.107
-518.916	101.889	-0.109	0.130
-517.902	-200.000	0.000	0.214
-516.887	207.092	-0.127	0.201
-515.872	7.508	0.113	0.086
-514.858	-32.583	-0.149	0.085
-513.843	-177.122	-0.081	-0.002
-512.829	-164.333	-0.181	-0.008
-511.814	-26.043	0.168	0.101
-510.799	84.359	-0.212	0.235
-509.785	188.861	0.131	0.199
-508.770	-137.968	0.273	-0.031
-507.756	54.441	0.094	-0.092
-506.741	-18.251	0.306	0.195
-505.726	246.847	0.026	-0.045
-504.712	800.000	-0.042	-0.156
-503.697	136.249	0.258	0.342
-502.683	-99.988	0.131	-0.033
-501.668	-59.872	-0.260	0.113
-500.653	661.287	-0.067	0.175
-499.639	336.440	0.050	-0.098
-498.624	-70.308	-0.243	0.094
-497.610	-106.068	-0.104	0.024
-496.595	-200.000	0.261	-0.001
-495.581	-200.000	0.003	0.049
-494.566	-154.525	-0.369	-0.025
-493.551	183.646	-0.327	0.491
-492.537	298.780	0.108	0.201
-491.522	-45.373	-0.188	-0.095
-490.508	-27.372	-0.405	0.239
-489.493	729.983	-0.051	-0.139
-488.478	65.014	-0.220	-0.226
-487.464	-31.522	-0.070	0.040
-486.449	-200.000	0.003	-0.059
-485.435	193.331	0.134	-0.205
-484.420	-200.000	0.027	-0.251
-483.405	286.634	0.022	0.041
-482.391	186.507	-0.059	0.089
-481.376	-56.458	0.213	0.096
-480.362	355.097	0.100	0.202
-479.347	-177.314	-0.301	-0.008
-478.332	-102.392	0.141	0.034
-477.318	-200.000	-0.094	0.451
-476.303	800.000	-0.026	0.112
-475.289	800.000	0.048	0.145
-474.274	-74.188	-0.242	0.089
-473.259	100.939	0.291	0.343
-472.245	70.644	-0.161	-0.169
-471.230	-64.739	-0.264	0.108
-470.216	-81.156	-0.126	0.042
-469.201	800.000	0.035	0.133
-468.186	768.487	-0.057	-0.157
-467.172	800.000	0.095	-0.295
-466.157	800.000	-0.062	0.175
-465.143	-200.000	-0.035	0.185
-464.128	-155.462	0.048	-0.003
-463.113	-200.000	0.040	-0.255
-462.099	-169.774	-0.195	-0.007
-461.084	-39.538	0.085	0.045
-460.070	-129.270	-0.383	-0.054
-459.055	-200.000	0.081	0.414
-458.040	800.000	-0.026	0.073
-457.026	66.610	0.163	-0.168
-456.011	-200.000	-0.056	0.292
-454.997	-186.750	0.147	0.002
-453.982	-60.907	0.302	-0.130
-452.968	-97.797	-0.273	0.071
-451.953	117.211	0.215	-0.268
-450.938	149.277	-0.221	0.304
-449.924	130.881	-0.156	-0.203
-448.909	627.391	0.145	-0.372
-447.895	-17.045	0.214	0.137
-446.880	48.574	-0.125	-0.119
-445.865	-200.000	-0.006	-0.215
-444.851	-0.650	0.134	0.096
-443.836	-133.559	0.452	-0.057
-442.822	358.816	0.104	0.210
-441.807	679.474	0.008	0.021
-440.792	-102.697	0.195	0.047
-439.778	-80.185	0.069	0.023
-438.763	37.070	-0.134	-0.120
-437.749	800.000	-0.036	0.102
-436.734	-56.718	-0.242	-0.109
-435.719	-40.089	-0.188	0.099
-434.705	-58.993	-0.093	0.040
-433.690	517.096	-0.115	-0.272
-432.676	800.000	-0.101	-0.365
-431.661	17.430	-0.064	-0.052
-430.646	-65.004	-0.177	0.073
-429.632	543.606	-0.064	0.156
-428.617	-104.664	0.309	0.072
-427.603	-165.646	-0.101	0.004
-426.588	386.364	-0.029	-0.060
-425.573	-4.402	0.113	-0.079
-424.559	48.263	0.117	0.111
-423.544	-159.522	0.142	0.008
-422.530	-23.680	0.212	-0.129
-421.515	-6.934	-0.112	-0.077
-420.500	800.000	0.040	0.135
-419.486	-200.000	-0.000	-0.386
-418.471	-162.928	0.175	0.009
-417.457	800.000	0.040	-0.144
-416.442	92.932	-0.260	0.298
-415.428	519.174	0.076	0.181
-414.413	-17.508	0.213	0.136
-413.398	474.097	0.079	0.181
-412.384	28.765	0.069	0.059
-411.369	568.830	0.042	-0.104
-410.355	800.000	0.098	0.405
-409.340	-10.113	0.134	0.090
-408.325	-61.351	-0.179	-0.076
-407.311	0.055	-0.189	0.137
-406.296	-45.182	0.243	0.122
-405.282	-19.558	-0.183	-0.114
-404.267	-86.181	-0.151	0.047
-403.252	800.000	0.068	0.219
-402.238	250.961	0.114	0.197
-401.223	-200.000	0.046	0.323
-400.209	-200.000	0.016	-0.191
-399.194	180.207	-0.116	-0.173
-398.179	800.000	0.119	0.399
-397.165	76.331	-0.133	0.142
-396.150	305.159	-0.207	-0.388
-395.136	731.064	-0.093	-0.251
-394.121	-200.000	0.015	-0.094
-393.106	-72.509	0.258	-0.097
-392.092	-129.770	0.048	0.007
-391.077	-67.626	-0.177	0.070
-390.063	44.112	-0.205	0.190
-389.048	74.927	-0.162	0.172
-388.033	212.153	-0.071	0.113
-387.019	800.000	-0.084	-0.369
-386.004	-78.274	0.069	-0.024
-384.990	-200.000	-0.003	-0.108
-383.975	-144.773	-0.241	0.022
-382.960	2.382	0.222	0.163
-381.946	-114.011	0.020	-0.004
-380.931	800.000	-0.070	-0.223
-379.917	-5.414	-0.096	-0.066
-378.902	-69.965	0.024	0.009
-377.888	800.000	-0.054	-0.226
-376.873	-38.118	0.174	-0.093
-375.858	-121.242	-0.239	-0.040
-374.844	-191.282	0.158	-0.002
-373.829	-60.881	-0.175	-0.075
-372.815	-37.834	-0.140	0.075
-371.800	68.324	0.108	0.112
-370.785	-200.000	0.028	-0.143
-369.771	-115.430	-0.155	0.030
-368.756	195.457	0.296	-0.454
-367.742	319.336	-0.005	0.010
-366.727	-92.115	-0.062	-0.018
-365.712	113.442	-0.186	0.229
-364.698	-43.040	-0.150	-0.077
-363.683	-129.400	0.265	-0.037
-362.669	283.303	0.033	0.060
-361.654	-200.000	0.028	-0.256
-360.639	325.134	0.059	0.113
-359.625	55.133	0.171	0.167
-358.610	194.305	0.222	0.339
-357.596	726.345	0.053	-0.143
-356.581	-99.151	-0.240	0.061
-355.566	-69.181	-0.289	-0.112
-354.552	480.254	0.005	-0.011
-353.537	-97.189	0.108	-0.029
-352.523	-200.000	0.061	0.342
-351.508	-109.661	-0.031	-0.007
-350.493	-180.467	0.453	0.009
-349.479	-190.991	-0.195	-0.002
-348.464	-80.986	-0.327	-0.109
-347.450	-17.535	-0.273	0.173
-346.435	102.176	-0.043	0.051
-345.420	-200.000	0.008	0.181
-344.406	-200.000	-0.092	-0.564
-343.391	-200.000	0.004	-0.061
-342.377	-85.829	-0.212	0.066
-341.362	-200.000	-0.001	-0.009
-340.348	-103.619	0.047	0.011
-339.333	237.411	0.205	-0.343
-338.318	-200.000	0.028	-0.125
-337.304	-73.292	0.410	0.151
-336.289	1.354	-0.321	-0.233
-335.275	23.028	-0.152	0.126
-334.260	64.223	0.106	-0.108
-333.245	-29.433	-0.082	-0.047
-332.231	-141.998	-0.282	0.028
-331.216	249.663	0.068	-0.117
-330.202	-66.393	-0.260	0.104
-329.187	-10.884	-0.185	0.123
-328.172	75.094	-0.075	0.080
-327.158	414.609	-0.123	-0.265
-326.143	31.068	0.121	0.104
-325.129	422.163	0.047	-0.102
-324.114	334.958	-0.137	0.267
-323.099	-200.000	-0.026	0.267
-322.085	-161.752	0.115	-0.006
-321.070	800.000	-0.070	0.204
-320.056	16.842	-0.192	0.153
-319.041	518.607	-0.179	-0.423
-318.026	136.808	-0.083	0.110
-317.012	10.592	-0.153	-0.118
-315.997	-76.853	0.151	-0.053
-314.983	-200.000	0.005	-0.234
-313.968	-200.000	-0.018	0.280
-312.953	-69.295	-0.181	0.070
-311.939	117.624	-0.021	0.026
-310.924	-61.938	0.108	-0.046
-309.910	131.275	0.166	0.215
-308.895	-85.728	0.252	0.079
-307.880	59.958	-0.022	-0.022
-306.866	-12.090	-0.160	-0.106
-305.851	45.168	0.028	-0.026
-304.837	-13.520	0.235	0.153
-303.822	-39.774	0.232	-0.122
-302.807	-74.349	0.240	0.087
-301.793	167.126	-0.203	-0.290
-300.778	698.176	-0.041	0.109
-299.764	800.000	-0.068	0.244
-298.749	-135.055	-0.233	-0.028
-297.735	164.009	0.072	0.103
-296.720	800.000	0.027	-0.077
-295.705	-35.316	-0.176	-0.096
-294.691	272.953	0.051	0.090
-293.676	-158.854	0.044	0.003
-292.662	-58.862	0.222	0.097
-291.647	781.377	-0.116	-0.320
-290.632	99.609	0.157	-0.183
-289.618	-200.000	0.046	0.214
-288.603	-19.538	0.231	0.144
-287.589	251.443	0.057	-0.097
-286.574	453.751	0.035	0.077
-285.559	29.329	-0.137	-0.117
-284.545	-55.578	-0.175	0.079
-283.530	800.000	0.035	0.119
-282.516	-71.453	0.105	0.040
-281.501	110.116	-0.121	-0.147
-280.486	800.000	-0.141	-0.458
-279.472	308.732	-0.109	-0.205
-278.457	243.988	-0.174	-0.294
-277.443	-110.135	0.207	-0.043
-276.428	-98.588	0.178	0.046
-275.413	66.829	0.167	-0.171
-274.399	-5.013	-0.269	-0.186
-273.384	0.088	0.262	-0.188
-272.370	-45.805	0.335	-0.167
-271.355	-112.778	0.199	-0.040
-270.340	800.000	-0.099	-0.373
-269.326	-23.589	0.335	0.202
-268.311	-37.761	-0.083	0.045
-267.297	62.862	-0.067	0.067
-266.282	164.287	-0.181	-0.257
-265.267	-72.358	0.502	-0.187
-264.253	18.354	0.235	-0.189
-263.238	-38.993	-0.204	-0.108
-262.224	-109.604	0.180	-0.038
-261.209	-200.000	-0.062	0.335
-260.195	39.248	0.064	0.058
-259.180	-200.000	-0.052	-0.254
-258.165	407.155	-0.140	-0.299
-257.151	-200.000	-0.015	-0.104
-256.136	-200.000	-0.047	-0.274
-255.122	215.154	-0.121	-0.194
-254.107	800.000	-0.103	0.291
-253.092	76.668	0.140	0.149
-252.078	-17.991	0.367	0.232
-251.063	408.454	0.091	-0.194
-250.049	131.293	-0.026	-0.033
-249.034	104.006	0.113	-0.134
-248.019	-149.679	0.294	-0.023
-247.005	-112.850	-0.256	-0.051
-245.990	195.178	-0.085	-0.129
-244.976	14.907	-0.134	0.105
-243.961	3.011	0.087	-0.063
-242.946	221.907	0.103	-0.167
-241.932	333.238	-0.275	-0.535
-240.917	-134.636	-0.254	-0.031
-239.903	-48.311	-0.153	-0.074
-238.888	-114.160	-0.198	-0.039
-237.873	-122.768	0.275	0.045
-236.859	3.107	-0.133	-0.097
-235.844	-107.252	-0.168	0.037
-234.830	-163.270	0.573	-0.028
-233.815	28.135	0.120	0.101
-232.800	316.859	-0.100	0.190
-231.786	148.465	-0.182	-0.247
-230.771	36.833	-0.217	-0.193
-229.757	411.071	0.094	0.200
-228.742	-83.482	0.231	-0.074
-227.727	-200.000	0.018	-0.091
-226.713	-200.000	-0.013	0.085
-225.698	176.089	0.114	-0.167
-224.684	-200.000	-0.024	0.112
-223.669	21.977	0.151	-0.124
-222.655	109.120	0.063	-0.075
-221.640	35.828	0.050	-0.044
-220.625	46.521	0.137	0.128
-219.611	32.431	-0.186	-0.161
-218.596	-180.329	-0.120	-0.003
-217.582	8.005	0.225	-0.170
-216.567	471.349	-0.111	-0.250
-215.552	-200.000	0.036	0.200
-214.538	-200.000	-0.003	-0.088
-213.523	-138.017	-0.262	0.029
-212.509	-94.113	0.023	0.006
-211.494	-135.600	0.327	-0.039
-210.479	-200.000	0.002	-0.190
-209.465	70.116	0.308	0.319
-208.450	-200.000	-0.037	0.519
-207.436	145.246	-0.189	0.254
-206.421	216.824	0.103	0.165
-205.406	-200.000	-0.029	0.369
-204.392	-200.000	0.044	-0.198
-203.377	115.015	-0.084	-0.103
-202.363	800.000	0.101	0.348
-201.348	800.000	0.096	0.302
-200.333	-200.000	0.018	0.126
-199.319	189.044	-0.246	-0.370
-198.304	-200.000	-0.275	0.000
-197.290	-89.940	0.048	-0.014
-196.275	114.019	0.249	-0.304
-195.260	194.392	0.237	0.361
-194.246	404.233	-0.129	0.273
-193.231	800.000	-0.065	0.222
-192.217	-124.965	0.494	-0.076
-191.202	-200.000	0.027	-0.198
-190.187	-101.968	0.219	-0.053
-189.173	-140.634	0.482	0.050
-188.158	-19.255	-0.111	0.069
-187.144	-200.000	-0.022	-0.273
-186.129	-69.574	-0.057	-0.022
-185.114	4.412	-0.020	0.014
-184.100	-77.097	-0.088	-0.031
-183.085	-17.044	-0.171	0.108
-182.071	128.774	-0.094	-0.120
-181.056	-197.440	-0.097	0.001
-180.042	373.373	-0.036	-0.073
-179.027	-78.825	0.444	-0.152
-178.012	327.451	-0.128	-0.246
-176.998	-200.000	0.016	-0.262
-175.983	248.534	0.053	0.090
-174.969	41.107	-0.145	0.132
-173.954	-200.000	0.022	0.149
-172.939	-200.000	0.016	0.095
-171.925	-120.110	0.028	-0.005
-170.910	651.647	0.075	-0.192
-169.896	-46.425	-0.205	-0.101
-168.881	-167.203	0.289	0.012
-167.866	-73.891	0.329	0.120
-166.852	-200.000	-0.006	0.182
-165.837	299.141	0.124	0.230
-164.823	-125.548	-0.270	-0.041
-163.808	608.235	-0.127	-0.317
-162.793	-66.133	0.098	-0.039
-161.779	-200.000	-0.031	-0.216
-160.764	800.000	0.074	0.296
-159.750	800.000	0.055	-0.175
-158.735	-82.499	0.434	0.141
-157.720	586.239	0.208	-0.512
-156.706	50.394	0.165	-0.156
-155.691	-200.000	-0.008	0.056
-154.677	261.555	-0.094	0.164
-153.662	-200.000	-0.049	0.267
-152.647	40.674	0.317	0.286
-151.633	546.448	0.047	0.113
-150.618	-103.511	0.242	-0.057
-149.604	607.316	-0.148	-0.369
-148.589	72.019	-0.259	-0.270
-147.574	667.386	-0.070	-0.182
-146.560	-113.433	-0.214	-0.042
-145.545	-40.664	0.238	-0.124
-144.531	800.000	-0.022	-0.088
-143.516	7.138	0.080	-0.060
-142.502	-79.216	-0.119	-0.040
-141.487	-15.389	0.175	0.112
-140.472	-85.780	-0.136	-0.042
-139.458	66.896	-0.062	0.063
-138.443	-200.000	-0.040	0.250
-137.429	631.515	-0.100	-0.254
-136.414	-126.089	-0.056	0.008
-135.399	78.004	0.051	-0.055
-134.385	75.647	-0.100	0.106
-133.370	312.351	0.119	-0.224
-132.356	214.467	0.049	0.078
-131.341	-98.100	0.342	-0.088
-130.326	-200.000	-0.052	-0.273
-129.312	-200.000	0.025	0.188
-128.297	-72.211	0.020	-0.008
-127.283	39.685	-0.052	0.047
-126.268	-1.145	0.077	0.055
-125.253	800.000	0.050	-0.160
-124.239	-200.000	0.016	0.153
-123.224	-106.504	0.325	-0.073
-122.210	-200.000	0.065	0.307
-121.195	-26.416	-0.220	-0.129
-120.180	-196.686	0.042	-0.000
-119.166	-78.949	-0.304	-0.104
-118.151	-189.068	0.125	0.001
-117.137	4.754	-0.256	0.188
-116.122	285.057	-0.117	0.211
-115.107	-28.943	0.259	0.149
-114.093	19.918	0.064	-0.051
-113.078	68.582	-0.321	0.329
-112.064	-111.300	0.327	0.067
-111.049	-140.699	-0.090	0.009
-110.034	800.000	0.047	0.164
-109.020	165.172	-0.119	0.168
-108.005	660.007	-0.064	0.164
-106.991	-200.000	-0.014	-0.498
-105.976	-20.950	0.128	0.078
-104.962	-127.359	0.156	0.023
-103.947	800.000	0.023	0.080
-102.932	-200.000	0.010	-0.265
-101.918	-104.419	-0.234	0.054
-100.903	-181.732	-0.223	0.004
-99.889	-161.638	0.325	0.017
-98.874	-200.000	-0.015	0.117
-97.859	-43.703	-0.141	-0.071
-96.845	800.000	-0.076	0.222
-95.830	74.626	-0.160	0.168
-94.816	-167.407	0.196	-0.008
-93.801	-138.298	-0.148	0.016
-92.786	-200.000	0.075	0.372
-91.772	-200.000	-0.019	-0.215
-90.757	800.000	0.026	-0.082
-89.743	423.391	-0.085	0.182
-88.728	-200.000	-0.012	0.063
-87.713	-105.071	0.387	0.089
-86.699	-200.000	-0.023	-0.344
-85.684	6.523	-0.245	-0.182
-84.670	-120.660	-0.154	-0.026
-83.655	158.659	0.119	0.166
-82.640	800.000	-0.061	0.239
-81.626	169.666	-0.126	0.180
-80.611	-44.726	0.099	0.049
-79.597	-122.336	0.156	0.025
-78.582	317.772	0.105	0.198
-77.567	702.999	-0.026	-0.068
-76.553	-200.000	-0.007	-0.157
-75.538	-80.159	-0.059	-0.020
-74.524	-200.000	0.002	-0.123
-73.509	-113.252	0.239	0.047
-72.494	32.728	0.317	0.274
-71.480	-119.200	-0.195	0.034
-70.465	-84.490	0.406	-0.128
-69.451	-200.000	-0.027	0.219
-68.436	-200.000	-0.013	-0.089
-67.422	-113.394	-0.138	-0.027
-66.407	544.875	-0.156	-0.373
-65.392	56.610	0.261	-0.253
-64.378	728.557	0.053	0.142
-63.363	40.037	0.045	-0.040
-62.349	55.045	0.281	0.271
-61.334	159.974	-0.506	-0.705
-60.319	187.277	-0.069	0.103
-59.305	-200.000	-0.010	-0.529
-58.290	-31.444	0.724	0.407
-57.276	395.688	0.639	1.332
-56.261	-200.000	71.945	532.927
-55.246	608.181	1270.794	3166.506
-54.232	147.647	2489.908	3350.099
-53.217	121.946	2239.275	2790.298
-52.203	55.446	1760.997	1701.756
-51.188	47.716	1554.323	1448.317
-50.173	44.673	1523.502	1398.679
-49.159	59.971	1557.160	1535.783
-48.144	67.248	1578.247	1606.880
-47.130	48.006	1541.753	1438.380
-46.115	44.192	1527.271	1398.599
-45.100	44.025	1523.968	1394.372
-44.086	43.835	1522.260	1391.450
-43.071	43.951	1520.114	1390.230
-42.057	43.913	1518.078	1388.049
-41.042	43.878	1517.145	1386.906
-40.027	43.805	1515.656	1384.987
-39.013	43.883	1514.121	1384.062
-37.998	43.956	1512.216	1382.763
-36.984	43.953	1511.164	1381.730
-35.969	44.005	1509.887	1380.856
-34.954	43.947	1509.186	1379.770
-33.940	43.997	1507.199	1378.234
-32.925	44.040	1505.594	1377.010
-31.911	44.000	1504.092	1375.309
-30.896	43.994	1502.970	1374.187
-29.881	44.030	1501.335	1372.877
-28.867	44.010	1500.339	1371.777
-27.852	44.018	1498.809	1370.381
-26.838	43.972	1497.102	1368.456
-25.823	43.866	1495.728	1366.429
-24.809	43.938	1493.865	1365.157
-23.794	44.039	1492.178	1364.241
-22.779	43.903	1491.405	1362.564
-21.765	43.961	1490.494	1362.069
-20.750	43.978	1488.873	1360.649
-19.736	43.933	1488.034	1359.527
-18.721	43.985	1486.573	1358.489
-17.706	44.009	1485.270	1357.400
-16.692	43.943	1483.798	1355.565
-15.677	43.872	1483.264	1354.548
-14.663	43.919	1482.349	1353.968
-13.648	43.809	1481.791	1352.673
-12.633	43.880	1480.615	1352.018
-11.619	43.860	1479.748	1351.042
-10.604	43.892	1478.633	1350.179
-9.590	43.887	1477.612	1349.159
-8.575	43.873	1477.033	1348.486
-7.560	43.921	1476.272	1348.058
-6.546	43.959	1474.866	1346.974
-5.531	43.887	1474.321	1345.942
-4.517	43.867	1472.858	1344.418
-3.502	43.888	1472.028	1343.753
-2.487	43.964	1470.881	1343.154
-1.473	43.834	1470.006	1341.436
-0.458	43.925	1468.364	1340.493
0.556	43.200	1459.340	1329.842
1.571	40.073	1430.381	1283.082
2.586	35.828	1366.721	1199.476
3.600	33.338	1282.285	1110.685
4.615	31.279	1233.216	1056.456
5.629	25.797	1174.414	976.371
6.644	12.967	1081.998	834.942
7.659	2.981	1033.467	748.941
8.673	1.358	1027.485	736.671
9.688	1.180	1024.540	733.634
10.702	1.137	1022.716	732.058
11.717	0.926	1021.199	729.889
12.731	4.749	1026.288	751.958
13.746	15.788	1041.213	816.682
14.761	23.033	1050.848	859.527
15.775	23.739	1050.816	862.857
16.790	23.852	1050.149	862.778
17.804	23.629	1049.193	860.839
18.819	23.541	1048.289	859.594
19.834	23.679	1047.455	859.502
20.848	23.549	1047.485	858.819
21.863	23.727	1046.854	859.088
22.877	23.597	1046.626	858.198
23.892	23.670	1045.591	857.624
24.907	23.529	1044.997	856.380
25.921	23.560	1044.278	855.863
26.936	23.542	1043.639	855.178
27.950	23.598	1042.204	854.198
28.965	23.597	1041.242	853.328
29.980	23.319	1039.817	850.748
30.994	23.485	1038.120	850.081
32.009	23.550	1037.818	850.070
33.023	23.627	1037.478	850.087
34.038	23.494	1036.005	848.168
35.053	23.422	1035.180	847.071
36.067	23.522	1034.745	847.119
37.082	23.614	1033.869	846.765
38.096	23.502	1033.308	845.698
39.111	23.651	1032.516	845.688
40.126	23.879	1031.850	846.151
41.140	23.935	1029.657	844.544
42.155	23.454	1028.912	841.574
43.169	23.237	1027.948	839.684
44.184	23.332	1026.274	838.690
45.199	23.080	1026.373	837.504
46.213	23.218	1024.686	836.705
47.228	23.155	1023.702	835.531
48.242	23.313	1023.257	835.842
49.257	23.430	1022.668	835.838
50.271	23.493	1021.732	835.296
51.286	23.651	1021.098	835.445
52.301	23.617	1020.068	834.369
53.315	23.659	1019.695	834.186
54.330	23.725	1019.054	833.898
55.344	23.567	1018.404	832.553
56.359	23.572	1017.341	831.632
57.374	23.493	1016.645	830.620
58.388	23.487	1015.563	829.633
59.403	23.427	1015.028	828.845
60.417	23.289	1014.187	827.437
61.432	23.195	1013.473	826.346
62.447	23.128	1013.250	825.776
63.461	23.234	1012.018	825.194
64.476	23.338	1011.063	824.824
65.490	23.340	1010.374	824.203
66.505	23.288	1009.236	822.958
67.520	23.153	1008.794	821.899
68.534	23.357	1007.710	821.888
69.549	23.174	1007.092	820.464
70.563	22.978	1005.350	818.065
71.578	22.841	1004.730	816.855
72.593	22.824	1003.998	816.106
73.607	22.809	1002.978	815.136
74.622	22.750	1002.216	814.174
75.636	22.974	1001.761	814.763
76.651	23.234	1000.672	815.005
77.666	22.965	999.952	813.107
78.680	22.814	999.174	811.708
79.695	23.004	998.108	811.642
80.709	23.058	997.844	811.606
81.724	23.193	997.231	811.654
82.739	23.254	995.705	810.621
83.753	23.240	995.195	810.070
84.768	23.460	994.805	810.685
85.782	23.636	994.436	811.115
86.797	24.062	993.128	811.921
87.812	23.908	992.642	810.749
88.826	23.746	991.855	809.300
89.841	23.722	991.073	808.478
90.855	23.853	990.570	808.595
91.870	23.899	989.630	807.965
92.884	23.828	988.967	807.030
93.899	23.823	987.755	805.945
94.914	23.577	986.914	804.072
95.928	23.727	986.372	804.241
96.943	23.765	985.602	803.711
97.957	23.413	984.362	801.040
98.972	23.319	983.187	799.586
99.987	22.957	982.816	797.584
101.001	23.202	981.250	797.345
102.016	23.412	981.055	798.060
103.030	23.551	980.191	797.914
104.045	23.366	979.165	796.177
105.060	23.297	978.027	794.872
106.074	23.130	976.916	793.150
107.089	23.072	976.635	792.592
108.103	23.456	976.016	793.739
109.118	23.630	975.009	793.624
110.133	23.283	973.593	790.854
111.147	23.355	972.538	790.246
112.162	23.156	971.497	788.448
113.176	22.973	970.466	786.722
114.191	23.178	969.727	786.968
115.206	23.208	968.529	786.059
116.220	22.865	967.882	783.942
117.235	22.736	966.862	782.474
118.249	22.960	966.254	782.908
119.264	22.935	965.816	782.373
120.279	22.781	964.834	780.826
121.293	22.894	963.719	780.355
122.308	23.007	963.072	780.260
123.322	22.922	962.452	779.311
124.337	22.983	961.554	778.786
125.352	23.034	959.375	777.176
126.366	22.515	958.549	774.158
127.381	22.149	957.625	771.735
128.395	22.582	957.092	773.138
129.410	23.462	956.674	776.588
130.424	23.562	955.710	776.177
131.439	23.570	955.030	775.590
132.454	23.607	953.734	774.630
133.468	23.326	953.916	773.480
134.483	23.284	953.001	772.487
135.497	23.413	952.048	772.210
136.512	23.619	951.062	772.239
137.527	23.742	950.526	772.269
138.541	23.741	950.108	771.855
139.556	23.721	949.186	770.952
140.570	23.772	948.676	770.692
141.585	24.004	947.143	770.382
142.600	23.887	946.247	769.078
143.614	23.792	945.144	767.705
144.629	23.875	944.812	767.724
145.643	24.032	944.256	767.886
146.658	24.141	942.740	767.054
147.673	23.840	941.882	764.993
148.687	23.635	940.999	763.326
149.702	23.677	939.647	762.339
150.716	23.612	938.386	760.971
151.731	23.378	937.832	759.450
152.746	23.470	936.931	759.049
153.760	23.819	936.221	759.899
154.775	23.905	935.635	759.725
155.789	23.909	934.905	759.083
156.804	23.789	934.280	757.992
157.819	23.815	932.718	756.770
158.833	23.854	932.003	756.289
159.848	23.931	931.153	755.862
160.862	23.897	930.796	755.360
161.877	23.818	929.865	754.203
162.892	23.734	928.751	752.875
163.906	23.875	927.769	752.612
164.921	23.737	926.967	751.311
165.935	23.743	925.734	750.270
166.950	23.820	924.717	749.700
167.964	23.843	923.949	749.112
168.979	23.649	923.648	747.985
169.994	23.882	921.621	747.256
171.008	23.563	920.733	745.129
172.023	23.771	920.230	745.529
173.037	23.993	919.264	745.613
174.052	23.640	918.726	743.631
175.067	23.517	917.738	742.250
176.081	23.510	916.561	741.203
177.096	23.636	916.276	741.432
178.110	23.724	914.891	740.614
179.125	23.326	914.135	738.279
180.140	23.205	912.923	736.731
181.154	23.093	912.792	736.092
182.169	23.279	911.922	736.100
183.183	23.439	911.803	736.604
184.198	23.861	911.072	737.699
185.213	23.704	910.619	736.618
186.227	23.687	910.010	735.987
187.242	23.663	909.764	735.623
188.256	23.886	908.678	735.604
189.271	23.811	907.835	734.545
190.286	24.020	907.104	734.753
191.300	23.855	906.202	733.279
192.315	23.229	905.060	729.707
193.329	22.646	903.215	725.758
194.344	22.084	902.183	722.552
195.359	22.736	902.212	725.191
196.373	23.492	902.773	728.686
197.388	23.676	902.839	729.434
198.402	23.679	901.908	728.627
199.417	23.690	901.263	728.088
200.432	23.826	900.881	728.272
201.446	23.622	899.968	726.634
202.461	23.299	899.342	724.743
203.475	23.544	898.374	724.901
204.490	22.933	897.365	721.528
205.504	21.726	895.449	715.002
206.519	22.161	895.057	716.399
207.534	23.124	895.315	720.467
208.548	23.280	895.287	721.013
209.563	23.454	895.293	721.662
210.577	23.619	894.273	721.447
211.592	23.427	892.997	719.575
212.607	23.707	893.211	720.823
213.621	23.962	892.961	721.591
214.636	23.747	892.191	720.031
215.650	23.712	891.586	719.339
216.665	23.748	890.744	718.742
217.680	23.806	890.698	718.875
218.694	23.973	890.063	718.976
219.709	23.679	889.195	717.024
220.723	23.288	887.999	714.417
221.738	23.460	887.609	714.734
222.753	23.548	887.521	714.954
223.767	23.589	886.727	714.417
224.782	23.631	886.011	713.946
225.796	23.879	885.200	714.224
226.811	23.961	884.708	714.095
227.826	23.663	883.652	711.983
228.840	22.938	882.008	707.693
229.855	22.767	881.358	706.425
230.869	22.920	881.232	706.873
231.884	22.582	880.484	704.858
232.899	22.714	879.300	704.378
233.913	23.442	879.896	707.699
234.928	23.635	879.183	707.834
235.942	23.659	878.412	707.244
236.957	23.751	877.854	707.101
237.972	23.280	877.006	704.480
238.986	23.122	876.596	703.461
240.001	23.199	876.170	703.362
241.015	23.273	875.664	703.189
242.030	23.366	874.878	702.862
243.045	23.479	874.329	702.809
244.059	23.432	874.119	702.391
245.074	23.772	873.551	703.218
246.088	23.848	872.251	702.409
247.103	23.448	871.574	700.225
248.117	23.399	871.030	699.532
249.132	23.845	871.413	701.537
250.147	24.237	870.972	702.666
251.161	24.435	870.371	702.899
252.176	24.527	870.234	703.087
253.190	24.470	869.207	701.973
254.205	24.555	869.011	702.087
255.220	24.659	868.320	701.874
256.234	24.825	867.381	701.705
257.249	24.590	867.075	700.472
258.263	24.362	866.773	699.274
259.278	24.434	866.125	698.969
260.293	24.495	865.238	698.432
261.307	24.659	864.979	698.800
262.322	24.450	864.140	697.246
263.336	24.493	863.140	696.546
264.351	24.012	862.192	693.843
265.366	22.994	860.089	688.128
266.380	22.310	859.325	684.795
267.395	23.106	859.607	688.057
268.409	24.099	859.984	692.162
269.424	24.029	859.004	691.038
270.439	24.112	858.918	691.230
271.453	24.404	857.971	691.540
272.468	24.299	857.433	690.636
273.482	24.441	857.270	690.995
274.497	24.595	856.907	691.238
275.512	24.369	855.686	689.316
276.526	23.879	854.076	686.068
277.541	23.942	854.219	686.368
278.555	24.388	853.759	687.657
279.570	24.248	853.277	686.667
280.585	24.025	852.696	685.280
281.599	24.286	851.768	685.478
282.614	24.390	851.398	685.520
283.628	23.837	850.766	682.826
284.643	23.372	849.682	680.111
285.657	23.926	849.428	681.974
286.672	23.777	849.200	681.158
287.687	23.229	848.192	678.189
288.701	23.623	847.822	679.342
289.716	23.999	847.446	680.421
290.730	23.622	846.762	678.368
291.745	23.532	846.247	677.554
292.760	23.406	844.589	675.687
293.774	23.232	844.246	674.689
294.789	24.231	844.988	679.028
295.803	24.850	845.067	681.392
296.818	24.844	844.507	680.858
297.833	25.054	843.797	681.022
298.847	24.795	842.724	679.113
299.862	24.460	841.604	676.879
300.876	24.504	841.426	676.845
301.891	24.719	841.048	677.295
302.906	24.791	840.912	677.396
303.920	24.498	839.248	674.888
304.935	24.359	838.562	673.753
305.949	24.732	838.811	675.301
306.964	25.036	838.259	675.946
307.979	24.607	837.534	673.682
308.993	24.545	836.917	672.894
310.008	24.922	836.649	674.038
311.022	25.119	836.082	674.262
312.037	24.850	835.789	672.956
313.052	24.651	834.890	671.424
314.066	24.581	834.183	670.533
315.081	24.048	832.646	667.242
316.095	23.167	831.202	662.729
317.110	23.623	831.727	664.794
318.125	24.627	831.798	668.551
319.139	24.099	831.256	666.081
320.154	23.218	829.100	661.009
321.168	22.560	828.295	657.852
322.183	23.168	828.367	660.118
323.197	24.047	828.753	663.650
324.212	24.457	828.509	664.921
325.227	24.563	828.081	664.912
326.241	24.572	827.902	664.743
327.256	24.657	826.786	664.106
328.270	24.507	826.444	663.217
329.285	24.323	825.953	662.079
330.300	24.289	825.090	661.204
331.314	24.031	824.283	659.540
332.329	24.092	823.592	659.155
333.343	24.413	823.408	660.138
334.358	24.840	823.256	661.538
335.373	24.694	822.664	660.464
336.387	24.550	822.625	659.843
337.402	25.026	821.712	660.807
338.416	25.301	821.552	661.633
339.431	25.246	820.982	660.914
340.446	25.108	820.236	659.747
341.460	25.314	820.130	660.359
342.475	25.337	819.312	659.728
343.489	25.141	818.827	658.559
344.504	25.049	818.038	657.528
345.519	25.400	817.765	658.538
346.533	25.677	817.300	659.123
347.548	25.561	817.048	658.437
348.562	25.635	816.525	658.227
349.577	25.681	815.725	657.689
350.592	25.362	815.574	656.346
351.606	25.295	815.042	655.616
352.621	25.519	814.440	655.890
353.635	25.386	813.933	654.938
354.650	25.306	813.349	654.117
355.665	25.054	812.416	652.393
356.679	24.093	810.776	647.527
357.694	23.741	810.426	645.909
358.708	24.446	810.404	648.395
359.723	24.274	809.984	647.377
360.738	24.711	809.417	648.454
361.752	25.117	809.339	649.805
362.767	25.203	809.156	649.913
363.781	25.348	809.112	650.346
364.796	25.589	808.973	651.047
365.810	25.879	808.506	651.663
366.825	26.051	808.037	651.851
367.840	26.034	807.285	651.122
368.854	25.857	807.207	650.364
369.869	25.348	806.345	647.778
370.883	25.336	805.156	646.723
371.898	25.290	804.872	646.269
372.913	25.195	804.230	645.357
373.927	25.241	803.562	644.926
374.942	25.441	803.191	645.289
375.956	25.332	802.693	644.443
376.971	25.491	802.206	644.566
377.986	25.661	801.590	644.621
379.000	25.829	801.283	644.919
380.015	25.806	800.957	644.519
381.029	25.645	800.104	643.200
382.044	25.685	799.581	642.864
383.059	25.754	799.128	642.691
384.073	25.734	798.674	642.197
385.088	25.709	798.475	641.891
386.102	25.955	797.631	642.033
387.117	25.851	796.473	640.673
388.132	25.657	796.016	639.558
389.146	25.487	795.415	638.415
390.161	24.942	794.450	635.649
391.175	24.917	794.578	635.608
392.190	25.571	794.267	637.624
393.205	25.367	793.972	636.607
394.219	24.615	792.308	632.555
395.234	22.978	790.098	624.952
396.248	21.898	789.017	620.223
397.263	23.175	789.557	625.106
398.278	24.956	790.949	632.450
399.292	25.565	790.744	634.379
400.307	25.061	790.426	632.291
401.321	25.088	790.153	632.113
402.336	25.249	789.580	632.164
403.350	25.564	789.258	632.959
404.365	25.901	789.401	634.206
405.380	26.208	789.347	635.184
406.394	26.463	788.988	635.736
407.409	26.684	788.374	635.962
408.423	26.534	787.936	635.025
409.438	26.432	787.590	634.334
410.453	26.312	787.352	633.663
411.467	26.501	786.572	633.641
412.482	26.560	786.082	633.398
413.496	26.662	785.166	632.961
414.511	26.648	785.363	633.015
415.526	26.554	784.935	632.285
416.540	26.479	784.773	631.837
417.555	26.517	783.936	631.239
418.569	26.208	783.306	629.598
419.584	26.117	782.492	628.572
420.599	26.237	782.376	628.843
421.613	84.096	1238.624	1301.988
422.628	71.178	1305.124	1302.120
