DTS Sentinel unit serial number:	SN413079Multiplexer serial number:	ORYXHardware model number:	OX4-SRSoftware version number:	ORYX F/W v4.00 Oryx Data Collector v3.7.2.0data status	okinstallation	princeton_trtdifferential loss correction	single-endedforward channel	channel 3reverse channel	N/Adate	2019/09/11time	06:46:10forward acquisition time	60.00reverse acquisition time	0.00gamma	496.2192k internal	0.2329k external	0.2329temperature offset calibration	0.9904default loss term (dB/km)	0.3790temperature slope calibration	1.0000multiplexer offset coefficient	1.0000multiplexer slope coefficient	1.0000fibre end	0.00T internal ref (°C)	29.84T ext. ref 1 (°C)	-0.17T ext. ref 2 (°C)	25.01length (m)	temperature (°C)	Stokes	anti-Stokes-747.200	23.636	0.128	-0.106
-746.185	-200.000	-0.014	0.193
-745.171	-200.000	0.038	-0.550
-744.156	-122.558	0.228	-0.037
-743.142	-200.000	0.060	-0.359
-742.127	36.355	0.239	0.212
-741.112	-44.909	0.091	0.045
-740.098	-200.000	-0.031	0.350
-739.083	156.599	0.209	0.290
-738.069	155.462	0.082	-0.114
-737.054	-131.195	0.394	-0.053
-736.039	-142.549	-0.263	0.026
-735.025	18.116	0.187	-0.150
-734.010	-68.661	-0.281	-0.109
-732.996	-94.416	0.215	-0.059
-731.981	800.000	0.080	0.269
-730.966	137.325	-0.198	0.261
-729.952	800.000	0.083	-0.311
-728.937	288.033	0.065	-0.119
-727.923	126.461	-0.122	-0.155
-726.908	-180.263	-0.052	0.001
-725.894	-117.109	0.276	-0.051
-724.879	-167.186	-0.224	-0.009
-723.864	51.695	0.153	0.147
-722.850	-200.000	0.026	-0.125
-721.835	142.187	-0.110	-0.147
-720.821	-200.000	0.046	0.264
-719.806	-200.000	-0.004	-0.214
-718.791	-11.147	-0.258	-0.171
-717.777	-82.128	-0.448	0.147
-716.762	111.922	0.182	0.222
-715.748	-85.816	-0.254	0.079
-714.733	156.722	-0.147	0.204
-713.718	58.345	0.300	0.296
-712.704	-42.641	0.090	-0.046
-711.689	-200.000	0.005	0.096
-710.675	84.119	0.174	-0.191
-709.660	100.299	0.246	-0.287
-708.645	-70.247	-0.241	-0.092
-707.631	-200.000	-0.060	-0.565
-706.616	167.259	-0.075	0.107
-705.602	166.395	0.106	0.152
-704.587	92.555	0.180	0.204
-703.572	-70.209	0.170	-0.065
-702.558	261.470	0.091	-0.158
-701.543	228.932	-0.136	0.222
-700.529	-127.076	-0.157	0.023
-699.514	-47.259	0.075	-0.037
-698.499	-129.490	-0.284	-0.040
-697.485	100.626	-0.186	0.217
-696.470	-145.387	0.112	0.010
-695.456	-81.935	-0.321	0.105
-694.441	800.000	0.064	0.181
-693.426	36.979	-0.136	-0.121
-692.412	104.805	-0.034	0.041
-691.397	-126.238	-0.219	-0.033
-690.383	147.453	-0.138	0.187
-689.368	209.447	0.106	0.167
-688.354	-200.000	-0.139	0.639
-687.339	85.507	-0.139	0.153
-686.324	-91.370	0.271	0.078
-685.310	-29.042	-0.343	-0.198
-684.295	247.198	-0.115	-0.196
-683.281	-99.701	0.135	0.034
-682.266	-200.000	0.049	-0.332
-681.251	-144.752	-0.219	0.020
-680.237	79.189	-0.014	-0.015
-679.222	39.499	-0.107	0.096
-678.208	-200.000	0.021	0.116
-677.193	-200.000	-0.041	0.221
-676.178	-200.000	0.025	-0.186
-675.164	-100.487	0.183	0.046
-674.149	-44.975	-0.195	0.098
-673.135	-200.000	0.067	0.460
-672.120	-70.600	0.109	-0.041
-671.105	-88.375	0.216	-0.065
-670.091	65.559	0.150	-0.153
-669.076	-139.790	0.205	0.022
-668.062	-175.593	-0.140	-0.004
-667.047	-71.818	-0.340	-0.127
-666.032	-200.000	-0.012	-0.335
-665.018	-124.256	0.293	0.046
-664.003	-58.194	0.202	-0.088
-662.989	-82.416	0.119	0.039
-661.974	164.746	-0.236	0.334
-660.959	-35.840	0.209	0.114
-659.945	133.622	0.112	-0.146
-658.930	26.959	0.207	0.175
-657.916	301.701	-0.086	-0.160
-656.901	-200.000	0.033	-0.228
-655.886	-200.000	0.003	0.062
-654.872	226.559	-0.145	0.236
-653.857	23.821	-0.277	-0.229
-652.843	83.146	-0.196	0.215
-651.828	58.819	0.162	-0.160
-650.814	92.840	-0.083	-0.094
-649.799	18.299	0.249	-0.200
-648.784	-135.691	-0.448	-0.053
-647.770	800.000	0.076	0.248
-646.755	800.000	0.056	0.218
-645.741	-131.957	-0.414	0.054
-644.726	-135.325	0.085	-0.010
-643.711	800.000	-0.046	0.146
-642.697	-200.000	0.000	0.008
-641.682	34.196	-0.041	-0.036
-640.668	-200.000	-0.020	-0.164
-639.653	-200.000	-0.018	-0.368
-638.638	-0.118	0.227	0.162
-637.624	-39.570	0.180	0.095
-636.609	132.581	0.132	-0.170
-635.595	800.000	0.067	0.232
-634.580	-35.320	-0.114	-0.062
-633.565	-65.578	-0.249	0.100
-632.551	51.538	-0.103	0.098
-631.536	-118.109	-0.204	0.037
-630.522	-32.566	0.111	0.062
-629.507	8.790	-0.103	0.078
-628.492	-190.531	0.165	0.002
-627.478	320.326	0.082	0.155
-626.463	-92.385	-0.168	-0.047
-625.449	433.664	-0.144	-0.314
-624.434	65.474	-0.013	0.013
-623.419	-31.822	0.074	-0.041
-622.405	109.378	0.023	-0.027
-621.390	-114.943	-0.113	-0.022
-620.376	-27.152	-0.257	-0.150
-619.361	-200.000	-0.005	0.075
-618.346	-110.547	-0.169	0.035
-617.332	154.272	-0.163	-0.224
-616.317	66.356	-0.083	-0.085
-615.303	264.366	-0.179	0.312
-614.288	-115.513	-0.368	-0.069
-613.273	-32.350	0.102	-0.057
-612.259	800.000	-0.096	0.292
-611.244	138.490	-0.194	0.255
-610.230	27.107	0.134	0.113
-609.215	-30.320	-0.220	0.125
-608.201	30.339	-0.195	-0.167
-607.186	660.831	-0.067	-0.172
-606.171	68.784	-0.351	-0.361
-605.157	-75.656	-0.329	-0.117
-604.142	28.894	0.241	0.204
-603.128	97.548	-0.131	-0.151
-602.113	-75.303	-0.262	0.094
-601.098	-91.300	-0.118	0.034
-600.084	-200.000	-0.036	-0.454
-599.069	800.000	0.083	0.327
-598.055	-13.544	0.079	0.051
-597.040	63.979	-0.133	-0.134
-596.025	137.833	-0.152	-0.199
-595.011	-129.860	-0.212	0.029
-593.996	329.599	-0.224	-0.431
-592.982	229.297	-0.055	-0.090
-591.967	-111.370	-0.120	-0.024
-590.952	644.010	0.076	0.193
-589.938	161.452	-0.139	0.194
-588.923	443.752	0.087	0.192
-587.909	366.489	-0.151	0.305
-586.894	212.730	0.062	-0.098
-585.879	372.732	0.102	0.208
-584.865	-92.104	0.313	-0.088
-583.850	187.757	0.061	0.091
-582.836	-47.208	-0.331	0.161
-581.821	345.286	-0.119	-0.234
-580.806	800.000	0.059	-0.182
-579.792	790.753	-0.183	0.504
-578.777	-19.512	0.172	-0.107
-577.763	-200.000	-0.010	0.082
-576.748	11.799	-0.186	-0.143
-575.733	55.626	-0.066	0.064
-574.719	-120.693	-0.211	-0.036
-573.704	800.000	0.091	-0.361
-572.690	26.173	-0.256	-0.214
-571.675	-200.000	0.019	0.087
-570.661	-73.056	0.065	0.024
-569.646	-66.173	0.387	-0.154
-568.631	-87.885	0.286	0.086
-567.617	-93.133	0.069	-0.019
-566.602	-72.329	0.214	0.079
-565.588	-26.644	-0.113	-0.066
-564.573	800.000	-0.036	-0.132
-563.558	-63.382	0.102	-0.042
-562.544	-28.047	0.364	-0.210
-561.529	-74.113	0.371	-0.135
-560.515	134.738	-0.060	-0.078
-559.500	-200.000	-0.023	-0.166
-558.485	800.000	-0.106	-0.318
-557.471	352.411	-0.062	-0.122
-556.456	-80.817	0.196	0.065
-555.442	800.000	0.109	0.335
-554.427	-200.000	0.008	-0.146
-553.412	74.379	0.158	-0.166
-552.398	36.001	0.271	-0.239
-551.383	800.000	0.068	0.267
-550.369	518.692	0.130	-0.304
-549.354	-60.542	0.074	0.031
-548.339	321.239	0.214	0.407
-547.325	-57.054	0.226	0.100
-546.310	253.469	-0.094	-0.160
-545.296	373.342	0.043	-0.088
-544.281	-76.854	-0.197	0.069
-543.266	-124.831	-0.029	0.004
-542.252	-16.485	-0.296	-0.187
-541.237	-200.000	-0.005	-0.107
-540.223	23.245	-0.251	-0.206
-539.208	-200.000	0.015	0.394
-538.193	99.583	-0.185	0.214
-537.179	143.027	-0.157	0.208
-536.164	510.911	-0.045	-0.105
-535.150	5.228	0.207	0.152
-534.135	-9.561	-0.279	0.186
-533.121	-200.000	-0.031	-0.285
-532.106	71.422	0.113	-0.117
-531.091	400.518	-0.038	-0.080
-530.077	-117.102	-0.304	0.055
-529.062	9.593	0.145	-0.110
-528.048	-49.797	0.334	0.158
-527.033	294.883	0.108	-0.198
-526.018	23.631	-0.155	0.127
-525.004	-58.902	0.437	-0.188
-523.989	-188.557	0.103	-0.001
-522.975	800.000	-0.046	0.187
-521.960	112.923	0.124	-0.150
-520.945	-5.646	-0.338	0.232
-519.931	577.311	-0.126	0.307
-518.916	800.000	0.047	0.151
-517.902	-200.000	-0.014	0.151
-516.887	657.444	0.062	0.160
-515.872	222.700	-0.119	0.192
-514.858	800.000	-0.069	-0.227
-513.843	-138.249	-0.400	0.044
-512.829	-200.000	0.025	-0.215
-511.814	-4.238	-0.254	0.175
-510.799	-60.805	0.376	0.159
-509.785	283.344	0.103	-0.184
-508.770	-103.229	-0.187	-0.044
-507.756	183.289	-0.036	0.053
-506.741	-200.000	0.002	0.219
-505.726	-144.179	0.517	0.048
-504.712	29.519	-0.069	0.059
-503.697	-59.663	-0.279	0.119
-502.683	-200.000	0.022	-0.106
-501.668	-46.202	-0.137	0.067
-500.653	-180.357	0.285	-0.006
-499.639	-45.468	0.190	-0.094
-498.624	-200.000	0.015	-0.104
-497.610	52.032	-0.355	0.337
-496.595	-44.141	0.079	-0.039
-495.581	800.000	0.018	-0.049
-494.566	247.146	0.138	0.232
-493.551	265.142	0.104	-0.181
-492.537	68.390	0.005	0.005
-491.522	59.755	-0.066	0.065
-490.508	208.481	0.205	-0.319
-489.493	174.654	0.226	-0.326
-488.478	-55.129	0.029	-0.013
-487.464	-200.000	0.010	-0.072
-486.449	-30.431	0.288	0.163
-485.435	41.826	0.100	-0.091
-484.420	144.697	-0.084	0.112
-483.405	37.864	0.101	-0.090
-482.391	-166.867	0.246	0.010
-481.376	677.708	-0.213	0.553
-480.362	44.921	0.294	0.270
-479.347	66.847	0.048	0.048
-478.332	294.440	-0.133	0.242
-477.318	-200.000	-0.031	-0.150
-476.303	-70.862	0.049	-0.018
-475.289	-126.765	0.285	-0.042
-474.274	-44.277	0.217	-0.108
-473.259	23.274	0.065	-0.053
-472.245	291.846	-0.071	-0.128
-471.230	800.000	-0.052	0.161
-470.216	60.506	0.171	-0.169
-469.201	76.976	-0.403	0.426
-468.186	0.601	-0.112	-0.080
-467.172	-143.737	-0.104	0.010
-466.157	-152.922	-0.257	0.018
-465.143	800.000	-0.054	-0.176
-464.128	76.347	-0.234	0.247
-463.113	-200.000	0.023	0.313
-462.099	196.504	0.019	0.028
-461.084	800.000	0.043	0.127
-460.070	97.202	0.153	-0.175
-459.055	-111.887	-0.121	-0.024
-458.040	-200.000	-0.037	-0.164
-457.026	85.963	-0.193	0.212
-456.011	42.372	0.058	-0.053
-454.997	116.595	0.136	-0.166
-453.982	-200.000	0.033	-0.295
-452.968	129.354	-0.196	-0.249
-451.953	79.377	-0.057	-0.061
-450.938	-64.027	0.243	0.099
-449.924	201.105	-0.241	0.369
-448.909	-97.822	0.311	-0.080
-447.895	155.521	0.054	-0.074
-446.880	-47.952	-0.178	-0.086
-445.865	-200.000	-0.058	0.285
-444.851	800.000	-0.025	-0.095
-443.836	61.519	-0.372	0.369
-442.822	800.000	0.057	-0.214
-441.807	36.223	0.144	-0.126
-440.792	698.454	0.171	-0.447
-439.778	-44.973	-0.262	0.130
-438.763	716.192	0.017	-0.045
-437.749	480.482	0.035	0.080
-436.734	109.612	0.034	-0.040
-435.719	97.144	-0.126	-0.144
-434.705	-40.066	0.318	0.165
-433.690	-88.071	0.245	0.073
-432.676	-141.500	-0.176	-0.018
-431.661	-61.306	0.251	-0.105
-430.646	800.000	0.037	-0.113
-429.632	-25.876	0.125	-0.073
-428.617	-89.109	0.347	0.102
-427.603	10.396	-0.115	0.087
-426.588	-200.000	-0.026	0.158
-425.573	3.191	-0.184	0.133
-424.559	111.311	-0.254	0.304
-423.544	-62.159	-0.146	-0.061
-422.530	-200.000	-0.010	-0.366
-421.515	322.740	0.057	0.108
-420.500	237.501	-0.082	-0.135
-419.486	-200.000	-0.015	-0.448
-418.471	375.942	-0.103	-0.208
-417.457	-200.000	-0.010	0.055
-416.442	16.397	0.053	0.041
-415.428	290.539	0.084	-0.152
-414.413	106.992	0.077	-0.091
-413.398	-200.000	-0.024	0.129
-412.384	-200.000	-0.001	-0.203
-411.369	99.627	0.072	-0.082
-410.355	166.523	-0.270	-0.380
-409.340	-200.000	-0.003	-0.404
-408.325	-143.292	0.139	-0.013
-407.311	86.195	0.217	-0.238
-406.296	-83.638	-0.195	0.062
-405.282	-101.388	0.170	-0.041
-404.267	65.710	-0.090	-0.091
-403.252	-29.317	-0.373	-0.212
-402.238	-170.406	0.126	-0.004
-401.223	-107.743	-0.127	-0.028
-400.209	-33.299	-0.154	-0.085
-399.194	-123.837	-0.225	-0.035
-398.179	-81.465	-0.067	-0.022
-397.165	-200.000	-0.045	-0.320
-396.150	-200.000	-0.006	-0.291
-395.136	-123.334	0.339	-0.054
-394.121	-78.612	-0.256	0.087
-393.106	274.275	-0.102	0.179
-392.092	43.871	0.118	-0.108
-391.077	390.032	-0.156	0.320
-390.063	-200.000	-0.025	0.167
-389.048	354.621	0.090	-0.178
-388.033	-97.340	0.160	-0.041
-387.019	-16.775	-0.371	-0.233
-386.004	-200.000	0.033	-0.194
-384.990	125.268	-0.084	0.105
-383.975	35.009	0.246	-0.213
-382.960	-76.631	-0.304	-0.106
-381.946	-119.785	-0.197	0.034
-380.931	526.997	0.112	0.262
-379.917	-200.000	0.008	-0.096
-378.902	19.929	0.331	-0.265
-377.888	75.285	0.233	-0.244
-376.873	164.223	0.039	0.055
-375.858	46.044	-0.277	0.254
-374.844	7.448	0.093	-0.069
-373.829	-5.746	-0.197	0.134
-372.815	-169.077	0.180	-0.007
-371.800	-1.241	-0.115	-0.080
-370.785	-47.407	-0.162	0.078
-369.771	-19.678	0.206	0.126
-368.756	122.773	0.102	-0.126
-367.742	-64.657	-0.209	-0.084
-366.727	-10.311	0.144	0.095
-365.712	-27.890	-0.186	0.107
-364.698	-200.000	-0.003	-0.197
-363.683	-200.000	-0.110	0.000
-362.669	-99.998	0.158	-0.039
-361.654	-123.869	0.080	-0.013
-360.639	111.850	0.194	-0.232
-359.625	-127.513	0.324	0.047
-358.610	17.056	-0.286	0.225
-357.596	-2.418	0.129	-0.090
-356.581	298.733	0.026	0.047
-355.566	192.360	0.133	-0.200
-354.552	456.136	-0.057	0.126
-353.537	-162.204	-0.115	-0.006
-352.523	-132.912	0.120	-0.015
-351.508	107.807	-0.235	0.277
-350.493	-37.296	-0.186	0.098
-349.479	-29.953	0.179	0.101
-348.464	97.432	-0.170	0.194
-347.450	-112.479	0.191	0.038
-346.435	104.996	0.302	0.353
-345.420	442.482	0.136	0.295
-344.406	78.443	0.107	-0.113
-343.391	-200.000	0.009	-0.055
-342.377	-36.849	0.080	-0.043
-341.362	2.314	0.490	0.352
-340.348	115.205	-0.080	-0.097
-339.333	80.980	0.068	-0.073
-338.318	-44.079	-0.131	-0.065
-337.304	-123.542	0.127	-0.020
-336.289	-130.224	0.220	-0.030
-335.275	-99.289	0.176	-0.044
-334.260	149.771	-0.117	-0.157
-333.245	-23.426	-0.201	0.120
-332.231	43.456	0.096	0.087
-331.216	-9.413	0.187	0.124
-330.202	-156.315	-0.263	0.016
-329.187	279.906	-0.131	0.232
-328.172	-8.079	0.227	-0.152
-327.158	-200.000	0.049	-0.259
-326.143	-72.597	-0.335	0.123
-325.129	-200.000	-0.005	-0.080
-324.114	770.252	-0.063	0.170
-323.099	-69.970	0.090	0.034
-322.085	800.000	-0.052	-0.161
-321.070	-200.000	-0.013	-0.125
-320.056	-200.000	0.005	-0.151
-319.041	-95.929	0.072	0.019
-318.026	800.000	-0.096	-0.345
-317.012	34.077	0.351	-0.303
-315.997	-200.000	-0.001	-0.241
-314.983	-182.236	-0.131	0.002
-313.968	-200.000	-0.008	0.161
-312.953	9.523	0.235	-0.176
-311.939	-200.000	0.026	0.289
-310.924	298.461	-0.154	0.280
-309.910	-152.824	0.074	0.005
-308.895	439.076	-0.041	-0.089
-307.880	-111.611	-0.346	-0.070
-306.866	79.696	0.151	-0.160
-305.851	-53.532	0.073	-0.033
-304.837	-200.000	-0.017	0.152
-303.822	74.647	-0.126	0.132
-302.807	-200.000	0.007	-0.114
-301.793	530.171	0.029	-0.068
-300.778	47.363	-0.062	-0.058
-299.764	-171.608	-0.254	-0.008
-298.749	133.609	0.080	0.102
-297.735	-125.119	0.411	0.062
-296.720	189.504	-0.175	0.259
-295.705	-81.512	-0.149	0.049
-294.691	40.231	0.081	-0.072
-293.676	-90.836	0.174	-0.050
-292.662	620.588	-0.115	-0.286
-291.647	-200.000	0.006	0.078
-290.632	188.273	-0.060	-0.089
-289.618	-200.000	-0.004	0.150
-288.603	138.029	0.160	0.208
-287.589	82.728	0.096	0.104
-286.574	800.000	-0.037	-0.119
-285.559	-70.246	-0.298	-0.112
-284.545	800.000	0.106	-0.319
-283.530	231.375	-0.208	-0.336
-282.516	105.952	-0.280	0.328
-281.501	85.891	-0.255	0.277
-280.486	315.771	-0.133	0.249
-279.472	-181.376	0.336	0.007
-278.457	-200.000	0.046	-0.324
-277.443	-150.780	0.075	-0.006
-276.428	76.888	0.116	-0.122
-275.413	214.954	-0.005	0.008
-274.399	800.000	-0.051	-0.184
-273.384	162.980	-0.192	0.267
-272.370	-200.000	0.073	0.392
-271.355	-106.320	-0.227	-0.050
-270.340	-35.246	0.120	-0.065
-269.326	9.593	0.095	0.071
-268.311	10.623	-0.062	0.047
-267.297	71.627	-0.106	0.109
-266.282	800.000	0.088	0.287
-265.267	-200.000	-0.042	0.413
-264.253	189.884	0.081	-0.121
-263.238	800.000	0.027	0.078
-262.224	19.143	-0.189	0.150
-261.209	-37.708	0.295	-0.155
-260.195	-170.264	-0.125	0.004
-259.180	-200.000	0.012	-0.064
-258.165	705.670	0.136	0.356
-257.151	219.269	0.214	0.338
-256.136	-93.751	0.314	-0.086
-255.122	-61.099	0.150	-0.063
-254.107	-0.701	-0.096	-0.068
-253.092	-59.302	-0.176	-0.075
-252.078	62.680	0.219	-0.216
-251.063	244.992	0.151	-0.251
-250.049	500.960	-0.068	0.154
-249.034	227.278	0.196	0.314
-248.019	23.376	0.230	-0.186
-247.005	-65.959	-0.219	-0.086
-245.990	-200.000	-0.029	-0.484
-244.976	800.000	-0.018	-0.068
-243.961	-168.258	0.045	-0.002
-242.946	48.850	-0.141	-0.131
-241.932	-90.167	0.207	0.060
-240.917	-79.239	-0.309	0.104
-239.903	32.939	0.206	0.176
-238.888	-45.971	0.184	0.089
-237.873	-200.000	0.045	0.239
-236.859	-200.000	-0.008	-0.046
-235.844	30.129	-0.037	-0.032
-234.830	800.000	-0.033	0.107
-233.815	-200.000	-0.022	0.185
-232.800	58.287	0.080	-0.077
-231.786	-200.000	0.022	-0.111
-230.771	167.929	-0.088	-0.123
-229.757	-83.984	0.288	0.091
-228.742	58.226	-0.300	0.290
-227.727	469.601	0.139	0.309
-226.713	-87.340	-0.060	0.018
-225.698	-116.568	0.350	0.064
-224.684	800.000	-0.095	0.325
-223.669	210.557	-0.153	0.237
-222.655	-25.844	0.422	0.245
-221.640	-200.000	-0.060	0.331
-220.625	-102.835	0.115	-0.027
-219.611	-200.000	-0.003	0.226
-218.596	-133.452	0.080	-0.010
-217.582	153.393	0.235	0.318
-216.567	-38.870	0.178	0.093
-215.552	-156.878	0.374	-0.023
-214.538	-104.315	0.235	0.054
-213.523	27.101	0.317	0.263
-212.509	-200.000	0.010	0.140
-211.494	93.210	-0.100	-0.112
-210.479	-33.860	0.224	-0.121
-209.465	64.480	-0.099	0.098
-208.450	-30.551	0.115	-0.065
-207.436	-93.596	0.125	-0.034
-206.421	-53.013	-0.503	0.228
-205.406	22.963	0.012	0.010
-204.392	-200.000	-0.012	0.155
-203.377	191.783	-0.258	0.383
-202.363	202.321	-0.095	-0.145
-201.348	201.611	0.120	0.182
-200.333	122.925	-0.063	-0.078
-199.319	-38.667	0.259	-0.135
-198.304	-200.000	0.001	-0.012
-197.290	-200.000	-0.020	-0.224
-196.275	183.430	-0.167	0.244
-195.260	-72.004	-0.126	0.046
-194.246	470.357	-0.127	0.281
-193.231	-11.894	-0.063	-0.041
-192.217	493.366	0.144	0.325
-191.202	157.841	0.027	-0.037
-190.187	-45.080	-0.311	-0.152
-189.173	-16.221	-0.273	-0.171
-188.158	-200.000	0.047	-0.231
-187.144	647.015	-0.032	0.080
-186.129	-45.278	0.305	0.149
-185.114	40.547	-0.053	0.047
-184.100	160.779	0.079	-0.108
-183.085	61.204	-0.175	0.171
-182.071	-58.564	0.291	-0.124
-181.056	42.783	-0.168	0.151
-180.042	112.106	0.170	-0.203
-179.027	-200.000	0.016	0.133
-178.012	110.923	-0.161	-0.190
-176.998	-200.000	-0.006	-0.152
-175.983	-200.000	0.023	0.187
-174.969	800.000	-0.036	0.132
-173.954	-64.240	-0.220	0.088
-172.939	-200.000	0.001	-0.142
-171.925	-185.352	0.402	0.006
-170.910	-20.345	-0.334	0.202
-169.896	-32.335	-0.112	-0.062
-168.881	-109.462	0.147	-0.031
-167.866	181.205	-0.051	-0.074
-166.852	-200.000	-0.084	-0.417
-165.837	-200.000	0.000	0.098
-164.823	-200.000	0.013	-0.172
-163.808	143.296	-0.304	-0.398
-162.793	-200.000	0.054	-0.397
-161.779	-191.646	0.425	0.004
-160.764	-6.719	0.108	0.072
-159.750	800.000	-0.060	-0.243
-158.735	-20.311	-0.074	-0.045
-157.720	311.233	-0.068	-0.126
-156.706	-200.000	0.068	-0.328
-155.691	-172.785	0.202	-0.006
-154.677	12.836	0.125	-0.095
-153.662	-76.578	-0.316	0.109
-152.647	-10.384	-0.149	0.097
-151.633	446.397	0.133	-0.287
-150.618	790.650	-0.050	0.134
-149.604	-200.000	0.050	0.241
-148.589	700.113	0.033	-0.084
-147.574	800.000	-0.106	0.339
-146.560	800.000	0.095	0.362
-145.545	-126.744	0.310	-0.045
-144.531	39.899	-0.208	-0.184
-143.516	-67.929	0.185	0.071
-142.502	-36.043	0.125	0.066
-141.487	-29.179	-0.372	0.210
-140.472	-144.530	0.271	0.025
-139.458	92.333	0.180	0.199
-138.443	800.000	0.036	0.106
-137.429	256.743	0.190	-0.322
-136.414	800.000	0.132	-0.380
-135.399	-116.805	0.392	0.071
-134.385	222.793	0.064	-0.101
-133.370	717.827	-0.047	0.124
-132.356	-81.075	-0.183	-0.060
-131.341	-114.374	-0.306	-0.058
-130.326	800.000	-0.112	0.387
-129.312	-98.048	0.227	0.058
-128.297	149.600	-0.018	0.024
-127.283	43.814	0.079	-0.071
-126.268	165.508	0.243	0.338
-125.253	-94.155	-0.248	-0.067
-124.239	-151.674	-0.283	0.021
-123.224	-200.000	0.027	-0.169
-122.210	356.810	0.028	-0.054
-121.195	-7.300	0.225	-0.150
-120.180	-200.000	0.025	-0.180
-119.166	-200.000	0.012	0.271
-118.151	-13.789	0.346	0.220
-117.137	19.161	0.084	-0.066
-116.122	-200.000	0.054	-0.365
-115.107	363.357	0.062	-0.122
-114.093	-200.000	-0.018	-0.228
-113.078	-155.080	-0.182	0.012
-112.064	211.206	-0.066	0.102
-111.049	-150.256	0.113	-0.009
-110.034	556.789	-0.077	-0.181
-109.020	-144.710	-0.261	0.024
-108.005	-59.242	-0.271	0.115
-106.991	-66.351	0.227	0.089
-105.976	-34.593	0.358	0.193
-104.962	380.316	0.130	-0.263
-103.947	-103.673	0.593	0.136
-102.932	547.231	-0.085	-0.200
-101.918	-53.198	0.360	-0.162
-100.903	-99.720	0.342	-0.084
-99.889	214.975	-0.044	-0.069
-98.874	-165.900	0.638	0.027
-97.859	583.341	-0.142	-0.342
-96.845	-200.000	0.028	-0.243
-95.830	101.931	0.169	0.194
-94.816	103.999	-0.092	0.106
-93.801	-76.046	0.308	-0.107
-92.786	67.272	-0.021	-0.021
-91.772	-200.000	-0.060	0.363
-90.757	127.089	-0.087	0.109
-89.743	-149.371	0.054	-0.004
-88.728	-131.666	0.273	0.035
-87.713	-59.111	0.325	-0.137
-86.699	-200.000	-0.023	0.283
-85.684	-120.266	-0.117	0.020
-84.670	-112.629	0.348	-0.068
-83.655	-18.345	-0.130	0.080
-82.640	-200.000	0.024	-0.107
-81.626	232.349	-0.034	-0.055
-80.611	-50.559	-0.138	0.064
-79.597	-164.649	0.299	0.013
-78.582	435.556	-0.073	0.156
-77.567	-41.993	0.347	-0.174
-76.553	-200.000	0.014	-0.137
-75.538	-200.000	0.002	0.197
-74.524	800.000	0.077	0.222
-73.509	35.684	0.128	-0.110
-72.494	-200.000	0.019	-0.250
-71.480	-107.414	0.142	0.031
-70.465	-63.889	-0.121	-0.048
-69.451	-156.718	0.187	0.011
-68.436	-53.231	-0.254	0.114
-67.422	-200.000	-0.028	0.402
-66.407	-200.000	-0.033	0.282
-65.392	61.446	-0.119	-0.116
-64.378	-144.923	0.371	0.033
-63.363	36.497	0.124	0.107
-62.349	-64.463	0.251	0.100
-61.334	68.334	-0.882	-0.886
-60.319	486.152	0.252	0.563
-59.305	770.211	-0.296	-0.790
-58.290	304.778	0.670	1.221
-57.276	616.854	0.627	1.542
-56.261	-200.000	103.802	603.105
-55.246	501.810	1487.615	3368.548
-54.232	178.294	2686.572	3844.594
-53.217	111.520	2185.650	2584.342
-52.203	40.582	1703.744	1504.807
-51.188	32.935	1512.608	1284.176
-50.173	30.612	1485.644	1245.693
-49.159	50.968	1540.628	1431.316
-48.144	51.731	1557.405	1452.052
-47.130	33.226	1514.181	1287.292
-46.115	30.096	1498.704	1252.957
-45.100	29.909	1495.214	1248.734
-44.086	29.832	1493.282	1246.551
-43.071	29.796	1491.417	1244.701
-42.057	29.805	1489.603	1243.199
-41.042	29.865	1488.098	1242.297
-40.027	29.841	1486.626	1240.853
-39.013	29.840	1484.827	1239.296
-37.998	29.750	1483.631	1237.645
-36.984	29.875	1482.536	1237.523
-35.969	29.827	1481.059	1235.919
-34.954	29.828	1479.800	1234.828
-33.940	29.815	1478.454	1233.569
-32.925	29.857	1477.155	1232.714
-31.911	29.894	1475.782	1231.769
-30.896	29.880	1474.478	1230.533
-29.881	30.027	1472.914	1230.159
-28.867	29.872	1472.375	1228.627
-27.852	29.947	1470.284	1227.335
-26.838	29.894	1469.371	1226.172
-25.823	29.928	1467.519	1224.805
-24.809	29.934	1465.957	1223.492
-23.794	29.775	1465.219	1221.776
-22.779	29.814	1463.611	1220.645
-21.765	29.928	1462.225	1220.189
-20.750	29.883	1461.530	1219.267
-19.736	29.862	1460.560	1218.271
-18.721	29.840	1459.549	1217.231
-17.706	29.825	1458.029	1215.817
-16.692	29.904	1456.891	1215.340
-15.677	29.847	1456.299	1214.426
-14.663	29.892	1455.228	1213.777
-13.648	29.827	1454.027	1212.299
-12.633	29.793	1453.611	1211.686
-11.619	29.810	1452.441	1210.769
-10.604	29.776	1451.598	1209.795
-9.590	29.797	1450.660	1209.104
-8.575	29.763	1450.164	1208.424
-7.560	29.716	1448.941	1207.046
-6.546	29.851	1447.809	1206.936
-5.531	29.849	1446.872	1206.093
-4.517	29.798	1446.129	1205.097
-3.502	29.779	1445.266	1204.203
-2.487	29.831	1444.200	1203.611
-1.473	29.801	1443.296	1202.610
-0.458	29.924	1441.647	1201.992
0.556	27.549	1432.021	1191.803
1.571	24.813	1407.589	1153.748
2.586	21.765	1350.070	1087.619
3.600	20.301	1269.792	1014.310
4.615	19.104	1224.700	971.449
5.629	16.699	1170.102	915.079
6.644	8.465	1085.748	807.579
7.659	1.202	1045.065	741.829
8.673	0.076	1039.254	732.162
9.688	-0.232	1036.391	728.584
10.702	-0.251	1034.282	726.942
11.717	-0.253	1033.165	726.087
12.731	3.150	1036.385	744.776
13.746	12.074	1048.947	797.305
14.761	18.756	1057.748	836.583
15.775	20.604	1059.704	847.069
16.790	21.090	1059.163	848.926
17.804	20.984	1058.103	847.485
18.819	20.682	1057.549	845.499
19.834	20.704	1057.378	845.397
20.848	20.825	1056.780	845.431
21.863	20.965	1056.130	845.514
22.877	21.074	1055.324	845.323
23.892	20.863	1055.227	844.150
24.907	20.769	1054.653	843.160
25.921	20.869	1054.003	843.049
26.936	20.795	1053.010	841.821
27.950	20.866	1051.597	840.959
28.965	20.735	1050.699	839.535
29.980	20.585	1049.196	837.536
30.994	20.659	1047.462	836.437
32.009	20.765	1047.112	836.592
33.023	20.902	1046.230	836.472
34.038	20.718	1044.639	834.244
35.053	20.763	1044.163	834.002
36.067	20.970	1043.105	834.073
37.082	20.820	1042.838	833.069
38.096	20.971	1041.917	832.984
39.111	21.091	1041.182	832.893
40.126	21.136	1040.193	832.246
41.140	21.065	1038.931	830.825
42.155	20.774	1037.760	828.429
43.169	20.445	1036.263	825.597
44.184	20.397	1035.658	824.815
45.199	20.531	1034.196	824.214
46.213	20.519	1033.084	823.196
47.228	20.420	1032.178	821.933
48.242	20.573	1032.076	822.504
49.257	20.715	1031.017	822.255
50.271	20.754	1030.109	821.646
51.286	20.822	1029.518	821.419
52.301	20.906	1028.190	820.682
53.315	20.988	1027.916	820.778
54.330	20.882	1027.189	819.626
55.344	20.791	1026.120	818.276
56.359	20.989	1025.200	818.399
57.374	20.928	1024.660	817.609
58.388	20.669	1023.694	815.552
59.403	20.672	1022.656	814.666
60.417	20.720	1021.800	814.138
61.432	20.572	1020.681	812.483
62.447	20.508	1020.915	812.299
63.461	20.612	1019.947	811.939
64.476	20.812	1018.517	811.663
65.490	20.679	1018.214	810.729
66.505	20.713	1016.865	809.740
67.520	20.640	1016.260	808.848
68.534	20.659	1015.567	808.315
69.549	20.617	1014.321	807.057
70.563	20.305	1013.021	804.505
71.578	20.078	1012.850	803.244
72.593	20.262	1011.710	803.119
73.607	20.003	1010.602	800.975
74.622	20.156	1009.645	800.852
75.636	20.408	1009.240	801.622
76.651	20.468	1008.454	801.202
77.666	20.348	1007.444	799.779
78.680	20.277	1006.247	798.429
79.695	20.316	1006.129	798.443
80.709	20.452	1005.079	798.164
81.724	20.554	1004.311	797.952
82.739	20.546	1003.249	797.003
83.753	20.366	1003.129	796.009
84.768	20.770	1002.168	797.029
85.782	21.151	1001.177	797.910
86.797	21.209	1000.810	797.812
87.812	21.077	1000.250	796.692
88.826	20.857	999.218	794.797
89.841	20.808	998.583	793.997
90.855	21.084	997.586	794.393
91.870	21.125	996.602	793.727
92.884	21.119	995.598	792.830
93.899	20.978	994.887	791.552
94.914	20.951	993.757	790.461
95.928	21.135	993.013	790.632
96.943	20.953	992.570	789.386
97.957	20.831	991.138	787.626
98.972	20.518	990.382	785.539
99.987	20.372	989.009	783.721
101.001	20.415	988.841	783.714
102.016	20.811	987.928	784.705
103.030	20.783	986.722	783.551
104.045	20.804	985.661	782.734
105.060	20.573	984.701	780.866
106.074	20.395	983.047	778.686
107.089	20.440	982.805	778.627
108.103	20.894	982.094	780.030
109.118	21.017	981.563	780.091
110.133	20.640	980.544	777.525
111.147	20.658	979.338	776.580
112.162	20.489	978.054	774.741
113.176	20.394	976.753	773.217
114.191	20.350	976.224	772.534
115.206	20.537	975.062	772.379
116.220	20.208	974.093	770.080
117.235	20.054	973.641	768.974
118.249	20.281	972.336	768.879
119.264	20.324	971.502	768.342
120.279	20.117	970.840	766.838
121.293	20.303	969.840	766.802
122.308	20.364	969.256	766.538
123.322	20.310	968.469	765.612
124.337	20.407	967.161	764.936
125.352	20.253	965.816	763.129
126.366	19.935	964.332	760.491
127.381	19.563	963.213	757.910
128.395	20.070	962.901	759.819
129.410	20.873	962.356	762.841
130.424	20.822	961.621	761.965
131.439	20.830	960.923	761.381
132.454	20.852	959.706	760.447
133.468	20.866	959.175	760.017
134.483	20.827	957.695	758.609
135.497	20.763	957.386	758.019
136.512	20.795	957.072	757.842
137.527	21.027	956.200	758.093
138.541	21.073	955.034	757.301
139.556	21.148	954.529	757.160
140.570	21.076	953.755	756.166
141.585	21.052	952.643	755.112
142.600	20.992	952.443	754.630
143.614	21.015	951.105	753.601
144.629	20.989	950.380	752.850
145.643	21.364	949.681	753.846
146.658	21.074	948.780	751.814
147.673	21.109	947.463	750.853
148.687	20.915	946.540	749.223
149.702	20.918	945.642	748.458
150.716	20.945	944.113	747.299
151.731	20.770	943.607	746.084
152.746	20.865	942.929	745.886
153.760	21.020	942.512	746.154
154.775	21.211	941.230	745.889
155.789	21.280	940.465	745.511
156.804	21.220	939.805	744.666
157.819	21.164	938.695	743.482
158.833	21.200	937.511	742.630
159.848	21.360	936.586	742.512
160.862	21.402	935.957	742.128
161.877	21.210	935.005	740.491
162.892	21.079	934.282	739.301
163.906	21.213	933.329	739.048
164.921	21.209	932.443	738.263
165.935	21.089	931.373	736.844
166.950	21.255	930.353	736.670
167.964	21.276	929.629	736.122
168.979	21.016	928.651	734.187
169.994	21.108	927.299	733.439
171.008	20.994	926.237	732.059
172.023	21.120	925.797	732.173
173.037	21.234	925.218	732.128
174.052	21.061	923.713	730.150
175.067	20.897	923.089	728.904
176.081	20.913	922.135	728.155
177.096	20.851	921.998	727.724
178.110	20.980	920.707	727.177
179.125	20.731	919.845	725.394
180.140	20.515	918.366	723.264
181.154	20.642	917.808	723.288
182.169	20.621	917.576	722.957
183.183	20.790	917.311	723.386
184.198	21.142	916.725	724.321
185.213	21.129	916.017	723.643
186.227	21.129	915.226	722.955
187.242	21.025	915.170	722.414
188.256	21.177	914.080	722.118
189.271	21.172	913.331	721.441
190.286	21.188	913.011	721.192
191.300	21.052	911.691	719.526
192.315	20.656	910.567	716.943
193.329	19.933	909.231	712.851
194.344	19.687	907.550	710.459
195.359	20.215	907.968	712.893
196.373	20.898	908.711	716.222
197.388	21.163	908.131	716.793
198.402	21.000	907.141	715.276
199.417	20.947	906.594	714.564
200.432	21.033	906.286	714.611
201.446	20.743	905.658	712.866
202.461	20.608	905.247	711.926
203.475	20.624	904.688	711.491
204.490	20.236	902.856	708.402
205.504	19.253	900.534	702.512
206.519	19.460	900.972	703.634
207.534	20.589	901.048	708.232
208.548	20.775	899.674	707.847
209.563	21.150	900.306	709.806
210.577	20.964	899.536	708.381
211.592	20.724	898.697	706.684
212.607	21.087	898.221	707.719
213.621	21.127	897.952	707.605
214.636	21.219	897.246	707.361
215.650	21.166	896.894	706.806
216.665	21.113	895.885	705.732
217.680	21.157	895.555	705.589
218.694	21.277	894.947	705.531
219.709	21.013	893.920	703.597
220.723	20.741	892.813	701.564
221.738	20.793	892.522	701.483
222.753	21.049	892.549	702.474
223.767	20.907	891.216	700.794
224.782	21.204	890.256	701.168
225.796	21.314	890.002	701.349
226.811	21.319	889.250	700.714
227.826	21.000	888.123	698.484
228.840	20.106	886.928	693.906
229.855	20.126	886.177	693.337
230.869	20.347	886.109	694.109
231.884	20.035	884.977	691.911
232.899	20.090	884.646	691.812
233.913	20.887	884.479	694.800
234.928	20.995	884.165	694.923
235.942	20.856	883.753	693.984
236.957	21.109	882.834	694.209
237.972	20.678	882.168	691.908
238.986	20.791	881.074	691.439
240.001	20.708	880.753	690.796
241.015	20.727	880.183	690.364
242.030	20.812	879.497	690.099
243.045	20.916	878.438	689.618
244.059	20.937	878.466	689.663
245.074	21.282	878.009	690.608
246.088	21.123	877.358	689.407
247.103	20.766	876.238	687.059
248.117	20.866	875.519	686.826
249.132	21.272	875.715	688.519
250.147	21.518	875.509	689.264
251.161	21.727	874.650	689.352
252.176	22.034	873.959	689.951
253.190	21.826	874.075	689.165
254.205	21.804	873.235	688.357
255.220	22.224	872.771	689.575
256.234	21.962	872.369	688.170
257.249	21.816	871.664	686.982
258.263	21.828	870.958	686.410
259.278	21.804	870.062	685.552
260.293	21.890	869.944	685.734
261.307	22.049	869.097	685.625
262.322	21.732	868.397	683.777
263.336	21.783	867.401	683.131
264.351	21.298	866.300	680.316
265.366	20.155	864.531	674.421
266.380	19.823	863.152	671.997
267.395	20.671	864.050	675.932
268.409	21.491	864.075	679.076
269.424	21.527	863.013	678.321
270.439	21.509	863.055	678.226
271.453	21.703	862.396	678.399
272.468	21.669	861.656	677.624
273.482	21.829	861.336	677.931
274.497	21.951	860.787	677.912
275.512	21.883	859.581	676.640
276.526	21.120	858.506	672.792
277.541	21.411	857.540	673.097
278.555	21.649	857.949	674.273
279.570	21.584	857.335	673.480
280.585	21.399	855.984	671.652
281.599	21.442	855.911	671.700
282.614	21.579	855.292	671.679
283.628	21.207	853.993	669.173
284.643	20.825	853.443	667.221
285.657	21.216	853.214	668.480
286.672	21.226	852.377	667.803
287.687	20.697	851.449	664.996
288.701	20.902	851.717	665.931
289.716	21.284	851.267	666.979
290.730	21.083	849.988	665.150
291.745	21.045	849.374	664.466
292.760	20.799	848.330	662.655
293.774	20.680	848.177	662.022
294.789	21.624	848.397	665.729
295.803	22.293	848.046	667.934
296.818	22.335	848.271	668.214
297.833	22.231	847.833	667.412
298.847	22.226	846.279	666.110
299.862	21.670	845.356	663.222
300.876	21.811	845.126	663.517
301.891	22.130	844.939	664.516
302.906	22.123	844.465	664.060
303.920	21.833	843.174	661.891
304.935	21.633	842.407	660.477
305.949	22.071	842.078	661.810
306.964	22.266	841.461	662.002
307.979	22.030	840.684	660.445
308.993	21.886	840.368	659.596
310.008	22.266	840.473	661.050
311.022	22.482	839.747	661.231
312.037	22.251	839.120	659.813
313.052	21.865	838.366	657.714
314.066	21.773	838.042	657.054
315.081	21.271	836.169	653.650
316.095	20.621	834.894	650.166
317.110	21.094	835.328	652.216
318.125	21.939	835.437	655.402
319.139	21.584	833.927	652.834
320.154	20.483	832.546	647.595
321.168	20.005	831.509	644.952
322.183	20.722	832.015	647.957
323.197	21.455	832.434	650.954
324.212	21.673	832.196	651.524
325.227	21.910	831.502	651.804
326.241	22.126	831.134	652.259
327.256	22.075	830.721	651.687
328.270	21.841	830.118	650.287
329.285	21.722	829.667	649.437
330.300	21.695	828.695	648.520
331.314	21.472	827.811	646.945
332.329	21.578	826.803	646.489
333.343	21.920	826.991	647.845
334.358	22.130	826.848	648.450
335.373	22.261	825.518	647.832
336.387	22.121	825.482	647.230
337.402	22.341	825.413	647.930
338.416	22.520	824.746	648.006
339.431	22.486	824.024	647.256
340.446	22.503	823.263	646.666
341.460	22.776	822.994	647.398
342.475	22.690	822.415	646.570
343.489	22.272	822.215	644.822
344.504	22.487	821.215	644.770
345.519	22.612	820.996	644.996
346.533	22.823	820.660	645.447
347.548	22.888	820.562	645.550
348.562	22.941	819.853	645.131
349.577	22.911	819.428	644.628
350.592	22.937	818.583	644.004
351.606	22.934	818.392	643.783
352.621	22.722	817.795	642.485
353.635	22.771	817.128	642.083
354.650	22.743	816.471	641.408
355.665	22.497	815.378	639.599
356.679	21.403	813.959	634.463
357.694	21.286	813.334	633.496
358.708	21.908	813.701	635.981
359.723	21.903	812.475	634.947
360.738	22.153	812.540	635.848
361.752	22.382	812.486	636.578
362.767	22.366	812.515	636.484
363.781	22.724	812.461	637.680
364.796	23.084	812.156	638.685
365.810	23.167	811.463	638.385
366.825	23.257	810.918	638.223
367.840	23.108	810.737	637.488
368.854	23.107	810.040	636.876
369.869	22.778	809.139	634.932
370.883	22.443	808.698	633.322
371.898	22.655	807.934	633.429
372.913	22.667	807.273	632.900
373.927	22.540	806.661	631.907
374.942	22.725	805.892	631.914
375.956	22.901	805.796	632.412
376.971	22.857	805.053	631.614
377.986	22.980	804.833	631.825
379.000	23.101	804.536	631.971
380.015	23.189	803.679	631.555
381.029	22.989	803.411	630.574
382.044	23.034	802.395	629.883
383.059	23.266	802.003	630.346
384.073	23.193	801.774	629.848
385.088	23.040	801.480	629.016
386.102	23.064	801.383	628.972
387.117	23.164	799.738	627.982
388.132	22.809	799.562	626.525
389.146	22.610	799.131	625.426
390.161	22.203	797.935	622.993
391.175	22.227	797.401	622.606
392.190	22.800	797.694	624.809
393.205	22.754	797.408	624.366
394.219	21.919	795.414	619.801
395.234	20.252	793.437	612.327
396.248	19.692	792.025	609.213
397.263	20.669	793.250	613.547
398.278	22.475	794.212	620.606
399.292	22.997	794.224	622.400
400.307	22.454	794.088	620.327
401.321	22.543	793.110	619.820
402.336	22.485	793.067	619.528
403.350	22.907	792.543	620.546
404.365	23.241	792.678	621.771
405.380	23.478	792.512	622.415
406.394	23.823	792.226	623.349
407.409	23.936	791.522	623.134
408.423	23.835	790.770	622.134
409.438	23.865	790.351	621.855
410.453	23.817	790.058	621.400
411.467	23.929	789.593	621.373
412.482	23.798	789.140	620.503
413.496	23.811	788.763	620.196
414.511	23.801	788.752	620.098
415.526	23.946	787.918	619.894
416.540	23.893	787.584	619.392
417.555	23.924	787.107	619.070
418.569	23.596	786.026	617.022
419.584	23.490	785.539	616.217
420.599	23.462	785.492	616.030
421.613	156.701	1365.169	1798.104
422.628	135.508	1449.592	1798.191
