DTS Sentinel unit serial number:	SN413079Multiplexer serial number:	ORYXHardware model number:	OX4-SRSoftware version number:	ORYX F/W v4.00 Oryx Data Collector v3.7.2.0data status	okinstallation	princeton_trtdifferential loss correction	single-endedforward channel	channel 3reverse channel	N/Adate	2019/09/12time	04:14:11forward acquisition time	60.00reverse acquisition time	0.00gamma	496.2192k internal	0.2323k external	0.2323temperature offset calibration	1.0068default loss term (dB/km)	0.3790temperature slope calibration	1.0000multiplexer offset coefficient	1.0000multiplexer slope coefficient	1.0000fibre end	0.00T internal ref (°C)	31.87T ext. ref 1 (°C)	2.24T ext. ref 2 (°C)	25.42length (m)	temperature (°C)	Stokes	anti-Stokes-747.200	105.282	-0.193	-0.230
-746.185	-200.000	0.015	-0.101
-745.171	298.368	-0.126	0.234
-744.156	-200.000	-0.004	0.075
-743.142	800.000	-0.036	0.151
-742.127	800.000	0.203	0.586
-741.112	800.000	-0.089	0.284
-740.098	-200.000	-0.009	0.283
-739.083	334.157	-0.050	-0.097
-738.069	29.250	-0.225	0.193
-737.054	136.245	-0.166	-0.218
-736.039	-44.215	-0.375	-0.190
-735.025	190.275	0.102	0.155
-734.010	-84.050	-0.167	-0.054
-732.996	-18.412	0.091	-0.057
-731.981	-200.000	-0.084	-0.383
-730.966	-200.000	0.092	-0.648
-729.952	88.206	0.131	-0.147
-728.937	312.554	-0.209	0.397
-727.923	-74.979	-0.141	-0.051
-726.908	-36.871	-0.108	0.059
-725.894	130.235	0.132	-0.170
-724.879	9.434	0.171	-0.131
-723.864	-20.113	-0.292	-0.182
-722.850	31.253	-0.297	0.258
-721.835	38.446	-0.171	0.154
-720.821	-160.883	0.209	0.011
-719.806	-200.000	-0.049	-0.316
-718.791	-99.091	-0.178	0.046
-717.777	268.518	0.152	-0.269
-716.762	-54.718	0.117	-0.053
-715.748	-200.000	-0.014	-0.104
-714.733	-171.678	-0.156	0.005
-713.718	152.415	0.047	-0.065
-712.704	38.277	0.178	0.160
-711.689	-200.000	-0.007	-0.069
-710.675	-200.000	0.009	-0.197
-709.660	-82.476	-0.106	0.035
-708.645	-48.654	-0.366	-0.177
-707.631	-200.000	0.042	0.233
-706.616	326.346	-0.087	-0.168
-705.602	47.617	-0.090	-0.085
-704.587	41.093	-0.127	0.116
-703.572	145.621	0.106	0.144
-702.558	-111.771	-0.154	-0.031
-701.543	-200.000	0.164	0.000
-700.529	71.725	0.019	0.020
-699.514	-52.256	-0.133	0.062
-698.499	-66.389	0.152	0.061
-697.485	-124.715	0.338	-0.053
-696.470	-106.557	-0.219	-0.049
-695.456	-92.057	-0.329	0.094
-694.441	800.000	0.091	-0.312
-693.426	164.508	0.139	0.198
-692.412	-60.167	0.039	-0.017
-691.397	576.266	-0.018	-0.045
-690.383	6.516	-0.252	-0.189
-689.368	94.745	0.112	-0.128
-688.354	-87.551	-0.279	-0.085
-687.339	797.742	-0.063	0.176
-686.324	-54.741	0.318	0.145
-685.310	-55.137	0.461	0.209
-684.295	71.623	-0.111	-0.116
-683.281	-90.606	-0.191	0.056
-682.266	-137.469	-0.210	-0.024
-681.251	435.867	0.112	0.245
-680.237	63.777	0.184	0.186
-679.222	-22.095	0.183	0.112
-678.208	800.000	0.079	-0.246
-677.193	126.021	-0.124	-0.158
-676.178	-115.893	-0.415	0.078
-675.164	33.555	0.107	-0.093
-674.149	163.764	-0.092	0.131
-673.135	445.538	0.044	-0.096
-672.120	-67.528	-0.419	-0.166
-671.105	111.066	-0.146	-0.177
-670.091	-96.847	0.359	0.095
-669.076	-200.000	0.032	-0.147
-668.062	-56.540	0.165	0.074
-667.047	-64.458	0.260	-0.107
-666.032	-200.000	-0.014	-0.411
-665.018	145.502	-0.271	-0.366
-664.003	272.723	-0.174	0.308
-662.989	-50.745	0.187	0.089
-661.974	108.174	-0.172	0.207
-660.959	-34.855	0.159	0.087
-659.945	225.919	0.079	0.129
-658.930	-200.000	0.044	-0.327
-657.916	-140.981	-0.217	-0.022
-656.901	249.967	0.023	0.039
-655.886	-93.152	-0.051	-0.014
-654.872	-149.694	0.236	-0.019
-653.857	-200.000	0.011	-0.109
-652.843	204.652	0.116	0.181
-651.828	800.000	-0.093	0.318
-650.814	-14.667	-0.081	-0.052
-649.799	169.631	-0.370	0.532
-648.784	172.456	-0.074	-0.107
-647.770	-200.000	0.000	-0.322
-646.755	89.139	-0.188	0.210
-645.741	-200.000	-0.018	-0.112
-644.726	-34.117	0.158	0.087
-643.711	-200.000	0.006	0.303
-642.697	-200.000	0.028	-0.174
-641.682	-73.332	-0.049	-0.018
-640.668	-41.227	0.124	-0.065
-639.653	-111.371	0.125	0.026
-638.638	-74.586	-0.277	-0.100
-637.624	531.677	0.103	0.245
-636.609	349.220	-0.031	-0.062
-635.595	48.456	-0.199	-0.188
-634.580	369.487	-0.136	-0.277
-633.565	36.603	0.123	-0.109
-632.551	302.160	-0.158	-0.293
-631.536	77.598	-0.172	0.184
-630.522	-76.205	0.210	0.075
-629.507	-8.885	-0.111	-0.075
-628.492	-200.000	0.000	-0.249
-627.478	-116.001	-0.285	0.053
-626.463	-15.051	0.147	-0.095
-625.449	-39.007	-0.214	-0.113
-624.434	-102.960	0.083	0.020
-623.419	497.712	-0.148	0.343
-622.405	-200.000	-0.007	-0.084
-621.390	-200.000	-0.040	0.316
-620.376	-137.697	-0.308	0.035
-619.361	-192.421	-0.014	0.000
-618.346	125.235	0.123	-0.156
-617.332	800.000	-0.036	-0.147
-616.317	-112.601	-0.258	-0.052
-615.303	-200.000	0.013	-0.181
-614.288	-40.570	0.040	-0.021
-613.273	-26.052	0.204	-0.121
-612.259	-200.000	-0.007	0.079
-611.244	-83.578	-0.223	0.072
-610.230	96.707	0.282	0.325
-609.215	-95.921	0.141	-0.038
-608.201	-23.196	-0.160	0.097
-607.186	24.601	-0.137	0.114
-606.171	-116.252	-0.216	-0.040
-605.157	-27.286	0.057	0.033
-604.142	-145.299	0.290	0.026
-603.128	-118.484	-0.201	-0.036
-602.113	113.702	0.152	-0.185
-601.098	-200.000	-0.027	0.178
-600.084	-200.000	-0.023	0.275
-599.069	34.438	0.043	-0.038
-598.055	-18.868	0.354	0.221
-597.040	-75.614	-0.361	0.129
-596.025	-200.000	-0.000	0.145
-595.011	-124.011	0.131	-0.021
-593.996	-92.094	0.311	0.088
-592.982	281.094	0.168	0.302
-591.967	-173.173	-0.039	-0.001
-590.952	271.937	-0.125	0.221
-589.938	714.872	0.047	-0.124
-588.923	-108.051	0.198	0.043
-587.909	34.601	-0.059	0.052
-586.894	-93.854	-0.132	-0.036
-585.879	432.567	0.077	-0.168
-584.865	-145.982	0.409	0.036
-583.850	-200.000	0.029	-0.284
-582.836	800.000	-0.028	0.103
-581.821	-88.379	-0.201	-0.060
-580.806	44.645	-0.173	0.160
-579.792	250.917	-0.116	-0.198
-578.777	-65.294	-0.136	-0.055
-577.763	-200.000	-0.026	-0.324
-576.748	86.871	-0.185	-0.205
-575.733	182.638	0.152	0.225
-574.719	-111.249	-0.293	0.060
-573.704	501.424	0.084	0.194
-572.690	-32.493	-0.070	0.039
-571.675	800.000	0.136	0.418
-570.661	-200.000	0.081	0.437
-569.646	-200.000	0.057	0.299
-568.631	80.572	0.085	0.091
-567.617	-59.301	0.153	-0.066
-566.602	-200.000	-0.012	0.128
-565.588	777.033	-0.040	0.110
-564.573	-191.676	-0.312	0.003
-563.558	-200.000	-0.043	-0.359
-562.544	779.348	0.107	0.294
-561.529	71.810	-0.208	0.217
-560.515	2.866	0.256	0.186
-559.500	-200.000	0.005	0.025
-558.485	9.744	0.230	0.175
-557.471	143.912	0.188	0.251
-556.456	-75.406	-0.113	0.040
-555.442	800.000	-0.015	0.061
-554.427	-200.000	0.036	-0.230
-553.412	-117.829	-0.141	-0.025
-552.398	203.944	-0.098	0.152
-551.383	-68.988	0.175	0.067
-550.369	-11.154	0.161	0.106
-549.354	2.844	-0.227	0.165
-548.339	2.641	0.325	-0.236
-547.325	-200.000	0.038	0.185
-546.310	-59.722	0.358	0.154
-545.296	-69.100	-0.128	0.050
-544.281	103.358	0.039	-0.046
-543.266	-134.968	-0.261	-0.032
-542.252	203.451	-0.150	0.233
-541.237	800.000	0.163	-0.484
-540.223	-99.563	0.137	-0.035
-539.208	-84.038	0.288	-0.092
-538.193	39.536	0.260	0.233
-537.179	-200.000	-0.021	-0.121
-536.164	609.560	0.104	0.260
-535.150	13.067	0.357	-0.277
-534.135	569.883	-0.118	0.287
-533.121	-33.066	0.402	-0.224
-532.106	10.443	-0.116	0.088
-531.091	-200.000	0.031	0.267
-530.077	47.114	-0.138	0.129
-529.062	50.431	-0.170	-0.161
-528.048	-56.838	0.271	-0.120
-527.033	106.143	0.028	-0.033
-526.018	121.920	0.227	-0.284
-525.004	800.000	-0.034	0.111
-523.989	-200.000	-0.013	-0.099
-522.975	800.000	0.058	0.163
-521.960	-34.078	-0.187	0.103
-520.945	442.329	-0.141	0.308
-519.931	393.674	0.150	-0.313
-518.916	800.000	0.034	0.108
-517.902	-84.785	-0.088	-0.028
-516.887	-200.000	-0.023	0.140
-515.872	-200.000	-0.401	0.002
-514.858	-93.797	0.235	0.065
-513.843	-97.110	-0.134	0.035
-512.829	-147.989	-0.338	0.028
-511.814	-16.574	0.140	-0.089
-510.799	104.629	0.195	0.230
-509.785	-89.999	-0.001	-0.000
-508.770	85.956	-0.046	-0.050
-507.756	-200.000	-0.020	-0.300
-506.741	22.790	-0.174	-0.143
-505.726	197.192	-0.155	0.236
-504.712	-142.368	-0.338	0.033
-503.697	800.000	0.038	0.149
-502.683	-200.000	-0.032	0.287
-501.668	-200.000	-0.021	0.216
-500.653	94.973	0.057	0.064
-499.639	-92.005	-0.285	-0.081
-498.624	-200.000	0.050	-0.224
-497.610	-200.000	0.088	-0.457
-496.595	-137.316	0.300	0.034
-495.581	-66.540	-0.170	-0.068
-494.566	-121.387	0.409	0.068
-493.551	-154.431	0.040	-0.003
-492.537	484.635	-0.041	-0.094
-491.522	800.000	-0.075	-0.297
-490.508	-182.176	-0.149	0.003
-489.493	-200.000	-0.004	-0.045
-488.478	-23.891	0.256	0.153
-487.464	470.847	-0.081	0.182
-486.449	136.313	0.098	0.127
-485.435	208.437	0.073	0.114
-484.420	60.424	0.253	-0.251
-483.405	187.960	-0.019	0.028
-482.391	6.017	-0.218	-0.161
-481.376	-200.000	0.067	-0.371
-480.362	-200.000	0.022	-0.132
-479.347	176.928	0.091	-0.133
-478.332	676.875	-0.033	0.087
-477.318	-74.703	0.116	0.042
-476.303	-35.458	-0.424	0.230
-475.289	-200.000	0.021	-0.098
-474.274	800.000	0.067	-0.266
-473.259	-99.980	0.208	-0.052
-472.245	-80.851	-0.191	-0.063
-471.230	185.850	0.017	-0.025
-470.216	-113.139	-0.426	0.084
-469.201	-135.784	-0.283	-0.033
-468.186	-94.701	-0.257	0.070
-467.172	-64.822	-0.238	0.096
-466.157	-81.513	0.140	0.046
-465.143	-41.046	-0.266	0.137
-464.128	215.354	-0.010	0.016
-463.113	64.755	-0.300	-0.303
-462.099	-22.185	0.061	-0.037
-461.084	403.081	-0.033	0.070
-460.070	436.891	0.075	0.164
-459.055	800.000	-0.145	0.405
-458.040	715.870	-0.045	-0.119
-457.026	-26.923	0.078	-0.045
-456.011	23.202	-0.326	-0.267
-454.997	483.938	0.136	0.309
-453.982	493.763	0.060	0.138
-452.968	173.189	-0.143	0.205
-451.953	74.589	0.163	0.171
-450.938	275.752	0.183	-0.325
-449.924	-72.637	0.031	0.011
-448.909	800.000	0.091	-0.263
-447.895	57.201	0.171	0.167
-446.880	-111.237	0.206	0.042
-445.865	800.000	0.050	-0.139
-444.851	-200.000	0.039	0.271
-443.836	-26.922	0.222	0.129
-442.822	266.862	-0.056	-0.098
-441.807	292.971	0.043	-0.077
-440.792	-136.022	0.292	0.034
-439.778	-118.541	-0.427	0.075
-438.763	68.652	-0.296	0.303
-437.749	320.313	-0.119	0.226
-436.734	800.000	-0.132	-0.387
-435.719	113.396	-0.163	-0.197
-434.705	-151.054	-0.375	-0.028
-433.690	-200.000	0.014	-0.229
-432.676	800.000	0.033	-0.127
-431.661	104.368	0.116	0.136
-430.646	-200.000	-0.014	-0.170
-429.632	111.388	-0.088	-0.106
-428.617	235.811	0.190	-0.314
-427.603	-200.000	0.003	0.245
-426.588	56.748	-0.026	-0.025
-425.573	37.726	0.187	0.166
-424.559	800.000	-0.051	0.145
-423.544	599.439	-0.041	0.102
-422.530	-6.556	-0.367	0.249
-421.515	19.362	0.215	-0.172
-420.500	-183.800	0.245	0.004
-419.486	-117.695	-0.167	0.030
-418.471	-176.942	-0.119	-0.003
-417.457	-152.488	0.353	-0.025
-416.442	-106.139	-0.154	-0.035
-415.428	-134.153	-0.229	-0.028
-414.413	84.540	0.183	-0.199
-413.398	-64.803	0.157	-0.063
-412.384	76.365	0.167	-0.176
-411.369	35.750	0.050	0.044
-410.355	-25.499	-0.220	-0.130
-409.340	-8.452	0.260	0.174
-408.325	-64.357	0.301	-0.122
-407.311	-53.798	-0.096	-0.044
-406.296	334.560	0.091	0.175
-405.282	-135.713	0.247	0.029
-404.267	707.897	-0.105	-0.277
-403.252	1.531	0.175	0.126
-402.238	-111.303	-0.028	0.006
-401.223	-200.000	-0.037	-0.268
-400.209	-124.771	-0.150	-0.023
-399.194	149.658	0.091	0.123
-398.179	73.802	-0.059	0.062
-397.165	-34.172	-0.257	-0.141
-396.150	35.817	-0.098	-0.086
-395.136	96.340	0.093	0.106
-394.121	-149.326	-0.295	-0.023
-393.106	-200.000	0.008	0.226
-392.092	23.147	0.182	0.149
-391.077	46.463	-0.221	0.204
-390.063	309.036	0.199	-0.371
-389.048	-84.515	0.293	0.092
-388.033	-144.869	0.202	-0.018
-387.019	-140.349	-0.350	-0.036
-386.004	-200.000	-0.049	-0.349
-384.990	-66.195	0.154	-0.061
-383.975	-106.443	0.152	0.034
-382.960	-147.230	0.313	0.027
-381.946	-200.000	0.034	0.242
-380.931	-66.109	-0.248	-0.099
-379.917	-5.044	-0.033	0.022
-378.902	-136.079	0.302	-0.035
-377.888	-150.177	0.287	-0.022
-376.873	-200.000	-0.058	0.262
-375.858	476.440	-0.104	0.234
-374.844	-200.000	-0.042	0.475
-373.829	688.076	-0.086	0.223
-372.815	-144.664	0.241	-0.022
-371.800	130.839	0.008	0.010
-370.785	33.479	0.072	-0.062
-369.771	-127.642	-0.486	-0.070
-368.756	800.000	0.072	-0.199
-367.742	-100.089	0.079	-0.020
-366.727	-50.602	0.087	-0.041
-365.712	-163.487	0.185	0.009
-364.698	-83.505	-0.263	0.084
-363.683	800.000	-0.066	0.200
-362.669	800.000	0.069	-0.298
-361.654	-198.056	0.053	-0.000
-360.639	-200.000	0.062	-0.276
-359.625	173.461	-0.120	-0.173
-358.610	519.477	0.091	0.211
-357.596	-11.806	0.067	0.044
-356.581	177.562	-0.136	0.197
-355.566	79.826	-0.155	0.166
-354.552	238.132	0.141	0.233
-353.537	487.697	0.115	-0.262
-352.523	309.130	-0.097	-0.179
-351.508	764.039	-0.082	0.220
-350.493	-72.914	-0.230	-0.084
-349.479	373.700	0.052	0.106
-348.464	733.355	0.126	0.337
-347.450	597.317	0.084	-0.207
-346.435	-128.758	-0.715	0.100
-345.420	5.859	0.045	-0.033
-344.406	800.000	-0.048	-0.176
-343.391	598.489	0.034	-0.084
-342.377	-80.279	0.076	-0.025
-341.362	-86.114	0.264	-0.081
-340.348	-141.433	-0.066	0.007
-339.333	272.459	0.051	0.090
-338.318	-89.921	-0.094	0.027
-337.304	-116.168	0.128	-0.024
-336.289	251.465	0.113	-0.191
-335.275	149.652	0.252	0.339
-334.260	193.709	-0.100	-0.150
-333.245	-57.179	0.240	0.105
-332.231	11.891	0.235	0.180
-331.216	71.400	0.076	0.078
-330.202	800.000	0.025	0.088
-329.187	22.019	-0.137	-0.111
-328.172	-200.000	-0.009	-0.178
-327.158	397.468	-0.214	-0.445
-326.143	-200.000	-0.014	-0.091
-325.129	800.000	0.152	-0.494
-324.114	-200.000	0.036	-0.439
-323.099	-32.316	0.403	0.224
-322.085	-1.774	0.494	0.345
-321.070	58.523	0.047	0.046
-320.056	-200.000	0.055	-0.272
-319.041	-200.000	-0.055	0.265
-318.026	-139.240	-0.190	-0.020
-317.012	331.543	-0.122	-0.233
-315.997	-47.324	0.209	-0.101
-314.983	100.770	-0.123	-0.142
-313.968	800.000	-0.096	0.271
-312.953	-99.927	-0.205	-0.051
-311.939	-112.387	-0.220	0.044
-310.924	14.588	0.221	0.171
-309.910	-107.148	-0.180	-0.039
-308.895	-200.000	0.293	0.000
-307.880	-160.074	-0.236	0.013
-306.866	49.442	-0.138	-0.129
-305.851	498.594	0.146	-0.335
-304.837	-200.000	0.021	0.205
-303.822	-83.806	-0.212	-0.067
-302.807	-1.578	0.264	0.184
-301.793	-14.330	0.167	0.107
-300.778	-44.853	-0.143	-0.071
-299.764	-25.153	-0.202	0.119
-298.749	800.000	-0.097	0.308
-297.735	-13.091	0.072	-0.046
-296.720	-74.194	0.189	-0.068
-295.705	-128.740	-0.164	0.023
-294.691	-76.835	-0.195	0.068
-293.676	49.514	0.194	0.181
-292.662	1.602	0.176	-0.126
-291.647	-56.322	-0.396	-0.175
-290.632	231.245	0.037	-0.060
-289.618	-116.661	-0.326	0.059
-288.603	-200.000	0.025	-0.258
-287.589	-3.879	0.186	0.128
-286.574	-183.571	-0.183	-0.003
-285.559	463.198	-0.146	-0.323
-284.545	-200.000	0.010	0.169
-283.530	800.000	-0.071	-0.195
-282.516	-64.809	-0.062	0.025
-281.501	227.809	0.202	-0.325
-280.486	18.060	0.159	0.126
-279.472	65.999	0.170	0.171
-278.457	33.436	0.108	-0.093
-277.443	138.625	-0.094	0.122
-276.428	-200.000	0.056	-0.314
-275.413	8.665	-0.086	0.064
-274.399	3.531	-0.152	0.110
-273.384	-6.485	-0.295	-0.199
-272.370	774.107	0.075	0.203
-271.355	392.357	0.049	0.101
-270.340	-9.568	-0.104	0.069
-269.326	-194.228	0.077	-0.001
-268.311	158.651	-0.104	0.144
-267.297	29.846	-0.142	0.120
-266.282	-34.096	0.125	0.068
-265.267	148.560	0.279	0.374
-264.253	-13.295	0.420	0.270
-263.238	188.102	-0.182	0.270
-262.224	800.000	-0.075	0.287
-261.209	-153.683	0.406	0.028
-260.195	-10.693	0.117	-0.077
-259.180	-34.263	0.057	0.031
-258.165	-162.176	-0.161	0.008
-257.151	-86.262	0.162	0.050
-256.136	-62.762	-0.409	-0.168
-255.122	-200.000	0.101	-0.522
-254.107	-60.005	-0.169	-0.071
-253.092	101.935	0.022	0.025
-252.078	800.000	0.101	-0.375
-251.063	-58.127	0.215	0.093
-250.049	-130.625	0.112	0.015
-249.034	178.148	-0.027	0.039
-248.019	40.405	-0.126	-0.112
-247.005	-78.751	-0.099	0.033
-245.990	-200.000	-0.018	0.171
-244.976	7.752	0.312	0.232
-243.961	800.000	0.057	0.197
-242.946	496.895	0.104	-0.237
-241.932	225.458	0.238	0.382
-240.917	231.388	0.031	0.051
-239.903	-65.205	-0.151	-0.060
-238.888	-73.892	-0.215	-0.077
-237.873	-105.681	-0.315	-0.071
-236.859	-115.699	0.214	0.040
-235.844	494.090	-0.129	0.294
-234.830	82.472	0.118	-0.127
-233.815	-194.011	-0.053	0.000
-232.800	137.485	-0.132	-0.171
-231.786	181.968	-0.276	0.402
-230.771	-71.166	-0.160	0.059
-229.757	-200.000	-0.048	-0.387
-228.742	800.000	0.036	-0.128
-227.727	-200.000	-0.021	0.094
-226.713	-140.605	-0.153	0.016
-225.698	800.000	-0.159	-0.532
-224.684	121.449	0.253	-0.312
-223.669	-180.649	0.059	-0.001
-222.655	-67.219	-0.202	0.079
-221.640	-9.516	0.305	-0.201
-220.625	-174.986	-0.403	-0.011
-219.611	-200.000	0.042	0.261
-218.596	118.846	-0.173	0.212
-217.582	-200.000	-0.024	-0.176
-216.567	-44.945	0.148	-0.073
-215.552	800.000	0.169	-0.521
-214.538	800.000	0.081	-0.249
-213.523	-200.000	0.014	-0.101
-212.509	531.190	-0.042	-0.099
-211.494	274.800	-0.155	0.271
-210.479	-114.448	-0.084	-0.016
-209.465	800.000	0.029	-0.090
-208.450	-126.100	-0.270	-0.040
-207.436	-27.829	-0.172	-0.099
-206.421	373.132	0.139	0.280
-205.406	546.102	0.102	-0.242
-204.392	272.632	-0.248	-0.432
-203.377	-17.017	-0.181	-0.113
-202.363	-200.000	0.001	-0.281
-201.348	511.206	-0.142	-0.326
-200.333	-117.136	-0.382	-0.069
-199.319	339.029	0.190	-0.365
-198.304	-30.516	0.470	-0.263
-197.290	106.175	0.063	-0.073
-196.275	-61.100	-0.331	0.138
-195.260	432.429	-0.040	0.085
-194.246	-116.310	-0.250	0.046
-193.231	22.334	0.082	0.066
-192.217	-200.000	0.008	-0.057
-191.202	-44.810	0.184	-0.091
-190.187	800.000	-0.052	-0.164
-189.173	800.000	0.033	0.115
-188.158	800.000	0.055	-0.185
-187.144	169.577	-0.026	-0.037
-186.129	3.080	0.259	-0.186
-185.114	-10.567	0.109	-0.071
-184.100	-157.972	-0.096	0.006
-183.085	49.536	0.163	-0.152
-182.071	98.698	-0.149	0.170
-181.056	12.253	0.120	-0.091
-180.042	377.460	0.142	0.286
-179.027	-1.495	0.236	0.164
-178.012	-58.824	-0.209	0.089
-176.998	-84.904	-0.287	-0.089
-175.983	-8.847	0.110	-0.073
-174.969	-142.413	0.156	-0.015
-173.954	800.000	0.095	-0.270
-172.939	800.000	0.051	-0.183
-171.925	-200.000	-0.011	-0.223
-170.910	235.882	0.014	0.022
-169.896	425.216	-0.099	0.211
-168.881	-200.000	0.001	-0.180
-167.866	-64.943	0.257	0.102
-166.852	62.582	0.233	-0.230
-165.837	509.904	0.125	0.288
-164.823	-48.529	0.125	0.059
-163.808	189.322	0.144	0.213
-162.793	84.148	0.241	0.260
-161.779	-17.694	-0.327	-0.203
-160.764	89.388	0.082	-0.090
-159.750	428.499	-0.058	-0.124
-158.735	534.379	0.119	0.279
-157.720	-138.261	-0.243	0.027
-156.706	-200.000	-0.015	-0.392
-155.691	-92.147	0.200	0.056
-154.677	-23.408	-0.122	-0.072
-153.662	125.725	0.006	-0.008
-152.647	73.554	0.107	0.110
-151.633	-200.000	-0.059	0.393
-150.618	-47.171	-0.209	0.101
-149.604	-122.975	0.367	0.058
-148.589	3.480	0.187	-0.135
-147.574	-52.156	-0.228	-0.104
-146.560	-200.000	-0.004	0.120
-145.545	-59.195	0.221	0.094
-144.531	169.320	0.191	0.270
-143.516	-126.443	-0.089	0.013
-142.502	16.840	0.257	-0.201
-141.487	-121.930	-0.267	-0.043
-140.472	-137.351	0.387	-0.043
-139.458	79.669	-0.081	-0.085
-138.443	432.585	0.116	0.249
-137.429	136.485	0.016	0.021
-136.414	230.515	-0.042	-0.068
-135.399	215.833	0.129	-0.203
-134.385	-6.282	-0.197	0.132
-133.370	-136.521	-0.245	0.028
-132.356	243.552	-0.100	0.165
-131.341	369.690	-0.150	0.299
-130.326	-22.536	-0.177	0.106
-129.312	-17.653	-0.275	0.171
-128.297	174.730	0.083	-0.119
-127.283	-0.882	-0.165	0.115
-126.268	170.888	-0.102	0.144
-125.253	554.398	0.099	-0.235
-124.239	800.000	-0.030	-0.122
-123.224	-200.000	0.008	-0.188
-122.210	-65.208	-0.230	0.091
-121.195	268.052	-0.294	0.508
-120.180	-200.000	-0.004	-0.221
-119.166	-132.606	0.250	0.032
-118.151	-49.738	-0.361	0.169
-117.137	-94.093	-0.051	-0.014
-116.122	-67.010	-0.101	0.039
-115.107	67.773	0.252	-0.254
-114.093	68.758	0.094	-0.095
-113.078	-53.317	0.272	0.123
-112.064	261.300	0.213	0.364
-111.049	154.197	0.097	0.130
-110.034	12.544	0.272	-0.207
-109.020	-200.000	0.038	0.434
-108.005	79.098	-0.249	0.263
-106.991	-120.386	0.433	-0.073
-105.976	-200.000	-0.014	0.355
-104.962	7.360	-0.127	0.093
-103.947	-36.125	-0.076	0.040
-102.932	-60.722	0.091	0.038
-101.918	115.905	0.203	0.245
-100.903	800.000	-0.130	0.366
-99.889	5.563	0.138	-0.100
-98.874	-200.000	0.045	-0.217
-97.859	-200.000	-0.023	-0.220
-96.845	243.913	0.104	-0.172
-95.830	-191.432	-0.043	0.000
-94.816	54.854	0.141	0.134
-93.801	440.195	0.131	0.282
-92.786	-11.322	0.133	0.086
-91.772	-27.252	0.100	-0.058
-90.757	800.000	-0.048	0.150
-89.743	-76.811	-0.250	0.086
-88.728	-39.735	-0.284	-0.146
-87.713	343.427	0.066	-0.127
-86.699	-1.016	-0.399	0.278
-85.684	-200.000	-0.022	-0.100
-84.670	-32.426	0.198	0.109
-83.655	278.788	0.208	0.365
-82.640	7.342	0.143	0.105
-81.626	800.000	0.013	-0.038
-80.611	-115.210	0.356	0.066
-79.597	-68.033	-0.342	0.131
-78.582	-6.887	0.257	-0.172
-77.567	23.959	-0.124	0.100
-76.553	-12.256	-0.100	-0.064
-75.538	287.540	0.057	0.101
-74.524	800.000	0.043	-0.136
-73.509	-70.084	-0.166	-0.062
-72.494	108.480	0.174	0.205
-71.480	800.000	0.052	0.217
-70.465	-43.671	0.226	-0.112
-69.451	-200.000	-0.020	0.288
-68.436	-200.000	-0.003	-0.049
-67.422	-45.044	0.334	-0.163
-66.407	800.000	0.080	0.309
-65.392	800.000	0.112	0.314
-64.378	-68.700	-0.217	0.083
-63.363	305.558	-0.049	0.089
-62.349	181.870	0.053	0.076
-61.334	59.430	-0.773	-0.749
-60.319	721.597	0.186	0.486
-59.305	-200.000	-0.015	-1.016
-58.290	289.634	0.681	1.215
-57.276	800.000	0.473	1.320
-56.261	-200.000	97.646	606.952
-55.246	558.568	1371.746	3253.877
-54.232	162.128	2546.592	3508.165
-53.217	113.028	2152.436	2564.985
-52.203	42.632	1698.111	1519.502
-51.188	35.143	1511.585	1301.880
-50.173	32.707	1485.064	1262.696
-49.159	52.802	1535.133	1442.520
-48.144	54.641	1552.166	1470.978
-47.130	35.308	1511.576	1302.790
-46.115	32.236	1497.295	1269.718
-45.100	31.922	1493.838	1264.615
-44.086	31.878	1492.065	1262.767
-43.071	31.849	1490.167	1260.918
-42.057	31.943	1488.098	1259.748
-41.042	31.867	1487.223	1258.451
-40.027	31.831	1486.002	1257.126
-39.013	31.870	1484.274	1255.874
-37.998	31.813	1482.800	1254.192
-36.984	31.884	1481.718	1253.706
-35.969	31.864	1479.897	1251.978
-34.954	31.900	1478.650	1251.116
-33.940	31.866	1477.454	1249.827
-32.925	32.025	1475.895	1249.519
-31.911	31.845	1474.977	1247.491
-30.896	31.865	1473.890	1246.655
-29.881	31.907	1471.904	1245.206
-28.867	32.014	1470.436	1244.625
-27.852	31.916	1469.365	1243.017
-26.838	32.038	1468.047	1242.666
-25.823	31.960	1466.319	1240.632
-24.809	31.939	1464.983	1239.314
-23.794	31.867	1463.576	1237.602
-22.779	31.887	1462.638	1236.889
-21.765	31.850	1461.562	1235.687
-20.750	31.927	1459.966	1234.797
-19.736	31.851	1459.250	1233.642
-18.721	31.899	1458.030	1232.877
-17.706	31.784	1457.101	1231.291
-16.692	31.846	1455.739	1230.493
-15.677	31.847	1454.614	1229.504
-14.663	31.807	1454.004	1228.678
-13.648	31.849	1452.724	1227.823
-12.633	31.918	1451.370	1227.077
-11.619	31.891	1450.791	1226.367
-10.604	31.948	1450.269	1226.249
-9.590	31.860	1449.738	1225.171
-8.575	31.817	1449.144	1224.344
-7.560	31.834	1447.814	1223.278
-6.546	31.861	1446.463	1222.264
-5.531	31.746	1446.267	1221.304
-4.517	31.837	1444.603	1220.445
-3.502	31.814	1443.543	1219.350
-2.487	31.791	1442.691	1218.430
-1.473	31.751	1441.896	1217.454
-0.458	31.840	1440.318	1216.647
0.556	32.157	1431.325	1204.768
1.571	29.424	1406.821	1166.779
2.586	26.801	1351.687	1104.993
3.600	25.836	1274.264	1036.063
4.615	24.537	1228.642	991.672
5.629	21.215	1170.564	927.104
6.644	11.257	1083.774	809.097
7.659	3.471	1042.089	740.629
8.673	2.422	1036.156	731.335
9.688	2.267	1033.520	728.673
10.702	2.205	1031.530	726.911
11.717	2.056	1030.348	725.305
12.731	6.200	1034.518	747.915
13.746	15.955	1048.423	804.714
14.761	23.236	1057.401	846.487
15.775	25.156	1059.320	857.136
16.790	25.504	1059.454	858.830
17.804	25.503	1058.122	857.666
18.819	25.168	1057.715	855.663
19.834	25.233	1057.153	855.446
20.848	25.463	1056.674	856.078
21.863	25.550	1056.233	856.057
22.877	25.482	1056.188	855.624
23.892	25.448	1055.465	854.799
24.907	25.456	1054.199	853.736
25.921	25.434	1053.887	853.301
26.936	25.522	1052.542	852.553
27.950	25.515	1051.661	851.735
28.965	25.334	1050.739	850.056
29.980	25.195	1049.628	848.422
30.994	25.365	1047.828	847.696
32.009	25.437	1047.416	847.629
33.023	25.605	1046.681	847.750
34.038	25.399	1045.879	846.055
35.053	25.278	1045.041	844.732
36.067	25.449	1044.190	844.776
37.082	25.425	1043.662	844.157
38.096	25.595	1042.368	843.834
39.111	25.829	1041.811	844.406
40.126	25.744	1041.321	843.539
41.140	25.641	1039.996	841.909
42.155	25.283	1038.912	839.281
43.169	25.118	1037.146	837.010
44.184	25.120	1036.458	836.390
45.199	25.139	1035.690	835.783
46.213	25.074	1034.599	834.530
47.228	25.061	1033.805	833.752
48.242	25.193	1032.794	833.477
49.257	25.198	1032.945	833.550
50.271	25.298	1031.950	833.136
51.286	25.561	1031.140	833.631
52.301	25.621	1030.382	833.220
53.315	25.611	1029.462	832.355
54.330	25.444	1029.061	831.183
55.344	25.514	1027.704	830.339
56.359	25.407	1027.146	829.322
57.374	25.490	1026.138	828.814
58.388	25.240	1025.284	826.904
59.403	25.200	1024.715	826.183
60.417	25.136	1023.880	825.142
61.432	25.037	1022.599	823.585
62.447	25.162	1022.570	824.060
63.461	25.091	1022.069	823.258
64.476	25.265	1021.248	823.323
65.490	25.234	1020.145	822.221
66.505	25.024	1019.180	820.405
67.520	25.129	1018.742	820.465
68.534	25.163	1018.102	820.030
69.549	25.013	1017.014	818.395
70.563	24.762	1015.775	816.184
71.578	24.684	1014.776	814.953
72.593	24.713	1014.298	814.629
73.607	24.629	1012.877	813.034
74.622	24.614	1012.218	812.364
75.636	24.900	1011.490	813.007
76.651	25.104	1010.655	813.187
77.666	24.917	1009.822	811.597
78.680	24.749	1008.824	809.964
79.695	24.925	1008.237	810.217
80.709	24.901	1008.011	809.854
81.724	25.110	1007.285	810.146
82.739	24.999	1006.150	808.661
83.753	25.053	1005.454	808.272
84.768	25.194	1005.067	808.527
85.782	25.631	1004.565	810.020
86.797	25.725	1004.195	810.072
87.812	25.699	1002.613	808.607
88.826	25.655	1001.674	807.578
89.841	25.743	1000.805	807.201
90.855	25.760	1000.627	807.064
91.870	25.804	999.245	806.074
92.884	25.712	998.726	805.173
93.899	25.648	997.753	804.031
94.914	25.428	997.117	802.467
95.928	25.709	995.857	802.632
96.943	25.502	995.621	801.450
97.957	25.306	994.073	799.261
98.972	25.183	992.944	797.734
99.987	24.951	992.071	795.931
101.001	25.195	991.152	796.208
102.016	25.306	991.157	796.632
103.030	25.371	990.327	796.185
104.045	25.364	988.995	795.013
105.060	25.228	987.945	793.494
106.074	25.092	986.731	791.849
107.089	25.084	985.795	790.991
108.103	25.201	985.989	791.594
109.118	25.499	984.694	791.798
110.133	25.161	983.658	789.407
111.147	25.231	982.426	788.659
112.162	25.050	981.321	786.905
113.176	24.797	980.681	785.212
114.191	25.044	979.978	785.663
115.206	24.985	979.546	784.989
116.220	24.780	978.065	782.837
117.235	24.646	976.823	781.188
118.249	24.745	976.913	781.621
119.264	24.778	975.825	780.828
120.279	24.765	974.732	779.827
121.293	24.714	973.507	778.555
122.308	24.799	973.097	778.527
123.322	24.994	972.035	778.455
124.337	24.911	971.351	777.479
125.352	24.667	970.264	775.484
126.366	24.289	968.823	772.623
127.381	23.965	967.016	769.712
128.395	24.545	967.130	772.247
129.410	25.229	966.616	774.719
130.424	25.394	966.062	774.920
131.439	25.334	965.364	774.031
132.454	25.269	963.962	772.563
133.468	25.278	963.236	771.951
134.483	25.171	962.690	770.984
135.497	25.314	962.103	771.058
136.512	25.435	961.515	771.040
137.527	25.506	961.073	770.921
138.541	25.681	959.745	770.539
139.556	25.504	959.237	769.305
140.570	25.521	958.195	768.472
141.585	25.496	957.761	767.952
142.600	25.684	956.444	767.629
143.614	25.582	955.723	766.547
144.629	25.656	955.220	766.392
145.643	25.860	954.442	766.565
146.658	25.654	953.499	764.866
147.673	25.512	952.596	763.470
148.687	25.594	950.825	762.330
149.702	25.268	950.229	760.403
150.716	25.374	948.757	759.607
151.731	25.273	948.151	758.630
152.746	25.493	947.136	758.676
153.760	25.677	946.893	759.194
154.775	25.647	946.215	758.456
155.789	25.652	945.886	758.147
156.804	25.672	944.982	757.437
157.819	25.662	943.560	756.188
158.833	25.575	942.945	755.263
159.848	25.714	942.136	755.133
160.862	25.786	941.580	754.923
161.877	25.728	940.435	753.694
162.892	25.678	939.559	752.717
163.906	25.755	938.887	752.432
164.921	25.723	938.109	751.609
165.935	25.718	936.804	750.478
166.950	25.738	935.723	749.627
167.964	25.780	935.363	749.449
168.979	25.769	933.893	748.158
169.994	25.738	932.855	747.133
171.008	25.473	932.027	745.305
172.023	25.624	931.531	745.468
173.037	25.796	930.441	745.241
174.052	25.740	929.543	744.225
175.067	25.404	928.759	742.141
176.081	25.303	927.960	741.021
177.096	25.468	927.040	740.901
178.110	25.602	926.180	740.700
179.125	25.508	924.755	739.108
180.140	24.975	924.297	736.488
181.154	24.997	923.512	735.887
182.169	25.222	923.303	736.579
183.183	25.489	923.028	737.390
184.198	25.645	922.735	737.729
185.213	25.755	921.630	737.233
186.227	25.638	921.165	736.317
187.242	25.699	920.674	736.109
188.256	25.796	919.860	735.787
189.271	25.885	918.736	735.187
190.286	25.781	918.424	734.447
191.300	25.675	917.390	733.122
192.315	25.121	916.240	729.884
193.329	24.307	914.444	725.082
194.344	23.901	913.358	722.506
195.359	24.503	913.626	725.101
196.373	25.265	914.204	728.588
197.388	25.651	913.858	729.817
198.402	25.643	912.956	729.001
199.417	25.542	912.603	728.244
200.432	25.690	912.140	728.410
201.446	25.446	911.433	726.794
202.461	25.180	910.812	725.157
203.475	25.211	910.405	724.897
204.490	24.865	908.519	721.934
205.504	23.688	906.429	715.470
206.519	24.064	906.677	717.117
207.534	24.999	907.190	721.226
208.548	25.144	906.501	721.196
209.563	25.404	906.293	722.015
210.577	25.455	905.590	721.593
211.592	25.277	904.918	720.282
212.607	25.814	904.691	722.192
213.621	25.851	904.410	722.052
214.636	25.739	903.193	720.569
215.650	25.856	903.048	720.853
216.665	26.024	901.909	720.554
217.680	25.769	902.067	719.596
218.694	25.899	901.106	719.288
219.709	25.489	900.437	717.054
220.723	25.206	899.671	715.250
221.738	25.507	898.687	715.602
222.753	25.622	898.459	715.815
223.767	25.346	898.122	714.385
224.782	25.628	897.085	714.620
225.796	25.898	895.981	714.750
226.811	25.984	896.043	715.076
227.826	25.465	894.918	712.057
228.840	24.651	893.255	707.453
229.855	24.595	892.903	706.886
230.869	24.988	892.330	707.928
231.884	24.632	891.246	705.598
232.899	24.637	891.002	705.361
233.913	25.377	891.126	708.318
234.928	25.483	890.784	708.399
235.942	25.375	890.130	707.393
236.957	25.486	889.464	707.238
237.972	25.429	888.032	705.813
238.986	25.109	887.770	704.285
240.001	25.165	887.413	704.158
241.015	25.217	886.473	703.554
242.030	25.285	886.112	703.474
243.045	25.477	885.246	703.476
244.059	25.420	885.281	703.218
245.074	25.735	884.923	704.102
246.088	25.601	883.988	702.774
247.103	25.246	883.088	700.608
248.117	25.399	882.577	700.740
249.132	25.952	882.127	702.475
250.147	26.177	882.283	703.415
251.161	26.348	881.493	703.387
252.176	26.610	880.906	703.875
253.190	26.521	880.772	703.358
254.205	26.443	880.364	702.667
255.220	26.660	879.728	702.941
256.234	26.577	879.384	702.281
257.249	26.503	878.819	701.480
258.263	26.447	877.823	700.407
259.278	26.430	877.215	699.795
260.293	26.630	876.910	700.264
261.307	26.589	876.445	699.670
262.322	26.552	875.355	698.597
263.336	26.260	875.151	697.246
264.351	25.756	873.686	694.073
265.366	24.746	871.893	688.702
266.380	24.392	870.899	686.493
267.395	25.300	871.321	690.258
268.409	26.238	870.759	693.354
269.424	25.993	870.847	692.422
270.439	26.188	870.063	692.485
271.453	26.258	869.547	692.283
272.468	26.243	869.202	691.887
273.482	26.544	868.643	692.533
274.497	26.525	868.286	692.115
275.512	26.470	866.799	690.660
276.526	25.747	865.620	686.903
277.541	25.878	865.558	687.290
278.555	26.392	865.157	688.870
279.570	26.183	864.885	687.796
280.585	26.012	863.897	686.301
281.599	26.141	863.709	686.579
282.614	26.160	862.922	685.966
283.628	25.780	861.597	683.411
284.643	25.505	860.818	681.690
285.657	25.798	861.158	683.009
286.672	25.750	860.152	681.968
287.687	25.262	859.322	679.405
288.701	25.555	859.302	680.437
289.716	26.045	858.883	681.897
290.730	25.691	858.023	679.817
291.745	25.412	857.150	678.013
292.760	25.331	856.360	677.024
293.774	25.289	855.809	676.368
294.789	26.231	856.362	680.297
295.803	26.785	856.598	682.510
296.818	26.902	855.951	682.372
297.833	27.042	855.253	682.285
298.847	26.638	854.300	679.946
299.862	26.349	853.369	678.063
300.876	26.285	853.362	677.756
301.891	26.859	852.394	679.075
302.906	26.851	851.912	678.603
303.920	26.723	850.170	676.677
304.935	26.316	850.387	675.272
305.949	26.816	850.130	676.874
306.964	26.872	849.491	676.511
307.979	26.507	848.620	674.398
308.993	26.624	848.073	674.340
310.008	26.951	848.229	675.624
311.022	27.083	847.654	675.594
312.037	26.914	847.156	674.512
313.052	26.485	846.487	672.325
314.066	26.440	845.694	671.468
315.081	25.770	844.156	667.703
316.095	25.029	843.234	664.169
317.110	25.581	843.728	666.547
318.125	26.430	843.633	669.559
319.139	26.026	842.682	667.250
320.154	24.898	840.466	661.274
321.168	24.355	839.989	658.834
322.183	25.028	840.473	661.642
323.197	25.939	840.593	665.038
324.212	26.388	840.078	666.229
325.227	26.561	839.857	666.630
326.241	26.669	839.516	666.699
327.256	26.530	838.864	665.608
328.270	26.421	838.123	664.563
329.285	26.246	837.510	663.375
330.300	26.185	836.528	662.316
331.314	25.930	835.805	660.749
332.329	26.024	835.137	660.509
333.343	26.649	834.922	662.564
334.358	26.617	835.122	662.551
335.373	26.663	834.517	662.178
336.387	26.611	833.801	661.360
337.402	26.855	833.629	662.057
338.416	27.147	832.854	662.449
339.431	27.160	832.510	662.163
340.446	27.183	831.941	661.738
341.460	27.301	832.035	662.181
342.475	27.231	830.931	660.990
343.489	27.038	830.426	659.827
344.504	26.985	829.658	658.968
345.519	27.420	829.469	660.336
346.533	27.488	829.324	660.411
347.548	27.638	828.757	660.442
348.562	27.605	828.290	659.895
349.577	27.542	827.669	659.111
350.592	27.522	826.945	658.407
351.606	27.406	826.742	657.767
352.621	27.495	826.304	657.683
353.635	27.329	825.599	656.461
354.650	27.372	824.657	655.809
355.665	26.862	824.080	653.457
356.679	25.898	822.630	648.781
357.694	25.608	822.335	647.447
358.708	26.452	821.970	650.136
359.723	26.405	821.368	649.435
360.738	26.582	821.620	650.214
361.752	27.085	821.010	651.476
362.767	27.228	820.912	651.853
363.781	27.436	820.952	652.572
364.796	27.670	820.467	652.966
365.810	27.825	820.079	653.156
366.825	27.882	819.772	653.058
367.840	27.970	819.109	652.785
368.854	27.788	818.765	651.805
369.869	27.296	818.146	649.498
370.883	27.200	817.071	648.244
371.898	27.229	816.519	647.854
372.913	27.192	815.660	646.982
373.927	27.121	815.214	646.318
374.942	27.232	814.927	646.429
375.956	27.359	814.489	646.475
376.971	27.480	813.691	646.213
377.986	27.605	813.155	646.175
379.000	27.830	813.141	646.903
380.015	27.771	812.537	646.155
381.029	27.760	812.011	645.643
382.044	27.442	811.475	644.034
383.059	27.909	810.513	644.863
384.073	27.809	810.197	644.203
385.088	27.899	809.515	643.918
386.102	27.895	809.247	643.636
387.117	27.782	808.284	642.415
388.132	27.577	807.606	641.097
389.146	27.453	807.030	640.149
390.161	26.817	806.176	637.181
391.175	26.912	805.981	637.303
392.190	27.383	806.187	639.063
393.205	27.394	805.683	638.646
394.219	26.352	803.624	633.308
395.234	24.889	801.287	626.297
396.248	24.095	800.428	622.795
397.263	25.232	801.313	627.407
398.278	26.870	802.961	634.376
399.292	27.390	802.705	635.932
400.307	27.202	801.638	634.378
401.321	26.991	801.301	633.318
402.336	27.100	801.195	633.558
403.350	27.392	801.400	634.681
404.365	27.857	801.043	635.964
405.380	28.071	800.890	636.529
406.394	28.477	800.415	637.508
407.409	28.609	800.159	637.706
408.423	28.600	799.667	637.228
409.438	28.435	799.491	636.459
410.453	28.538	798.799	636.207
411.467	28.640	798.373	636.165
412.482	28.497	797.923	635.256
413.496	28.520	797.297	634.782
414.511	28.579	796.732	634.480
415.526	28.505	796.770	634.197
416.540	28.501	796.266	633.726
417.555	28.448	795.658	633.002
418.569	28.274	794.837	631.692
419.584	28.171	794.332	630.880
420.599	28.365	793.975	631.209
421.613	111.799	1285.796	1460.205
422.628	96.303	1357.441	1460.304
