DTS Sentinel unit serial number:	SN413079Multiplexer serial number:	ORYXHardware model number:	OX4-SRSoftware version number:	ORYX F/W v4.00 Oryx Data Collector v3.7.2.0data status	okinstallation	princeton_trtdifferential loss correction	single-endedforward channel	channel 3reverse channel	N/Adate	2019/09/10time	20:54:11forward acquisition time	60.00reverse acquisition time	0.00gamma	496.2192k internal	0.2327k external	0.2327temperature offset calibration	0.9923default loss term (dB/km)	0.3790temperature slope calibration	1.0000multiplexer offset coefficient	1.0000multiplexer slope coefficient	1.0000fibre end	0.00T internal ref (°C)	31.69T ext. ref 1 (°C)	-0.31T ext. ref 2 (°C)	25.23length (m)	temperature (°C)	Stokes	anti-Stokes-747.200	-54.642	0.107	-0.049
-746.185	-78.175	-0.255	-0.088
-745.171	-49.966	0.124	-0.059
-744.156	209.519	-0.156	0.247
-743.142	-60.092	-0.161	-0.069
-742.127	90.103	0.194	0.219
-741.112	-31.806	-0.204	-0.115
-740.098	-112.117	0.266	0.054
-739.083	-35.303	0.291	0.159
-738.069	-18.600	0.071	-0.044
-737.054	434.346	-0.095	-0.208
-736.039	-200.000	-0.065	-0.361
-735.025	-60.133	0.185	0.079
-734.010	-131.834	0.083	-0.011
-732.996	107.827	-0.064	-0.077
-731.981	-90.646	-0.135	0.039
-730.966	15.460	-0.437	0.346
-729.952	5.349	-0.275	-0.205
-728.937	123.360	0.121	-0.153
-727.923	138.651	-0.123	-0.163
-726.908	-130.676	0.177	0.024
-725.894	491.748	0.161	0.373
-724.879	800.000	-0.013	0.056
-723.864	-65.066	0.323	-0.131
-722.850	800.000	-0.055	-0.241
-721.835	610.135	-0.146	0.369
-720.821	-6.151	-0.062	0.043
-719.806	-99.708	-0.304	0.077
-718.791	-66.754	0.315	0.126
-717.777	-108.961	0.206	0.044
-716.762	-49.114	0.201	-0.097
-715.748	27.573	0.136	-0.115
-714.733	-42.609	-0.183	-0.094
-713.718	41.566	-0.107	0.097
-712.704	255.586	0.070	-0.121
-711.689	-177.853	0.460	0.011
-710.675	-166.215	0.195	0.008
-709.660	150.467	-0.119	-0.162
-708.645	-158.484	0.084	0.005
-707.631	-129.893	0.270	-0.037
-706.616	-119.265	0.154	-0.027
-705.602	-167.237	0.069	0.003
-704.587	-142.435	0.290	0.029
-703.572	-87.350	-0.111	-0.034
-702.558	-37.490	-0.119	0.064
-701.543	293.362	0.086	0.157
-700.529	-75.972	-0.142	0.051
-699.514	-107.981	0.237	-0.052
-698.499	12.559	0.211	0.164
-697.485	800.000	-0.033	-0.124
-696.470	305.654	-0.049	0.093
-695.456	-165.153	0.476	0.021
-694.441	-200.000	0.004	-0.024
-693.426	278.685	-0.075	-0.134
-692.412	-138.328	-0.213	0.024
-691.397	118.763	0.088	-0.109
-690.383	-19.510	-0.232	-0.145
-689.368	-40.984	0.246	0.128
-688.354	20.708	-0.100	-0.082
-687.339	-70.506	-0.384	-0.146
-686.324	-200.000	0.006	0.038
-685.310	-59.995	0.421	-0.181
-684.295	800.000	-0.028	-0.082
-683.281	50.082	0.184	0.174
-682.266	142.367	-0.172	-0.229
-681.251	124.209	0.162	0.205
-680.237	800.000	0.054	-0.180
-679.222	-69.181	0.310	0.120
-678.208	-75.885	0.034	-0.012
-677.193	800.000	0.038	-0.124
-676.178	-16.315	-0.165	-0.105
-675.164	-200.000	-0.009	0.346
-674.149	-200.000	-0.014	0.218
-673.135	325.902	0.065	-0.125
-672.120	-144.039	0.127	-0.012
-671.105	27.069	-0.154	0.130
-670.091	24.891	0.155	0.129
-669.076	-78.995	-0.108	-0.037
-668.062	-200.000	-0.013	-0.097
-667.047	800.000	0.071	0.263
-666.032	74.060	0.177	0.187
-665.018	-200.000	0.036	0.256
-664.003	800.000	-0.069	-0.194
-662.989	301.619	0.059	-0.110
-661.974	-200.000	-0.009	-0.229
-660.959	-200.000	0.014	-0.364
-659.945	-200.000	0.004	-0.101
-658.930	-37.035	-0.236	-0.127
-657.916	0.275	-0.124	0.089
-656.901	51.075	0.144	0.137
-655.886	-33.470	0.243	-0.135
-654.872	132.516	0.140	-0.182
-653.857	183.355	0.064	0.096
-652.843	800.000	-0.035	-0.127
-651.828	-200.000	0.056	-0.332
-650.814	-200.000	-0.000	0.190
-649.799	-54.466	0.199	0.091
-648.784	-149.556	-0.243	0.019
-647.770	568.963	-0.089	-0.218
-646.755	-100.485	-0.168	0.042
-645.741	315.488	-0.111	-0.210
-644.726	-152.756	-0.164	0.012
-643.711	35.469	0.106	-0.093
-642.697	800.000	-0.089	0.317
-641.682	-200.000	-0.009	0.261
-640.668	-200.000	0.001	0.075
-639.653	-200.000	-0.013	-0.190
-638.638	-118.183	-0.095	0.017
-637.624	174.698	0.161	0.233
-636.609	-74.722	0.447	-0.161
-635.595	-61.172	0.164	-0.069
-634.580	-193.811	-0.159	-0.001
-633.565	94.973	0.333	0.381
-632.551	-52.413	-0.262	-0.122
-631.536	-98.815	-0.294	0.075
-630.522	253.244	-0.217	0.371
-629.507	800.000	0.029	0.123
-628.492	74.393	0.120	-0.127
-627.478	-200.000	0.022	-0.174
-626.463	271.788	-0.017	-0.029
-625.449	-67.481	-0.208	-0.082
-624.434	-129.034	0.241	-0.034
-623.419	221.726	-0.101	0.163
-622.405	-66.696	-0.030	-0.012
-621.390	63.017	-0.141	0.141
-620.376	71.294	0.328	-0.341
-619.361	-200.000	-0.061	-0.553
-618.346	-32.863	-0.162	-0.090
-617.332	-77.951	-0.272	0.094
-616.317	-182.163	-0.236	0.004
-615.303	-200.000	0.037	-0.169
-614.288	-200.000	0.072	-0.429
-613.273	-43.424	0.146	0.074
-612.259	-100.001	0.203	0.051
-611.244	-200.000	0.020	-0.111
-610.230	-200.000	0.040	-0.302
-609.215	-128.220	-0.149	0.021
-608.201	-31.839	0.069	-0.039
-607.186	-200.000	-0.008	0.127
-606.171	-63.323	-0.137	-0.057
-605.157	-18.521	-0.200	0.125
-604.142	187.326	0.080	-0.119
-603.128	-113.553	-0.020	0.004
-602.113	-124.266	0.184	-0.029
-601.098	98.344	-0.144	0.166
-600.084	-200.000	0.042	-0.444
-599.069	461.043	0.063	-0.141
-598.055	-53.100	0.359	0.165
-597.040	800.000	0.053	-0.207
-596.025	-169.655	0.171	0.006
-595.011	-26.434	0.399	0.235
-593.996	243.900	-0.215	0.362
-592.982	-55.684	-0.134	-0.060
-591.967	-168.208	0.149	0.006
-590.952	670.698	-0.089	-0.230
-589.938	-200.000	0.046	0.351
-588.923	-35.732	0.152	0.083
-587.909	800.000	0.102	0.287
-586.894	337.236	0.107	-0.208
-585.879	123.426	-0.190	-0.239
-584.865	104.665	0.225	-0.266
-583.850	201.951	-0.142	0.219
-582.836	10.693	-0.121	0.093
-581.821	493.541	-0.136	-0.314
-580.806	-111.728	-0.135	0.027
-579.792	-85.180	0.201	-0.063
-578.777	96.961	-0.375	-0.431
-577.763	133.672	-0.147	-0.190
-576.748	-38.322	0.408	-0.217
-575.733	800.000	0.069	-0.218
-574.719	464.133	-0.227	-0.509
-573.704	117.277	-0.232	-0.286
-572.690	182.510	-0.046	-0.069
-571.675	-178.688	0.136	-0.003
-570.661	4.235	-0.104	-0.076
-569.646	238.463	-0.137	0.229
-568.631	-172.713	-0.340	-0.011
-567.617	-200.000	-0.011	0.178
-566.602	-86.430	0.162	0.050
-565.588	800.000	-0.041	-0.180
-564.573	-65.678	-0.281	0.113
-563.558	-29.934	-0.130	-0.074
-562.544	-81.319	-0.332	-0.110
-561.529	800.000	0.069	0.211
-560.515	-154.924	-0.324	-0.021
-559.500	255.054	-0.073	-0.125
-558.485	-95.434	-0.050	0.013
-557.471	654.642	0.056	-0.144
-556.456	-76.221	-0.319	-0.113
-555.442	87.761	-0.222	-0.246
-554.427	-147.330	0.110	0.009
-553.412	517.117	0.129	-0.301
-552.398	-16.295	0.225	-0.143
-551.383	-115.482	-0.118	-0.022
-550.369	-100.628	-0.119	0.030
-549.354	794.164	-0.144	0.395
-548.339	-72.584	0.177	-0.065
-547.325	-87.267	0.296	-0.090
-546.310	800.000	0.077	0.331
-545.296	-165.430	-0.186	-0.008
-544.281	91.545	-0.227	0.256
-543.266	325.329	-0.086	-0.165
-542.252	123.479	0.210	-0.264
-541.237	-146.149	0.367	0.032
-540.223	227.670	-0.123	0.201
-539.208	-69.014	0.136	0.052
-538.193	70.133	0.335	-0.346
-537.179	-74.822	0.072	-0.026
-536.164	-50.576	0.128	-0.061
-535.150	-68.869	0.204	0.079
-534.135	-50.838	-0.188	0.088
-533.121	-200.000	-0.006	0.090
-532.106	-105.201	0.156	-0.036
-531.091	396.416	0.044	-0.091
-530.077	-152.654	0.052	0.004
-529.062	207.782	-0.169	-0.263
-528.048	172.435	0.139	-0.200
-527.033	-17.509	0.197	-0.124
-526.018	-73.190	0.366	-0.134
-525.004	-133.415	0.029	0.004
-523.989	69.531	-0.169	-0.174
-522.975	-200.000	0.018	-0.316
-521.960	141.459	0.132	0.175
-520.945	24.016	0.232	-0.191
-519.931	800.000	0.063	0.178
-518.916	-86.254	0.096	0.030
-517.902	-200.000	-0.036	-0.220
-516.887	13.123	0.190	-0.147
-515.872	-58.657	0.148	-0.064
-514.858	-160.796	0.449	0.024
-513.843	361.533	-0.044	0.087
-512.829	66.643	-0.132	0.134
-511.814	800.000	0.088	0.365
-510.799	-55.167	0.228	-0.102
-509.785	-111.165	0.062	0.013
-508.770	58.586	-0.195	-0.192
-507.756	-129.251	-0.188	0.026
-506.741	800.000	0.046	0.171
-505.726	-122.803	-0.248	-0.040
-504.712	-102.139	0.137	-0.033
-503.697	-200.000	0.003	-0.328
-502.683	76.837	-0.142	0.151
-501.668	135.272	-0.197	0.256
-500.653	-187.316	0.088	-0.001
-499.639	99.600	0.046	-0.053
-498.624	710.275	0.030	0.079
-497.610	-94.687	0.062	0.017
-496.595	-90.845	0.104	0.030
-495.581	35.415	0.080	-0.070
-494.566	73.354	-0.178	0.186
-493.551	-34.043	-0.162	0.089
-492.537	-1.211	0.056	0.039
-491.522	471.794	-0.070	-0.158
-490.508	-103.825	-0.186	-0.043
-489.493	-200.000	0.043	-0.229
-488.478	20.658	0.197	0.159
-487.464	-89.250	0.185	0.054
-486.449	-200.000	-0.029	-0.312
-485.435	-55.707	-0.077	-0.034
-484.420	-167.179	-0.209	-0.008
-483.405	-200.000	-0.008	-0.178
-482.391	800.000	-0.072	0.260
-481.376	-200.000	0.080	0.393
-480.362	-200.000	-0.003	0.074
-479.347	800.000	0.137	-0.396
-478.332	460.611	-0.067	0.149
-477.318	265.505	-0.085	0.148
-476.303	46.259	-0.221	-0.204
-475.289	72.841	-0.062	0.065
-474.274	-93.498	-0.375	-0.104
-473.259	497.680	0.027	-0.062
-472.245	-130.793	-0.158	-0.021
-471.230	-200.000	0.030	0.242
-470.216	81.376	-0.020	-0.022
-469.201	175.376	0.041	-0.060
-468.186	617.176	0.101	-0.254
-467.172	-14.678	-0.306	-0.196
-466.157	-60.999	-0.320	-0.135
-465.143	-200.000	0.236	-0.001
-464.128	94.829	-0.034	0.038
-463.113	2.029	-0.096	0.069
-462.099	-32.189	0.094	0.052
-461.084	-200.000	0.034	0.307
-460.070	-144.223	-0.081	-0.008
-459.055	42.389	-0.131	-0.119
-458.040	280.372	-0.020	0.035
-457.026	-200.000	-0.036	-0.351
-456.011	34.198	0.232	0.202
-454.997	800.000	-0.134	0.370
-453.982	106.767	0.112	0.133
-452.968	-79.467	-0.321	-0.108
-451.953	-145.319	0.033	-0.003
-450.938	513.977	0.049	-0.115
-449.924	-146.156	0.286	0.025
-448.909	-128.883	0.073	0.010
-447.895	630.455	0.048	-0.122
-446.880	-200.000	-0.051	0.389
-445.865	-200.000	-0.057	-0.606
-444.851	61.178	-0.123	-0.121
-443.836	-200.000	-0.027	0.307
-442.822	-158.334	0.118	0.007
-441.807	330.805	-0.142	-0.272
-440.792	-20.431	0.217	0.133
-439.778	-200.000	-0.006	0.294
-438.763	-65.174	-0.333	-0.134
-437.749	-126.974	-0.141	-0.021
-436.734	-75.926	-0.248	-0.087
-435.719	800.000	-0.015	0.051
-434.705	800.000	-0.048	0.153
-433.690	-123.166	-0.221	-0.035
-432.676	343.190	0.091	-0.177
-431.661	335.614	-0.034	-0.066
-430.646	-109.710	0.259	0.054
-429.632	735.094	0.073	-0.194
-428.617	-70.083	0.097	-0.037
-427.603	-122.871	-0.072	0.012
-426.588	-151.450	-0.114	0.008
-425.573	-200.000	-0.010	0.050
-424.559	-200.000	0.009	0.194
-423.544	-160.802	-0.296	-0.016
-422.530	-149.641	0.227	0.018
-421.515	-125.035	-0.208	-0.032
-420.500	-95.724	0.109	0.029
-419.486	24.522	0.127	0.105
-418.471	218.260	0.083	0.132
-417.457	-156.525	-0.407	-0.025
-416.442	-200.000	0.006	-0.069
-415.428	-126.122	0.392	0.059
-414.413	374.902	-0.095	0.194
-413.398	91.377	0.165	0.185
-412.384	800.000	-0.128	-0.423
-411.369	168.795	0.101	-0.143
-410.355	-143.641	0.309	-0.029
-409.340	-200.000	-0.002	-0.022
-408.325	-90.654	-0.167	0.048
-407.311	115.705	-0.120	0.146
-406.296	10.180	0.111	0.084
-405.282	-80.211	0.117	0.039
-404.267	800.000	-0.068	-0.216
-403.252	800.000	0.012	-0.050
-402.238	222.093	-0.139	-0.223
-401.223	-83.629	-0.280	0.089
-400.209	-111.922	-0.209	0.042
-399.194	-1.928	0.212	-0.149
-398.179	62.290	-0.032	0.031
-397.165	227.065	-0.149	0.240
-396.150	60.607	0.106	-0.104
-395.136	800.000	-0.101	-0.293
-394.121	-54.007	0.285	-0.129
-393.106	-200.000	0.296	-0.001
-392.092	-170.767	0.277	-0.009
-391.077	800.000	-0.091	0.285
-390.063	800.000	-0.065	0.258
-389.048	-26.816	0.251	0.146
-388.033	-9.528	0.273	0.181
-387.019	354.254	-0.071	0.140
-386.004	-150.971	-0.221	0.017
-384.990	-84.184	-0.107	-0.034
-383.975	-125.426	-0.171	0.026
-382.960	-174.291	-0.222	-0.006
-381.946	25.762	0.106	0.087
-380.931	800.000	-0.091	0.368
-379.917	-20.363	0.241	-0.148
-378.902	-99.264	0.475	-0.119
-377.888	-200.000	-0.020	-0.172
-376.873	3.050	-0.217	0.157
-375.858	-76.032	0.260	-0.091
-374.844	-140.265	-0.067	0.007
-373.829	-182.788	0.025	0.000
-372.815	-200.000	-0.006	0.105
-371.800	-114.953	-0.164	-0.031
-370.785	-14.579	0.267	0.171
-369.771	-10.236	-0.286	0.189
-368.756	146.171	-0.102	-0.136
-367.742	-46.667	0.108	-0.053
-366.727	181.878	-0.116	-0.169
-365.712	800.000	-0.042	0.151
-364.698	-183.015	0.394	-0.007
-363.683	800.000	0.051	-0.158
-362.669	-116.237	-0.094	-0.017
-361.654	2.724	-0.153	-0.110
-360.639	1.640	0.147	-0.105
-359.625	800.000	-0.022	-0.077
-358.610	-43.281	0.073	-0.037
-357.596	-30.777	0.150	0.084
-356.581	-150.745	-0.161	0.012
-355.566	106.040	-0.125	0.147
-354.552	-112.486	0.160	-0.032
-353.537	157.432	0.080	0.110
-352.523	-63.501	0.226	0.092
-351.508	227.633	-0.100	0.162
-350.493	-131.653	0.367	0.048
-349.479	132.678	-0.258	-0.330
-348.464	-145.378	0.471	-0.042
-347.450	33.994	0.083	0.071
-346.435	-200.000	0.008	0.580
-345.420	209.136	0.234	0.363
-344.406	-112.726	0.492	-0.097
-343.391	177.650	0.210	0.304
-342.377	35.222	0.087	0.076
-341.362	-147.885	-0.324	-0.027
-340.348	145.455	-0.219	-0.292
-339.333	-98.480	-0.237	0.060
-338.318	-118.905	-0.169	-0.030
-337.304	18.798	-0.244	-0.194
-336.289	254.070	-0.089	-0.151
-335.275	-200.000	-0.029	0.280
-334.260	-200.000	-0.010	0.321
-333.245	63.932	0.201	0.201
-332.231	-111.329	-0.111	0.023
-331.216	261.132	0.214	-0.367
-330.202	34.257	0.205	0.178
-329.187	85.638	-0.272	-0.297
-328.172	-58.662	0.188	0.081
-327.158	298.285	-0.124	0.226
-326.143	-71.960	-0.474	0.175
-325.129	628.626	-0.105	0.263
-324.114	-200.000	0.003	0.235
-323.099	160.859	0.116	0.161
-322.085	443.058	-0.129	0.281
-321.070	57.176	-0.121	0.117
-320.056	-200.000	0.044	-0.247
-319.041	-150.872	0.314	0.024
-318.026	-30.681	0.088	-0.049
-317.012	457.972	0.045	-0.100
-315.997	-81.865	0.461	0.149
-314.983	-200.000	0.009	-0.094
-313.968	63.627	-0.202	-0.201
-312.953	-93.329	0.155	-0.043
-311.939	38.844	-0.174	0.154
-310.924	27.990	0.305	-0.255
-309.910	-79.941	0.239	0.080
-308.895	-93.067	0.137	0.038
-307.880	-98.582	-0.261	-0.066
-306.866	146.480	0.041	-0.055
-305.851	26.152	-0.140	-0.116
-304.837	-115.539	-0.086	-0.016
-303.822	66.841	-0.360	-0.364
-302.807	94.897	0.284	-0.320
-301.793	-75.497	0.431	-0.152
-300.778	-21.866	-0.220	0.133
-299.764	-101.539	-0.174	0.042
-298.749	-164.694	-0.179	-0.008
-297.735	769.033	0.158	0.427
-296.720	-151.355	0.273	-0.020
-295.705	800.000	0.047	0.148
-294.691	386.051	-0.056	-0.115
-293.676	304.193	-0.171	-0.315
-292.662	-54.337	0.143	0.064
-291.647	-78.342	-0.181	-0.061
-290.632	-200.000	-0.036	0.194
-289.618	28.384	-0.210	0.176
-288.603	-106.352	0.097	0.022
-287.589	-32.616	0.234	-0.129
-286.574	625.938	-0.037	0.092
-285.559	-133.954	-0.337	-0.041
-284.545	6.382	0.195	0.143
-283.530	-200.000	-0.004	-0.097
-282.516	-200.000	-0.038	-0.177
-281.501	-200.000	-0.004	-0.122
-280.486	-0.991	0.117	-0.082
-279.472	-3.492	-0.190	-0.131
-278.457	-200.000	0.158	0.000
-277.443	340.157	0.130	-0.251
-276.428	-45.079	-0.161	-0.079
-275.413	-51.295	-0.027	0.013
-274.399	800.000	-0.041	0.136
-273.384	-200.000	-0.008	0.089
-272.370	368.400	0.145	0.289
-271.355	800.000	0.043	-0.123
-270.340	-162.394	0.438	-0.022
-269.326	4.196	-0.270	-0.196
-268.311	78.801	-0.117	-0.124
-267.297	176.390	0.081	-0.116
-266.282	-7.273	0.209	0.140
-265.267	187.149	-0.114	-0.168
-264.253	-135.541	0.071	0.008
-263.238	-1.938	-0.125	-0.087
-262.224	-200.000	0.018	0.136
-261.209	-36.813	0.290	-0.154
-260.195	-140.194	-0.080	0.008
-259.180	-200.000	0.040	-0.207
-258.165	313.862	-0.145	-0.271
-257.151	-200.000	0.060	-0.375
-256.136	-98.737	-0.046	0.012
-255.122	627.095	0.057	-0.144
-254.107	-200.000	0.040	-0.431
-253.092	-93.391	-0.117	0.032
-252.078	-90.170	0.224	0.065
-251.063	-83.030	-0.334	-0.106
-250.049	270.844	0.071	0.123
-249.034	-101.481	-0.237	0.057
-248.019	-200.000	-0.006	-0.062
-247.005	-25.728	-0.114	-0.066
-245.990	83.751	-0.140	-0.151
-244.976	-200.000	0.053	0.308
-243.961	-188.413	0.084	0.001
-242.946	-200.000	0.001	-0.116
-241.932	127.996	0.171	0.215
-240.917	800.000	0.076	-0.243
-239.903	-17.241	0.322	-0.200
-238.888	626.360	-0.197	0.491
-237.873	40.024	0.427	0.379
-236.859	-169.840	0.275	0.010
-235.844	-145.531	0.058	0.005
-234.830	-200.000	0.017	0.357
-233.815	252.856	0.105	-0.177
-232.800	-200.000	-0.022	-0.176
-231.786	47.254	-0.085	0.078
-230.771	174.447	0.221	-0.315
-229.757	5.817	-0.183	-0.134
-228.742	-200.000	0.070	0.483
-227.727	-200.000	-0.023	0.244
-226.713	255.379	0.238	0.403
-225.698	716.865	-0.036	0.094
-224.684	-200.000	-0.018	0.147
-223.669	-14.999	-0.161	0.102
-222.655	136.348	-0.069	-0.089
-221.640	-200.000	0.281	-0.001
-220.625	456.010	-0.105	-0.230
-219.611	800.000	-0.028	-0.078
-218.596	31.972	-0.198	0.168
-217.582	800.000	0.051	-0.184
-216.567	-3.614	0.203	0.139
-215.552	-32.315	0.252	-0.139
-214.538	40.579	0.221	0.197
-213.523	-125.807	0.457	0.068
-212.509	167.490	0.095	-0.134
-211.494	-80.647	-0.162	0.053
-210.479	800.000	-0.035	-0.100
-209.465	-158.064	-0.414	-0.024
-208.450	-68.921	-0.375	0.143
-207.436	101.094	0.043	0.050
-206.421	547.302	-0.109	-0.257
-205.406	-60.702	-0.288	-0.120
-204.392	-78.863	0.380	0.128
-203.377	-200.000	-0.001	0.005
-202.363	13.938	-0.109	0.084
-201.348	320.438	-0.080	-0.151
-200.333	-200.000	-0.016	0.261
-199.319	13.406	-0.187	-0.143
-198.304	-47.969	-0.136	0.065
-197.290	-200.000	-0.042	-0.217
-196.275	800.000	0.051	0.199
-195.260	220.256	-0.169	0.268
-194.246	-57.399	0.180	0.078
-193.231	25.039	-0.067	-0.055
-192.217	-4.161	-0.107	0.073
-191.202	-39.583	-0.235	0.121
-190.187	483.806	0.099	-0.223
-189.173	39.019	0.147	-0.130
-188.158	63.227	-0.321	0.318
-187.144	104.962	-0.320	0.372
-186.129	800.000	0.090	0.338
-185.114	-80.027	0.240	-0.079
-184.100	-200.000	0.002	0.104
-183.085	38.608	-0.435	0.383
-182.071	109.827	0.126	0.149
-181.056	202.667	0.085	0.130
-180.042	800.000	-0.042	0.130
-179.027	-110.580	-0.431	-0.088
-178.012	-106.329	-0.542	0.120
-176.998	34.257	0.251	0.215
-175.983	125.502	0.111	-0.139
-174.969	296.141	-0.102	0.185
-173.954	121.684	0.168	0.206
-172.939	800.000	-0.041	0.159
-171.925	-200.000	0.000	-0.116
-170.910	-82.716	0.205	-0.065
-169.896	-200.000	-0.011	0.327
-168.881	-21.566	0.048	0.029
-167.866	335.122	0.149	-0.285
-166.852	501.112	-0.186	0.424
-165.837	73.253	0.179	0.184
-164.823	-200.000	0.007	0.081
-163.808	43.446	0.126	-0.114
-162.793	-144.463	0.169	0.015
-161.779	62.706	-0.156	-0.154
-160.764	-137.284	-0.179	0.020
-159.750	100.910	-0.082	0.094
-158.735	800.000	-0.035	0.141
-157.720	-29.036	0.193	-0.109
-156.706	800.000	0.008	0.028
-155.691	-77.530	-0.171	-0.059
-154.677	-81.432	-0.330	-0.107
-153.662	40.642	-0.110	0.098
-152.647	-38.446	0.240	0.125
-151.633	-2.656	-0.144	0.099
-150.618	-200.000	0.069	0.320
-149.604	34.892	0.075	0.065
-148.589	481.356	-0.062	0.139
-147.574	-200.000	0.011	-0.139
-146.560	-68.996	-0.321	0.122
-145.545	175.091	0.251	-0.357
-144.531	800.000	-0.046	-0.154
-143.516	-200.000	-0.019	0.426
-142.502	282.704	0.136	0.240
-141.487	511.497	0.043	-0.097
-140.472	-170.225	0.162	-0.006
-139.458	-200.000	0.035	0.160
-138.443	87.797	0.139	-0.152
-137.429	133.177	-0.176	0.224
-136.414	23.264	0.369	-0.299
-135.399	-106.059	0.260	0.058
-134.385	-147.548	-0.061	0.005
-133.370	61.005	0.075	-0.073
-132.356	61.087	0.166	-0.163
-131.341	-56.293	0.115	-0.050
-130.326	-200.000	-0.029	0.127
-129.312	-200.000	-0.005	0.044
-128.297	-200.000	0.024	0.145
-127.283	-200.000	0.002	-0.355
-126.268	280.284	0.125	-0.220
-125.253	263.695	-0.092	-0.157
-124.239	800.000	-0.026	-0.110
-123.224	363.775	0.008	-0.016
-122.210	161.861	0.101	-0.139
-121.195	-200.000	-0.007	0.192
-120.180	-200.000	-0.082	0.000
-119.166	475.283	-0.062	0.137
-118.151	94.884	-0.019	0.022
-117.137	-107.971	0.348	0.074
-116.122	-195.942	0.128	-0.001
-115.107	-176.686	-0.076	0.002
-114.093	41.737	-0.237	0.211
-113.078	-99.647	0.289	0.071
-112.064	800.000	-0.037	-0.149
-111.049	84.215	0.226	-0.243
-110.034	-69.802	-0.200	-0.075
-109.020	-38.611	0.131	0.068
-108.005	46.514	-0.163	-0.149
-106.991	-200.000	0.025	0.185
-105.976	404.439	-0.143	0.296
-104.962	-106.959	-0.256	-0.056
-103.947	-51.075	-0.387	0.179
-102.932	-61.367	0.129	0.053
-101.918	-106.811	-0.385	-0.084
-100.903	800.000	0.022	0.074
-99.889	91.536	0.103	0.113
-98.874	-52.696	-0.162	0.074
-97.859	800.000	-0.030	0.094
-96.845	-101.279	-0.282	0.068
-95.830	127.231	-0.190	-0.237
-94.816	800.000	-0.065	0.196
-93.801	-171.344	-0.293	-0.010
-92.786	-200.000	0.004	0.106
-91.772	57.167	0.045	0.043
-90.757	-109.967	0.320	-0.066
-89.743	137.494	0.091	0.117
-88.728	545.039	-0.135	-0.317
-87.713	800.000	-0.062	0.216
-86.699	-111.873	0.096	0.019
-85.684	-19.667	0.246	0.150
-84.670	-73.070	0.213	0.077
-83.655	430.849	0.091	0.193
-82.640	-200.000	0.041	0.231
-81.626	181.471	0.148	-0.214
-80.611	-75.501	0.131	0.046
-79.597	-200.000	0.009	0.142
-78.582	800.000	-0.074	0.205
-77.567	181.618	-0.055	0.080
-76.553	-36.507	-0.157	-0.083
-75.538	94.838	0.135	0.150
-74.524	48.768	0.284	0.261
-73.509	89.113	-0.119	-0.131
-72.494	800.000	0.031	-0.132
-71.480	79.417	0.208	0.219
-70.465	-200.000	0.030	-0.294
-69.451	657.213	0.190	-0.481
-68.436	-36.009	-0.120	-0.063
-67.422	346.266	0.032	-0.062
-66.407	11.871	0.273	0.206
-65.392	-6.195	0.052	0.035
-64.378	-93.080	-0.063	-0.017
-63.363	-1.555	0.021	0.015
-62.349	-200.000	-0.028	0.248
-61.334	50.040	-0.921	-0.853
-60.319	-200.000	0.017	0.722
-59.305	700.575	-0.335	-0.865
-58.290	375.400	0.557	1.115
-57.276	273.833	0.754	1.308
-56.261	-200.000	97.454	608.859
-55.246	614.671	1396.201	3433.165
-54.232	193.639	2586.770	3841.903
-53.217	117.232	2165.589	2612.081
-52.203	42.547	1704.405	1521.842
-51.188	34.895	1517.488	1303.007
-50.173	32.474	1491.302	1264.241
-49.159	51.692	1542.027	1438.977
-48.144	53.400	1559.252	1466.669
-47.130	35.019	1518.234	1304.289
-46.115	31.893	1503.495	1270.438
-45.100	31.728	1500.748	1266.950
-44.086	31.739	1498.292	1264.904
-43.071	31.720	1496.023	1262.806
-42.057	31.679	1494.355	1261.070
-41.042	31.714	1493.058	1260.160
-40.027	31.640	1491.834	1258.584
-39.013	31.742	1490.037	1257.701
-37.998	31.498	1489.240	1255.342
-36.984	31.628	1487.959	1255.083
-35.969	31.786	1485.930	1254.384
-34.954	31.738	1484.713	1252.982
-33.940	31.656	1483.162	1251.078
-32.925	31.717	1481.889	1250.360
-31.911	31.717	1481.266	1249.788
-30.896	31.704	1479.593	1248.238
-29.881	31.708	1478.815	1247.555
-28.867	31.842	1476.586	1246.521
-27.852	31.705	1475.564	1244.693
-26.838	31.753	1474.550	1244.112
-25.823	31.778	1472.336	1242.357
-24.809	31.843	1470.642	1241.308
-23.794	31.688	1469.649	1239.394
-22.779	31.739	1467.984	1238.280
-21.765	31.684	1467.502	1237.464
-20.750	31.723	1466.076	1236.470
-19.736	31.748	1465.011	1235.682
-18.721	31.733	1463.691	1234.423
-17.706	31.703	1462.503	1233.175
-16.692	31.685	1461.634	1232.278
-15.677	31.735	1460.518	1231.613
-14.663	31.673	1459.539	1230.334
-13.648	31.621	1459.129	1229.596
-12.633	31.635	1457.795	1228.514
-11.619	31.736	1456.695	1228.204
-10.604	31.602	1456.185	1226.844
-9.590	31.579	1455.704	1226.243
-8.575	31.590	1454.373	1225.140
-7.560	31.706	1453.128	1224.802
-6.546	31.625	1452.155	1223.405
-5.531	31.582	1451.807	1222.781
-4.517	31.621	1450.959	1222.273
-3.502	31.554	1449.818	1220.827
-2.487	31.604	1448.792	1220.243
-1.473	31.652	1447.421	1219.354
-0.458	31.629	1446.420	1218.311
0.556	29.364	1436.592	1206.473
1.571	26.221	1410.512	1164.243
2.586	22.647	1348.080	1090.552
3.600	20.954	1265.810	1014.068
4.615	19.841	1220.982	971.823
5.629	17.034	1165.624	912.604
6.644	8.251	1081.061	802.336
7.659	0.927	1039.738	736.081
8.673	-0.248	1034.286	726.469
9.688	-0.216	1030.554	723.943
10.702	-0.354	1029.208	722.266
11.717	-0.401	1027.037	720.451
12.731	2.621	1030.133	737.114
13.746	11.510	1042.951	789.349
14.761	18.058	1051.109	827.248
15.775	19.011	1051.641	832.207
16.790	18.841	1050.725	830.588
17.804	18.754	1049.950	829.479
18.819	18.495	1049.294	827.639
19.834	18.623	1047.941	827.113
20.848	18.788	1047.633	827.593
21.863	18.736	1047.458	827.132
22.877	18.703	1047.290	826.766
23.892	18.719	1046.311	825.998
24.907	18.498	1045.664	824.354
25.921	18.680	1044.613	824.325
26.936	18.698	1044.125	823.955
27.950	18.629	1043.043	822.695
28.965	18.653	1041.602	821.600
29.980	18.567	1039.937	819.803
30.994	18.490	1038.697	818.388
32.009	18.583	1037.796	818.047
33.023	18.726	1037.163	818.157
34.038	18.435	1035.971	815.761
35.053	18.512	1034.977	815.270
36.067	18.616	1034.437	815.266
37.082	18.658	1033.820	814.907
38.096	18.739	1032.757	814.385
39.111	18.970	1031.746	814.607
40.126	19.038	1030.844	814.145
41.140	18.900	1029.709	812.523
42.155	18.560	1028.409	809.821
43.169	18.383	1027.315	808.053
44.184	18.368	1026.155	807.001
45.199	18.539	1025.033	806.851
46.213	18.445	1024.051	805.562
47.228	18.358	1023.064	804.309
48.242	18.548	1021.778	804.117
49.257	18.433	1021.054	802.937
50.271	18.586	1020.418	803.085
51.286	18.706	1019.761	803.055
52.301	18.556	1018.828	801.549
53.315	18.631	1017.570	800.840
54.330	18.756	1016.929	800.847
55.344	18.597	1016.365	799.591
56.359	18.739	1015.542	799.532
57.374	18.699	1013.945	798.021
58.388	18.684	1012.978	797.117
59.403	18.578	1012.212	795.954
60.417	18.524	1011.972	795.441
61.432	18.404	1010.992	794.044
62.447	18.354	1010.324	793.220
63.461	18.519	1009.870	793.556
64.476	18.557	1008.766	792.793
65.490	18.583	1007.424	791.788
66.505	18.461	1006.739	790.616
67.520	18.625	1005.713	790.497
68.534	18.573	1004.973	789.608
69.549	18.453	1003.864	788.113
70.563	18.264	1002.661	786.233
71.578	18.179	1002.211	785.421
72.593	18.256	1001.144	784.865
73.607	18.106	1000.338	783.480
74.622	18.059	999.323	782.398
75.636	18.267	999.192	783.179
76.651	18.405	998.007	782.810
77.666	18.252	997.062	781.305
78.680	18.125	996.159	779.949
79.695	18.251	995.967	780.301
80.709	18.364	995.131	780.092
81.724	18.480	994.167	779.796
82.739	18.391	993.695	778.951
83.753	18.313	992.916	777.916
84.768	18.715	991.802	778.802
85.782	18.784	991.434	778.757
86.797	18.865	990.499	778.320
87.812	18.810	989.491	777.210
88.826	18.700	988.613	775.952
89.841	18.895	987.137	775.605
90.855	18.917	986.537	775.165
91.870	18.925	985.624	774.415
92.884	18.824	984.910	773.330
93.899	18.732	984.215	772.302
94.914	18.778	982.729	771.278
95.928	18.770	982.697	771.147
96.943	18.865	981.594	770.637
97.957	18.553	980.523	768.330
98.972	18.479	979.077	766.802
99.987	18.249	978.037	764.891
101.001	18.268	977.654	764.608
102.016	18.526	977.133	765.282
103.030	18.776	975.842	765.318
104.045	18.559	974.595	763.310
105.060	18.439	973.608	761.933
106.074	18.172	972.668	759.946
107.089	18.309	971.790	759.801
108.103	18.652	971.745	761.219
109.118	18.755	970.783	760.856
110.133	18.514	969.640	758.823
111.147	18.432	968.629	757.603
112.162	18.345	967.765	756.477
113.176	18.322	965.940	754.882
114.191	18.357	965.094	754.308
115.206	18.420	963.898	753.585
116.220	18.146	962.837	751.483
117.235	18.078	961.900	750.388
118.249	18.240	961.018	750.344
119.264	18.345	960.069	749.994
120.279	18.232	958.967	748.576
121.293	18.295	958.118	748.119
122.308	18.308	957.872	747.920
123.322	18.407	956.893	747.519
124.337	18.248	956.345	746.335
125.352	18.255	954.490	744.848
126.366	17.902	952.701	741.856
127.381	17.660	951.124	739.512
128.395	18.088	950.835	741.079
129.410	18.675	950.322	743.153
130.424	18.756	949.623	742.892
131.439	18.762	948.665	742.105
132.454	18.756	947.815	741.348
133.468	18.547	947.064	739.791
134.483	18.535	946.351	739.116
135.497	18.591	945.827	738.882
136.512	18.794	944.930	738.991
137.527	18.801	944.492	738.616
138.541	18.944	942.934	737.943
139.556	18.890	942.682	737.449
140.570	18.984	941.571	736.917
141.585	18.912	940.551	735.747
142.600	18.792	940.221	734.908
143.614	18.853	938.973	734.128
144.629	19.022	938.221	734.197
145.643	19.140	937.657	734.195
146.658	18.975	936.829	732.781
147.673	18.903	935.619	731.460
148.687	18.816	934.747	730.343
149.702	18.766	933.411	729.026
150.716	18.761	932.712	728.391
151.731	18.837	931.473	727.680
152.746	18.737	930.974	726.803
153.760	19.004	930.490	727.493
154.775	19.076	929.449	726.917
155.789	19.126	928.696	726.477
156.804	19.038	927.775	725.320
157.819	19.044	926.503	724.287
158.833	19.111	925.527	723.743
159.848	19.119	924.765	723.116
160.862	18.999	924.222	722.123
161.877	19.031	922.935	721.187
162.892	18.963	922.303	720.344
163.906	19.120	921.655	720.433
164.921	19.126	920.788	719.717
165.935	19.194	919.690	719.078
166.950	19.083	918.962	717.983
167.964	19.122	917.670	717.074
168.979	18.977	916.743	715.680
169.994	18.982	915.567	714.722
171.008	18.849	915.023	713.681
172.023	19.100	913.746	713.661
173.037	19.172	912.743	713.112
174.052	18.926	911.783	711.281
175.067	18.616	911.180	709.469
176.081	18.828	910.425	709.695
177.096	18.850	909.870	709.289
178.110	18.935	908.579	708.568
179.125	18.583	907.831	706.473
180.140	18.539	906.645	705.307
181.154	18.484	906.034	704.545
182.169	18.605	905.191	704.321
183.183	18.773	904.800	704.647
184.198	19.105	903.990	705.314
185.213	19.027	903.733	704.729
186.227	18.900	903.238	703.761
187.242	19.033	902.737	703.854
188.256	19.050	901.978	703.271
189.271	19.073	900.896	702.457
190.286	19.189	899.916	702.102
191.300	19.086	899.281	701.128
192.315	18.556	898.169	698.041
193.329	18.039	896.819	694.829
194.344	17.693	895.772	692.551
195.359	18.333	895.803	695.113
196.373	18.922	895.932	697.542
197.388	19.102	895.841	698.139
198.402	18.878	895.022	696.530
199.417	18.805	894.272	695.591
200.432	18.834	893.526	695.067
201.446	18.680	892.914	693.904
202.461	18.395	891.987	691.971
203.475	18.369	891.898	691.737
204.490	18.078	889.925	688.975
205.504	17.131	888.137	683.715
206.519	17.592	888.080	685.467
207.534	18.592	888.193	689.518
208.548	18.603	887.651	689.078
209.563	19.040	887.455	690.621
210.577	18.875	887.006	689.546
211.592	18.538	886.327	687.609
212.607	19.061	885.560	689.044
213.621	18.893	885.834	688.527
214.636	18.973	884.530	687.772
215.650	19.046	884.091	687.662
216.665	19.094	883.149	687.057
217.680	19.072	882.662	686.532
218.694	19.151	882.260	686.474
219.709	18.836	880.977	684.161
220.723	18.668	879.953	682.638
221.738	18.740	880.021	682.915
222.753	18.972	879.171	683.117
223.767	18.927	878.081	682.028
224.782	19.077	877.406	682.039
225.796	19.201	877.019	682.172
226.811	19.161	876.353	681.432
227.826	18.837	875.213	679.207
228.840	18.217	873.944	675.714
229.855	18.129	873.525	674.984
230.869	18.308	873.196	675.375
231.884	18.097	871.752	673.368
232.899	18.179	871.327	673.300
233.913	18.955	871.708	676.591
234.928	19.162	870.944	676.753
235.942	18.931	870.321	675.301
236.957	19.090	869.768	675.436
237.972	18.787	868.658	673.328
238.986	18.816	867.931	672.818
240.001	18.819	867.601	672.513
241.015	18.840	866.717	671.851
242.030	18.870	866.268	671.559
243.045	18.888	865.628	671.077
244.059	19.021	864.685	670.805
245.074	19.262	864.404	671.466
246.088	19.137	863.944	670.562
247.103	18.686	863.025	668.036
248.117	18.789	862.229	667.759
249.132	19.228	862.205	669.386
250.147	19.516	861.530	669.922
251.161	19.489	860.850	669.230
252.176	19.687	860.492	669.660
253.190	19.593	859.670	668.598
254.205	19.634	859.142	668.287
255.220	19.674	858.726	668.056
256.234	19.962	858.113	668.635
257.249	19.811	857.341	667.391
258.263	19.558	856.822	665.952
259.278	19.615	856.425	665.804
260.293	19.840	855.997	666.280
261.307	19.807	855.017	665.331
262.322	19.603	854.538	664.116
263.336	19.607	853.548	663.301
264.351	19.053	852.029	659.938
265.366	17.976	850.107	654.270
266.380	17.608	849.112	652.036
267.395	18.512	849.446	655.695
268.409	19.272	849.921	658.910
269.424	19.240	848.824	657.878
270.439	19.514	848.450	658.576
271.453	19.745	847.591	658.732
272.468	19.559	847.148	657.623
273.482	19.645	847.136	657.880
274.497	19.928	846.031	658.039
275.512	19.758	844.975	656.516
276.526	19.338	843.772	653.932
277.541	19.425	843.193	653.754
278.555	19.686	842.861	654.425
279.570	19.460	841.936	652.795
280.585	19.226	840.982	651.114
281.599	19.237	840.905	651.037
282.614	19.494	840.373	651.539
283.628	19.200	839.234	649.490
284.643	18.883	838.696	647.822
285.657	19.241	838.191	648.721
286.672	19.322	837.164	648.174
287.687	18.600	836.624	644.984
288.701	18.991	836.417	646.238
289.716	19.376	835.912	647.237
290.730	18.993	835.266	645.243
291.745	18.925	834.918	644.660
292.760	18.823	833.463	643.098
293.774	18.617	832.820	641.776
294.789	19.431	833.638	645.397
295.803	20.015	833.813	647.659
296.818	20.028	833.239	647.203
297.833	20.223	832.520	647.317
298.847	19.972	831.067	645.193
299.862	19.690	830.560	643.691
300.876	19.785	829.779	643.385
301.891	20.014	829.468	643.936
302.906	19.987	829.050	643.456
303.920	19.727	827.445	641.188
304.935	19.520	826.992	640.014
305.949	19.904	826.760	641.201
306.964	19.950	826.575	641.172
307.979	19.945	825.363	640.156
308.993	19.847	825.167	639.584
310.008	20.219	824.840	640.650
311.022	20.284	824.185	640.322
312.037	20.098	823.746	639.239
313.052	19.916	823.084	637.998
314.066	19.900	822.158	637.165
315.081	19.327	820.750	633.909
316.095	18.588	819.843	630.440
317.110	19.092	820.381	632.650
318.125	19.995	820.237	635.801
319.139	19.414	819.364	632.936
320.154	18.591	817.590	628.496
321.168	18.290	816.879	626.792
322.183	18.890	816.586	628.705
323.197	19.439	817.365	631.259
324.212	19.858	816.621	632.161
325.227	19.865	816.317	631.896
326.241	20.046	816.105	632.334
327.256	20.058	815.228	631.642
328.270	19.861	814.843	630.572
329.285	19.853	813.966	629.809
330.300	19.660	813.274	628.514
331.314	19.573	812.608	627.627
332.329	19.521	812.195	627.063
333.343	19.886	811.461	627.767
334.358	20.091	810.974	628.076
335.373	20.130	810.594	627.868
336.387	20.067	809.979	627.109
337.402	20.300	809.516	627.539
338.416	20.570	808.929	628.001
339.431	20.370	808.375	626.796
340.446	20.386	807.984	626.493
341.460	20.404	807.783	626.348
342.475	20.458	806.465	625.466
343.489	20.285	806.074	624.485
344.504	20.088	805.578	623.335
345.519	20.603	804.947	624.642
346.533	20.726	804.828	624.937
347.548	20.823	804.306	624.825
348.562	20.788	804.414	624.727
349.577	20.826	803.749	624.290
350.592	20.834	802.904	623.610
351.606	20.780	802.556	623.089
352.621	20.702	802.190	622.470
353.635	20.535	801.825	621.536
354.650	20.750	800.607	621.303
355.665	20.440	799.660	619.409
356.679	19.453	798.006	614.561
357.694	19.317	797.994	614.012
358.708	19.830	797.339	615.279
359.723	19.738	797.157	614.757
360.738	20.042	797.024	615.682
361.752	20.587	796.599	617.233
362.767	20.685	795.914	616.996
363.781	20.669	796.107	617.035
364.796	21.021	795.993	618.140
365.810	21.056	795.444	617.779
366.825	21.172	794.910	617.722
367.840	21.064	794.589	617.037
368.854	20.838	794.053	615.767
369.869	20.639	793.065	614.243
370.883	20.596	792.294	613.440
371.898	20.707	791.824	613.413
372.913	20.419	791.618	612.184
373.927	20.464	790.619	611.516
374.942	20.412	790.284	611.021
375.956	20.685	789.440	611.272
376.971	20.937	789.045	611.798
377.986	20.839	788.735	611.159
379.000	20.933	788.534	611.278
380.015	21.121	787.877	611.372
381.029	20.981	787.304	610.385
382.044	20.894	786.711	609.567
383.059	21.093	786.119	609.748
384.073	20.988	785.479	608.832
385.088	21.008	785.731	609.044
386.102	21.060	784.823	608.467
387.117	21.004	784.356	607.857
388.132	20.765	783.901	606.619
389.146	20.707	783.224	605.838
390.161	20.220	782.094	603.218
391.175	20.227	781.559	602.776
392.190	20.771	781.381	604.473
393.205	20.642	781.217	603.846
394.219	19.932	779.871	600.291
395.234	18.517	777.748	593.709
396.248	17.840	776.766	590.565
397.263	18.880	777.794	594.895
398.278	20.538	778.937	601.456
399.292	20.915	778.306	602.220
400.307	20.546	777.727	600.446
401.321	20.708	777.357	600.664
402.336	20.703	776.705	600.089
403.350	20.923	776.926	600.968
404.365	21.219	776.697	601.756
405.380	21.357	776.497	602.023
406.394	21.717	776.062	602.873
407.409	21.732	775.878	602.726
408.423	21.721	774.834	601.825
409.438	21.579	774.161	600.763
410.453	21.565	774.157	600.659
411.467	21.582	773.861	600.432
412.482	21.852	773.009	600.645
413.496	21.636	772.731	599.636
414.511	21.694	772.295	599.441
415.526	21.869	772.055	599.800
416.540	21.574	771.883	598.604
417.555	21.630	771.310	598.300
418.569	21.282	770.535	596.460
419.584	21.398	769.825	596.251
420.599	21.365	769.418	595.771
421.613	157.740	1360.144	1794.951
422.628	135.982	1446.242	1795.034
