DTS Sentinel unit serial number:	SN413079Multiplexer serial number:	ORYXHardware model number:	OX4-SRSoftware version number:	ORYX F/W v4.00 Oryx Data Collector v3.7.2.0data status	okinstallation	princeton_trtdifferential loss correction	single-endedforward channel	channel 3reverse channel	N/Adate	2019/09/11time	07:14:10forward acquisition time	60.00reverse acquisition time	0.00gamma	496.2192k internal	0.2327k external	0.2327temperature offset calibration	0.9901default loss term (dB/km)	0.3790temperature slope calibration	1.0000multiplexer offset coefficient	1.0000multiplexer slope coefficient	1.0000fibre end	0.00T internal ref (°C)	30.50T ext. ref 1 (°C)	-0.06T ext. ref 2 (°C)	26.80length (m)	temperature (°C)	Stokes	anti-Stokes-747.200	156.035	-0.095	-0.132
-746.185	304.872	0.100	0.188
-745.171	-200.000	-0.027	0.273
-744.156	126.250	-0.199	0.254
-743.142	-100.119	-0.017	0.004
-742.127	-200.000	-0.009	0.188
-741.112	-82.373	0.053	-0.017
-740.098	-92.336	-0.151	-0.043
-739.083	476.437	0.170	-0.388
-738.069	-110.104	-0.117	-0.025
-737.054	-119.389	0.316	0.055
-736.039	-56.306	-0.332	0.149
-735.025	546.076	0.175	0.422
-734.010	-50.820	-0.072	-0.034
-732.996	71.934	0.101	-0.106
-731.981	-18.113	-0.246	0.155
-730.966	56.642	-0.181	0.177
-729.952	-28.617	0.319	0.185
-728.937	624.792	-0.056	-0.141
-727.923	685.049	0.111	-0.292
-726.908	-164.902	-0.331	-0.015
-725.894	-14.655	0.149	0.096
-724.879	-157.257	-0.397	0.024
-723.864	153.524	-0.151	-0.208
-722.850	-73.543	-0.243	-0.089
-721.835	-80.007	-0.031	-0.011
-720.821	-59.210	-0.299	-0.130
-719.806	174.940	0.009	0.013
-718.791	-200.000	0.024	-0.319
-717.777	19.563	0.272	0.220
-716.762	168.839	0.130	0.186
-715.748	-138.619	-0.331	-0.037
-714.733	276.987	0.057	0.103
-713.718	26.464	0.204	-0.171
-712.704	-121.672	-0.307	-0.051
-711.689	197.304	-0.088	-0.135
-710.675	-77.602	0.334	-0.116
-709.660	405.082	0.126	-0.268
-708.645	800.000	-0.077	-0.293
-707.631	-119.879	0.393	-0.068
-706.616	-116.827	0.036	0.007
-705.602	182.749	-0.085	0.126
-704.587	-200.000	0.070	0.468
-703.572	298.858	0.069	0.128
-702.558	-91.591	0.351	-0.101
-701.543	214.564	-0.178	0.284
-700.529	-91.144	-0.149	0.043
-699.514	123.677	0.117	-0.148
-698.499	127.074	-0.205	-0.261
-697.485	-130.480	-0.087	-0.012
-696.470	6.172	-0.183	-0.136
-695.456	-200.000	0.006	0.161
-694.441	-155.404	-0.372	-0.024
-693.426	-111.157	0.178	-0.037
-692.412	152.210	0.058	-0.080
-691.397	-123.351	0.087	-0.014
-690.383	117.081	-0.439	-0.543
-689.368	-71.369	-0.086	-0.033
-688.354	133.842	-0.030	0.038
-687.339	-145.347	0.393	0.036
-686.324	299.751	0.145	0.269
-685.310	800.000	-0.044	-0.187
-684.295	-130.658	-0.228	-0.031
-683.281	238.175	-0.067	0.112
-682.266	-200.000	-0.021	-0.133
-681.251	-200.000	0.006	-0.115
-680.237	800.000	0.031	0.117
-679.222	-19.742	-0.081	0.050
-678.208	57.661	-0.077	0.076
-677.193	-200.000	-0.025	-0.623
-676.178	-157.683	0.232	-0.014
-675.164	152.332	0.095	-0.131
-674.149	-128.140	-0.086	-0.012
-673.135	-157.982	0.210	0.012
-672.120	-125.490	0.222	0.034
-671.105	-107.606	-0.097	0.021
-670.091	800.000	0.043	-0.177
-669.076	-200.000	-0.034	-0.207
-668.062	150.145	0.158	0.216
-667.047	-16.601	-0.311	0.198
-666.032	800.000	0.075	0.306
-665.018	-200.000	0.097	-0.455
-664.003	-200.000	-0.028	-0.191
-662.989	446.326	-0.093	0.205
-661.974	211.762	-0.117	0.185
-660.959	790.864	0.048	0.132
-659.945	-200.000	-0.071	-0.364
-658.930	-103.786	-0.301	0.071
-657.916	800.000	-0.057	0.197
-656.901	406.869	-0.050	0.106
-655.886	-200.000	0.012	0.128
-654.872	-148.742	-0.197	-0.016
-653.857	120.031	0.096	-0.119
-652.843	314.900	-0.031	-0.059
-651.828	800.000	-0.047	0.144
-650.814	192.826	-0.103	-0.157
-649.799	-200.000	0.051	0.430
-648.784	-53.393	-0.155	-0.071
-647.770	-23.633	0.218	0.131
-646.755	-85.038	-0.291	-0.092
-645.741	-200.000	0.000	-0.158
-644.726	635.937	-0.037	0.094
-643.711	800.000	-0.041	-0.133
-642.697	-89.224	-0.420	0.124
-641.682	137.937	0.192	-0.252
-640.668	-200.000	0.010	-0.161
-639.653	-200.000	0.005	-0.081
-638.638	223.949	-0.150	-0.243
-637.624	164.629	0.211	-0.299
-636.609	384.349	-0.034	-0.070
-635.595	-121.511	-0.317	0.053
-634.580	-24.370	-0.281	0.168
-633.565	42.838	0.131	-0.119
-632.551	-61.788	-0.179	0.075
-631.536	-95.984	0.146	-0.039
-630.522	-200.000	-0.023	0.200
-629.507	-112.852	0.164	0.033
-628.492	95.400	0.328	-0.375
-627.478	-111.990	0.134	0.027
-626.463	190.318	0.282	-0.425
-625.449	28.132	-0.052	-0.044
-624.434	-63.611	0.197	-0.081
-623.419	-200.000	0.009	-0.055
-622.405	-137.569	0.110	0.012
-621.390	-31.412	-0.213	0.120
-620.376	-75.753	0.130	0.046
-619.361	-50.001	-0.327	0.155
-618.346	271.084	-0.042	0.074
-617.332	193.257	-0.144	-0.218
-616.317	-45.380	-0.130	0.065
-615.303	9.385	-0.342	0.259
-614.288	800.000	0.186	-0.541
-613.273	96.489	0.122	-0.140
-612.259	-124.634	-0.114	-0.018
-611.244	800.000	-0.121	-0.366
-610.230	-200.000	-0.001	-0.226
-609.215	39.118	-0.125	0.112
-608.201	-15.895	0.485	0.310
-607.186	-200.000	-0.031	-0.239
-606.171	132.408	-0.147	-0.190
-605.157	76.133	-0.193	-0.204
-604.142	-78.032	0.309	0.107
-603.128	-200.000	-0.001	0.014
-602.113	-200.000	-0.040	-0.386
-601.098	487.178	0.129	-0.294
-600.084	-72.179	-0.119	-0.044
-599.069	-92.075	-0.440	0.125
-598.055	-62.558	0.071	-0.030
-597.040	800.000	0.064	-0.206
-596.025	460.613	0.144	0.322
-595.011	-47.777	-0.099	-0.048
-593.996	182.070	0.216	-0.318
-592.982	-200.000	-0.002	0.057
-591.967	98.290	0.104	-0.120
-590.952	-200.000	-0.040	-0.411
-589.938	-107.525	-0.155	0.034
-588.923	5.870	0.114	-0.084
-587.909	53.960	0.239	0.230
-586.894	64.750	0.063	0.064
-585.879	63.466	-0.128	-0.129
-584.865	423.589	0.031	-0.067
-583.850	2.823	-0.368	0.267
-582.836	108.002	-0.090	-0.107
-581.821	25.554	0.241	0.201
-580.806	253.829	-0.053	0.091
-579.792	-200.000	0.004	-0.047
-578.777	265.761	0.107	-0.188
-577.763	800.000	-0.067	-0.291
-576.748	800.000	-0.035	-0.120
-575.733	-200.000	0.015	-0.338
-574.719	622.998	0.165	-0.416
-573.704	-200.000	-0.007	-0.296
-572.690	537.636	-0.048	-0.114
-571.675	41.446	0.165	0.149
-570.661	800.000	-0.105	0.306
-569.646	-200.000	0.022	0.329
-568.631	66.127	0.070	0.071
-567.617	281.148	-0.052	-0.094
-566.602	-123.014	-0.146	0.023
-565.588	-200.000	-0.077	-0.431
-564.573	-63.528	-0.437	-0.180
-563.558	29.157	0.009	-0.007
-562.544	-83.849	-0.190	-0.060
-561.529	-200.000	-0.003	-0.319
-560.515	-35.456	0.094	-0.051
-559.500	56.439	0.272	0.265
-558.485	136.287	-0.065	-0.085
-557.471	442.782	-0.081	0.177
-556.456	551.488	0.050	0.120
-555.442	31.528	0.304	-0.262
-554.427	273.356	-0.111	0.197
-553.412	-124.880	0.222	0.034
-552.398	554.445	-0.070	0.169
-551.383	-55.359	0.279	0.125
-550.369	-12.205	0.104	0.068
-549.354	-139.675	-0.420	0.045
-548.339	-35.330	0.049	0.027
-547.325	800.000	-0.035	-0.107
-546.310	74.227	-0.113	-0.118
-545.296	5.591	-0.132	-0.098
-544.281	-68.711	0.257	0.099
-543.266	-121.208	0.187	-0.031
-542.252	3.899	-0.105	0.076
-541.237	-34.100	0.291	-0.160
-540.223	731.323	0.119	0.318
-539.208	-197.308	0.147	-0.001
-538.193	27.033	0.091	-0.077
-537.179	104.501	0.120	-0.141
-536.164	19.421	-0.195	0.157
-535.150	-200.000	-0.060	0.292
-534.135	393.208	-0.306	0.637
-533.121	25.231	0.112	-0.093
-532.106	351.505	-0.122	0.242
-531.091	-94.328	-0.188	0.051
-530.077	-87.655	-0.068	-0.021
-529.062	336.963	-0.181	0.352
-528.048	653.889	0.054	-0.139
-527.033	-28.338	-0.366	-0.211
-526.018	150.707	-0.135	-0.183
-525.004	260.566	0.022	-0.039
-523.989	-142.757	0.310	-0.030
-522.975	-72.218	0.176	-0.065
-521.960	88.261	0.112	0.124
-520.945	7.485	-0.123	-0.092
-519.931	-111.876	-0.269	0.054
-518.916	-91.190	0.120	0.034
-517.902	146.983	0.048	0.064
-516.887	-16.511	-0.328	-0.208
-515.872	-200.000	-0.015	0.404
-514.858	-10.625	0.318	0.210
-513.843	-69.821	-0.387	0.148
-512.829	-65.318	-0.417	-0.167
-511.814	-76.507	0.149	-0.052
-510.799	-130.760	-0.180	-0.024
-509.785	230.559	-0.103	-0.168
-508.770	217.310	-0.152	0.242
-507.756	800.000	-0.069	0.202
-506.741	-200.000	-0.001	0.310
-505.726	-10.057	-0.036	0.024
-504.712	800.000	0.054	-0.207
-503.697	-200.000	0.050	-0.224
-502.683	-200.000	-0.007	-0.414
-501.668	-43.646	0.051	-0.025
-500.653	446.654	-0.013	-0.028
-499.639	-35.836	-0.188	-0.102
-498.624	-147.605	-0.168	-0.014
-497.610	175.650	0.031	0.044
-496.595	9.117	0.112	0.084
-495.581	-200.000	0.028	-0.373
-494.566	-37.491	-0.090	0.048
-493.551	-63.640	0.179	-0.073
-492.537	-160.517	-0.401	-0.021
-491.522	66.779	-0.236	-0.240
-490.508	-39.803	0.177	-0.092
-489.493	-200.000	-0.005	-0.263
-488.478	-18.275	0.184	0.115
-487.464	-175.546	-0.265	0.007
-486.449	-200.000	0.067	0.358
-485.435	123.280	0.173	0.217
-484.420	-133.113	0.341	-0.043
-483.405	-200.000	0.014	0.231
-482.391	-100.018	-0.217	-0.054
-481.376	108.558	-0.240	0.286
-480.362	-142.754	0.322	-0.031
-479.347	-200.000	0.023	-0.226
-478.332	-1.087	-0.347	0.245
-477.318	335.417	0.108	-0.209
-476.303	145.728	-0.146	-0.196
-475.289	-112.745	0.355	-0.070
-474.274	0.681	-0.347	0.248
-473.259	-133.683	0.207	-0.026
-472.245	-200.000	-0.012	-0.074
-471.230	647.368	0.066	0.169
-470.216	221.640	-0.138	-0.221
-469.201	-65.959	0.217	-0.086
-468.186	-37.669	0.146	-0.077
-467.172	800.000	-0.132	-0.501
-466.157	-182.557	0.201	0.004
-465.143	-0.757	-0.047	-0.033
-464.128	-39.830	-0.130	-0.068
-463.113	-58.184	-0.456	-0.198
-462.099	201.536	-0.104	-0.159
-461.084	148.914	0.232	0.312
-460.070	-200.000	0.020	0.232
-459.055	-71.856	-0.134	-0.050
-458.040	-150.061	0.309	-0.024
-457.026	-114.386	0.307	0.059
-456.011	-30.119	0.306	-0.174
-454.997	800.000	-0.070	-0.240
-453.982	522.946	0.097	0.227
-452.968	78.483	-0.076	-0.081
-451.953	800.000	0.057	-0.190
-450.938	-92.649	-0.155	-0.043
-449.924	-82.560	-0.330	-0.107
-448.909	-54.230	-0.260	-0.118
-447.895	-200.000	-0.007	0.041
-446.880	-154.407	-0.079	-0.005
-445.865	54.642	-0.121	0.117
-444.851	-200.000	-0.029	-0.167
-443.836	-200.000	0.032	-0.163
-442.822	-162.528	0.215	0.011
-441.807	103.960	-0.151	-0.176
-440.792	-200.000	0.018	-0.153
-439.778	-200.000	-0.011	0.263
-438.763	800.000	-0.050	-0.177
-437.749	14.794	-0.272	0.212
-436.734	-200.000	0.033	0.148
-435.719	-27.771	-0.232	-0.134
-434.705	-9.649	-0.267	-0.177
-433.690	-182.693	0.248	-0.004
-432.676	19.774	-0.236	0.189
-431.661	56.792	-0.370	-0.359
-430.646	-92.835	-0.129	0.036
-429.632	-51.475	-0.058	-0.027
-428.617	142.262	0.206	-0.273
-427.603	233.635	0.217	0.356
-426.588	200.577	-0.132	0.202
-425.573	132.347	0.212	0.272
-424.559	153.625	0.233	0.317
-423.544	-200.000	0.029	0.222
-422.530	298.390	-0.026	0.048
-421.515	-60.602	0.228	0.096
-420.500	-181.375	0.126	-0.002
-419.486	-133.700	0.151	0.019
-418.471	-23.587	0.128	-0.076
-417.457	-132.706	0.381	-0.049
-416.442	13.508	-0.219	-0.169
-415.428	-149.130	-0.131	-0.010
-414.413	-187.840	-0.064	-0.001
-413.398	-200.000	0.034	-0.275
-412.384	611.619	0.115	0.287
-411.369	-22.156	-0.054	-0.033
-410.355	373.059	-0.352	-0.711
-409.340	-70.894	0.281	-0.105
-408.325	-33.067	-0.391	-0.216
-407.311	-82.073	-0.263	0.085
-406.296	-111.392	-0.177	0.036
-405.282	71.538	-0.060	-0.062
-404.267	-5.934	-0.156	0.106
-403.252	-200.000	-0.009	-0.117
-402.238	-114.064	0.131	0.025
-401.223	-26.515	0.353	0.206
-400.209	335.342	-0.033	-0.063
-399.194	352.189	0.163	-0.321
-398.179	-200.000	0.048	0.298
-397.165	800.000	-0.036	0.132
-396.150	-103.521	0.187	0.044
-395.136	24.771	-0.272	-0.224
-394.121	439.404	0.012	-0.026
-393.106	800.000	0.095	0.267
-392.092	-9.655	0.273	0.181
-391.077	-78.329	0.063	0.022
-390.063	800.000	0.090	0.304
-389.048	144.820	-0.079	0.105
-388.033	800.000	-0.089	0.358
-387.019	-5.914	0.086	-0.058
-386.004	192.524	-0.198	-0.297
-384.990	-200.000	-0.005	0.045
-383.975	122.803	0.073	0.091
-382.960	-76.859	-0.076	-0.026
-381.946	-69.692	0.387	0.147
-380.931	-131.315	0.230	-0.030
-379.917	-31.460	-0.165	0.092
-378.902	-200.000	0.011	-0.259
-377.888	111.678	-0.121	0.146
-376.873	40.102	0.097	-0.087
-375.858	673.657	-0.046	0.120
-374.844	800.000	0.088	-0.279
-373.829	-47.883	0.203	0.098
-372.815	322.686	-0.174	-0.329
-371.800	-71.988	0.354	0.131
-370.785	-104.890	0.225	0.051
-369.771	162.827	0.047	-0.066
-368.756	800.000	-0.029	-0.106
-367.742	-189.224	0.446	0.005
-366.727	42.955	-0.119	-0.108
-365.712	392.997	-0.154	0.319
-364.698	218.600	0.204	-0.324
-363.683	-184.320	-0.269	-0.004
-362.669	130.186	-0.134	-0.170
-361.654	73.432	0.127	-0.132
-360.639	-77.810	0.130	-0.045
-359.625	137.126	0.162	-0.210
-358.610	-155.373	-0.442	0.028
-357.596	-151.193	0.356	-0.026
-356.581	-146.620	-0.298	-0.026
-355.566	-131.852	0.291	0.038
-354.552	497.191	-0.032	0.073
-353.537	-99.138	0.088	0.022
-352.523	-68.751	0.135	0.052
-351.508	80.385	0.131	0.140
-350.493	155.651	0.175	0.240
-349.479	-115.813	0.260	0.048
-348.464	-26.066	-0.204	-0.119
-347.450	-200.000	0.033	-0.187
-346.435	92.098	0.109	0.122
-345.420	439.314	-0.045	-0.098
-344.406	120.567	-0.168	-0.208
-343.391	-146.298	-0.247	-0.021
-342.377	800.000	-0.064	-0.243
-341.362	599.037	0.076	-0.188
-340.348	-200.000	-0.038	-0.531
-339.333	-200.000	-0.026	-0.176
-338.318	-76.730	0.309	0.107
-337.304	-94.373	-0.315	-0.085
-336.289	-200.000	0.035	0.243
-335.275	800.000	-0.035	0.098
-334.260	102.097	-0.060	-0.070
-333.245	200.161	0.125	0.190
-332.231	-86.154	0.238	0.073
-331.216	-200.000	-0.044	0.255
-330.202	28.624	-0.288	-0.241
-329.187	-43.536	0.123	0.062
-328.172	-109.887	0.080	0.017
-327.158	800.000	-0.065	0.188
-326.143	-179.233	0.210	-0.005
-325.129	150.607	0.196	0.264
-324.114	800.000	0.138	0.387
-323.099	298.918	0.095	0.173
-322.085	342.295	0.115	0.223
-321.070	392.221	0.054	-0.111
-320.056	1.601	0.039	-0.028
-319.041	117.443	0.118	0.144
-318.026	-68.408	0.118	-0.045
-317.012	10.264	-0.328	0.247
-315.997	-200.000	-0.089	0.422
-314.983	-48.975	0.317	-0.150
-313.968	82.363	0.083	-0.089
-312.953	70.110	-0.135	0.138
-311.939	130.983	-0.233	0.296
-310.924	227.892	0.181	0.293
-309.910	193.728	0.312	0.468
-308.895	-37.075	-0.202	0.107
-307.880	-145.066	-0.128	0.012
-306.866	0.869	-0.138	0.098
-305.851	-8.177	-0.151	-0.101
-304.837	-148.798	-0.082	0.007
-303.822	457.415	-0.155	-0.342
-302.807	-96.112	-0.213	-0.056
-301.793	-34.785	-0.139	0.075
-300.778	-91.270	0.168	0.048
-299.764	-136.197	-0.203	0.024
-298.749	272.760	0.106	0.185
-297.735	90.878	-0.166	0.185
-296.720	800.000	0.091	0.397
-295.705	-41.253	0.300	-0.153
-294.691	-200.000	0.077	-0.364
-293.676	361.103	-0.120	-0.238
-292.662	409.208	0.090	0.188
-291.647	760.274	0.156	0.418
-290.632	39.409	0.154	0.137
-289.618	133.964	0.062	0.079
-288.603	4.534	-0.148	-0.107
-287.589	-89.927	0.109	0.031
-286.574	-39.595	-0.077	-0.040
-285.559	800.000	-0.137	0.426
-284.545	-69.525	-0.085	0.032
-283.530	-88.309	0.200	-0.059
-282.516	-21.202	0.168	0.102
-281.501	84.264	-0.125	-0.136
-280.486	182.673	0.093	0.135
-279.472	-4.275	-0.162	-0.111
-278.457	800.000	-0.007	0.018
-277.443	205.270	0.195	0.300
-276.428	-129.241	-0.289	-0.040
-275.413	-101.686	-0.197	-0.047
-274.399	-127.750	0.095	0.014
-273.384	200.405	0.032	0.049
-272.370	-123.808	0.017	0.003
-271.355	-200.000	-0.046	0.280
-270.340	513.465	0.028	-0.065
-269.326	28.332	-0.148	0.123
-268.311	800.000	-0.078	0.274
-267.297	-12.650	-0.159	-0.103
-266.282	128.248	0.174	-0.219
-265.267	-61.608	0.194	0.080
-264.253	83.717	0.110	-0.119
-263.238	525.920	0.141	0.328
-262.224	-102.359	-0.233	0.055
-261.209	549.247	0.087	0.207
-260.195	-35.862	0.154	-0.082
-259.180	9.200	-0.203	0.152
-258.165	194.410	-0.073	-0.109
-257.151	-93.583	0.405	0.111
-256.136	-144.759	0.278	0.025
-255.122	-200.000	-0.007	0.073
-254.107	-15.750	-0.145	-0.091
-253.092	81.873	-0.248	-0.265
-252.078	71.772	0.125	0.129
-251.063	-17.198	-0.306	0.191
-250.049	-61.261	-0.105	-0.044
-249.034	-184.659	-0.096	-0.002
-248.019	-134.874	0.448	0.054
-247.005	-122.601	-0.278	0.045
-245.990	-28.583	0.208	-0.119
-244.976	-121.028	0.165	0.027
-243.961	-200.000	0.026	0.132
-242.946	105.374	-0.211	0.247
-241.932	-23.630	0.084	-0.050
-240.917	-121.741	0.127	0.021
-239.903	61.401	-0.091	-0.089
-238.888	-76.557	0.104	-0.036
-237.873	800.000	0.022	-0.072
-236.859	-103.096	0.285	-0.067
-235.844	-122.006	-0.272	0.044
-234.830	-160.822	0.161	0.008
-233.815	-121.676	-0.150	0.025
-232.800	-191.552	-0.364	-0.004
-231.786	-30.618	0.211	-0.118
-230.771	-91.686	-0.326	0.092
-229.757	267.104	0.069	-0.119
-228.742	800.000	0.032	0.103
-227.727	544.824	0.121	0.285
-226.713	800.000	-0.031	0.090
-225.698	252.238	-0.188	-0.316
-224.684	95.157	-0.147	0.165
-223.669	-200.000	0.025	0.209
-222.655	31.917	0.114	0.097
-221.640	-128.352	0.241	0.034
-220.625	-149.300	-0.363	0.029
-219.611	-98.185	0.113	-0.029
-218.596	-42.437	-0.117	-0.059
-217.582	800.000	-0.002	0.005
-216.567	-147.085	0.367	0.031
-215.552	800.000	0.071	0.264
-214.538	-123.052	-0.157	-0.025
-213.523	246.702	0.074	0.123
-212.509	415.523	0.052	-0.110
-211.494	-127.489	0.281	-0.040
-210.479	54.220	0.270	-0.257
-209.465	-200.000	0.050	-0.261
-208.450	-200.000	-0.020	0.266
-207.436	-200.000	0.028	-0.284
-206.421	-200.000	0.009	0.150
-205.406	263.426	0.120	-0.205
-204.392	47.948	-0.300	-0.277
-203.377	-78.067	0.339	0.115
-202.363	-200.000	-0.031	0.414
-201.348	-200.000	0.019	-0.148
-200.333	628.188	-0.052	-0.129
-199.319	384.170	-0.169	0.344
-198.304	-200.000	0.060	0.377
-197.290	29.510	-0.429	-0.360
-196.275	156.106	-0.127	-0.173
-195.260	186.352	-0.091	0.133
-194.246	-120.900	0.023	-0.004
-193.231	7.905	-0.279	-0.206
-192.217	-200.000	0.009	0.088
-191.202	-37.615	0.197	-0.104
-190.187	11.064	-0.361	0.272
-189.173	800.000	0.050	0.139
-188.158	85.285	-0.161	-0.174
-187.144	438.850	-0.135	0.291
-186.129	-200.000	0.055	-0.285
-185.114	58.781	-0.152	-0.147
-184.100	-121.765	0.225	0.037
-183.085	-128.531	0.274	0.038
-182.071	102.894	0.114	0.131
-181.056	-134.929	0.068	-0.008
-180.042	-66.896	-0.100	0.039
-179.027	-100.768	0.250	0.061
-178.012	-200.000	-0.011	-0.105
-176.998	-39.953	-0.159	-0.082
-175.983	29.046	0.074	-0.062
-174.969	269.259	0.051	0.088
-173.954	-200.000	0.026	-0.142
-172.939	-55.358	-0.243	-0.107
-171.925	-200.000	-0.020	0.321
-170.910	286.800	-0.109	0.194
-169.896	-139.046	-0.391	-0.042
-168.881	-55.996	-0.248	-0.109
-167.866	800.000	0.032	-0.094
-166.852	67.152	-0.196	0.197
-165.837	-56.363	0.182	0.080
-164.823	-159.326	0.262	-0.014
-163.808	-23.794	0.276	0.163
-162.793	371.898	-0.041	-0.081
-161.779	15.805	0.235	0.182
-160.764	800.000	-0.089	-0.324
-159.750	-103.269	0.198	-0.046
-158.735	-200.000	0.040	0.183
-157.720	490.640	-0.074	0.166
-156.706	-8.062	0.146	-0.097
-155.691	153.527	0.060	-0.081
-154.677	118.835	-0.189	0.230
-153.662	-97.464	0.350	0.090
-152.647	-24.403	0.274	-0.161
-151.633	243.572	-0.115	-0.190
-150.618	653.128	0.044	-0.111
-149.604	800.000	-0.044	-0.129
-148.589	-30.024	-0.235	-0.132
-147.574	-200.000	0.009	-0.323
-146.560	79.020	0.078	-0.083
-145.545	67.670	0.173	-0.174
-144.531	-168.328	-0.108	-0.004
-143.516	-57.455	-0.303	-0.131
-142.502	42.252	-0.266	0.238
-141.487	43.012	-0.165	-0.148
-140.472	-88.807	0.153	-0.045
-139.458	-134.065	0.274	0.033
-138.443	-35.575	0.342	0.183
-137.429	18.890	-0.156	0.123
-136.414	200.793	-0.131	-0.199
-135.399	800.000	-0.054	-0.199
-134.385	29.380	0.165	0.138
-133.370	49.952	-0.295	0.273
-132.356	-200.000	0.066	-0.360
-131.341	-200.000	0.017	-0.147
-130.326	-200.000	0.000	0.078
-129.312	-200.000	0.009	-0.074
-128.297	249.241	0.252	0.420
-127.283	91.430	-0.110	0.121
-126.268	-117.932	-0.224	-0.040
-125.253	-17.482	0.262	-0.162
-124.239	-200.000	0.000	0.121
-123.224	167.853	0.317	-0.444
-122.210	-179.435	-0.491	-0.011
-121.195	-112.983	0.280	0.055
-120.180	-59.456	0.153	0.065
-119.166	800.000	0.095	-0.283
-118.151	51.255	-0.303	0.283
-117.137	0.029	-0.167	-0.117
-116.122	-148.865	-0.225	0.018
-115.107	-125.831	0.192	-0.029
-114.093	199.038	0.076	-0.114
-113.078	-155.311	0.108	0.007
-112.064	800.000	-0.135	0.371
-111.049	-48.030	-0.125	-0.059
-110.034	-200.000	-0.047	0.316
-109.020	28.650	-0.129	-0.107
-108.005	800.000	-0.065	0.241
-106.991	149.178	-0.247	0.328
-105.976	586.905	0.037	-0.091
-104.962	778.316	0.089	0.238
-103.947	42.560	0.162	0.145
-102.932	-200.000	0.051	0.433
-101.918	145.995	-0.108	0.143
-100.903	172.864	0.061	0.086
-99.889	257.884	0.084	-0.142
-98.874	-128.719	0.245	0.034
-97.859	16.905	0.159	0.124
-96.845	497.534	0.002	-0.004
-95.830	-7.725	0.295	-0.196
-94.816	323.892	0.075	0.140
-93.801	295.169	0.107	0.193
-92.786	-122.541	-0.230	-0.037
-91.772	-47.411	0.161	0.077
-90.757	-125.802	-0.367	0.055
-89.743	100.350	-0.171	0.196
-88.728	116.278	0.202	0.243
-87.713	-125.060	-0.394	0.059
-86.699	222.972	0.052	-0.082
-85.684	472.510	-0.119	0.262
-84.670	493.178	0.077	-0.173
-83.655	17.525	0.057	0.045
-82.640	800.000	0.052	-0.192
-81.626	-200.000	-0.015	-0.359
-80.611	-73.266	0.328	-0.118
-79.597	-200.000	0.043	0.243
-78.582	-41.059	-0.148	0.075
-77.567	-26.223	0.094	-0.054
-76.553	-12.080	0.137	0.088
-75.538	-200.000	-0.010	0.233
-74.524	-4.996	0.118	0.080
-73.509	-143.401	-0.408	0.038
-72.494	-76.682	0.387	0.133
-71.480	358.518	-0.099	-0.194
-70.465	-28.247	-0.205	0.116
-69.451	-133.279	-0.177	0.022
-68.436	-79.715	0.251	0.083
-67.422	800.000	-0.009	-0.032
-66.407	321.688	-0.138	-0.258
-65.392	93.780	-0.216	-0.240
-64.378	-36.421	0.140	0.074
-63.363	-28.666	0.253	0.143
-62.349	334.501	-0.067	0.127
-61.334	28.521	-0.846	-0.702
-60.319	111.903	0.384	0.455
-59.305	-200.000	-0.095	-0.936
-58.290	150.246	0.816	1.087
-57.276	702.117	0.650	1.680
-56.261	-200.000	98.802	603.863
-55.246	572.996	1428.720	3417.216
-54.232	186.932	2627.947	3842.459
-53.217	114.830	2180.622	2609.202
-52.203	41.549	1710.163	1519.156
-51.188	33.655	1521.944	1298.161
-50.173	31.350	1495.200	1259.777
-49.159	51.351	1546.522	1440.641
-48.144	52.197	1564.307	1462.957
-47.130	33.929	1522.539	1300.332
-46.115	30.834	1507.543	1266.467
-45.100	30.614	1504.506	1262.370
-44.086	30.590	1502.028	1260.080
-43.071	30.507	1500.480	1258.172
-42.057	30.545	1498.681	1256.870
-41.042	30.601	1497.157	1255.916
-40.027	30.575	1495.867	1254.614
-39.013	30.469	1494.818	1252.970
-37.998	30.477	1492.893	1251.358
-36.984	30.490	1491.717	1250.408
-35.969	30.457	1490.596	1249.196
-34.954	30.468	1489.052	1247.928
-33.940	30.566	1487.215	1246.998
-32.925	30.552	1486.176	1245.984
-31.911	30.523	1485.068	1244.813
-30.896	30.459	1484.098	1243.520
-29.881	30.585	1482.524	1242.992
-28.867	30.590	1481.174	1241.846
-27.852	30.583	1479.837	1240.628
-26.838	30.529	1478.356	1238.975
-25.823	30.616	1476.650	1238.077
-24.809	30.577	1474.866	1236.274
-23.794	30.490	1473.964	1234.893
-22.779	30.528	1473.074	1234.347
-21.765	30.580	1471.495	1233.320
-20.750	30.589	1470.096	1232.162
-19.736	30.569	1469.031	1231.087
-18.721	30.491	1468.340	1229.943
-17.706	30.455	1467.649	1229.074
-16.692	30.617	1465.706	1228.469
-15.677	30.469	1465.106	1226.943
-14.663	30.475	1464.167	1226.145
-13.648	30.413	1463.425	1225.065
-12.633	30.457	1462.099	1224.196
-11.619	30.464	1461.171	1223.417
-10.604	30.481	1460.616	1223.014
-9.590	30.484	1459.947	1222.425
-8.575	30.453	1459.204	1221.553
-7.560	30.423	1458.117	1220.396
-6.546	30.458	1456.918	1219.575
-5.531	30.406	1456.798	1219.083
-4.517	30.485	1455.283	1218.290
-3.502	30.516	1454.182	1217.521
-2.487	30.465	1453.238	1216.345
-1.473	30.389	1452.309	1215.022
-0.458	30.375	1451.035	1213.820
0.556	28.061	1441.886	1204.771
1.571	25.689	1416.529	1168.106
2.586	22.832	1356.840	1100.997
3.600	21.479	1276.262	1027.577
4.615	20.136	1230.623	983.135
5.629	17.690	1175.289	925.580
6.644	9.127	1091.203	815.942
7.659	1.421	1049.062	746.599
8.673	0.160	1043.037	736.085
9.688	-0.103	1040.204	732.739
10.702	-0.141	1038.375	731.201
11.717	-0.167	1036.604	729.762
12.731	3.413	1040.884	750.152
13.746	12.403	1053.775	803.509
14.761	19.099	1061.911	842.523
15.775	20.733	1063.628	851.818
16.790	21.049	1063.391	853.097
17.804	20.915	1062.586	851.721
18.819	20.801	1061.509	850.225
19.834	20.758	1061.199	849.691
20.848	20.811	1060.683	849.461
21.863	20.914	1059.901	849.266
22.877	20.919	1059.977	849.276
23.892	20.859	1059.188	848.276
24.907	20.755	1058.360	847.032
25.921	20.813	1057.778	846.770
26.936	20.937	1056.520	846.290
27.950	20.936	1055.441	845.345
28.965	20.805	1054.697	844.044
29.980	20.757	1052.689	842.127
30.994	20.612	1052.014	840.812
32.009	20.934	1051.037	841.512
33.023	20.972	1050.100	840.869
34.038	20.795	1048.956	839.030
35.053	20.707	1048.089	837.838
36.067	20.941	1047.534	838.447
37.082	21.019	1046.595	837.991
38.096	20.922	1046.096	837.054
39.111	21.061	1045.375	837.071
40.126	21.134	1044.525	836.668
41.140	21.169	1043.504	835.943
42.155	20.992	1041.675	833.555
43.169	20.672	1040.815	831.266
44.184	20.656	1039.365	829.956
45.199	20.566	1038.965	829.138
46.213	20.628	1037.906	828.514
47.228	20.510	1037.186	827.304
48.242	20.595	1036.420	827.022
49.257	20.736	1035.353	826.767
50.271	20.867	1034.110	826.325
51.286	20.981	1033.531	826.327
52.301	20.895	1032.802	825.264
53.315	21.025	1032.098	825.247
54.330	21.037	1031.325	824.610
55.344	20.798	1031.004	823.150
56.359	20.894	1029.868	822.622
57.374	20.820	1029.088	821.582
58.388	20.804	1027.866	820.458
59.403	20.633	1027.194	819.043
60.417	20.753	1026.333	818.850
61.432	20.481	1025.374	816.733
62.447	20.511	1024.722	816.283
63.461	20.757	1023.979	816.770
64.476	20.775	1023.453	816.364
65.490	20.693	1022.154	814.873
66.505	20.609	1021.486	813.874
67.520	20.703	1020.379	813.360
68.534	20.673	1020.130	812.948
69.549	20.621	1019.198	811.893
70.563	20.371	1017.819	809.554
71.578	20.137	1017.234	807.926
72.593	20.290	1016.309	807.834
73.607	20.248	1014.852	806.410
74.622	20.213	1013.948	805.456
75.636	20.359	1013.616	805.801
76.651	20.522	1012.772	805.815
77.666	20.479	1011.520	804.549
78.680	20.408	1010.665	803.465
79.695	20.319	1010.723	803.032
80.709	20.467	1010.112	803.159
81.724	20.570	1008.849	802.560
82.739	20.575	1007.898	801.753
83.753	20.657	1007.011	801.356
84.768	20.826	1006.863	801.945
85.782	21.073	1006.430	802.664
86.797	21.225	1005.659	802.678
87.812	21.263	1004.056	801.502
88.826	20.949	1003.592	799.621
89.841	20.994	1002.532	798.913
90.855	21.303	1001.452	799.396
91.870	21.222	1000.835	798.460
92.884	21.130	1000.184	797.452
93.899	21.058	999.364	796.398
94.914	20.950	998.267	794.961
95.928	20.995	997.934	794.829
96.943	21.151	996.522	794.345
97.957	20.758	995.784	791.897
98.972	20.746	994.209	790.524
99.987	20.473	992.978	788.236
101.001	20.400	992.753	787.656
102.016	20.922	991.952	789.315
103.030	21.047	990.994	789.048
104.045	20.704	990.492	787.030
105.060	20.682	988.932	785.620
106.074	20.574	987.562	783.975
107.089	20.444	987.538	783.301
108.103	20.839	987.138	784.694
109.118	20.980	985.911	784.283
110.133	20.671	984.582	781.766
111.147	20.609	983.749	780.758
112.162	20.514	982.565	779.323
113.176	20.371	981.127	777.476
114.191	20.430	980.727	777.355
115.206	20.473	979.819	776.755
116.220	20.200	978.864	774.711
117.235	20.320	977.468	774.071
118.249	20.429	976.987	774.111
119.264	20.330	976.004	772.823
120.279	20.333	974.880	771.876
121.293	20.366	974.175	771.398
122.308	20.375	974.083	771.293
123.322	20.442	973.109	770.751
124.337	20.372	971.905	769.419
125.352	20.289	970.722	768.049
126.366	19.898	968.803	764.733
127.381	19.559	967.765	762.353
128.395	20.243	967.259	764.902
129.410	20.714	967.245	766.900
130.424	20.848	966.158	766.561
131.439	20.759	965.013	765.191
132.454	20.816	963.960	764.540
133.468	20.777	963.292	763.773
134.483	20.713	962.532	762.823
135.497	20.840	961.541	762.526
136.512	21.051	960.780	762.776
137.527	21.123	960.158	762.530
138.541	20.994	959.553	761.418
139.556	21.109	958.767	761.231
140.570	21.051	957.939	760.253
141.585	21.234	956.780	760.060
142.600	21.095	956.630	759.271
143.614	20.996	955.218	757.653
144.629	21.206	954.796	758.163
145.643	21.436	953.842	758.336
146.658	21.219	953.110	756.744
147.673	20.960	952.055	754.722
148.687	20.918	950.639	753.349
149.702	20.776	950.032	752.189
150.716	20.779	948.840	751.191
151.731	20.778	947.725	750.238
152.746	20.855	947.313	750.177
153.760	21.156	946.184	750.509
154.775	21.173	945.866	750.265
155.789	21.200	945.272	749.841
156.804	21.307	943.738	749.019
157.819	21.147	942.781	747.509
158.833	21.181	942.181	747.110
159.848	21.334	941.297	747.000
160.862	21.314	940.787	746.441
161.877	21.199	939.903	745.185
162.892	21.019	939.128	743.737
163.906	21.364	937.921	744.182
164.921	21.196	937.040	742.702
165.935	21.107	935.805	741.281
166.950	21.264	934.898	741.164
167.964	21.308	933.689	740.327
168.979	21.131	932.907	738.891
169.994	20.977	931.800	737.299
171.008	20.962	930.818	736.394
172.023	21.131	930.367	736.685
173.037	21.173	929.842	736.378
174.052	21.124	927.976	734.630
175.067	20.880	927.146	732.884
176.081	20.957	926.144	732.350
177.096	20.968	925.542	731.856
178.110	21.034	925.033	731.662
179.125	20.751	924.145	729.709
180.140	20.559	922.903	727.860
181.154	20.586	922.192	727.348
182.169	20.659	921.903	727.361
183.183	20.924	921.484	728.074
184.198	21.171	921.202	728.819
185.213	21.111	920.651	728.067
186.227	21.139	919.290	727.046
187.242	21.194	919.117	727.072
188.256	21.226	918.499	726.651
189.271	21.098	917.491	725.259
190.286	21.285	916.776	725.406
191.300	21.316	915.747	724.656
192.315	20.649	914.924	721.177
193.329	19.973	913.114	716.887
194.344	19.493	912.605	714.440
195.359	20.115	912.646	716.979
196.373	20.865	912.764	720.114
197.388	21.104	912.440	720.780
198.402	21.090	911.698	720.073
199.417	21.005	911.244	719.299
200.432	21.093	910.484	718.998
201.446	20.940	909.694	717.680
202.461	20.541	909.295	715.659
203.475	20.658	908.268	715.269
204.490	20.204	907.304	712.581
205.504	19.161	904.965	706.407
206.519	19.654	905.106	708.477
207.534	20.692	905.211	712.751
208.548	20.763	904.731	712.599
209.563	20.990	904.768	713.493
210.577	21.158	903.575	713.176
211.592	20.829	902.793	711.153
212.607	21.164	902.425	712.167
213.621	21.421	902.063	712.867
214.636	21.225	901.303	711.405
215.650	21.368	901.123	711.782
216.665	21.360	900.347	711.071
217.680	21.377	899.825	710.667
218.694	21.385	899.108	710.071
219.709	21.062	898.147	707.938
220.723	20.560	897.312	705.180
221.738	20.759	897.381	705.981
222.753	21.097	896.539	706.626
223.767	21.078	895.795	705.897
224.782	20.940	895.296	704.885
225.796	21.318	894.601	705.800
226.811	21.400	893.549	705.241
227.826	20.966	892.441	702.557
228.840	20.113	891.039	697.957
229.855	20.106	890.354	697.328
230.869	20.495	890.223	698.732
231.884	20.192	889.000	696.490
232.899	20.171	888.460	695.920
233.913	20.851	889.008	699.020
234.928	21.168	888.041	699.468
235.942	20.945	888.039	698.510
236.957	21.050	887.151	698.171
237.972	20.792	885.866	696.067
238.986	20.634	885.621	695.181
240.001	20.630	885.102	694.694
241.015	20.637	884.550	694.229
242.030	20.879	883.386	694.217
243.045	21.100	882.814	694.585
244.059	21.077	882.530	694.212
245.074	21.122	882.425	694.245
246.088	21.201	880.896	693.294
247.103	20.719	880.383	690.918
248.117	20.832	879.355	690.498
249.132	21.346	879.738	692.774
250.147	21.726	879.400	693.952
251.161	21.796	878.771	693.672
252.176	21.752	878.723	693.399
253.190	21.894	877.596	693.009
254.205	22.001	877.006	692.902
255.220	22.025	876.904	692.855
256.234	22.123	876.130	692.569
257.249	22.021	875.518	691.623
258.263	21.717	875.163	690.086
259.278	21.757	874.472	689.637
260.293	21.861	873.898	689.532
261.307	22.171	873.215	690.149
262.322	21.825	872.588	688.234
263.336	21.753	871.467	687.007
264.351	21.330	870.149	684.250
265.366	20.197	868.565	678.515
266.380	19.920	867.214	676.318
267.395	20.673	868.013	679.826
268.409	21.549	868.095	683.248
269.424	21.554	867.141	682.460
270.439	21.627	866.722	682.353
271.453	21.721	866.472	682.461
272.468	21.807	865.689	682.121
273.482	21.896	865.442	682.212
274.497	22.067	865.098	682.543
275.512	21.952	863.499	680.775
276.526	21.331	862.390	677.433
277.541	21.516	862.183	677.928
278.555	21.792	862.431	679.134
279.570	21.543	861.340	677.251
280.585	21.304	860.552	675.647
281.599	21.556	859.874	676.028
282.614	21.715	859.427	676.230
283.628	21.232	858.379	673.484
284.643	20.789	857.778	671.247
285.657	21.552	856.896	673.431
286.672	21.328	856.074	671.867
287.687	20.716	855.659	669.129
288.701	21.076	855.593	670.401
289.716	21.526	855.338	671.869
290.730	21.239	854.300	669.897
291.745	21.007	853.668	668.453
292.760	20.871	852.359	666.845
293.774	20.809	852.104	666.350
294.789	21.718	852.730	670.260
295.803	22.318	852.839	672.581
296.818	22.213	852.346	671.732
297.833	22.511	851.874	672.438
298.847	22.121	850.637	669.914
299.862	21.802	849.469	667.721
300.876	21.911	849.067	667.761
301.891	22.294	848.953	669.068
302.906	22.298	848.544	668.701
303.920	21.877	847.303	666.067
304.935	21.769	846.619	665.061
305.949	22.033	846.361	665.799
306.964	22.224	845.779	666.006
307.979	22.170	844.707	664.899
308.993	21.957	844.076	663.541
310.008	22.296	844.536	665.126
311.022	22.366	844.115	664.999
312.037	22.113	843.893	663.808
313.052	22.066	842.823	662.731
314.066	22.049	841.678	661.707
315.081	21.334	840.396	657.952
316.095	20.684	839.381	654.651
317.110	21.131	839.568	656.424
318.125	21.988	840.093	659.999
319.139	21.569	838.429	657.062
320.154	20.352	837.114	651.409
321.168	19.861	836.256	648.840
322.183	20.599	836.267	651.559
323.197	21.566	836.836	655.568
324.212	21.857	836.151	656.061
325.227	22.060	835.894	656.562
326.241	22.249	835.664	657.031
327.256	21.951	834.992	655.329
328.270	21.971	834.400	654.881
329.285	21.757	833.775	653.535
330.300	21.680	832.824	652.446
331.314	21.464	832.016	650.953
332.329	21.625	831.392	651.003
333.343	21.840	831.303	651.675
334.358	22.052	830.731	651.958
335.373	22.115	830.279	651.780
336.387	22.180	829.587	651.418
337.402	22.493	828.963	652.031
338.416	22.635	828.677	652.274
339.431	22.574	828.270	651.669
340.446	22.492	827.431	650.648
341.460	22.789	826.952	651.310
342.475	22.693	826.336	650.412
343.489	22.497	825.691	649.127
344.504	22.526	825.214	648.801
345.519	22.751	824.944	649.360
346.533	22.968	824.512	649.759
347.548	22.970	824.519	649.713
348.562	23.114	823.688	649.530
349.577	22.882	823.125	648.179
350.592	22.881	822.621	647.720
351.606	22.894	822.445	647.574
352.621	22.866	821.664	646.799
353.635	22.668	821.001	645.493
354.650	22.818	820.444	645.549
355.665	22.341	819.736	643.188
356.679	21.363	818.057	638.248
357.694	21.244	817.557	637.365
358.708	21.948	817.248	639.635
359.723	21.957	816.498	639.024
360.738	21.983	816.827	639.321
361.752	22.449	816.856	640.983
362.767	22.486	816.516	640.794
363.781	22.853	816.071	641.722
364.796	23.107	815.889	642.445
365.810	23.195	815.360	642.292
366.825	23.461	814.809	642.764
367.840	23.146	814.986	641.707
368.854	23.215	814.203	641.281
369.869	22.679	813.262	638.546
370.883	22.497	812.702	637.388
371.898	22.521	812.165	636.997
372.913	22.618	811.057	636.422
373.927	22.667	810.775	636.321
374.942	22.745	810.066	635.992
375.956	22.791	809.463	635.625
376.971	22.973	809.022	635.878
377.986	23.058	808.803	635.957
379.000	23.204	808.451	636.147
380.015	23.270	807.883	635.880
381.029	23.080	806.972	634.429
382.044	22.960	806.934	633.911
383.059	23.140	806.063	633.816
384.073	23.195	805.427	633.458
385.088	23.240	804.998	633.223
386.102	23.268	804.430	632.822
387.117	22.975	803.909	631.307
388.132	22.936	803.216	630.568
389.146	22.729	802.706	629.376
390.161	22.319	801.521	626.930
391.175	22.295	801.374	626.673
392.190	22.922	801.121	628.653
393.205	22.820	800.628	627.846
394.219	21.928	799.106	623.428
395.234	20.418	796.769	616.200
396.248	19.700	795.874	612.909
397.263	20.772	797.087	617.592
398.278	22.343	798.244	624.008
399.292	23.044	797.936	626.198
400.307	22.651	797.233	624.200
401.321	22.583	796.711	623.494
402.336	22.556	796.705	623.341
403.350	23.025	796.311	624.632
404.365	23.412	796.210	625.866
405.380	23.602	796.010	626.323
406.394	23.720	796.018	626.689
407.409	23.954	795.291	626.890
408.423	23.926	794.706	626.271
409.438	23.754	794.459	625.418
410.453	23.758	794.040	625.047
411.467	23.866	794.060	625.385
412.482	23.901	793.061	624.666
413.496	23.921	792.521	624.258
414.511	23.947	792.572	624.331
415.526	24.049	791.939	624.135
416.540	24.035	791.418	623.620
417.555	23.907	790.587	622.465
418.569	23.666	790.188	621.250
419.584	23.523	789.649	620.274
420.599	23.502	789.185	619.781
421.613	155.724	1365.421	1795.783
422.628	134.736	1449.373	1795.865
