DTS Sentinel unit serial number:	SN413079Multiplexer serial number:	ORYXHardware model number:	OX4-SRSoftware version number:	ORYX F/W v4.00 Oryx Data Collector v3.7.2.0data status	okinstallation	princeton_trtdifferential loss correction	single-endedforward channel	channel 3reverse channel	N/Adate	2019/09/11time	02:54:10forward acquisition time	60.00reverse acquisition time	0.00gamma	496.2192k internal	0.2331k external	0.2331temperature offset calibration	0.9914default loss term (dB/km)	0.3790temperature slope calibration	1.0000multiplexer offset coefficient	1.0000multiplexer slope coefficient	1.0000fibre end	0.00T internal ref (°C)	29.27T ext. ref 1 (°C)	-0.30T ext. ref 2 (°C)	23.71length (m)	temperature (°C)	Stokes	anti-Stokes-747.200	-85.830	-0.106	0.033
-746.185	148.207	-0.247	0.335
-745.171	69.513	0.264	0.273
-744.156	112.275	0.098	-0.119
-743.142	114.251	0.158	-0.194
-742.127	359.751	-0.058	0.117
-741.112	185.490	-0.037	-0.055
-740.098	151.519	0.149	0.205
-739.083	63.581	-0.078	0.078
-738.069	-100.219	0.362	-0.090
-737.054	-200.000	-0.047	-0.257
-736.039	483.538	-0.057	0.130
-735.025	-135.059	0.169	0.020
-734.010	97.399	-0.050	0.058
-732.996	-200.000	0.023	-0.480
-731.981	-200.000	0.010	-0.157
-730.966	564.413	0.056	0.137
-729.952	-68.600	-0.211	-0.082
-728.937	64.535	0.275	0.279
-727.923	-200.000	-0.006	-0.097
-726.908	59.382	-0.204	-0.202
-725.894	-200.000	0.040	-0.510
-724.879	254.500	0.163	0.280
-723.864	-107.838	-0.045	0.010
-722.850	-86.339	-0.130	-0.040
-721.835	2.211	-0.223	-0.162
-720.821	-83.937	-0.442	0.141
-719.806	163.416	0.074	0.105
-718.791	800.000	-0.100	0.288
-717.777	46.382	0.083	0.077
-716.762	-200.000	-0.009	0.151
-715.748	-69.006	-0.079	-0.030
-714.733	800.000	-0.095	-0.321
-713.718	18.294	-0.301	-0.241
-712.704	-152.813	-0.320	0.023
-711.689	-200.000	-0.009	0.479
-710.675	334.835	0.021	-0.041
-709.660	-200.000	-0.039	-0.374
-708.645	-24.663	0.218	0.130
-707.631	401.882	0.022	0.047
-706.616	-14.461	0.199	-0.128
-705.602	274.484	0.145	-0.258
-704.587	235.027	0.101	-0.168
-703.572	77.448	-0.130	0.139
-702.558	-200.000	0.016	0.221
-701.543	800.000	-0.052	0.157
-700.529	-200.000	-0.016	0.339
-699.514	-147.948	-0.254	-0.021
-698.499	-171.385	-0.145	0.005
-697.485	121.104	0.069	0.086
-696.470	721.496	0.119	0.318
-695.456	800.000	0.032	0.126
-694.441	-30.954	-0.170	-0.097
-693.426	800.000	0.070	-0.302
-692.412	800.000	-0.117	0.374
-691.397	20.820	0.126	0.103
-690.383	-77.652	-0.252	0.088
-689.368	-200.000	-0.063	0.323
-688.354	49.414	-0.104	0.098
-687.339	800.000	0.015	-0.064
-686.324	687.073	-0.080	0.209
-685.310	-138.955	-0.324	-0.035
-684.295	163.414	-0.098	0.139
-683.281	-200.000	-0.027	-0.439
-682.266	97.498	-0.208	0.240
-681.251	71.834	-0.242	0.252
-680.237	-97.590	-0.127	0.033
-679.222	-76.759	0.209	0.074
-678.208	-122.622	-0.280	-0.046
-677.193	266.449	-0.175	-0.306
-676.178	21.719	0.180	-0.147
-675.164	367.044	-0.186	-0.377
-674.149	103.828	0.032	0.038
-673.135	-128.159	-0.321	0.046
-672.120	-102.352	-0.346	-0.083
-671.105	-58.655	0.267	0.116
-670.091	162.119	0.190	-0.267
-669.076	380.842	0.043	-0.088
-668.062	-200.000	-0.033	-0.404
-667.047	788.746	-0.090	0.247
-666.032	-99.048	-0.225	-0.057
-665.018	494.687	0.100	0.231
-664.003	2.816	0.098	0.072
-662.989	207.643	0.170	0.266
-661.974	-77.737	0.197	-0.068
-660.959	-119.773	-0.391	-0.068
-659.945	-29.131	0.059	-0.034
-658.930	-30.687	-0.298	0.169
-657.916	-200.000	0.033	0.432
-656.901	48.614	-0.198	-0.187
-655.886	-17.783	0.378	0.238
-654.872	289.080	0.050	-0.090
-653.857	-187.286	-0.307	-0.004
-652.843	800.000	-0.097	-0.270
-651.828	233.416	-0.191	0.315
-650.814	46.764	0.194	0.181
-649.799	119.277	-0.102	-0.127
-648.784	20.530	-0.177	-0.144
-647.770	-115.239	0.281	0.053
-646.755	53.237	-0.268	0.257
-645.741	800.000	0.074	-0.290
-644.726	179.571	-0.157	-0.230
-643.711	239.972	0.061	0.102
-642.697	11.967	-0.123	0.095
-641.682	188.354	0.117	0.176
-640.668	24.498	0.448	0.372
-639.653	-57.727	0.175	0.077
-638.638	-200.000	-0.018	-0.135
-637.624	155.921	-0.034	0.047
-636.609	800.000	-0.020	-0.078
-635.595	-119.089	0.218	0.038
-634.580	492.250	0.163	-0.374
-633.565	-36.265	0.303	0.164
-632.551	97.536	-0.123	0.142
-631.536	-67.073	-0.078	0.031
-630.522	-200.000	0.012	-0.150
-629.507	36.940	-0.195	-0.172
-628.492	246.435	-0.136	0.230
-627.478	-200.000	0.006	0.039
-626.463	800.000	0.040	-0.164
-625.449	-56.680	-0.272	-0.121
-624.434	-132.436	-0.380	-0.049
-623.419	-200.000	0.021	-0.340
-622.405	-200.000	-0.005	0.094
-621.390	-200.000	0.041	0.332
-620.376	95.456	0.161	-0.184
-619.361	800.000	0.010	-0.039
-618.346	800.000	-0.073	-0.252
-617.332	-70.988	-0.194	-0.073
-616.317	51.297	0.296	0.282
-615.303	61.043	-0.135	-0.135
-614.288	270.793	-0.114	-0.202
-613.273	-137.214	0.240	-0.027
-612.259	-143.346	-0.248	-0.024
-611.244	98.716	-0.181	-0.209
-610.230	-167.718	0.236	-0.009
-609.215	-131.589	0.296	0.039
-608.201	800.000	0.058	-0.199
-607.186	-17.263	-0.060	0.038
-606.171	-86.441	0.153	-0.047
-605.157	142.726	0.155	0.207
-604.142	434.745	-0.062	0.134
-603.128	-200.000	0.122	0.000
-602.113	76.038	0.137	0.145
-601.098	-68.082	-0.293	-0.114
-600.084	-200.000	0.020	-0.231
-599.069	422.741	0.106	-0.228
-598.055	-31.845	0.213	-0.119
-597.040	-112.344	0.101	0.020
-596.025	133.168	-0.200	-0.258
-595.011	-200.000	-0.001	-0.149
-593.996	564.397	-0.196	0.476
-592.982	800.000	0.040	0.154
-591.967	-164.127	0.247	-0.011
-590.952	-185.675	0.137	0.002
-589.938	-61.758	0.536	-0.225
-588.923	800.000	0.081	0.340
-587.909	586.745	-0.100	-0.246
-586.894	278.694	-0.229	0.408
-585.879	-200.000	0.026	0.251
-584.865	778.370	-0.043	-0.117
-583.850	-51.840	0.327	-0.152
-582.836	45.540	-0.298	0.275
-581.821	-107.823	-0.150	0.033
-580.806	-130.100	-0.129	-0.018
-579.792	-200.000	-0.035	0.375
-578.777	800.000	0.112	0.465
-577.763	-200.000	0.013	-0.133
-576.748	-38.179	-0.095	-0.050
-575.733	-57.860	-0.197	0.086
-574.719	800.000	0.097	-0.395
-573.704	-200.000	-0.072	-0.321
-572.690	59.026	0.129	0.126
-571.675	-200.000	-0.001	0.204
-570.661	26.356	-0.288	-0.241
-569.646	-123.218	-0.222	0.036
-568.631	-117.636	-0.256	0.046
-567.617	138.421	-0.084	-0.110
-566.602	-135.080	0.177	0.021
-565.588	-124.805	0.050	-0.008
-564.573	104.305	0.199	0.234
-563.558	2.804	-0.240	0.174
-562.544	-108.950	-0.385	-0.082
-561.529	-200.000	0.031	-0.305
-560.515	52.096	0.174	-0.166
-559.500	-121.231	-0.292	0.049
-558.485	-62.410	0.354	0.147
-557.471	97.445	0.048	0.055
-556.456	-200.000	0.083	-0.366
-555.442	188.780	0.061	0.092
-554.427	67.011	-0.086	0.087
-553.412	676.328	0.060	0.157
-552.398	244.497	-0.091	-0.152
-551.383	102.482	0.201	0.234
-550.369	-51.416	-0.232	0.109
-549.354	-61.812	0.453	-0.189
-548.339	33.841	0.221	-0.192
-547.325	-200.000	-0.054	-0.383
-546.310	402.959	0.045	0.094
-545.296	-90.805	0.317	0.091
-544.281	-200.000	0.005	-0.050
-543.266	95.879	-0.082	-0.094
-542.252	-50.449	0.198	0.093
-541.237	-200.000	-0.033	0.202
-540.223	-200.000	0.012	0.110
-539.208	-200.000	-0.017	-0.117
-538.193	-200.000	-0.056	0.330
-537.179	21.345	-0.115	-0.093
-536.164	66.025	0.170	0.172
-535.150	-200.000	0.111	-0.000
-534.135	-30.384	0.282	0.160
-533.121	-115.797	0.023	0.004
-532.106	217.302	-0.177	-0.281
-531.091	800.000	0.080	-0.255
-530.077	167.880	-0.224	-0.318
-529.062	-110.964	-0.362	-0.074
-528.048	-200.000	0.045	-0.330
-527.033	133.847	-0.221	0.286
-526.018	331.028	-0.135	-0.260
-525.004	800.000	-0.062	0.235
-523.989	124.323	-0.159	0.200
-522.975	71.463	-0.093	0.097
-521.960	171.634	0.040	-0.058
-520.945	-200.000	-0.006	0.057
-519.931	-200.000	-0.020	0.242
-518.916	-112.488	-0.036	0.007
-517.902	281.914	0.039	-0.071
-516.887	-50.512	-0.201	-0.095
-515.872	-9.661	-0.225	-0.150
-514.858	90.681	-0.059	0.066
-513.843	-200.000	0.296	0.000
-512.829	44.166	-0.127	-0.117
-511.814	800.000	-0.032	0.107
-510.799	226.792	-0.136	0.221
-509.785	-87.053	0.276	-0.084
-508.770	19.588	-0.030	-0.024
-507.756	-53.538	-0.089	0.041
-506.741	-73.214	-0.275	0.101
-505.726	-61.760	0.214	0.089
-504.712	-121.356	0.355	-0.059
-503.697	9.215	-0.131	-0.099
-502.683	800.000	-0.050	-0.188
-501.668	800.000	0.053	-0.181
-500.653	-200.000	0.108	0.561
-499.639	-87.280	0.028	0.009
-498.624	-200.000	0.032	-0.151
-497.610	178.973	-0.132	0.193
-496.595	-171.915	-0.266	-0.009
-495.581	307.633	0.113	0.210
-494.566	-133.871	-0.278	0.034
-493.551	-200.000	0.016	0.222
-492.537	800.000	0.035	0.152
-491.522	-143.300	-0.340	0.032
-490.508	166.461	-0.129	0.183
-489.493	-67.988	-0.034	-0.013
-488.478	81.075	-0.190	-0.204
-487.464	800.000	0.025	-0.107
-486.449	56.334	0.194	0.188
-485.435	800.000	-0.039	-0.151
-484.420	352.200	-0.102	0.202
-483.405	176.084	0.199	0.288
-482.391	-69.837	-0.183	-0.069
-481.376	12.424	0.165	0.127
-480.362	-93.903	0.051	-0.014
-479.347	-129.292	-0.133	0.018
-478.332	-49.499	0.328	-0.155
-477.318	800.000	-0.132	0.368
-476.303	-200.000	-0.022	0.375
-475.289	234.718	0.128	0.211
-474.274	-200.000	0.008	0.228
-473.259	761.149	-0.076	-0.206
-472.245	13.919	-0.179	0.138
-471.230	-105.987	0.462	-0.104
-470.216	-124.179	-0.269	0.042
-469.201	-146.465	-0.230	0.020
-468.186	-200.000	0.044	-0.272
-467.172	-200.000	0.034	-0.275
-466.157	-134.341	-0.236	-0.029
-465.143	-200.000	-0.017	0.120
-464.128	-84.515	0.181	0.057
-463.113	-152.432	-0.441	0.032
-462.099	800.000	-0.045	0.126
-461.084	-5.222	0.258	0.177
-460.070	-200.000	-0.085	0.384
-459.055	-33.367	-0.235	0.129
-458.040	254.721	-0.128	-0.218
-457.026	-200.000	-0.020	-0.378
-456.011	-115.077	-0.189	-0.036
-454.997	219.971	0.150	-0.240
-453.982	482.004	0.154	-0.348
-452.968	800.000	-0.016	-0.052
-451.953	351.481	-0.126	-0.248
-450.938	-36.363	-0.100	-0.053
-449.924	637.768	0.049	0.124
-448.909	-28.243	0.071	0.041
-447.895	800.000	-0.011	-0.045
-446.880	-153.181	-0.127	0.009
-445.865	91.371	-0.257	-0.287
-444.851	-200.000	0.025	-0.139
-443.836	38.108	-0.079	-0.070
-442.822	399.140	0.167	-0.347
-441.807	-61.569	0.217	-0.091
-440.792	800.000	-0.076	-0.296
-439.778	800.000	-0.056	0.169
-438.763	-62.538	-0.317	0.131
-437.749	-200.000	0.021	-0.191
-436.734	148.128	-0.150	0.201
-435.719	-85.040	0.107	-0.033
-434.705	660.933	0.142	0.364
-433.690	63.547	0.102	-0.102
-432.676	-61.881	0.191	0.079
-431.661	-194.744	0.360	0.003
-430.646	800.000	0.076	0.212
-429.632	45.841	0.158	0.145
-428.617	-200.000	-0.017	-0.175
-427.603	-200.000	0.006	-0.417
-426.588	-2.528	-0.074	-0.051
-425.573	205.045	-0.082	-0.126
-424.559	-102.071	-0.209	-0.050
-423.544	-17.262	0.145	0.091
-422.530	238.767	0.033	0.055
-421.515	125.230	0.054	-0.068
-420.500	-200.000	0.035	-0.465
-419.486	63.306	0.147	0.147
-418.471	-200.000	-0.019	-0.112
-417.457	-48.363	0.228	-0.109
-416.442	62.712	0.033	0.033
-415.428	-98.349	-0.312	0.079
-414.413	80.332	-0.151	-0.161
-413.398	-200.000	-0.022	0.255
-412.384	-55.707	-0.068	-0.030
-411.369	4.095	0.245	0.178
-410.355	800.000	0.108	0.366
-409.340	800.000	0.059	0.257
-408.325	-50.618	-0.269	0.126
-407.311	-45.943	0.295	0.144
-406.296	-46.636	0.229	-0.111
-405.282	-118.897	-0.367	0.064
-404.267	281.519	-0.063	0.113
-403.252	290.294	0.074	0.134
-402.238	-62.304	-0.066	-0.027
-401.223	-200.000	0.018	0.103
-400.209	142.683	-0.153	0.202
-399.194	-107.587	-0.314	-0.068
-398.179	-27.336	-0.248	-0.143
-397.165	26.031	0.095	-0.078
-396.150	61.982	-0.135	-0.134
-395.136	504.803	0.025	0.058
-394.121	314.315	0.202	0.378
-393.106	282.049	-0.196	0.348
-392.092	-189.006	0.172	0.002
-391.077	115.297	0.236	-0.287
-390.063	-77.296	0.081	0.028
-389.048	800.000	0.074	-0.222
-388.033	-200.000	0.041	-0.197
-387.019	-26.167	-0.317	-0.185
-386.004	-1.789	-0.248	0.173
-384.990	-123.091	-0.087	0.014
-383.975	800.000	0.018	0.075
-382.960	74.652	-0.070	-0.073
-381.946	48.190	-0.181	0.168
-380.931	-200.000	0.000	0.273
-379.917	149.923	0.070	-0.095
-378.902	-200.000	0.008	-0.054
-377.888	-122.414	-0.372	-0.060
-376.873	-104.136	0.450	-0.104
-375.858	-200.000	-0.058	-0.320
-374.844	334.443	0.153	-0.294
-373.829	-144.023	-0.179	-0.017
-372.815	-156.852	0.419	-0.026
-371.800	-77.611	-0.262	0.090
-370.785	-200.000	-0.012	-0.093
-369.771	-53.539	0.232	-0.105
-368.756	-43.022	0.302	0.152
-367.742	-155.822	-0.138	0.009
-366.727	-200.000	0.035	-0.167
-365.712	-138.262	-0.186	0.020
-364.698	15.025	0.114	-0.089
-363.683	-160.740	0.161	-0.008
-362.669	304.035	0.092	0.170
-361.654	-74.494	0.276	-0.099
-360.639	-69.471	-0.162	-0.062
-359.625	142.192	-0.061	-0.080
-358.610	34.763	0.158	0.137
-357.596	603.547	-0.058	0.143
-356.581	-200.000	-0.079	0.397
-355.566	-45.394	0.303	0.149
-354.552	800.000	0.082	0.342
-353.537	653.885	0.100	-0.255
-352.523	-153.181	0.280	0.019
-351.508	-178.156	0.120	0.003
-350.493	-200.000	-0.002	-0.408
-349.479	30.786	0.207	0.176
-348.464	-105.655	-0.326	0.073
-347.450	22.767	-0.210	0.171
-346.435	-200.000	-0.010	-0.508
-345.420	-105.936	-0.375	0.084
-344.406	-8.743	-0.127	-0.084
-343.391	209.059	0.078	0.121
-342.377	72.609	0.050	0.052
-341.362	26.758	-0.061	-0.050
-340.348	-152.074	-0.255	0.018
-339.333	-200.000	0.019	0.091
-338.318	47.649	-0.155	0.144
-337.304	800.000	0.077	-0.252
-336.289	-130.275	0.076	0.010
-335.275	-94.432	-0.145	-0.039
-334.260	585.138	0.147	-0.358
-333.245	-200.000	0.017	-0.130
-332.231	800.000	-0.079	-0.270
-331.216	-54.909	0.174	0.078
-330.202	30.157	0.231	-0.195
-329.187	119.525	-0.118	-0.144
-328.172	-200.000	0.014	-0.176
-327.158	-123.158	-0.385	0.061
-326.143	311.073	0.093	-0.173
-325.129	-15.362	-0.061	0.039
-324.114	800.000	0.059	0.216
-323.099	-200.000	0.015	0.076
-322.085	-12.295	-0.178	0.116
-321.070	34.932	-0.044	0.038
-320.056	27.629	0.087	0.072
-319.041	123.676	-0.068	-0.085
-318.026	-102.374	0.335	-0.080
-317.012	-91.121	-0.109	0.031
-315.997	159.378	0.033	-0.045
-314.983	-132.638	-0.142	0.018
-313.968	143.245	0.180	-0.237
-312.953	-13.794	-0.245	0.157
-311.939	-200.000	0.025	0.118
-310.924	22.993	0.368	-0.298
-309.910	-153.180	-0.402	0.028
-308.895	88.771	-0.213	0.234
-307.880	340.645	0.163	0.315
-306.866	-200.000	-0.047	0.387
-305.851	141.166	-0.174	-0.228
-304.837	174.420	0.043	-0.062
-303.822	-200.000	-0.033	0.240
-302.807	13.940	0.081	0.062
-301.793	230.099	0.119	0.193
-300.778	168.444	-0.148	0.209
-299.764	122.916	0.138	0.171
-298.749	800.000	0.087	0.250
-297.735	85.903	-0.225	0.245
-296.720	-194.472	-0.415	-0.003
-295.705	800.000	-0.055	0.172
-294.691	-105.885	0.068	0.015
-293.676	-62.220	-0.105	-0.043
-292.662	-169.870	0.271	0.010
-291.647	101.045	-0.161	0.186
-290.632	339.024	0.127	-0.245
-289.618	-169.733	0.286	0.010
-288.603	113.621	0.179	-0.215
-287.589	445.828	-0.069	0.150
-286.574	-123.263	0.194	-0.031
-285.559	-200.000	0.008	0.113
-284.545	77.985	-0.136	-0.143
-283.530	-148.961	0.236	0.019
-282.516	398.383	0.073	-0.150
-281.501	401.885	-0.047	0.097
-280.486	2.003	-0.344	-0.246
-279.472	-131.314	0.166	0.022
-278.457	395.744	-0.083	-0.171
-277.443	-200.000	0.068	-0.597
-276.428	-17.261	-0.194	-0.121
-275.413	-200.000	-0.016	-0.211
-274.399	239.863	-0.035	-0.058
-273.384	-112.945	-0.338	0.066
-272.370	800.000	0.040	-0.112
-271.355	630.403	-0.155	0.387
-270.340	128.622	0.333	0.420
-269.326	-200.000	0.017	0.304
-268.311	-114.870	-0.246	0.046
-267.297	25.900	-0.191	-0.157
-266.282	116.560	0.205	0.248
-265.267	-119.547	-0.331	-0.057
-264.253	-133.720	-0.255	-0.031
-263.238	-200.000	-0.048	-0.228
-262.224	-3.113	-0.188	0.129
-261.209	312.713	-0.108	-0.200
-260.195	39.592	-0.057	0.050
-259.180	-113.857	0.085	-0.016
-258.165	-159.434	-0.204	0.011
-257.151	-101.940	0.212	-0.051
-256.136	130.037	0.120	0.152
-255.122	-200.000	0.006	-0.165
-254.107	-36.067	0.217	-0.116
-253.092	-200.000	0.023	-0.154
-252.078	386.726	-0.056	-0.114
-251.063	-134.930	0.176	0.021
-250.049	237.738	0.110	0.180
-249.034	266.594	-0.117	-0.202
-248.019	433.196	0.132	-0.283
-247.005	-165.239	-0.270	-0.012
-245.990	46.572	-0.197	-0.180
-244.976	-102.499	0.315	0.074
-243.961	104.788	0.062	-0.073
-242.946	61.615	0.113	0.111
-241.932	-39.322	-0.179	0.093
-240.917	675.357	-0.122	0.314
-239.903	-90.031	0.281	0.081
-238.888	-196.722	-0.161	-0.001
-237.873	-171.328	-0.131	-0.004
-236.859	198.109	0.084	-0.127
-235.844	800.000	-0.099	-0.338
-234.830	-85.931	-0.313	0.095
-233.815	-82.931	0.104	0.033
-232.800	-53.386	0.107	-0.048
-231.786	-107.855	0.242	0.052
-230.771	-93.729	0.209	-0.057
-229.757	-50.212	0.441	0.206
-228.742	-146.730	-0.202	-0.017
-227.727	3.932	0.181	-0.131
-226.713	-149.336	-0.149	0.012
-225.698	800.000	0.124	-0.364
-224.684	-68.269	-0.041	-0.016
-223.669	67.880	0.134	0.135
-222.655	84.633	-0.175	-0.189
-221.640	-2.763	0.199	-0.137
-220.625	-200.000	0.057	-0.319
-219.611	-152.674	-0.283	0.020
-218.596	-25.036	0.078	-0.045
-217.582	-200.000	0.001	0.164
-216.567	96.121	0.217	0.244
-215.552	-200.000	0.013	-0.156
-214.538	256.260	-0.068	-0.115
-213.523	-200.000	0.035	0.333
-212.509	-200.000	-0.046	0.386
-211.494	-200.000	0.039	0.269
-210.479	-126.302	0.277	-0.041
-209.465	-200.000	-0.022	0.134
-208.450	86.076	0.069	0.074
-207.436	-200.000	-0.024	0.220
-206.421	-75.437	-0.485	-0.170
-205.406	356.531	0.123	-0.242
-204.392	-64.140	-0.060	-0.024
-203.377	-200.000	-0.012	-0.205
-202.363	-200.000	0.050	0.220
-201.348	800.000	0.095	-0.404
-200.333	-121.062	0.208	-0.034
-199.319	-72.443	0.285	-0.104
-198.304	-141.631	-0.496	0.049
-197.290	-47.940	0.116	0.055
-196.275	110.911	-0.126	0.149
-195.260	-70.754	0.116	-0.043
-194.246	800.000	0.076	0.224
-193.231	-58.883	-0.428	-0.182
-192.217	-93.179	-0.143	-0.039
-191.202	-5.070	0.216	-0.146
-190.187	-79.475	0.207	0.069
-189.173	-10.026	-0.280	0.183
-188.158	800.000	0.032	-0.086
-187.144	-200.000	-0.067	-0.291
-186.129	-200.000	-0.053	0.269
-185.114	800.000	-0.135	-0.413
-184.100	402.335	0.113	-0.234
-183.085	-200.000	-0.055	-0.252
-182.071	234.468	0.072	0.116
-181.056	-55.834	0.171	-0.075
-180.042	92.915	0.152	-0.169
-179.027	365.197	0.114	-0.226
-178.012	125.741	0.229	0.285
-176.998	-106.761	0.142	0.031
-175.983	-102.387	0.092	0.022
-174.969	191.458	0.071	0.106
-173.954	800.000	-0.148	-0.455
-172.939	-23.758	0.292	0.172
-171.925	-64.926	0.172	-0.069
-170.910	-200.000	-0.025	0.274
-169.896	557.082	0.100	0.236
-168.881	36.979	-0.253	0.220
-167.866	-200.000	-0.078	-0.490
-166.852	-200.000	0.006	0.179
-165.837	435.131	-0.034	0.073
-164.823	380.231	-0.144	0.291
-163.808	437.840	0.078	0.168
-162.793	211.321	0.152	0.235
-161.779	252.589	0.029	-0.049
-160.764	171.144	0.070	0.099
-159.750	-156.220	0.009	0.001
-158.735	800.000	0.034	-0.120
-157.720	72.726	0.176	-0.181
-156.706	-200.000	0.026	-0.141
-155.691	170.567	-0.084	0.119
-154.677	-7.547	0.070	0.047
-153.662	-131.940	0.289	0.037
-152.647	14.210	0.204	0.156
-151.633	-200.000	-0.002	0.258
-150.618	-200.000	0.014	0.065
-149.604	147.773	-0.368	-0.488
-148.589	800.000	0.072	0.203
-147.574	-200.000	0.005	0.041
-146.560	-44.542	-0.170	-0.084
-145.545	670.820	-0.042	-0.107
-144.531	102.318	-0.073	-0.084
-143.516	427.669	0.036	-0.077
-142.502	17.970	-0.305	0.239
-141.487	-8.641	-0.132	-0.087
-140.472	488.121	-0.054	-0.121
-139.458	-200.000	-0.060	0.282
-138.443	-97.127	-0.283	0.073
-137.429	739.177	-0.028	-0.074
-136.414	-163.582	-0.217	-0.010
-135.399	215.551	0.269	0.420
-134.385	800.000	-0.121	0.397
-133.370	28.540	0.418	0.347
-132.356	-84.009	-0.216	0.068
-131.341	-136.461	-0.157	-0.018
-130.326	-4.935	0.213	-0.144
-129.312	-4.551	0.192	0.130
-128.297	-200.000	0.007	0.190
-127.283	-200.000	0.006	-0.068
-126.268	183.638	-0.110	0.159
-125.253	-36.171	0.096	0.051
-124.239	38.687	0.044	-0.038
-123.224	18.568	0.205	-0.161
-122.210	639.282	0.059	-0.148
-121.195	242.030	0.130	0.213
-120.180	-54.625	-0.123	-0.055
-119.166	-164.738	0.044	-0.002
-118.151	177.517	-0.103	0.147
-117.137	435.783	-0.009	0.019
-116.122	-200.000	0.054	-0.425
-115.107	-153.833	0.040	-0.003
-114.093	-73.767	-0.405	-0.144
-113.078	-171.518	0.046	-0.002
-112.064	-40.413	-0.015	0.008
-111.049	111.499	-0.289	-0.342
-110.034	330.193	-0.166	-0.314
-109.020	52.513	0.120	0.112
-108.005	-97.044	-0.292	-0.075
-106.991	271.264	0.034	-0.060
-105.976	-9.767	0.311	0.203
-104.962	-58.028	0.212	0.091
-103.947	-94.979	0.250	0.066
-102.932	-53.962	0.236	0.106
-101.918	-200.000	-0.006	-0.038
-100.903	-200.000	0.039	0.240
-99.889	-81.979	-0.239	0.077
-98.874	-59.426	-0.175	-0.074
-97.859	723.090	0.066	-0.173
-96.845	247.191	-0.036	0.059
-95.830	11.962	0.100	-0.076
-94.816	181.221	-0.168	-0.243
-93.801	800.000	-0.077	-0.237
-92.786	-45.574	0.170	0.083
-91.772	193.559	0.153	0.227
-90.757	138.977	-0.144	0.185
-89.743	134.840	0.175	0.223
-88.728	0.872	0.243	-0.171
-87.713	-87.102	-0.176	0.052
-86.699	-200.000	-0.017	0.328
-85.684	800.000	-0.104	0.316
-84.670	800.000	0.085	0.326
-83.655	274.430	0.112	0.195
-82.640	-87.182	0.200	0.060
-81.626	-86.064	-0.234	0.071
-80.611	-200.000	0.025	-0.165
-79.597	-12.981	-0.079	0.050
-78.582	81.706	0.127	0.134
-77.567	278.938	-0.146	0.255
-76.553	1.155	0.233	0.164
-75.538	-8.951	0.192	0.126
-74.524	279.984	0.105	0.184
-73.509	-200.000	0.012	0.058
-72.494	-135.776	-0.197	-0.023
-71.480	28.831	0.266	-0.221
-70.465	483.360	-0.114	0.253
-69.451	-93.394	-0.029	0.008
-68.436	800.000	-0.090	-0.251
-67.422	800.000	-0.022	0.070
-66.407	-27.355	0.306	0.175
-65.392	-150.501	0.322	0.024
-64.378	247.554	-0.141	-0.234
-63.363	-131.203	-0.344	0.045
-62.349	-108.422	0.141	-0.030
-61.334	61.159	-1.039	-1.011
-60.319	90.417	0.383	0.420
-59.305	400.970	-0.477	-0.981
-58.290	172.527	0.723	1.019
-57.276	710.008	0.688	1.783
-56.261	-200.000	106.313	616.945
-55.246	514.247	1509.940	3451.009
-54.232	176.259	2703.195	3846.005
-53.217	110.169	2185.997	2570.904
-52.203	39.962	1706.580	1501.366
-51.188	32.435	1517.900	1284.200
-50.173	29.898	1491.938	1245.141
-49.159	51.240	1547.140	1438.021
-48.144	51.320	1564.033	1454.215
-47.130	32.619	1519.555	1286.651
-46.115	29.572	1504.661	1253.349
-45.100	29.326	1501.344	1248.867
-44.086	29.342	1498.973	1246.953
-43.071	29.222	1497.024	1244.472
-42.057	29.164	1495.466	1242.740
-41.042	29.236	1494.446	1242.325
-40.027	29.264	1492.733	1241.042
-39.013	29.289	1490.872	1239.615
-37.998	29.210	1489.605	1237.981
-36.984	29.264	1488.730	1237.564
-35.969	29.260	1487.317	1236.316
-34.954	29.177	1486.045	1234.654
-33.940	29.237	1484.372	1233.613
-32.925	29.295	1483.105	1232.902
-31.911	29.296	1481.673	1231.671
-30.896	29.304	1480.498	1230.700
-29.881	29.352	1479.412	1230.068
-28.867	29.292	1478.111	1228.534
-27.852	29.332	1476.382	1227.314
-26.838	29.248	1475.456	1225.937
-25.823	29.317	1473.677	1224.868
-24.809	29.403	1471.700	1223.747
-23.794	29.307	1470.647	1222.189
-22.779	29.335	1469.575	1221.434
-21.765	29.327	1468.864	1220.745
-20.750	29.259	1467.368	1219.004
-19.736	29.231	1466.374	1217.940
-18.721	29.290	1465.050	1217.185
-17.706	29.274	1463.989	1216.150
-16.692	29.215	1463.049	1214.928
-15.677	29.192	1462.086	1213.927
-14.663	29.276	1460.741	1213.317
-13.648	29.187	1460.389	1212.390
-12.633	29.291	1458.679	1211.609
-11.619	29.215	1458.193	1210.654
-10.604	29.294	1457.140	1210.255
-9.590	29.237	1456.530	1209.327
-8.575	29.363	1455.111	1208.922
-7.560	29.199	1454.734	1207.485
-6.546	29.265	1453.563	1206.901
-5.531	29.236	1453.066	1206.247
-4.517	29.156	1452.175	1204.938
-3.502	29.192	1451.422	1204.499
-2.487	29.200	1450.418	1203.673
-1.473	29.209	1449.168	1202.646
-0.458	29.190	1447.973	1201.483
0.556	26.932	1438.459	1190.925
1.571	24.096	1413.224	1151.613
2.586	20.903	1354.683	1083.981
3.600	19.605	1273.950	1011.695
4.615	18.566	1229.724	970.608
5.629	16.334	1174.373	914.762
6.644	8.041	1091.306	808.081
7.659	1.012	1050.792	743.599
8.673	-0.083	1045.166	734.204
9.688	-0.272	1042.029	731.011
10.702	-0.474	1040.131	728.633
11.717	-0.380	1038.256	727.712
12.731	2.964	1041.856	746.438
13.746	11.825	1054.334	798.717
14.761	18.552	1063.010	838.211
15.775	20.326	1064.919	848.320
16.790	20.473	1064.529	848.656
17.804	20.529	1063.288	847.865
18.819	20.208	1062.966	845.966
19.834	20.299	1062.260	845.772
20.848	20.322	1061.912	845.530
21.863	20.435	1061.656	845.803
22.877	20.525	1060.865	845.535
23.892	20.397	1060.074	844.208
24.907	20.325	1059.332	843.195
25.921	20.353	1058.645	842.707
26.936	20.408	1057.557	842.036
27.950	20.320	1056.604	840.776
28.965	20.438	1055.403	840.314
29.980	20.326	1053.859	838.470
30.994	20.384	1052.178	837.340
32.009	20.462	1051.471	837.080
33.023	20.632	1050.479	837.033
34.038	20.404	1049.445	835.038
35.053	20.269	1048.625	833.664
36.067	20.468	1047.946	834.008
37.082	20.439	1047.683	833.584
38.096	20.539	1046.624	833.148
39.111	20.707	1045.644	833.095
40.126	20.700	1044.711	832.247
41.140	20.680	1043.259	830.919
42.155	20.365	1042.111	828.429
43.169	20.088	1040.745	825.951
44.184	20.038	1040.269	825.264
45.199	20.155	1038.870	824.634
46.213	20.030	1037.782	823.105
47.228	20.106	1037.143	822.888
48.242	20.259	1035.793	822.466
49.257	20.299	1035.119	822.048
50.271	20.349	1034.413	821.652
51.286	20.516	1033.655	821.767
52.301	20.494	1033.171	821.206
53.315	20.484	1031.951	820.115
54.330	20.430	1031.456	819.394
55.344	20.385	1030.641	818.462
56.359	20.471	1029.229	817.676
57.374	20.422	1028.333	816.658
58.388	20.300	1027.498	815.350
59.403	20.296	1026.416	814.400
60.417	20.278	1025.870	813.813
61.432	20.175	1024.763	812.380
62.447	20.018	1024.544	811.400
63.461	20.287	1023.981	812.138
64.476	20.363	1022.862	811.536
65.490	20.158	1022.217	809.997
66.505	20.110	1021.097	808.810
67.520	20.090	1020.763	808.381
68.534	20.221	1019.727	808.102
69.549	20.131	1018.707	806.804
70.563	19.901	1017.208	804.473
71.578	19.836	1016.341	803.416
72.593	19.924	1015.274	802.910
73.607	19.682	1014.115	800.803
74.622	19.689	1013.564	800.328
75.636	20.018	1012.622	801.035
76.651	20.092	1012.051	800.854
77.666	20.009	1011.018	799.582
78.680	19.902	1010.009	798.221
79.695	19.833	1009.778	797.650
80.709	19.948	1009.572	797.947
81.724	20.014	1008.390	797.245
82.739	20.030	1007.409	796.474
83.753	20.123	1006.120	795.809
84.768	20.331	1005.816	796.454
85.782	20.445	1005.267	796.472
86.797	20.719	1004.155	796.776
87.812	20.818	1003.286	796.466
88.826	20.559	1002.388	794.501
89.841	20.435	1002.113	793.643
90.855	20.632	1000.546	793.231
91.870	20.695	999.698	792.778
92.884	20.636	999.016	791.898
93.899	20.518	998.395	790.796
94.914	20.483	996.986	789.452
95.928	20.610	996.279	789.399
96.943	20.727	995.638	789.352
97.957	20.463	994.432	787.132
98.972	20.296	993.012	785.182
99.987	19.852	992.258	782.508
101.001	20.012	991.281	782.390
102.016	20.298	991.024	783.409
103.030	20.397	990.145	783.093
104.045	20.346	988.904	781.813
105.060	20.206	987.405	779.931
106.074	20.031	986.011	777.972
107.089	20.160	985.714	778.250
108.103	20.432	985.176	778.975
109.118	20.514	984.376	778.640
110.133	20.229	983.579	776.667
111.147	20.274	982.302	775.790
112.162	20.036	981.446	773.984
113.176	19.954	979.705	772.178
114.191	19.933	979.299	771.692
115.206	20.150	978.065	771.618
116.220	19.842	976.844	769.216
117.235	19.694	976.196	767.983
118.249	19.921	975.522	768.391
119.264	20.034	973.984	767.613
120.279	19.872	973.517	766.462
121.293	19.761	972.884	765.400
122.308	19.768	972.506	765.066
123.322	19.898	971.268	764.601
124.337	19.873	970.174	763.562
125.352	19.858	968.997	762.502
126.366	19.455	966.561	758.744
127.381	19.103	965.957	756.659
128.395	19.694	965.228	758.614
129.410	20.228	965.094	760.786
130.424	20.312	964.370	760.515
131.439	20.326	963.091	759.499
132.454	20.385	961.471	758.411
133.468	20.364	961.076	757.943
134.483	20.164	960.508	756.555
135.497	20.341	959.360	756.355
136.512	20.541	958.819	756.733
137.527	20.665	958.227	756.737
138.541	20.549	957.369	755.491
139.556	20.494	957.086	754.960
140.570	20.569	955.937	754.310
141.585	20.488	954.824	753.017
142.600	20.498	954.152	752.463
143.614	20.439	952.844	751.111
144.629	20.499	952.672	751.166
145.643	20.755	951.586	751.350
146.658	20.783	950.668	750.679
147.673	20.689	949.315	749.140
148.687	20.637	947.940	747.765
149.702	20.390	947.132	745.998
150.716	20.281	946.527	744.988
151.731	20.504	945.060	744.724
152.746	20.384	944.415	743.635
153.760	20.684	944.183	744.673
154.775	20.743	943.059	743.971
155.789	20.830	942.176	743.581
156.804	20.729	940.948	742.115
157.819	20.707	940.139	741.319
158.833	20.715	939.668	740.917
159.848	20.833	938.651	740.550
160.862	20.885	937.872	740.091
161.877	20.737	936.825	738.571
162.892	20.722	935.898	737.711
163.906	20.881	935.460	737.973
164.921	20.836	934.512	736.969
165.935	20.582	933.338	734.904
166.950	20.848	932.432	735.252
167.964	20.858	931.646	734.608
168.979	20.722	930.402	732.989
169.994	20.661	929.247	731.757
171.008	20.551	928.636	730.750
172.023	20.689	927.829	730.629
173.037	20.747	926.909	730.082
174.052	20.564	925.832	728.403
175.067	20.502	924.398	726.953
176.081	20.360	924.235	726.168
177.096	20.598	923.381	726.424
178.110	20.618	922.431	725.695
179.125	20.420	920.936	723.632
180.140	20.008	920.573	721.567
181.154	20.111	919.983	721.470
182.169	20.207	919.480	721.408
183.183	20.394	919.156	721.871
184.198	20.659	918.502	722.391
185.213	20.655	917.444	721.479
186.227	20.580	916.996	720.753
187.242	20.723	916.632	720.995
188.256	20.666	915.616	719.896
189.271	20.802	914.550	719.556
190.286	20.747	914.106	718.915
191.300	20.646	913.288	717.794
192.315	20.131	912.250	714.790
193.329	19.523	910.439	710.805
194.344	19.195	909.275	708.485
195.359	19.725	909.455	710.744
196.373	20.574	909.729	714.383
197.388	20.813	909.378	715.027
198.402	20.638	908.842	713.822
199.417	20.525	908.349	712.909
200.432	20.592	907.607	712.538
201.446	20.532	906.588	711.429
202.461	20.127	906.276	709.464
203.475	20.237	905.472	709.223
204.490	19.596	904.516	705.793
205.504	18.692	902.063	700.132
206.519	19.243	902.075	702.322
207.534	20.236	902.094	706.323
208.548	20.161	901.819	705.740
209.563	20.559	901.457	707.013
210.577	20.572	900.669	706.385
211.592	20.292	900.037	704.688
212.607	20.513	900.177	705.636
213.621	20.865	899.096	706.151
214.636	20.727	898.794	705.292
215.650	20.836	897.913	704.981
216.665	20.744	897.320	704.080
217.680	20.771	896.761	703.690
218.694	20.820	896.540	703.649
219.709	20.525	895.177	701.331
220.723	20.136	894.845	699.438
221.738	20.326	894.310	699.723
222.753	20.640	893.702	700.449
223.767	20.527	892.904	699.307
224.782	20.706	891.991	699.249
225.796	20.785	891.319	698.979
226.811	20.826	891.180	698.971
227.826	20.443	889.971	696.427
228.840	19.747	888.360	692.319
229.855	19.733	887.984	691.908
230.869	19.928	887.468	692.226
231.884	19.469	886.691	689.722
232.899	19.690	885.939	689.959
233.913	20.518	886.160	693.377
234.928	20.671	885.656	693.530
235.942	20.491	884.967	692.214
236.957	20.556	884.343	691.921
237.972	20.347	883.083	690.046
238.986	20.213	882.253	688.804
240.001	20.395	882.264	689.471
241.015	20.376	881.279	688.569
242.030	20.339	880.923	688.081
243.045	20.620	880.222	688.584
244.059	20.632	879.827	688.262
245.074	20.847	879.167	688.536
246.088	20.756	878.375	687.493
247.103	20.354	877.325	685.027
248.117	20.379	876.912	684.742
249.132	21.095	876.551	687.222
250.147	21.242	876.516	687.710
251.161	21.149	876.052	686.921
252.176	21.360	875.705	687.418
253.190	21.387	874.540	686.549
254.205	21.456	874.366	686.620
255.220	21.737	873.477	686.963
256.234	21.651	872.632	685.902
257.249	21.529	872.189	685.016
258.263	21.247	871.720	683.482
259.278	21.327	871.063	683.221
260.293	21.497	870.648	683.499
261.307	21.485	870.210	683.046
262.322	21.195	869.729	681.476
263.336	21.150	869.010	680.677
264.351	20.800	867.314	677.926
265.366	19.817	865.264	672.444
266.380	19.453	863.968	669.964
267.395	20.247	864.454	673.367
268.409	21.054	864.528	676.495
269.424	20.986	863.921	675.698
270.439	21.152	863.710	676.117
271.453	21.198	863.258	675.880
272.468	21.143	862.491	675.009
273.482	21.415	862.413	675.937
274.497	21.746	861.251	676.247
275.512	21.453	860.506	674.469
276.526	20.684	859.271	670.481
277.541	20.966	858.649	671.022
278.555	21.321	858.574	672.270
279.570	21.251	857.399	671.020
280.585	21.185	856.342	669.883
281.599	21.038	856.421	669.319
282.614	21.177	856.175	669.603
283.628	20.803	854.644	666.914
284.643	20.463	854.089	665.120
285.657	20.857	854.116	666.589
286.672	20.603	853.188	664.836
287.687	20.274	852.077	662.654
288.701	20.671	851.970	664.029
289.716	20.906	851.847	664.771
290.730	20.612	850.971	662.907
291.745	20.496	850.199	661.805
292.760	20.371	848.900	660.261
293.774	20.329	848.458	659.700
294.789	21.058	849.290	663.059
295.803	21.844	849.057	665.805
296.818	21.849	848.434	665.276
297.833	21.786	848.102	664.718
298.847	21.618	846.665	662.895
299.862	21.355	845.750	661.128
300.876	21.479	845.339	661.215
301.891	21.779	845.070	662.079
302.906	21.725	844.715	661.539
303.920	21.368	843.080	658.855
304.935	21.432	842.377	658.488
305.949	21.613	842.321	659.067
306.964	21.786	841.823	659.272
307.979	21.685	841.097	658.266
308.993	21.651	840.584	657.679
310.008	21.692	840.708	657.871
311.022	22.034	839.891	658.454
312.037	21.726	839.578	656.996
313.052	21.420	838.863	655.233
314.066	21.494	837.878	654.681
315.081	20.959	836.437	651.500
316.095	20.172	835.201	647.542
317.110	20.686	835.448	649.595
318.125	21.532	835.546	652.771
319.139	21.113	834.884	650.635
320.154	20.025	832.797	644.901
321.168	19.598	832.053	642.678
322.183	20.393	832.070	645.594
323.197	21.062	833.003	648.748
324.212	21.324	832.750	649.467
325.227	21.385	831.914	648.985
326.241	21.700	831.691	649.923
327.256	21.512	830.841	648.503
328.270	21.536	830.030	647.903
329.285	21.379	829.566	646.902
330.300	21.425	828.662	646.309
331.314	20.955	828.367	644.285
332.329	21.102	827.578	644.158
333.343	21.402	827.216	644.926
334.358	21.584	826.627	645.079
335.373	21.556	826.066	644.482
336.387	21.766	825.466	644.727
337.402	21.959	825.123	645.114
338.416	22.135	824.921	645.547
339.431	22.091	824.087	644.674
340.446	22.082	823.470	644.102
341.460	22.345	823.237	644.827
342.475	22.199	822.839	643.922
343.489	21.935	821.687	641.999
344.504	21.917	821.485	641.717
345.519	22.166	821.212	642.359
346.533	22.294	821.064	642.652
347.548	22.400	820.522	642.561
348.562	22.593	819.929	642.742
349.577	22.583	819.289	642.146
350.592	22.396	818.555	640.836
351.606	22.458	818.160	640.693
352.621	22.444	817.525	640.090
353.635	22.279	817.046	639.059
354.650	22.245	816.380	638.355
355.665	21.916	815.430	636.365
356.679	20.769	813.974	631.018
357.694	20.865	813.455	630.905
358.708	21.508	813.632	633.318
359.723	21.358	812.989	632.216
360.738	21.627	812.479	632.737
361.752	21.930	812.616	633.880
362.767	21.997	812.213	633.754
363.781	22.308	811.943	634.608
364.796	22.794	811.436	635.907
365.810	22.695	811.338	635.417
366.825	22.859	810.806	635.537
367.840	22.887	810.369	635.239
368.854	22.661	809.651	633.806
369.869	22.371	808.626	631.908
370.883	22.199	808.168	630.875
371.898	22.134	808.094	630.528
372.913	22.173	806.969	629.734
373.927	21.918	806.436	628.350
374.942	22.143	805.723	628.546
375.956	22.508	805.481	629.604
376.971	22.468	804.907	628.958
377.986	22.506	804.387	628.631
379.000	22.728	803.820	628.925
380.015	22.756	803.326	628.581
381.029	22.530	803.221	627.640
382.044	22.591	802.288	627.072
383.059	22.588	802.282	627.001
384.073	22.663	801.555	626.644
385.088	22.754	801.053	626.518
386.102	22.885	800.054	626.148
387.117	22.652	799.480	624.817
388.132	22.460	799.028	623.726
389.146	22.315	798.752	622.942
390.161	21.769	797.533	620.008
391.175	21.848	797.291	620.043
392.190	22.443	796.955	621.829
393.205	22.461	796.383	621.390
394.219	21.598	794.719	616.997
395.234	19.880	793.027	609.585
396.248	19.134	791.837	605.990
397.263	20.376	792.657	610.936
398.278	22.161	794.097	618.278
399.292	22.451	793.769	618.986
400.307	22.116	793.169	617.286
401.321	22.119	792.761	616.925
402.336	22.136	792.457	616.696
403.350	22.392	792.754	617.770
404.365	22.752	792.582	618.844
405.380	23.315	791.717	620.086
406.394	23.467	791.829	620.650
407.409	23.386	791.369	619.952
408.423	23.451	790.917	619.769
409.438	23.412	789.650	618.588
410.453	23.517	789.091	618.460
411.467	23.484	789.219	618.391
412.482	23.397	788.977	617.844
413.496	23.287	788.191	616.788
414.511	23.467	787.965	617.183
415.526	23.436	787.402	616.582
416.540	23.401	787.302	616.326
417.555	23.269	787.027	615.597
418.569	23.138	785.777	614.111
419.584	23.102	785.155	613.445
420.599	23.118	785.046	613.362
421.613	157.981	1364.290	1799.818
422.628	136.663	1448.656	1799.896
