DTS Sentinel unit serial number:	SN413079Multiplexer serial number:	ORYXHardware model number:	OX4-SRSoftware version number:	ORYX F/W v4.00 Oryx Data Collector v3.7.2.0data status	okinstallation	princeton_trtdifferential loss correction	single-endedforward channel	channel 3reverse channel	N/Adate	2019/09/12time	07:38:10forward acquisition time	60.00reverse acquisition time	0.00gamma	496.2192k internal	0.2316k external	0.2316temperature offset calibration	1.0029default loss term (dB/km)	0.3790temperature slope calibration	1.0000multiplexer offset coefficient	1.0000multiplexer slope coefficient	1.0000fibre end	0.00T internal ref (°C)	32.67T ext. ref 1 (°C)	1.64T ext. ref 2 (°C)	29.20length (m)	temperature (°C)	Stokes	anti-Stokes-747.200	-200.000	0.052	-0.439
-746.185	-58.810	-0.341	0.150
-745.171	-20.029	-0.223	0.139
-744.156	-117.820	-0.301	0.055
-743.142	-53.833	0.283	0.131
-742.127	13.977	-0.058	0.046
-741.112	47.499	-0.049	-0.046
-740.098	800.000	-0.126	0.535
-739.083	-200.000	0.000	-0.215
-738.069	-200.000	0.012	0.290
-737.054	157.991	-0.063	-0.089
-736.039	-16.693	-0.152	-0.098
-735.025	-5.714	-0.184	0.128
-734.010	239.873	-0.190	-0.321
-732.996	-54.036	0.131	-0.061
-731.981	412.877	-0.099	-0.213
-730.966	550.813	-0.034	0.082
-729.952	-141.710	0.289	0.029
-728.937	266.273	0.049	-0.087
-727.923	-46.860	-0.175	-0.086
-726.908	-19.851	0.121	-0.076
-725.894	-59.728	0.224	0.097
-724.879	318.088	-0.177	-0.338
-723.864	610.683	0.082	-0.208
-722.850	800.000	-0.050	0.143
-721.835	-80.687	-0.154	-0.052
-720.821	519.848	-0.113	0.269
-719.806	540.497	-0.046	0.110
-718.791	-9.252	-0.135	0.091
-717.777	140.392	-0.080	-0.107
-716.762	-123.480	-0.222	0.036
-715.748	-200.000	0.011	-0.112
-714.733	-124.495	0.200	-0.031
-713.718	254.416	0.191	-0.330
-712.704	-147.411	0.187	0.016
-711.689	533.153	0.098	-0.235
-710.675	-64.635	-0.454	-0.186
-709.660	48.574	0.202	-0.191
-708.645	-25.740	0.257	0.153
-707.631	-70.766	-0.536	0.205
-706.616	-26.561	-0.264	-0.156
-705.602	61.529	0.057	-0.058
-704.587	-200.000	0.002	-0.234
-703.572	-200.000	0.024	-0.196
-702.558	367.329	-0.117	-0.239
-701.543	-110.173	0.493	0.104
-700.529	-200.000	0.053	0.240
-699.514	800.000	-0.126	-0.551
-698.499	205.472	0.160	-0.251
-697.485	93.862	0.197	-0.226
-696.470	-200.000	-0.003	-0.034
-695.456	-53.912	-0.188	-0.087
-694.441	-45.369	0.266	-0.133
-693.426	71.256	-0.239	0.250
-692.412	114.201	0.145	-0.179
-691.397	-200.000	-0.030	-0.396
-690.383	97.014	-0.015	0.018
-689.368	800.000	0.033	0.140
-688.354	-200.000	-0.019	0.125
-687.339	-163.191	-0.320	-0.016
-686.324	-70.828	-0.183	-0.070
-685.310	-200.000	0.027	0.197
-684.295	132.835	0.186	0.242
-683.281	-81.893	0.160	0.053
-682.266	-164.626	0.149	0.007
-681.251	79.812	0.162	-0.176
-680.237	-72.568	-0.387	-0.144
-679.222	800.000	-0.033	-0.108
-678.208	770.663	0.020	0.056
-677.193	102.962	-0.018	-0.021
-676.178	-54.448	-0.169	-0.077
-675.164	-17.639	0.276	-0.175
-674.149	300.738	-0.126	-0.234
-673.135	-86.169	-0.155	0.048
-672.120	-200.000	0.006	0.159
-671.105	23.471	-0.246	-0.204
-670.091	-135.687	-0.080	0.010
-669.076	-200.000	0.041	-0.298
-668.062	-131.244	0.123	0.016
-667.047	311.475	-0.151	-0.286
-666.032	74.030	-0.240	-0.254
-665.018	1.881	0.026	0.019
-664.003	722.120	0.106	-0.284
-662.989	-78.523	-0.178	-0.062
-661.974	-1.914	-0.166	0.118
-660.959	-153.917	-0.217	-0.015
-659.945	-200.000	-0.066	0.476
-658.930	200.966	0.160	0.249
-657.916	245.025	-0.162	-0.275
-656.901	29.343	0.244	-0.209
-655.886	-50.715	0.382	-0.182
-654.872	-92.998	0.144	-0.040
-653.857	-144.556	-0.363	-0.034
-652.843	-77.001	0.133	-0.047
-651.828	152.847	-0.088	-0.122
-650.814	-73.457	0.078	-0.029
-649.799	800.000	0.128	0.370
-648.784	-200.000	-0.019	0.221
-647.770	-200.000	0.017	-0.193
-646.755	-152.997	-0.321	-0.023
-645.741	-123.897	-0.011	0.002
-644.726	-142.562	-0.223	0.022
-643.711	-133.468	0.193	-0.024
-642.697	-200.000	0.421	-0.001
-641.682	-200.000	0.037	-0.257
-640.668	-156.373	0.169	0.011
-639.653	-72.509	-0.020	0.008
-638.638	800.000	-0.036	-0.112
-637.624	-95.680	0.228	-0.061
-636.609	-75.255	-0.180	-0.065
-635.595	-31.609	-0.058	-0.033
-634.580	800.000	-0.038	0.113
-633.565	43.410	0.141	-0.130
-632.551	800.000	-0.095	-0.338
-631.536	-119.454	0.057	-0.010
-630.522	-123.557	-0.103	-0.016
-629.507	800.000	-0.089	-0.291
-628.492	-44.204	0.247	0.125
-627.478	-2.532	-0.322	-0.227
-626.463	-200.000	-0.015	0.146
-625.449	-78.933	-0.209	0.072
-624.434	-151.978	-0.423	-0.031
-623.419	795.806	-0.033	0.091
-622.405	-200.000	0.029	0.503
-621.390	-200.000	-0.010	0.145
-620.376	86.678	0.160	0.178
-619.361	-18.987	0.185	-0.116
-618.346	254.659	-0.092	-0.159
-617.332	-200.000	0.049	-0.314
-616.317	446.251	0.021	-0.046
-615.303	800.000	0.098	0.296
-614.288	800.000	-0.070	0.299
-613.273	96.307	-0.200	-0.230
-612.259	-43.532	-0.376	-0.191
-611.244	-200.000	-0.033	0.186
-610.230	-200.000	-0.058	-0.367
-609.215	-122.363	0.146	-0.024
-608.201	-144.879	-0.082	-0.008
-607.186	-112.225	-0.234	-0.047
-606.171	441.002	-0.083	0.183
-605.157	-100.898	0.430	0.107
-604.142	-200.000	0.013	-0.075
-603.128	-51.590	-0.179	-0.084
-602.113	-200.000	-0.029	0.280
-601.098	21.585	0.252	0.206
-600.084	-95.415	0.039	0.011
-599.069	269.343	-0.131	-0.232
-598.055	-90.592	-0.090	-0.026
-597.040	-39.839	0.110	-0.058
-596.025	-200.000	0.042	0.332
-595.011	32.886	-0.122	0.107
-593.996	-115.948	-0.277	0.052
-592.982	6.069	-0.269	0.200
-591.967	-18.946	-0.171	-0.107
-590.952	-55.805	-0.641	0.288
-589.938	-200.000	0.012	-0.066
-588.923	-200.000	-0.020	0.424
-587.909	-159.488	-0.177	-0.010
-586.894	-195.403	-0.315	0.002
-585.879	583.161	0.147	0.362
-584.865	-200.000	0.044	-0.224
-583.850	78.601	0.081	0.087
-582.836	-200.000	-0.027	0.129
-581.821	-27.602	-0.105	0.061
-580.806	-200.000	-0.012	0.114
-579.792	-85.331	0.056	-0.017
-578.777	156.506	0.064	0.089
-577.763	-96.198	-0.402	0.107
-576.748	-200.000	0.038	-0.381
-575.733	-200.000	-0.043	0.200
-574.719	259.124	-0.127	-0.220
-573.704	84.571	0.181	0.199
-572.690	-200.000	-0.021	-0.216
-571.675	-1.682	0.136	0.097
-570.661	255.322	-0.077	-0.133
-569.646	-37.780	-0.175	0.094
-568.631	-34.700	-0.171	-0.094
-567.617	63.141	-0.029	0.029
-566.602	-200.000	0.006	-0.113
-565.588	-110.899	-0.254	-0.053
-564.573	108.715	0.239	-0.287
-563.558	-200.000	0.009	-0.091
-562.544	172.469	-0.135	-0.196
-561.529	664.130	0.191	-0.495
-560.515	-1.369	0.272	0.193
-559.500	-31.779	0.540	0.305
-558.485	35.728	-0.105	0.093
-557.471	-91.761	-0.371	0.106
-556.456	-86.811	-0.040	-0.012
-555.442	-130.000	-0.128	-0.018
-554.427	341.143	0.161	0.316
-553.412	-16.226	-0.242	-0.155
-552.398	72.974	-0.133	0.140
-551.383	-125.724	0.264	0.040
-550.369	-27.141	0.156	-0.092
-549.354	800.000	0.048	0.144
-548.339	800.000	-0.108	-0.316
-547.325	3.907	0.035	0.026
-546.310	-59.592	0.130	0.056
-545.296	-43.721	-0.279	0.141
-544.281	72.256	0.033	-0.035
-543.266	-37.097	0.131	0.071
-542.252	89.219	0.191	0.214
-541.237	-200.000	0.008	-0.168
-540.223	117.923	-0.117	0.145
-539.208	-200.000	0.032	-0.281
-538.193	147.731	-0.335	-0.453
-537.179	54.701	0.094	0.091
-536.164	39.867	0.184	-0.166
-535.150	11.767	-0.145	-0.112
-534.135	64.073	0.021	-0.021
-533.121	-200.000	0.008	0.232
-532.106	-137.067	0.137	0.016
-531.091	54.715	0.056	-0.054
-530.077	-143.234	-0.046	-0.004
-529.062	191.090	0.271	-0.409
-528.048	-53.834	-0.363	-0.166
-527.033	133.948	-0.105	-0.137
-526.018	96.214	0.040	0.046
-525.004	34.888	-0.290	0.255
-523.989	800.000	-0.074	-0.309
-522.975	325.026	-0.229	-0.441
-521.960	168.545	0.025	-0.036
-520.945	97.547	0.345	-0.399
-519.931	-200.000	-0.008	-0.087
-518.916	-85.196	-0.264	-0.083
-517.902	-96.940	0.329	-0.087
-516.887	-31.190	-0.140	-0.079
-515.872	143.741	-0.094	-0.125
-514.858	-200.000	-0.045	-0.215
-513.843	299.490	0.161	-0.297
-512.829	800.000	0.056	-0.199
-511.814	-103.039	0.136	0.032
-510.799	-92.933	-0.293	0.082
-509.785	-200.000	0.027	-0.127
-508.770	-200.000	0.069	-0.322
-507.756	-10.840	-0.239	0.159
-506.741	44.870	0.396	0.366
-505.726	-107.373	0.348	0.077
-504.712	-130.951	-0.296	0.040
-503.697	-33.007	-0.222	0.124
-502.683	-200.000	0.006	0.071
-501.668	-200.000	0.001	0.024
-500.653	-150.777	-0.115	-0.009
-499.639	-184.284	-0.109	-0.002
-498.624	-200.000	-0.091	-0.420
-497.610	-52.931	-0.208	-0.096
-496.595	-142.494	0.153	-0.015
-495.581	-200.000	0.003	0.220
-494.566	76.324	0.176	-0.187
-493.551	-161.308	-0.313	0.016
-492.537	-90.889	0.090	0.026
-491.522	800.000	0.014	0.062
-490.508	-200.000	0.003	-0.202
-489.493	98.392	0.142	0.164
-488.478	127.320	-0.094	-0.120
-487.464	74.319	0.130	0.137
-486.449	800.000	0.035	-0.107
-485.435	81.629	0.215	-0.234
-484.420	800.000	-0.025	-0.097
-483.405	-146.099	0.221	0.020
-482.391	250.810	-0.018	0.031
-481.376	-48.495	-0.396	-0.191
-480.362	269.700	-0.041	-0.072
-479.347	8.033	-0.085	0.064
-478.332	-41.202	0.196	-0.101
-477.318	311.130	-0.101	-0.190
-476.303	-104.276	-0.143	0.033
-475.289	800.000	-0.080	0.305
-474.274	-200.000	-0.028	-0.226
-473.259	719.737	-0.011	0.029
-472.245	153.820	-0.198	0.272
-471.230	718.093	0.164	0.437
-470.216	-90.399	-0.291	0.085
-469.201	-200.000	-0.064	0.308
-468.186	611.303	-0.060	0.149
-467.172	264.924	0.075	-0.131
-466.157	50.454	0.222	0.210
-465.143	800.000	-0.132	-0.442
-464.128	500.806	0.049	0.113
-463.113	-200.000	-0.013	0.086
-462.099	51.414	-0.106	-0.101
-461.084	302.467	-0.084	-0.155
-460.070	-33.550	0.289	-0.160
-459.055	78.357	-0.116	-0.124
-458.040	-200.000	-0.016	-0.150
-457.026	800.000	0.055	-0.227
-456.011	37.527	0.415	-0.369
-454.997	-137.105	0.267	-0.031
-453.982	210.340	0.253	-0.398
-452.968	188.916	-0.069	0.104
-451.953	40.210	0.153	-0.138
-450.938	-146.678	0.138	0.012
-449.924	8.426	0.196	-0.148
-448.909	-200.000	-0.017	0.230
-447.895	31.707	0.210	0.181
-446.880	1.201	0.191	0.137
-445.865	-200.000	-0.002	0.017
-444.851	-33.012	0.261	-0.145
-443.836	-106.173	0.131	-0.030
-442.822	147.643	-0.107	0.144
-441.807	800.000	0.060	-0.190
-440.792	-19.567	-0.194	-0.120
-439.778	-200.000	-0.050	-0.454
-438.763	54.663	-0.264	0.255
-437.749	-47.965	-0.130	-0.063
-436.734	345.529	-0.107	0.210
-435.719	135.426	-0.241	0.314
-434.705	-74.696	0.315	0.113
-433.690	-83.097	-0.242	-0.078
-432.676	-76.064	-0.202	0.072
-431.661	-33.319	-0.185	-0.102
-430.646	-103.733	-0.035	-0.008
-429.632	-156.489	-0.098	0.006
-428.617	530.420	-0.019	-0.045
-427.603	258.223	0.252	0.434
-426.588	-52.270	0.190	0.088
-425.573	-46.892	-0.242	-0.118
-424.559	498.548	-0.076	0.175
-423.544	-104.440	-0.117	0.027
-422.530	-63.962	0.249	0.102
-421.515	50.696	0.094	-0.089
-420.500	-200.000	-0.047	0.236
-419.486	49.073	-0.176	-0.165
-418.471	10.170	0.143	-0.109
-417.457	-200.000	-0.040	0.243
-416.442	182.730	-0.152	-0.224
-415.428	29.844	0.033	0.028
-414.413	404.422	-0.174	0.366
-413.398	-200.000	-0.004	0.285
-412.384	212.063	0.159	-0.250
-411.369	316.951	0.108	-0.204
-410.355	-24.925	-0.162	-0.096
-409.340	800.000	-0.063	0.216
-408.325	800.000	0.047	0.141
-407.311	65.761	-0.287	0.291
-406.296	58.118	-0.272	0.266
-405.282	-18.246	0.175	-0.109
-404.267	-200.000	0.054	0.303
-403.252	70.314	-0.151	-0.156
-402.238	-101.505	-0.126	0.031
-401.223	-125.965	-0.238	0.036
-400.209	431.766	-0.161	0.350
-399.194	703.745	-0.124	0.327
-398.179	-80.262	-0.207	0.069
-397.165	381.459	0.139	-0.286
-396.150	-200.000	-0.040	-0.230
-395.136	210.964	0.074	-0.117
-394.121	139.251	0.084	0.111
-393.106	-200.000	-0.006	0.061
-392.092	-121.868	-0.094	0.016
-391.077	158.195	0.061	0.085
-390.063	-54.934	0.081	-0.037
-389.048	-121.690	-0.221	-0.036
-388.033	192.305	0.223	-0.335
-387.019	-132.978	0.224	-0.028
-386.004	-135.350	-0.034	-0.004
-384.990	-69.277	0.466	-0.179
-383.975	-92.830	0.152	-0.042
-382.960	14.521	0.218	0.170
-381.946	30.727	-0.181	0.154
-380.931	800.000	-0.052	-0.211
-379.917	126.015	0.084	0.106
-378.902	-200.000	-0.143	0.000
-377.888	779.691	0.059	0.161
-376.873	800.000	0.094	0.283
-375.858	344.402	0.052	0.103
-374.844	-200.000	0.040	-0.209
-373.829	-67.199	0.175	0.069
-372.815	351.903	0.208	0.412
-371.800	214.915	0.046	0.073
-370.785	800.000	-0.106	-0.396
-369.771	-78.558	-0.187	0.064
-368.756	-190.971	0.127	-0.001
-367.742	-18.471	0.243	-0.151
-366.727	186.145	-0.051	0.075
-365.712	-200.000	0.199	0.000
-364.698	-2.753	0.238	-0.166
-363.683	559.612	0.062	-0.149
-362.669	384.716	0.094	0.193
-361.654	-161.012	-0.383	-0.020
-360.639	73.517	-0.068	0.071
-359.625	-200.000	0.068	0.319
-358.610	-200.000	-0.005	-0.073
-357.596	237.339	0.117	0.194
-356.581	800.000	0.098	-0.370
-355.566	-135.832	-0.108	0.013
-354.552	-200.000	-0.009	0.265
-353.537	-119.183	0.242	0.042
-352.523	-200.000	-0.069	0.357
-351.508	-148.358	-0.168	0.014
-350.493	-41.298	0.196	-0.101
-349.479	-104.262	-0.186	-0.043
-348.464	42.458	0.058	0.053
-347.450	-18.789	0.165	-0.103
-346.435	-200.000	-0.024	0.393
-345.420	23.217	0.103	0.085
-344.406	-98.904	-0.392	-0.099
-343.391	-200.000	0.005	-0.508
-342.377	-98.464	-0.031	-0.008
-341.362	31.332	-0.354	0.303
-340.348	-195.372	-0.279	-0.002
-339.333	-110.489	0.033	0.007
-338.318	380.882	-0.110	-0.224
-337.304	-153.281	0.111	-0.008
-336.289	114.548	0.172	-0.208
-335.275	116.656	-0.276	0.338
-334.260	-15.679	0.124	-0.079
-333.245	119.608	-0.195	0.241
-332.231	-5.326	0.319	-0.218
-331.216	72.555	0.203	0.211
-330.202	-200.000	-0.052	0.327
-329.187	-200.000	0.006	0.110
-328.172	108.229	0.287	0.341
-327.158	-200.000	0.026	-0.315
-326.143	-152.091	-0.031	-0.002
-325.129	800.000	0.108	-0.325
-324.114	-72.678	-0.159	-0.058
-323.099	446.723	-0.097	-0.213
-322.085	-141.020	0.237	0.024
-321.070	-200.000	0.007	0.127
-320.056	-113.104	0.337	-0.066
-319.041	-103.545	0.323	0.076
-318.026	-59.936	0.158	-0.067
-317.012	31.370	-0.159	0.136
-315.997	800.000	-0.042	-0.178
-314.983	-200.000	0.066	0.315
-313.968	91.878	-0.091	-0.102
-312.953	800.000	-0.034	-0.097
-311.939	-154.937	-0.215	-0.014
-310.924	525.669	-0.160	-0.374
-309.910	-34.315	0.068	0.037
-308.895	-33.259	-0.295	-0.163
-307.880	759.655	0.129	-0.348
-306.866	-149.107	-0.436	-0.035
-305.851	419.302	-0.003	0.007
-304.837	-200.000	0.070	-0.470
-303.822	570.652	-0.036	0.088
-302.807	-104.990	0.197	0.045
-301.793	-113.657	-0.130	-0.025
-300.778	800.000	-0.050	-0.154
-299.764	-87.965	-0.234	0.070
-298.749	21.789	-0.194	-0.157
-297.735	800.000	-0.079	-0.219
-296.720	-76.333	0.080	-0.028
-295.705	-113.929	0.184	-0.036
-294.691	91.763	0.223	0.250
-293.676	-60.330	0.146	-0.062
-292.662	65.477	-0.169	0.170
-291.647	-65.876	-0.295	0.117
-290.632	747.274	0.067	-0.181
-289.618	374.868	0.074	-0.151
-288.603	-168.545	0.130	-0.005
-287.589	-5.480	-0.084	-0.058
-286.574	64.382	0.094	-0.094
-285.559	-200.000	0.009	0.051
-284.545	64.698	-0.138	0.139
-283.530	253.387	-0.039	0.067
-282.516	-98.477	-0.175	-0.045
-281.501	-200.000	-0.002	0.243
-280.486	-59.007	0.289	0.124
-279.472	-78.874	-0.206	-0.070
-278.457	800.000	0.114	-0.480
-277.443	-119.092	-0.090	0.016
-276.428	529.697	0.072	-0.168
-275.413	-85.831	0.419	-0.129
-274.399	-36.345	0.211	-0.113
-273.384	315.178	0.212	-0.398
-272.370	-57.720	-0.293	-0.128
-271.355	800.000	0.080	0.281
-270.340	276.321	0.039	-0.070
-269.326	124.587	-0.142	-0.178
-268.311	518.344	0.088	0.205
-267.297	-91.004	0.181	-0.052
-266.282	426.460	-0.077	-0.165
-265.267	-132.060	0.439	0.057
-264.253	29.923	-0.101	0.085
-263.238	311.358	-0.094	0.175
-262.224	-200.000	-0.005	0.215
-261.209	-54.080	0.077	0.035
-260.195	-200.000	-0.008	0.495
-259.180	102.345	0.055	-0.064
-258.165	10.841	-0.065	-0.049
-257.151	286.711	0.046	0.082
-256.136	-200.000	0.016	0.167
-255.122	676.107	-0.013	0.034
-254.107	325.451	0.171	0.325
-253.092	800.000	-0.068	-0.188
-252.078	-103.186	0.148	-0.035
-251.063	43.393	-0.133	-0.121
-250.049	216.922	0.173	-0.274
-249.034	545.743	-0.074	0.176
-248.019	-134.107	-0.172	-0.021
-247.005	-175.651	0.138	0.004
-245.990	26.754	-0.087	0.072
-244.976	-200.000	-0.006	0.166
-243.961	-200.000	-0.024	0.265
-242.946	-61.764	-0.259	0.108
-241.932	-57.053	-0.072	-0.031
-240.917	-19.873	-0.130	-0.079
-239.903	-200.000	0.008	-0.057
-238.888	-200.000	0.059	0.371
-237.873	-88.352	-0.446	0.132
-236.859	104.757	0.147	0.172
-235.844	267.422	-0.188	-0.327
-234.830	-28.298	0.268	-0.154
-233.815	68.895	-0.108	0.110
-232.800	104.914	-0.173	0.203
-231.786	-50.890	0.354	-0.165
-230.771	-200.000	-0.030	-0.154
-229.757	-101.665	0.266	0.064
-228.742	254.060	0.025	0.042
-227.727	1.607	0.084	-0.060
-226.713	62.867	0.056	0.056
-225.698	-200.000	0.022	-0.341
-224.684	-61.321	-0.339	0.142
-223.669	13.221	0.253	0.194
-222.655	-200.000	-0.001	0.023
-221.640	-108.308	0.367	-0.079
-220.625	44.123	0.027	-0.025
-219.611	24.760	0.274	0.226
-218.596	247.410	0.077	-0.130
-217.582	-59.006	0.055	0.024
-216.567	34.667	-0.283	0.246
-215.552	493.393	-0.094	0.214
-214.538	31.521	0.234	-0.199
-213.523	13.996	0.264	0.204
-212.509	-200.000	0.028	0.243
-211.494	-200.000	0.037	-0.193
-210.479	219.876	-0.027	-0.043
-209.465	161.392	0.111	0.154
-208.450	-200.000	0.019	0.137
-207.436	439.755	-0.118	-0.255
-206.421	-120.867	-0.210	0.035
-205.406	-129.694	-0.341	0.047
-204.392	349.367	-0.036	-0.070
-203.377	-48.965	0.215	0.102
-202.363	-14.338	0.293	0.187
-201.348	-200.000	-0.013	-0.246
-200.333	-173.152	0.210	0.006
-199.319	-30.096	-0.165	0.093
-198.304	-200.000	-0.039	0.597
-197.290	208.034	-0.131	-0.203
-196.275	430.276	0.099	0.211
-195.260	357.062	0.098	-0.193
-194.246	-82.665	0.236	-0.076
-193.231	-58.868	-0.182	0.078
-192.217	-56.979	0.280	-0.122
-191.202	800.000	-0.084	0.233
-190.187	379.061	-0.154	0.314
-189.173	-113.655	0.112	0.022
-188.158	-70.365	-0.122	-0.046
-187.144	-131.120	-0.316	-0.042
-186.129	-108.011	0.280	-0.060
-185.114	-34.907	-0.248	0.134
-184.100	-87.071	0.185	0.056
-183.085	-123.114	0.276	-0.044
-182.071	-62.481	-0.189	-0.078
-181.056	-28.407	0.091	0.052
-180.042	-93.801	0.386	-0.105
-179.027	-15.896	0.126	-0.079
-178.012	264.422	-0.087	-0.150
-176.998	-57.133	0.069	0.030
-175.983	3.151	-0.303	0.218
-174.969	2.427	0.126	-0.090
-173.954	-56.788	0.261	-0.114
-172.939	-53.310	0.431	0.196
-171.925	-14.194	-0.073	-0.047
-170.910	-200.000	0.029	-0.350
-169.896	-154.996	0.209	-0.014
-168.881	-200.000	0.051	-0.383
-167.866	371.498	0.133	0.267
-166.852	82.246	-0.207	0.222
-165.837	-200.000	0.033	0.000
-164.823	-80.113	0.289	0.096
-163.808	54.675	-0.338	0.323
-162.793	338.837	-0.098	0.188
-161.779	-79.893	-0.172	-0.057
-160.764	713.511	0.088	0.230
-159.750	-112.469	-0.302	-0.060
-158.735	800.000	0.093	-0.254
-157.720	1.191	-0.017	-0.012
-156.706	-200.000	-0.033	-0.312
-155.691	-200.000	-0.019	0.186
-154.677	-200.000	0.011	0.143
-153.662	-27.421	0.074	0.043
-152.647	-111.774	-0.038	-0.008
-151.633	800.000	0.144	-0.457
-150.618	74.974	-0.064	0.067
-149.604	-97.732	-0.128	0.033
-148.589	800.000	0.046	-0.135
-147.574	139.032	0.037	-0.048
-146.560	-76.192	0.313	-0.109
-145.545	-5.860	-0.079	0.053
-144.531	800.000	0.023	0.093
-143.516	-81.975	-0.127	0.041
-142.502	59.571	-0.038	-0.037
-141.487	-200.000	0.038	0.211
-140.472	-6.164	0.125	0.084
-139.458	-38.903	0.117	-0.061
-138.443	33.906	-0.115	0.099
-137.429	446.094	-0.131	-0.285
-136.414	-59.476	-0.043	0.018
-135.399	-119.611	-0.308	0.053
-134.385	275.362	0.130	-0.228
-133.370	-137.057	0.302	-0.034
-132.356	-200.000	0.013	0.103
-131.341	-28.089	0.171	-0.098
-130.326	-149.523	0.337	0.026
-129.312	-134.838	0.372	-0.045
-128.297	-200.000	0.038	-0.271
-127.283	-180.918	0.386	-0.008
-126.268	-154.886	-0.243	0.016
-125.253	-200.000	0.002	-0.047
-124.239	75.265	-0.214	-0.223
-123.224	-200.000	-0.014	-0.386
-122.210	241.812	0.088	-0.146
-121.195	-39.339	0.282	0.146
-120.180	-200.000	0.014	-0.096
-119.166	-142.722	0.223	0.022
-118.151	16.601	0.229	0.179
-117.137	-51.440	0.137	0.063
-116.122	74.291	0.121	0.125
-115.107	89.645	0.204	-0.225
-114.093	179.696	0.110	-0.159
-113.078	-79.028	0.350	-0.118
-112.064	79.078	-0.169	-0.179
-111.049	-200.000	-0.050	-0.225
-110.034	800.000	-0.044	-0.121
-109.020	-200.000	0.041	-0.227
-108.005	-107.793	0.284	-0.061
-106.991	-124.715	0.517	0.079
-105.976	65.310	-0.128	0.128
-104.962	-200.000	0.074	-0.491
-103.947	357.012	0.119	-0.234
-102.932	-11.446	0.113	-0.074
-101.918	177.184	-0.051	-0.074
-100.903	-60.428	0.352	-0.148
-99.889	800.000	0.040	0.162
-98.874	138.393	0.024	-0.031
-97.859	549.649	0.080	-0.189
-96.845	-171.399	0.153	-0.005
-95.830	-161.434	0.198	-0.010
-94.816	-165.870	-0.154	0.007
-93.801	-104.372	0.046	0.011
-92.786	-2.675	-0.102	-0.070
-91.772	-95.193	0.449	-0.119
-90.757	-70.010	-0.054	-0.020
-89.743	-200.000	0.000	-0.178
-88.728	-200.000	-0.024	-0.153
-87.713	800.000	0.093	-0.349
-86.699	-69.253	0.363	0.138
-85.684	2.108	0.138	0.099
-84.670	800.000	0.022	0.082
-83.655	-110.235	0.055	0.011
-82.640	-200.000	0.012	0.328
-81.626	-35.856	-0.248	-0.132
-80.611	800.000	-0.087	-0.271
-79.597	435.028	0.149	0.319
-78.582	-44.694	0.315	-0.155
-77.567	-50.365	-0.231	-0.108
-76.553	453.189	0.068	0.148
-75.538	527.898	-0.104	-0.242
-74.524	164.841	-0.050	0.070
-73.509	222.316	-0.096	0.153
-72.494	-70.994	0.036	-0.013
-71.480	-200.000	-0.027	-0.155
-70.465	-144.921	0.040	0.004
-69.451	-200.000	-0.042	-0.185
-68.436	-100.685	0.127	-0.031
-67.422	209.431	0.110	-0.170
-66.407	244.882	-0.053	-0.088
-65.392	37.682	0.068	0.059
-64.378	-200.000	0.041	-0.273
-63.363	-73.343	0.301	0.109
-62.349	-171.486	0.059	0.002
-61.334	0.931	-1.061	-0.750
-60.319	-52.983	0.572	0.260
-59.305	205.222	-0.396	-0.607
-58.290	199.705	0.628	0.950
-57.276	796.389	0.667	1.812
-56.261	-200.000	97.875	588.955
-55.246	543.288	1399.516	3293.149
-54.232	154.964	2583.948	3503.282
-53.217	111.188	2178.904	2588.667
-52.203	43.119	1718.399	1546.195
-51.188	35.826	1530.969	1327.415
-50.173	33.569	1503.861	1288.542
-49.159	52.865	1552.741	1464.058
-48.144	54.568	1570.742	1492.729
-47.130	35.905	1530.625	1327.451
-46.115	32.864	1515.301	1293.307
-45.100	32.689	1511.854	1289.113
-44.086	32.735	1510.215	1287.985
-43.071	32.704	1508.000	1285.833
-42.057	32.660	1506.847	1284.495
-41.042	32.608	1505.526	1282.963
-40.027	32.696	1503.738	1281.992
-39.013	32.664	1501.840	1280.102
-37.998	32.648	1500.923	1279.164
-36.984	32.693	1499.788	1278.447
-35.969	32.714	1498.562	1277.499
-34.954	32.652	1497.129	1275.803
-33.940	32.688	1495.757	1274.828
-32.925	32.711	1494.280	1273.672
-31.911	32.746	1492.777	1272.580
-30.896	32.786	1491.209	1271.460
-29.881	32.765	1490.151	1270.368
-28.867	32.698	1488.641	1268.578
-27.852	32.738	1486.877	1267.295
-26.838	32.765	1485.697	1266.418
-25.823	32.669	1484.294	1264.531
-24.809	32.799	1482.566	1263.876
-23.794	32.637	1481.569	1261.894
-22.779	32.689	1479.702	1260.597
-21.765	32.689	1478.889	1259.860
-20.750	32.664	1477.986	1258.871
-19.736	32.708	1476.722	1258.035
-18.721	32.717	1475.854	1257.309
-17.706	32.614	1474.646	1255.543
-16.692	32.631	1473.441	1254.580
-15.677	32.626	1472.742	1253.904
-14.663	32.649	1471.655	1253.079
-13.648	32.624	1470.712	1252.059
-12.633	32.655	1469.935	1251.557
-11.619	32.651	1468.751	1250.470
-10.604	32.641	1468.048	1249.758
-9.590	32.615	1467.628	1249.178
-8.575	32.695	1466.384	1248.596
-7.560	32.585	1465.954	1247.459
-6.546	32.594	1464.951	1246.611
-5.531	32.655	1463.400	1245.647
-4.517	32.611	1462.393	1244.448
-3.502	32.589	1461.515	1243.504
-2.487	32.541	1460.520	1242.297
-1.473	32.542	1459.850	1241.679
-0.458	32.460	1458.969	1240.340
0.556	32.600	1449.161	1231.172
1.571	30.019	1424.053	1193.137
2.586	26.863	1367.821	1126.362
3.600	25.340	1288.420	1051.966
4.615	24.005	1241.429	1005.970
5.629	19.861	1182.983	936.150
6.644	9.915	1095.110	816.476
7.659	2.731	1053.246	750.156
8.673	1.909	1047.915	742.295
9.688	1.663	1045.027	738.987
10.702	1.533	1043.235	737.024
11.717	1.466	1041.418	735.352
12.731	4.425	1044.695	751.948
13.746	14.090	1059.178	809.565
14.761	22.398	1069.495	858.050
15.775	24.658	1072.114	871.105
16.790	25.046	1071.114	872.105
17.804	24.847	1070.796	870.799
18.819	24.642	1069.926	869.018
19.834	24.783	1069.081	868.942
20.848	24.810	1069.143	869.044
21.863	24.931	1068.767	869.251
22.877	24.997	1068.031	868.894
23.892	25.010	1067.385	868.354
24.907	24.825	1066.599	866.744
25.921	24.946	1065.815	866.616
26.936	25.002	1064.798	865.980
27.950	24.972	1063.921	865.045
28.965	24.874	1062.973	863.725
29.980	24.743	1061.278	861.640
30.994	24.777	1059.735	860.477
32.009	25.047	1059.032	861.129
33.023	25.076	1058.814	861.011
34.038	24.908	1057.416	858.993
35.053	24.707	1057.148	857.738
36.067	24.902	1056.054	857.708
37.082	24.805	1055.536	856.747
38.096	24.894	1054.896	856.577
39.111	25.198	1053.955	857.190
40.126	25.178	1053.154	856.368
41.140	25.152	1052.145	855.347
42.155	24.853	1050.701	852.674
43.169	24.607	1049.229	850.233
44.184	24.476	1048.450	848.901
45.199	24.524	1047.802	848.530
46.213	24.498	1046.521	847.296
47.228	24.523	1045.533	846.537
48.242	24.629	1045.008	846.543
49.257	24.797	1044.390	846.762
50.271	24.755	1043.616	845.860
51.286	24.986	1042.961	846.345
52.301	24.991	1042.699	846.082
53.315	25.042	1041.826	845.538
54.330	25.022	1040.599	844.374
55.344	24.894	1039.924	843.147
56.359	25.040	1038.897	842.929
57.374	24.980	1038.188	841.998
58.388	24.795	1037.263	840.302
59.403	24.655	1036.609	839.043
60.417	24.654	1036.224	838.652
61.432	24.516	1035.122	837.041
62.447	24.485	1034.771	836.537
63.461	24.658	1034.246	836.845
64.476	24.747	1033.325	836.446
65.490	24.719	1032.072	835.224
66.505	24.516	1031.785	833.969
67.520	24.581	1030.765	833.374
68.534	24.735	1030.002	833.404
69.549	24.567	1028.998	831.733
70.563	24.125	1027.856	828.683
71.578	24.159	1026.726	827.856
72.593	24.102	1025.972	826.907
73.607	24.156	1024.457	825.865
74.622	24.085	1023.614	824.782
75.636	24.328	1023.134	825.448
76.651	24.491	1022.197	825.376
77.666	24.448	1021.747	824.739
78.680	24.346	1020.554	823.232
79.695	24.344	1020.271	822.924
80.709	24.392	1019.617	822.541
81.724	24.597	1018.676	822.655
82.739	24.539	1017.892	821.683
83.753	24.475	1017.570	821.054
84.768	24.806	1016.839	821.915
85.782	25.219	1016.330	823.324
86.797	25.350	1015.674	823.321
87.812	25.331	1014.771	822.432
88.826	25.133	1013.416	820.353
89.841	25.059	1013.321	819.866
90.855	25.142	1012.684	819.657
91.870	25.290	1011.252	819.100
92.884	25.229	1010.737	818.332
93.899	25.150	1009.575	816.962
94.914	24.989	1008.530	815.310
95.928	25.229	1007.498	815.494
96.943	25.220	1006.815	814.826
97.957	24.859	1005.900	812.378
98.972	24.642	1004.769	810.406
99.987	24.527	1003.469	808.766
101.001	24.597	1003.102	808.716
102.016	24.915	1002.827	809.861
103.030	24.969	1001.551	809.004
104.045	24.741	1000.911	807.387
105.060	24.730	999.451	806.087
106.074	24.620	998.355	804.637
107.089	24.586	997.081	803.386
108.103	24.966	996.876	804.857
109.118	24.920	996.775	804.498
110.133	24.650	995.501	802.185
111.147	24.657	994.111	801.026
112.162	24.570	993.104	799.757
113.176	24.419	992.104	798.202
114.191	24.509	991.465	798.024
115.206	24.532	990.684	797.426
116.220	24.260	989.438	795.137
117.235	24.075	988.765	793.701
118.249	24.257	988.489	794.220
119.264	24.370	987.305	793.702
120.279	24.194	986.081	791.867
121.293	24.270	985.243	791.461
122.308	24.393	984.969	791.718
123.322	24.330	984.244	790.785
124.337	24.233	983.094	789.361
125.352	24.131	981.520	787.575
126.366	23.766	979.991	784.666
127.381	23.554	978.430	782.413
128.395	24.037	978.597	784.607
129.410	24.633	978.174	786.823
130.424	24.840	977.532	787.149
131.439	24.860	976.714	786.507
132.454	24.833	975.850	785.625
133.468	24.780	975.015	784.651
134.483	24.679	974.720	783.902
135.497	24.639	973.851	782.958
136.512	24.974	973.150	783.790
137.527	25.160	972.339	783.882
138.541	25.092	971.662	782.968
139.556	25.024	971.196	782.226
140.570	25.075	969.951	781.377
141.585	24.992	969.628	780.687
142.600	25.157	968.712	780.600
143.614	25.108	967.753	779.543
144.629	25.115	967.141	779.011
145.643	25.346	966.623	779.527
146.658	25.271	965.487	778.217
147.673	25.116	964.090	776.355
148.687	24.958	963.020	774.737
149.702	24.885	961.993	773.529
150.716	24.770	960.787	771.996
151.731	24.782	960.097	771.425
152.746	24.964	959.122	771.358
153.760	25.053	958.763	771.383
154.775	25.184	958.079	771.328
155.789	25.259	957.069	770.768
156.804	25.235	956.079	769.801
157.819	25.244	954.982	768.884
158.833	25.272	954.501	768.552
159.848	25.345	953.545	768.025
160.862	25.418	952.874	767.729
161.877	25.312	952.244	766.700
162.892	25.108	951.181	764.909
163.906	25.259	950.369	764.831
164.921	25.254	949.351	763.921
165.935	25.209	948.579	763.044
166.950	25.227	947.380	762.084
167.964	25.285	946.725	761.738
168.979	25.196	945.875	760.608
169.994	25.197	944.355	759.324
171.008	24.916	943.888	757.691
172.023	25.123	943.257	757.995
173.037	25.375	942.287	758.213
174.052	25.106	941.306	756.221
175.067	24.917	940.062	754.357
176.081	24.832	939.478	753.465
177.096	24.920	938.703	753.148
178.110	25.090	937.487	752.816
179.125	24.890	936.448	751.077
180.140	24.535	935.837	749.034
181.154	24.477	934.855	747.939
182.169	24.690	934.724	748.658
183.183	24.855	934.441	749.058
184.198	25.274	933.897	750.305
185.213	25.039	933.414	748.872
186.227	25.164	932.141	748.304
187.242	25.147	932.166	748.187
188.256	25.266	931.350	747.962
189.271	25.410	930.029	747.434
190.286	25.360	929.790	746.969
191.300	25.060	928.893	744.934
192.315	24.680	927.530	742.197
193.329	23.752	926.005	737.064
194.344	23.340	925.018	734.505
195.359	24.211	925.071	738.093
196.373	24.904	925.552	741.282
197.388	25.154	925.227	741.988
198.402	25.082	924.333	740.911
199.417	25.067	923.690	740.265
200.432	25.016	923.842	740.114
201.446	25.004	922.829	739.186
202.461	24.673	921.979	737.076
203.475	24.836	921.677	737.440
204.490	24.322	920.416	734.251
205.504	23.290	917.756	727.825
206.519	23.601	918.192	729.382
207.534	24.555	918.014	733.095
208.548	24.613	918.122	733.355
209.563	25.134	917.339	734.800
210.577	25.198	916.633	734.432
211.592	24.866	915.983	732.490
212.607	25.276	915.929	734.059
213.621	25.454	915.219	734.150
214.636	25.294	914.686	733.004
215.650	25.216	914.311	732.320
216.665	25.154	913.661	731.482
217.680	25.201	913.224	731.261
218.694	25.313	913.155	731.596
219.709	25.051	911.586	729.207
220.723	24.663	910.784	726.924
221.738	24.965	909.838	727.334
222.753	25.112	909.633	727.702
223.767	25.035	909.111	726.906
224.782	25.149	908.475	726.794
225.796	25.428	907.951	727.442
226.811	25.564	906.929	727.108
227.826	24.979	906.132	724.040
228.840	24.297	904.499	719.919
229.855	24.144	903.628	718.546
230.869	24.360	903.532	719.275
231.884	24.069	902.759	717.424
232.899	24.031	902.109	716.694
233.913	25.006	902.553	720.908
234.928	25.097	901.916	720.702
235.942	24.888	901.280	719.290
236.957	24.777	900.786	718.383
237.972	24.712	899.619	717.130
238.986	24.668	898.532	716.024
240.001	24.746	898.208	716.015
241.015	24.781	897.630	715.629
242.030	24.783	897.076	715.135
243.045	24.935	896.705	715.381
244.059	25.011	895.996	715.058
245.074	25.193	895.500	715.322
246.088	25.244	894.803	714.904
247.103	24.793	893.749	712.205
248.117	24.804	893.357	711.876
249.132	25.400	893.283	714.124
250.147	25.746	893.181	715.355
251.161	25.694	892.840	714.808
252.176	26.054	892.296	715.738
253.190	26.033	891.135	714.662
254.205	26.119	891.259	715.038
255.220	26.122	890.920	714.716
256.234	26.115	890.313	714.138
257.249	26.055	889.499	713.183
258.263	25.903	888.979	712.105
259.278	25.943	888.554	711.859
260.293	26.104	887.766	711.797
261.307	26.042	887.630	711.383
262.322	26.068	886.483	710.504
263.336	26.025	885.923	709.823
264.351	25.272	884.740	705.852
265.366	24.332	882.471	700.288
266.380	23.844	881.926	697.881
267.395	24.644	882.535	701.442
268.409	25.486	882.470	704.630
269.424	25.668	881.143	704.221
270.439	25.459	881.876	703.926
271.453	25.795	880.687	704.230
272.468	25.743	879.927	703.356
273.482	25.919	879.743	703.833
274.497	26.027	879.117	703.692
275.512	25.841	878.479	702.391
276.526	25.449	876.972	699.598
277.541	25.518	876.358	699.315
278.555	25.794	876.492	700.435
279.570	25.673	875.589	699.183
280.585	25.555	874.532	697.817
281.599	25.584	874.119	697.539
282.614	25.742	873.847	697.875
283.628	25.197	872.561	694.675
284.643	24.798	871.683	692.368
285.657	25.242	872.181	694.423
286.672	25.334	870.577	693.439
287.687	24.601	870.505	690.490
288.701	25.133	869.889	691.993
289.716	25.435	870.072	693.241
290.730	25.085	869.113	691.070
291.745	24.854	868.130	689.335
292.760	24.882	866.974	688.466
293.774	24.672	867.212	687.783
294.789	25.671	867.441	691.748
295.803	26.325	867.595	694.322
296.818	26.432	866.901	694.118
297.833	26.575	866.039	693.915
298.847	26.046	865.365	691.287
299.862	25.830	864.494	689.700
300.876	25.922	864.296	689.836
301.891	26.225	863.620	690.395
302.906	26.404	862.979	690.503
303.920	25.877	862.149	687.768
304.935	25.906	860.839	686.772
305.949	26.176	861.198	688.024
306.964	26.362	860.887	688.425
307.979	26.005	859.806	686.142
308.993	25.954	859.517	685.658
310.008	26.494	859.107	687.319
311.022	26.428	858.974	686.903
312.037	26.352	857.871	685.672
313.052	26.115	857.109	684.103
314.066	25.906	856.716	682.939
315.081	25.205	855.147	678.975
316.095	24.540	853.788	675.323
317.110	25.073	853.940	677.398
318.125	25.946	854.602	681.163
319.139	25.535	853.237	678.463
320.154	24.386	851.579	672.753
321.168	23.915	850.613	670.158
322.183	24.595	850.633	672.674
323.197	25.373	851.421	676.169
324.212	25.874	850.666	677.392
325.227	26.060	850.535	677.929
326.241	26.123	850.281	677.901
327.256	25.972	849.489	676.646
328.270	25.979	848.621	675.921
329.285	25.824	848.152	674.907
330.300	25.617	847.586	673.623
331.314	25.413	846.385	671.844
332.329	25.633	845.711	672.072
333.343	25.981	845.546	673.181
334.358	26.290	845.283	674.064
335.373	26.129	845.039	673.210
336.387	26.301	844.360	673.248
337.402	26.443	844.109	673.520
338.416	26.515	843.949	673.599
339.431	26.510	843.375	673.062
340.446	26.580	842.910	672.893
341.460	26.849	842.490	673.498
342.475	26.722	841.801	672.415
343.489	26.679	840.638	671.268
344.504	26.373	840.611	670.054
345.519	26.722	840.145	670.916
346.533	27.024	839.419	671.391
347.548	27.199	839.527	672.068
348.562	26.993	839.164	670.956
349.577	26.885	838.397	669.882
350.592	26.898	837.871	669.453
351.606	27.090	837.071	669.459
352.621	26.833	837.000	668.397
353.635	26.726	836.385	667.455
354.650	26.587	835.798	666.415
355.665	26.498	834.469	664.971
356.679	25.370	833.056	659.643
357.694	25.226	832.648	658.734
358.708	25.894	832.460	660.977
359.723	25.970	831.727	660.615
360.738	26.155	831.697	661.210
361.752	26.565	831.540	662.527
362.767	26.623	831.442	662.603
363.781	26.923	831.093	663.364
364.796	27.170	830.733	663.921
365.810	27.306	830.202	663.933
366.825	27.329	830.235	663.984
367.840	27.459	829.669	663.947
368.854	27.034	829.146	661.921
369.869	26.806	828.265	660.330
370.883	26.771	827.135	659.243
371.898	26.670	826.898	658.629
372.913	26.673	825.846	657.743
373.927	26.691	825.544	657.510
374.942	26.817	824.909	657.403
375.956	26.920	824.510	657.399
376.971	26.891	824.263	657.040
377.986	26.992	823.808	656.983
379.000	27.290	823.480	657.743
380.015	27.291	823.088	657.373
381.029	27.226	822.021	656.229
382.044	27.169	821.300	655.390
383.059	27.222	820.776	655.107
384.073	27.197	820.662	654.868
385.088	27.225	819.837	654.252
386.102	27.276	819.071	653.763
387.117	27.182	818.392	652.828
388.132	27.011	818.074	651.902
389.146	26.793	817.379	650.510
390.161	26.158	816.758	647.680
391.175	26.298	816.196	647.677
392.190	26.868	816.531	649.929
393.205	27.007	815.622	649.647
394.219	25.985	813.641	644.363
395.234	24.236	811.790	636.598
396.248	23.452	810.446	632.691
397.263	24.667	811.690	637.946
398.278	26.398	813.134	645.205
399.292	26.874	812.796	646.578
400.307	26.620	811.875	644.885
401.321	26.504	811.785	644.342
402.336	26.525	811.360	644.023
403.350	26.914	811.410	645.388
404.365	27.250	811.462	646.566
405.380	27.811	810.947	648.092
406.394	27.907	810.978	648.401
407.409	28.143	810.236	648.588
408.423	28.066	809.962	648.037
409.438	27.770	809.693	646.717
410.453	27.980	809.032	646.872
411.467	27.988	808.626	646.522
412.482	28.089	807.322	645.778
413.496	28.104	806.771	645.333
414.511	28.044	807.141	645.360
415.526	27.934	807.043	644.837
416.540	28.010	806.512	644.625
417.555	27.857	805.850	643.498
418.569	27.667	804.999	642.092
419.584	27.609	804.745	641.628
420.599	27.692	804.142	641.384
421.613	108.853	1285.321	1455.301
422.628	93.889	1355.447	1455.409
