DTS Sentinel unit serial number:	SN413079Multiplexer serial number:	ORYXHardware model number:	OX4-SRSoftware version number:	ORYX F/W v4.00 Oryx Data Collector v3.7.2.0data status	okinstallation	princeton_trtdifferential loss correction	single-endedforward channel	channel 3reverse channel	N/Adate	2019/09/12time	02:54:11forward acquisition time	60.00reverse acquisition time	0.00gamma	496.2192k internal	0.2321k external	0.2321temperature offset calibration	1.0069default loss term (dB/km)	0.3790temperature slope calibration	1.0000multiplexer offset coefficient	1.0000multiplexer slope coefficient	1.0000fibre end	0.00T internal ref (°C)	32.31T ext. ref 1 (°C)	2.11T ext. ref 2 (°C)	27.31length (m)	temperature (°C)	Stokes	anti-Stokes-747.200	-48.482	-0.064	-0.031
-746.185	298.346	-0.175	0.326
-745.171	-200.000	0.011	0.340
-744.156	-200.000	0.039	-0.189
-743.142	44.289	-0.198	-0.183
-742.127	-7.193	-0.134	0.092
-741.112	44.811	0.075	0.070
-740.098	-64.991	-0.230	0.094
-739.083	4.319	0.189	0.140
-738.069	800.000	0.074	0.301
-737.054	-66.794	-0.325	-0.130
-736.039	-101.099	-0.079	-0.020
-735.025	160.760	0.136	0.192
-734.010	404.058	0.065	-0.138
-732.996	106.434	-0.211	-0.252
-731.981	-200.000	-0.013	-0.363
-730.966	-137.936	-0.212	0.024
-729.952	-52.139	-0.374	0.175
-728.937	31.131	-0.306	-0.265
-727.923	-200.000	0.044	-0.326
-726.908	-200.000	-0.001	0.417
-725.894	159.966	-0.029	0.041
-724.879	-110.359	-0.238	0.050
-723.864	-159.485	0.170	-0.010
-722.850	80.025	0.040	-0.043
-721.835	87.065	-0.288	0.321
-720.821	-200.000	-0.022	-0.185
-719.806	800.000	-0.033	0.127
-718.791	-33.596	-0.189	-0.105
-717.777	800.000	-0.056	0.181
-716.762	68.696	0.158	0.164
-715.748	-86.477	-0.107	-0.033
-714.733	36.701	-0.187	0.166
-713.718	-200.000	0.329	-0.000
-712.704	307.804	0.081	0.153
-711.689	-16.878	0.103	0.066
-710.675	-8.582	-0.375	0.255
-709.660	296.084	-0.107	0.199
-708.645	690.926	-0.102	-0.270
-707.631	-47.166	-0.135	0.066
-706.616	121.529	0.016	-0.020
-705.602	97.994	-0.177	-0.206
-704.587	91.653	-0.234	0.265
-703.572	-31.160	0.331	0.188
-702.558	-200.000	0.040	-0.345
-701.543	74.325	0.082	0.087
-700.529	120.830	-0.166	-0.209
-699.514	-60.041	0.186	-0.080
-698.499	7.056	0.303	-0.228
-697.485	-74.996	-0.124	-0.045
-696.470	800.000	-0.059	-0.168
-695.456	-148.853	0.309	0.025
-694.441	43.033	-0.206	0.190
-693.426	-200.000	0.012	0.235
-692.412	30.278	-0.279	0.241
-691.397	-200.000	0.008	0.090
-690.383	-200.000	0.003	-0.220
-689.368	-138.444	0.059	-0.007
-688.354	255.598	0.063	-0.109
-687.339	-200.000	-0.015	0.184
-686.324	8.098	-0.242	0.183
-685.310	-200.000	-0.036	0.211
-684.295	402.233	-0.075	-0.159
-683.281	13.654	0.228	-0.178
-682.266	170.949	0.167	0.241
-681.251	7.904	0.168	-0.127
-680.237	-200.000	0.018	0.122
-679.222	-26.818	-0.143	0.085
-678.208	800.000	-0.150	0.429
-677.193	-200.000	0.033	-0.615
-676.178	-200.000	-0.047	-0.350
-675.164	353.082	-0.051	-0.102
-674.149	-200.000	-0.036	0.351
-673.135	-46.504	-0.137	-0.068
-672.120	-200.000	-0.012	0.264
-671.105	214.922	0.084	-0.134
-670.091	-53.283	0.430	-0.199
-669.076	800.000	0.028	-0.079
-668.062	167.855	-0.283	0.405
-667.047	-60.466	-0.102	0.044
-666.032	800.000	0.052	0.153
-665.018	-113.087	-0.115	0.023
-664.003	-61.924	-0.215	-0.090
-662.989	11.532	0.209	-0.161
-661.974	-200.000	0.048	0.238
-660.959	-20.185	0.102	0.063
-659.945	-113.522	0.278	-0.055
-658.930	-143.345	-0.197	-0.019
-657.916	-90.263	0.235	0.069
-656.901	-64.177	-0.159	-0.065
-655.886	563.971	-0.092	0.225
-654.872	167.990	0.090	0.129
-653.857	4.086	-0.348	0.256
-652.843	17.827	-0.151	0.121
-651.828	800.000	-0.071	0.211
-650.814	66.130	0.197	0.201
-649.799	-55.898	0.282	-0.127
-648.784	25.446	0.192	0.161
-647.770	-200.000	-0.004	-0.078
-646.755	202.807	-0.092	-0.143
-645.741	-8.342	-0.246	-0.167
-644.726	787.122	0.024	-0.067
-643.711	800.000	0.030	-0.126
-642.697	-49.337	-0.211	0.101
-641.682	148.752	0.204	0.277
-640.668	-120.266	-0.380	-0.065
-639.653	-53.152	-0.017	-0.008
-638.638	142.406	-0.138	0.184
-637.624	800.000	0.064	-0.262
-636.609	-62.631	-0.216	0.090
-635.595	94.234	-0.131	0.150
-634.580	-85.842	0.368	0.115
-633.565	-200.000	-0.009	0.125
-632.551	123.508	-0.203	-0.256
-631.536	-109.603	0.035	-0.007
-630.522	800.000	0.079	-0.264
-629.507	-30.989	-0.073	0.042
-628.492	-31.032	0.328	0.186
-627.478	-200.000	-0.008	-0.071
-626.463	-41.920	-0.160	0.083
-625.449	22.178	-0.189	-0.155
-624.434	-119.971	0.371	-0.064
-623.419	-82.889	0.227	-0.074
-622.405	-97.001	-0.112	0.030
-621.390	-200.000	0.026	-0.401
-620.376	-124.629	0.321	0.050
-619.361	140.464	-0.137	0.182
-618.346	-127.452	0.145	-0.021
-617.332	100.015	-0.188	-0.219
-616.317	133.780	0.172	0.224
-615.303	58.941	0.155	0.153
-614.288	220.182	0.157	0.254
-613.273	800.000	-0.066	-0.198
-612.259	-55.524	-0.258	-0.116
-611.244	-137.761	-0.123	0.014
-610.230	-58.693	0.077	-0.033
-609.215	800.000	-0.054	-0.224
-608.201	29.850	-0.062	-0.053
-607.186	499.950	-0.093	0.216
-606.171	52.405	0.163	0.156
-605.157	-99.454	-0.341	-0.086
-604.142	467.073	0.075	0.169
-603.128	-79.449	-0.289	-0.098
-602.113	-127.042	-0.193	-0.029
-601.098	432.547	-0.142	-0.310
-600.084	320.258	0.098	-0.186
-599.069	-126.818	0.491	0.073
-598.055	1.663	0.114	-0.082
-597.040	-23.946	0.398	-0.239
-596.025	37.605	0.078	-0.070
-595.011	92.961	-0.107	-0.122
-593.996	-8.036	-0.132	-0.089
-592.982	198.783	0.115	-0.176
-591.967	317.411	-0.172	0.327
-590.952	137.008	0.079	0.104
-589.938	-85.129	0.332	-0.105
-588.923	800.000	-0.090	-0.316
-587.909	104.640	0.227	-0.269
-586.894	12.539	0.254	0.197
-585.879	-200.000	0.006	0.047
-584.865	-200.000	-0.007	-0.186
-583.850	242.204	0.224	-0.376
-582.836	-200.000	-0.008	0.102
-581.821	166.790	-0.186	0.264
-580.806	13.385	-0.173	0.135
-579.792	12.183	-0.091	0.070
-578.777	-180.394	0.432	-0.009
-577.763	542.746	0.100	-0.240
-576.748	-200.000	-0.038	0.517
-575.733	-117.440	-0.161	0.029
-574.719	-200.000	-0.053	-0.467
-573.704	285.742	-0.222	-0.403
-572.690	178.205	-0.122	-0.178
-571.675	-200.000	-0.027	0.176
-570.661	192.035	0.077	-0.117
-569.646	-125.733	-0.115	-0.017
-568.631	187.103	-0.106	-0.159
-567.617	92.912	-0.239	-0.271
-566.602	669.946	0.067	0.175
-565.588	-105.915	-0.120	0.027
-564.573	384.000	-0.102	0.210
-563.558	-69.581	-0.284	0.109
-562.544	-11.024	0.090	0.060
-561.529	-35.232	-0.086	0.047
-560.515	-119.267	-0.585	0.102
-559.500	-200.000	0.083	0.391
-558.485	137.636	0.150	-0.198
-557.471	-58.518	-0.259	-0.113
-556.456	-151.834	-0.047	0.003
-555.442	-200.000	0.056	0.247
-554.427	-191.155	0.155	-0.002
-553.412	421.713	0.104	-0.224
-552.398	800.000	0.009	0.032
-551.383	49.558	0.183	0.173
-550.369	-163.907	-0.270	0.013
-549.354	671.291	0.026	-0.067
-548.339	-145.451	-0.403	-0.036
-547.325	-126.304	0.591	0.089
-546.310	12.233	0.176	0.136
-545.296	116.667	-0.098	0.121
-544.281	12.518	-0.220	-0.170
-543.266	700.445	-0.145	-0.382
-542.252	477.182	-0.095	-0.216
-541.237	-200.000	0.042	0.308
-540.223	-23.705	0.288	0.173
-539.208	320.113	-0.189	-0.360
-538.193	-69.361	0.134	-0.052
-537.179	282.012	0.173	-0.310
-536.164	-44.556	0.289	0.145
-535.150	800.000	0.019	-0.067
-534.135	275.217	-0.073	0.129
-533.121	-64.833	0.411	0.167
-532.106	-200.000	0.027	0.180
-531.091	1.763	-0.236	-0.170
-530.077	157.343	-0.209	-0.290
-529.062	25.480	-0.205	-0.171
-528.048	-143.881	-0.239	0.023
-527.033	800.000	0.043	0.119
-526.018	-75.483	0.338	-0.120
-525.004	256.079	0.047	-0.080
-523.989	418.871	-0.199	0.427
-522.975	-200.000	0.027	0.237
-521.960	100.321	0.134	-0.156
-520.945	7.758	-0.042	0.032
-519.931	-31.933	-0.135	0.076
-518.916	452.826	-0.017	0.038
-517.902	-129.111	-0.178	-0.025
-516.887	164.708	0.028	-0.040
-515.872	-79.450	-0.022	0.007
-514.858	-61.024	-0.212	-0.090
-513.843	11.067	-0.390	0.298
-512.829	151.336	-0.217	-0.295
-511.814	-96.054	-0.209	-0.056
-510.799	-7.023	-0.280	0.190
-509.785	316.483	0.135	-0.255
-508.770	-11.882	0.253	-0.166
-507.756	-200.000	-0.002	-0.072
-506.741	-105.526	-0.249	0.056
-505.726	-3.936	0.113	-0.079
-504.712	-112.663	0.218	-0.044
-503.697	-173.458	0.158	0.005
-502.683	3.593	-0.108	0.079
-501.668	-31.343	-0.106	-0.059
-500.653	7.495	0.250	-0.187
-499.639	493.080	0.042	0.095
-498.624	-98.438	0.205	0.052
-497.610	172.676	-0.068	-0.098
-496.595	-128.431	-0.307	-0.044
-495.581	-200.000	0.023	0.207
-494.566	-6.267	0.232	-0.158
-493.551	-194.296	-0.234	-0.002
-492.537	-200.000	-0.018	0.163
-491.522	8.757	0.047	0.036
-490.508	157.943	0.124	0.173
-489.493	66.377	-0.032	-0.032
-488.478	215.275	0.085	0.135
-487.464	-51.556	0.090	-0.042
-486.449	53.910	-0.050	0.048
-485.435	-105.780	-0.293	-0.066
-484.420	-27.466	0.415	-0.242
-483.405	-200.000	0.011	0.097
-482.391	-200.000	-0.136	-0.000
-481.376	-99.934	0.125	-0.031
-480.362	-99.889	0.161	-0.040
-479.347	-155.077	0.405	-0.027
-478.332	117.500	0.259	0.319
-477.318	141.805	-0.041	-0.055
-476.303	-38.299	-0.089	0.047
-475.289	-47.424	-0.052	-0.025
-474.274	-64.299	0.260	-0.106
-473.259	337.007	-0.043	-0.084
-472.245	-76.991	-0.445	-0.155
-471.230	-200.000	-0.005	-0.042
-470.216	341.677	0.006	0.012
-469.201	571.600	0.051	0.123
-468.186	-145.193	0.187	-0.017
-467.172	-12.187	0.052	0.034
-466.157	800.000	0.007	-0.021
-465.143	401.908	0.032	0.067
-464.128	-58.781	-0.139	-0.060
-463.113	-200.000	-0.002	0.019
-462.099	3.823	0.240	0.175
-461.084	800.000	0.043	-0.157
-460.070	7.140	-0.259	-0.193
-459.055	-200.000	0.016	0.099
-458.040	-200.000	0.005	-0.044
-457.026	-64.984	-0.075	0.030
-456.011	-200.000	0.015	0.319
-454.997	800.000	0.084	-0.232
-453.982	-23.300	-0.215	-0.129
-452.968	-6.888	0.285	-0.194
-451.953	248.353	-0.052	-0.088
-450.938	123.270	-0.370	0.463
-449.924	163.621	0.162	-0.228
-448.909	181.981	0.132	-0.194
-447.895	7.403	-0.052	-0.039
-446.880	-39.489	-0.131	-0.068
-445.865	-29.384	0.134	0.076
-444.851	469.083	-0.117	-0.262
-443.836	-154.633	0.306	-0.020
-442.822	-93.074	0.284	0.079
-441.807	-200.000	-0.007	0.056
-440.792	800.000	-0.114	0.328
-439.778	-200.000	0.022	-0.397
-438.763	-26.515	-0.312	-0.183
-437.749	-152.042	-0.136	0.010
-436.734	340.362	0.047	0.092
-435.719	-200.000	0.006	-0.156
-434.705	248.437	0.052	-0.089
-433.690	-200.000	0.021	-0.213
-432.676	-200.000	0.034	-0.273
-431.661	-200.000	-0.007	0.107
-430.646	43.095	-0.143	0.131
-429.632	311.404	-0.078	0.147
-428.617	-5.177	-0.191	0.131
-427.603	-64.818	-0.330	-0.133
-426.588	-41.101	-0.212	0.109
-425.573	11.290	0.062	0.047
-424.559	156.862	0.064	0.088
-423.544	-13.900	-0.353	-0.227
-422.530	-69.408	-0.110	0.042
-421.515	800.000	-0.140	0.428
-420.500	108.469	-0.039	-0.047
-419.486	47.962	0.059	0.055
-418.471	23.725	0.105	0.087
-417.457	32.041	-0.051	0.044
-416.442	-47.454	0.336	0.163
-415.428	-41.406	-0.453	-0.233
-414.413	630.484	0.098	0.248
-413.398	800.000	0.043	0.119
-412.384	138.680	-0.254	-0.333
-411.369	-200.000	0.001	-0.076
-410.355	143.110	0.334	0.443
-409.340	-98.100	0.294	0.075
-408.325	-147.052	-0.133	-0.011
-407.311	-0.558	-0.076	0.054
-406.296	-81.263	0.147	-0.048
-405.282	-74.804	-0.047	-0.017
-404.267	-136.401	0.226	-0.026
-403.252	-200.000	-0.049	-0.368
-402.238	-200.000	-0.012	0.138
-401.223	20.275	-0.162	0.131
-400.209	-96.907	0.137	0.036
-399.194	-200.000	-0.032	0.207
-398.179	-180.630	0.175	0.004
-397.165	-200.000	0.030	0.409
-396.150	162.665	-0.093	-0.130
-395.136	-191.718	-0.080	-0.001
-394.121	399.663	0.184	0.384
-393.106	-43.379	0.214	-0.108
-392.092	253.553	0.078	-0.132
-391.077	268.701	0.012	-0.021
-390.063	211.179	-0.111	-0.175
-389.048	68.694	0.100	0.102
-388.033	800.000	-0.079	0.233
-387.019	26.953	-0.295	0.246
-386.004	-97.354	0.270	0.070
-384.990	-200.000	0.021	-0.263
-383.975	-7.135	0.130	-0.088
-382.960	-200.000	-0.046	-0.341
-381.946	508.755	-0.051	-0.118
-380.931	-48.891	-0.274	0.131
-379.917	208.592	0.194	0.302
-378.902	800.000	0.061	-0.175
-377.888	668.647	-0.126	0.326
-376.873	-57.547	0.235	-0.103
-375.858	-108.339	-0.114	-0.025
-374.844	-200.000	-0.023	0.145
-373.829	28.515	0.218	0.184
-372.815	-40.223	0.189	0.098
-371.800	-109.532	-0.241	0.051
-370.785	800.000	-0.027	0.108
-369.771	-200.000	-0.013	0.282
-368.756	-48.253	-0.309	0.148
-367.742	-118.013	0.225	0.040
-366.727	800.000	-0.009	0.032
-365.712	800.000	0.018	0.062
-364.698	616.231	0.095	0.236
-363.683	-200.000	-0.013	0.203
-362.669	145.850	0.088	0.117
-361.654	81.706	0.077	-0.082
-360.639	161.509	0.258	0.359
-359.625	-200.000	0.034	0.194
-358.610	-158.149	0.215	-0.013
-357.596	800.000	-0.051	-0.154
-356.581	17.104	-0.079	0.062
-355.566	127.100	-0.015	-0.019
-354.552	-83.917	-0.092	-0.029
-353.537	-81.075	0.139	0.046
-352.523	-156.051	0.310	0.020
-351.508	-13.321	0.177	-0.114
-350.493	22.489	0.017	0.014
-349.479	-57.479	-0.225	-0.098
-348.464	800.000	-0.167	-0.458
-347.450	800.000	-0.066	0.280
-346.435	-200.000	0.012	-0.081
-345.420	-200.000	0.032	-0.158
-344.406	-48.334	0.062	0.030
-343.391	793.086	0.035	0.095
-342.377	155.810	-0.106	0.146
-341.362	-158.361	0.324	0.019
-340.348	372.224	-0.124	0.250
-339.333	-126.374	0.101	-0.015
-338.318	25.773	0.138	-0.114
-337.304	123.829	-0.106	0.133
-336.289	800.000	-0.125	-0.498
-335.275	-200.000	-0.017	-0.130
-334.260	-29.550	-0.377	0.214
-333.245	-44.293	0.163	0.081
-332.231	-100.823	-0.334	-0.082
-331.216	311.454	-0.071	0.132
-330.202	800.000	-0.117	-0.372
-329.187	63.592	0.050	0.050
-328.172	-200.000	0.027	0.177
-327.158	39.479	-0.179	-0.159
-326.143	-51.016	0.222	-0.103
-325.129	-99.594	-0.061	0.015
-324.114	6.067	-0.116	0.086
-323.099	-184.746	0.194	-0.003
-322.085	93.456	0.076	-0.085
-321.070	-42.292	-0.158	-0.080
-320.056	-27.263	0.267	0.155
-319.041	-9.817	0.231	-0.153
-318.026	-200.000	-0.032	0.427
-317.012	-200.000	0.081	0.389
-315.997	45.010	0.188	-0.172
-314.983	-200.000	-0.010	-0.210
-313.968	-200.000	0.004	-0.330
-312.953	-139.880	0.075	0.008
-311.939	800.000	0.079	0.248
-310.924	-85.938	0.219	-0.067
-309.910	214.947	-0.138	-0.218
-308.895	-135.652	-0.193	0.023
-307.880	-69.059	0.092	0.035
-306.866	-169.842	0.174	-0.006
-305.851	53.461	0.141	-0.135
-304.837	-39.315	0.180	-0.094
-303.822	-23.236	0.174	0.104
-302.807	-70.104	-0.075	-0.028
-301.793	101.785	-0.246	-0.285
-300.778	-200.000	0.027	-0.245
-299.764	-150.256	-0.220	0.017
-298.749	274.303	-0.206	0.362
-297.735	-115.470	0.153	-0.029
-296.720	800.000	0.064	-0.212
-295.705	800.000	-0.013	0.051
-294.691	-52.314	-0.224	0.103
-293.676	142.278	-0.124	-0.163
-292.662	2.137	-0.160	-0.115
-291.647	119.536	0.135	-0.166
-290.632	-113.471	0.329	0.064
-289.618	121.391	0.125	-0.154
-288.603	-132.847	0.133	-0.017
-287.589	214.527	0.082	0.129
-286.574	800.000	0.060	0.195
-285.559	-200.000	0.033	0.278
-284.545	99.216	0.131	0.151
-283.530	-64.325	-0.009	-0.004
-282.516	490.956	-0.098	-0.224
-281.501	415.768	0.058	-0.124
-280.486	-14.467	0.060	-0.039
-279.472	-96.157	0.295	0.078
-278.457	25.130	0.209	0.172
-277.443	-200.000	0.049	0.436
-276.428	-55.759	-0.131	-0.058
-275.413	-95.388	-0.264	-0.070
-274.399	-200.000	-0.000	0.167
-273.384	-74.052	-0.032	0.012
-272.370	149.307	-0.178	-0.240
-271.355	-42.324	-0.102	-0.052
-270.340	-200.000	0.037	0.222
-269.326	171.565	-0.079	-0.112
-268.311	328.607	0.097	-0.185
-267.297	-50.074	0.219	-0.103
-266.282	-32.945	-0.278	0.153
-265.267	800.000	-0.070	-0.206
-264.253	-92.141	-0.028	0.008
-263.238	-200.000	0.005	-0.393
-262.224	496.076	-0.114	-0.260
-261.209	485.851	0.043	-0.098
-260.195	94.637	0.103	0.116
-259.180	800.000	0.075	-0.242
-258.165	-60.051	-0.316	0.134
-257.151	-200.000	-0.035	0.236
-256.136	63.642	-0.069	0.069
-255.122	38.973	-0.283	0.251
-254.107	237.746	-0.092	0.151
-253.092	237.878	-0.107	0.177
-252.078	-200.000	0.005	-0.279
-251.063	-150.151	0.447	0.034
-250.049	692.218	-0.134	-0.347
-249.034	124.265	0.067	0.083
-248.019	421.695	0.129	-0.275
-247.005	-108.666	-0.173	0.037
-245.990	68.873	-0.145	-0.148
-244.976	94.482	0.142	0.159
-243.961	800.000	0.086	-0.264
-242.946	434.332	-0.153	0.329
-241.932	403.585	0.080	-0.167
-240.917	-64.878	0.281	-0.113
-239.903	-34.168	0.193	-0.105
-238.888	38.481	0.183	-0.162
-237.873	704.307	-0.069	0.180
-236.859	-183.702	-0.155	0.003
-235.844	43.368	0.161	-0.146
-234.830	-200.000	0.047	-0.231
-233.815	800.000	0.119	-0.335
-232.800	800.000	0.022	0.079
-231.786	800.000	0.072	0.252
-230.771	379.242	0.154	-0.312
-229.757	312.869	-0.103	-0.192
-228.742	377.544	-0.102	-0.207
-227.727	104.998	-0.074	-0.086
-226.713	600.949	0.086	0.210
-225.698	800.000	0.084	0.271
-224.684	144.474	0.102	0.135
-223.669	517.518	-0.030	0.069
-222.655	-54.673	0.230	0.103
-221.640	-200.000	-0.017	-0.173
-220.625	-200.000	0.023	-0.213
-219.611	-200.000	-0.051	0.000
-218.596	-30.569	0.338	0.190
-217.582	800.000	-0.039	0.154
-216.567	21.791	-0.121	-0.098
-215.552	40.724	-0.119	-0.107
-214.538	-42.069	-0.186	0.094
-213.523	123.179	-0.053	-0.066
-212.509	-109.312	-0.219	0.046
-211.494	19.578	-0.038	-0.030
-210.479	413.232	0.105	0.221
-209.465	-12.207	-0.231	0.149
-208.450	79.592	-0.245	0.261
-207.436	627.126	-0.121	-0.302
-206.421	210.835	-0.189	-0.294
-205.406	123.176	-0.114	0.142
-204.392	134.164	-0.140	-0.179
-203.377	-16.856	-0.195	-0.122
-202.363	85.887	-0.216	0.235
-201.348	-49.434	-0.068	0.032
-200.333	-200.000	0.010	-0.057
-199.319	-200.000	0.077	0.450
-198.304	-200.000	-0.038	0.274
-197.290	-89.855	0.193	-0.056
-196.275	-200.000	0.050	0.245
-195.260	-106.760	-0.134	0.029
-194.246	-26.353	0.164	0.095
-193.231	800.000	-0.083	0.231
-192.217	-200.000	-0.024	0.158
-191.202	6.030	-0.261	-0.191
-190.187	20.662	0.199	-0.159
-189.173	-200.000	-0.004	0.019
-188.158	-200.000	0.018	-0.187
-187.144	134.601	-0.132	0.169
-186.129	-59.091	0.124	-0.053
-185.114	-200.000	0.027	0.327
-184.100	-66.173	0.286	0.113
-183.085	-200.000	-0.447	-0.001
-182.071	23.011	-0.187	-0.152
-181.056	-5.131	0.153	-0.104
-180.042	49.940	-0.040	0.037
-179.027	-200.000	-0.031	-0.212
-178.012	-53.643	0.255	0.115
-176.998	-119.610	0.307	-0.053
-175.983	138.335	-0.320	0.415
-174.969	42.138	0.346	0.310
-173.954	344.734	-0.153	0.296
-172.939	-77.121	0.352	-0.121
-171.925	-200.000	0.032	0.150
-170.910	28.555	-0.172	0.144
-169.896	112.995	-0.121	-0.145
-168.881	-161.253	0.106	-0.005
-167.866	-113.365	-0.145	0.028
-166.852	-100.098	0.043	-0.011
-165.837	-116.615	-0.121	-0.022
-164.823	-186.328	-0.189	0.003
-163.808	-200.000	-0.037	0.181
-162.793	-117.423	0.153	0.027
-161.779	306.733	-0.008	0.015
-160.764	-124.707	-0.141	-0.022
-159.750	-56.024	-0.177	-0.078
-158.735	-121.896	0.219	0.036
-157.720	800.000	0.080	-0.290
-156.706	-200.000	-0.007	0.049
-155.691	185.391	0.085	-0.124
-154.677	800.000	0.065	0.251
-153.662	-200.000	0.019	0.114
-152.647	-200.000	0.009	-0.090
-151.633	-200.000	-0.136	0.001
-150.618	173.547	-0.139	0.199
-149.604	-175.482	0.201	-0.005
-148.589	-117.418	0.086	0.015
-147.574	78.353	0.308	-0.325
-146.560	800.000	0.068	-0.281
-145.545	-32.488	-0.043	-0.023
-144.531	800.000	0.029	-0.081
-143.516	800.000	-0.073	0.226
-142.502	-7.285	-0.188	0.126
-141.487	373.309	-0.201	0.403
-140.472	54.394	-0.046	-0.044
-139.458	-110.755	0.092	-0.019
-138.443	-94.298	-0.174	-0.047
-137.429	-86.088	-0.190	0.058
-136.414	800.000	0.034	-0.105
-135.399	-96.019	0.165	-0.043
-134.385	218.023	0.138	-0.217
-133.370	-134.150	0.269	0.033
-132.356	1.270	-0.031	0.022
-131.341	-200.000	-0.012	0.405
-130.326	-200.000	-0.005	0.176
-129.312	800.000	-0.047	0.132
-128.297	800.000	0.071	0.227
-127.283	-200.000	0.029	0.154
-126.268	51.452	-0.063	-0.059
-125.253	49.436	-0.089	0.083
-124.239	-167.970	-0.172	-0.007
-123.224	-18.258	-0.226	0.140
-122.210	-200.000	0.029	0.373
-121.195	-200.000	-0.017	0.126
-120.180	42.062	0.187	-0.168
-119.166	436.819	0.055	0.118
-118.151	410.153	0.184	-0.385
-117.137	-159.681	0.118	-0.006
-116.122	10.983	-0.192	-0.145
-115.107	138.267	-0.066	0.085
-114.093	145.315	-0.120	0.159
-113.078	-35.610	-0.265	0.142
-112.064	-48.658	0.139	-0.066
-111.049	111.803	0.205	0.244
-110.034	-200.000	-0.021	-0.109
-109.020	-200.000	-0.028	0.343
-108.005	800.000	-0.018	0.056
-106.991	-200.000	-0.042	0.347
-105.976	-200.000	0.004	-0.243
-104.962	67.389	0.076	-0.077
-103.947	-200.000	-0.005	-0.213
-102.932	42.973	0.113	-0.101
-101.918	319.550	-0.034	0.064
-100.903	-3.967	-0.348	0.238
-99.889	15.465	0.448	0.347
-98.874	38.682	0.149	-0.131
-97.859	-56.743	-0.083	-0.036
-96.845	132.524	0.095	-0.121
-95.830	58.144	0.107	-0.104
-94.816	394.492	-0.101	0.207
-93.801	-200.000	-0.059	0.331
-92.786	800.000	-0.014	0.041
-91.772	-53.668	-0.086	-0.039
-90.757	-51.073	0.209	-0.097
-89.743	-200.000	-0.008	0.393
-88.728	-65.860	0.209	0.082
-87.713	-200.000	-0.057	-0.365
-86.699	-200.000	0.003	-0.178
-85.684	12.409	-0.204	0.155
-84.670	-85.663	0.199	-0.061
-83.655	-11.135	0.141	0.091
-82.640	300.078	0.205	0.373
-81.626	-49.023	-0.052	0.024
-80.611	202.290	0.115	0.175
-79.597	-200.000	0.043	0.211
-78.582	-132.203	0.095	-0.012
-77.567	-146.400	-0.112	-0.010
-76.553	125.327	0.175	-0.218
-75.538	200.817	0.105	-0.159
-74.524	-114.379	-0.161	-0.030
-73.509	24.283	0.159	0.129
-72.494	75.043	0.113	0.117
-71.480	236.550	0.078	-0.126
-70.465	-200.000	-0.020	-0.196
-69.451	-200.000	-0.039	0.187
-68.436	-200.000	-0.033	0.197
-67.422	-122.930	0.371	0.059
-66.407	-200.000	0.008	0.333
-65.392	-5.838	0.303	-0.204
-64.378	-92.315	0.225	-0.063
-63.363	-64.127	-0.051	-0.020
-62.349	-200.000	-0.015	-0.071
-61.334	50.603	-0.814	-0.758
-60.319	207.073	0.335	0.514
-59.305	632.719	-0.327	-0.816
-58.290	572.632	0.356	0.853
-57.276	766.010	0.416	1.111
-56.261	-200.000	95.679	591.512
-55.246	568.237	1365.914	3264.807
-54.232	162.812	2539.095	3506.756
-53.217	113.049	2155.295	2570.518
-52.203	42.970	1703.479	1528.027
-51.188	35.456	1517.609	1310.198
-50.173	33.112	1490.405	1270.927
-49.159	52.019	1539.407	1442.339
-48.144	53.884	1556.783	1471.306
-47.130	35.687	1517.315	1311.315
-46.115	32.652	1502.069	1277.549
-45.100	32.403	1499.029	1273.229
-44.086	32.454	1497.051	1271.847
-43.071	32.357	1495.243	1269.606
-42.057	32.237	1493.843	1267.557
-41.042	32.369	1491.933	1266.771
-40.027	32.345	1490.700	1265.514
-39.013	32.286	1489.425	1263.984
-37.998	32.346	1487.861	1263.008
-36.984	32.292	1486.968	1261.840
-35.969	32.381	1485.286	1260.957
-34.954	32.328	1483.853	1259.340
-33.940	32.375	1482.786	1258.695
-32.925	32.374	1480.870	1257.013
-31.911	32.409	1479.672	1256.177
-30.896	32.381	1478.836	1255.235
-29.881	32.356	1477.167	1253.603
-28.867	32.413	1475.791	1252.760
-27.852	32.397	1474.373	1251.400
-26.838	32.343	1473.427	1250.191
-25.823	32.412	1471.388	1248.872
-24.809	32.311	1469.761	1246.772
-23.794	32.271	1468.379	1245.281
-22.779	32.389	1466.899	1244.762
-21.765	32.339	1466.142	1243.735
-20.750	32.352	1465.186	1242.960
-19.736	32.337	1463.775	1241.616
-18.721	32.235	1462.926	1240.174
-17.706	32.285	1461.729	1239.443
-16.692	32.459	1460.050	1239.114
-15.677	32.223	1459.513	1237.052
-14.663	32.197	1458.725	1236.166
-13.648	32.198	1457.840	1235.375
-12.633	32.305	1456.586	1234.965
-11.619	32.195	1456.015	1233.710
-10.604	32.238	1454.820	1232.932
-9.590	32.324	1453.893	1232.658
-8.575	32.264	1453.357	1231.763
-7.560	32.241	1452.603	1230.922
-6.546	32.240	1451.662	1230.070
-5.531	32.356	1450.622	1229.898
-4.517	32.212	1449.577	1228.025
-3.502	32.225	1448.138	1226.843
-2.487	32.143	1447.770	1225.943
-1.473	32.284	1446.107	1225.410
-0.458	32.213	1445.298	1224.209
0.556	32.879	1435.267	1213.528
1.571	30.054	1410.952	1174.979
2.586	26.825	1357.189	1110.374
3.600	25.262	1279.420	1037.627
4.615	23.840	1230.899	990.272
5.629	20.459	1173.381	925.929
6.644	10.962	1086.137	809.933
7.659	3.489	1044.013	742.577
8.673	2.445	1038.776	733.785
9.688	1.985	1035.966	729.533
10.702	2.012	1034.019	728.227
11.717	1.979	1032.092	726.650
12.731	5.528	1036.455	746.607
13.746	15.338	1050.327	803.759
14.761	23.050	1060.103	848.320
15.775	25.082	1062.053	859.560
16.790	25.401	1061.729	860.753
17.804	25.195	1060.975	859.076
18.819	25.012	1060.132	857.444
19.834	25.267	1059.263	857.885
20.848	25.404	1058.854	858.131
21.863	25.296	1058.993	857.654
22.877	25.409	1058.086	857.379
23.892	25.307	1057.378	856.246
24.907	25.262	1056.825	855.509
25.921	25.269	1056.097	854.875
26.936	25.247	1055.420	854.145
27.950	25.300	1054.332	853.441
28.965	25.298	1052.998	852.279
29.980	25.116	1051.667	850.264
30.994	25.105	1050.668	849.327
32.009	25.351	1050.044	849.914
33.023	25.346	1049.402	849.295
34.038	25.299	1047.911	847.789
35.053	25.082	1047.281	846.181
36.067	25.499	1046.366	847.334
37.082	25.247	1046.104	845.858
38.096	25.408	1044.798	845.486
39.111	25.498	1044.338	845.464
40.126	25.656	1043.227	845.230
41.140	25.468	1042.341	843.556
42.155	25.322	1040.667	841.440
43.169	24.974	1039.724	838.976
44.184	25.033	1038.582	838.256
45.199	25.030	1037.749	837.494
46.213	24.895	1036.625	835.885
47.228	24.969	1035.679	835.389
48.242	25.137	1035.181	835.698
49.257	25.177	1034.463	835.233
50.271	25.249	1033.734	834.905
51.286	25.315	1033.082	834.609
52.301	25.387	1032.478	834.385
53.315	25.392	1031.615	833.635
54.330	25.280	1031.242	832.741
55.344	25.219	1030.328	831.645
56.359	25.372	1028.834	831.074
57.374	25.343	1028.195	830.349
58.388	25.137	1027.287	828.592
59.403	25.115	1026.734	827.973
60.417	25.225	1025.468	827.384
61.432	24.809	1024.994	825.008
62.447	24.885	1024.574	824.949
63.461	25.105	1023.573	825.083
64.476	25.193	1022.843	824.828
65.490	25.137	1021.865	823.708
66.505	24.869	1021.237	821.901
67.520	24.997	1020.240	821.612
68.534	25.192	1019.350	821.714
69.549	24.934	1019.130	820.284
70.563	24.681	1017.549	817.778
71.578	24.586	1016.960	816.801
72.593	24.677	1016.008	816.378
73.607	24.384	1014.989	814.152
74.622	24.399	1014.115	813.447
75.636	24.669	1013.690	814.264
76.651	24.867	1013.262	814.751
77.666	24.751	1011.916	813.068
78.680	24.687	1011.192	812.124
79.695	24.693	1010.845	811.800
80.709	24.828	1010.094	811.736
81.724	24.959	1009.212	811.551
82.739	24.863	1008.356	810.353
83.753	24.948	1007.347	809.857
84.768	25.113	1007.146	810.371
85.782	25.457	1006.698	811.494
86.797	25.675	1005.769	811.655
87.812	25.688	1004.667	810.752
88.826	25.506	1003.898	809.242
89.841	25.478	1002.787	808.146
90.855	25.576	1001.763	807.690
91.870	25.671	1001.584	807.901
92.884	25.661	1000.276	806.730
93.899	25.532	999.343	805.329
94.914	25.299	998.909	803.866
95.928	25.498	997.952	803.914
96.943	25.540	997.139	803.377
97.957	25.130	996.312	800.806
98.972	25.024	994.903	799.131
99.987	24.781	994.040	797.285
101.001	24.967	993.443	797.563
102.016	25.301	992.735	798.410
103.030	25.378	992.109	798.178
104.045	25.354	990.662	796.836
105.060	25.116	989.740	794.969
106.074	24.947	988.353	793.035
107.089	25.069	987.720	793.000
108.103	25.308	987.929	794.153
109.118	25.180	987.165	792.904
110.133	25.067	985.225	790.778
111.147	25.082	984.749	790.390
112.162	25.023	983.052	788.697
113.176	24.681	982.716	786.856
114.191	24.729	982.223	786.601
115.206	25.003	981.253	786.958
116.220	24.649	980.303	784.575
117.235	24.526	978.791	782.754
118.249	24.620	978.711	783.034
119.264	24.794	977.343	782.630
120.279	24.601	976.777	781.263
121.293	24.669	975.730	780.657
122.308	24.824	974.902	780.598
123.322	24.784	974.585	780.101
124.337	24.774	973.518	779.133
125.352	24.648	972.343	777.577
126.366	24.225	970.738	774.388
127.381	23.811	969.246	771.334
128.395	24.429	969.217	773.924
129.410	25.084	969.090	776.593
130.424	25.320	968.155	776.795
131.439	25.169	967.114	775.239
132.454	25.180	966.268	774.541
133.468	25.230	965.462	774.039
134.483	25.101	964.655	772.771
135.497	25.211	963.840	772.521
136.512	25.379	962.984	772.490
137.527	25.513	962.539	772.640
138.541	25.441	961.762	771.638
139.556	25.502	960.993	771.215
140.570	25.425	960.311	770.270
141.585	25.572	959.016	769.792
142.600	25.502	958.992	769.405
143.614	25.357	958.351	768.202
144.629	25.585	956.996	768.021
145.643	25.857	956.431	768.661
146.658	25.739	955.373	767.241
147.673	25.501	953.861	764.945
148.687	25.436	953.252	764.114
149.702	25.451	951.816	762.958
150.716	25.198	951.254	761.366
151.731	24.976	950.682	759.899
152.746	25.368	949.674	760.689
153.760	25.445	949.093	760.481
154.775	25.547	948.536	760.400
155.789	25.577	948.079	760.094
156.804	25.578	946.676	758.904
157.819	25.543	945.547	757.783
158.833	25.612	945.074	757.629
159.848	25.707	944.447	757.458
160.862	25.730	943.916	757.063
161.877	25.554	942.853	755.405
162.892	25.603	941.484	754.446
163.906	25.646	941.007	754.177
164.921	25.535	939.810	752.687
165.935	25.515	939.124	751.987
166.950	25.512	938.481	751.393
167.964	25.740	937.332	751.358
168.979	25.697	936.268	750.258
169.994	25.465	935.699	748.772
171.008	25.523	934.155	747.709
172.023	25.495	933.603	747.086
173.037	25.611	933.160	747.147
174.052	25.443	931.944	745.411
175.067	25.400	930.693	744.167
176.081	25.385	929.946	743.441
177.096	25.386	929.291	742.857
178.110	25.402	928.498	742.220
179.125	25.270	927.206	740.578
180.140	24.968	926.311	738.552
181.154	24.964	925.743	738.018
182.169	25.122	925.662	738.538
183.183	25.506	925.177	739.669
184.198	25.607	924.735	739.664
185.213	25.598	924.011	738.982
186.227	25.442	923.580	737.932
187.242	25.526	923.179	737.890
188.256	25.671	922.036	737.505
189.271	25.648	921.468	736.893
190.286	25.773	920.842	736.837
191.300	25.567	920.121	735.354
192.315	25.005	918.403	731.622
193.329	24.250	917.036	727.389
194.344	23.852	915.843	724.753
195.359	24.444	916.431	727.570
196.373	25.372	916.222	731.118
197.388	25.660	916.173	732.189
198.402	25.473	915.510	730.834
199.417	25.436	915.264	730.421
200.432	25.562	914.694	730.413
201.446	25.389	913.858	728.979
202.461	25.009	913.136	726.800
203.475	25.119	912.971	727.050
204.490	24.745	911.205	724.065
205.504	23.507	909.073	717.301
206.519	24.100	908.901	719.499
207.534	25.081	909.447	723.831
208.548	24.962	909.003	722.935
209.563	25.476	908.786	724.771
210.577	25.320	908.168	723.585
211.592	25.231	906.936	722.181
212.607	25.613	906.966	723.679
213.621	25.656	906.837	723.687
214.636	25.678	905.354	722.525
215.650	25.709	905.168	722.437
216.665	25.651	904.585	721.678
217.680	25.579	904.203	721.017
218.694	25.665	904.185	721.287
219.709	25.408	902.693	719.004
220.723	24.989	901.719	716.487
221.738	25.384	901.251	717.632
222.753	25.454	900.905	717.571
223.767	25.554	899.791	717.022
224.782	25.646	899.086	716.764
225.796	25.590	899.014	716.418
226.811	25.816	898.455	716.807
227.826	25.375	897.170	713.966
228.840	24.600	895.712	709.666
229.855	24.531	895.189	708.916
230.869	24.679	894.758	709.097
231.884	24.448	893.633	707.227
232.899	24.484	893.371	707.103
233.913	25.320	893.424	710.392
234.928	25.506	892.846	710.604
235.942	25.314	892.447	709.463
236.957	25.339	891.974	709.126
237.972	25.143	890.595	707.191
238.986	25.004	890.212	706.279
240.001	25.147	889.490	706.206
241.015	25.178	888.976	705.859
242.030	25.131	888.466	705.203
243.045	25.463	887.826	705.939
244.059	25.443	887.586	705.608
245.074	25.762	886.938	706.279
246.088	25.646	886.156	705.141
247.103	25.235	885.364	702.840
248.117	25.306	884.833	702.632
249.132	25.826	884.861	704.628
250.147	26.180	884.609	705.747
251.161	26.323	884.188	705.909
252.176	26.354	883.872	705.714
253.190	26.400	882.780	704.962
254.205	26.485	882.322	704.863
255.220	26.571	882.471	705.256
256.234	26.585	881.652	704.594
257.249	26.491	881.028	703.668
258.263	26.483	879.917	702.687
259.278	26.267	879.591	701.525
260.293	26.356	879.473	701.712
261.307	26.294	879.143	701.148
262.322	26.511	878.008	701.021
263.336	26.295	877.336	699.588
264.351	25.718	876.401	696.546
265.366	24.790	874.174	691.131
266.380	24.355	873.339	688.733
267.395	25.155	873.830	692.148
268.409	26.043	873.628	695.350
269.424	25.826	873.022	693.970
270.439	26.021	872.419	694.179
271.453	26.178	871.793	694.223
272.468	26.282	871.048	693.970
273.482	26.371	871.057	694.255
274.497	26.526	870.783	694.571
275.512	26.279	869.344	692.415
276.526	25.594	868.493	689.056
277.541	25.750	867.955	689.162
278.555	26.185	867.777	690.624
279.570	26.021	867.001	689.321
280.585	25.856	866.358	688.118
281.599	26.021	866.025	688.422
282.614	26.254	865.248	688.630
283.628	25.639	864.004	685.240
284.643	25.298	863.426	683.422
285.657	25.727	863.445	685.010
286.672	25.635	862.649	683.966
287.687	25.138	861.803	681.349
288.701	25.493	861.492	682.391
289.716	25.949	861.225	683.847
290.730	25.472	860.225	681.185
291.745	25.482	859.660	680.715
292.760	25.354	858.552	679.296
293.774	25.174	858.192	678.270
294.789	26.113	858.632	682.109
295.803	26.896	858.606	684.983
296.818	26.757	858.162	684.045
297.833	26.817	857.997	684.078
298.847	26.461	856.874	681.783
299.862	26.212	855.698	679.846
300.876	26.477	855.173	680.367
301.891	26.738	854.600	680.832
302.906	26.784	854.228	680.650
303.920	26.417	853.240	678.425
304.935	26.290	852.787	677.528
305.949	26.656	852.699	678.771
306.964	26.882	851.902	678.922
307.979	26.628	851.126	677.293
308.993	26.439	851.133	676.531
310.008	26.748	850.918	677.457
311.022	26.993	850.200	677.740
312.037	26.684	849.479	675.952
313.052	26.421	848.815	674.384
314.066	26.274	848.053	673.172
315.081	25.728	846.714	670.018
316.095	24.952	845.262	665.924
317.110	25.446	845.794	668.124
318.125	26.396	845.969	671.734
319.139	25.887	845.307	669.258
320.154	24.808	843.233	663.557
321.168	24.402	841.837	660.895
322.183	24.972	842.189	663.223
323.197	25.899	843.117	667.330
324.212	26.259	842.695	668.269
325.227	26.367	842.507	668.463
326.241	26.603	841.679	668.618
327.256	26.572	840.974	667.883
328.270	26.322	840.319	666.384
329.285	26.325	839.731	665.867
330.300	26.053	838.978	664.210
331.314	25.920	838.339	663.157
332.329	25.954	837.683	662.705
333.343	26.478	837.425	664.366
334.358	26.666	837.030	664.686
335.373	26.784	836.306	664.483
336.387	26.686	836.039	663.854
337.402	26.950	835.656	664.455
338.416	26.981	835.375	664.288
339.431	27.141	835.012	664.527
340.446	27.008	834.614	663.664
341.460	27.161	834.065	663.726
342.475	27.245	833.269	663.343
343.489	27.056	832.558	662.029
344.504	26.916	832.293	661.247
345.519	27.232	831.602	661.793
346.533	27.527	831.360	662.613
347.548	27.367	831.528	662.105
348.562	27.344	831.049	661.583
349.577	27.426	830.219	661.160
350.592	27.344	829.506	660.236
351.606	27.331	828.872	659.627
352.621	27.294	828.424	659.079
353.635	27.309	828.190	658.887
354.650	27.215	827.823	658.200
355.665	26.927	826.386	655.955
356.679	25.763	825.150	650.712
357.694	25.742	824.473	650.047
358.708	26.274	824.560	651.979
359.723	26.418	823.885	651.906
360.738	26.659	823.478	652.393
361.752	27.087	823.557	653.940
362.767	27.154	823.049	653.719
363.781	27.404	823.134	654.628
364.796	27.773	822.668	655.527
365.810	27.696	822.181	654.803
366.825	27.732	822.161	654.856
367.840	27.922	821.580	655.018
368.854	27.571	821.095	653.318
369.869	27.298	819.945	651.367
370.883	27.064	819.255	649.924
371.898	27.227	819.115	650.338
372.913	27.142	818.316	649.341
373.927	27.137	817.684	648.767
374.942	27.188	817.336	648.615
375.956	27.326	816.247	648.182
376.971	27.425	816.253	648.485
377.986	27.528	815.835	648.460
379.000	27.681	815.274	648.503
380.015	27.717	814.783	648.183
381.029	27.650	814.101	647.344
382.044	27.427	813.567	646.072
383.059	27.637	812.983	646.296
384.073	27.722	812.670	646.288
385.088	27.673	811.869	645.423
386.102	27.695	811.561	645.198
387.117	27.527	810.826	643.963
388.132	27.499	810.165	643.280
389.146	27.286	809.268	641.761
390.161	26.762	808.188	639.000
391.175	26.856	808.259	639.333
392.190	27.460	808.180	641.341
393.205	27.338	807.881	640.617
394.219	26.262	805.832	635.154
395.234	24.793	803.290	627.942
396.248	23.992	802.382	624.367
397.263	24.958	803.919	628.903
398.278	26.916	804.991	636.565
399.292	27.304	804.905	637.798
400.307	27.064	803.974	636.164
401.321	26.960	803.759	635.575
402.336	27.101	803.485	635.796
403.350	27.419	803.203	636.627
404.365	27.844	803.288	638.125
405.380	28.045	803.144	638.657
406.394	28.396	803.080	639.775
407.409	28.621	802.293	639.874
408.423	28.568	801.956	639.364
409.438	28.533	801.067	638.477
410.453	28.353	800.970	637.716
411.467	28.629	800.516	638.261
412.482	28.288	800.120	636.703
413.496	28.337	799.231	636.107
414.511	28.654	799.098	637.046
415.526	28.402	798.721	635.817
416.540	28.262	798.617	635.191
417.555	28.292	797.749	634.549
418.569	28.099	797.209	633.394
419.584	28.006	796.534	632.479
420.599	28.134	796.149	632.561
421.613	111.491	1284.994	1458.758
422.628	96.103	1356.203	1458.885
