DTS Sentinel unit serial number:	SN413079Multiplexer serial number:	ORYXHardware model number:	OX4-SRSoftware version number:	ORYX F/W v4.00 Oryx Data Collector v3.7.2.0data status	okinstallation	princeton_trtdifferential loss correction	single-endedforward channel	channel 3reverse channel	N/Adate	2019/09/11time	03:54:11forward acquisition time	60.00reverse acquisition time	0.00gamma	496.2192k internal	0.2330k external	0.2330temperature offset calibration	0.9911default loss term (dB/km)	0.3790temperature slope calibration	1.0000multiplexer offset coefficient	1.0000multiplexer slope coefficient	1.0000fibre end	0.00T internal ref (°C)	29.56T ext. ref 1 (°C)	-0.29T ext. ref 2 (°C)	23.63length (m)	temperature (°C)	Stokes	anti-Stokes-747.200	-156.478	0.242	-0.015
-746.185	81.875	0.195	0.213
-745.171	39.301	-0.063	0.057
-744.156	10.167	-0.145	0.111
-743.142	-35.858	0.309	-0.168
-742.127	121.634	-0.222	0.279
-741.112	137.365	0.195	0.257
-740.098	-200.000	0.004	0.031
-739.083	-175.173	0.170	0.005
-738.069	-200.000	-0.004	0.176
-737.054	54.041	0.053	0.051
-736.039	-68.042	-0.471	-0.185
-735.025	-200.000	0.003	-0.122
-734.010	-19.784	-0.095	-0.059
-732.996	243.305	-0.125	-0.211
-731.981	477.602	-0.131	-0.298
-730.966	357.876	-0.137	0.275
-729.952	-200.000	-0.012	-0.101
-728.937	-43.870	0.175	-0.089
-727.923	-200.000	-0.002	-0.223
-726.908	-200.000	0.056	-0.397
-725.894	5.309	0.222	-0.165
-724.879	99.569	0.072	-0.084
-723.864	-144.959	-0.260	0.024
-722.850	-200.000	0.017	0.125
-721.835	-200.000	0.070	0.504
-720.821	-200.000	0.036	-0.248
-719.806	-200.000	0.061	-0.334
-718.791	-139.140	0.075	0.008
-717.777	-101.992	-0.355	0.086
-716.762	-130.143	0.069	-0.010
-715.748	-200.000	0.040	-0.371
-714.733	800.000	0.011	-0.044
-713.718	-105.383	0.156	0.036
-712.704	24.052	0.152	-0.126
-711.689	-74.748	-0.087	0.031
-710.675	-22.429	-0.087	0.053
-709.660	130.384	0.121	-0.156
-708.645	16.703	0.160	-0.128
-707.631	-53.562	0.226	0.104
-706.616	-181.398	-0.121	-0.002
-705.602	100.529	0.101	-0.118
-704.587	800.000	0.014	-0.053
-703.572	-200.000	-0.055	-0.290
-702.558	217.237	0.071	-0.113
-701.543	800.000	-0.014	-0.050
-700.529	568.744	-0.077	0.187
-699.514	307.516	-0.146	-0.273
-698.499	-130.116	-0.231	0.032
-697.485	-121.288	0.127	-0.021
-696.470	-121.471	0.244	-0.041
-695.456	-200.000	0.016	0.097
-694.441	602.999	-0.092	0.230
-693.426	210.666	-0.057	0.089
-692.412	86.648	-0.139	0.154
-691.397	389.291	-0.115	-0.239
-690.383	-104.532	-0.159	0.037
-689.368	800.000	0.058	0.190
-688.354	-11.929	0.083	-0.055
-687.339	-163.264	0.197	0.009
-686.324	-5.805	-0.151	0.104
-685.310	-142.460	0.185	-0.018
-684.295	-200.000	0.014	-0.097
-683.281	-67.686	-0.099	0.039
-682.266	48.152	0.130	-0.122
-681.251	-91.869	-0.309	-0.088
-680.237	175.058	0.200	-0.291
-679.222	800.000	0.074	-0.226
-678.208	-110.975	-0.145	0.030
-677.193	800.000	0.053	0.202
-676.178	-48.352	-0.094	-0.046
-675.164	47.458	0.114	0.106
-674.149	692.416	0.089	-0.235
-673.135	338.711	-0.035	0.069
-672.120	-84.620	-0.174	-0.055
-671.105	257.901	0.028	-0.048
-670.091	-200.000	0.007	-0.041
-669.076	212.714	0.130	-0.206
-668.062	182.669	0.175	0.259
-667.047	9.918	-0.088	-0.067
-666.032	-29.712	-0.092	0.053
-665.018	553.290	0.062	0.150
-664.003	-200.000	-0.012	0.097
-662.989	24.184	0.030	-0.025
-661.974	57.606	-0.153	0.150
-660.959	59.006	0.127	0.125
-659.945	-62.343	-0.106	0.044
-658.930	-9.485	0.467	-0.313
-657.916	-57.622	0.164	-0.072
-656.901	-166.043	0.192	-0.008
-655.886	-1.446	-0.142	-0.101
-654.872	-111.885	0.298	-0.060
-653.857	304.182	0.042	-0.079
-652.843	-200.000	-0.017	-0.321
-651.828	-200.000	-0.005	0.270
-650.814	-183.298	-0.218	0.004
-649.799	113.431	-0.150	-0.182
-648.784	11.575	0.040	-0.030
-647.770	152.714	-0.150	-0.206
-646.755	334.102	0.185	-0.359
-645.741	89.565	0.163	-0.183
-644.726	800.000	0.092	0.324
-643.711	-28.970	-0.136	-0.078
-642.697	371.741	-0.137	-0.280
-641.682	-121.966	-0.132	-0.022
-640.668	-43.118	-0.241	0.122
-639.653	-48.310	-0.250	0.121
-638.638	-190.561	-0.368	0.004
-637.624	800.000	-0.015	0.046
-636.609	-200.000	-0.016	0.094
-635.595	581.005	-0.048	-0.119
-634.580	7.846	0.110	0.083
-633.565	-97.653	-0.170	0.044
-632.551	-57.296	0.147	-0.065
-631.536	-0.145	-0.097	-0.069
-630.522	-55.603	-0.097	-0.043
-629.507	181.231	0.126	-0.185
-628.492	-200.000	-0.046	-0.288
-627.478	-75.799	-0.250	0.089
-626.463	71.631	0.178	-0.186
-625.449	38.496	0.237	-0.212
-624.434	318.783	0.081	-0.154
-623.419	-200.000	0.004	0.100
-622.405	480.342	0.033	0.075
-621.390	45.700	-0.092	0.085
-620.376	-200.000	0.014	0.099
-619.361	0.814	-0.181	-0.130
-618.346	147.948	-0.161	0.218
-617.332	-132.928	0.177	0.023
-616.317	-200.000	-0.048	-0.344
-615.303	-93.630	0.172	0.048
-614.288	28.056	-0.326	0.276
-613.273	-65.842	-0.229	0.092
-612.259	22.672	0.170	-0.140
-611.244	800.000	0.069	-0.194
-610.230	83.495	0.064	-0.070
-609.215	-84.868	-0.174	0.055
-608.201	269.238	0.006	-0.011
-607.186	52.908	-0.267	0.256
-606.171	800.000	0.033	-0.126
-605.157	92.020	0.102	0.115
-604.142	-68.691	0.172	0.066
-603.128	-20.549	0.387	-0.238
-602.113	-19.836	-0.183	-0.113
-601.098	-88.852	-0.510	0.151
-600.084	212.051	-0.135	-0.213
-599.069	54.892	-0.131	0.127
-598.055	240.525	-0.098	0.163
-597.040	-144.073	-0.175	0.016
-596.025	75.184	-0.371	-0.391
-595.011	34.110	0.091	0.080
-593.996	-200.000	0.005	-0.152
-592.982	-200.000	0.004	0.085
-591.967	-200.000	0.013	0.144
-590.952	-200.000	0.017	0.147
-589.938	-46.224	0.188	-0.092
-588.923	105.273	-0.198	-0.234
-587.909	-200.000	0.008	0.324
-586.894	-200.000	0.005	0.142
-585.879	-93.017	0.307	-0.086
-584.865	800.000	-0.013	-0.053
-583.850	-16.157	0.092	0.058
-582.836	-81.011	-0.178	-0.059
-581.821	800.000	-0.058	-0.198
-580.806	91.297	0.312	-0.350
-579.792	-177.766	-0.134	0.003
-578.777	-141.181	-0.485	0.049
-577.763	-200.000	0.004	0.024
-576.748	121.708	0.217	0.271
-575.733	-200.000	-0.045	-0.270
-574.719	800.000	-0.115	-0.346
-573.704	-200.000	-0.047	-0.209
-572.690	0.729	-0.241	0.173
-571.675	-200.000	-0.019	0.306
-570.661	140.409	0.135	0.178
-569.646	-200.000	0.046	-0.225
-568.631	-91.079	-0.241	0.069
-567.617	-20.593	0.096	-0.059
-566.602	425.262	-0.074	-0.159
-565.588	-113.784	0.076	-0.015
-564.573	-50.539	0.128	-0.060
-563.558	-146.772	-0.138	-0.012
-562.544	-87.396	0.524	-0.159
-561.529	175.463	-0.152	0.220
-560.515	176.798	-0.172	0.250
-559.500	139.065	0.031	0.040
-558.485	-74.540	-0.302	-0.109
-557.471	152.417	-0.081	-0.110
-556.456	-52.024	-0.217	-0.101
-555.442	-73.802	0.074	-0.027
-554.427	-73.842	-0.096	0.035
-553.412	-41.755	0.189	0.097
-552.398	0.594	0.310	0.221
-551.383	194.583	0.169	0.255
-550.369	800.000	-0.064	-0.240
-549.354	-27.853	0.218	0.126
-548.339	27.671	-0.030	0.025
-547.325	-129.298	0.273	-0.038
-546.310	77.413	-0.107	0.114
-545.296	-74.090	0.308	0.111
-544.281	154.211	0.100	0.137
-543.266	59.725	-0.259	-0.256
-542.252	-200.000	-0.042	0.283
-541.237	20.534	0.165	0.134
-540.223	-115.724	0.198	0.037
-539.208	26.744	-0.313	-0.262
-538.193	-117.400	0.171	0.031
-537.179	-56.072	-0.238	0.106
-536.164	717.276	-0.108	-0.286
-535.150	-200.000	0.018	0.156
-534.135	54.976	0.173	0.166
-533.121	-200.000	0.008	-0.109
-532.106	793.487	0.021	0.058
-531.091	-81.118	0.195	0.064
-530.077	800.000	-0.098	-0.391
-529.062	-146.118	-0.318	-0.028
-528.048	-19.280	0.409	-0.254
-527.033	-88.332	0.158	0.047
-526.018	-101.127	0.210	0.051
-525.004	36.127	-0.129	-0.113
-523.989	-7.064	-0.153	0.103
-522.975	-172.876	0.210	0.006
-521.960	560.287	0.118	-0.283
-520.945	693.510	0.055	-0.143
-519.931	169.880	0.057	-0.081
-518.916	-133.425	0.309	-0.039
-517.902	87.160	0.062	-0.068
-516.887	-95.200	0.310	-0.083
-515.872	-82.208	-0.066	0.021
-514.858	-75.111	-0.130	-0.046
-513.843	-129.583	-0.224	0.031
-512.829	139.854	-0.150	0.198
-511.814	-70.214	0.196	-0.074
-510.799	465.667	0.091	-0.203
-509.785	-10.777	0.083	0.055
-508.770	-39.317	0.384	-0.201
-507.756	-8.788	0.177	0.118
-506.741	87.754	0.124	0.137
-505.726	-72.986	0.088	0.032
-504.712	3.285	0.113	0.082
-503.697	268.782	-0.043	-0.075
-502.683	-45.227	-0.108	-0.054
-501.668	-110.216	0.129	-0.027
-500.653	-200.000	0.029	0.286
-499.639	-37.963	-0.442	0.234
-498.624	-1.309	-0.065	-0.046
-497.610	-200.000	-0.049	-0.443
-496.595	-41.606	-0.271	0.139
-495.581	393.964	-0.095	-0.197
-494.566	205.751	0.104	-0.161
-493.551	196.393	0.175	-0.266
-492.537	44.341	0.026	-0.023
-491.522	800.000	0.084	0.349
-490.508	48.560	0.135	0.126
-489.493	-130.728	0.174	-0.023
-488.478	-200.000	-0.000	-0.082
-487.464	745.916	-0.047	-0.127
-486.449	-108.514	-0.072	-0.015
-485.435	289.649	-0.075	0.136
-484.420	-90.708	-0.485	-0.140
-483.405	36.767	-0.147	-0.130
-482.391	588.288	-0.077	-0.190
-481.376	30.668	-0.196	0.167
-480.362	223.684	0.074	0.119
-479.347	-92.910	0.213	-0.059
-478.332	71.937	0.163	0.169
-477.318	52.682	0.261	0.249
-476.303	53.135	-0.022	-0.021
-475.289	-102.131	0.350	-0.084
-474.274	-200.000	0.028	-0.327
-473.259	-161.478	-0.191	0.010
-472.245	137.675	-0.194	0.252
-471.230	-64.137	0.145	0.059
-470.216	-95.003	0.259	0.070
-469.201	-200.000	-0.015	0.090
-468.186	764.810	-0.025	0.068
-467.172	-11.833	-0.153	-0.100
-466.157	8.871	0.288	-0.216
-465.143	60.788	0.133	-0.131
-464.128	256.963	-0.139	-0.238
-463.113	800.000	-0.052	-0.209
-462.099	-7.481	-0.225	0.152
-461.084	-133.635	-0.208	-0.026
-460.070	-64.275	-0.188	-0.076
-459.055	800.000	0.139	-0.557
-458.040	-74.208	0.421	-0.152
-457.026	-200.000	-0.085	-0.478
-456.011	336.967	0.094	0.182
-454.997	-200.000	-0.023	0.183
-453.982	-101.241	-0.067	-0.016
-452.968	-53.774	0.117	-0.053
-451.953	233.479	0.134	-0.219
-450.938	-200.000	-0.148	0.001
-449.924	-106.580	0.467	-0.104
-448.909	-27.961	-0.247	-0.142
-447.895	335.853	0.058	-0.113
-446.880	192.845	0.216	0.325
-445.865	-60.656	-0.178	-0.075
-444.851	-61.631	0.186	-0.078
-443.836	-167.401	-0.144	0.006
-442.822	-117.782	-0.140	0.025
-441.807	-191.270	0.143	0.001
-440.792	-200.000	0.010	0.223
-439.778	117.035	-0.085	-0.104
-438.763	-29.827	-0.229	0.130
-437.749	28.700	0.054	-0.046
-436.734	-78.095	-0.340	0.116
-435.719	-110.497	0.281	0.058
-434.705	38.408	-0.092	-0.082
-433.690	800.000	-0.075	0.292
-432.676	612.207	0.094	0.233
-431.661	-185.106	-0.179	0.003
-430.646	-200.000	-0.008	-0.052
-429.632	17.507	-0.268	-0.212
-428.617	800.000	0.065	-0.232
-427.603	-96.346	0.079	0.021
-426.588	-200.000	0.005	0.038
-425.573	6.306	-0.088	0.065
-424.559	245.861	0.055	0.092
-423.544	209.320	-0.109	-0.171
-422.530	-127.129	-0.013	0.002
-421.515	-58.176	0.084	0.036
-420.500	37.339	-0.052	0.046
-419.486	800.000	-0.006	-0.019
-418.471	121.595	0.096	0.119
-417.457	-200.000	-0.071	0.406
-416.442	-200.000	-0.003	0.104
-415.428	800.000	-0.039	0.158
-414.413	-200.000	0.023	0.323
-413.398	-171.841	0.122	0.004
-412.384	-20.329	-0.180	0.110
-411.369	-24.500	-0.232	0.137
-410.355	-200.000	0.010	-0.095
-409.340	28.410	0.392	0.330
-408.325	-200.000	0.001	-0.016
-407.311	-60.965	-0.241	-0.101
-406.296	-71.441	0.530	-0.197
-405.282	-151.602	-0.176	-0.013
-404.267	-15.438	-0.197	0.125
-403.252	-115.341	0.305	-0.057
-402.238	-169.306	0.150	0.005
-401.223	104.716	0.299	-0.350
-400.209	171.831	0.216	-0.308
-399.194	-89.399	0.128	-0.037
-398.179	357.304	0.052	-0.102
-397.165	37.591	-0.096	0.084
-396.150	217.381	-0.106	-0.167
-395.136	800.000	0.068	0.207
-394.121	246.065	-0.080	0.133
-393.106	-200.000	-0.077	-0.393
-392.092	800.000	-0.057	0.174
-391.077	5.779	-0.156	0.115
-390.063	-75.622	-0.078	-0.027
-389.048	172.372	-0.047	0.067
-388.033	-164.203	0.282	0.013
-387.019	-200.000	-0.071	0.371
-386.004	-130.419	0.207	-0.028
-384.990	-124.990	-0.136	-0.021
-383.975	-10.789	0.275	0.180
-382.960	-200.000	-0.064	0.317
-381.946	-200.000	0.046	0.237
-380.931	-200.000	0.002	-0.152
-379.917	-49.298	-0.065	0.031
-378.902	0.332	-0.131	0.093
-377.888	-200.000	-0.027	-0.163
-376.873	147.126	-0.118	0.158
-375.858	-71.770	0.059	0.022
-374.844	800.000	-0.067	-0.218
-373.829	24.511	0.108	0.089
-372.815	-144.651	0.191	0.017
-371.800	-142.030	0.052	0.005
-370.785	123.880	-0.034	0.043
-369.771	-81.285	0.187	0.061
-368.756	-136.888	-0.292	-0.033
-367.742	-177.397	0.487	-0.012
-366.727	-200.000	0.005	-0.121
-365.712	440.617	-0.124	-0.269
-364.698	57.832	-0.269	0.261
-363.683	5.782	-0.114	0.084
-362.669	-57.539	-0.310	-0.135
-361.654	-200.000	-0.052	-0.269
-360.639	-173.329	-0.329	0.010
-359.625	-51.898	0.078	0.036
-358.610	-115.714	-0.425	0.079
-357.596	606.616	0.164	0.406
-356.581	76.100	-0.241	-0.253
-355.566	-200.000	0.006	0.216
-354.552	-154.817	-0.216	-0.014
-353.537	-164.906	0.318	0.014
-352.523	-95.088	-0.191	0.051
-351.508	76.115	-0.067	0.071
-350.493	-8.925	0.293	-0.195
-349.479	207.927	0.174	0.270
-348.464	-200.000	-0.019	0.293
-347.450	-169.476	-0.214	-0.008
-346.435	37.340	-0.169	-0.148
-345.420	-200.000	-0.019	-0.127
-344.406	26.861	-0.070	0.058
-343.391	449.659	-0.024	-0.052
-342.377	800.000	0.074	0.231
-341.362	-13.886	0.179	-0.114
-340.348	-200.000	0.028	-0.231
-339.333	296.313	0.104	-0.189
-338.318	-58.061	0.213	0.092
-337.304	49.973	-0.177	0.165
-336.289	-81.418	0.177	-0.058
-335.275	0.308	0.118	0.084
-334.260	149.272	0.177	-0.237
-333.245	-200.000	-0.008	-0.224
-332.231	22.172	0.162	-0.131
-331.216	-122.506	-0.173	-0.028
-330.202	-61.198	-0.438	0.183
-329.187	159.143	0.170	0.233
-328.172	188.166	0.150	-0.223
-327.158	-122.111	0.379	0.062
-326.143	127.503	0.154	0.194
-325.129	157.295	0.190	0.260
-324.114	-3.154	-0.271	-0.187
-323.099	-122.808	0.246	-0.039
-322.085	-106.951	0.212	-0.046
-321.070	746.875	0.044	0.117
-320.056	-33.792	-0.398	-0.217
-319.041	75.319	-0.144	0.151
-318.026	800.000	-0.011	-0.037
-317.012	-154.552	-0.105	0.007
-315.997	246.419	0.160	0.267
-314.983	-200.000	0.011	-0.170
-313.968	-200.000	-0.021	-0.195
-312.953	219.187	-0.196	0.311
-311.939	800.000	0.054	-0.191
-310.924	-89.284	0.276	0.081
-309.910	-105.598	-0.357	-0.080
-308.895	-119.710	0.218	0.037
-307.880	150.021	-0.147	-0.197
-306.866	-64.527	-0.375	0.151
-305.851	-71.035	-0.093	-0.035
-304.837	-200.000	-0.029	0.127
-303.822	11.872	0.132	-0.100
-302.807	-136.551	-0.201	-0.023
-301.793	-21.398	0.286	0.173
-300.778	254.705	-0.096	-0.163
-299.764	-117.401	0.139	-0.025
-298.749	-200.000	0.008	0.080
-297.735	114.472	-0.092	0.110
-296.720	174.866	0.140	0.201
-295.705	-200.000	-0.011	-0.087
-294.691	199.186	-0.163	0.247
-293.676	-84.765	-0.266	-0.083
-292.662	-72.860	-0.345	-0.126
-291.647	36.699	-0.060	0.053
-290.632	800.000	0.050	-0.153
-289.618	800.000	0.041	0.154
-288.603	-83.489	0.204	0.064
-287.589	58.425	0.075	0.073
-286.574	-78.164	0.272	-0.092
-285.559	3.941	-0.319	0.231
-284.545	56.171	0.068	-0.066
-283.530	800.000	-0.093	0.271
-282.516	59.580	0.205	0.200
-281.501	471.171	0.042	-0.094
-280.486	-58.596	0.328	-0.141
-279.472	-106.712	0.240	-0.053
-278.457	-182.137	-0.241	-0.004
-277.443	24.923	-0.242	0.198
-276.428	-122.650	-0.403	0.065
-275.413	-35.455	-0.041	-0.022
-274.399	-107.530	-0.236	-0.051
-273.384	-200.000	-0.033	0.193
-272.370	-88.522	-0.269	-0.079
-271.355	44.761	0.220	-0.200
-270.340	-200.000	0.015	-0.122
-269.326	-60.603	0.266	-0.112
-268.311	800.000	-0.061	-0.216
-267.297	800.000	0.043	0.154
-266.282	31.044	-0.287	0.244
-265.267	-200.000	0.012	0.105
-264.253	386.799	-0.075	0.152
-263.238	-104.960	0.156	-0.035
-262.224	-200.000	-0.015	0.067
-261.209	32.428	0.085	-0.072
-260.195	42.127	-0.167	0.150
-259.180	-95.025	0.298	0.080
-258.165	245.072	-0.221	-0.367
-257.151	-56.772	0.218	0.095
-256.136	767.912	0.048	0.129
-255.122	248.346	-0.125	0.210
-254.107	15.572	-0.343	0.266
-253.092	109.890	0.056	0.067
-252.078	-114.862	0.166	0.031
-251.063	-101.593	0.268	-0.064
-250.049	241.838	0.058	-0.096
-249.034	-200.000	-0.029	0.188
-248.019	-104.342	0.105	-0.024
-247.005	800.000	0.097	-0.280
-245.990	165.187	-0.094	-0.130
-244.976	-122.350	-0.091	0.015
-243.961	65.848	0.097	0.097
-242.946	-99.324	0.227	-0.057
-241.932	-200.000	0.002	0.062
-240.917	-165.657	-0.207	0.009
-239.903	199.393	-0.094	0.142
-238.888	291.067	-0.285	-0.512
-237.873	-200.000	0.002	-0.130
-236.859	800.000	0.012	-0.039
-235.844	524.792	0.021	0.049
-234.830	164.973	0.109	0.152
-233.815	-200.000	-0.029	-0.370
-232.800	599.546	0.106	-0.261
-231.786	-72.364	-0.064	0.023
-230.771	293.392	0.101	0.182
-229.757	-77.020	-0.229	0.079
-228.742	157.049	-0.142	0.194
-227.727	-200.000	0.038	0.170
-226.713	-90.439	0.095	-0.027
-225.698	-6.106	-0.027	-0.018
-224.684	-2.824	-0.154	0.106
-223.669	530.061	-0.077	0.179
-222.655	-45.981	0.435	-0.212
-221.640	60.846	0.133	0.130
-220.625	800.000	0.156	0.542
-219.611	269.788	-0.127	-0.220
-218.596	-85.871	0.386	0.118
-217.582	800.000	-0.116	-0.320
-216.567	-83.145	-0.109	-0.035
-215.552	800.000	0.031	-0.093
-214.538	199.446	0.013	0.020
-213.523	144.100	-0.171	0.224
-212.509	404.067	0.082	0.170
-211.494	35.399	-0.263	0.227
-210.479	-158.642	-0.336	-0.019
-209.465	-200.000	0.018	-0.086
-208.450	-72.981	-0.144	-0.052
-207.436	36.985	-0.136	0.118
-206.421	800.000	-0.047	-0.151
-205.406	27.202	0.299	-0.247
-204.392	-77.219	-0.169	-0.058
-203.377	104.218	-0.111	-0.129
-202.363	-200.000	0.067	-0.370
-201.348	-34.981	-0.107	0.057
-200.333	268.163	0.109	0.188
-199.319	-51.900	-0.250	0.114
-198.304	-13.046	-0.370	0.237
-197.290	494.481	-0.100	-0.225
-196.275	-148.909	0.087	0.007
-195.260	-37.145	0.170	0.089
-194.246	-50.515	0.399	-0.186
-193.231	-200.000	0.031	-0.171
-192.217	-91.959	-0.331	-0.092
-191.202	-119.142	0.281	0.048
-190.187	-200.000	0.001	-0.151
-189.173	12.563	-0.121	0.092
-188.158	169.687	0.134	0.189
-187.144	-112.313	0.333	0.066
-186.129	-7.730	0.207	-0.138
-185.114	-28.898	0.347	0.197
-184.100	-200.000	-0.005	0.128
-183.085	476.079	-0.062	0.137
-182.071	46.418	0.187	0.171
-181.056	-52.716	-0.183	0.083
-180.042	-162.307	-0.102	0.005
-179.027	-200.000	0.006	0.320
-178.012	800.000	0.088	0.256
-176.998	-3.355	0.349	-0.240
-175.983	280.620	-0.046	0.082
-174.969	373.320	-0.181	-0.362
-173.954	-200.000	-0.026	0.366
-172.939	11.073	0.116	0.087
-171.925	-200.000	0.021	-0.227
-170.910	224.057	0.102	-0.163
-169.896	-18.818	-0.224	0.137
-168.881	-200.000	0.004	-0.089
-167.866	-55.082	0.092	0.041
-166.852	-93.530	0.287	0.078
-165.837	-38.318	-0.165	0.086
-164.823	-200.000	0.048	-0.209
-163.808	263.374	-0.132	-0.225
-162.793	-7.273	0.074	-0.049
-161.779	428.883	-0.051	-0.109
-160.764	329.398	0.143	0.271
-159.750	73.005	0.237	0.244
-158.735	278.252	-0.114	0.200
-157.720	294.888	0.177	0.319
-156.706	48.465	-0.217	-0.200
-155.691	-200.000	0.002	0.313
-154.677	-34.122	0.248	-0.134
-153.662	-110.258	0.109	0.022
-152.647	-200.000	-0.021	-0.284
-151.633	-132.389	-0.182	-0.023
-150.618	48.838	-0.227	-0.209
-149.604	-200.000	-0.012	-0.320
-148.589	-200.000	0.030	-0.160
-147.574	548.993	-0.040	0.095
-146.560	-200.000	-0.039	0.218
-145.545	-76.782	0.047	0.016
-144.531	217.263	0.102	-0.159
-143.516	-59.625	0.065	-0.027
-142.502	800.000	-0.029	-0.080
-141.487	702.900	-0.087	-0.226
-140.472	-34.865	0.040	-0.021
-139.458	568.066	-0.111	0.266
-138.443	-98.918	-0.146	-0.036
-137.429	69.459	-0.093	0.094
-136.414	-200.000	-0.004	0.350
-135.399	51.020	0.105	0.098
-134.385	-19.842	0.260	-0.158
-133.370	-110.861	-0.032	0.006
-132.356	211.092	0.180	0.278
-131.341	-144.878	-0.339	-0.030
-130.326	555.764	-0.055	0.131
-129.312	-108.770	0.211	0.044
-128.297	-73.101	0.218	0.079
-127.283	96.388	-0.165	0.186
-126.268	604.827	0.102	0.250
-125.253	-200.000	-0.040	0.266
-124.239	-61.548	0.286	-0.118
-123.224	-200.000	0.021	-0.113
-122.210	800.000	-0.066	-0.222
-121.195	-151.370	-0.214	-0.016
-120.180	800.000	0.059	-0.231
-119.166	120.888	-0.111	0.135
-118.151	-51.781	0.240	0.110
-117.137	-136.329	-0.310	0.035
-116.122	137.847	-0.143	-0.184
-115.107	-46.939	-0.192	-0.092
-114.093	-44.478	-0.237	-0.116
-113.078	-200.000	-0.038	0.281
-112.064	42.479	0.030	0.027
-111.049	-18.208	0.229	0.141
-110.034	245.777	0.163	0.270
-109.020	-182.470	0.183	-0.003
-108.005	-99.926	0.368	0.090
-106.991	78.207	-0.074	-0.078
-105.976	-184.594	-0.226	-0.004
-104.962	-58.727	-0.258	0.110
-103.947	55.924	0.164	0.156
-102.932	-200.000	0.068	0.306
-101.918	-82.847	0.080	-0.025
-100.903	-117.987	0.227	0.040
-99.889	-200.000	-0.017	0.269
-98.874	-65.650	0.334	-0.132
-97.859	94.431	0.171	-0.191
-96.845	26.549	-0.260	0.213
-95.830	278.310	0.074	-0.129
-94.816	-200.000	-0.010	-0.204
-93.801	-200.000	0.037	-0.230
-92.786	99.916	0.135	0.154
-91.772	-144.837	0.284	0.026
-90.757	800.000	0.038	-0.153
-89.743	111.482	-0.114	0.134
-88.728	48.749	-0.260	0.239
-87.713	-29.230	-0.428	-0.241
-86.699	800.000	0.043	0.156
-85.684	-200.000	-0.002	-0.071
-84.670	-123.755	-0.202	0.031
-83.655	8.454	0.157	-0.116
-82.640	281.655	0.131	-0.230
-81.626	126.565	-0.209	0.260
-80.611	-116.073	-0.330	-0.060
-79.597	9.461	-0.122	-0.091
-78.582	-26.129	0.266	0.153
-77.567	18.956	-0.107	0.084
-76.553	-52.153	0.303	-0.138
-75.538	12.407	0.362	0.274
-74.524	-92.923	0.215	-0.059
-73.509	-9.498	-0.146	0.096
-72.494	-22.017	-0.196	-0.117
-71.480	-82.559	0.091	-0.029
-70.465	-128.246	-0.177	-0.025
-69.451	-13.349	0.055	0.035
-68.436	800.000	0.042	0.176
-67.422	-200.000	0.029	0.158
-66.407	800.000	0.030	-0.096
-65.392	-105.030	-0.145	0.033
-64.378	-200.000	0.022	-0.335
-63.363	-60.322	-0.324	0.135
-62.349	233.932	-0.119	0.192
-61.334	115.472	-1.070	-1.282
-60.319	131.165	0.409	0.514
-59.305	-200.000	-0.180	-0.896
-58.290	69.577	0.904	0.913
-57.276	202.549	0.917	1.388
-56.261	-200.000	106.317	611.352
-55.246	501.493	1508.140	3412.717
-54.232	176.426	2700.579	3845.434
-53.217	110.569	2185.987	2575.419
-52.203	40.196	1703.425	1500.979
-51.188	32.613	1513.573	1282.271
-50.173	30.375	1486.159	1244.024
-49.159	51.195	1542.697	1434.177
-48.144	51.600	1559.051	1452.088
-47.130	32.887	1514.641	1284.841
-46.115	29.813	1499.728	1251.380
-45.100	29.657	1496.147	1247.293
-44.086	29.552	1494.576	1245.228
-43.071	29.554	1492.101	1243.125
-42.057	29.488	1490.758	1241.512
-41.042	29.484	1489.739	1240.587
-40.027	29.539	1487.881	1239.363
-39.013	29.557	1486.266	1238.086
-37.998	29.425	1485.467	1236.489
-36.984	29.614	1483.490	1236.060
-35.969	29.637	1482.341	1235.205
-34.954	29.546	1480.656	1233.146
-33.940	29.463	1479.747	1231.783
-32.925	29.608	1477.477	1230.817
-31.911	29.659	1476.530	1230.314
-30.896	29.687	1475.229	1229.369
-29.881	29.749	1474.231	1228.899
-28.867	29.716	1473.037	1227.638
-27.852	29.613	1471.485	1225.613
-26.838	29.630	1470.268	1224.664
-25.823	29.604	1468.185	1222.708
-24.809	29.613	1466.956	1221.695
-23.794	29.688	1465.571	1220.988
-22.779	29.491	1464.804	1218.997
-21.765	29.676	1463.246	1218.875
-20.750	29.596	1462.199	1217.427
-19.736	29.634	1461.057	1216.675
-18.721	29.565	1460.432	1215.657
-17.706	29.507	1459.409	1214.373
-16.692	29.620	1457.648	1213.600
-15.677	29.522	1457.032	1212.400
-14.663	29.569	1455.889	1211.706
-13.648	29.495	1454.719	1210.201
-12.633	29.553	1454.261	1210.151
-11.619	29.441	1453.720	1208.919
-10.604	29.515	1452.711	1208.515
-9.590	29.488	1451.920	1207.630
-8.575	29.457	1450.905	1206.541
-7.560	29.461	1449.807	1205.603
-6.546	29.452	1448.989	1204.816
-5.531	29.495	1448.372	1204.538
-4.517	29.498	1447.231	1203.557
-3.502	29.470	1446.235	1202.502
-2.487	29.525	1445.026	1201.807
-1.473	29.462	1444.018	1200.509
-0.458	29.496	1442.880	1199.740
0.556	27.145	1433.322	1188.969
1.571	24.276	1408.426	1149.741
2.586	21.124	1349.621	1082.126
3.600	19.678	1269.412	1009.285
4.615	18.580	1224.851	967.581
5.629	16.275	1170.676	912.261
6.644	8.266	1086.692	806.414
7.659	1.110	1046.139	741.347
8.673	-0.176	1040.617	731.114
9.688	-0.283	1037.221	728.142
10.702	-0.366	1035.652	726.574
11.717	-0.325	1033.581	725.255
12.731	3.012	1037.449	744.078
13.746	11.818	1050.118	796.097
14.761	18.632	1058.655	835.805
15.775	20.340	1060.511	845.525
16.790	20.638	1060.167	846.627
17.804	20.421	1059.611	845.054
18.819	20.339	1058.252	843.494
19.834	20.405	1057.711	843.311
20.848	20.441	1057.741	843.432
21.863	20.651	1057.322	844.041
22.877	20.430	1057.093	842.712
23.892	20.460	1056.116	842.007
24.907	20.490	1055.146	841.304
25.921	20.473	1054.364	840.522
26.936	20.474	1053.796	840.001
27.950	20.387	1052.781	838.697
28.965	20.421	1051.127	837.471
29.980	20.340	1049.716	835.882
30.994	20.335	1048.161	834.544
32.009	20.526	1047.412	834.792
33.023	20.494	1046.674	833.978
34.038	20.391	1045.096	832.153
35.053	20.415	1044.814	831.969
36.067	20.452	1044.414	831.753
37.082	20.569	1043.430	831.456
38.096	20.665	1042.727	831.279
39.111	20.783	1041.590	830.864
40.126	20.666	1040.918	829.696
41.140	20.739	1039.802	829.081
42.155	20.423	1038.042	826.103
43.169	20.206	1036.836	824.037
44.184	20.204	1035.898	823.211
45.199	20.255	1034.663	822.397
46.213	20.173	1034.148	821.527
47.228	20.147	1032.660	820.151
48.242	20.369	1031.639	820.313
49.257	20.360	1031.151	819.810
50.271	20.428	1030.411	819.473
51.286	20.513	1029.895	819.388
52.301	20.506	1029.277	818.794
53.315	20.534	1028.416	818.167
54.330	20.475	1027.448	817.047
55.344	20.438	1026.368	815.944
56.359	20.540	1025.598	815.736
57.374	20.584	1024.824	815.254
58.388	20.303	1024.155	813.334
59.403	20.116	1023.673	812.004
60.417	20.193	1022.453	811.324
61.432	20.086	1021.654	810.116
62.447	20.233	1020.714	809.987
63.461	20.202	1020.380	809.507
64.476	20.343	1019.362	809.286
65.490	20.352	1018.276	808.394
66.505	20.111	1017.798	806.821
67.520	20.238	1016.219	806.086
68.534	20.333	1015.595	805.959
69.549	20.192	1014.410	804.296
70.563	19.896	1013.466	802.105
71.578	19.918	1012.731	801.553
72.593	20.050	1011.468	801.095
73.607	19.697	1010.824	798.883
74.622	19.758	1009.912	798.370
75.636	20.038	1009.119	798.965
76.651	20.082	1008.521	798.625
77.666	20.135	1007.185	797.739
78.680	19.954	1006.373	796.195
79.695	19.963	1005.880	795.776
80.709	20.030	1005.733	795.897
81.724	20.068	1004.752	795.226
82.739	20.074	1003.725	794.367
83.753	20.074	1002.771	793.541
84.768	20.283	1002.156	793.944
85.782	20.614	1001.251	794.665
86.797	20.853	1000.652	795.214
87.812	20.782	999.705	794.065
88.826	20.654	998.665	792.586
89.841	20.726	997.663	792.048
90.855	20.704	997.212	791.523
91.870	20.801	996.571	791.381
92.884	20.655	995.639	789.911
93.899	20.485	994.832	788.431
94.914	20.616	993.483	787.884
95.928	20.765	992.431	787.654
96.943	20.667	992.150	786.918
97.957	20.450	990.956	784.923
98.972	20.125	989.898	782.545
99.987	19.944	988.610	780.644
101.001	20.056	988.124	780.696
102.016	20.459	988.007	782.349
103.030	20.463	986.823	781.359
104.045	20.397	985.417	779.880
105.060	20.232	984.226	778.130
106.074	19.987	982.809	775.842
107.089	20.180	982.111	776.085
108.103	20.489	981.942	777.269
109.118	20.433	981.480	776.582
110.133	20.404	979.579	774.880
111.147	20.255	978.608	773.377
112.162	20.132	977.625	771.985
113.176	19.967	976.644	770.407
114.191	20.077	975.666	770.058
115.206	20.127	974.651	769.411
116.220	20.023	973.429	767.916
117.235	19.752	972.905	766.233
118.249	19.931	971.839	766.121
119.264	19.867	971.342	765.376
120.279	19.895	969.830	764.243
121.293	19.954	969.233	763.963
122.308	20.017	968.652	763.717
123.322	20.097	967.788	763.320
124.337	19.938	966.772	761.752
125.352	19.957	965.642	760.876
126.366	19.581	963.402	757.397
127.381	19.251	962.242	754.970
128.395	19.739	961.815	756.704
129.410	20.359	961.444	759.059
130.424	20.517	960.963	759.303
131.439	20.540	959.396	758.100
132.454	20.441	958.678	757.030
133.468	20.460	957.566	756.168
134.483	20.478	956.600	755.419
135.497	20.334	956.331	754.512
136.512	20.578	955.403	754.772
137.527	20.605	955.059	754.550
138.541	20.636	954.030	753.806
139.556	20.616	953.649	753.352
140.570	20.592	952.604	752.357
141.585	20.634	951.852	751.877
142.600	20.622	951.005	751.090
143.614	20.586	950.170	750.209
144.629	20.636	949.508	749.834
145.643	20.972	948.551	750.461
146.658	20.843	947.594	749.080
147.673	20.638	946.300	747.113
148.687	20.648	945.286	746.288
149.702	20.588	944.188	745.096
150.716	20.322	943.429	743.293
151.731	20.377	942.134	742.442
152.746	20.431	941.401	742.030
153.760	20.755	941.023	743.049
154.775	20.796	940.246	742.544
155.789	20.866	939.122	741.890
156.804	20.955	938.142	741.428
157.819	20.741	937.408	739.875
158.833	20.694	936.628	738.993
159.848	20.945	935.494	739.098
160.862	20.870	935.258	738.528
161.877	20.766	933.975	737.009
162.892	20.714	932.895	735.874
163.906	20.776	932.597	735.835
164.921	20.806	931.467	735.004
165.935	20.846	930.072	734.005
166.950	20.817	929.325	733.232
167.964	20.970	927.855	732.650
168.979	20.791	927.189	731.307
169.994	20.770	926.326	730.474
171.008	20.651	924.931	728.811
172.023	20.728	924.703	728.889
173.037	20.912	923.565	728.697
174.052	20.779	922.243	727.034
175.067	20.582	921.620	725.658
176.081	20.614	920.527	724.864
177.096	20.666	919.886	724.514
178.110	20.625	918.942	723.532
179.125	20.478	918.121	722.213
180.140	20.150	916.907	719.832
181.154	20.061	916.716	719.248
182.169	20.303	916.141	719.737
183.183	20.499	915.657	720.106
184.198	20.832	915.224	721.081
185.213	20.646	914.419	719.612
186.227	20.614	913.638	718.802
187.242	20.825	912.967	719.081
188.256	20.677	912.365	717.932
189.271	20.784	911.535	717.659
190.286	20.913	910.541	717.345
191.300	20.718	909.958	716.021
192.315	20.312	908.643	713.251
193.329	19.568	907.225	709.024
194.344	19.201	906.199	706.653
195.359	20.006	906.134	709.839
196.373	20.507	906.693	712.270
197.388	20.750	906.358	712.936
198.402	20.615	905.833	711.908
199.417	20.595	904.885	711.021
200.432	20.553	904.600	710.561
201.446	20.519	903.773	709.712
202.461	20.233	903.084	707.938
203.475	20.149	902.230	706.863
204.490	19.932	900.621	704.656
205.504	18.790	898.932	698.632
206.519	19.257	898.705	700.293
207.534	20.318	899.131	704.872
208.548	20.340	898.486	704.394
209.563	20.696	898.609	705.872
210.577	20.842	897.519	705.546
211.592	20.427	896.819	703.252
212.607	20.764	896.883	704.607
213.621	20.841	896.192	704.310
214.636	20.781	895.515	703.476
215.650	20.900	894.947	703.447
216.665	20.916	894.202	702.864
217.680	20.963	893.746	702.632
218.694	20.908	893.384	702.066
219.709	20.760	892.345	700.591
220.723	20.132	891.459	697.308
221.738	20.451	891.131	698.270
222.753	20.742	890.458	698.849
223.767	20.577	890.176	697.906
224.782	20.787	888.845	697.641
225.796	20.885	888.547	697.737
226.811	20.913	887.926	697.301
227.826	20.609	886.759	695.109
228.840	19.803	885.149	690.567
229.855	19.665	884.813	689.693
230.869	20.110	884.027	690.793
231.884	19.794	883.063	688.720
232.899	19.743	882.797	688.249
233.913	20.510	882.993	691.395
234.928	20.753	882.496	691.909
235.942	20.621	881.805	690.781
236.957	20.670	880.939	690.237
237.972	20.379	880.049	688.324
238.986	20.280	879.312	687.296
240.001	20.514	879.005	687.921
241.015	20.368	878.575	686.947
242.030	20.477	877.704	686.636
243.045	20.701	877.655	687.421
244.059	20.671	876.635	686.442
245.074	21.007	875.935	687.160
246.088	20.858	875.594	686.243
247.103	20.413	874.325	683.440
248.117	20.488	873.813	683.270
249.132	20.934	874.202	685.270
250.147	21.427	873.918	686.922
251.161	21.263	873.206	685.662
252.176	21.456	872.864	686.088
253.190	21.466	871.585	685.061
254.205	21.605	870.999	685.084
255.220	21.671	871.186	685.430
256.234	21.615	870.722	684.783
257.249	21.536	869.467	683.426
258.263	21.455	868.921	682.622
259.278	21.582	868.449	682.687
260.293	21.420	868.475	682.016
261.307	21.697	867.430	682.212
262.322	21.461	866.562	680.552
263.336	21.473	865.877	680.000
264.351	20.781	864.792	676.400
265.366	19.682	862.846	670.556
266.380	19.413	861.737	668.592
267.395	20.254	862.326	672.248
268.409	21.113	861.904	675.187
269.424	21.177	861.055	674.708
270.439	21.105	861.228	674.507
271.453	21.335	860.504	674.767
272.468	21.428	859.521	674.296
273.482	21.553	859.332	674.571
274.497	21.702	859.159	674.949
275.512	21.295	858.078	672.475
276.526	20.850	856.685	669.613
277.541	21.018	856.097	669.739
278.555	21.328	856.279	671.013
279.570	21.360	854.889	669.988
280.585	20.935	854.358	667.884
281.599	21.167	854.195	668.586
282.614	21.218	853.239	667.971
283.628	20.860	852.033	665.601
284.643	20.403	851.626	663.480
285.657	20.958	851.301	665.286
286.672	20.895	850.526	664.383
287.687	20.267	849.846	661.398
288.701	20.642	849.600	662.577
289.716	21.128	848.942	663.854
290.730	20.802	848.360	662.102
291.745	20.562	847.656	660.580
292.760	20.370	846.732	659.074
293.774	20.339	846.158	658.451
294.789	21.124	846.896	661.945
295.803	21.753	847.020	664.368
296.818	21.855	846.049	663.934
297.833	22.061	845.555	664.268
298.847	21.649	844.290	661.659
299.862	21.306	843.750	659.881
300.876	21.429	843.296	659.933
301.891	22.007	842.546	661.465
302.906	21.914	842.195	660.783
303.920	21.604	840.834	658.490
304.935	21.438	839.989	657.147
305.949	21.669	840.364	658.250
306.964	21.963	839.302	658.465
307.979	21.628	838.620	656.615
308.993	21.650	838.497	656.542
310.008	22.000	837.947	657.365
311.022	21.879	838.008	656.902
312.037	21.767	837.359	655.914
313.052	21.676	836.434	654.791
314.066	21.683	835.352	653.915
315.081	21.024	834.052	650.379
316.095	20.352	832.926	646.943
317.110	20.785	833.307	648.795
318.125	21.465	833.641	651.530
319.139	21.104	832.672	649.372
320.154	19.953	830.948	643.693
321.168	19.711	829.964	641.975
322.183	20.333	830.245	644.445
323.197	21.153	830.693	647.780
324.212	21.469	830.097	648.432
325.227	21.502	829.912	648.353
326.241	21.646	829.339	648.378
327.256	21.671	828.458	647.727
328.270	21.590	827.793	646.849
329.285	21.532	827.179	646.097
330.300	21.304	826.354	644.555
331.314	21.027	825.679	642.953
332.329	21.184	825.238	643.130
333.343	21.556	824.749	644.061
334.358	21.762	824.407	644.493
335.373	21.753	823.882	643.992
336.387	21.838	823.258	643.762
337.402	21.996	822.838	643.956
338.416	22.144	822.577	644.236
339.431	22.173	821.835	643.703
340.446	22.025	821.662	642.970
341.460	22.320	821.300	643.708
342.475	22.363	820.247	642.983
343.489	22.111	819.820	641.671
344.504	22.206	818.826	641.183
345.519	22.283	819.173	641.682
346.533	22.524	818.538	642.005
347.548	22.511	818.163	641.604
348.562	22.658	817.569	641.620
349.577	22.313	817.481	640.237
350.592	22.447	816.896	640.209
351.606	22.378	816.063	639.250
352.621	22.512	815.632	639.343
353.635	22.443	815.047	638.574
354.650	22.295	814.445	637.512
355.665	21.914	813.649	635.452
356.679	20.981	811.825	630.598
357.694	20.971	811.322	630.117
358.708	21.472	811.325	631.874
359.723	21.409	810.632	631.051
360.738	21.648	810.762	631.956
361.752	22.170	810.370	633.477
362.767	22.217	810.160	633.426
363.781	22.389	810.239	634.052
364.796	22.651	809.832	634.623
365.810	22.906	808.760	634.643
366.825	22.795	808.587	634.052
367.840	22.797	808.473	633.912
368.854	22.749	807.731	633.104
369.869	22.319	806.762	630.747
370.883	22.040	806.732	629.665
371.898	22.158	805.910	629.392
372.913	22.313	804.827	629.044
373.927	22.269	804.395	628.494
374.942	22.389	803.855	628.445
375.956	22.592	803.031	628.469
376.971	22.524	802.815	628.001
377.986	22.640	802.379	628.018
379.000	22.719	801.785	627.779
380.015	22.782	801.483	627.713
381.029	22.575	800.862	626.433
382.044	22.607	800.112	625.905
383.059	22.737	799.851	626.107
384.073	22.858	799.376	626.109
385.088	22.665	799.153	625.195
386.102	22.839	798.086	624.922
387.117	22.566	797.866	623.728
388.132	22.519	797.104	622.911
389.146	22.441	796.267	621.924
390.161	21.874	795.468	619.245
391.175	22.024	795.199	619.509
392.190	22.420	795.274	620.909
393.205	22.642	794.426	620.974
394.219	21.430	792.878	615.448
395.234	19.911	790.766	608.420
396.248	19.428	789.624	605.791
397.263	20.402	790.581	609.892
398.278	22.141	791.896	616.966
399.292	22.553	791.685	618.192
400.307	22.179	790.935	616.241
401.321	22.075	790.540	615.513
402.336	22.357	789.867	615.924
403.350	22.667	790.006	617.061
404.365	22.964	789.630	617.750
405.380	23.178	789.556	618.386
406.394	23.420	789.573	619.193
407.409	23.487	789.430	619.257
408.423	23.394	788.843	618.418
409.438	23.303	788.237	617.569
410.453	23.412	787.643	617.429
411.467	23.608	787.517	617.959
412.482	23.477	786.788	616.878
413.496	23.456	785.921	616.071
414.511	23.561	785.680	616.192
415.526	23.558	785.470	615.961
416.540	23.467	785.276	615.440
417.555	23.369	784.534	614.462
418.569	23.022	783.932	612.735
419.584	23.155	783.040	612.445
420.599	23.138	782.864	612.193
421.613	157.567	1364.206	1799.092
422.628	136.219	1448.883	1799.188
