DTS Sentinel unit serial number:	SN413079Multiplexer serial number:	ORYXHardware model number:	OX4-SRSoftware version number:	ORYX F/W v4.00 Oryx Data Collector v3.7.2.0data status	okinstallation	princeton_trtdifferential loss correction	single-endedforward channel	channel 3reverse channel	N/Adate	2019/09/11time	16:38:10forward acquisition time	60.00reverse acquisition time	0.00gamma	496.2192k internal	0.2287k external	0.2287temperature offset calibration	0.9993default loss term (dB/km)	0.3790temperature slope calibration	1.0000multiplexer offset coefficient	1.0000multiplexer slope coefficient	1.0000fibre end	0.00T internal ref (°C)	43.81T ext. ref 1 (°C)	1.09T ext. ref 2 (°C)	39.37length (m)	temperature (°C)	Stokes	anti-Stokes-747.200	-146.714	0.402	0.036
-746.185	-104.351	-0.200	0.048
-745.171	-100.822	-0.445	0.112
-744.156	800.000	-0.090	0.263
-743.142	-200.000	0.089	0.542
-742.127	-143.912	-0.035	0.003
-741.112	529.366	0.136	-0.330
-740.098	800.000	0.043	0.125
-739.083	-155.751	-0.189	-0.012
-738.069	-200.000	0.031	0.167
-737.054	-20.880	-0.134	0.084
-736.039	240.307	0.065	-0.111
-735.025	-93.743	0.093	0.026
-734.010	-24.126	-0.161	-0.099
-732.996	17.877	-0.222	-0.182
-731.981	81.430	-0.330	0.366
-730.966	-141.339	0.116	0.012
-729.952	800.000	-0.122	-0.518
-728.937	576.478	-0.041	-0.104
-727.923	-103.220	-0.234	-0.057
-726.908	19.112	-0.153	-0.126
-725.894	231.629	0.085	-0.143
-724.879	-13.596	0.207	-0.138
-723.864	-166.021	-0.314	0.014
-722.850	-36.741	-0.019	-0.010
-721.835	800.000	-0.032	-0.094
-720.821	-160.630	0.243	0.013
-719.806	-150.381	-0.118	0.009
-718.791	119.947	0.035	0.045
-717.777	-185.115	0.145	0.002
-716.762	485.126	-0.150	0.349
-715.748	-79.418	-0.159	-0.055
-714.733	1.390	0.099	-0.073
-713.718	789.499	0.011	0.031
-712.704	149.164	-0.157	0.217
-711.689	-200.000	0.038	-0.235
-710.675	-167.847	0.127	-0.005
-709.660	-199.852	-0.066	-0.000
-708.645	106.533	-0.050	-0.061
-707.631	28.368	-0.031	-0.026
-706.616	464.586	-0.065	-0.150
-705.602	67.968	0.096	-0.101
-704.587	283.024	-0.058	-0.107
-703.572	-200.000	0.037	-0.289
-702.558	-200.000	-0.055	-0.319
-701.543	340.166	-0.106	0.212
-700.529	800.000	0.048	-0.158
-699.514	145.981	-0.063	-0.086
-698.499	26.571	0.207	0.177
-697.485	-200.000	-0.002	0.047
-696.470	-154.008	-0.265	-0.018
-695.456	143.207	0.055	0.076
-694.441	204.439	-0.059	0.094
-693.426	-200.000	-0.008	0.183
-692.412	800.000	-0.061	0.182
-691.397	-200.000	-0.020	0.124
-690.383	-154.666	0.315	0.021
-689.368	-200.000	-0.048	-0.337
-688.354	222.474	0.136	-0.224
-687.339	214.393	0.069	-0.112
-686.324	-200.000	0.020	-0.235
-685.310	-8.349	0.216	-0.149
-684.295	514.056	-0.019	-0.046
-683.281	513.747	-0.043	0.102
-682.266	142.610	-0.186	-0.253
-681.251	-62.617	-0.241	0.102
-680.237	37.182	-0.123	-0.111
-679.222	317.068	0.021	0.041
-678.208	148.124	-0.110	0.152
-677.193	-200.000	-0.055	-0.332
-676.178	-200.000	-0.002	-0.089
-675.164	20.830	-0.216	-0.179
-674.149	69.503	-0.195	-0.205
-673.135	800.000	0.021	0.071
-672.120	737.176	0.076	0.207
-671.105	-200.000	-0.067	0.460
-670.091	20.034	0.230	-0.190
-669.076	-39.512	0.038	0.020
-668.062	167.025	-0.104	0.151
-667.047	268.133	0.127	-0.227
-666.032	147.823	0.082	0.113
-665.018	-200.000	-0.022	-0.319
-664.003	225.798	-0.343	0.569
-662.989	29.700	0.256	0.223
-661.974	-200.000	-0.012	0.170
-660.959	-57.690	0.341	0.153
-659.945	800.000	0.064	0.212
-658.930	-200.000	-0.023	-0.160
-657.916	-23.712	0.150	-0.092
-656.901	-46.824	0.151	0.076
-655.886	116.809	-0.171	0.215
-654.872	9.576	0.182	0.141
-653.857	473.833	-0.037	-0.085
-652.843	800.000	-0.023	-0.086
-651.828	800.000	-0.074	-0.217
-650.814	-74.495	-0.306	0.113
-649.799	-200.000	0.026	0.348
-648.784	88.926	-0.173	0.197
-647.770	-70.149	0.102	-0.040
-646.755	142.962	-0.126	0.171
-645.741	-78.540	-0.191	-0.067
-644.726	-134.033	0.032	0.004
-643.711	374.868	-0.047	0.098
-642.697	60.206	-0.109	0.110
-641.682	-200.000	-0.005	0.155
-640.668	178.606	0.262	-0.391
-639.653	199.468	0.169	-0.265
-638.638	97.731	0.067	0.078
-637.624	-109.809	0.441	0.095
-636.609	-112.047	-0.252	-0.052
-635.595	-19.764	0.216	-0.136
-634.580	-142.266	-0.190	-0.019
-633.565	-21.081	0.016	0.010
-632.551	-67.903	0.047	-0.019
-631.536	-200.000	-0.024	-0.347
-630.522	-87.017	0.385	-0.120
-629.507	19.579	0.149	0.122
-628.492	-30.314	-0.116	-0.067
-627.478	-200.000	-0.017	-0.154
-626.463	73.021	0.026	0.027
-625.449	721.901	0.141	0.382
-624.434	60.619	0.305	-0.309
-623.419	119.625	0.144	0.182
-622.405	-77.336	-0.382	-0.136
-621.390	-200.000	0.060	-0.279
-620.376	90.352	0.269	0.308
-619.361	-67.972	-0.164	0.065
-618.346	-134.267	0.177	0.022
-617.332	-103.867	0.139	-0.033
-616.317	-65.573	0.081	-0.033
-615.303	-126.082	0.121	0.018
-614.288	-66.701	-0.163	0.066
-613.273	-85.028	-0.186	0.060
-612.259	-54.855	-0.385	-0.177
-611.244	-64.798	-0.229	0.095
-610.230	-200.000	-0.001	0.132
-609.215	-66.094	-0.290	0.118
-608.201	-104.640	0.207	0.049
-607.186	-117.685	-0.197	0.036
-606.171	-82.373	0.187	0.062
-605.157	13.221	0.180	-0.142
-604.142	-112.369	-0.040	0.008
-603.128	89.436	0.086	0.098
-602.113	199.511	-0.111	0.173
-601.098	-200.000	-0.049	-0.279
-600.084	-39.153	-0.109	0.059
-599.069	420.763	-0.049	0.108
-598.055	-185.337	-0.092	0.001
-597.040	-200.000	0.017	0.249
-596.025	-200.000	-0.047	0.459
-595.011	362.245	0.044	-0.090
-593.996	9.354	0.016	0.013
-592.982	800.000	-0.088	-0.326
-591.967	-69.127	-0.313	-0.123
-590.952	-19.270	-0.070	-0.044
-589.938	800.000	0.112	-0.486
-588.923	66.751	0.128	0.133
-587.909	-151.602	0.094	0.007
-586.894	-170.354	0.126	-0.005
-585.879	123.261	0.050	0.064
-584.865	-109.656	0.086	0.018
-583.850	-200.000	-0.012	-0.148
-582.836	26.991	-0.124	-0.106
-581.821	15.069	0.099	0.079
-580.806	128.525	0.162	-0.211
-579.792	800.000	-0.034	0.145
-578.777	-145.637	0.121	-0.011
-577.763	-110.437	0.096	0.020
-576.748	800.000	-0.028	0.102
-575.733	-13.610	-0.142	-0.094
-574.719	-4.217	0.030	0.021
-573.704	800.000	-0.041	-0.170
-572.690	63.788	0.264	-0.271
-571.675	800.000	-0.079	-0.288
-570.661	-200.000	0.004	-0.135
-569.646	800.000	0.019	0.065
-568.631	153.412	0.181	-0.253
-567.617	-200.000	0.053	-0.332
-566.602	-107.606	-0.145	0.032
-565.588	-200.000	0.010	-0.097
-564.573	176.788	-0.104	-0.154
-563.558	-1.393	0.098	-0.070
-562.544	71.215	-0.182	-0.192
-561.529	-200.000	0.003	0.045
-560.515	229.510	-0.077	-0.129
-559.500	-200.000	0.040	-0.228
-558.485	28.885	-0.301	-0.260
-557.471	-1.837	0.105	-0.075
-556.456	796.304	0.060	-0.167
-555.442	10.133	0.146	-0.113
-554.427	17.442	-0.206	-0.167
-553.412	-6.443	0.120	0.083
-552.398	-96.948	0.243	0.065
-551.383	-131.868	0.154	-0.021
-550.369	-200.000	0.035	-0.342
-549.354	16.678	-0.124	0.100
-548.339	-107.236	-0.190	0.042
-547.325	-200.000	0.026	-0.162
-546.310	-93.379	0.227	0.064
-545.296	-156.746	-0.396	0.025
-544.281	-200.000	-0.031	0.355
-543.266	480.817	0.111	0.257
-542.252	33.171	0.046	-0.041
-541.237	-46.378	0.465	0.233
-540.223	-65.363	0.104	0.042
-539.208	-30.850	0.114	-0.065
-538.193	370.311	0.012	-0.024
-537.179	151.389	-0.070	-0.097
-536.164	-141.273	-0.241	-0.025
-535.150	-79.757	0.175	0.060
-534.135	284.364	-0.094	-0.172
-533.121	-127.277	-0.090	0.013
-532.106	-200.000	-0.013	0.120
-531.091	80.609	-0.017	-0.019
-530.077	-71.188	0.168	0.064
-529.062	78.222	0.112	0.121
-528.048	800.000	0.054	-0.175
-527.033	-200.000	0.052	-0.412
-526.018	578.726	0.063	0.158
-525.004	-3.297	-0.074	0.053
-523.989	-200.000	0.019	0.112
-522.975	-200.000	0.008	0.097
-521.960	-111.482	-0.035	-0.007
-520.945	-97.881	-0.486	-0.128
-519.931	-30.901	-0.237	-0.136
-518.916	-22.940	-0.120	0.074
-517.902	-69.528	-0.110	0.043
-516.887	800.000	-0.064	-0.242
-515.872	-129.449	-0.135	-0.019
-514.858	497.840	-0.049	-0.115
-513.843	-69.078	-0.180	-0.071
-512.829	-0.451	0.100	-0.072
-511.814	639.573	0.071	-0.184
-510.799	-54.483	-0.228	-0.105
-509.785	58.276	-0.075	0.075
-508.770	25.081	0.042	-0.035
-507.756	-200.000	-0.001	-0.112
-506.741	-200.000	-0.002	-0.409
-505.726	219.549	-0.121	0.196
-504.712	-130.070	0.180	0.025
-503.697	800.000	-0.047	0.172
-502.683	5.336	0.038	0.029
-501.668	-60.876	0.290	0.125
-500.653	-111.267	-0.129	-0.027
-499.639	122.020	0.130	-0.165
-498.624	-22.401	-0.182	-0.112
-497.610	800.000	-0.071	-0.208
-496.595	-95.485	-0.086	-0.023
-495.581	417.984	-0.107	0.233
-494.566	111.993	-0.159	0.195
-493.551	270.464	-0.310	-0.554
-492.537	154.164	0.118	0.165
-491.522	-200.000	0.007	-0.050
-490.508	800.000	-0.029	-0.099
-489.493	210.413	-0.104	-0.166
-488.478	-200.000	-0.002	0.032
-487.464	17.503	-0.082	0.066
-486.449	800.000	0.132	-0.416
-485.435	-200.000	-0.032	0.161
-484.420	-58.632	-0.152	-0.067
-483.405	-200.000	-0.049	-0.247
-482.391	-83.571	-0.109	0.035
-481.376	157.444	0.075	0.105
-480.362	230.938	-0.079	0.131
-479.347	-87.165	-0.317	-0.098
-478.332	276.516	-0.156	0.281
-477.318	103.023	0.066	-0.079
-476.303	285.001	0.095	-0.174
-475.289	-162.961	-0.254	-0.013
-474.274	-107.063	0.319	-0.072
-473.259	-92.167	-0.279	-0.080
-472.245	-200.000	0.004	-0.196
-471.230	-162.228	0.747	-0.038
-470.216	511.556	-0.052	-0.123
-469.201	-16.008	-0.257	-0.166
-468.186	-188.561	-0.267	0.003
-467.172	-200.000	0.009	0.050
-466.157	187.950	-0.148	-0.224
-465.143	-87.326	0.406	-0.125
-464.128	228.573	-0.165	-0.272
-463.113	-144.105	-0.138	0.013
-462.099	-49.592	-0.191	0.092
-461.084	17.905	-0.211	-0.170
-460.070	445.232	0.139	-0.310
-459.055	43.685	0.073	-0.068
-458.040	38.888	0.088	0.079
-457.026	674.739	0.129	-0.339
-456.011	24.811	0.037	0.031
-454.997	-200.000	0.013	0.196
-453.982	-20.579	0.169	0.106
-452.968	48.561	0.256	0.243
-451.953	336.870	-0.123	-0.242
-450.938	152.197	-0.319	0.441
-449.924	-200.000	-0.035	-0.208
-448.909	295.336	0.126	-0.234
-447.895	70.184	-0.067	-0.070
-446.880	72.889	-0.186	-0.197
-445.865	-22.660	0.337	-0.206
-444.851	135.587	-0.066	-0.087
-443.836	-122.770	-0.221	0.036
-442.822	-96.834	0.425	-0.113
-441.807	-89.391	-0.093	0.028
-440.792	-200.000	0.027	-0.275
-439.778	193.567	0.131	-0.201
-438.763	-96.940	0.146	0.039
-437.749	32.800	-0.123	-0.108
-436.734	-139.194	-0.390	-0.043
-435.719	381.453	0.086	-0.179
-434.705	-158.681	-0.361	-0.021
-433.690	17.909	0.117	-0.094
-432.676	318.693	0.063	0.122
-431.661	-58.722	0.126	-0.055
-430.646	-200.000	0.025	0.285
-429.632	75.624	0.319	-0.341
-428.617	290.030	0.138	-0.254
-427.603	-200.000	-0.022	-0.246
-426.588	212.835	0.144	-0.230
-425.573	176.833	0.014	0.020
-424.559	-66.488	0.102	0.041
-423.544	48.695	0.334	0.317
-422.530	116.038	0.160	-0.199
-421.515	-162.301	-0.198	-0.010
-420.500	-200.000	0.019	0.100
-419.486	-114.695	-0.310	-0.060
-418.471	-138.027	-0.218	0.025
-417.457	234.972	-0.087	0.145
-416.442	-158.500	-0.075	0.004
-415.428	-200.000	0.011	0.135
-414.413	40.767	-0.135	-0.123
-413.398	10.349	0.228	0.176
-412.384	220.012	-0.180	0.292
-411.369	153.956	-0.204	-0.284
-410.355	-75.538	0.435	0.157
-409.340	800.000	0.049	0.177
-408.325	89.462	0.186	0.210
-407.311	-55.175	0.061	-0.028
-406.296	-32.367	0.297	0.168
-405.282	110.738	0.153	-0.187
-404.267	-63.342	-0.161	-0.067
-403.252	-200.000	-0.009	0.308
-402.238	-191.416	0.008	0.000
-401.223	-26.356	-0.182	0.108
-400.209	114.588	-0.198	-0.244
-399.194	2.494	-0.365	-0.268
-398.179	-14.473	-0.067	0.044
-397.165	-104.564	-0.190	-0.044
-396.150	-57.852	-0.043	0.019
-395.136	-95.133	-0.120	0.033
-394.121	36.536	-0.150	0.134
-393.106	-14.340	-0.126	0.082
-392.092	-145.239	0.312	-0.029
-391.077	-99.328	0.262	-0.067
-390.063	715.497	0.137	-0.366
-389.048	-119.186	-0.072	-0.013
-388.033	-44.350	-0.117	-0.060
-387.019	-130.407	0.286	0.039
-386.004	-200.000	-0.005	-0.097
-384.990	-176.039	-0.273	-0.007
-383.975	800.000	0.167	0.533
-382.960	-53.317	0.108	-0.050
-381.946	79.891	-0.175	0.190
-380.931	245.856	-0.180	0.306
-379.917	401.368	0.126	0.267
-378.902	-134.035	0.421	0.053
-377.888	31.064	0.156	-0.135
-376.873	-86.988	-0.203	-0.063
-375.858	800.000	-0.105	0.330
-374.844	108.401	-0.017	0.021
-373.829	296.986	-0.130	-0.242
-372.815	5.925	-0.043	-0.032
-371.800	-200.000	0.007	-0.123
-370.785	-99.020	0.193	-0.050
-369.771	-145.714	0.070	-0.006
-368.756	454.422	0.082	-0.183
-367.742	418.182	-0.068	-0.147
-366.727	-36.250	0.172	-0.094
-365.712	-188.360	-0.134	0.002
-364.698	114.111	-0.081	0.099
-363.683	540.021	0.019	0.046
-362.669	-67.908	-0.210	-0.083
-361.654	270.132	-0.050	0.088
-360.639	-101.188	-0.235	-0.058
-359.625	-142.323	-0.218	-0.022
-358.610	-200.000	-0.015	-0.354
-357.596	73.393	-0.158	-0.167
-356.581	800.000	-0.013	-0.048
-355.566	-93.527	-0.178	-0.050
-354.552	93.645	-0.033	0.037
-353.537	-55.985	0.153	-0.069
-352.523	-40.806	0.079	-0.041
-351.508	10.422	-0.328	-0.252
-350.493	-200.000	-0.017	-0.337
-349.479	800.000	-0.036	0.108
-348.464	271.290	0.093	0.165
-347.450	-200.000	-0.053	0.418
-346.435	800.000	-0.120	0.344
-345.420	59.666	-0.582	0.580
-344.406	330.672	0.132	0.258
-343.391	456.250	0.049	-0.110
-342.377	-200.000	-0.014	0.142
-341.362	119.914	0.119	0.149
-340.348	204.427	0.180	-0.282
-339.333	326.009	-0.124	0.239
-338.318	-200.000	0.021	-0.210
-337.304	141.392	-0.178	0.238
-336.289	59.745	-0.027	-0.027
-335.275	800.000	0.054	0.186
-334.260	482.583	-0.042	0.097
-333.245	-200.000	0.032	-0.372
-332.231	-200.000	0.223	-0.001
-331.216	595.562	-0.098	0.245
-330.202	-52.350	-0.167	0.078
-329.187	130.908	0.161	-0.209
-328.172	-135.991	-0.238	-0.028
-327.158	-92.952	0.064	-0.018
-326.143	443.798	0.183	0.405
-325.129	-29.365	0.434	0.251
-324.114	8.025	0.196	-0.148
-323.099	-13.194	0.366	0.240
-322.085	-13.927	0.078	0.051
-321.070	69.069	0.174	0.181
-320.056	46.233	0.260	-0.243
-319.041	58.143	0.175	-0.173
-318.026	-116.462	0.611	-0.114
-317.012	-114.211	-0.176	-0.034
-315.997	347.998	-0.146	0.290
-314.983	800.000	0.047	0.182
-313.968	502.869	-0.069	-0.161
-312.953	61.457	0.262	0.263
-311.939	-153.999	-0.161	0.011
-310.924	-175.819	-0.420	-0.011
-309.910	313.352	-0.088	0.166
-308.895	-104.371	0.142	-0.033
-307.880	800.000	-0.045	-0.156
-306.866	800.000	0.004	-0.016
-305.851	-200.000	-0.027	0.205
-304.837	-21.924	0.082	0.050
-303.822	510.253	0.088	-0.206
-302.807	375.094	-0.086	0.178
-301.793	800.000	-0.029	-0.127
-300.778	270.788	0.099	0.176
-299.764	218.031	0.095	0.153
-298.749	-33.815	-0.189	0.105
-297.735	-200.000	-0.003	0.291
-296.720	90.540	0.145	0.163
-295.705	55.449	0.027	0.026
-294.691	-99.971	-0.109	-0.027
-293.676	800.000	-0.053	-0.200
-292.662	800.000	0.089	-0.381
-291.647	-14.253	0.434	-0.282
-290.632	-127.378	0.374	-0.055
-289.618	414.462	-0.171	0.368
-288.603	-200.000	0.050	-0.320
-287.589	-200.000	0.000	0.118
-286.574	-91.345	-0.346	-0.100
-285.559	-200.000	0.000	0.021
-284.545	-200.000	0.038	0.200
-283.530	-200.000	0.007	0.112
-282.516	76.815	-0.058	-0.062
-281.501	-7.239	-0.115	0.079
-280.486	14.806	0.088	-0.070
-279.472	142.055	-0.096	0.128
-278.457	24.524	-0.180	0.150
-277.443	-97.525	-0.292	0.076
-276.428	178.773	-0.092	0.136
-275.413	747.337	0.098	0.267
-274.399	-0.952	-0.253	-0.180
-273.384	-108.963	0.278	-0.060
-272.370	-66.914	-0.230	-0.092
-271.355	93.094	-0.074	-0.085
-270.340	-200.000	-0.008	-0.262
-269.326	-89.096	-0.189	-0.056
-268.311	247.988	0.089	-0.152
-267.297	-200.000	0.016	0.363
-266.282	-62.945	0.161	-0.067
-265.267	-200.000	-0.001	0.378
-264.253	297.616	0.100	0.184
-263.238	-200.000	-0.016	0.163
-262.224	289.141	-0.086	-0.158
-261.209	38.438	0.119	0.107
-260.195	-86.389	0.044	-0.014
-259.180	-22.798	0.016	-0.010
-258.165	41.659	0.467	0.426
-257.151	-111.024	0.109	-0.022
-256.136	395.556	-0.151	-0.318
-255.122	18.684	-0.267	-0.215
-254.107	78.670	0.262	0.282
-253.092	-37.964	-0.174	0.093
-252.078	47.233	-0.240	-0.225
-251.063	-107.080	0.258	-0.057
-250.049	268.817	0.131	-0.232
-249.034	-98.603	-0.383	0.098
-248.019	800.000	-0.007	0.026
-247.005	488.984	-0.090	0.207
-245.990	-65.900	-0.133	-0.053
-244.976	101.270	-0.112	0.131
-243.961	-200.000	0.012	0.119
-242.946	-5.700	0.091	-0.062
-241.932	-0.611	-0.191	0.137
-240.917	-102.724	-0.180	-0.043
-239.903	141.402	-0.065	-0.086
-238.888	66.963	-0.213	-0.218
-237.873	-1.525	-0.244	0.173
-236.859	-13.143	-0.150	0.098
-235.844	-29.603	0.236	-0.136
-234.830	-200.000	0.044	0.297
-233.815	-111.173	0.265	-0.054
-232.800	-8.880	0.020	0.014
-231.786	11.487	-0.165	0.127
-230.771	800.000	0.098	0.285
-229.757	800.000	0.119	0.356
-228.742	-200.000	-0.006	-0.087
-227.727	-191.729	-0.142	0.001
-226.713	-46.582	0.311	-0.153
-225.698	-57.642	0.122	-0.054
-224.684	426.128	-0.057	-0.124
-223.669	254.939	-0.074	0.127
-222.655	8.164	-0.133	-0.101
-221.640	-200.000	-0.021	0.229
-220.625	800.000	-0.073	0.232
-219.611	-145.289	-0.144	0.013
-218.596	542.744	0.026	0.062
-217.582	-1.101	0.020	0.014
-216.567	-41.426	0.496	0.257
-215.552	-77.230	-0.106	-0.037
-214.538	343.144	-0.171	-0.337
-213.523	264.429	0.105	-0.184
-212.509	-71.200	0.050	-0.019
-211.494	-16.814	-0.080	-0.051
-210.479	47.098	0.088	-0.083
-209.465	615.454	0.123	0.310
-208.450	206.729	-0.004	0.006
-207.436	-200.000	0.045	-0.355
-206.421	-200.000	-0.028	0.279
-205.406	-200.000	0.107	0.530
-204.392	19.289	-0.218	-0.175
-203.377	17.477	0.251	-0.201
-202.363	-200.000	-0.008	0.079
-201.348	-200.000	0.001	0.033
-200.333	259.781	-0.039	-0.067
-199.319	-200.000	0.020	-0.246
-198.304	-5.551	-0.247	0.170
-197.290	-2.427	-0.249	0.175
-196.275	-200.000	0.095	0.557
-195.260	351.353	0.135	0.268
-194.246	800.000	0.113	0.333
-193.231	-200.000	0.006	0.091
-192.217	-26.914	-0.169	0.099
-191.202	22.795	0.193	0.159
-190.187	51.781	0.125	-0.120
-189.173	454.365	-0.175	-0.389
-188.158	46.444	0.221	0.205
-187.144	800.000	-0.065	-0.240
-186.129	-24.205	0.072	-0.043
-185.114	52.388	-0.094	0.090
-184.100	127.643	0.172	-0.219
-183.085	-38.587	0.067	0.035
-182.071	711.949	-0.125	0.331
-181.056	184.388	0.130	0.193
-180.042	-92.168	0.270	0.077
-179.027	-200.000	0.002	0.150
-178.012	-200.000	0.129	0.606
-176.998	-30.606	0.184	0.104
-175.983	-200.000	-0.029	0.259
-174.969	-200.000	-0.033	0.241
-173.954	238.481	-0.112	-0.187
-172.939	-200.000	-0.050	-0.305
-171.925	-21.162	-0.315	0.193
-170.910	800.000	0.054	0.188
-169.896	-200.000	0.030	-0.212
-168.881	-47.746	-0.098	0.048
-167.866	35.360	0.236	-0.207
-166.852	9.048	-0.224	0.170
-165.837	800.000	-0.035	0.111
-164.823	39.332	-0.200	-0.180
-163.808	-40.175	-0.062	0.032
-162.793	27.788	0.206	0.174
-161.779	-61.738	0.090	-0.038
-160.764	-118.577	0.047	0.008
-159.750	220.317	-0.048	-0.077
-158.735	800.000	-0.030	-0.088
-157.720	94.983	0.261	0.298
-156.706	-66.729	-0.237	-0.094
-155.691	-200.000	0.014	-0.224
-154.677	-200.000	0.020	-0.153
-153.662	800.000	0.135	0.513
-152.647	-82.031	0.556	0.182
-151.633	-200.000	-0.022	-0.250
-150.618	52.753	-0.102	0.097
-149.604	-200.000	0.001	0.239
-148.589	-3.318	0.012	0.009
-147.574	-2.093	-0.282	-0.198
-146.560	158.154	0.123	-0.172
-145.545	201.437	0.152	0.234
-144.531	142.191	-0.109	0.145
-143.516	-64.540	0.207	-0.084
-142.502	-200.000	-0.004	0.212
-141.487	121.827	-0.193	0.242
-140.472	-130.242	0.243	0.033
-139.458	-200.000	0.031	0.160
-138.443	47.201	0.160	-0.149
-137.429	800.000	0.018	-0.056
-136.414	59.538	0.052	0.052
-135.399	-200.000	0.062	0.380
-134.385	-89.172	-0.138	-0.041
-133.370	296.373	0.099	-0.181
-132.356	225.762	0.080	-0.129
-131.341	135.378	-0.164	0.214
-130.326	-200.000	0.016	0.313
-129.312	800.000	0.068	0.235
-128.297	289.944	-0.085	0.155
-127.283	-200.000	0.004	0.031
-126.268	-192.002	-0.084	-0.001
-125.253	-174.189	-0.098	-0.003
-124.239	-152.561	-0.156	0.011
-123.224	171.303	-0.104	-0.150
-122.210	50.382	-0.334	-0.317
-121.195	-133.549	-0.264	-0.033
-120.180	132.316	0.332	0.429
-119.166	6.736	-0.192	-0.143
-118.151	-111.215	0.263	-0.054
-117.137	-200.000	-0.004	-0.139
-116.122	-200.000	0.422	-0.002
-115.107	14.439	-0.244	-0.191
-114.093	-137.280	-0.028	0.003
-113.078	300.663	0.089	0.164
-112.064	-200.000	0.015	0.461
-111.049	-67.599	0.129	0.051
-110.034	-200.000	0.007	-0.074
-109.020	-138.763	0.138	0.015
-108.005	-176.987	-0.215	-0.005
-106.991	102.491	0.051	-0.059
-105.976	310.632	-0.215	-0.404
-104.962	40.774	-0.130	-0.117
-103.947	-163.523	0.380	0.018
-102.932	746.097	-0.034	0.090
-101.918	65.712	0.300	-0.304
-100.903	-30.725	-0.082	0.047
-99.889	-120.907	-0.229	0.039
-98.874	-75.012	-0.247	0.088
-97.859	-6.241	-0.273	-0.187
-96.845	-200.000	0.015	0.178
-95.830	-111.094	-0.020	0.004
-94.816	168.819	0.176	-0.251
-93.801	352.367	0.145	-0.287
-92.786	111.334	0.243	-0.293
-91.772	153.468	0.060	-0.083
-90.757	284.012	0.040	0.072
-89.743	150.390	-0.074	0.101
-88.728	-24.550	0.279	-0.166
-87.713	800.000	-0.018	0.066
-86.699	208.842	0.101	0.158
-85.684	-200.000	-0.014	-0.231
-84.670	-126.295	0.380	0.057
-83.655	9.343	-0.261	-0.198
-82.640	800.000	-0.151	-0.433
-81.626	34.795	-0.075	-0.066
-80.611	-12.450	-0.175	0.114
-79.597	29.933	0.043	-0.037
-78.582	56.009	0.031	0.031
-77.567	-36.824	-0.130	0.070
-76.553	127.403	-0.158	0.200
-75.538	-200.000	0.017	-0.101
-74.524	449.615	-0.104	0.229
-73.509	800.000	0.100	0.325
-72.494	335.223	0.014	-0.027
-71.480	-196.778	-0.123	-0.001
-70.465	1.454	0.133	-0.095
-69.451	267.745	0.175	-0.306
-68.436	-164.447	0.180	-0.008
-67.422	445.988	0.098	-0.214
-66.407	-39.570	-0.446	0.234
-65.392	5.817	0.333	0.246
-64.378	127.968	-0.202	-0.257
-63.363	-200.000	0.020	0.252
-62.349	-131.899	-0.101	0.013
-61.334	224.046	-0.368	-0.593
-60.319	55.052	0.150	0.145
-59.305	790.032	-0.205	-0.564
-58.290	-200.000	-0.117	0.562
-57.276	139.938	1.078	1.420
-56.261	-200.000	71.301	528.300
-55.246	604.135	1275.761	3170.977
-54.232	146.531	2496.585	3348.918
-53.217	122.045	2242.379	2795.337
-52.203	55.571	1764.243	1706.055
-51.188	47.558	1557.682	1450.498
-50.173	44.545	1527.611	1401.715
-49.159	59.771	1561.107	1538.458
-48.144	67.213	1581.028	1609.644
-47.130	47.834	1545.343	1440.692
-46.115	44.049	1530.923	1401.109
-45.100	43.937	1527.460	1397.112
-44.086	43.843	1525.812	1394.899
-43.071	43.815	1523.948	1392.945
-42.057	43.740	1522.186	1390.765
-41.042	43.741	1520.603	1389.272
-40.027	43.728	1519.090	1387.747
-39.013	43.822	1517.237	1386.637
-37.998	43.773	1516.185	1385.285
-36.984	43.765	1515.225	1384.299
-35.969	43.909	1513.713	1383.847
-34.954	43.852	1512.563	1382.352
-33.940	43.874	1510.748	1380.788
-32.925	43.815	1509.220	1378.934
-31.911	43.933	1507.984	1378.558
-30.896	43.901	1506.546	1376.970
-29.881	43.961	1504.746	1375.677
-28.867	43.921	1503.848	1374.530
-27.852	43.925	1502.362	1373.143
-26.838	43.814	1500.778	1370.889
-25.823	43.849	1499.306	1369.725
-24.809	43.789	1497.841	1367.932
-23.794	43.811	1496.002	1366.341
-22.779	43.900	1494.871	1365.854
-21.765	43.901	1493.444	1364.507
-20.750	43.902	1492.273	1363.389
-19.736	43.867	1491.302	1362.214
-18.721	43.805	1490.604	1361.102
-17.706	43.739	1489.226	1359.351
-16.692	43.791	1487.725	1358.275
-15.677	43.729	1486.802	1356.961
-14.663	43.779	1485.842	1356.367
-13.648	43.791	1484.752	1355.397
-12.633	43.827	1483.939	1354.844
-11.619	43.744	1483.162	1353.526
-10.604	43.782	1481.781	1352.464
-9.590	43.707	1481.114	1351.297
-8.575	43.737	1480.447	1350.836
-7.560	43.701	1479.653	1349.819
-6.546	43.729	1478.899	1349.264
-5.531	43.724	1477.821	1348.196
-4.517	43.668	1476.626	1346.681
-3.502	43.753	1475.695	1346.338
-2.487	43.724	1474.625	1345.117
-1.473	43.664	1473.899	1344.007
-0.458	43.795	1472.457	1343.506
0.556	43.129	1463.826	1334.133
1.571	40.797	1435.334	1292.899
2.586	36.973	1372.184	1212.048
3.600	34.727	1288.264	1124.618
4.615	32.565	1240.049	1070.163
5.629	26.911	1180.852	988.293
6.644	13.557	1086.601	841.918
7.659	3.022	1037.456	752.419
8.673	1.330	1031.149	739.540
9.688	1.113	1028.292	736.373
10.702	0.871	1026.799	734.064
11.717	1.046	1024.927	733.506
12.731	4.974	1030.159	756.269
13.746	16.224	1046.436	823.325
14.761	23.496	1054.764	865.428
15.775	23.701	1054.467	866.108
16.790	23.722	1053.764	865.558
17.804	23.570	1053.049	864.153
18.819	23.301	1051.875	861.804
19.834	23.428	1051.172	861.771
20.848	23.527	1050.551	861.667
21.863	23.451	1050.954	861.551
22.877	23.603	1050.127	861.533
23.892	23.513	1049.502	860.507
24.907	23.396	1048.623	859.142
25.921	23.483	1047.823	858.837
26.936	23.397	1047.731	858.267
27.950	23.481	1045.889	857.089
28.965	23.352	1045.064	855.715
29.980	23.324	1043.580	854.286
30.994	23.250	1042.020	852.578
32.009	23.577	1041.531	853.677
33.023	23.567	1040.926	853.056
34.038	23.432	1039.929	851.514
35.053	23.308	1038.942	850.037
36.067	23.532	1038.122	850.363
37.082	23.369	1037.724	849.183
38.096	23.490	1036.711	848.860
39.111	23.679	1036.285	849.337
40.126	23.844	1035.262	849.212
41.140	23.578	1034.186	846.986
42.155	23.422	1032.601	844.870
43.169	23.084	1031.681	842.433
44.184	23.098	1030.713	841.634
45.199	23.171	1029.452	840.877
46.213	22.963	1029.021	839.460
47.228	23.117	1027.821	839.140
48.242	23.322	1027.375	839.675
49.257	23.331	1026.737	839.118
50.271	23.223	1026.431	838.284
51.286	23.486	1025.029	838.306
52.301	23.445	1024.440	837.558
53.315	23.548	1023.571	837.261
54.330	23.592	1022.832	836.790
55.344	23.451	1021.877	835.267
56.359	23.293	1021.428	834.083
57.374	23.447	1020.264	833.786
58.388	23.303	1019.449	832.370
59.403	23.259	1018.568	831.369
60.417	23.158	1018.213	830.533
61.432	23.199	1017.144	829.776
62.447	23.221	1016.339	829.149
63.461	23.344	1015.879	829.279
64.476	23.222	1015.383	828.229
65.490	23.339	1014.112	827.666
66.505	23.157	1013.368	826.135
67.520	23.090	1012.548	825.081
68.534	23.307	1011.697	825.326
69.549	23.265	1010.536	824.109
70.563	22.888	1009.586	821.511
71.578	22.773	1008.819	820.280
72.593	22.868	1008.212	820.155
73.607	22.662	1006.938	818.088
74.622	22.589	1006.204	817.084
75.636	22.885	1005.234	817.591
76.651	23.053	1004.791	817.938
77.666	23.128	1003.866	817.457
78.680	23.010	1002.298	815.564
79.695	22.858	1002.436	814.904
80.709	22.884	1001.845	814.471
81.724	23.129	1000.748	814.634
82.739	23.111	1000.325	814.138
83.753	23.055	999.405	813.058
84.768	23.436	998.707	814.168
85.782	23.597	998.739	814.861
86.797	23.873	997.645	815.165
87.812	23.727	997.095	813.974
88.826	23.648	995.915	812.577
89.841	23.653	994.942	811.730
90.855	23.677	994.445	811.364
91.870	23.927	993.340	811.531
92.884	23.680	992.644	809.767
93.899	23.577	991.907	808.623
94.914	23.461	991.073	807.344
95.928	23.618	990.117	807.207
96.943	23.758	989.336	807.134
97.957	23.421	988.353	804.733
98.972	23.223	987.109	802.751
99.987	22.860	986.180	800.278
101.001	23.078	985.114	800.329
102.016	23.370	984.695	801.239
103.030	23.451	984.251	801.173
104.045	23.501	982.691	800.059
105.060	23.246	981.809	798.122
106.074	23.125	980.504	796.443
107.089	22.999	980.193	795.555
108.103	23.454	979.537	796.999
109.118	23.538	978.442	796.412
110.133	23.264	977.606	794.434
111.147	23.143	976.772	793.144
112.162	23.176	975.683	792.337
113.176	22.870	974.465	789.908
114.191	22.949	973.762	789.620
115.206	23.234	973.078	790.268
116.220	22.808	972.117	787.520
117.235	22.603	971.278	785.853
118.249	22.806	970.331	785.925
119.264	22.861	969.607	785.511
120.279	22.761	968.471	784.077
121.293	22.746	967.943	783.517
122.308	22.856	967.211	783.342
123.322	22.933	966.299	782.875
124.337	22.872	965.706	782.053
125.352	22.784	964.303	780.461
126.366	22.526	962.309	777.639
127.381	22.186	961.160	775.141
128.395	22.510	960.964	776.342
129.410	23.091	961.151	778.987
130.424	23.391	959.998	779.300
131.439	23.498	958.648	778.609
132.454	23.473	958.043	777.939
133.468	23.559	956.783	777.222
134.483	23.338	956.573	776.016
135.497	23.607	955.591	776.326
136.512	23.624	955.732	776.447
137.527	23.672	955.174	776.134
138.541	23.638	954.015	774.975
139.556	23.776	953.132	774.791
140.570	23.824	952.195	774.172
141.585	23.737	951.409	773.084
142.600	23.828	951.112	773.170
143.614	23.607	950.053	771.281
144.629	23.721	949.547	771.294
145.643	24.061	948.616	771.945
146.658	23.851	947.305	769.901
147.673	23.692	946.291	768.324
148.687	23.643	944.914	766.924
149.702	23.618	943.524	765.622
150.716	23.487	942.545	764.196
151.731	23.393	941.645	762.991
152.746	23.455	940.891	762.580
153.760	23.743	940.295	763.268
154.775	23.780	939.793	762.951
155.789	23.789	938.884	762.186
156.804	23.670	938.178	761.033
157.819	23.659	937.138	760.077
158.833	23.704	936.483	759.669
159.848	23.807	935.551	759.287
160.862	23.905	934.876	759.092
161.877	23.705	934.038	757.491
162.892	23.835	932.617	756.822
163.906	23.709	931.986	755.707
164.921	23.772	931.279	755.336
165.935	23.654	930.203	753.898
166.950	23.612	929.592	753.156
167.964	23.756	928.055	752.452
168.979	23.797	927.048	751.745
169.994	23.629	926.282	750.347
171.008	23.457	925.296	748.754
172.023	23.765	924.370	749.239
173.037	23.626	924.162	748.418
174.052	23.610	923.033	747.370
175.067	23.505	921.641	745.736
176.081	23.351	920.701	744.261
177.096	23.531	919.886	744.292
178.110	23.573	919.345	743.963
179.125	23.293	918.062	741.689
180.140	23.105	916.998	739.979
181.154	23.044	916.425	739.193
182.169	23.211	916.152	739.605
183.183	23.368	916.049	740.113
184.198	23.757	915.707	741.394
185.213	23.805	914.198	740.310
186.227	23.603	913.960	739.206
187.242	23.588	913.430	738.653
188.256	23.701	912.674	738.445
189.271	23.680	912.262	737.960
190.286	23.792	911.339	737.614
191.300	23.801	909.901	736.420
192.315	23.243	909.007	733.322
193.329	22.399	907.812	728.798
194.344	22.081	906.240	726.157
195.359	22.509	907.059	728.523
196.373	23.436	907.160	732.370
197.388	23.719	906.445	732.894
198.402	23.546	906.445	732.117
199.417	23.514	905.956	731.525
200.432	23.568	905.027	730.933
201.446	23.474	904.490	730.046
202.461	23.210	903.256	727.900
203.475	23.255	902.947	727.774
204.490	22.954	901.540	725.337
205.504	21.697	899.400	718.400
206.519	22.048	899.142	719.572
207.534	23.027	899.861	724.093
208.548	23.146	899.156	723.950
209.563	23.548	898.756	725.208
210.577	23.501	898.106	724.429
211.592	23.322	897.566	723.197
212.607	23.587	896.961	723.727
213.621	23.737	896.750	724.102
214.636	23.737	896.018	723.447
215.650	23.671	895.580	722.763
216.665	23.780	894.862	722.561
217.680	23.726	894.372	721.885
218.694	23.673	894.101	721.384
219.709	23.618	892.758	720.014
220.723	23.168	892.083	717.582
221.738	23.444	891.349	718.047
222.753	23.493	891.143	718.016
223.767	23.472	890.751	717.552
224.782	23.708	889.614	717.525
225.796	23.781	888.931	717.205
226.811	24.043	888.538	717.880
227.826	23.449	887.876	714.890
228.840	22.789	885.926	710.599
229.855	22.578	884.950	708.904
230.869	22.926	885.017	710.296
231.884	22.668	883.884	708.286
232.899	22.532	883.362	707.261
233.913	23.336	883.640	710.648
234.928	23.603	883.444	711.498
235.942	23.542	882.639	710.542
236.957	23.511	881.907	709.766
237.972	23.208	880.729	707.542
238.986	23.048	880.254	706.460
240.001	23.076	880.158	706.432
241.015	23.347	879.054	706.565
242.030	23.425	878.359	706.253
243.045	23.484	878.285	706.366
244.059	23.533	877.621	705.964
245.074	23.582	877.361	705.887
246.088	23.546	876.703	705.155
247.103	23.410	875.367	703.477
248.117	23.448	874.540	702.900
249.132	23.952	874.768	705.021
250.147	24.181	874.880	705.955
251.161	24.189	874.550	705.659
252.176	24.377	874.046	705.935
253.190	24.407	873.068	705.200
254.205	24.543	872.973	705.597
255.220	24.667	872.392	705.555
256.234	24.676	872.114	705.302
257.249	24.626	871.095	704.218
258.263	24.318	870.491	702.456
259.278	24.281	869.710	701.619
260.293	24.555	869.206	702.227
261.307	24.657	868.727	702.180
262.322	24.388	868.490	700.867
263.336	24.423	867.392	700.059
264.351	24.051	866.141	697.527
265.366	22.830	864.245	691.162
266.380	22.353	863.091	688.314
267.395	23.167	863.299	691.601
268.409	24.014	863.617	695.106
269.424	24.039	862.744	694.440
270.439	24.054	862.790	694.472
271.453	24.446	862.113	695.395
272.468	24.389	861.456	694.581
273.482	24.389	861.346	694.431
274.497	24.589	860.616	694.557
275.512	24.525	859.554	693.391
276.526	23.922	858.278	689.960
277.541	23.878	857.911	689.436
278.555	24.335	858.476	691.603
279.570	24.206	857.305	690.098
280.585	24.058	856.138	688.523
281.599	24.011	856.011	688.180
282.614	24.238	855.663	688.716
283.628	23.839	854.013	685.789
284.643	23.504	853.513	684.034
285.657	23.970	853.197	685.515
286.672	23.692	853.202	684.387
287.687	23.355	851.746	681.861
288.701	23.553	851.950	682.728
289.716	24.000	851.441	683.979
290.730	23.532	850.779	681.589
291.745	23.488	850.208	680.899
292.760	23.329	848.840	679.135
293.774	23.358	848.121	678.611
294.789	23.959	849.203	681.720
295.803	24.760	848.783	684.388
296.818	24.755	848.436	684.031
297.833	24.922	847.644	683.971
298.847	24.820	846.594	682.674
299.862	24.257	845.761	679.796
300.876	24.476	845.630	680.464
301.891	24.839	845.142	681.392
302.906	24.923	844.519	681.151
303.920	24.442	843.319	678.296
304.935	24.255	842.866	677.161
305.949	24.698	842.219	678.263
306.964	24.704	842.283	678.276
307.979	24.690	841.130	677.234
308.993	24.559	840.549	676.209
310.008	24.805	840.574	677.103
311.022	25.079	840.047	677.654
312.037	24.829	839.782	676.436
313.052	24.567	839.127	674.859
314.066	24.560	837.837	673.732
315.081	23.791	836.380	669.608
316.095	23.064	835.380	666.009
317.110	23.568	835.362	667.832
318.125	24.301	835.982	671.030
319.139	23.972	834.762	668.757
320.154	22.943	833.267	663.636
321.168	22.510	832.290	661.172
322.183	22.925	832.484	662.827
323.197	23.946	832.817	666.862
324.212	24.377	832.249	667.965
325.227	24.555	831.932	668.315
326.241	24.657	831.760	668.501
327.256	24.612	831.047	667.701
328.270	24.452	830.497	666.602
329.285	24.417	829.841	665.886
330.300	24.154	829.302	664.413
331.314	24.062	828.182	663.112
332.329	23.938	827.913	662.378
333.343	24.353	827.854	663.816
334.358	24.694	827.004	664.343
335.373	24.741	826.530	664.078
336.387	24.793	825.931	663.733
337.402	24.841	825.783	663.731
338.416	25.141	825.192	664.311
339.431	25.145	824.808	663.959
340.446	25.036	824.540	663.280
341.460	25.343	823.881	663.825
342.475	25.321	823.266	663.192
343.489	24.976	822.502	661.244
344.504	25.037	821.734	660.791
345.519	25.304	821.684	661.678
346.533	25.593	821.417	662.467
347.548	25.400	821.249	661.564
348.562	25.678	820.219	661.698
349.577	25.511	819.746	660.645
350.592	25.412	819.286	659.852
351.606	25.399	818.705	659.278
352.621	25.294	818.315	658.520
353.635	25.452	817.985	658.776
354.650	25.286	817.617	657.814
355.665	25.017	816.023	655.488
356.679	24.080	814.557	650.827
357.694	23.881	813.848	649.476
358.708	24.387	814.096	651.465
359.723	24.500	813.364	651.233
360.738	24.720	813.000	651.689
361.752	25.026	813.324	653.005
362.767	25.346	812.572	653.508
363.781	25.472	812.665	653.985
364.796	25.658	812.614	654.562
365.810	25.827	812.143	654.740
366.825	25.845	811.916	654.564
367.840	25.832	811.575	654.183
368.854	25.796	811.075	653.593
369.869	25.401	810.038	651.266
370.883	25.162	809.264	649.720
371.898	25.226	808.660	649.410
372.913	25.154	808.005	648.566
373.927	25.138	807.575	648.107
374.942	25.375	806.779	648.266
375.956	25.354	806.502	647.908
376.971	25.674	805.646	648.318
377.986	25.610	805.629	648.015
379.000	25.682	805.227	647.893
380.015	25.855	804.669	648.009
381.029	25.645	803.880	646.563
382.044	25.572	802.961	645.504
383.059	25.670	802.851	645.710
384.073	25.868	802.252	645.880
385.088	25.835	801.973	645.481
386.102	25.785	801.574	644.923
387.117	25.624	800.734	643.617
388.132	25.386	800.399	642.437
389.146	25.493	799.332	641.906
390.161	24.817	798.271	638.585
391.175	24.738	798.154	638.153
392.190	25.383	798.270	640.492
393.205	25.552	797.958	640.786
394.219	24.386	796.328	635.271
395.234	22.940	794.043	628.256
396.248	22.259	792.599	624.640
397.263	22.966	793.945	628.158
398.278	24.829	795.142	635.676
399.292	25.399	795.123	637.629
400.307	25.182	794.097	635.980
401.321	25.158	793.542	635.395
402.336	25.107	793.223	634.902
403.350	25.390	793.438	636.021
404.365	25.893	793.398	637.710
405.380	26.185	792.925	638.306
406.394	26.551	792.387	639.110
407.409	26.587	792.482	639.258
408.423	26.571	791.840	638.628
409.438	26.485	791.016	637.602
410.453	26.308	791.225	637.090
411.467	26.560	790.673	637.476
412.482	26.529	789.968	636.743
413.496	26.588	789.255	636.320
414.511	26.676	789.002	636.369
415.526	26.616	788.428	635.638
416.540	26.522	788.527	635.331
417.555	26.346	787.937	634.185
418.569	26.219	786.996	632.924
419.584	26.216	786.076	632.120
420.599	26.157	785.995	631.791
421.613	83.709	1238.745	1300.819
422.628	70.913	1304.732	1300.944
