DTS Sentinel unit serial number:	SN413079Multiplexer serial number:	ORYXHardware model number:	OX4-SRSoftware version number:	ORYX F/W v4.00 Oryx Data Collector v3.7.2.0data status	okinstallation	princeton_trtdifferential loss correction	single-endedforward channel	channel 3reverse channel	N/Adate	2019/09/11time	11:54:11forward acquisition time	60.00reverse acquisition time	0.00gamma	496.2192k internal	0.2291k external	0.2291temperature offset calibration	0.9938default loss term (dB/km)	0.3790temperature slope calibration	1.0000multiplexer offset coefficient	1.0000multiplexer slope coefficient	1.0000fibre end	0.00T internal ref (°C)	39.00T ext. ref 1 (°C)	0.19T ext. ref 2 (°C)	37.18length (m)	temperature (°C)	Stokes	anti-Stokes-747.200	-24.624	-0.044	0.027
-746.185	773.711	0.075	0.211
-745.171	-96.750	0.146	0.039
-744.156	-132.575	-0.206	-0.027
-743.142	48.345	0.189	-0.181
-742.127	85.138	-0.116	-0.130
-741.112	-200.000	-0.023	-0.110
-740.098	-200.000	0.033	0.358
-739.083	-72.124	0.048	0.018
-738.069	-200.000	0.028	0.130
-737.054	794.488	0.160	-0.451
-736.039	-77.743	0.249	0.088
-735.025	-78.390	0.254	0.089
-734.010	53.318	-0.202	0.198
-732.996	800.000	0.066	-0.269
-731.981	-2.464	-0.151	-0.108
-730.966	-18.247	-0.280	-0.179
-729.952	-131.515	0.108	0.015
-728.937	-167.426	-0.443	0.018
-727.923	0.124	-0.138	-0.100
-726.908	189.839	-0.102	-0.157
-725.894	-156.339	-0.133	0.009
-724.879	83.214	-0.155	-0.172
-723.864	-19.482	-0.308	-0.195
-722.850	-200.000	0.021	-0.214
-721.835	-14.433	-0.064	0.042
-720.821	91.944	-0.159	0.183
-719.806	-200.000	-0.006	-0.119
-718.791	-36.776	0.054	-0.029
-717.777	-182.324	-0.511	0.010
-716.762	100.691	-0.189	0.224
-715.748	800.000	0.014	0.057
-714.733	35.154	0.304	-0.273
-713.718	-37.384	0.015	-0.008
-712.704	-123.656	-0.044	0.007
-711.689	35.102	-0.091	0.082
-710.675	-5.578	-0.196	0.137
-709.660	-17.090	0.159	0.102
-708.645	119.224	-0.042	-0.053
-707.631	-200.000	-0.002	-0.013
-706.616	800.000	0.041	-0.167
-705.602	568.208	-0.170	0.423
-704.587	-98.611	-0.305	-0.080
-703.572	-91.340	0.246	0.072
-702.558	27.939	0.136	-0.117
-701.543	-28.452	-0.091	0.053
-700.529	433.259	-0.050	0.112
-699.514	770.662	-0.013	0.036
-698.499	-96.088	0.240	0.065
-697.485	-200.000	-0.041	-0.259
-696.470	250.980	0.099	0.172
-695.456	20.644	-0.075	-0.062
-694.441	-116.280	-0.136	0.026
-693.426	-200.000	0.003	0.233
-692.412	-44.855	0.171	-0.087
-691.397	-200.000	0.034	-0.178
-690.383	3.208	-0.243	-0.181
-689.368	-8.070	-0.287	0.198
-688.354	-200.000	-0.012	-0.280
-687.339	254.087	-0.047	0.082
-686.324	800.000	-0.127	-0.373
-685.310	7.188	0.108	0.082
-684.295	254.818	-0.103	-0.180
-683.281	800.000	0.105	0.422
-682.266	-200.000	0.012	-0.410
-681.251	-62.830	-0.278	0.118
-680.237	-110.032	-0.449	0.096
-679.222	25.336	0.054	0.046
-678.208	-107.145	0.122	-0.028
-677.193	-200.000	0.021	-0.286
-676.178	283.606	-0.136	-0.250
-675.164	-124.977	0.223	0.035
-674.149	76.395	-0.127	0.137
-673.135	-200.000	-0.024	0.142
-672.120	-151.153	0.346	-0.026
-671.105	-94.627	-0.291	0.081
-670.091	173.836	-0.209	0.308
-669.076	-200.000	0.068	-0.424
-668.062	-200.000	-0.077	-0.453
-667.047	-48.050	-0.240	-0.119
-666.032	800.000	-0.021	-0.060
-665.018	-92.401	0.451	-0.129
-664.003	55.874	-0.122	-0.121
-662.989	-89.218	0.245	-0.074
-661.974	36.486	0.077	-0.070
-660.959	-200.000	-0.018	-0.185
-659.945	-116.546	-0.209	0.039
-658.930	-200.000	-0.020	0.093
-657.916	-71.860	-0.195	-0.074
-656.901	91.358	-0.043	-0.049
-655.886	-132.825	-0.027	-0.003
-654.872	615.984	-0.075	-0.191
-653.857	385.551	0.059	-0.125
-652.843	449.442	-0.122	0.274
-651.828	48.359	-0.014	0.013
-650.814	43.753	-0.175	-0.163
-649.799	-200.000	0.037	0.187
-648.784	-75.303	-0.107	-0.039
-647.770	-200.000	0.014	-0.133
-646.755	-121.124	-0.047	-0.008
-645.741	132.451	0.317	-0.416
-644.726	-200.000	0.029	-0.286
-643.711	138.657	-0.163	0.219
-642.697	-90.342	0.072	0.021
-641.682	666.659	-0.038	-0.100
-640.668	-96.978	0.326	0.087
-639.653	-144.004	0.135	-0.013
-638.638	-200.000	0.017	-0.098
-637.624	-39.784	0.219	0.117
-636.609	800.000	0.033	-0.130
-635.595	10.956	-0.185	-0.144
-634.580	-136.562	0.027	-0.003
-633.565	298.782	0.208	-0.391
-632.551	-139.470	-0.277	-0.030
-631.536	52.409	-0.062	-0.060
-630.522	-22.832	0.016	-0.010
-629.507	-200.000	-0.028	-0.164
-628.492	-39.016	0.093	-0.050
-627.478	199.297	0.083	0.129
-626.463	-200.000	-0.005	0.225
-625.449	408.267	-0.056	-0.121
-624.434	-108.931	0.124	-0.027
-623.419	-87.453	-0.334	-0.103
-622.405	-77.836	-0.070	-0.025
-621.390	34.795	0.180	-0.160
-620.376	-115.588	-0.262	-0.050
-619.361	289.224	-0.053	-0.097
-618.346	-115.811	-0.376	0.072
-617.332	-59.793	-0.297	0.130
-616.317	472.337	0.079	-0.181
-615.303	620.975	0.103	-0.263
-614.288	-100.074	-0.042	0.011
-613.273	-73.071	-0.304	0.113
-612.259	-200.000	-0.056	-0.265
-611.244	23.647	-0.155	0.130
-610.230	255.795	0.206	-0.360
-609.215	-200.000	0.015	0.132
-608.201	800.000	0.083	-0.328
-607.186	-200.000	0.005	-0.110
-606.171	21.257	0.299	-0.248
-605.157	-200.000	0.003	0.298
-604.142	800.000	-0.070	-0.219
-603.128	192.551	-0.149	0.229
-602.113	-200.000	-0.025	0.277
-601.098	-80.513	-0.320	-0.109
-600.084	167.609	-0.203	0.293
-599.069	800.000	0.086	-0.336
-598.055	10.471	-0.203	-0.158
-597.040	23.984	-0.337	0.283
-596.025	-200.000	0.013	0.336
-595.011	-116.985	-0.154	0.029
-593.996	-200.000	0.039	0.244
-592.982	87.898	0.219	0.247
-591.967	-59.115	0.176	0.077
-590.952	376.574	0.210	-0.435
-589.938	-68.575	-0.126	-0.050
-588.923	-48.486	-0.102	-0.050
-587.909	69.431	-0.215	0.225
-586.894	308.696	-0.094	-0.179
-585.879	-188.914	-0.475	0.006
-584.865	800.000	-0.093	0.375
-583.850	-200.000	0.035	-0.395
-582.836	-106.570	-0.376	-0.085
-581.821	378.379	-0.139	0.290
-580.806	644.548	0.060	0.155
-579.792	457.844	0.095	-0.215
-578.777	-113.907	-0.158	0.031
-577.763	-141.042	-0.539	0.056
-576.748	-134.136	0.219	0.028
-575.733	-200.000	0.011	-0.108
-574.719	331.107	0.166	-0.325
-573.704	800.000	-0.018	-0.053
-572.690	-200.000	-0.023	0.342
-571.675	-35.597	0.153	-0.084
-570.661	-6.288	0.192	0.133
-569.646	106.628	0.250	0.302
-568.631	-200.000	-0.017	0.097
-567.617	154.001	-0.132	0.184
-566.602	-64.957	-0.181	-0.074
-565.588	-24.020	0.147	-0.089
-564.573	800.000	0.064	-0.259
-563.558	-129.594	0.255	0.036
-562.544	-200.000	0.048	-0.286
-561.529	-23.417	-0.217	-0.132
-560.515	93.411	0.318	-0.365
-559.500	-200.000	-0.017	0.229
-558.485	31.454	-0.111	-0.097
-557.471	31.793	-0.249	0.218
-556.456	-200.000	-0.037	-0.189
-555.442	14.939	-0.123	0.098
-554.427	439.032	-0.062	-0.137
-553.412	173.678	0.106	-0.156
-552.398	-200.000	-0.008	-0.059
-551.383	157.135	0.360	-0.506
-550.369	800.000	0.040	0.119
-549.354	-51.799	0.065	-0.031
-548.339	290.455	-0.065	0.121
-547.325	663.090	-0.141	0.371
-546.310	91.808	-0.260	-0.297
-545.296	143.237	0.173	0.234
-544.281	-200.000	-0.025	0.272
-543.266	800.000	0.141	0.464
-542.252	-63.833	0.470	0.195
-541.237	800.000	0.003	0.015
-540.223	121.783	-0.152	0.193
-539.208	-200.000	0.023	0.186
-538.193	83.518	0.193	0.214
-537.179	-200.000	0.012	0.078
-536.164	5.947	-0.224	0.169
-535.150	-200.000	-0.008	0.046
-534.135	282.171	-0.053	-0.097
-533.121	-22.425	-0.287	0.176
-532.106	3.221	-0.171	-0.126
-531.091	-0.685	-0.255	0.184
-530.077	-200.000	-0.003	-0.065
-529.062	-200.000	0.060	0.274
-528.048	234.593	0.183	0.306
-527.033	47.589	-0.095	0.090
-526.018	-23.602	0.281	-0.171
-525.004	-26.626	-0.346	-0.206
-523.989	-102.955	-0.259	-0.062
-522.975	800.000	0.140	0.532
-521.960	192.497	0.049	0.076
-520.945	-48.914	-0.085	0.041
-519.931	-9.317	0.362	0.245
-518.916	6.748	-0.059	0.044
-517.902	-109.946	0.235	-0.050
-516.887	-16.338	0.307	0.198
-515.872	-27.684	-0.323	0.190
-514.858	-114.840	-0.181	-0.035
-513.843	-147.782	0.216	-0.018
-512.829	52.601	-0.164	0.159
-511.814	-56.970	-0.208	0.093
-510.799	85.927	0.097	0.108
-509.785	9.020	0.217	-0.166
-508.770	14.492	0.158	0.125
-507.756	746.216	0.070	-0.191
-506.741	-70.186	0.306	0.118
-505.726	800.000	0.019	0.082
-504.712	124.447	-0.188	-0.240
-503.697	-151.270	-0.298	-0.023
-502.683	-145.558	0.231	-0.021
-501.668	37.435	-0.104	-0.093
-500.653	8.786	-0.288	-0.221
-499.639	58.990	-0.021	-0.021
-498.624	176.381	-0.060	0.088
-497.610	16.530	0.142	0.114
-496.595	-18.822	0.131	-0.083
-495.581	258.755	-0.106	0.185
-494.566	-164.100	-0.315	-0.015
-493.551	-26.842	-0.314	-0.186
-492.537	41.832	-0.107	0.098
-491.522	-37.384	0.023	0.013
-490.508	423.152	0.065	0.142
-489.493	-39.755	-0.134	-0.071
-488.478	-46.985	0.113	-0.056
-487.464	-75.818	-0.042	0.015
-486.449	370.185	-0.109	0.224
-485.435	-14.185	0.143	0.093
-484.420	-81.837	0.276	-0.091
-483.405	26.297	0.301	-0.255
-482.391	800.000	-0.031	0.111
-481.376	-200.000	0.001	-0.213
-480.362	142.933	-0.143	0.193
-479.347	-200.000	0.096	0.463
-478.332	-200.000	0.005	0.077
-477.318	-86.546	-0.215	0.067
-476.303	800.000	-0.061	0.218
-475.289	-200.000	-0.004	-0.044
-474.274	137.219	-0.094	-0.124
-473.259	17.771	0.187	0.151
-472.245	86.189	-0.049	-0.055
-471.230	-200.000	0.029	-0.164
-470.216	270.507	0.046	-0.082
-469.201	107.987	0.145	-0.176
-468.186	-108.621	-0.439	-0.095
-467.172	-163.731	-0.110	-0.005
-466.157	397.031	0.102	-0.217
-465.143	-200.000	0.041	-0.192
-464.128	-200.000	0.059	0.353
-463.113	-200.000	-0.023	-0.346
-462.099	491.557	0.078	0.180
-461.084	-62.661	0.076	-0.032
-460.070	-200.000	-0.024	0.142
-459.055	71.987	0.372	0.392
-458.040	-200.000	-0.045	-0.259
-457.026	-158.670	0.144	0.008
-456.011	73.187	0.156	0.166
-454.997	-97.413	0.353	0.093
-453.982	-47.760	-0.178	-0.087
-452.968	-81.418	-0.357	-0.119
-451.953	55.116	0.150	-0.147
-450.938	-97.310	-0.091	-0.024
-449.924	-144.822	-0.340	-0.032
-448.909	-200.000	0.023	-0.160
-447.895	-47.832	-0.345	-0.169
-446.880	61.954	0.092	0.092
-445.865	-110.240	-0.187	-0.039
-444.851	-66.809	0.235	0.094
-443.836	158.645	0.194	0.272
-442.822	-42.872	0.191	0.098
-441.807	1.272	-0.079	-0.057
-440.792	-66.434	-0.215	-0.086
-439.778	-11.489	0.198	0.132
-438.763	800.000	0.066	-0.269
-437.749	-200.000	-0.008	0.057
-436.734	-97.728	0.409	-0.107
-435.719	674.932	0.106	0.278
-434.705	-29.276	0.277	0.161
-433.690	-54.127	0.266	0.122
-432.676	246.138	0.052	-0.089
-431.661	-48.742	-0.162	0.079
-430.646	-148.047	-0.416	0.035
-429.632	161.955	-0.130	0.185
-428.617	-66.019	-0.257	0.104
-427.603	800.000	0.090	0.255
-426.588	-22.971	-0.315	0.192
-425.573	-20.268	-0.144	0.089
-424.559	32.294	-0.158	0.138
-423.544	-100.680	0.340	-0.085
-422.530	117.786	-0.143	-0.178
-421.515	9.362	0.239	0.183
-420.500	-200.000	-0.022	-0.155
-419.486	-200.000	0.049	-0.253
-418.471	-67.053	0.035	-0.014
-417.457	24.673	-0.241	-0.202
-416.442	-116.840	-0.128	-0.024
-415.428	38.502	0.242	-0.218
-414.413	-84.373	-0.201	-0.064
-413.398	-200.000	-0.050	-0.348
-412.384	-11.852	0.158	0.105
-411.369	-76.567	-0.215	-0.076
-410.355	-200.000	0.078	-0.447
-409.340	67.679	-0.073	0.075
-408.325	-200.000	0.039	-0.333
-407.311	-200.000	0.001	0.205
-406.296	94.177	0.097	-0.111
-405.282	44.171	0.424	-0.393
-404.267	-186.358	0.157	-0.002
-403.252	-16.003	0.306	0.197
-402.238	-36.788	0.199	0.108
-401.223	-54.870	-0.273	0.124
-400.209	-33.543	0.222	0.124
-399.194	20.027	-0.083	-0.068
-398.179	594.191	-0.088	0.219
-397.165	-123.909	-0.189	0.030
-396.150	-200.000	-0.018	0.130
-395.136	163.922	-0.069	0.098
-394.121	154.885	-0.140	0.195
-393.106	93.778	0.097	-0.110
-392.092	-152.865	-0.238	0.017
-391.077	10.246	-0.203	0.156
-390.063	-200.000	-0.334	0.001
-389.048	63.531	-0.078	0.079
-388.033	-200.000	0.023	-0.208
-387.019	128.943	-0.147	-0.189
-386.004	19.797	0.235	-0.191
-384.990	-12.541	-0.126	0.083
-383.975	788.125	0.070	0.195
-382.960	39.777	0.142	-0.129
-381.946	-104.885	0.160	-0.037
-380.931	186.584	0.103	0.154
-379.917	-200.000	0.010	0.210
-378.902	38.868	0.210	-0.189
-377.888	-49.062	0.311	0.150
-376.873	-200.000	-0.006	-0.077
-375.858	422.916	0.110	0.238
-374.844	-200.000	-0.022	-0.186
-373.829	800.000	0.117	0.358
-372.815	313.541	-0.012	-0.023
-371.800	120.088	-0.158	-0.198
-370.785	-68.523	-0.122	-0.048
-369.771	99.393	-0.085	-0.099
-368.756	-96.122	-0.078	-0.021
-367.742	-95.466	-0.117	-0.032
-366.727	-200.000	-0.004	-0.203
-365.712	-59.782	0.215	0.093
-364.698	512.487	-0.063	-0.147
-363.683	-160.911	-0.194	0.010
-362.669	-200.000	-0.046	-0.345
-361.654	265.630	0.050	-0.088
-360.639	0.116	0.255	-0.183
-359.625	249.534	0.090	-0.153
-358.610	800.000	0.117	0.407
-357.596	-39.188	0.134	0.071
-356.581	-15.354	0.125	-0.080
-355.566	-165.009	0.157	-0.007
-354.552	426.299	-0.038	-0.083
-353.537	-73.177	-0.177	0.065
-352.523	161.810	0.125	-0.176
-351.508	-39.215	-0.041	0.022
-350.493	-133.419	-0.256	-0.032
-349.479	800.000	0.044	0.125
-348.464	-115.883	0.130	0.025
-347.450	-200.000	-0.033	0.175
-346.435	62.368	0.110	0.111
-345.420	-69.326	-0.371	-0.144
-344.406	800.000	0.063	0.225
-343.391	-200.000	-0.023	-0.270
-342.377	-88.984	0.256	0.076
-341.362	348.695	0.024	0.048
-340.348	-14.124	-0.298	-0.194
-339.333	-1.569	0.062	-0.044
-338.318	-54.748	0.492	-0.224
-337.304	-23.979	-0.151	0.091
-336.289	-30.900	-0.301	0.171
-335.275	301.682	-0.123	-0.229
-334.260	-66.457	-0.043	0.017
-333.245	-200.000	0.056	0.354
-332.231	-69.205	-0.069	-0.027
-331.216	57.363	0.142	0.140
-330.202	-140.626	-0.222	0.023
-329.187	424.062	0.071	0.155
-328.172	171.426	-0.004	-0.006
-327.158	41.417	-0.051	-0.046
-326.143	-32.889	0.220	0.123
-325.129	-200.000	0.020	-0.113
-324.114	-200.000	0.029	-0.387
-323.099	-13.995	0.239	0.156
-322.085	-198.856	-0.226	0.001
-321.070	195.628	-0.006	-0.009
-320.056	-59.638	0.117	-0.051
-319.041	-59.956	0.147	0.063
-318.026	11.288	0.161	-0.124
-317.012	800.000	-0.025	0.099
-315.997	205.867	-0.158	-0.247
-314.983	-29.725	0.109	-0.063
-313.968	-68.301	0.267	0.105
-312.953	-110.351	0.203	-0.042
-311.939	-200.000	0.027	-0.284
-310.924	54.775	0.108	-0.105
-309.910	577.215	-0.122	-0.299
-308.895	82.245	0.140	0.152
-307.880	156.855	-0.099	-0.138
-306.866	-190.469	0.049	0.001
-305.851	597.164	-0.013	-0.031
-304.837	-32.755	0.032	0.018
-303.822	163.860	0.049	-0.070
-302.807	-200.000	0.006	-0.144
-301.793	-178.993	0.193	-0.004
-300.778	15.031	0.213	-0.168
-299.764	-76.883	-0.072	0.025
-298.749	-34.834	0.277	0.152
-297.735	-200.000	0.024	-0.274
-296.720	1.790	0.246	0.178
-295.705	-133.146	0.102	-0.013
-294.691	8.802	-0.212	-0.161
-293.676	-66.964	0.283	-0.112
-292.662	220.564	-0.046	0.075
-291.647	-66.386	-0.277	-0.111
-290.632	287.685	-0.057	-0.103
-289.618	176.074	0.028	0.040
-288.603	-200.000	0.026	0.172
-287.589	-50.522	-0.436	0.207
-286.574	111.533	0.275	0.333
-285.559	-200.000	0.005	0.034
-284.545	3.922	0.404	-0.297
-283.530	800.000	0.099	-0.405
-282.516	44.313	-0.118	0.109
-281.501	-132.841	0.068	-0.009
-280.486	800.000	-0.036	-0.107
-279.472	210.842	0.107	0.170
-278.457	-124.321	0.266	0.042
-277.443	111.527	-0.129	-0.157
-276.428	522.591	0.015	-0.036
-275.413	-53.084	-0.239	0.111
-274.399	-151.803	-0.200	0.015
-273.384	-124.480	-0.145	0.023
-272.370	315.638	-0.097	-0.184
-271.355	-35.207	0.296	-0.162
-270.340	220.161	0.157	0.252
-269.326	-4.896	0.155	0.107
-268.311	160.358	-0.158	-0.221
-267.297	800.000	-0.030	-0.124
-266.282	284.442	0.205	-0.371
-265.267	394.616	0.056	0.116
-264.253	77.546	-0.206	-0.220
-263.238	-200.000	0.028	-0.161
-262.224	17.343	-0.195	-0.156
-261.209	259.838	0.171	0.297
-260.195	-85.703	-0.229	-0.072
-259.180	-137.756	0.097	0.011
-258.165	-110.352	-0.292	0.061
-257.151	-14.489	0.081	-0.053
-256.136	-200.000	-0.007	0.078
-255.122	-65.383	0.165	0.067
-254.107	-146.234	0.384	0.034
-253.092	387.227	-0.054	-0.112
-252.078	800.000	-0.052	-0.195
-251.063	69.940	0.176	0.183
-250.049	-43.019	-0.161	0.082
-249.034	-110.112	-0.261	0.055
-248.019	-200.000	0.023	0.156
-247.005	800.000	-0.038	0.148
-245.990	-122.634	-0.060	-0.010
-244.976	291.059	0.016	-0.029
-243.961	-200.000	0.015	-0.228
-242.946	17.475	0.249	0.199
-241.932	-134.571	0.162	0.020
-240.917	-146.909	-0.042	-0.004
-239.903	-200.000	-0.067	0.323
-238.888	-200.000	-0.013	0.215
-237.873	-119.524	0.308	-0.054
-236.859	-36.846	-0.106	0.057
-235.844	-31.671	0.187	0.105
-234.830	-145.554	0.245	-0.022
-233.815	-200.000	0.024	-0.152
-232.800	800.000	-0.132	-0.401
-231.786	389.596	-0.165	-0.344
-230.771	-200.000	0.032	0.197
-229.757	-200.000	-0.016	0.321
-228.742	-38.952	-0.184	0.097
-227.727	-106.895	-0.261	0.058
-226.713	-56.527	0.169	0.075
-225.698	34.381	-0.141	-0.124
-224.684	-76.133	-0.224	-0.079
-223.669	-200.000	0.001	-0.063
-222.655	800.000	-0.044	0.188
-221.640	800.000	-0.038	0.134
-220.625	-200.000	-0.107	-0.001
-219.611	592.295	-0.090	0.223
-218.596	-200.000	0.060	0.328
-217.582	46.184	0.110	0.102
-216.567	800.000	-0.025	-0.072
-215.552	-200.000	0.003	0.047
-214.538	-200.000	0.033	-0.277
-213.523	-29.223	0.190	-0.109
-212.509	192.468	0.131	0.199
-211.494	-200.000	0.038	-0.297
-210.479	-104.591	0.275	-0.064
-209.465	-163.063	-0.195	0.009
-208.450	-200.000	0.108	-0.000
-207.436	543.524	-0.066	0.158
-206.421	511.691	-0.057	0.133
-205.406	-200.000	-0.013	0.325
-204.392	58.670	-0.269	-0.265
-203.377	-140.286	-0.283	-0.030
-202.363	-134.066	0.512	-0.063
-201.348	165.916	-0.073	0.104
-200.333	-200.000	0.008	-0.229
-199.319	-77.350	0.056	-0.019
-198.304	110.895	-0.145	-0.175
-197.290	800.000	0.041	0.132
-196.275	-90.875	0.390	0.113
-195.260	-129.245	-0.281	0.039
-194.246	-125.367	-0.111	-0.017
-193.231	31.855	-0.233	0.201
-192.217	-67.883	0.332	0.130
-191.202	-200.000	-0.039	-0.199
-190.187	158.665	-0.062	-0.087
-189.173	55.450	-0.138	0.134
-188.158	-23.387	-0.256	-0.154
-187.144	800.000	0.049	0.147
-186.129	114.064	-0.227	0.277
-185.114	-83.866	-0.121	0.039
-184.100	132.003	0.049	0.063
-183.085	59.344	0.108	0.107
-182.071	800.000	0.063	-0.256
-181.056	-200.000	-0.002	-0.357
-180.042	-5.528	0.139	-0.095
-179.027	43.251	0.083	0.076
-178.012	19.581	0.224	0.181
-176.998	35.842	-0.230	0.203
-175.983	26.437	-0.161	-0.135
-174.969	124.360	-0.064	-0.080
-173.954	800.000	0.019	0.072
-172.939	800.000	0.097	0.331
-171.925	-161.163	0.436	0.023
-170.910	365.890	0.067	0.135
-169.896	-200.000	-0.008	0.177
-168.881	-171.074	0.246	-0.008
-167.866	-122.022	-0.134	0.022
-166.852	-134.672	0.059	-0.007
-165.837	-64.312	-0.114	-0.047
-164.823	-146.007	-0.313	0.028
-163.808	-115.520	0.083	-0.016
-162.793	153.569	0.069	-0.094
-161.779	-200.000	0.049	-0.234
-160.764	-82.152	-0.181	-0.059
-159.750	800.000	-0.063	0.202
-158.735	-179.445	-0.125	0.003
-157.720	235.123	0.196	-0.323
-156.706	-61.810	-0.113	0.047
-155.691	-15.663	0.039	-0.025
-154.677	28.308	-0.339	0.286
-153.662	-37.144	-0.232	-0.124
-152.647	217.852	0.245	-0.391
-151.633	-200.000	0.003	0.097
-150.618	542.828	0.146	0.348
-149.604	-48.736	-0.186	-0.089
-148.589	800.000	0.038	-0.159
-147.574	62.856	0.332	-0.332
-146.560	-166.649	-0.270	0.011
-145.545	80.978	-0.210	-0.226
-144.531	-200.000	0.011	0.210
-143.516	-2.345	-0.406	0.285
-142.502	184.440	-0.115	-0.170
-141.487	11.750	0.089	-0.068
-140.472	-137.075	-0.167	-0.019
-139.458	-200.000	0.008	0.039
-138.443	-200.000	0.001	0.011
-137.429	-86.019	-0.231	-0.071
-136.414	185.064	-0.154	-0.228
-135.399	97.706	0.259	-0.298
-134.385	52.542	-0.273	-0.260
-133.370	-76.666	-0.210	0.074
-132.356	-40.761	0.428	-0.221
-131.341	-9.913	-0.065	-0.043
-130.326	-46.460	-0.244	0.120
-129.312	-57.600	0.190	0.083
-128.297	205.457	0.139	0.216
-127.283	-3.003	0.165	-0.115
-126.268	66.168	-0.190	-0.192
-125.253	60.532	-0.087	0.086
-124.239	47.186	-0.249	0.232
-123.224	-138.666	-0.250	0.027
-122.210	151.274	-0.019	-0.026
-121.195	-39.278	0.092	-0.048
-120.180	31.361	0.209	-0.179
-119.166	134.781	-0.106	0.137
-118.151	112.695	-0.037	0.045
-117.137	-200.000	-0.026	0.340
-116.122	-200.000	-0.160	-0.001
-115.107	800.000	-0.101	0.322
-114.093	-88.310	-0.144	-0.043
-113.078	-142.274	0.346	0.034
-112.064	217.897	-0.181	-0.288
-111.049	-93.018	-0.131	-0.037
-110.034	121.381	0.121	0.150
-109.020	33.196	0.223	0.193
-108.005	221.847	-0.145	0.233
-106.991	20.109	-0.227	-0.183
-105.976	44.194	0.113	-0.103
-104.962	115.201	-0.124	0.151
-103.947	-41.967	0.217	-0.111
-102.932	-113.767	-0.444	-0.086
-101.918	95.717	-0.073	-0.083
-100.903	19.390	-0.054	-0.043
-99.889	234.165	-0.147	-0.242
-98.874	28.496	-0.133	-0.113
-97.859	-200.000	-0.024	0.110
-96.845	-200.000	0.074	0.493
-95.830	-62.177	0.276	-0.115
-94.816	800.000	-0.055	-0.230
-93.801	288.990	0.135	-0.245
-92.786	-161.085	-0.371	-0.019
-91.772	-32.320	0.084	0.047
-90.757	-200.000	0.014	-0.105
-89.743	186.861	0.176	-0.261
-88.728	38.153	0.126	0.112
-87.713	-74.831	0.295	-0.106
-86.699	-200.000	0.052	0.325
-85.684	-64.594	0.142	-0.057
-84.670	-200.000	-0.006	-0.156
-83.655	-51.722	0.144	0.067
-82.640	-138.939	0.148	0.016
-81.626	-200.000	-0.047	-0.209
-80.611	-200.000	0.068	0.423
-79.597	17.567	-0.159	-0.126
-78.582	-122.204	-0.051	-0.008
-77.567	37.542	-0.120	-0.107
-76.553	117.435	-0.283	0.347
-75.538	-82.723	0.315	0.102
-74.524	-200.000	0.009	0.265
-73.509	-72.844	0.225	-0.083
-72.494	14.450	-0.116	0.090
-71.480	-83.837	-0.429	0.136
-70.465	344.047	0.079	0.155
-69.451	54.905	0.190	0.183
-68.436	231.422	-0.124	-0.203
-67.422	312.931	0.040	0.075
-66.407	366.609	-0.136	0.273
-65.392	800.000	-0.024	-0.073
-64.378	-16.727	0.364	0.230
-63.363	-88.654	-0.090	0.027
-62.349	97.995	0.132	-0.151
-61.334	66.847	-0.829	-0.842
-60.319	800.000	0.154	0.486
-59.305	800.000	0.177	-0.548
-58.290	33.300	0.661	0.571
-57.276	647.847	0.557	1.419
-56.261	-200.000	78.870	493.376
-55.246	552.010	1372.849	3285.846
-54.232	178.874	2615.210	3810.002
-53.217	121.501	2274.380	2824.589
-52.203	49.326	1797.915	1685.105
-51.188	42.153	1600.455	1448.374
-50.173	39.536	1570.892	1402.961
-49.159	55.701	1607.933	1552.489
-48.144	60.660	1628.201	1607.632
-47.130	42.797	1591.519	1444.688
-46.115	39.324	1577.603	1407.219
-45.100	39.135	1574.672	1403.194
-44.086	39.026	1572.455	1400.387
-43.071	38.998	1570.397	1398.298
-42.057	39.003	1568.371	1396.479
-41.042	38.997	1566.637	1394.832
-40.027	39.054	1565.194	1393.899
-39.013	39.010	1563.609	1392.118
-37.998	39.011	1562.197	1390.813
-36.984	39.019	1561.562	1390.253
-35.969	39.041	1559.833	1388.812
-34.954	38.899	1558.606	1386.658
-33.940	38.940	1557.054	1385.517
-32.925	38.962	1555.733	1384.441
-31.911	38.963	1554.627	1383.407
-30.896	38.975	1552.947	1381.937
-29.881	39.154	1551.568	1381.914
-28.867	39.119	1550.211	1380.407
-27.852	39.082	1549.291	1379.274
-26.838	39.075	1547.562	1377.629
-25.823	39.074	1546.122	1376.287
-24.809	39.136	1544.362	1375.103
-23.794	39.025	1543.068	1373.118
-22.779	39.077	1541.439	1371.979
-21.765	39.005	1540.674	1370.738
-20.750	39.076	1539.686	1370.299
-19.736	39.019	1538.646	1368.925
-18.721	39.068	1536.724	1367.499
-17.706	39.041	1535.773	1366.411
-16.692	38.988	1534.914	1365.222
-15.677	38.970	1533.509	1363.799
-14.663	38.940	1532.839	1362.938
-13.648	38.964	1531.677	1362.020
-12.633	38.893	1530.645	1360.552
-11.619	39.026	1529.696	1360.579
-10.604	38.964	1528.676	1359.187
-9.590	38.898	1527.697	1357.807
-8.575	38.924	1526.880	1357.201
-7.560	38.993	1525.794	1356.662
-6.546	38.955	1525.158	1355.782
-5.531	38.969	1524.202	1354.973
-4.517	38.920	1523.312	1353.790
-3.502	38.900	1522.401	1352.792
-2.487	38.847	1521.371	1351.453
-1.473	38.970	1519.477	1350.564
-0.458	38.986	1518.657	1349.894
0.556	37.387	1509.677	1341.313
1.571	35.250	1483.112	1303.081
2.586	32.307	1419.351	1227.770
3.600	30.595	1334.249	1143.535
4.615	28.463	1284.970	1088.558
5.629	23.324	1223.338	1007.123
6.644	10.978	1128.269	863.625
7.659	1.769	1081.239	780.528
8.673	0.319	1075.196	768.703
9.688	0.202	1071.773	765.594
10.702	0.063	1070.489	763.902
11.717	0.156	1068.086	762.594
12.731	4.140	1074.172	787.139
13.746	15.252	1090.900	856.382
14.761	22.322	1099.392	899.243
15.775	22.418	1098.694	899.083
16.790	22.303	1097.750	897.641
17.804	22.188	1096.880	896.264
18.819	22.028	1095.861	894.539
19.834	21.967	1095.945	894.215
20.848	22.094	1094.919	893.949
21.863	22.160	1094.441	893.811
22.877	22.154	1094.498	893.752
23.892	22.146	1093.384	892.721
24.907	22.019	1092.721	891.457
25.921	21.948	1091.717	890.197
26.936	22.095	1091.307	890.528
27.950	22.124	1089.710	889.295
28.965	22.143	1088.394	888.240
29.980	21.959	1086.620	885.782
30.994	21.979	1085.600	884.974
32.009	22.169	1084.816	885.215
33.023	22.212	1084.370	884.991
34.038	22.079	1082.795	882.955
35.053	21.968	1082.515	882.094
36.067	22.069	1081.849	881.980
37.082	22.007	1080.843	880.768
38.096	22.139	1080.159	880.797
39.111	22.283	1079.629	881.008
40.126	22.386	1078.595	880.602
41.140	22.274	1077.545	879.103
42.155	22.094	1075.976	876.848
43.169	21.739	1074.717	873.974
44.184	21.682	1073.786	872.858
45.199	21.799	1072.785	872.548
46.213	21.734	1071.756	871.313
47.228	21.704	1071.143	870.585
48.242	21.746	1070.545	870.231
49.257	22.003	1069.401	870.501
50.271	22.057	1068.804	870.206
51.286	22.158	1067.667	869.704
52.301	22.167	1067.311	869.380
53.315	22.154	1066.344	868.451
54.330	22.113	1065.537	867.513
55.344	22.058	1064.927	866.671
56.359	22.279	1063.377	866.422
57.374	22.164	1062.979	865.455
58.388	21.872	1062.501	863.548
59.403	21.774	1061.416	862.107
60.417	21.863	1060.783	861.959
61.432	21.779	1059.545	860.461
62.447	21.729	1058.907	859.621
63.461	21.851	1058.330	859.677
64.476	21.877	1058.114	859.551
65.490	21.981	1056.627	858.777
66.505	21.879	1055.424	857.224
67.520	21.756	1055.196	856.361
68.534	21.926	1053.930	856.087
69.549	21.719	1053.020	854.264
70.563	21.390	1052.035	851.787
71.578	21.251	1051.320	850.458
72.593	21.334	1050.174	849.860
73.607	21.182	1049.270	848.311
74.622	21.256	1047.880	847.471
75.636	21.579	1047.241	848.445
76.651	21.790	1046.595	848.870
77.666	21.517	1045.563	846.637
78.680	21.431	1045.003	845.694
79.695	21.499	1044.421	845.477
80.709	21.600	1043.487	845.133
81.724	21.658	1042.945	844.898
82.739	21.692	1041.690	843.972
83.753	21.704	1041.300	843.637
84.768	21.944	1040.150	843.783
85.782	22.140	1039.960	844.498
86.797	22.513	1039.153	845.561
87.812	22.494	1038.060	844.503
88.826	22.066	1037.137	841.628
89.841	22.132	1036.700	841.514
90.855	22.334	1035.975	841.817
91.870	22.303	1035.225	840.987
92.884	22.285	1034.517	840.253
93.899	22.167	1033.064	838.432
94.914	22.095	1032.172	837.294
95.928	22.294	1031.387	837.527
96.943	22.143	1030.875	836.322
97.957	21.982	1029.333	834.231
98.972	21.760	1027.875	831.922
99.987	21.580	1027.216	830.464
101.001	21.780	1026.363	830.644
102.016	21.943	1026.242	831.248
103.030	21.847	1025.459	830.083
104.045	21.981	1023.899	829.380
105.060	21.852	1022.616	827.660
106.074	21.663	1021.694	825.951
107.089	21.664	1020.902	825.242
108.103	21.984	1020.737	826.543
109.118	22.120	1019.723	826.288
110.133	21.822	1018.330	823.687
111.147	21.816	1017.094	822.585
112.162	21.727	1015.953	821.171
113.176	21.450	1015.204	819.197
114.191	21.590	1014.189	818.960
115.206	21.714	1013.687	819.062
116.220	21.421	1012.283	816.488
117.235	21.259	1010.942	814.580
118.249	21.408	1010.728	815.028
119.264	21.647	1009.652	815.200
120.279	21.326	1009.116	813.202
121.293	21.471	1007.742	812.696
122.308	21.406	1007.482	812.112
123.322	21.527	1006.800	812.054
124.337	21.559	1005.297	810.920
125.352	21.300	1004.322	808.861
126.366	21.033	1002.146	805.804
127.381	20.797	1000.827	803.582
128.395	21.282	1000.227	805.265
129.410	21.743	1000.944	807.895
130.424	21.950	999.670	807.750
131.439	21.993	998.373	806.828
132.454	21.958	997.690	806.047
133.468	21.921	996.796	805.081
134.483	21.876	995.876	804.062
135.497	22.051	995.327	804.348
136.512	22.211	994.688	804.492
137.527	22.296	993.806	804.098
138.541	22.181	993.434	803.199
139.556	22.340	992.287	802.927
140.570	22.309	991.213	801.845
141.585	22.346	990.626	801.469
142.600	22.461	989.522	801.028
143.614	22.328	989.001	799.930
144.629	22.409	987.718	799.188
145.643	22.592	987.538	799.804
146.658	22.406	986.686	798.199
147.673	22.360	984.790	796.388
148.687	22.122	984.339	794.874
149.702	22.082	983.100	793.624
150.716	22.055	982.152	792.666
151.731	22.004	980.756	791.240
152.746	21.931	980.409	790.562
153.760	22.268	979.562	791.323
154.775	22.344	978.846	791.017
155.789	22.354	978.036	790.340
156.804	22.399	977.073	789.692
157.819	22.445	975.698	788.717
158.833	22.254	975.270	787.445
159.848	22.261	974.691	786.938
160.862	22.496	973.589	787.030
161.877	22.379	972.589	785.629
162.892	22.252	971.619	784.212
163.906	22.428	970.897	784.343
164.921	22.342	970.142	783.282
165.935	22.276	968.722	781.773
166.950	22.330	967.737	781.149
167.964	22.475	966.605	780.809
168.979	22.360	965.741	779.534
169.994	22.357	964.491	778.440
171.008	22.180	963.426	776.729
172.023	22.367	962.878	777.045
173.037	22.571	962.077	777.230
174.052	22.251	960.848	774.757
175.067	22.065	959.960	773.156
176.081	22.024	959.203	772.296
177.096	22.137	958.358	772.045
178.110	22.255	957.400	771.723
179.125	21.924	956.216	769.247
180.140	21.720	955.130	767.416
181.154	21.738	954.391	766.830
182.169	21.781	954.161	766.766
183.183	21.935	953.985	767.230
184.198	22.350	953.521	768.603
185.213	22.395	952.362	767.794
186.227	22.217	952.076	766.720
187.242	22.230	951.527	766.269
188.256	22.247	951.038	765.882
189.271	22.375	949.949	765.493
190.286	22.440	949.127	765.043
191.300	22.083	948.498	762.922
192.315	21.796	946.616	760.094
193.329	21.070	945.128	755.688
194.344	20.630	944.364	753.105
195.359	21.226	944.339	755.598
196.373	21.964	944.858	759.142
197.388	22.209	944.863	760.137
198.402	22.146	943.950	759.065
199.417	22.076	943.435	758.278
200.432	22.256	942.839	758.511
201.446	22.066	942.129	757.056
202.461	21.718	941.654	755.105
203.475	21.948	940.908	755.431
204.490	21.437	939.278	751.858
205.504	20.387	937.018	745.478
206.519	20.734	937.099	746.963
207.534	21.663	937.137	750.912
208.548	21.847	936.673	751.264
209.563	22.156	936.507	752.390
210.577	22.261	935.558	752.010
211.592	21.953	934.872	750.075
212.607	22.266	934.477	751.029
213.621	22.352	934.375	751.245
214.636	22.272	933.325	749.995
215.650	22.461	932.547	750.106
216.665	22.364	932.204	749.351
217.680	22.462	931.561	749.188
218.694	22.333	931.327	748.381
219.709	22.039	930.196	746.161
220.723	21.775	929.108	744.099
221.738	22.026	928.628	744.715
222.753	22.347	927.868	745.402
223.767	22.086	927.451	743.894
224.782	22.144	926.895	743.625
225.796	22.443	926.187	744.256
226.811	22.574	925.193	743.946
227.826	22.217	924.286	741.645
228.840	21.382	922.777	736.850
229.855	21.279	922.184	735.878
230.869	21.527	921.881	736.616
231.884	21.220	921.026	734.575
232.899	21.227	920.077	733.784
233.913	22.029	920.788	737.654
234.928	22.174	920.375	737.868
235.942	22.102	919.595	736.877
236.957	22.042	918.946	736.038
237.972	21.889	917.849	734.454
238.986	21.677	916.895	732.740
240.001	21.840	916.376	732.940
241.015	21.882	916.130	732.853
242.030	22.008	915.478	732.797
243.045	22.097	914.757	732.526
244.059	22.035	914.557	732.042
245.074	22.365	913.603	732.585
246.088	22.241	912.849	731.401
247.103	21.990	911.776	729.433
248.117	21.855	911.303	728.430
249.132	22.423	911.582	730.946
250.147	22.773	911.065	731.921
251.161	22.809	910.278	731.371
252.176	23.064	909.793	731.975
253.190	23.111	909.037	731.496
254.205	23.039	908.530	730.723
255.220	23.204	908.343	731.191
256.234	23.148	908.111	730.710
257.249	23.036	906.908	729.213
258.263	23.078	905.997	728.592
259.278	22.839	905.836	727.412
260.293	23.103	905.236	727.950
261.307	23.164	904.299	727.387
262.322	23.072	903.885	726.610
263.336	22.853	903.435	725.285
264.351	22.507	901.838	722.521
265.366	21.337	899.972	716.170
266.380	20.872	898.664	713.161
267.395	21.649	899.414	716.875
268.409	22.471	899.600	720.323
269.424	22.766	898.375	720.485
270.439	22.831	897.852	720.267
271.453	22.880	897.275	719.938
272.468	22.957	896.742	719.762
273.482	23.050	896.219	719.656
274.497	23.185	895.878	719.866
275.512	22.956	894.978	718.151
276.526	22.349	893.438	714.387
277.541	22.511	893.607	715.116
278.555	22.974	893.390	716.757
279.570	22.511	892.790	714.337
280.585	22.588	891.607	713.641
281.599	22.623	891.118	713.327
282.614	22.872	890.538	713.805
283.628	22.353	889.432	710.759
284.643	21.968	888.988	708.789
285.657	22.575	888.251	710.587
286.672	22.351	887.737	709.209
287.687	21.721	886.897	705.939
288.701	22.222	886.631	707.681
289.716	22.500	886.402	708.556
290.730	22.193	885.307	706.382
291.745	22.118	884.637	705.484
292.760	21.960	883.531	703.905
293.774	21.802	883.023	702.807
294.789	22.807	883.551	707.191
295.803	23.376	883.598	709.444
296.818	23.374	883.090	708.969
297.833	23.520	882.814	709.267
298.847	23.242	881.479	707.022
299.862	22.902	880.323	704.675
300.876	23.032	880.098	704.953
301.891	23.308	879.699	705.668
302.906	23.552	879.183	706.163
303.920	22.949	878.029	702.776
304.935	22.808	877.529	701.754
305.949	23.166	877.427	703.032
306.964	23.351	876.481	702.946
307.979	23.269	875.730	701.957
308.993	23.111	875.034	700.714
310.008	23.359	875.405	701.929
311.022	23.660	874.532	702.359
312.037	23.483	873.914	701.100
313.052	23.163	873.271	699.257
314.066	23.027	872.749	698.242
315.081	22.630	870.895	695.132
316.095	21.801	869.667	690.827
317.110	22.212	869.690	692.401
318.125	22.918	870.461	695.734
319.139	22.720	869.436	694.076
320.154	21.669	867.586	688.410
321.168	21.059	866.578	685.152
322.183	21.692	866.618	687.610
323.197	22.654	867.294	691.863
324.212	22.908	866.696	692.320
325.227	23.131	865.851	692.457
326.241	23.184	865.773	692.541
327.256	23.061	865.407	691.705
328.270	23.033	864.797	691.047
329.285	22.861	864.233	689.862
330.300	22.760	863.408	688.749
331.314	22.552	862.352	687.034
332.329	22.652	862.030	687.108
333.343	23.046	861.402	688.078
334.358	23.423	860.950	689.123
335.373	23.177	860.451	687.706
336.387	23.375	859.910	687.981
337.402	23.671	859.677	688.881
338.416	23.780	859.109	688.791
339.431	23.663	858.725	687.970
340.446	23.616	858.109	687.233
341.460	23.896	857.524	687.786
342.475	23.852	856.714	686.906
343.489	23.616	856.193	685.514
344.504	23.672	855.152	684.837
345.519	23.851	855.496	685.742
346.533	24.132	854.650	686.087
347.548	24.150	854.488	685.965
348.562	24.156	854.049	685.577
349.577	24.065	853.636	684.830
350.592	24.031	853.011	684.141
351.606	23.926	852.508	683.274
352.621	23.961	851.933	682.884
353.635	23.947	851.114	682.113
354.650	23.832	850.722	681.300
355.665	23.529	849.982	679.485
356.679	22.574	848.065	674.241
357.694	22.340	847.643	672.950
358.708	23.080	847.661	675.734
359.723	22.995	847.057	674.871
360.738	23.160	846.831	675.259
361.752	23.742	846.532	677.179
362.767	23.768	846.377	677.098
363.781	24.051	846.050	677.850
364.796	24.333	845.775	678.646
365.810	24.491	845.253	678.766
366.825	24.498	844.991	678.523
367.840	24.337	844.822	677.714
368.854	24.352	844.084	677.120
369.869	23.840	843.139	674.362
370.883	23.743	842.211	673.192
371.898	23.848	841.831	673.224
372.913	23.722	841.371	672.323
373.927	23.623	840.794	671.426
374.942	23.846	840.194	671.730
375.956	23.970	839.362	671.474
376.971	24.092	838.866	671.479
377.986	24.102	838.631	671.269
379.000	24.239	838.243	671.415
380.015	24.296	837.614	671.064
381.029	24.204	836.646	669.886
382.044	24.087	836.283	669.094
383.059	24.346	835.807	669.629
384.073	24.463	835.408	669.688
385.088	24.246	834.949	668.447
386.102	24.441	833.766	668.171
387.117	24.185	833.378	666.841
388.132	24.151	832.725	666.134
389.146	23.876	832.193	664.624
390.161	23.456	831.165	662.176
391.175	23.365	830.707	661.412
392.190	23.934	831.088	663.779
393.205	24.008	830.558	663.572
394.219	22.985	828.849	658.342
395.234	21.558	826.505	651.116
396.248	20.622	825.601	646.868
397.263	21.721	826.066	651.261
398.278	23.647	827.429	659.439
399.292	24.089	827.165	660.813
400.307	23.674	826.490	658.676
401.321	23.766	826.143	658.680
402.336	23.606	825.971	657.895
403.350	23.941	825.863	658.989
404.365	24.402	825.783	660.576
405.380	24.614	825.540	661.106
406.394	24.954	825.255	662.076
407.409	25.230	824.770	662.650
408.423	25.003	824.032	661.159
409.438	25.013	823.403	660.634
410.453	25.028	823.352	660.589
411.467	25.109	822.786	660.376
412.482	25.006	822.151	659.429
413.496	24.887	821.684	658.559
414.511	25.112	821.597	659.256
415.526	24.991	821.241	658.468
416.540	25.020	820.651	658.042
417.555	24.967	820.143	657.382
418.569	24.750	818.881	655.519
419.584	24.628	818.394	654.624
420.599	24.817	818.173	655.081
421.613	146.170	1359.359	1762.213
422.628	127.150	1438.236	1762.364
