DTS Sentinel unit serial number:	SN413079Multiplexer serial number:	ORYXHardware model number:	OX4-SRSoftware version number:	ORYX F/W v4.00 Oryx Data Collector v3.7.2.0data status	okinstallation	princeton_trtdifferential loss correction	single-endedforward channel	channel 1reverse channel	N/Adate	2019/09/14time	11:58:35forward acquisition time	60.00reverse acquisition time	0.00gamma	496.2192k internal	0.2296k external	0.2296temperature offset calibration	1.0081default loss term (dB/km)	0.3790temperature slope calibration	1.0000multiplexer offset coefficient	1.0000multiplexer slope coefficient	1.0000fibre end	0.00T internal ref (°C)	37.33T ext. ref 1 (°C)	4.65T ext. ref 2 (°C)	35.18length (m)	temperature (°C)	Stokes	anti-Stokes-747.200	-200.000	-0.068	0.534
-746.185	-200.000	-0.016	0.430
-745.171	-74.055	0.239	0.089
-744.156	-200.000	0.051	0.449
-743.142	637.177	-0.115	0.297
-742.127	-200.000	-0.015	0.303
-741.112	599.396	0.195	0.494
-740.098	-200.000	0.009	0.420
-739.083	527.770	-0.147	-0.355
-738.069	-200.000	-0.057	0.394
-737.054	800.000	0.051	-0.179
-736.039	6.741	0.233	0.177
-735.025	-37.949	0.226	0.123
-734.010	17.841	0.088	-0.072
-732.996	800.000	0.054	-0.237
-731.981	185.023	-0.094	-0.142
-730.966	371.309	-0.112	-0.232
-729.952	12.495	-0.222	-0.175
-728.937	42.210	-0.233	-0.216
-727.923	100.333	0.220	0.260
-726.908	42.085	-0.200	-0.186
-725.894	27.418	0.188	-0.162
-724.879	-145.311	-0.305	-0.028
-723.864	46.596	-0.058	0.055
-722.850	81.529	-0.179	-0.197
-721.835	-159.776	-0.034	0.002
-720.821	17.518	-0.058	0.047
-719.806	800.000	0.067	-0.192
-718.791	-200.000	0.009	-0.083
-717.777	27.230	0.253	0.217
-716.762	-200.000	-0.009	-0.276
-715.748	15.800	-0.242	0.195
-714.733	-50.986	0.158	0.076
-713.718	-143.419	-0.192	-0.019
-712.704	-8.553	-0.271	0.186
-711.689	-200.000	-0.266	-0.001
-710.675	-67.422	-0.186	-0.075
-709.660	28.543	-0.063	0.055
-708.645	-14.885	0.115	0.076
-707.631	-72.176	-0.225	0.085
-706.616	800.000	0.050	0.178
-705.602	-200.000	0.016	-0.156
-704.587	-31.044	-0.061	-0.035
-703.572	-127.759	-0.196	0.029
-702.558	-85.241	-0.085	-0.027
-701.543	-200.000	0.015	0.218
-700.529	-21.589	-0.161	0.100
-699.514	-138.479	0.094	0.011
-698.499	-171.324	0.292	0.010
-697.485	-28.112	-0.252	-0.148
-696.470	461.426	-0.131	-0.297
-695.456	191.974	-0.139	0.214
-694.441	15.224	0.221	-0.177
-693.426	-47.024	0.178	0.088
-692.412	-200.000	0.005	-0.051
-691.397	800.000	-0.021	0.082
-690.383	-99.302	0.281	-0.072
-689.368	151.189	0.157	-0.218
-688.354	67.878	-0.074	0.077
-687.339	15.958	-0.194	-0.156
-686.324	-49.408	-0.067	0.033
-685.310	240.836	-0.134	-0.228
-684.295	-141.912	0.274	0.028
-683.281	105.671	-0.123	0.149
-682.266	-44.193	-0.251	0.128
-681.251	-147.993	-0.135	0.011
-680.237	-64.101	0.123	-0.051
-679.222	104.924	-0.148	-0.178
-678.208	-40.601	0.250	0.132
-677.193	-157.130	0.122	0.008
-676.178	-200.000	0.033	0.228
-675.164	580.684	0.110	0.275
-674.149	-68.297	-0.354	-0.140
-673.135	800.000	-0.102	-0.332
-672.120	800.000	-0.045	-0.142
-671.105	5.114	-0.179	-0.134
-670.091	-63.380	0.194	-0.081
-669.076	129.456	0.120	-0.156
-668.062	-119.586	-0.130	-0.023
-667.047	-106.555	0.175	-0.040
-666.032	15.228	0.483	-0.386
-665.018	800.000	-0.040	-0.117
-664.003	-200.000	-0.001	0.046
-662.989	391.753	-0.042	0.090
-661.974	100.886	-0.081	0.097
-660.959	-33.445	0.340	-0.192
-659.945	-114.364	-0.278	-0.054
-658.930	-200.000	0.036	0.299
-657.916	-200.000	-0.033	0.261
-656.901	183.720	0.275	-0.415
-655.886	579.455	-0.090	-0.225
-654.872	-200.000	0.030	-0.315
-653.857	-174.456	0.323	-0.009
-652.843	-200.000	0.029	0.135
-651.828	-200.000	-0.029	0.369
-650.814	340.522	-0.113	-0.224
-649.799	19.594	-0.248	-0.203
-648.784	800.000	0.040	0.146
-647.770	537.946	0.041	-0.099
-646.755	198.728	-0.071	0.110
-645.741	211.610	-0.081	0.129
-644.726	37.140	0.206	0.185
-643.711	-200.000	0.001	0.201
-642.697	-41.341	0.207	0.108
-641.682	339.767	0.123	0.244
-640.668	13.962	-0.058	-0.046
-639.653	412.526	0.041	0.088
-638.638	8.047	0.093	-0.071
-637.624	472.751	0.168	0.384
-636.609	162.108	-0.130	0.186
-635.595	-200.000	-0.050	-0.280
-634.580	-104.030	0.412	0.098
-633.565	-124.637	-0.176	0.028
-632.551	-0.630	-0.208	-0.150
-631.536	37.262	-0.138	0.124
-630.522	-157.708	-0.252	0.015
-629.507	-200.000	0.015	0.154
-628.492	-89.282	0.058	0.017
-627.478	218.686	0.147	-0.238
-626.463	-110.530	-0.369	0.078
-625.449	-135.907	-0.071	0.009
-624.434	-154.774	0.092	0.006
-623.419	-200.000	-0.039	0.406
-622.405	75.899	-0.053	-0.057
-621.390	99.176	0.035	-0.042
-620.376	-88.509	0.145	0.044
-619.361	-112.902	0.321	-0.065
-618.346	800.000	-0.068	-0.206
-617.332	-108.126	-0.242	0.053
-616.317	-200.000	-0.001	0.063
-615.303	109.739	-0.120	0.146
-614.288	459.386	-0.106	0.239
-613.273	4.717	0.080	0.059
-612.259	800.000	-0.076	0.252
-611.244	94.063	0.046	0.053
-610.230	39.460	0.219	0.200
-609.215	-72.051	-0.140	0.053
-608.201	-200.000	0.050	0.266
-607.186	6.207	-0.011	0.008
-606.171	43.791	-0.163	0.152
-605.157	-84.487	-0.260	0.083
-604.142	-58.990	0.188	0.083
-603.128	112.180	0.054	-0.066
-602.113	-128.342	-0.167	-0.024
-601.098	-54.384	-0.247	0.114
-600.084	-200.000	0.010	-0.073
-599.069	-6.310	0.255	0.177
-598.055	-93.534	-0.276	-0.078
-597.040	-77.555	-0.370	-0.130
-596.025	-200.000	0.022	0.202
-595.011	800.000	-0.007	-0.023
-593.996	105.486	-0.107	-0.129
-592.982	-200.000	-0.058	-0.370
-591.967	-200.000	0.056	-0.579
-590.952	210.047	0.196	0.312
-589.938	41.166	0.211	0.194
-588.923	-90.990	-0.284	0.083
-587.909	18.421	-0.256	-0.208
-586.894	76.041	0.138	0.148
-585.879	-200.000	0.008	-0.073
-584.865	19.907	0.242	-0.198
-583.850	-200.000	-0.026	0.117
-582.836	545.144	-0.060	-0.147
-581.821	-200.000	0.026	0.174
-580.806	-200.000	-0.027	-0.269
-579.792	800.000	-0.023	0.099
-578.777	-0.566	-0.276	-0.199
-577.763	-200.000	0.012	-0.202
-576.748	187.557	0.154	-0.234
-575.733	-76.023	-0.192	0.069
-574.719	-200.000	-0.035	-0.214
-573.704	-200.000	-0.007	-0.208
-572.690	-25.179	-0.167	-0.101
-571.675	222.735	-0.061	0.100
-570.661	104.244	0.084	-0.100
-569.646	-92.521	0.398	0.114
-568.631	800.000	0.048	-0.161
-567.617	52.223	0.160	0.155
-566.602	-200.000	-0.022	-0.232
-565.588	-200.000	0.006	0.121
-564.573	-200.000	0.038	0.332
-563.558	-61.850	0.384	0.163
-562.544	570.451	-0.054	0.134
-561.529	-200.000	-0.059	-0.330
-560.515	800.000	0.066	0.259
-559.500	12.024	-0.093	-0.072
-558.485	-161.640	0.076	-0.004
-557.471	218.715	0.109	0.177
-556.456	-200.000	0.060	-0.294
-555.442	-65.177	0.080	-0.033
-554.427	-61.370	0.325	0.139
-553.412	800.000	0.056	-0.170
-552.398	784.894	-0.089	-0.247
-551.383	85.070	0.206	-0.229
-550.369	121.329	-0.128	-0.161
-549.354	-69.705	0.342	0.133
-548.339	621.234	-0.016	-0.041
-547.325	33.213	-0.059	-0.052
-546.310	-15.228	0.250	-0.162
-545.296	-31.498	-0.377	0.215
-544.281	-45.647	-0.026	0.013
-543.266	254.357	-0.141	0.244
-542.252	-155.999	-0.312	0.020
-541.237	-65.842	-0.149	-0.060
-540.223	-200.000	-0.042	0.216
-539.208	-15.362	-0.122	0.079
-538.193	93.545	0.086	-0.099
-537.179	252.478	-0.106	0.183
-536.164	-54.280	-0.219	-0.101
-535.150	-184.413	-0.241	0.004
-534.135	800.000	-0.032	-0.127
-533.121	124.676	0.150	0.191
-532.106	81.302	0.169	0.185
-531.091	-19.917	-0.079	-0.049
-530.077	800.000	-0.051	-0.186
-529.062	70.923	-0.086	-0.090
-528.048	138.182	0.174	-0.231
-527.033	29.463	0.062	-0.053
-526.018	-188.096	0.244	0.003
-525.004	-114.003	-0.240	0.047
-523.989	-200.000	0.001	0.037
-522.975	371.788	-0.037	0.077
-521.960	535.227	-0.163	0.392
-520.945	78.428	-0.057	0.062
-519.931	370.453	0.075	-0.154
-518.916	-200.000	-0.034	-0.000
-517.902	-74.859	0.146	0.053
-516.887	-200.000	0.050	-0.223
-515.872	800.000	0.045	-0.162
-514.858	6.297	0.193	-0.145
-513.843	196.036	0.149	-0.229
-512.829	800.000	-0.023	-0.090
-511.814	-40.321	-0.286	0.150
-510.799	-46.951	-0.072	-0.035
-509.785	32.587	0.170	0.149
-508.770	-36.708	0.161	-0.088
-507.756	222.734	0.095	-0.156
-506.741	44.905	0.178	-0.166
-505.726	-200.000	0.035	-0.214
-504.712	-200.000	0.037	-0.235
-503.697	800.000	-0.073	0.274
-502.683	800.000	-0.092	-0.276
-501.668	-62.957	-0.184	-0.077
-500.653	-166.618	-0.187	-0.008
-499.639	-187.901	0.241	0.003
-498.624	7.944	0.188	0.142
-497.610	-163.076	-0.195	0.010
-496.595	14.776	0.156	0.124
-495.581	78.957	0.227	-0.246
-494.566	195.934	0.183	0.282
-493.551	-20.262	-0.184	-0.115
-492.537	800.000	-0.093	0.293
-491.522	32.103	0.122	0.106
-490.508	-38.394	0.191	-0.102
-489.493	-131.289	0.263	0.035
-488.478	725.289	-0.109	-0.294
-487.464	-38.993	0.074	0.040
-486.449	207.570	-0.093	-0.147
-485.435	800.000	-0.075	-0.318
-484.420	102.102	-0.134	0.158
-483.405	-136.736	-0.221	-0.026
-482.391	-54.928	-0.261	0.119
-481.376	-200.000	-0.007	0.163
-480.362	278.561	-0.080	-0.145
-479.347	-171.706	0.233	0.008
-478.332	-37.716	0.322	0.173
-477.318	800.000	0.077	0.268
-476.303	705.169	0.021	-0.056
-475.289	-159.378	0.272	-0.015
-474.274	800.000	0.048	-0.174
-473.259	-166.479	0.236	0.010
-472.245	-200.000	-0.036	0.264
-471.230	172.837	0.230	-0.334
-470.216	7.105	-0.140	0.106
-469.201	-200.000	-0.025	0.117
-468.186	198.924	0.041	0.063
-467.172	-200.000	-0.029	-0.209
-466.157	-73.321	-0.296	-0.110
-465.143	-28.831	0.200	0.116
-464.128	-10.880	-0.124	-0.083
-463.113	-200.000	0.020	-0.095
-462.099	186.699	0.162	0.244
-461.084	-77.230	-0.265	-0.093
-460.070	-10.665	-0.238	-0.159
-459.055	-25.967	-0.158	0.094
-458.040	-74.420	0.185	0.068
-457.026	162.664	-0.288	0.408
-456.011	800.000	-0.074	-0.306
-454.997	-67.642	-0.147	-0.058
-453.982	800.000	-0.032	-0.100
-452.968	-11.568	-0.158	-0.105
-451.953	202.402	-0.148	-0.231
-450.938	49.523	-0.095	-0.090
-449.924	800.000	0.113	-0.383
-448.909	-81.349	-0.157	-0.052
-447.895	-200.000	-0.017	0.112
-446.880	212.116	-0.129	-0.205
-445.865	-133.666	-0.092	0.012
-444.851	-200.000	-0.037	0.230
-443.836	94.319	-0.137	0.157
-442.822	-168.374	0.091	-0.004
-441.807	-200.000	0.032	-0.307
-440.792	324.716	0.224	-0.432
-439.778	188.272	-0.116	0.174
-438.763	283.863	0.042	0.077
-437.749	68.072	0.223	0.230
-436.734	-200.000	0.024	-0.121
-435.719	800.000	-0.032	0.106
-434.705	67.927	0.156	0.161
-433.690	-162.146	-0.243	0.012
-432.676	343.644	-0.138	0.273
-431.661	-200.000	0.073	0.411
-430.646	13.541	-0.120	-0.094
-429.632	646.742	-0.044	0.115
-428.617	-67.110	0.077	-0.031
-427.603	-29.446	0.070	0.041
-426.588	194.938	0.052	-0.080
-425.573	800.000	-0.072	0.221
-424.559	-200.000	-0.003	-0.048
-423.544	-160.876	-0.086	0.005
-422.530	-62.185	0.179	0.075
-421.515	101.094	0.055	-0.064
-420.500	800.000	-0.060	0.239
-419.486	146.675	-0.035	-0.048
-418.471	89.581	0.242	0.273
-417.457	47.657	0.086	0.081
-416.442	-117.147	0.185	-0.034
-415.428	-119.797	0.508	0.088
-414.413	26.880	-0.261	-0.221
-413.398	-117.123	0.249	-0.046
-412.384	8.585	-0.155	-0.118
-411.369	-196.245	0.088	-0.001
-410.355	359.043	0.225	0.454
-409.340	-53.943	0.181	0.083
-408.325	247.249	-0.171	-0.291
-407.311	0.891	0.192	-0.139
-406.296	563.106	0.165	0.402
-405.282	192.264	0.058	0.088
-404.267	-34.143	-0.250	0.139
-403.252	482.040	-0.093	0.212
-402.238	-36.367	0.185	-0.101
-401.223	-140.140	-0.179	0.019
-400.209	111.852	-0.048	0.058
-399.194	99.690	0.125	0.146
-398.179	717.049	0.058	0.154
-397.165	-137.182	-0.222	-0.026
-396.150	285.937	-0.135	-0.246
-395.136	214.747	-0.070	0.112
-394.121	-97.626	-0.087	-0.023
-393.106	71.187	-0.219	-0.229
-392.092	-105.103	0.203	0.047
-391.077	-200.000	0.055	-0.323
-390.063	-36.266	0.187	0.101
-389.048	-76.144	-0.113	0.040
-388.033	-200.000	0.011	0.366
-387.019	295.663	0.066	0.122
-386.004	-123.895	0.219	-0.035
-384.990	-118.899	-0.221	0.039
-383.975	20.446	0.258	0.210
-382.960	23.182	0.037	-0.030
-381.946	679.145	0.015	-0.039
-380.931	-120.433	-0.130	-0.022
-379.917	52.833	-0.058	-0.056
-378.902	-200.000	0.038	-0.255
-377.888	56.182	0.111	-0.109
-376.873	13.333	-0.175	0.137
-375.858	-183.098	0.405	-0.007
-374.844	48.448	0.201	0.190
-373.829	-70.977	0.350	-0.133
-372.815	-65.817	0.196	0.079
-371.800	-200.000	0.017	0.177
-370.785	-200.000	-0.011	-0.122
-369.771	-80.541	0.133	-0.044
-368.756	689.011	-0.097	0.255
-367.742	-197.772	0.251	0.002
-366.727	-200.000	0.008	-0.157
-365.712	800.000	0.097	-0.294
-364.698	-200.000	-0.014	-0.079
-363.683	566.846	-0.088	-0.215
-362.669	116.039	0.096	0.119
-361.654	800.000	-0.063	-0.213
-360.639	-150.311	0.355	0.028
-359.625	-200.000	-0.003	0.117
-358.610	-96.117	0.334	0.089
-357.596	-200.000	0.046	-0.287
-356.581	-152.087	0.229	0.017
-355.566	-111.452	0.247	-0.051
-354.552	-200.000	-0.002	-0.233
-353.537	185.130	0.172	0.257
-352.523	800.000	-0.069	-0.192
-351.508	800.000	0.054	0.199
-350.493	-50.306	0.422	-0.201
-349.479	800.000	0.042	0.152
-348.464	-200.000	0.016	-0.091
-347.450	39.701	-0.031	-0.028
-346.435	49.960	-0.287	-0.272
-345.420	-200.000	0.004	-0.286
-344.406	-33.084	-0.177	-0.099
-343.391	50.442	-0.124	0.118
-342.377	-200.000	0.028	0.298
-341.362	-117.061	-0.044	0.008
-340.348	34.049	0.067	-0.058
-339.333	29.491	-0.074	-0.063
-338.318	91.133	-0.061	-0.069
-337.304	41.685	-0.043	0.039
-336.289	-54.698	-0.081	0.037
-335.275	78.201	0.131	-0.140
-334.260	-97.822	0.130	0.034
-333.245	-53.703	-0.127	-0.058
-332.231	82.558	-0.095	-0.104
-331.216	-63.712	-0.069	-0.028
-330.202	180.228	0.319	-0.471
-329.187	-50.632	0.064	-0.030
-328.172	-55.776	-0.180	-0.081
-327.158	-64.382	-0.094	-0.038
-326.143	-29.827	0.211	0.121
-325.129	-200.000	-0.050	-0.237
-324.114	-28.941	0.274	-0.158
-323.099	-50.205	-0.050	0.024
-322.085	293.693	-0.129	-0.237
-321.070	-200.000	-0.233	0.000
-320.056	800.000	-0.026	-0.103
-319.041	-200.000	0.011	-0.147
-318.026	125.785	0.082	-0.104
-317.012	-46.184	0.171	0.085
-315.997	-66.029	-0.230	-0.092
-314.983	-89.951	-0.126	-0.037
-313.968	-200.000	0.009	-0.166
-312.953	66.260	-0.053	0.054
-311.939	-138.738	-0.258	0.028
-310.924	89.374	-0.196	-0.220
-309.910	76.751	0.160	-0.171
-308.895	-200.000	-0.022	0.112
-307.880	-31.456	-0.275	0.155
-306.866	-200.000	0.001	0.191
-305.851	-15.786	0.162	-0.104
-304.837	800.000	-0.076	-0.214
-303.822	-26.423	-0.198	-0.117
-302.807	109.665	-0.075	-0.091
-301.793	266.917	-0.114	-0.200
-300.778	217.193	-0.078	0.124
-299.764	31.891	-0.123	-0.107
-298.749	-142.650	0.108	-0.011
-297.735	800.000	-0.039	-0.116
-296.720	133.891	-0.075	-0.097
-295.705	171.691	-0.196	-0.282
-294.691	760.422	0.043	0.117
-293.676	309.568	0.186	-0.349
-292.662	-57.861	-0.069	-0.030
-291.647	-37.718	0.205	-0.110
-290.632	-13.586	-0.314	-0.204
-289.618	-2.417	0.160	0.112
-288.603	92.861	-0.095	-0.108
-287.589	-182.587	0.195	-0.004
-286.574	-188.474	-0.174	-0.002
-285.559	-107.714	-0.251	-0.055
-284.545	-30.502	-0.333	0.189
-283.530	-200.000	0.012	0.056
-282.516	24.521	0.121	-0.100
-281.501	-59.208	0.290	-0.126
-280.486	526.476	-0.054	0.127
-279.472	8.439	-0.227	-0.171
-278.457	-18.534	0.070	0.044
-277.443	-105.620	-0.177	0.040
-276.428	800.000	0.090	0.317
-275.413	1.191	0.162	0.117
-274.399	-200.000	-0.012	0.263
-273.384	112.727	0.050	0.061
-272.370	213.103	0.152	0.241
-271.355	800.000	-0.104	0.345
-270.340	-117.216	0.252	0.046
-269.326	105.494	0.143	0.170
-268.311	-70.735	0.083	-0.031
-267.297	-96.204	-0.067	0.018
-266.282	-117.948	-0.202	0.036
-265.267	800.000	-0.052	0.226
-264.253	-200.000	0.075	0.379
-263.238	-122.223	0.143	-0.023
-262.224	-63.952	0.357	0.146
-261.209	148.339	-0.148	0.201
-260.195	-102.588	0.133	0.032
-259.180	-102.944	-0.239	-0.057
-258.165	800.000	-0.093	-0.283
-257.151	-74.689	0.205	-0.074
-256.136	-31.948	0.244	-0.137
-255.122	769.800	-0.077	-0.210
-254.107	141.364	0.045	0.060
-253.092	2.670	0.293	0.213
-252.078	-200.000	-0.005	0.140
-251.063	-3.761	-0.047	0.033
-250.049	-166.661	-0.277	-0.012
-249.034	-45.498	-0.339	0.168
-248.019	-111.715	-0.293	0.059
-247.005	127.148	-0.261	-0.332
-245.990	-100.791	-0.146	0.036
-244.976	-200.000	-0.058	-0.342
-243.961	774.556	-0.062	-0.169
-242.946	50.031	-0.179	0.169
-241.932	-4.334	0.293	0.203
-240.917	-200.000	-0.012	0.196
-239.903	-8.959	0.079	0.053
-238.888	-27.022	0.288	0.168
-237.873	-158.919	-0.338	-0.019
-236.859	-39.543	0.099	0.052
-235.844	-73.574	-0.184	-0.067
-234.830	519.909	-0.060	0.141
-233.815	321.868	0.188	0.358
-232.800	-200.000	-0.004	-0.034
-231.786	-105.648	0.146	-0.033
-230.771	28.108	0.197	-0.167
-229.757	-200.000	-0.007	0.109
-228.742	227.727	0.169	0.275
-227.727	-200.000	-0.034	-0.246
-226.713	-30.635	0.039	-0.022
-225.698	-139.366	-0.356	-0.038
-224.684	118.457	-0.169	0.209
-223.669	-100.899	-0.264	0.065
-222.655	-66.841	0.394	-0.156
-221.640	53.134	0.085	0.082
-220.625	-200.000	-0.280	-0.001
-219.611	227.485	0.031	0.050
-218.596	-200.000	-0.014	0.163
-217.582	-14.586	-0.095	-0.061
-216.567	289.530	-0.171	0.310
-215.552	55.526	-0.196	0.190
-214.538	-34.494	0.104	0.057
-213.523	-200.000	-0.017	-0.271
-212.509	83.582	-0.104	-0.113
-211.494	71.523	-0.059	-0.061
-210.479	60.201	0.171	0.169
-209.465	-200.000	0.026	-0.216
-208.450	-200.000	0.041	0.245
-207.436	800.000	0.070	0.214
-206.421	25.335	0.100	-0.083
-205.406	-76.799	0.146	0.051
-204.392	-154.393	0.115	-0.008
-203.377	-48.284	-0.362	0.175
-202.363	-38.548	0.274	0.145
-201.348	-73.887	0.259	0.094
-200.333	-200.000	0.037	-0.270
-199.319	18.785	-0.197	0.158
-198.304	25.770	-0.083	-0.069
-197.290	373.349	-0.059	-0.119
-196.275	-200.000	0.023	0.116
-195.260	204.403	0.121	-0.188
-194.246	-200.000	0.015	0.098
-193.231	-90.119	-0.106	-0.031
-192.217	-190.918	-0.397	-0.004
-191.202	17.303	-0.089	0.071
-190.187	-122.405	-0.164	-0.027
-189.173	-54.750	0.310	0.140
-188.158	133.445	0.026	0.034
-187.144	68.963	-0.199	-0.205
-186.129	-200.000	-0.024	-0.105
-185.114	-146.726	0.126	-0.011
-184.100	-137.706	-0.228	0.026
-183.085	82.593	-0.058	-0.063
-182.071	-200.000	0.037	-0.168
-181.056	86.979	-0.163	-0.180
-180.042	132.419	-0.195	0.252
-179.027	557.600	-0.105	0.252
-178.012	-42.514	-0.059	0.030
-176.998	649.714	0.067	-0.172
-175.983	800.000	0.099	-0.328
-174.969	14.421	-0.205	0.160
-173.954	37.568	0.121	-0.108
-172.939	-200.000	-0.023	0.310
-171.925	133.882	-0.128	-0.165
-170.910	-200.000	0.030	-0.307
-169.896	258.352	0.144	-0.248
-168.881	-95.316	-0.161	-0.043
-167.866	-94.094	0.353	0.097
-166.852	111.168	0.080	0.096
-165.837	-14.634	0.055	-0.035
-164.823	774.105	0.121	-0.329
-163.808	152.975	-0.196	0.267
-162.793	491.331	0.060	0.136
-161.779	-200.000	0.040	0.350
-160.764	-34.856	-0.074	0.041
-159.750	-65.476	-0.281	-0.113
-158.735	389.231	-0.076	0.157
-157.720	-194.212	0.257	-0.002
-156.706	-200.000	0.022	-0.153
-155.691	90.235	-0.256	0.286
-154.677	-118.545	0.080	-0.014
-153.662	-89.540	-0.168	-0.049
-152.647	-200.000	0.008	-0.169
-151.633	-200.000	0.044	-0.431
-150.618	32.715	-0.187	-0.161
-149.604	189.362	0.118	-0.177
-148.589	-111.662	0.135	-0.027
-147.574	-200.000	0.009	-0.062
-146.560	-92.332	0.221	0.062
-145.545	800.000	0.040	0.135
-144.531	-108.735	-0.093	0.020
-143.516	-200.000	-0.011	0.154
-142.502	-52.555	0.328	-0.151
-141.487	-200.000	-0.020	0.174
-140.472	800.000	-0.042	-0.143
-139.458	-126.485	-0.218	0.032
-138.443	-56.246	-0.191	-0.085
-137.429	-106.823	0.103	-0.023
-136.414	-103.978	-0.271	-0.063
-135.399	216.758	0.182	-0.290
-134.385	573.366	0.059	0.143
-133.370	-200.000	0.031	0.173
-132.356	-145.864	-0.264	-0.023
-131.341	-200.000	-0.002	0.370
-130.326	82.092	0.055	0.060
-129.312	220.080	0.039	-0.063
-128.297	-49.088	0.368	-0.176
-127.283	161.223	-0.086	-0.119
-126.268	-200.000	0.013	-0.126
-125.253	-47.690	-0.189	-0.091
-124.239	-200.000	-0.030	-0.144
-123.224	-90.816	-0.285	0.082
-122.210	147.723	-0.076	0.103
-121.195	-183.081	-0.234	0.004
-120.180	-147.247	0.258	-0.022
-119.166	13.226	-0.133	-0.102
-118.151	312.246	-0.019	0.036
-117.137	-122.988	-0.043	0.007
-116.122	-125.380	-0.283	-0.043
-115.107	800.000	-0.064	-0.236
-114.093	-86.281	0.334	0.103
-113.078	514.812	0.054	-0.125
-112.064	380.360	-0.089	-0.182
-111.049	800.000	-0.057	-0.176
-110.034	135.823	0.286	0.371
-109.020	-76.700	0.083	0.029
-108.005	-200.000	0.024	-0.166
-106.991	28.731	-0.086	-0.072
-105.976	130.877	-0.061	-0.078
-104.962	-12.383	-0.117	-0.076
-103.947	144.079	0.061	-0.081
-102.932	-20.442	-0.179	-0.110
-101.918	-200.000	-0.041	-0.251
-100.903	773.977	-0.123	0.335
-99.889	-90.654	-0.292	0.084
-98.874	-200.000	-0.083	-0.370
-97.859	-20.467	-0.191	-0.117
-96.845	527.929	-0.057	-0.135
-95.830	-7.999	0.182	-0.122
-94.816	800.000	-0.109	0.354
-93.801	477.180	0.100	0.226
-92.786	-200.000	-0.012	0.242
-91.772	93.792	0.107	0.121
-90.757	230.383	0.145	0.236
-89.743	800.000	-0.053	0.186
-88.728	440.856	-0.050	0.109
-87.713	-133.613	-0.159	0.020
-86.699	789.343	0.037	-0.101
-85.684	-71.451	-0.138	-0.051
-84.670	-200.000	0.037	-0.193
-83.655	-200.000	-0.027	-0.145
-82.640	-75.501	-0.393	0.139
-81.626	800.000	0.008	-0.030
-80.611	-200.000	-0.035	-0.201
-79.597	-101.401	0.092	-0.022
-78.582	35.612	-0.309	-0.270
-77.567	-71.883	0.195	-0.072
-76.553	-113.267	0.349	0.068
-75.538	56.113	-0.141	0.136
-74.524	16.961	-0.233	-0.184
-73.509	800.000	0.042	0.158
-72.494	-200.000	0.020	0.121
-71.480	-191.897	0.438	-0.004
-70.465	-11.335	0.136	-0.089
-69.451	705.388	0.146	-0.383
-68.436	-200.000	-0.023	-0.172
-67.422	86.551	0.274	0.301
-66.407	97.056	-0.202	0.231
-65.392	133.146	-0.061	0.079
-64.378	18.515	-0.037	-0.030
-63.363	-123.284	0.192	0.030
-62.349	-16.897	0.224	0.141
-61.334	-43.089	-0.909	-0.459
-60.319	250.993	0.402	0.679
-59.305	-200.000	-0.061	-0.972
-58.290	429.369	0.508	1.094
-57.276	716.671	0.640	1.691
-56.261	-200.000	84.610	492.005
-55.246	503.304	1403.474	3228.607
-54.232	178.644	2633.581	3827.297
-53.217	116.166	2251.315	2742.925
-52.203	47.947	1689.057	1569.644
-51.188	40.673	1416.152	1269.676
-50.173	37.313	1371.741	1208.943
-49.159	56.112	1414.177	1365.374
-48.144	60.531	1433.079	1411.459
-47.130	41.269	1391.163	1250.815
-46.115	37.422	1373.767	1211.214
-45.100	37.247	1368.725	1205.635
-44.086	37.122	1366.028	1202.439
-43.071	37.172	1363.957	1200.876
-42.057	37.154	1361.707	1198.738
-41.042	37.256	1360.017	1197.830
-40.027	37.313	1358.495	1196.796
-39.013	37.204	1356.659	1194.458
-37.998	37.297	1354.593	1193.166
-36.984	37.337	1352.462	1191.486
-35.969	37.364	1350.326	1189.723
-34.954	37.281	1348.821	1187.837
-33.940	37.362	1347.084	1186.754
-32.925	37.430	1345.845	1186.032
-31.911	37.356	1344.638	1184.474
-30.896	37.397	1343.169	1183.379
-29.881	37.576	1341.636	1183.071
-28.867	37.482	1339.959	1180.974
-27.852	37.493	1338.779	1179.952
-26.838	37.521	1337.620	1179.056
-25.823	37.515	1336.014	1177.555
-24.809	37.450	1334.401	1175.698
-23.794	37.418	1333.152	1174.357
-22.779	37.429	1331.669	1173.071
-21.765	37.404	1330.752	1172.064
-20.750	37.384	1328.965	1170.325
-19.736	37.281	1327.944	1168.757
-18.721	37.318	1326.260	1167.449
-17.706	37.238	1325.556	1166.302
-16.692	37.288	1324.592	1165.709
-15.677	37.268	1323.114	1164.246
-14.663	37.216	1322.123	1163.015
-13.648	37.195	1320.605	1161.506
-12.633	37.208	1319.623	1160.676
-11.619	37.225	1318.763	1159.973
-10.604	37.274	1317.963	1159.517
-9.590	37.228	1317.229	1158.549
-8.575	37.289	1315.561	1157.398
-7.560	37.243	1315.096	1156.669
-6.546	37.180	1314.602	1155.814
-5.531	37.237	1313.304	1154.966
-4.517	37.277	1312.206	1154.192
-3.502	37.302	1311.353	1153.549
-2.487	37.172	1310.926	1152.354
-1.473	37.423	1306.443	1149.850
-0.458	36.441	1292.155	1131.483
0.556	33.755	1272.827	1091.839
1.571	29.829	1276.605	1072.280
2.586	28.345	1291.093	1075.647
3.600	26.440	1277.529	1053.174
4.615	19.627	1200.474	952.147
5.629	9.648	1119.230	836.104
6.644	4.856	1096.353	794.540
7.659	4.481	1094.021	790.872
8.673	4.600	1093.008	790.675
9.688	4.664	1091.630	789.934
10.702	4.817	1090.116	789.546
11.717	10.480	1098.592	824.485
12.731	19.322	1111.102	879.086
13.746	21.638	1112.471	891.898
14.761	20.031	1109.995	881.663
15.775	18.809	1107.848	873.668
16.790	17.842	1105.535	866.856
17.804	17.077	1104.002	861.696
18.819	16.798	1103.033	859.452
19.834	16.408	1102.521	856.997
20.848	16.170	1101.331	854.792
21.863	16.138	1100.576	853.969
22.877	16.039	1099.899	852.865
23.892	15.965	1098.860	851.611
24.907	16.069	1097.863	851.289
25.921	16.021	1096.931	850.245
26.936	16.023	1095.570	849.126
27.950	16.076	1094.426	848.433
28.965	16.249	1092.536	847.762
29.980	16.305	1091.389	847.078
30.994	16.273	1090.477	846.131
32.009	16.394	1089.268	845.725
33.023	16.225	1088.250	844.017
34.038	16.131	1087.211	842.666
35.053	16.049	1086.200	841.397
36.067	16.055	1085.596	840.883
37.082	16.090	1084.414	840.072
38.096	16.222	1084.006	840.339
39.111	16.292	1082.602	839.520
40.126	16.094	1081.736	837.792
41.140	15.849	1080.322	835.409
42.155	15.779	1078.623	833.672
43.169	15.840	1077.437	832.986
44.184	15.798	1076.214	831.759
45.199	15.767	1075.843	831.245
46.213	15.927	1074.299	830.766
47.228	16.100	1073.210	830.703
48.242	16.128	1072.210	829.995
49.257	15.957	1071.536	828.557
50.271	16.152	1070.395	828.562
51.286	16.045	1069.969	827.634
52.301	16.163	1068.513	827.011
53.315	15.938	1067.922	825.378
54.330	15.917	1066.593	824.177
55.344	15.943	1065.724	823.557
56.359	15.939	1064.767	822.727
57.374	15.873	1063.821	821.600
58.388	15.943	1062.666	820.978
59.403	15.662	1062.218	819.189
60.417	15.846	1061.288	819.297
61.432	15.730	1060.507	818.057
62.447	15.712	1059.645	817.233
63.461	15.677	1059.005	816.494
64.476	15.591	1058.260	815.428
65.490	15.617	1057.502	814.899
66.505	15.776	1056.555	814.871
67.520	15.686	1055.992	813.927
68.534	15.736	1055.328	813.585
69.549	15.706	1054.484	812.719
70.563	15.666	1053.212	811.471
71.578	15.681	1052.445	810.882
72.593	15.683	1051.216	809.873
73.607	15.673	1051.004	809.590
74.622	15.583	1050.413	808.628
75.636	15.683	1049.546	808.371
76.651	15.590	1048.949	807.394
77.666	15.679	1047.944	806.976
78.680	15.704	1047.423	806.622
79.695	15.639	1047.080	805.973
80.709	15.870	1045.640	805.904
81.724	15.823	1045.535	805.523
82.739	15.851	1045.407	805.488
83.753	16.000	1044.001	805.043
84.768	16.211	1043.015	805.221
85.782	16.224	1042.396	804.732
86.797	16.248	1040.988	803.689
87.812	16.196	1040.059	802.656
88.826	16.166	1039.220	801.792
89.841	16.262	1037.917	801.176
90.855	16.187	1037.536	800.453
91.870	16.261	1036.908	800.250
92.884	16.303	1035.710	799.451
93.899	16.261	1034.978	798.615
94.914	16.261	1034.560	798.224
95.928	16.230	1033.436	797.142
96.943	16.085	1032.892	795.963
97.957	16.100	1031.766	795.098
98.972	16.200	1030.323	794.387
99.987	16.090	1029.888	793.461
101.001	16.098	1029.210	792.906
102.016	16.173	1027.947	792.216
103.030	16.172	1027.412	791.729
104.045	16.200	1026.180	790.840
105.060	16.043	1025.891	789.811
106.074	15.863	1024.880	788.122
107.089	15.837	1023.409	786.798
108.103	15.808	1022.523	785.913
109.118	15.873	1021.286	785.196
110.133	15.757	1020.700	784.134
111.147	15.791	1020.011	783.697
112.162	15.850	1018.862	783.019
113.176	15.834	1018.132	782.311
114.191	16.000	1017.263	782.348
115.206	15.849	1016.914	781.309
116.220	15.915	1015.844	780.721
117.235	15.910	1015.010	779.990
118.249	15.900	1013.776	778.927
119.264	15.885	1012.892	778.107
120.279	15.730	1012.463	776.996
121.293	15.855	1011.361	776.659
122.308	15.743	1010.346	775.293
123.322	15.719	1009.147	774.194
124.337	15.665	1008.354	773.268
125.352	15.809	1007.078	772.884
126.366	15.680	1006.386	771.692
127.381	15.712	1005.428	771.033
128.395	15.782	1004.544	770.609
129.410	15.835	1003.415	769.920
130.424	15.824	1002.711	769.261
131.439	16.051	1001.885	769.595
132.454	15.950	1001.242	768.571
133.468	16.098	1000.374	768.511
134.483	16.041	999.271	767.338
135.497	16.131	998.475	767.069
136.512	15.973	997.717	765.697
137.527	16.133	996.753	765.618
138.541	15.957	996.283	764.389
139.556	16.031	995.615	764.147
140.570	16.252	994.704	764.379
141.585	16.381	993.953	764.318
142.600	16.334	992.901	763.231
143.614	16.426	992.155	763.002
144.629	16.356	991.380	762.023
145.643	16.197	990.593	760.634
146.658	16.218	989.391	759.741
147.673	16.179	988.464	758.787
148.687	16.047	987.668	757.516
149.702	16.065	986.744	756.819
150.716	16.068	985.580	755.874
151.731	15.949	985.439	755.165
152.746	16.087	984.357	754.887
153.760	16.093	983.670	754.319
154.775	16.279	983.136	754.674
155.789	16.389	982.631	754.713
156.804	16.259	981.702	753.350
157.819	16.332	981.027	753.095
158.833	16.417	980.358	752.889
159.848	16.350	979.896	752.173
160.862	16.361	978.490	751.073
161.877	16.259	977.256	749.608
162.892	16.131	976.465	748.367
163.906	16.142	975.382	747.518
164.921	16.101	974.493	746.589
165.935	16.235	973.321	746.219
166.950	16.215	972.829	745.686
167.964	16.351	971.769	745.409
168.979	16.153	971.068	743.934
169.994	16.264	970.074	743.595
171.008	16.298	969.370	743.139
172.023	16.478	968.847	743.464
173.037	16.388	968.037	742.379
174.052	16.401	967.375	741.865
175.067	16.259	966.770	740.712
176.081	16.217	965.962	739.842
177.096	16.112	965.669	739.093
178.110	16.192	964.424	738.425
179.125	16.235	964.321	738.469
180.140	16.301	963.572	738.119
181.154	16.390	963.117	738.094
182.169	16.488	962.699	738.136
183.183	16.354	962.448	737.293
184.198	16.534	961.152	737.020
185.213	16.429	960.330	735.867
186.227	16.528	959.717	735.765
187.242	16.640	958.735	735.433
188.256	16.765	958.431	735.678
189.271	16.646	957.582	734.444
190.286	16.414	956.961	732.897
191.300	16.197	956.122	731.249
192.315	16.246	955.106	730.618
193.329	16.181	954.915	730.125
194.344	16.212	954.447	729.836
195.359	16.366	953.472	729.694
196.373	16.548	953.000	730.051
197.388	16.488	952.633	729.449
198.402	16.734	952.248	730.152
199.417	16.938	951.136	730.110
200.432	16.925	951.006	729.889
201.446	16.851	950.872	729.404
202.461	16.964	949.946	729.115
203.475	16.909	949.527	728.493
204.490	16.747	948.607	727.029
205.504	16.645	947.865	725.955
206.519	16.641	946.829	725.082
207.534	16.715	946.327	724.951
208.548	16.840	945.570	724.843
209.563	16.567	945.269	723.379
210.577	16.824	944.005	723.443
211.592	16.847	943.616	723.182
212.607	16.907	942.856	722.790
213.621	16.807	941.914	721.578
214.636	16.860	941.166	721.167
215.650	16.894	940.462	720.707
216.665	16.966	939.755	720.408
217.680	17.007	938.865	719.837
218.694	17.117	938.293	719.800
219.709	17.030	937.661	718.884
220.723	17.122	936.691	718.466
221.738	16.935	936.257	717.279
222.753	17.022	935.665	717.127
223.767	17.004	935.268	716.684
224.782	17.219	934.629	717.041
225.796	17.125	933.905	716.022
226.811	17.099	933.230	715.335
227.826	17.120	932.427	714.741
228.840	17.053	931.863	713.964
229.855	16.928	930.974	712.697
230.869	16.962	930.363	712.309
231.884	16.994	929.503	711.721
232.899	16.955	928.436	710.679
233.913	16.967	927.840	710.211
234.928	16.953	927.306	709.680
235.942	16.770	927.077	708.676
236.957	16.865	926.048	708.225
237.972	16.935	925.383	707.942
238.986	17.082	924.707	707.976
240.001	17.001	924.184	707.175
241.015	17.130	923.381	707.037
242.030	17.012	922.791	706.030
243.045	17.024	922.581	705.859
244.059	17.017	921.982	705.307
245.074	17.210	920.907	705.225
246.088	17.360	920.242	705.277
247.103	17.235	919.836	704.384
248.117	17.371	919.216	704.411
249.132	17.506	918.924	704.683
250.147	17.657	918.144	704.648
251.161	17.749	917.251	704.277
252.176	17.598	916.830	703.269
253.190	17.667	916.405	703.167
254.205	17.638	915.905	702.600
255.220	17.751	914.712	702.088
256.234	17.800	914.220	701.848
257.249	17.794	913.405	701.139
258.263	17.778	912.525	700.335
259.278	17.699	912.014	699.554
260.293	17.844	911.556	699.740
261.307	17.905	910.867	699.396
262.322	17.864	910.259	698.702
263.336	17.949	909.636	698.509
264.351	17.879	909.059	697.715
265.366	18.038	907.923	697.431
266.380	17.872	907.471	696.344
267.395	17.809	906.766	695.486
268.409	17.815	905.954	694.826
269.424	17.916	904.919	694.382
270.439	17.777	904.653	693.551
271.453	17.732	903.639	692.530
272.468	17.725	903.244	692.135
273.482	17.678	902.759	691.512
274.497	17.877	902.106	691.758
275.512	17.783	901.372	690.754
276.526	17.734	901.260	690.409
277.541	17.831	900.338	690.033
278.555	17.965	899.647	689.985
279.570	18.090	899.334	690.188
280.585	18.055	898.895	689.650
281.599	18.098	897.355	688.581
282.614	17.950	896.876	687.555
283.628	17.958	896.534	687.264
284.643	17.953	895.854	686.664
285.657	18.053	895.081	686.411
286.672	17.978	894.550	685.644
287.687	18.006	894.056	685.317
288.701	17.993	893.479	684.760
289.716	18.125	892.928	684.804
290.730	18.099	892.458	684.280
291.745	18.041	891.654	683.374
292.760	18.136	891.108	683.272
293.774	18.233	890.706	683.294
294.789	18.148	889.890	682.265
295.803	18.074	889.076	681.288
296.818	18.180	888.361	681.101
297.833	18.096	887.808	680.282
298.847	18.038	887.564	679.804
299.862	18.234	886.295	679.551
300.876	18.137	886.225	679.052
301.891	18.440	885.129	679.353
302.906	18.374	884.757	678.747
303.920	18.431	884.646	678.826
304.935	18.536	883.871	678.587
305.949	18.370	883.515	677.597
306.964	18.362	882.597	676.801
307.979	18.395	881.836	676.287
308.993	18.335	881.424	675.676
310.008	18.585	880.522	675.909
311.022	18.539	879.842	675.146
312.037	18.311	879.522	673.943
313.052	18.346	878.710	673.402
314.066	18.207	878.783	672.851
315.081	18.256	877.564	672.051
316.095	18.293	876.941	671.657
317.110	18.314	876.659	671.466
318.125	18.307	875.846	670.754
319.139	18.293	875.501	670.375
320.154	18.312	874.701	669.781
321.168	18.375	874.478	669.795
322.183	18.398	873.832	669.332
323.197	18.549	873.129	669.323
324.212	18.439	872.578	668.415
325.227	18.403	871.886	667.683
326.241	18.447	871.777	667.713
327.256	18.346	871.168	666.795
328.270	18.331	870.340	666.043
329.285	18.384	869.535	665.573
330.300	18.463	868.890	665.327
331.314	18.511	868.425	665.097
332.329	18.566	867.765	664.749
333.343	18.602	867.808	664.860
334.358	18.669	867.101	664.519
335.373	18.651	866.780	664.147
336.387	18.666	866.780	664.144
337.402	18.650	866.613	663.897
338.416	18.822	866.218	664.198
339.431	18.855	865.736	663.900
340.446	18.856	865.571	663.719
341.460	18.886	865.159	663.457
342.475	18.947	864.382	663.039
343.489	18.851	864.200	662.472
344.504	19.081	863.354	662.651
345.519	18.962	863.088	661.927
346.533	19.018	862.230	661.427
347.548	18.941	861.639	660.620
348.562	18.643	861.512	659.321
349.577	18.752	860.459	658.872
350.592	18.773	859.918	658.481
351.606	18.783	858.993	657.751
352.621	18.740	858.503	657.157
353.635	18.798	857.607	656.633
354.650	18.722	857.497	656.200
355.665	18.924	856.775	656.361
356.679	19.018	855.769	655.891
357.694	19.076	855.137	655.567
358.708	19.119	854.292	655.026
359.723	18.941	854.185	654.211
360.738	18.969	853.425	653.675
361.752	18.961	853.126	653.360
362.767	19.140	852.451	653.463
363.781	19.290	851.958	653.598
364.796	19.356	851.275	653.264
365.810	19.477	850.805	653.303
366.825	19.441	850.520	652.892
367.840	19.397	850.042	652.300
368.854	19.380	849.631	651.861
369.869	19.327	848.872	651.025
370.883	19.201	848.708	650.363
371.898	19.217	848.626	650.305
372.913	19.368	847.943	650.292
373.927	19.354	847.395	649.761
374.942	19.335	847.124	649.425
375.956	19.589	846.197	649.613
376.971	19.670	845.864	649.604
377.986	19.738	845.520	649.536
379.000	19.620	844.956	648.604
380.015	19.625	844.406	648.144
381.029	19.469	844.083	647.252
382.044	19.511	843.452	646.870
383.059	19.643	842.601	646.653
384.073	19.518	841.871	645.568
385.088	19.460	841.188	644.772
386.102	19.440	840.793	644.336
387.117	19.448	840.344	643.965
388.132	19.457	839.659	643.416
389.146	19.453	839.324	643.087
390.161	19.467	838.882	642.744
391.175	19.616	838.114	642.652
392.190	19.761	837.436	642.615
393.205	19.551	836.983	641.431
394.219	19.488	837.074	641.211
395.234	19.433	836.538	640.540
396.248	19.342	836.097	639.808
397.263	19.291	835.363	638.999
398.278	19.336	834.917	638.769
399.292	19.484	834.275	638.767
400.307	19.433	834.157	638.431
401.321	19.496	833.528	638.127
402.336	19.572	832.951	637.912
403.350	19.677	832.447	637.857
404.365	19.762	832.062	637.818
405.380	19.934	831.603	638.043
406.394	19.769	831.329	637.168
407.409	19.933	830.885	637.376
408.423	19.948	830.841	637.341
409.438	19.999	830.610	637.294
410.453	19.977	829.959	636.657
411.467	20.089	829.222	636.449
412.482	20.076	829.040	636.205
413.496	20.195	828.763	636.371
414.511	20.086	828.595	635.788
415.526	20.117	827.714	635.169
416.540	20.016	827.513	634.587
417.555	20.069	826.579	634.009
418.569	20.042	826.408	633.722
419.584	20.156	825.555	633.429
420.599	20.133	824.937	632.815
421.613	152.814	1370.015	1780.011
422.628	133.208	1449.453	1780.136
