DTS Sentinel unit serial number:	SN413079Multiplexer serial number:	ORYXHardware model number:	OX4-SRSoftware version number:	ORYX F/W v4.00 Oryx Data Collector v3.7.2.0data status	okinstallation	princeton_trtdifferential loss correction	single-endedforward channel	channel 1reverse channel	N/Adate	2019/09/14time	19:42:35forward acquisition time	60.00reverse acquisition time	0.00gamma	496.2192k internal	0.2314k external	0.2314temperature offset calibration	1.0025default loss term (dB/km)	0.3790temperature slope calibration	1.0000multiplexer offset coefficient	1.0000multiplexer slope coefficient	1.0000fibre end	0.00T internal ref (°C)	34.47T ext. ref 1 (°C)	4.87T ext. ref 2 (°C)	28.71length (m)	temperature (°C)	Stokes	anti-Stokes-747.200	169.000	-0.131	0.190
-746.185	135.471	-0.116	0.154
-745.171	-4.978	-0.277	-0.193
-744.156	642.987	-0.098	0.252
-743.142	-91.810	0.059	0.017
-742.127	177.328	-0.205	0.302
-741.112	-28.135	0.031	-0.018
-740.098	-61.008	-0.187	0.080
-739.083	-103.369	-0.262	-0.062
-738.069	-94.930	-0.340	0.093
-737.054	224.133	-0.193	-0.316
-736.039	109.692	-0.357	-0.434
-735.025	-142.630	0.175	0.017
-734.010	104.149	-0.174	0.208
-732.996	-21.638	0.244	-0.151
-731.981	-149.507	-0.304	0.024
-730.966	-200.000	0.107	0.623
-729.952	-200.000	-0.038	-0.227
-728.937	56.308	0.145	0.143
-727.923	6.634	-0.267	0.201
-726.908	-16.114	0.007	0.004
-725.894	-122.630	-0.325	0.053
-724.879	63.731	0.142	-0.144
-723.864	-71.089	-0.239	0.091
-722.850	333.753	-0.066	-0.129
-721.835	205.849	-0.154	-0.242
-720.821	12.414	-0.328	-0.256
-719.806	68.635	-0.164	0.171
-718.791	18.590	0.222	-0.180
-717.777	-42.606	0.360	0.185
-716.762	144.894	-0.055	0.075
-715.748	281.376	0.128	-0.232
-714.733	56.288	0.168	-0.165
-713.718	143.757	-0.114	0.154
-712.704	-158.627	-0.084	0.005
-711.689	-200.000	-0.043	0.209
-710.675	120.076	-0.087	0.109
-709.660	170.955	-0.136	-0.198
-708.645	-200.000	-0.012	-0.129
-707.631	-134.448	-0.083	0.010
-706.616	-73.339	-0.228	0.084
-705.602	492.258	-0.094	0.218
-704.587	745.832	0.060	-0.163
-703.572	-27.822	0.339	0.199
-702.558	-37.948	0.098	-0.053
-701.543	257.294	0.165	0.287
-700.529	-200.000	-0.006	0.158
-699.514	-84.006	0.173	0.056
-698.499	-109.677	-0.408	0.087
-697.485	-20.489	-0.180	-0.112
-696.470	-83.889	-0.286	-0.092
-695.456	-48.133	-0.147	0.072
-694.441	-3.262	0.276	0.195
-693.426	31.501	-0.195	-0.170
-692.412	-200.000	-0.018	-0.217
-691.397	-20.552	0.337	-0.210
-690.383	-138.840	-0.268	0.030
-689.368	402.014	-0.056	0.120
-688.354	-36.493	0.125	-0.068
-687.339	51.013	-0.107	0.103
-686.324	314.309	0.056	0.107
-685.310	-113.728	-0.363	0.072
-684.295	225.452	-0.148	0.243
-683.281	-9.864	-0.292	0.197
-682.266	356.625	-0.144	0.290
-681.251	-1.185	0.083	-0.059
-680.237	-6.874	-0.158	0.108
-679.222	-116.009	0.250	-0.047
-678.208	-66.319	0.110	-0.044
-677.193	-109.689	0.199	-0.042
-676.178	-25.698	0.136	0.081
-675.164	73.006	0.109	-0.115
-674.149	-200.000	-0.010	0.193
-673.135	656.011	-0.073	-0.189
-672.120	-177.345	0.274	0.007
-671.105	-200.000	-0.070	-0.390
-670.091	800.000	-0.016	-0.055
-669.076	493.438	-0.083	-0.192
-668.062	-200.000	-0.001	-0.243
-667.047	-40.851	-0.082	-0.043
-666.032	175.852	-0.075	0.111
-665.018	-200.000	0.004	0.073
-664.003	5.518	-0.068	0.051
-662.989	433.726	-0.141	0.310
-661.974	40.056	0.175	-0.159
-660.959	-200.000	0.017	-0.256
-659.945	56.516	-0.260	0.256
-658.930	680.465	-0.077	0.203
-657.916	-170.785	-0.209	0.007
-656.901	-84.317	0.067	0.022
-655.886	413.599	-0.066	-0.141
-654.872	-92.619	0.382	0.108
-653.857	-155.433	-0.234	0.015
-652.843	34.027	-0.310	0.273
-651.828	265.405	0.154	0.271
-650.814	195.269	-0.112	-0.171
-649.799	-118.591	-0.235	-0.042
-648.784	28.630	0.087	-0.075
-647.770	26.479	-0.067	-0.057
-646.755	-200.000	-0.027	-0.217
-645.741	800.000	0.113	-0.490
-644.726	-154.159	-0.297	-0.020
-643.711	-116.961	-0.312	-0.058
-642.697	-50.110	-0.224	-0.107
-641.682	-84.379	0.164	-0.052
-640.668	17.016	0.213	0.171
-639.653	-20.385	0.091	0.056
-638.638	180.920	-0.062	0.092
-637.624	-40.782	-0.279	-0.146
-636.609	132.659	0.086	-0.112
-635.595	256.600	0.073	-0.126
-634.580	-6.888	-0.042	-0.029
-633.565	-200.000	-0.044	0.254
-632.551	704.583	0.116	0.308
-631.536	-18.522	-0.342	0.215
-630.522	530.072	0.199	-0.475
-629.507	-79.232	0.216	0.074
-628.492	-77.196	-0.208	-0.073
-627.478	-103.571	0.150	-0.035
-626.463	-170.126	0.136	-0.005
-625.449	-121.269	0.062	-0.011
-624.434	-133.191	-0.217	0.028
-623.419	531.892	-0.077	0.185
-622.405	238.369	0.131	0.219
-621.390	-91.501	0.036	-0.010
-620.376	379.535	0.069	-0.143
-619.361	-69.371	-0.328	0.127
-618.346	-200.000	0.062	0.367
-617.332	-69.798	0.109	0.042
-616.317	1.294	0.221	0.160
-615.303	-60.023	-0.098	0.042
-614.288	232.806	0.088	-0.146
-613.273	-44.172	0.083	-0.042
-612.259	-200.000	-0.005	-0.077
-611.244	195.251	-0.148	0.227
-610.230	-80.098	0.206	-0.070
-609.215	-200.000	-0.003	-0.080
-608.201	-200.000	-0.032	0.212
-607.186	-107.125	-0.149	0.033
-606.171	-4.522	0.074	-0.051
-605.157	-115.400	0.163	0.031
-604.142	800.000	0.048	0.160
-603.128	194.749	0.074	-0.113
-602.113	248.349	0.064	0.109
-601.098	-133.747	-0.451	-0.057
-600.084	-72.641	-0.192	0.072
-599.069	-166.602	0.106	0.004
-598.055	-68.742	-0.152	-0.059
-597.040	15.766	-0.223	-0.177
-596.025	-138.220	-0.312	-0.035
-595.011	-81.490	0.059	0.020
-593.996	96.216	-0.030	0.034
-592.982	309.550	-0.028	-0.053
-591.967	-77.493	-0.189	-0.066
-590.952	-131.768	-0.221	0.029
-589.938	79.956	-0.082	-0.089
-588.923	800.000	0.034	-0.113
-587.909	-120.641	-0.157	0.027
-586.894	-78.029	0.190	0.066
-585.879	100.694	0.070	-0.082
-584.865	-21.252	-0.263	-0.162
-583.850	-21.211	0.336	0.207
-582.836	800.000	0.040	0.165
-581.821	-13.810	0.028	0.018
-580.806	158.481	-0.130	0.181
-579.792	56.681	0.038	0.037
-578.777	204.765	0.244	0.382
-577.763	126.283	-0.088	-0.112
-576.748	-200.000	0.025	-0.438
-575.733	-105.461	-0.054	0.012
-574.719	800.000	0.078	-0.282
-573.704	-200.000	-0.029	-0.261
-572.690	327.771	-0.149	-0.289
-571.675	280.029	0.135	-0.242
-570.661	-21.367	0.251	-0.154
-569.646	137.182	-0.242	0.319
-568.631	-200.000	-0.045	0.301
-567.617	-103.902	-0.159	0.037
-566.602	-40.428	0.089	-0.047
-565.588	-43.582	-0.145	-0.074
-564.573	-200.000	-0.022	0.221
-563.558	-124.359	-0.192	0.030
-562.544	287.796	0.047	0.085
-561.529	-117.067	0.149	-0.027
-560.515	398.791	-0.051	0.108
-559.500	-13.370	-0.061	0.040
-558.485	190.663	0.202	-0.306
-557.471	-183.816	-0.307	0.005
-556.456	-200.000	-0.049	0.349
-555.442	-200.000	-0.041	0.257
-554.427	-36.438	-0.179	0.097
-553.412	290.080	0.149	0.272
-552.398	160.499	-0.060	0.085
-551.383	-200.000	0.023	0.237
-550.369	-65.588	0.180	-0.073
-549.354	147.265	0.214	0.289
-548.339	800.000	0.082	0.272
-547.325	149.390	-0.179	-0.244
-546.310	-200.000	-0.008	-0.249
-545.296	800.000	-0.055	-0.156
-544.281	104.048	0.136	0.160
-543.266	-72.870	0.212	-0.078
-542.252	190.053	-0.127	-0.192
-541.237	271.746	0.089	-0.158
-540.223	142.725	0.177	-0.236
-539.208	74.795	0.033	0.035
-538.193	800.000	0.069	0.263
-537.179	-169.765	0.333	0.012
-536.164	52.059	-0.227	0.217
-535.150	-78.306	0.208	-0.072
-534.135	-155.707	0.131	0.008
-533.121	409.389	0.205	0.436
-532.106	70.365	0.064	-0.066
-531.091	185.927	0.133	-0.199
-530.077	551.393	0.105	-0.254
-529.062	-200.000	0.034	-0.542
-528.048	-144.256	-0.448	-0.042
-527.033	-200.000	-0.038	-0.217
-526.018	800.000	0.072	-0.210
-525.004	298.087	0.148	-0.274
-523.989	-92.039	0.190	-0.054
-522.975	19.451	0.215	0.174
-521.960	-59.390	-0.379	0.164
-520.945	305.767	-0.062	-0.116
-519.931	208.522	0.180	0.284
-518.916	-125.291	-0.345	-0.053
-517.902	800.000	0.014	0.043
-516.887	67.990	0.182	-0.187
-515.872	43.636	-0.178	0.164
-514.858	76.977	0.222	-0.237
-513.843	-200.000	-0.028	0.192
-512.829	-137.344	-0.039	-0.004
-511.814	-80.566	-0.290	0.097
-510.799	-200.000	0.002	-0.222
-509.785	-13.444	-0.064	0.042
-508.770	88.772	-0.279	0.311
-507.756	-102.208	-0.231	0.056
-506.741	50.879	-0.080	-0.076
-505.726	218.705	-0.146	-0.235
-504.712	501.711	-0.112	-0.260
-503.697	193.104	0.092	0.140
-502.683	280.077	0.104	-0.187
-501.668	-200.000	0.004	-0.143
-500.653	127.977	0.087	-0.111
-499.639	-200.000	-0.044	0.453
-498.624	-43.468	0.096	0.049
-497.610	41.888	-0.193	0.176
-496.595	-66.146	-0.203	-0.081
-495.581	59.449	0.145	-0.144
-494.566	800.000	-0.034	0.149
-493.551	-105.320	0.319	0.073
-492.537	-200.000	-0.006	-0.095
-491.522	-59.728	0.163	0.070
-490.508	292.709	0.126	-0.232
-489.493	-200.000	0.023	-0.170
-488.478	-5.955	0.221	0.152
-487.464	-80.309	0.485	-0.163
-486.449	70.989	-0.126	-0.131
-485.435	128.630	-0.221	-0.283
-484.420	46.455	-0.180	0.167
-483.405	-11.518	-0.199	-0.132
-482.391	-185.758	0.145	-0.002
-481.376	19.763	-0.279	-0.226
-480.362	-66.069	-0.058	0.023
-479.347	102.539	-0.034	0.040
-478.332	385.695	-0.082	0.169
-477.318	-116.367	-0.114	-0.021
-476.303	-60.045	-0.176	0.076
-475.289	91.176	0.274	-0.309
-474.274	449.385	-0.061	-0.135
-473.259	60.074	0.196	-0.194
-472.245	-156.628	0.163	0.010
-471.230	94.856	-0.159	0.181
-470.216	107.722	-0.142	0.170
-469.201	2.594	0.092	-0.067
-468.186	-157.608	0.305	0.018
-467.172	438.836	-0.097	-0.212
-466.157	15.469	-0.391	-0.308
-465.143	149.075	0.174	-0.236
-464.128	4.614	-0.223	0.164
-463.113	90.283	0.167	-0.187
-462.099	-200.000	-0.007	0.053
-461.084	-106.568	0.056	0.012
-460.070	-76.955	-0.266	0.093
-459.055	-200.000	0.030	0.282
-458.040	-200.000	-0.033	0.347
-457.026	-200.000	0.010	-0.159
-456.011	800.000	-0.032	0.133
-454.997	-29.566	-0.174	0.100
-453.982	-200.000	-0.047	-0.311
-452.968	-165.332	0.286	-0.013
-451.953	-200.000	-0.019	-0.330
-450.938	800.000	0.057	-0.177
-449.924	-74.596	-0.211	-0.076
-448.909	58.773	-0.038	0.038
-447.895	238.732	-0.044	-0.073
-446.880	-200.000	-0.011	-0.189
-445.865	-200.000	0.000	0.253
-444.851	800.000	-0.023	0.066
-443.836	73.744	-0.264	0.277
-442.822	-30.126	-0.067	-0.038
-441.807	-41.324	0.078	-0.040
-440.792	162.075	0.080	0.113
-439.778	-200.000	-0.045	0.368
-438.763	-107.886	0.109	0.024
-437.749	-132.199	-0.116	0.015
-436.734	46.782	0.133	0.124
-435.719	-200.000	-0.016	0.327
-434.705	-112.669	0.095	-0.019
-433.690	21.208	0.236	-0.192
-432.676	-184.512	-0.191	-0.003
-431.661	-25.680	-0.343	0.202
-430.646	-200.000	0.004	0.117
-429.632	-200.000	0.006	0.090
-428.617	-24.138	-0.144	0.086
-427.603	-43.911	0.146	0.074
-426.588	800.000	-0.022	-0.095
-425.573	-62.991	0.140	-0.058
-424.559	-22.972	0.262	-0.158
-423.544	-44.273	0.129	0.065
-422.530	-200.000	-0.012	0.200
-421.515	-73.602	-0.134	-0.049
-420.500	413.710	-0.125	0.265
-419.486	24.381	0.292	0.242
-418.471	-107.657	-0.197	0.043
-417.457	769.185	-0.016	-0.044
-416.442	-157.914	-0.281	-0.017
-415.428	-54.436	-0.201	-0.091
-414.413	217.139	-0.193	-0.308
-413.398	-27.052	0.410	-0.239
-412.384	-40.509	0.064	0.033
-411.369	-136.670	-0.168	-0.019
-410.355	293.294	0.175	-0.320
-409.340	-33.329	0.176	0.097
-408.325	-71.069	0.209	-0.079
-407.311	35.716	0.194	-0.171
-406.296	-133.031	0.089	-0.011
-405.282	627.536	-0.103	0.259
-404.267	137.844	0.141	0.185
-403.252	-68.120	0.364	-0.142
-402.238	160.604	-0.119	0.166
-401.223	38.802	-0.068	0.060
-400.209	-118.932	-0.136	-0.024
-399.194	73.658	-0.176	-0.184
-398.179	-200.000	-0.022	0.263
-397.165	242.101	0.114	0.192
-396.150	452.480	0.134	0.296
-395.136	-200.000	-0.022	-0.175
-394.121	-139.971	-0.118	0.012
-393.106	-121.562	-0.122	-0.020
-392.092	-20.065	0.220	0.136
-391.077	-37.432	0.224	0.120
-390.063	-93.673	-0.066	-0.018
-389.048	-200.000	0.051	-0.270
-388.033	-26.637	-0.113	-0.066
-387.019	-200.000	-0.037	-0.194
-386.004	-168.219	-0.065	0.003
-384.990	-93.401	0.196	0.054
-383.975	-21.183	0.173	-0.106
-382.960	-77.695	0.211	0.073
-381.946	55.124	-0.341	-0.330
-380.931	71.053	0.251	0.260
-379.917	-86.214	0.401	0.124
-378.902	-200.000	-0.007	0.314
-377.888	-105.848	-0.225	-0.051
-376.873	15.860	-0.037	0.029
-375.858	-74.381	0.236	-0.085
-374.844	800.000	-0.104	-0.401
-373.829	369.662	0.075	0.152
-372.815	-50.911	-0.242	0.113
-371.800	-200.000	-0.015	0.078
-370.785	-82.684	-0.269	-0.087
-369.771	-200.000	0.001	-0.102
-368.756	-200.000	0.034	0.491
-367.742	-107.866	0.326	0.071
-366.727	-142.577	0.194	0.019
-365.712	-46.239	-0.190	0.094
-364.698	264.377	-0.197	-0.343
-363.683	-88.738	0.297	-0.088
-362.669	26.721	-0.179	0.150
-361.654	475.064	0.062	-0.140
-360.639	317.368	0.040	0.076
-359.625	-172.609	-0.392	-0.012
-358.610	800.000	0.071	-0.212
-357.596	124.653	-0.085	-0.107
-356.581	-54.647	-0.436	-0.197
-355.566	-81.904	-0.353	-0.115
-354.552	-44.196	0.179	-0.090
-353.537	-21.368	-0.264	-0.161
-352.523	333.630	0.077	-0.149
-351.508	-200.000	-0.182	0.000
-350.493	-126.511	0.114	0.017
-349.479	302.568	0.164	-0.303
-348.464	-120.741	0.307	0.052
-347.450	-94.715	0.218	0.059
-346.435	-48.298	0.274	-0.132
-345.420	397.356	0.072	-0.149
-344.406	-156.084	-0.165	0.010
-343.391	-189.981	-0.172	-0.002
-342.377	-129.365	-0.589	0.082
-341.362	800.000	-0.049	-0.185
-340.348	-200.000	0.007	0.291
-339.333	-31.400	0.222	0.125
-338.318	619.961	0.088	-0.221
-337.304	773.658	0.080	0.218
-336.289	-13.865	0.124	-0.080
-335.275	133.122	0.129	-0.166
-334.260	34.487	0.067	0.058
-333.245	-170.170	0.252	-0.009
-332.231	134.900	-0.165	-0.213
-331.216	169.610	0.062	0.088
-330.202	-42.792	0.150	0.076
-329.187	-97.701	-0.066	-0.017
-328.172	-128.392	-0.147	0.021
-327.158	425.931	0.027	0.057
-326.143	99.006	0.256	0.295
-325.129	800.000	0.009	-0.030
-324.114	116.633	0.148	-0.181
-323.099	233.827	-0.157	-0.258
-322.085	65.502	0.164	-0.165
-321.070	-3.416	-0.090	-0.062
-320.056	-200.000	0.033	-0.196
-319.041	46.979	-0.286	-0.265
-318.026	386.137	-0.121	0.249
-317.012	-150.730	0.145	-0.011
-315.997	181.061	-0.096	0.140
-314.983	-2.638	0.081	0.057
-313.968	-200.000	0.049	0.370
-312.953	9.224	-0.220	0.166
-311.939	-188.517	-0.320	-0.004
-310.924	168.409	0.086	0.122
-309.910	-10.834	0.145	-0.096
-308.895	-200.000	-0.039	0.273
-307.880	-102.462	-0.338	-0.081
-306.866	800.000	0.030	-0.129
-305.851	800.000	0.093	0.328
-304.837	97.721	0.083	0.096
-303.822	64.072	0.145	-0.146
-302.807	67.532	0.050	0.051
-301.793	-35.935	0.164	-0.088
-300.778	-200.000	-0.041	0.422
-299.764	-150.564	-0.268	-0.020
-298.749	299.688	-0.072	0.133
-297.735	-200.000	0.008	-0.062
-296.720	-189.781	0.091	-0.001
-295.705	-10.093	0.159	-0.105
-294.691	51.180	0.271	0.256
-293.676	-83.649	-0.039	0.013
-292.662	-44.665	0.271	-0.135
-291.647	312.145	-0.084	-0.157
-290.632	-36.019	0.179	0.097
-289.618	-73.213	-0.411	-0.150
-288.603	-200.000	0.006	0.152
-287.589	-81.816	0.280	-0.091
-286.574	63.868	-0.301	-0.302
-285.559	-200.000	0.038	-0.246
-284.545	-79.876	-0.137	0.046
-283.530	-58.285	-0.525	0.227
-282.516	-154.884	0.459	-0.030
-281.501	-200.000	0.025	0.145
-280.486	-185.534	-0.402	0.006
-279.472	443.000	0.128	-0.278
-278.457	26.637	0.165	0.137
-277.443	520.230	-0.020	0.047
-276.428	14.939	-0.163	-0.127
-275.413	599.965	0.081	-0.200
-274.399	800.000	0.048	0.210
-273.384	-18.477	0.150	-0.093
-272.370	11.102	0.155	-0.118
-271.355	-140.543	-0.295	-0.031
-270.340	-118.938	0.266	-0.046
-269.326	-140.865	0.070	0.007
-268.311	-200.000	-0.001	-0.249
-267.297	53.377	-0.087	-0.083
-266.282	3.608	-0.136	0.099
-265.267	-150.219	0.198	-0.015
-264.253	800.000	0.194	0.597
-263.238	-131.168	0.379	-0.050
-262.224	-200.000	0.020	0.191
-261.209	-200.000	0.062	0.318
-260.195	-200.000	-0.009	0.264
-259.180	-77.045	-0.098	-0.034
-258.165	61.677	-0.136	0.135
-257.151	395.747	0.100	-0.208
-256.136	-55.815	-0.229	0.102
-255.122	25.167	0.112	0.092
-254.107	105.685	0.168	-0.197
-253.092	800.000	0.139	-0.392
-252.078	-85.922	0.120	0.037
-251.063	683.805	-0.122	0.316
-250.049	-200.000	0.037	0.350
-249.034	493.669	0.145	0.332
-248.019	-139.817	0.217	0.023
-247.005	-9.192	-0.097	-0.064
-245.990	800.000	0.074	-0.238
-244.976	400.373	0.032	-0.066
-243.961	-43.951	0.126	-0.063
-242.946	-26.848	0.280	-0.162
-241.932	-200.000	-0.012	-0.191
-240.917	800.000	0.090	0.306
-239.903	-133.571	-0.279	0.035
-238.888	261.942	-0.161	-0.278
-237.873	250.138	0.173	-0.292
-236.859	-89.374	0.166	0.049
-235.844	-200.000	0.098	0.493
-234.830	-200.000	0.014	0.539
-233.815	-182.014	-0.252	-0.005
-232.800	-45.595	-0.326	-0.160
-231.786	-11.866	0.154	0.100
-230.771	275.551	0.116	0.204
-229.757	-200.000	-0.003	0.171
-228.742	155.844	0.236	-0.323
-227.727	-200.000	-0.033	0.200
-226.713	553.481	0.036	-0.087
-225.698	727.081	-0.017	-0.046
-224.684	-0.118	0.021	0.015
-223.669	-200.000	-0.035	-0.276
-222.655	-103.934	0.217	0.050
-221.640	406.948	-0.032	0.067
-220.625	776.417	-0.110	0.297
-219.611	-94.877	-0.150	0.040
-218.596	5.238	0.029	-0.021
-217.582	-56.910	-0.253	-0.111
-216.567	61.385	0.112	-0.110
-215.552	193.891	0.218	-0.327
-214.538	-200.000	-0.017	0.089
-213.523	175.999	0.064	-0.092
-212.509	-99.937	0.136	-0.034
-211.494	-178.291	-0.083	0.002
-210.479	-94.030	0.128	-0.035
-209.465	-158.649	-0.432	0.025
-208.450	-80.514	-0.204	-0.068
-207.436	800.000	0.041	-0.146
-206.421	-63.287	-0.083	-0.034
-205.406	502.928	0.129	-0.296
-204.392	217.308	-0.199	-0.315
-203.377	-200.000	-0.021	0.322
-202.363	194.032	-0.262	-0.393
-201.348	-106.842	-0.036	0.008
-200.333	-200.000	0.037	-0.215
-199.319	-200.000	0.001	-0.259
-198.304	178.848	0.073	-0.105
-197.290	-200.000	-0.052	0.268
-196.275	5.259	-0.126	-0.092
-195.260	-127.049	-0.360	0.052
-194.246	-200.000	0.037	0.194
-193.231	91.084	-0.136	-0.152
-192.217	-200.000	0.055	0.294
-191.202	-32.504	-0.067	0.037
-190.187	-57.180	-0.177	0.077
-189.173	92.622	-0.127	0.142
-188.158	-29.898	-0.160	0.090
-187.144	-200.000	-0.007	-0.031
-186.129	-57.020	0.196	0.086
-185.114	-49.209	0.166	-0.079
-184.100	36.638	-0.242	0.212
-183.085	-2.046	0.179	-0.125
-182.071	2.234	-0.246	0.176
-181.056	-24.718	0.113	0.066
-180.042	-125.228	-0.160	-0.024
-179.027	0.386	0.297	0.210
-178.012	231.213	-0.024	-0.040
-176.998	-200.000	-0.001	-0.191
-175.983	-20.214	-0.028	-0.017
-174.969	-67.356	0.114	-0.044
-173.954	213.896	-0.204	0.320
-172.939	-32.305	0.100	0.055
-171.925	164.653	0.213	0.298
-170.910	-36.314	0.105	0.056
-169.896	53.636	0.122	0.116
-168.881	61.782	0.188	-0.186
-167.866	-32.168	-0.016	-0.009
-166.852	800.000	-0.091	-0.289
-165.837	-91.611	-0.116	0.033
-164.823	380.796	0.101	0.206
-163.808	8.447	0.090	-0.067
-162.793	76.540	-0.067	-0.071
-161.779	800.000	-0.046	0.194
-160.764	800.000	-0.055	0.174
-159.750	213.126	0.096	0.150
-158.735	800.000	0.043	-0.127
-157.720	204.141	0.094	-0.145
-156.706	-120.440	0.066	-0.011
-155.691	44.617	0.342	-0.312
-154.677	-166.865	0.069	0.003
-153.662	207.410	-0.079	-0.123
-152.647	-147.745	-0.061	0.005
-151.633	-200.000	-0.036	0.339
-150.618	-200.000	-0.009	-0.157
-149.604	167.951	0.177	-0.249
-148.589	65.207	-0.108	-0.108
-147.574	142.609	-0.195	0.257
-146.560	800.000	0.025	0.095
-145.545	151.710	-0.078	-0.106
-144.531	-200.000	0.007	-0.140
-143.516	466.345	-0.121	0.268
-142.502	41.463	0.213	0.191
-141.487	-118.637	0.470	0.082
-140.472	-200.000	0.041	0.183
-139.458	682.961	-0.104	-0.269
-138.443	116.276	0.126	-0.153
-137.429	-200.000	0.041	0.186
-136.414	-200.000	-0.063	-0.449
-135.399	-146.105	0.109	0.010
-134.385	0.985	0.288	0.204
-133.370	120.160	-0.201	0.247
-132.356	-185.481	0.186	-0.003
-131.341	-200.000	-0.023	-0.351
-130.326	36.502	0.083	-0.073
-129.312	-200.000	0.006	-0.188
-128.297	-200.000	-0.044	-0.280
-127.283	84.652	-0.043	0.047
-126.268	-117.221	0.568	0.102
-125.253	62.691	-0.264	0.261
-124.239	-107.525	-0.305	-0.066
-123.224	-179.692	0.147	0.003
-122.210	800.000	0.073	-0.295
-121.195	-122.705	0.128	0.021
-120.180	145.290	0.052	-0.069
-119.166	-200.000	-0.004	-0.032
-118.151	182.770	0.035	0.052
-117.137	1.442	-0.167	-0.119
-116.122	-23.752	-0.106	-0.063
-115.107	-200.000	0.020	-0.394
-114.093	-107.022	-0.143	-0.031
-113.078	200.614	-0.126	0.191
-112.064	11.501	-0.311	0.236
-111.049	-190.869	-0.124	-0.001
-110.034	-29.028	-0.297	0.169
-109.020	73.783	-0.125	-0.129
-108.005	86.768	-0.209	-0.228
-106.991	473.674	0.066	-0.147
-105.976	70.647	-0.116	0.118
-104.962	543.995	0.118	0.278
-103.947	2.389	0.162	0.116
-102.932	-80.633	-0.312	-0.103
-101.918	-137.961	0.152	-0.017
-100.903	85.860	-0.151	-0.164
-99.889	67.448	-0.163	0.164
-98.874	800.000	0.080	0.235
-97.859	169.164	0.071	0.100
-96.845	-130.808	-0.334	0.044
-95.830	177.903	0.174	0.251
-94.816	-91.730	-0.364	-0.102
-93.801	-106.752	0.296	-0.065
-92.786	-200.000	-0.033	-0.188
-91.772	-109.764	0.022	-0.005
-90.757	-86.983	0.369	-0.111
-89.743	253.634	-0.077	0.129
-88.728	-97.279	-0.381	0.098
-87.713	-74.801	0.382	-0.136
-86.699	-68.683	0.223	0.085
-85.684	-35.573	-0.139	-0.075
-84.670	-200.000	-0.059	-0.255
-83.655	800.000	0.034	-0.134
-82.640	-14.081	0.102	0.065
-81.626	-106.266	0.128	0.028
-80.611	786.147	0.105	0.283
-79.597	552.958	0.052	-0.122
-78.582	46.236	-0.215	0.197
-77.567	57.096	-0.226	0.218
-76.553	-66.421	0.233	-0.092
-75.538	214.427	-0.087	-0.136
-74.524	-200.000	-0.013	0.347
-73.509	-200.000	-0.034	0.276
-72.494	-200.000	-0.053	-0.407
-71.480	-88.320	0.230	0.068
-70.465	78.235	-0.112	-0.118
-69.451	22.388	0.229	0.185
-68.436	164.513	-0.217	0.301
-67.422	-128.106	-0.273	-0.039
-66.407	237.430	0.045	-0.073
-65.392	800.000	0.073	0.215
-64.378	-74.349	0.257	0.092
-63.363	-105.002	-0.264	0.060
-62.349	-200.000	-0.039	0.397
-61.334	4.059	-0.831	-0.600
-60.319	800.000	0.139	0.599
-59.305	209.040	-0.562	-0.869
-58.290	181.487	0.709	1.030
-57.276	-200.000	0.255	1.537
-56.261	-200.000	97.331	579.592
-55.246	640.173	1392.357	3497.388
-54.232	190.292	2589.390	3838.141
-53.217	121.354	2163.246	2659.213
-52.203	46.007	1618.843	1478.671
-51.188	37.924	1354.849	1188.486
-50.173	34.619	1313.008	1132.178
-49.159	57.316	1361.423	1311.335
-48.144	61.149	1379.605	1351.873
-47.130	38.353	1334.556	1173.072
-46.115	34.554	1317.126	1135.159
-45.100	34.470	1312.156	1130.331
-44.086	34.347	1309.877	1127.595
-43.071	34.279	1307.969	1125.511
-42.057	34.267	1305.841	1123.561
-41.042	34.520	1303.492	1122.986
-40.027	34.382	1302.297	1121.100
-39.013	34.334	1300.761	1119.454
-37.998	34.421	1298.685	1118.128
-36.984	34.499	1296.870	1116.981
-35.969	34.471	1295.354	1115.467
-34.954	34.501	1293.461	1113.968
-33.940	34.505	1292.244	1112.897
-32.925	34.609	1291.109	1112.482
-31.911	34.608	1289.635	1111.165
-30.896	34.584	1288.081	1109.642
-29.881	34.514	1287.236	1108.463
-28.867	34.657	1285.537	1107.786
-27.852	34.591	1284.191	1106.197
-26.838	34.582	1282.417	1104.572
-25.823	34.619	1281.026	1103.544
-24.809	34.535	1280.032	1102.163
-23.794	34.587	1278.483	1101.085
-22.779	34.549	1277.587	1100.049
-21.765	34.622	1275.645	1098.752
-20.750	34.590	1274.922	1097.906
-19.736	34.376	1273.976	1095.813
-18.721	34.425	1272.524	1094.801
-17.706	34.469	1271.219	1093.890
-16.692	34.395	1270.520	1092.823
-15.677	34.444	1269.113	1091.846
-14.663	34.343	1268.000	1090.268
-13.648	34.385	1267.052	1089.651
-12.633	34.439	1265.809	1088.849
-11.619	34.353	1265.044	1087.657
-10.604	34.333	1264.570	1087.088
-9.590	34.383	1263.257	1086.203
-8.575	34.372	1262.395	1085.359
-7.560	34.392	1261.388	1084.563
-6.546	34.294	1260.448	1083.152
-5.531	34.387	1259.177	1082.545
-4.517	34.285	1258.856	1081.645
-3.502	34.502	1257.499	1081.668
-2.487	34.350	1257.171	1080.481
-1.473	34.284	1253.000	1076.482
-0.458	32.667	1237.658	1054.223
0.556	28.374	1218.846	1013.491
1.571	24.232	1223.980	994.606
2.586	23.194	1239.265	1001.069
3.600	22.314	1229.064	987.805
4.615	17.138	1156.732	902.161
5.629	8.686	1082.336	801.884
6.644	4.952	1062.106	768.449
7.659	4.718	1059.950	765.669
8.673	4.827	1058.743	765.260
9.688	5.003	1056.999	764.797
10.702	5.057	1055.205	763.698
11.717	9.446	1061.800	789.987
12.731	16.876	1072.460	834.555
13.746	19.659	1075.119	850.268
14.761	18.815	1073.567	844.815
15.775	17.792	1071.286	837.922
16.790	16.677	1069.421	830.922
17.804	16.044	1067.828	826.507
18.819	15.690	1066.352	823.553
19.834	15.255	1066.384	821.377
20.848	15.263	1064.611	819.978
21.863	15.022	1064.321	818.505
22.877	14.809	1063.539	816.790
23.892	14.780	1062.814	816.016
24.907	14.745	1061.940	815.105
25.921	14.769	1060.954	814.392
26.936	14.859	1059.746	813.832
27.950	14.910	1058.406	812.975
28.965	15.114	1056.609	812.512
29.980	15.158	1054.733	811.216
30.994	15.113	1054.329	810.614
32.009	15.247	1053.347	810.436
33.023	15.172	1052.206	809.125
34.038	15.024	1051.082	807.474
35.053	14.930	1050.291	806.341
36.067	14.884	1049.770	805.648
37.082	15.009	1048.644	805.312
38.096	14.962	1048.321	804.767
39.111	15.170	1047.247	804.875
40.126	15.100	1045.760	803.323
41.140	14.818	1044.555	800.975
42.155	14.811	1043.194	799.824
43.169	14.776	1042.398	798.980
44.184	14.695	1041.229	797.624
45.199	14.661	1040.287	796.672
46.213	14.700	1039.399	796.104
47.228	14.872	1038.276	795.994
48.242	14.979	1037.093	795.523
49.257	14.852	1036.433	794.343
50.271	14.943	1035.179	793.744
51.286	14.963	1034.759	793.450
52.301	14.948	1033.740	792.524
53.315	14.794	1032.842	791.037
54.330	14.943	1030.812	790.118
55.344	14.788	1030.824	789.325
56.359	14.939	1029.659	789.077
57.374	14.751	1028.873	787.516
58.388	14.585	1028.222	786.167
59.403	14.785	1027.164	786.232
60.417	14.735	1026.128	785.132
61.432	14.676	1025.342	784.182
62.447	14.710	1024.615	783.718
63.461	14.625	1023.657	782.518
64.476	14.610	1022.943	781.832
65.490	14.604	1022.419	781.332
66.505	14.735	1021.250	780.982
67.520	14.609	1020.760	779.952
68.534	14.699	1019.957	779.687
69.549	14.719	1019.046	779.018
70.563	14.546	1018.297	777.569
71.578	14.510	1017.616	776.814
72.593	14.574	1016.615	776.276
73.607	14.574	1016.036	775.765
74.622	14.567	1015.248	775.066
75.636	14.507	1014.549	774.181
76.651	14.595	1013.655	773.841
77.666	14.628	1013.524	773.824
78.680	14.640	1012.593	773.102
79.695	14.501	1011.961	771.908
80.709	14.795	1011.274	772.676
81.724	14.706	1010.862	771.879
82.739	14.837	1009.826	771.628
83.753	14.957	1009.421	771.801
84.768	15.134	1008.646	771.959
85.782	15.204	1007.316	771.192
86.797	15.065	1007.209	770.401
87.812	14.945	1006.153	768.974
88.826	14.957	1004.715	767.864
89.841	14.978	1003.956	767.313
90.855	14.963	1003.421	766.768
91.870	15.003	1002.830	766.431
92.884	15.104	1001.625	765.905
93.899	15.096	1000.775	765.147
94.914	15.121	1000.220	764.771
95.928	15.228	999.049	764.296
96.943	15.153	998.052	763.123
97.957	15.078	997.291	762.133
98.972	14.992	996.736	761.250
99.987	15.113	995.501	760.790
101.001	15.037	994.394	759.532
102.016	14.929	993.709	758.453
103.030	15.077	992.755	758.325
104.045	15.155	991.935	757.986
105.060	15.018	991.384	756.876
106.074	14.919	990.198	755.459
107.089	14.841	989.159	754.248
108.103	14.697	988.283	752.861
109.118	14.700	987.691	752.360
110.133	14.638	986.711	751.265
111.147	14.738	985.829	750.981
112.162	14.852	985.067	750.843
113.176	14.749	984.441	749.839
114.191	14.813	983.678	749.479
115.206	14.953	982.695	749.288
116.220	14.822	981.713	747.887
117.235	14.791	980.927	747.086
118.249	14.812	980.198	746.555
119.264	14.735	979.868	745.895
120.279	14.838	978.643	745.358
121.293	14.657	977.600	743.691
122.308	14.693	977.069	743.382
123.322	14.770	975.749	742.651
124.337	14.681	975.051	741.662
125.352	14.633	973.785	740.419
126.366	14.728	972.889	740.096
127.381	14.676	971.754	738.933
128.395	14.704	971.069	738.474
129.410	14.782	969.937	737.890
130.424	14.655	969.666	737.059
131.439	14.895	968.506	737.169
132.454	14.929	967.820	736.733
133.468	14.860	967.126	735.834
134.483	14.967	966.282	735.600
135.497	14.920	965.330	734.603
136.512	14.902	964.669	733.954
137.527	15.001	963.655	733.551
138.541	14.855	963.309	732.584
139.556	14.914	962.610	732.245
140.570	15.074	961.628	732.135
141.585	15.219	960.645	731.956
142.600	15.216	959.907	731.314
143.614	15.253	959.360	730.993
144.629	15.333	958.539	730.652
145.643	15.216	957.633	729.387
146.658	15.053	956.865	728.030
147.673	15.081	955.486	727.037
148.687	14.986	954.725	725.983
149.702	14.831	953.894	724.614
150.716	14.885	953.518	724.500
151.731	14.963	952.456	723.966
152.746	14.902	952.132	723.390
153.760	15.025	951.450	723.339
154.775	14.996	951.125	722.904
155.789	15.205	949.940	722.842
156.804	15.046	949.506	721.762
157.819	15.166	948.532	721.471
158.833	15.152	948.254	721.136
159.848	15.267	947.416	720.930
160.862	15.187	946.224	719.618
161.877	15.164	945.178	718.659
162.892	15.095	944.143	717.513
163.906	15.046	943.123	716.465
164.921	14.831	942.783	715.224
165.935	15.091	941.792	715.520
166.950	15.094	941.058	714.909
167.964	15.184	940.013	714.439
168.979	15.079	939.549	713.572
169.994	15.178	938.632	713.235
171.008	15.041	938.244	712.295
172.023	15.285	937.087	712.390
173.037	15.341	936.350	712.007
174.052	15.334	935.458	711.233
175.067	15.112	935.238	710.064
176.081	15.189	933.940	709.341
177.096	15.096	933.382	708.462
178.110	15.202	933.046	708.592
179.125	15.244	932.224	708.083
180.140	15.137	932.036	707.425
181.154	15.314	931.591	707.772
182.169	15.316	931.284	707.485
183.183	15.329	930.670	707.010
184.198	15.401	929.561	706.407
185.213	15.319	929.021	705.590
186.227	15.440	928.347	705.522
187.242	15.389	927.764	704.805
188.256	15.554	926.953	704.818
189.271	15.484	926.627	704.214
190.286	15.383	925.307	702.727
191.300	15.208	924.388	701.232
192.315	15.078	923.982	700.321
193.329	15.079	923.438	699.850
194.344	15.276	923.204	700.435
195.359	15.236	922.564	699.719
196.373	15.451	921.923	700.067
197.388	15.395	921.850	699.716
198.402	15.547	921.212	699.804
199.417	15.727	920.122	699.661
200.432	15.636	920.077	699.189
201.446	15.697	919.822	699.185
202.461	16.006	918.466	699.375
203.475	15.757	918.422	698.248
204.490	15.631	917.311	696.820
205.504	15.638	916.538	696.198
206.519	15.565	915.808	695.280
207.534	15.577	915.365	694.933
208.548	15.611	914.464	694.327
209.563	15.558	913.947	693.654
210.577	15.681	913.293	693.604
211.592	15.769	912.553	693.344
212.607	15.875	911.976	693.282
213.621	15.864	911.123	692.525
214.636	15.852	910.493	691.937
215.650	16.011	909.370	691.676
216.665	15.842	909.097	690.712
217.680	16.019	908.183	690.682
218.694	15.870	907.927	689.815
219.709	15.900	907.052	689.212
220.723	15.971	906.221	688.809
221.738	15.827	905.890	687.910
222.753	15.938	905.217	687.789
223.767	16.048	904.330	687.506
224.782	15.997	904.364	687.260
225.796	16.144	903.509	687.149
226.811	16.028	902.838	686.105
227.826	15.835	901.936	684.577
228.840	16.096	901.097	684.937
229.855	16.026	900.421	684.079
230.869	15.980	899.712	683.295
231.884	15.821	899.178	682.183
232.899	15.893	898.437	681.853
233.913	15.855	897.677	681.060
234.928	15.881	897.020	680.608
235.942	15.876	896.238	679.935
236.957	15.842	895.966	679.532
237.972	15.880	895.466	679.243
238.986	15.934	894.488	678.660
240.001	15.897	894.141	678.187
241.015	15.950	893.646	677.966
242.030	15.978	893.337	677.783
243.045	16.170	892.172	677.612
244.059	16.118	891.665	676.959
245.074	16.097	891.012	676.318
246.088	16.259	890.392	676.435
247.103	16.066	890.026	675.324
248.117	16.282	889.384	675.643
249.132	16.390	889.046	675.757
250.147	16.630	888.359	676.138
251.161	16.466	888.090	675.217
252.176	16.548	887.443	674.991
253.190	16.582	886.765	674.550
254.205	16.573	886.003	673.876
255.220	16.597	885.230	673.323
256.234	16.579	884.815	672.876
257.249	16.630	884.101	672.480
258.263	16.634	883.351	671.865
259.278	16.678	882.253	671.146
260.293	16.667	882.121	670.942
261.307	16.715	881.466	670.575
262.322	16.727	880.569	669.880
263.336	16.756	879.930	669.447
264.351	16.803	879.331	669.118
265.366	16.833	878.697	668.694
266.380	16.844	878.259	668.346
267.395	16.789	877.512	667.500
268.409	16.672	876.418	666.150
269.424	16.656	875.984	665.700
270.439	16.737	874.868	665.110
271.453	16.652	874.449	664.399
272.468	16.694	874.300	664.393
273.482	16.707	873.535	663.801
274.497	16.713	872.710	663.139
275.512	16.769	872.341	663.022
276.526	16.767	872.229	662.867
277.541	16.730	871.337	661.988
278.555	16.648	871.275	661.561
279.570	17.024	870.131	662.100
280.585	16.971	869.143	661.084
281.599	16.834	868.397	659.926
282.614	16.684	868.108	659.063
283.628	16.833	867.292	658.964
284.643	16.933	866.859	658.967
285.657	16.842	866.460	658.251
286.672	16.994	865.453	658.018
287.687	16.878	864.940	657.119
288.701	16.848	864.941	656.947
289.716	16.946	863.856	656.442
290.730	17.086	863.037	656.305
291.745	17.091	862.399	655.782
292.760	17.066	861.738	655.123
293.774	17.173	861.157	655.037
294.789	17.004	860.746	654.015
295.803	16.993	860.021	653.363
296.818	16.963	859.372	652.695
297.833	16.893	858.484	651.695
298.847	17.025	858.128	651.876
299.862	17.081	857.656	651.675
300.876	17.135	857.182	651.463
301.891	17.162	856.485	650.979
302.906	17.220	855.863	650.672
303.920	17.355	855.387	650.767
304.935	17.438	854.641	650.461
305.949	17.387	854.109	649.803
306.964	17.338	853.557	649.137
307.979	17.328	853.350	648.883
308.993	17.407	852.563	648.531
310.008	17.553	851.764	648.422
311.022	17.379	851.506	647.504
312.037	17.328	850.623	646.582
313.052	17.169	849.957	645.416
314.066	17.162	849.653	645.100
315.081	17.279	848.713	644.774
316.095	17.315	848.057	644.356
317.110	17.266	847.471	643.667
318.125	17.325	847.206	643.633
319.139	17.241	846.605	642.799
320.154	17.291	846.382	642.764
321.168	17.278	845.804	642.216
322.183	17.302	845.323	641.885
323.197	17.252	845.036	641.424
324.212	17.332	844.252	641.074
325.227	17.417	843.669	640.895
326.241	17.325	842.966	639.958
327.256	17.371	842.270	639.546
328.270	17.294	841.987	638.983
329.285	17.316	841.355	638.529
330.300	17.258	840.557	637.649
331.314	17.356	840.273	637.748
332.329	17.389	840.069	637.657
333.343	17.437	839.076	637.028
334.358	17.444	839.088	637.006
335.373	17.620	838.661	637.286
336.387	17.678	838.566	637.373
337.402	17.608	838.119	636.717
338.416	17.711	837.542	636.605
339.431	17.761	837.546	636.738
340.446	17.768	837.249	636.484
341.460	17.899	836.332	636.219
342.475	17.842	836.079	635.756
343.489	17.839	835.917	635.566
344.504	17.862	835.338	635.157
345.519	18.027	834.739	635.258
346.533	17.962	834.086	634.460
347.548	17.690	833.881	633.241
348.562	17.782	833.142	632.964
349.577	17.757	832.411	632.259
350.592	17.716	831.954	631.704
351.606	17.695	831.043	630.882
352.621	17.688	830.334	630.260
353.635	17.620	830.042	629.730
354.650	17.770	829.282	629.652
355.665	17.807	828.591	629.209
356.679	17.974	828.059	629.364
357.694	17.917	827.548	628.712
358.708	17.804	826.946	627.781
359.723	17.775	826.564	627.330
360.738	17.869	826.017	627.205
361.752	17.951	825.409	626.989
362.767	18.030	824.970	626.890
363.781	18.149	824.301	626.762
364.796	18.229	823.946	626.730
365.810	18.257	823.461	626.407
366.825	18.174	823.236	625.878
367.840	18.403	822.295	625.942
368.854	18.233	822.028	625.063
369.869	18.223	821.303	624.421
370.883	18.208	821.018	624.094
371.898	18.431	820.622	624.549
372.913	18.309	820.651	624.072
373.927	18.202	820.146	623.243
374.942	18.359	819.350	623.154
375.956	18.336	819.121	622.840
376.971	18.415	819.038	623.010
377.986	18.416	818.380	622.460
379.000	18.417	817.644	621.848
380.015	18.532	816.992	621.715
381.029	18.443	816.600	621.038
382.044	18.468	816.003	620.619
383.059	18.510	815.497	620.333
384.073	18.423	814.957	619.553
385.088	18.361	814.225	618.716
386.102	18.340	813.300	617.883
387.117	18.452	812.666	617.752
388.132	18.313	812.367	616.968
389.146	18.494	812.113	617.373
390.161	18.387	811.783	616.681
391.175	18.455	811.306	616.509
392.190	18.398	810.734	615.815
393.205	18.495	809.952	615.514
394.219	18.466	809.860	615.285
395.234	18.450	809.328	614.771
396.248	18.219	809.126	613.734
397.263	18.171	808.640	613.140
398.278	18.405	808.044	613.472
399.292	18.379	807.423	612.852
400.307	18.452	807.107	612.820
401.321	18.419	806.879	612.475
402.336	18.412	806.405	612.034
403.350	18.464	806.080	611.918
404.365	18.647	805.060	611.745
405.380	18.744	804.952	611.954
406.394	18.787	804.439	611.663
407.409	18.777	804.187	611.382
408.423	18.815	803.944	611.277
409.438	18.785	803.385	610.690
410.453	18.894	802.854	610.622
411.467	18.978	802.432	610.545
412.482	19.245	801.845	610.989
413.496	18.948	801.917	609.936
414.511	18.916	801.394	609.372
415.526	19.063	800.931	609.487
416.540	19.010	800.258	608.733
417.555	18.941	799.757	608.056
418.569	19.034	799.255	607.947
419.584	19.088	798.879	607.800
420.599	18.983	798.682	607.224
421.613	155.659	1370.918	1790.923
422.628	134.895	1454.274	1791.017
