DTS Sentinel unit serial number:	SN413079Multiplexer serial number:	ORYXHardware model number:	OX4-SRSoftware version number:	ORYX F/W v4.00 Oryx Data Collector v3.7.2.0data status	okinstallation	princeton_trtdifferential loss correction	single-endedforward channel	channel 1reverse channel	N/Adate	2019/09/19time	08:02:35forward acquisition time	60.00reverse acquisition time	0.00gamma	496.2192k internal	0.2342k external	0.2342temperature offset calibration	1.0008default loss term (dB/km)	0.3790temperature slope calibration	1.0000multiplexer offset coefficient	1.0000multiplexer slope coefficient	1.0000fibre end	0.00T internal ref (°C)	19.92T ext. ref 1 (°C)	0.55T ext. ref 2 (°C)	15.51length (m)	temperature (°C)	Stokes	anti-Stokes-747.200	21.964	0.182	-0.148
-746.185	-126.266	-0.054	0.008
-745.171	-200.000	-0.024	-0.230
-744.156	800.000	0.056	-0.157
-743.142	448.739	0.054	-0.120
-742.127	691.728	0.022	0.057
-741.112	-200.000	-0.004	0.078
-740.098	-159.338	0.339	0.019
-739.083	190.639	-0.127	0.191
-738.069	6.043	-0.253	0.187
-737.054	800.000	-0.114	-0.499
-736.039	-200.000	0.040	-0.246
-735.025	52.586	-0.280	0.267
-734.010	-24.471	-0.320	-0.191
-732.996	-200.000	-0.002	-0.137
-731.981	800.000	-0.117	-0.438
-730.966	-47.314	-0.134	0.065
-729.952	107.978	-0.028	0.033
-728.937	-172.589	-0.365	0.012
-727.923	-107.463	0.260	0.057
-726.908	188.419	-0.233	0.349
-725.894	-45.810	-0.227	0.112
-724.879	-73.160	-0.109	0.040
-723.864	616.940	-0.138	-0.347
-722.850	492.251	0.132	-0.302
-721.835	-200.000	0.020	-0.384
-720.821	89.272	-0.175	-0.195
-719.806	698.023	-0.024	-0.063
-718.791	157.278	0.193	-0.268
-717.777	-200.000	-0.050	-0.238
-716.762	93.896	-0.079	-0.090
-715.748	-157.538	-0.221	-0.013
-714.733	108.028	0.102	-0.122
-713.718	800.000	0.042	-0.131
-712.704	-63.829	-0.253	-0.104
-711.689	-200.000	-0.006	-0.092
-710.675	-7.548	-0.218	-0.147
-709.660	-200.000	0.015	0.292
-708.645	-86.794	0.140	0.043
-707.631	-94.541	-0.284	0.077
-706.616	800.000	0.063	-0.272
-705.602	-18.309	-0.082	0.052
-704.587	-27.415	-0.171	-0.100
-703.572	322.041	0.240	0.456
-702.558	-200.000	-0.014	-0.219
-701.543	140.894	0.181	-0.239
-700.529	-200.000	-0.084	0.488
-699.514	-200.000	0.008	0.134
-698.499	289.030	-0.009	-0.016
-697.485	-46.344	0.312	0.153
-696.470	-50.519	-0.247	0.117
-695.456	493.244	-0.096	-0.219
-694.441	-118.451	-0.076	0.013
-693.426	-20.884	0.239	-0.147
-692.412	-128.400	0.543	-0.077
-691.397	-53.394	0.184	0.084
-690.383	-28.713	0.120	-0.069
-689.368	800.000	0.132	-0.402
-688.354	-104.922	-0.342	-0.078
-687.339	-80.812	0.331	-0.110
-686.324	-103.314	0.194	-0.046
-685.310	-146.797	0.122	0.011
-684.295	-93.247	0.244	0.068
-683.281	616.229	-0.204	-0.511
-682.266	-200.000	0.028	-0.248
-681.251	-200.000	-0.008	-0.135
-680.237	-29.579	0.026	-0.015
-679.222	800.000	-0.096	0.354
-678.208	534.710	0.064	-0.151
-677.193	458.247	-0.148	-0.329
-676.178	97.778	-0.128	-0.147
-675.164	-111.083	-0.175	-0.036
-674.149	96.430	0.112	-0.128
-673.135	392.907	0.187	-0.388
-672.120	-125.152	-0.103	-0.016
-671.105	-144.174	0.267	-0.025
-670.091	403.496	-0.159	-0.335
-669.076	-4.820	0.301	-0.207
-668.062	-200.000	-0.005	-0.157
-667.047	-200.000	-0.024	-0.112
-666.032	93.834	-0.243	0.275
-665.018	-69.942	-0.192	-0.073
-664.003	-200.000	-0.010	-0.262
-662.989	32.290	-0.116	-0.100
-661.974	248.099	0.119	0.201
-660.959	-180.775	0.249	-0.005
-659.945	-200.000	-0.007	-0.128
-658.930	-200.000	0.002	-0.193
-657.916	437.415	0.059	0.128
-656.901	409.779	-0.035	0.074
-655.886	-200.000	0.031	-0.227
-654.872	800.000	0.085	-0.243
-653.857	800.000	-0.114	0.419
-652.843	-69.805	0.089	-0.034
-651.828	-129.354	-0.179	-0.025
-650.814	99.184	0.038	0.044
-649.799	735.288	0.036	0.095
-648.784	191.035	-0.075	0.112
-647.770	18.284	0.342	0.273
-646.755	181.342	0.031	0.046
-645.741	72.481	0.093	-0.096
-644.726	-200.000	0.012	-0.368
-643.711	35.473	0.320	0.280
-642.697	399.391	-0.129	-0.270
-641.682	69.396	0.084	-0.086
-640.668	-131.341	-0.180	-0.024
-639.653	-84.336	0.075	-0.024
-638.638	275.471	-0.096	-0.170
-637.624	25.235	0.070	-0.058
-636.609	269.355	0.155	-0.272
-635.595	800.000	0.010	0.043
-634.580	-19.036	-0.126	-0.078
-633.565	194.855	-0.142	0.215
-632.551	-75.037	-0.550	0.196
-631.536	-33.852	0.112	-0.062
-630.522	-19.774	-0.078	0.048
-629.507	-59.931	-0.548	-0.233
-628.492	-14.139	0.185	0.119
-627.478	800.000	0.070	-0.292
-626.463	800.000	0.064	-0.228
-625.449	800.000	0.041	0.149
-624.434	-200.000	-0.051	0.433
-623.419	61.671	0.055	-0.054
-622.405	51.072	-0.109	0.103
-621.390	384.392	-0.056	0.115
-620.376	96.635	0.072	-0.083
-619.361	-40.044	-0.224	-0.116
-618.346	800.000	0.094	0.324
-617.332	-200.000	0.007	0.301
-616.317	-138.538	0.373	-0.041
-615.303	-200.000	0.031	0.281
-614.288	-120.657	0.168	-0.028
-613.273	-200.000	0.006	0.172
-612.259	14.955	0.067	0.052
-611.244	-59.274	0.255	0.109
-610.230	150.730	-0.102	-0.138
-609.215	145.545	0.201	-0.268
-608.201	39.030	-0.074	-0.066
-607.186	116.367	-0.164	-0.200
-606.171	-200.000	-0.003	0.033
-605.157	-153.204	-0.129	0.009
-604.142	181.745	0.226	0.332
-603.128	-38.688	-0.139	0.073
-602.113	-200.000	0.058	0.282
-601.098	81.966	-0.146	0.158
-600.084	-15.202	0.059	-0.038
-599.069	-200.000	0.022	-0.152
-598.055	544.699	0.078	0.185
-597.040	308.979	-0.165	-0.307
-596.025	5.394	0.127	-0.093
-595.011	-43.059	-0.126	0.063
-593.996	94.085	-0.097	0.110
-592.982	99.432	0.166	0.191
-591.967	-132.391	0.151	0.019
-590.952	800.000	-0.034	-0.127
-589.938	-73.197	0.105	0.038
-588.923	-189.208	-0.170	0.002
-587.909	-59.397	0.169	0.072
-586.894	120.273	-0.144	-0.177
-585.879	-200.000	-0.004	-0.073
-584.865	567.410	0.111	-0.269
-583.850	351.046	-0.062	0.123
-582.836	-167.928	-0.207	0.008
-581.821	-200.000	-0.009	-0.368
-580.806	188.248	-0.078	-0.116
-579.792	595.379	0.050	0.123
-578.777	-28.265	-0.263	-0.151
-577.763	800.000	0.020	0.070
-576.748	24.265	-0.234	-0.192
-575.733	55.365	0.064	-0.062
-574.719	241.318	-0.049	-0.082
-573.704	-83.576	0.211	0.067
-572.690	-23.110	0.270	-0.162
-571.675	27.095	0.210	-0.175
-570.661	57.825	-0.029	-0.028
-569.646	-141.239	0.324	-0.033
-568.631	-47.999	-0.120	-0.058
-567.617	-200.000	-0.009	0.108
-566.602	20.663	0.105	0.085
-565.588	-68.048	-0.108	-0.042
-564.573	102.700	-0.014	-0.017
-563.558	-92.992	-0.100	0.028
-562.544	-200.000	-0.005	0.033
-561.529	-56.933	0.037	-0.016
-560.515	-200.000	0.008	-0.095
-559.500	-200.000	-0.036	-0.300
-558.485	-19.843	-0.121	-0.074
-557.471	503.251	0.138	0.317
-556.456	439.918	0.140	0.305
-555.442	607.441	0.007	0.018
-554.427	-10.652	-0.191	-0.125
-553.412	694.337	0.072	-0.188
-552.398	-9.368	-0.304	0.202
-551.383	800.000	-0.099	-0.414
-550.369	-200.000	0.037	-0.209
-549.354	-173.615	0.365	-0.011
-548.339	-200.000	0.017	0.149
-547.325	202.342	0.075	0.116
-546.310	29.231	0.017	0.014
-545.296	-87.827	-0.334	-0.100
-544.281	264.263	-0.114	-0.197
-543.266	-65.786	-0.194	-0.077
-542.252	800.000	-0.049	-0.145
-541.237	-40.342	-0.122	-0.063
-540.223	132.571	0.225	0.289
-539.208	217.159	0.298	0.472
-538.193	800.000	-0.103	-0.295
-537.179	-19.818	0.287	-0.176
-536.164	-7.265	0.254	0.171
-535.150	74.961	-0.189	0.198
-534.135	-200.000	-0.039	0.194
-533.121	-91.313	-0.241	0.068
-532.106	392.207	0.096	0.198
-531.091	571.949	0.101	-0.245
-530.077	800.000	-0.081	-0.320
-529.062	118.551	0.243	-0.298
-528.048	-12.844	0.090	0.058
-527.033	-103.708	-0.098	-0.023
-526.018	63.627	0.145	-0.145
-525.004	-144.046	0.354	0.033
-523.989	-97.500	-0.205	-0.053
-522.975	-35.102	-0.225	-0.122
-521.960	800.000	-0.143	0.415
-520.945	-8.406	0.122	0.081
-519.931	-48.968	-0.084	-0.040
-518.916	-15.482	-0.286	0.181
-517.902	442.012	0.128	-0.279
-516.887	39.156	0.022	0.019
-515.872	293.009	-0.038	0.068
-514.858	7.010	-0.271	0.200
-513.843	371.208	0.074	0.149
-512.829	23.606	0.257	-0.210
-511.814	1.752	-0.239	0.171
-510.799	-52.631	-0.017	-0.008
-509.785	-72.651	-0.039	-0.014
-508.770	641.442	0.038	-0.097
-507.756	-68.008	0.242	0.094
-506.741	-200.000	0.011	-0.051
-505.726	600.911	0.111	0.272
-504.712	800.000	0.078	-0.270
-503.697	90.102	-0.309	-0.342
-502.683	800.000	0.013	0.045
-501.668	-73.777	0.121	0.044
-500.653	-97.032	0.105	0.027
-499.639	-200.000	0.003	-0.112
-498.624	4.946	0.153	-0.112
-497.610	-84.126	-0.075	-0.024
-496.595	37.973	0.157	-0.139
-495.581	146.153	0.185	-0.246
-494.566	90.649	-0.052	0.058
-493.551	-200.000	0.001	-0.023
-492.537	-200.000	-0.001	-0.020
-491.522	-150.135	0.146	-0.011
-490.508	328.834	-0.078	-0.149
-489.493	-168.100	0.306	0.012
-488.478	-200.000	-0.005	-0.121
-487.464	-8.360	-0.183	-0.122
-486.449	190.863	0.121	-0.180
-485.435	1.102	-0.128	0.091
-484.420	-150.970	0.292	0.022
-483.405	-76.801	-0.271	-0.094
-482.391	-93.211	-0.258	-0.071
-481.376	27.480	-0.091	0.076
-480.362	77.804	-0.401	0.423
-479.347	-63.324	0.109	-0.045
-478.332	368.434	0.021	0.042
-477.318	-110.935	-0.346	0.070
-476.303	197.702	0.108	0.164
-475.289	9.657	0.060	0.045
-474.274	800.000	0.087	0.251
-473.259	-200.000	0.021	-0.125
-472.245	88.955	-0.165	-0.182
-471.230	-8.217	-0.097	0.065
-470.216	800.000	-0.051	-0.159
-469.201	-200.000	-0.025	-0.141
-468.186	-32.302	-0.253	0.140
-467.172	-142.477	0.182	-0.018
-466.157	-200.000	-0.002	0.172
-465.143	-200.000	-0.011	-0.226
-464.128	-200.000	0.037	-0.245
-463.113	-123.980	-0.234	-0.036
-462.099	106.175	0.253	0.296
-461.084	800.000	0.034	0.102
-460.070	465.384	0.047	-0.104
-459.055	140.485	-0.029	0.038
-458.040	88.866	0.131	-0.144
-457.026	126.613	0.141	0.177
-456.011	44.577	0.149	0.136
-454.997	-200.000	-0.008	-0.302
-453.982	54.206	-0.082	0.078
-452.968	-67.857	-0.378	-0.146
-451.953	16.196	-0.098	0.076
-450.938	-2.622	-0.057	-0.039
-449.924	160.796	-0.043	0.060
-448.909	35.216	0.050	-0.044
-447.895	-200.000	-0.047	0.260
-446.880	151.864	0.091	0.123
-445.865	-200.000	0.043	0.249
-444.851	10.471	0.299	-0.225
-443.836	36.477	0.304	-0.266
-442.822	-110.590	0.274	-0.056
-441.807	-200.000	-0.005	-0.232
-440.792	67.974	-0.351	0.355
-439.778	-134.452	-0.134	0.016
-438.763	556.469	-0.039	0.094
-437.749	300.498	-0.132	0.241
-436.734	68.917	-0.241	-0.245
-435.719	-148.838	0.351	-0.028
-434.705	-200.000	0.062	0.356
-433.690	-148.317	0.170	0.014
-432.676	-81.727	0.078	-0.025
-431.661	-153.670	0.220	0.015
-430.646	200.612	-0.148	-0.225
-429.632	-39.466	-0.425	-0.221
-428.617	-51.311	-0.380	0.176
-427.603	287.711	-0.029	-0.051
-426.588	-74.207	0.291	-0.104
-425.573	800.000	-0.061	0.199
-424.559	-200.000	-0.002	-0.013
-423.544	54.211	-0.120	-0.114
-422.530	-118.717	-0.368	-0.064
-421.515	243.789	0.115	-0.191
-420.500	-200.000	0.042	0.255
-419.486	-60.812	-0.288	-0.121
-418.471	-91.071	0.085	-0.024
-417.457	22.609	-0.165	-0.134
-416.442	394.350	-0.126	-0.260
-415.428	311.781	0.066	0.122
-414.413	369.602	-0.235	-0.471
-413.398	68.482	-0.078	-0.079
-412.384	-1.200	-0.174	-0.121
-411.369	-41.358	-0.099	-0.050
-410.355	-9.484	-0.091	-0.060
-409.340	315.899	-0.142	0.265
-408.325	-180.700	0.158	-0.003
-407.311	641.581	-0.058	-0.146
-406.296	63.856	0.200	-0.199
-405.282	26.906	-0.258	0.214
-404.267	-64.211	0.082	-0.033
-403.252	-180.399	0.138	-0.003
-402.238	-200.000	-0.006	0.350
-401.223	174.836	-0.161	-0.230
-400.209	800.000	0.097	-0.395
-399.194	179.524	-0.102	-0.148
-398.179	-182.955	-0.088	0.002
-397.165	800.000	-0.042	-0.166
-396.150	800.000	0.053	-0.174
-395.136	-4.356	-0.130	0.089
-394.121	102.438	-0.156	0.180
-393.106	95.201	-0.123	-0.139
-392.092	-181.379	0.111	0.002
-391.077	106.942	-0.260	0.305
-390.063	420.685	0.149	0.316
-389.048	170.592	-0.197	-0.279
-388.033	-154.481	0.208	-0.014
-387.019	800.000	0.017	0.063
-386.004	-200.000	0.050	-0.286
-384.990	370.718	-0.150	-0.301
-383.975	535.241	0.067	0.156
-382.960	756.972	-0.012	-0.032
-381.946	800.000	0.090	0.289
-380.931	-200.000	-0.005	0.102
-379.917	-104.203	-0.111	-0.025
-378.902	54.178	-0.101	0.096
-377.888	411.677	0.035	-0.074
-376.873	-46.334	-0.069	-0.033
-375.858	53.110	0.181	-0.171
-374.844	148.129	-0.102	0.136
-373.829	-60.195	-0.196	0.082
-372.815	-77.395	0.153	0.053
-371.800	-129.849	0.291	0.039
-370.785	765.672	0.004	0.012
-369.771	800.000	-0.062	0.236
-368.756	-104.277	0.145	-0.033
-367.742	269.553	0.165	0.286
-366.727	95.930	0.168	0.189
-365.712	800.000	0.080	-0.335
-364.698	-73.563	0.064	-0.023
-363.683	800.000	-0.032	0.112
-362.669	168.490	0.188	-0.264
-361.654	800.000	0.014	-0.060
-360.639	800.000	0.040	-0.146
-359.625	57.108	-0.111	-0.107
-358.610	-58.039	0.043	0.019
-357.596	102.291	0.250	-0.288
-356.581	800.000	-0.069	0.209
-355.566	184.387	-0.063	0.093
-354.552	-56.593	0.107	0.047
-353.537	-150.595	-0.364	-0.027
-352.523	800.000	-0.033	0.102
-351.508	-76.161	0.551	-0.192
-350.493	-200.000	-0.018	0.100
-349.479	138.375	0.190	0.247
-348.464	-15.461	0.307	0.194
-347.450	-72.753	0.359	0.130
-346.435	-200.000	-0.005	-0.066
-345.420	570.083	0.147	0.354
-344.406	-200.000	0.008	0.036
-343.391	38.294	-0.154	-0.135
-342.377	-200.000	-0.007	-0.066
-341.362	52.994	0.065	-0.062
-340.348	94.743	0.090	0.101
-339.333	-15.262	-0.162	-0.102
-338.318	231.727	-0.142	-0.230
-337.304	-105.130	0.073	0.016
-336.289	-98.100	0.072	-0.018
-335.275	197.043	0.197	0.296
-334.260	-47.410	-0.054	0.026
-333.245	214.717	-0.100	0.156
-332.231	-114.158	-0.217	0.041
-331.216	-38.622	0.154	0.080
-330.202	-200.000	0.001	0.016
-329.187	-123.371	-0.306	0.048
-328.172	800.000	-0.025	0.102
-327.158	-32.795	0.139	-0.076
-326.143	259.194	-0.016	0.027
-325.129	69.202	-0.054	-0.055
-324.114	-89.585	0.255	0.074
-323.099	172.925	-0.053	0.076
-322.085	-200.000	-0.099	0.464
-321.070	159.722	-0.181	0.248
-320.056	-143.403	-0.094	0.009
-319.041	800.000	0.030	0.084
-318.026	-107.146	0.268	0.058
-317.012	-97.017	-0.057	0.015
-315.997	325.683	0.117	-0.221
-314.983	800.000	-0.117	0.453
-313.968	-42.799	-0.246	0.123
-312.953	242.231	-0.041	-0.068
-311.939	196.913	-0.109	0.163
-310.924	-87.851	-0.079	-0.024
-309.910	-178.423	-0.130	-0.003
-308.895	33.358	-0.249	0.213
-307.880	-16.601	-0.133	0.083
-306.866	98.699	-0.052	0.059
-305.851	259.338	-0.153	-0.260
-304.837	605.537	-0.101	-0.247
-303.822	432.780	-0.120	0.257
-302.807	134.057	-0.212	0.270
-301.793	-177.681	-0.217	0.005
-300.778	36.169	0.172	0.149
-299.764	73.324	-0.140	-0.144
-298.749	74.637	0.151	0.157
-297.735	194.070	-0.148	0.221
-296.720	123.712	0.162	-0.200
-295.705	-18.311	0.297	0.183
-294.691	-90.164	-0.213	0.061
-293.676	-154.765	-0.296	-0.019
-292.662	-70.437	0.194	0.072
-291.647	36.623	-0.495	-0.430
-290.632	-166.381	0.455	-0.019
-289.618	-82.239	0.241	0.077
-288.603	-150.942	-0.543	-0.040
-287.589	16.618	0.038	0.029
-286.574	297.820	0.086	0.155
-285.559	423.014	0.123	-0.259
-284.545	-200.000	0.025	-0.270
-283.530	-24.086	-0.066	-0.039
-282.516	-51.881	-0.147	0.067
-281.501	800.000	-0.104	-0.352
-280.486	-200.000	-0.080	-0.449
-279.472	394.372	0.161	0.331
-278.457	800.000	0.027	0.084
-277.443	-65.711	-0.200	0.079
-276.428	-7.089	-0.260	0.174
-275.413	800.000	-0.032	-0.117
-274.399	-200.000	0.001	0.014
-273.384	129.393	0.102	-0.128
-272.370	-0.622	-0.108	0.075
-271.355	508.763	0.102	-0.234
-270.340	75.386	-0.174	0.180
-269.326	143.087	0.130	0.170
-268.311	34.747	-0.079	0.068
-267.297	296.949	-0.060	0.108
-266.282	-125.043	-0.176	-0.027
-265.267	92.410	-0.137	-0.152
-264.253	-200.000	0.028	0.209
-263.238	-200.000	0.006	0.298
-262.224	-127.303	0.159	0.023
-261.209	549.676	0.095	-0.224
-260.195	-200.000	0.006	-0.040
-259.180	-71.283	0.156	-0.057
-258.165	-118.069	-0.198	-0.035
-257.151	-179.743	-0.120	-0.003
-256.136	696.245	0.085	0.219
-255.122	-101.972	-0.264	0.063
-254.107	-84.902	0.207	-0.064
-253.092	-158.672	0.210	0.012
-252.078	53.171	0.093	0.087
-251.063	5.664	-0.277	0.201
-250.049	163.997	0.169	0.234
-249.034	800.000	0.085	0.231
-248.019	296.269	-0.095	0.170
-247.005	800.000	0.052	-0.174
-245.990	-89.900	0.079	0.023
-244.976	800.000	0.045	-0.130
-243.961	-22.538	-0.162	0.096
-242.946	-67.550	0.144	0.055
-241.932	-81.780	0.272	-0.087
-240.917	-141.553	0.340	0.034
-239.903	628.450	-0.030	0.074
-238.888	800.000	0.106	-0.409
-237.873	132.971	-0.107	-0.136
-236.859	-18.361	0.283	-0.174
-235.844	-49.753	-0.167	0.078
-234.830	-200.000	0.063	0.295
-233.815	-117.505	-0.247	-0.044
-232.800	800.000	0.050	-0.161
-231.786	268.321	0.163	0.280
-230.771	-200.000	0.008	-0.111
-229.757	-38.242	0.274	-0.143
-228.742	449.724	-0.130	-0.281
-227.727	-81.974	0.444	-0.142
-226.713	-200.000	0.031	-0.546
-225.698	-17.117	0.131	0.081
-224.684	11.987	0.154	0.116
-223.669	226.259	0.084	-0.133
-222.655	19.571	-0.282	-0.223
-221.640	65.705	0.073	-0.072
-220.625	436.298	0.099	-0.211
-219.611	147.994	-0.072	0.095
-218.596	-47.783	-0.372	-0.177
-217.582	800.000	0.130	-0.438
-216.567	-43.719	0.137	0.068
-215.552	-140.600	0.329	-0.033
-214.538	175.982	0.109	0.156
-213.523	77.062	0.148	0.154
-212.509	252.681	0.315	0.527
-211.494	800.000	-0.047	0.181
-210.479	727.508	-0.175	-0.459
-209.465	-200.000	0.008	0.195
-208.450	-200.000	0.000	-0.119
-207.436	347.680	-0.063	-0.122
-206.421	-200.000	-0.018	0.298
-205.406	-188.225	-0.280	-0.003
-204.392	299.669	-0.182	0.329
-203.377	-132.248	-0.164	-0.021
-202.363	346.054	0.011	0.022
-201.348	-200.000	-0.030	-0.204
-200.333	-135.754	-0.349	0.041
-199.319	-200.000	-0.021	0.251
-198.304	-200.000	-0.021	0.241
-197.290	-183.265	-0.263	0.005
-196.275	-200.000	0.071	-0.317
-195.260	800.000	-0.077	-0.272
-194.246	-200.000	-0.010	0.408
-193.231	8.075	0.306	-0.225
-192.217	-89.782	0.492	-0.141
-191.202	332.248	-0.118	-0.224
-190.187	57.152	0.152	-0.146
-189.173	121.496	0.158	-0.193
-188.158	-176.576	0.171	-0.004
-187.144	341.382	0.013	-0.024
-186.129	-27.353	-0.321	0.183
-185.114	-94.485	0.140	0.038
-184.100	-172.921	-0.318	-0.010
-183.085	-16.031	-0.164	0.102
-182.071	800.000	0.067	0.223
-181.056	-96.844	0.258	-0.066
-180.042	800.000	-0.035	0.119
-179.027	-200.000	-0.011	0.162
-178.012	-200.000	0.058	0.265
-176.998	-78.171	0.494	0.166
-175.983	800.000	0.126	-0.358
-174.969	800.000	-0.088	0.330
-173.954	-200.000	-0.010	-0.183
-172.939	-61.766	0.318	-0.131
-171.925	-46.832	-0.180	-0.086
-170.910	-31.830	0.286	0.157
-169.896	-128.089	-0.232	-0.033
-168.881	-91.584	0.273	-0.076
-167.866	-87.841	0.279	-0.082
-166.852	-200.000	-0.011	-0.340
-165.837	-200.000	-0.004	0.306
-164.823	-137.144	0.118	0.013
-163.808	-11.548	0.315	-0.203
-162.793	800.000	-0.151	-0.464
-161.779	800.000	-0.041	0.145
-160.764	-98.177	-0.212	-0.053
-159.750	36.611	-0.092	0.079
-158.735	-20.747	-0.174	-0.104
-157.720	-200.000	0.022	-0.268
-156.706	-200.000	-0.035	0.361
-155.691	800.000	-0.065	0.276
-154.677	-45.037	-0.274	0.134
-153.662	-200.000	0.028	0.135
-152.647	198.159	0.124	-0.185
-151.633	-200.000	-0.057	0.466
-150.618	37.024	0.195	-0.169
-149.604	-127.195	-0.293	-0.042
-148.589	48.095	0.239	-0.219
-147.574	51.147	-0.079	0.073
-146.560	-36.028	-0.178	0.094
-145.545	-151.712	-0.128	-0.009
-144.531	94.076	0.219	0.243
-143.516	689.845	0.115	-0.296
-142.502	-147.272	0.320	0.027
-141.487	44.788	-0.203	-0.183
-140.472	273.795	0.331	0.573
-139.458	98.552	-0.057	-0.064
-138.443	-19.401	0.192	0.116
-137.429	-179.785	0.226	-0.005
-136.414	-77.138	-0.308	-0.105
-135.399	-200.000	-0.057	-0.253
-134.385	266.768	0.063	0.109
-133.370	800.000	-0.089	0.274
-132.356	-200.000	0.043	0.280
-131.341	789.577	-0.082	-0.221
-130.326	64.113	-0.149	-0.146
-129.312	-45.871	0.163	-0.079
-128.297	55.352	-0.264	-0.250
-127.283	800.000	-0.051	-0.184
-126.268	800.000	0.052	0.141
-125.253	-200.000	-0.013	0.066
-124.239	434.516	-0.078	0.165
-123.224	96.027	-0.253	-0.283
-122.210	-200.000	-0.026	0.144
-121.195	-102.289	0.358	0.084
-120.180	-91.777	-0.296	-0.082
-119.166	-26.088	0.315	-0.181
-118.151	255.080	0.108	0.180
-117.137	80.783	0.079	0.083
-116.122	-108.199	-0.052	-0.011
-115.107	-151.851	-0.168	0.012
-114.093	-132.333	-0.139	-0.018
-113.078	535.873	-0.148	-0.343
-112.064	669.257	0.037	0.093
-111.049	-200.000	-0.025	-0.238
-110.034	-200.000	-0.022	0.177
-109.020	-77.162	-0.210	0.071
-108.005	800.000	0.001	0.003
-106.991	-154.595	-0.164	-0.011
-105.976	-98.521	-0.206	-0.051
-104.962	-121.538	-0.285	-0.046
-103.947	580.979	0.029	0.068
-102.932	-68.536	-0.098	-0.037
-101.918	-5.306	-0.100	0.067
-100.903	-14.284	0.177	-0.111
-99.889	-110.504	0.277	-0.056
-98.874	208.226	0.065	0.100
-97.859	-90.849	0.286	-0.081
-96.845	262.103	-0.146	0.247
-95.830	47.256	-0.149	-0.136
-94.816	176.001	0.143	-0.203
-93.801	629.772	0.055	-0.137
-92.786	37.778	-0.399	-0.346
-91.772	-200.000	-0.027	-0.127
-90.757	115.540	0.021	-0.025
-89.743	800.000	-0.066	0.204
-88.728	800.000	0.133	0.399
-87.713	152.142	0.065	0.087
-86.699	-2.732	0.288	0.197
-85.684	800.000	-0.050	0.138
-84.670	22.038	-0.200	0.159
-83.655	-33.693	0.241	0.130
-82.640	-111.939	0.152	-0.030
-81.626	-200.000	0.042	0.353
-80.611	28.566	-0.410	0.338
-79.597	-140.621	0.230	-0.023
-78.582	376.204	-0.080	-0.159
-77.567	-145.912	0.241	-0.021
-76.553	-50.966	0.244	0.112
-75.538	800.000	0.061	0.184
-74.524	31.774	-0.145	0.121
-73.509	-138.824	-0.358	-0.038
-72.494	-40.251	0.202	-0.103
-71.480	-42.257	0.106	-0.053
-70.465	74.415	-0.118	0.121
-69.451	-116.199	0.089	-0.016
-68.436	-200.000	0.045	0.247
-67.422	-200.000	0.016	0.111
-66.407	-111.035	0.174	-0.035
-65.392	800.000	-0.098	0.310
-64.378	-200.000	-0.018	0.207
-63.363	-45.560	-0.077	-0.037
-62.349	-200.000	-0.017	-0.301
-61.334	133.560	-1.029	-1.298
-60.319	49.596	0.996	0.914
-59.305	650.198	-0.630	-1.573
-58.290	306.710	0.870	1.580
-57.276	595.259	0.535	1.292
-56.261	-200.000	135.409	648.864
-55.246	331.611	1664.110	3129.534
-54.232	134.231	2798.566	3536.410
-53.217	84.094	2175.526	2317.025
-52.203	30.896	1604.886	1340.440
-51.188	23.074	1354.223	1083.326
-50.173	20.931	1318.419	1041.846
-49.159	47.873	1392.972	1268.165
-48.144	43.791	1401.524	1250.752
-47.130	23.113	1349.319	1079.472
-46.115	20.102	1330.511	1046.233
-45.100	19.921	1324.836	1040.639
-44.086	19.713	1323.160	1038.032
-43.071	19.784	1320.190	1036.088
-42.057	19.677	1318.717	1034.249
-41.042	19.795	1316.572	1033.232
-40.027	19.907	1314.945	1032.582
-39.013	19.873	1313.651	1031.325
-37.998	19.794	1311.682	1029.264
-36.984	19.865	1309.891	1028.243
-35.969	19.904	1307.844	1026.828
-34.954	19.920	1306.639	1025.933
-33.940	19.940	1305.368	1025.012
-32.925	20.047	1303.713	1024.307
-31.911	20.040	1301.872	1022.778
-30.896	20.045	1300.860	1021.969
-29.881	20.057	1299.627	1021.031
-28.867	20.091	1297.909	1019.845
-27.852	20.010	1297.131	1018.713
-26.838	20.030	1295.416	1017.445
-25.823	19.986	1294.100	1016.114
-24.809	19.965	1292.862	1014.974
-23.794	19.947	1291.814	1014.008
-22.779	20.019	1289.929	1012.911
-21.765	19.925	1289.598	1012.059
-20.750	19.985	1287.872	1011.018
-19.736	20.038	1286.049	1009.853
-18.721	19.926	1285.285	1008.559
-17.706	19.909	1284.061	1007.463
-16.692	19.894	1282.693	1006.259
-15.677	19.853	1281.599	1005.124
-14.663	19.839	1280.470	1004.115
-13.648	19.885	1278.987	1003.184
-12.633	19.922	1278.093	1002.657
-11.619	19.883	1277.749	1002.120
-10.604	19.897	1277.081	1001.634
-9.590	19.771	1276.510	1000.422
-8.575	19.777	1275.312	999.475
-7.560	19.886	1274.397	999.348
-6.546	19.846	1273.477	998.359
-5.531	19.780	1273.008	997.571
-4.517	19.856	1271.709	996.950
-3.502	19.912	1270.885	996.587
-2.487	19.792	1270.070	995.218
-1.473	19.784	1265.930	991.885
-0.458	18.610	1251.261	973.694
0.556	14.572	1236.486	940.168
1.571	11.350	1245.694	928.768
2.586	10.739	1261.537	936.976
3.600	10.922	1248.596	928.325
4.615	8.122	1176.921	859.875
5.629	3.102	1106.933	783.156
6.644	0.607	1091.410	759.566
7.659	0.518	1089.354	757.623
8.673	0.527	1088.397	756.935
9.688	0.548	1087.352	756.246
10.702	0.695	1084.613	755.010
11.717	3.818	1087.712	772.728
12.731	10.093	1096.271	810.270
13.746	15.114	1103.148	840.541
14.761	17.072	1104.708	851.487
15.775	16.509	1103.058	847.318
16.790	15.470	1101.413	840.781
17.804	14.824	1099.959	836.364
18.819	14.445	1098.471	833.266
19.834	14.282	1097.788	831.857
20.848	13.930	1097.282	829.644
21.863	13.758	1095.864	827.642
22.877	13.483	1095.770	826.125
23.892	13.585	1094.375	825.508
24.907	13.577	1093.941	825.065
25.921	13.588	1092.938	824.293
26.936	13.660	1091.661	823.616
27.950	13.594	1091.194	822.861
28.965	13.617	1089.715	821.787
29.980	13.782	1088.023	821.257
30.994	13.717	1087.317	820.327
32.009	13.758	1086.339	819.721
33.023	13.694	1085.622	818.793
34.038	13.824	1084.429	818.458
35.053	13.621	1083.516	816.696
36.067	13.648	1082.572	816.046
37.082	13.657	1081.541	815.240
38.096	13.732	1080.896	815.051
39.111	13.753	1080.185	814.546
40.126	13.718	1078.952	813.373
41.140	13.490	1078.007	811.471
42.155	13.608	1076.419	810.781
43.169	13.506	1075.475	809.501
44.184	13.548	1073.949	808.484
45.199	13.574	1073.003	807.830
46.213	13.485	1072.212	806.728
47.228	13.577	1071.507	806.574
48.242	13.700	1069.769	805.793
49.257	13.631	1068.908	804.736
50.271	13.669	1068.330	804.416
51.286	13.689	1067.576	803.873
52.301	13.750	1065.938	802.863
53.315	13.667	1064.944	801.645
54.330	13.584	1064.658	800.958
55.344	13.569	1063.221	799.733
56.359	13.643	1062.092	799.170
57.374	13.568	1061.761	798.489
58.388	13.586	1060.729	797.730
59.403	13.505	1060.259	796.912
60.417	13.515	1059.326	796.189
61.432	13.490	1058.112	795.088
62.447	13.601	1057.340	794.970
63.461	13.580	1056.357	794.058
64.476	13.487	1055.252	792.711
65.490	13.459	1054.809	792.176
66.505	13.522	1054.045	791.833
67.520	13.734	1052.786	791.831
68.534	13.533	1052.723	790.751
69.549	13.462	1052.265	789.999
70.563	13.544	1050.880	789.280
71.578	13.629	1050.026	788.974
72.593	13.452	1049.507	787.673
73.607	13.398	1048.856	786.857
74.622	13.418	1048.251	786.431
75.636	13.532	1047.598	786.410
76.651	13.493	1046.825	785.574
77.666	13.514	1046.472	785.339
78.680	13.547	1045.667	784.826
79.695	13.434	1045.013	783.729
80.709	13.426	1044.489	783.228
81.724	13.553	1043.571	783.072
82.739	13.623	1043.106	782.982
83.753	13.511	1042.112	781.639
84.768	13.747	1040.773	781.678
85.782	13.678	1040.028	780.724
86.797	13.632	1039.571	780.098
87.812	13.466	1039.004	778.821
88.826	13.612	1037.186	778.077
89.841	13.752	1036.204	777.924
90.855	13.792	1035.076	777.196
91.870	13.733	1034.522	776.437
92.884	13.742	1033.809	775.875
93.899	13.865	1032.704	775.550
94.914	13.863	1031.599	774.646
95.928	13.820	1031.342	774.179
96.943	13.804	1030.226	773.200
97.957	13.752	1029.466	772.318
98.972	13.696	1028.950	771.604
99.987	13.821	1027.690	771.173
101.001	13.628	1027.105	769.770
102.016	13.729	1025.661	769.088
103.030	13.795	1024.815	768.690
104.045	13.710	1024.396	767.914
105.060	13.700	1023.552	767.168
106.074	13.666	1022.911	766.460
107.089	13.761	1021.266	765.601
108.103	13.675	1020.703	764.711
109.118	13.550	1019.912	763.477
110.133	13.605	1018.791	762.825
111.147	13.689	1017.206	761.956
112.162	13.762	1017.016	762.080
113.176	13.713	1016.184	761.165
114.191	13.699	1015.294	760.368
115.206	13.674	1014.812	759.825
116.220	13.840	1013.621	759.623
117.235	13.749	1012.897	758.597
118.249	13.731	1011.972	757.756
119.264	13.758	1011.258	757.277
120.279	13.701	1010.297	756.230
121.293	13.671	1009.728	755.603
122.308	13.635	1008.793	754.670
123.322	13.696	1007.119	753.630
124.337	13.649	1006.661	753.007
125.352	13.589	1005.531	751.824
126.366	13.663	1004.209	751.102
127.381	13.611	1003.356	750.164
128.395	13.656	1002.500	749.660
129.410	13.667	1001.189	748.661
130.424	13.549	1001.114	748.010
131.439	13.732	999.668	747.689
132.454	13.752	998.512	746.848
133.468	13.741	997.842	746.231
134.483	13.598	997.697	745.411
135.497	13.777	996.171	745.009
136.512	13.728	995.112	743.931
137.527	13.675	995.007	743.548
138.541	13.769	993.887	743.067
139.556	13.740	993.041	742.240
140.570	13.818	992.438	742.071
141.585	13.807	991.814	741.489
142.600	13.807	990.479	740.427
143.614	13.893	989.568	740.062
144.629	13.878	988.688	739.273
145.643	13.948	987.930	738.953
146.658	13.878	986.601	737.580
147.673	13.801	986.215	736.888
148.687	13.756	985.515	736.098
149.702	13.856	984.078	735.405
150.716	13.928	983.522	735.243
151.731	13.900	982.641	734.393
152.746	13.881	981.726	733.561
153.760	13.864	981.634	733.352
154.775	13.974	980.763	733.122
155.789	13.979	980.270	732.710
156.804	14.112	979.221	732.448
157.819	14.041	978.457	731.499
158.833	13.979	978.247	731.007
159.848	14.022	976.892	730.117
160.862	14.047	976.117	729.585
161.877	14.060	974.766	728.567
162.892	14.008	973.892	727.619
163.906	13.859	973.240	726.418
164.921	14.046	972.307	726.474
165.935	13.931	971.815	725.538
166.950	14.001	970.581	724.860
167.964	14.122	969.714	724.673
168.979	14.004	968.676	723.322
169.994	13.937	967.928	722.408
171.008	14.077	967.670	722.761
172.023	14.152	966.328	722.017
173.037	14.185	965.465	721.453
174.052	14.013	965.361	720.567
175.067	14.156	964.591	720.548
176.081	14.106	963.618	719.540
177.096	14.147	963.271	719.392
178.110	14.131	962.663	718.809
179.125	14.003	962.378	717.980
180.140	14.281	961.281	718.297
181.154	14.171	960.954	717.512
182.169	14.241	960.508	717.418
183.183	14.288	959.853	717.067
184.198	14.320	958.950	716.467
185.213	14.299	957.994	715.598
186.227	14.320	957.705	715.409
187.242	14.371	957.124	715.134
188.256	14.425	956.371	714.739
189.271	14.477	955.068	713.925
190.286	14.285	954.576	712.670
191.300	14.204	953.606	711.539
192.315	14.250	953.272	711.421
193.329	14.255	952.667	710.930
194.344	14.269	951.812	710.286
195.359	14.304	951.673	710.268
196.373	14.415	950.658	709.925
197.388	14.428	950.341	709.677
198.402	14.434	949.477	708.997
199.417	14.482	948.696	708.555
200.432	14.538	948.397	708.506
201.446	14.546	947.994	708.175
202.461	14.632	947.215	707.897
203.475	14.531	946.625	706.966
204.490	14.661	945.341	706.493
205.504	14.498	945.345	705.746
206.519	14.535	944.406	705.136
207.534	14.504	943.423	704.212
208.548	14.726	942.463	704.366
209.563	14.691	941.968	703.790
210.577	14.571	941.408	702.800
211.592	14.669	940.900	702.771
212.607	14.635	939.984	701.884
213.621	14.648	939.385	701.431
214.636	14.696	938.736	701.082
215.650	14.687	937.974	700.413
216.665	14.721	937.116	699.855
217.680	14.783	936.688	699.733
218.694	14.755	935.440	698.622
219.709	14.686	935.209	698.098
220.723	14.833	934.346	698.005
221.738	14.811	933.668	697.346
222.753	14.753	932.981	696.531
223.767	14.911	932.503	696.771
224.782	15.005	931.536	696.379
225.796	15.021	930.621	695.697
226.811	14.873	930.449	694.893
227.826	14.954	929.695	694.605
228.840	14.822	929.139	693.579
229.855	14.896	928.058	693.018
230.869	14.861	927.438	692.349
231.884	14.789	927.171	691.790
232.899	14.950	926.438	691.849
233.913	14.843	925.156	690.387
234.928	14.987	924.336	690.308
235.942	14.804	924.282	689.453
236.957	14.906	923.804	689.456
237.972	14.922	922.787	688.701
238.986	15.029	922.242	688.674
240.001	15.015	921.578	688.061
241.015	14.966	920.776	687.197
242.030	14.984	920.584	687.068
243.045	15.016	919.660	686.448
244.059	14.904	919.314	685.671
245.074	15.145	918.527	686.010
246.088	15.035	917.835	684.984
247.103	15.124	917.213	684.821
248.117	15.280	916.451	684.831
249.132	15.242	916.052	684.317
250.147	15.168	915.364	683.439
251.161	15.232	914.660	683.113
252.176	15.288	913.653	682.531
253.190	15.282	913.215	682.119
254.205	15.381	912.590	681.994
255.220	15.532	911.721	681.898
256.234	15.488	910.916	681.054
257.249	15.473	910.672	680.750
258.263	15.351	909.954	679.663
259.278	15.390	909.243	679.227
260.293	15.475	908.671	679.083
261.307	15.496	908.376	678.887
262.322	15.448	907.416	677.917
263.336	15.524	906.246	677.287
264.351	15.611	905.339	676.901
265.366	15.636	904.955	676.656
266.380	15.572	904.432	675.949
267.395	15.514	904.255	675.520
268.409	15.562	903.393	675.013
269.424	15.706	902.279	674.695
270.439	15.624	901.480	673.710
271.453	15.570	900.853	672.966
272.468	15.602	900.651	672.883
273.482	15.616	899.922	672.335
274.497	15.597	899.338	671.762
275.512	15.670	898.975	671.725
276.526	15.653	898.135	670.969
277.541	15.773	897.424	670.860
278.555	15.838	896.769	670.568
279.570	15.794	896.355	670.024
280.585	15.767	895.489	669.209
281.599	15.826	894.498	668.644
282.614	15.887	893.994	668.450
283.628	15.988	893.217	668.209
284.643	15.798	892.759	667.057
285.657	15.769	892.603	666.767
286.672	15.770	891.991	666.255
287.687	15.925	890.216	665.481
288.701	15.962	890.015	665.420
289.716	15.875	889.560	664.674
290.730	15.909	888.997	664.332
291.745	15.924	888.336	663.838
292.760	15.984	887.848	663.649
293.774	16.062	886.986	663.254
294.789	15.963	886.549	662.481
295.803	15.949	885.636	661.682
296.818	16.034	885.359	661.753
297.833	15.956	884.956	661.086
298.847	15.971	883.901	660.296
299.862	16.131	883.056	660.237
300.876	16.004	882.665	659.386
301.891	16.151	881.997	659.403
302.906	16.145	881.437	658.902
303.920	16.223	881.022	658.839
304.935	16.245	880.468	658.455
305.949	16.128	879.840	657.468
306.964	16.270	879.097	657.408
307.979	16.154	878.568	656.504
308.993	16.271	877.915	656.412
310.008	16.077	877.680	655.423
311.022	16.283	876.590	655.351
312.037	16.417	875.926	655.319
313.052	16.350	875.178	654.442
314.066	16.317	874.735	653.925
315.081	16.375	874.112	653.624
316.095	16.413	873.201	653.033
317.110	16.300	873.247	652.572
318.125	16.255	872.653	651.896
319.139	16.316	872.069	651.637
320.154	16.410	871.394	651.441
321.168	16.288	870.894	650.536
322.183	16.512	870.323	650.916
323.197	16.412	869.651	649.971
324.212	16.369	869.653	649.749
325.227	16.414	868.782	649.212
326.241	16.489	868.324	649.104
327.256	16.501	867.597	648.549
328.270	16.430	866.586	647.460
329.285	16.489	866.128	647.290
330.300	16.386	865.367	646.269
331.314	16.454	864.811	646.058
332.329	16.469	864.578	645.882
333.343	16.492	864.374	645.759
334.358	16.598	863.708	645.609
335.373	16.488	863.630	645.077
336.387	16.548	863.349	645.037
337.402	16.656	862.663	644.879
338.416	16.752	862.414	645.001
339.431	16.731	861.975	644.537
340.446	16.626	861.375	643.631
341.460	16.734	860.960	643.675
342.475	16.787	860.728	643.646
343.489	16.693	860.197	642.834
344.504	16.770	859.954	642.889
345.519	16.904	859.011	642.634
346.533	16.718	858.942	641.822
347.548	16.799	858.063	641.414
348.562	16.853	857.764	641.336
349.577	16.705	857.026	640.168
350.592	16.673	856.851	639.863
351.606	16.868	855.647	639.641
352.621	16.770	855.245	638.915
353.635	16.899	854.366	638.687
354.650	16.749	853.871	637.699
355.665	16.968	852.796	637.659
356.679	16.963	852.293	637.211
357.694	17.013	851.857	637.013
358.708	16.876	851.160	635.924
359.723	16.814	851.072	635.568
360.738	17.129	850.023	635.908
361.752	17.005	849.598	635.069
362.767	17.051	848.741	634.546
363.781	16.980	848.334	633.922
364.796	17.065	848.010	633.938
365.810	17.126	847.518	633.741
366.825	17.210	846.965	633.588
367.840	17.176	846.885	633.344
368.854	17.210	845.938	632.707
369.869	17.163	845.611	632.233
370.883	17.136	845.352	631.880
371.898	17.109	845.153	631.576
372.913	17.376	844.759	632.218
373.927	17.267	843.894	631.110
374.942	17.150	843.526	630.343
375.956	17.251	843.316	630.506
376.971	17.328	842.605	630.206
377.986	17.265	842.398	629.762
379.000	17.354	841.673	629.493
380.015	17.539	840.896	629.539
381.029	17.563	840.530	629.300
382.044	17.414	840.090	628.363
383.059	17.340	839.859	627.860
384.073	17.390	838.953	627.314
385.088	17.547	838.219	627.289
386.102	17.285	838.056	626.144
387.117	17.220	837.584	625.496
388.132	17.495	836.457	625.611
389.146	17.507	836.124	625.352
390.161	17.559	835.301	624.870
391.175	17.655	835.084	625.004
392.190	17.485	834.809	624.120
393.205	17.554	834.155	623.829
394.219	17.551	833.522	623.290
395.234	17.641	833.077	623.232
396.248	17.611	832.367	622.534
397.263	17.561	832.406	622.326
398.278	17.471	832.128	621.736
399.292	17.604	831.811	621.928
400.307	17.614	830.828	621.177
401.321	17.615	830.578	620.935
402.336	17.694	829.959	620.705
403.350	17.499	829.603	619.674
404.365	17.581	829.400	619.768
405.380	17.702	828.587	619.545
406.394	17.724	828.378	619.415
407.409	17.695	827.926	618.917
408.423	17.796	827.633	619.008
409.438	17.790	827.327	618.705
410.453	17.789	826.694	618.172
411.467	17.739	826.504	617.792
412.482	17.831	825.873	617.599
413.496	17.899	825.727	617.684
414.511	17.832	824.849	616.730
415.526	17.998	824.303	616.865
416.540	17.894	824.297	616.432
417.555	18.023	823.207	616.027
418.569	17.939	823.325	615.756
419.584	18.027	822.598	615.475
420.599	18.029	822.049	615.019
421.613	115.303	1301.435	1491.796
422.628	100.076	1371.217	1491.834
