DTS Sentinel unit serial number:	SN413079Multiplexer serial number:	ORYXHardware model number:	OX4-SRSoftware version number:	ORYX F/W v4.00 Oryx Data Collector v3.7.2.0data status	okinstallation	princeton_trtdifferential loss correction	single-endedforward channel	channel 1reverse channel	N/Adate	2019/09/19time	09:46:35forward acquisition time	60.00reverse acquisition time	0.00gamma	496.2192k internal	0.2340k external	0.2340temperature offset calibration	1.0004default loss term (dB/km)	0.3790temperature slope calibration	1.0000multiplexer offset coefficient	1.0000multiplexer slope coefficient	1.0000fibre end	0.00T internal ref (°C)	23.33T ext. ref 1 (°C)	0.65T ext. ref 2 (°C)	19.49length (m)	temperature (°C)	Stokes	anti-Stokes-747.200	25.590	-0.136	-0.113
-746.185	58.991	-0.090	-0.089
-745.171	-200.000	-0.022	-0.296
-744.156	361.373	0.093	-0.186
-743.142	7.667	-0.128	0.096
-742.127	-200.000	-0.049	0.324
-741.112	-155.199	-0.356	-0.023
-740.098	-31.353	-0.144	-0.081
-739.083	800.000	-0.123	-0.432
-738.069	-36.503	0.125	-0.068
-737.054	150.378	-0.115	-0.157
-736.039	55.147	-0.137	0.133
-735.025	169.783	-0.096	-0.138
-734.010	-125.780	-0.212	-0.032
-732.996	-200.000	0.018	-0.111
-731.981	127.324	-0.298	-0.379
-730.966	-92.094	-0.308	-0.087
-729.952	657.047	0.076	-0.197
-728.937	281.079	0.046	0.083
-727.923	-2.702	-0.305	-0.214
-726.908	-200.000	0.003	-0.123
-725.894	-15.483	-0.141	-0.091
-724.879	284.252	-0.160	0.288
-723.864	-86.038	-0.054	-0.017
-722.850	63.196	-0.180	-0.180
-721.835	430.360	-0.154	-0.335
-720.821	-101.548	-0.292	-0.071
-719.806	-147.793	0.334	0.028
-718.791	383.746	-0.156	0.321
-717.777	11.634	-0.163	0.125
-716.762	-200.000	-0.014	0.249
-715.748	-37.432	0.086	0.046
-714.733	-17.903	0.298	0.187
-713.718	800.000	-0.062	0.232
-712.704	-89.441	-0.444	-0.131
-711.689	-200.000	0.011	-0.119
-710.675	-122.047	-0.188	0.031
-709.660	-75.293	0.103	-0.037
-708.645	347.524	0.094	-0.185
-707.631	86.941	0.173	0.191
-706.616	62.780	0.162	-0.163
-705.602	11.502	0.344	-0.264
-704.587	184.033	0.081	0.120
-703.572	265.091	-0.083	0.145
-702.558	-58.523	0.263	0.114
-701.543	436.634	-0.174	0.378
-700.529	-139.590	-0.264	0.028
-699.514	-30.704	0.457	-0.259
-698.499	-200.000	0.032	-0.154
-697.485	46.541	0.104	0.096
-696.470	-139.832	-0.152	-0.016
-695.456	-200.000	0.040	-0.185
-694.441	-200.000	0.014	-0.214
-693.426	-50.450	0.212	0.100
-692.412	461.890	-0.098	0.219
-691.397	800.000	0.025	-0.102
-690.383	320.266	-0.157	0.298
-689.368	-73.660	0.313	0.114
-688.354	249.090	-0.102	0.173
-687.339	60.711	-0.148	-0.147
-686.324	-67.904	0.049	0.019
-685.310	-46.370	0.079	-0.039
-684.295	-1.838	-0.067	-0.047
-683.281	245.737	-0.143	0.241
-682.266	-51.879	0.218	-0.101
-681.251	-137.297	-0.095	0.011
-680.237	-100.344	0.194	-0.048
-679.222	-112.008	0.258	0.052
-678.208	-200.000	0.017	-0.463
-677.193	3.599	-0.070	-0.051
-676.178	800.000	-0.021	-0.061
-675.164	-200.000	0.010	0.129
-674.149	800.000	0.121	0.443
-673.135	360.121	-0.128	-0.257
-672.120	611.411	-0.013	-0.032
-671.105	-126.646	0.178	-0.026
-670.091	-177.858	0.310	0.007
-669.076	236.104	-0.198	-0.327
-668.062	84.382	-0.128	-0.140
-667.047	430.844	-0.066	0.144
-666.032	490.321	0.110	0.251
-665.018	-133.623	0.461	-0.058
-664.003	757.276	0.124	0.336
-662.989	-59.417	-0.298	0.128
-661.974	800.000	0.043	0.141
-660.959	216.900	-0.072	-0.115
-659.945	-200.000	0.012	0.187
-658.930	99.229	-0.059	-0.068
-657.916	104.580	-0.072	0.085
-656.901	-162.340	0.266	-0.013
-655.886	126.285	0.078	-0.098
-654.872	-78.023	-0.204	-0.070
-653.857	118.225	-0.024	-0.029
-652.843	-136.594	0.311	-0.036
-651.828	128.649	-0.253	-0.322
-650.814	-79.856	0.189	-0.063
-649.799	-200.000	-0.007	-0.118
-648.784	129.761	0.156	-0.199
-647.770	92.938	-0.209	0.236
-646.755	37.125	-0.225	0.199
-645.741	-200.000	0.049	0.252
-644.726	25.748	0.233	-0.194
-643.711	-28.082	0.178	-0.103
-642.697	302.254	-0.056	0.103
-641.682	100.005	-0.117	-0.135
-640.668	24.796	-0.299	-0.247
-639.653	-40.730	-0.083	0.043
-638.638	-85.818	-0.019	0.006
-637.624	340.917	-0.112	0.219
-636.609	442.777	0.141	0.309
-635.595	-77.274	-0.259	-0.090
-634.580	232.589	-0.129	0.211
-633.565	206.995	0.125	0.195
-632.551	-64.175	-0.398	-0.162
-631.536	800.000	0.025	0.102
-630.522	-53.524	0.136	-0.062
-629.507	-40.294	-0.398	0.207
-628.492	-200.000	0.003	0.101
-627.478	41.786	-0.140	0.127
-626.463	800.000	0.031	0.117
-625.449	-8.198	0.212	0.143
-624.434	7.247	-0.072	0.054
-623.419	4.288	-0.165	0.121
-622.405	-150.806	-0.198	-0.015
-621.390	-145.480	0.222	0.020
-620.376	-72.536	-0.437	-0.161
-619.361	-200.000	0.008	-0.104
-618.346	-92.045	-0.229	0.065
-617.332	32.675	0.170	-0.147
-616.317	-200.000	0.055	-0.244
-615.303	-163.242	-0.278	-0.013
-614.288	800.000	-0.013	0.049
-613.273	800.000	0.095	-0.361
-612.259	800.000	0.030	-0.103
-611.244	165.227	-0.021	-0.030
-610.230	101.806	0.147	-0.171
-609.215	800.000	0.078	0.225
-608.201	221.756	0.118	0.189
-607.186	800.000	-0.053	0.170
-606.171	-52.755	-0.226	0.104
-605.157	-173.899	0.041	0.001
-604.142	106.469	0.185	-0.219
-603.128	347.779	-0.225	-0.442
-602.113	-89.178	0.062	-0.018
-601.098	-200.000	-0.036	0.229
-600.084	-168.801	-0.064	-0.002
-599.069	55.386	0.026	-0.025
-598.055	-75.640	-0.088	-0.031
-597.040	-4.460	0.076	-0.052
-596.025	-100.179	-0.063	0.016
-595.011	-107.367	-0.266	-0.058
-593.996	-100.409	0.291	0.072
-592.982	19.174	-0.289	-0.231
-591.967	-118.961	-0.136	-0.024
-590.952	29.107	-0.162	0.137
-589.938	-200.000	-0.013	0.376
-588.923	277.482	-0.166	-0.294
-587.909	-200.000	-0.017	0.181
-586.894	800.000	-0.096	-0.358
-585.879	217.957	-0.160	0.255
-584.865	-200.000	0.002	-0.199
-583.850	353.783	0.092	0.181
-582.836	-200.000	0.013	0.203
-581.821	46.846	0.184	0.170
-580.806	717.902	0.138	0.364
-579.792	682.217	-0.078	0.203
-578.777	-200.000	0.072	-0.430
-577.763	-78.238	0.234	-0.080
-576.748	-32.079	-0.353	0.197
-575.733	115.999	0.057	-0.069
-574.719	-30.472	0.234	-0.132
-573.704	-33.648	-0.213	0.117
-572.690	-34.999	-0.280	0.152
-571.675	800.000	-0.024	-0.083
-570.661	62.931	-0.131	0.131
-569.646	69.395	0.105	-0.108
-568.631	-173.488	0.330	-0.010
-567.617	-31.623	0.106	-0.060
-566.602	-23.544	-0.147	-0.088
-565.588	53.726	-0.021	-0.020
-564.573	174.077	0.272	-0.392
-563.558	-40.068	-0.129	0.067
-562.544	11.483	0.121	-0.092
-561.529	800.000	-0.020	0.086
-560.515	-130.886	0.191	0.025
-559.500	283.016	-0.147	-0.263
-558.485	-200.000	-0.091	0.399
-557.471	44.859	-0.120	0.110
-556.456	-200.000	0.030	-0.262
-555.442	-155.965	-0.123	-0.008
-554.427	-78.721	-0.128	0.043
-553.412	-36.694	0.117	-0.063
-552.398	-149.418	-0.401	-0.032
-551.383	0.410	0.042	-0.030
-550.369	68.416	-0.091	0.093
-549.354	357.029	0.249	-0.494
-548.339	800.000	0.084	0.253
-547.325	-122.773	-0.059	0.009
-546.310	-3.326	0.362	0.251
-545.296	-103.418	-0.417	-0.098
-544.281	102.690	0.137	0.160
-543.266	-118.477	-0.093	0.016
-542.252	133.908	-0.205	0.264
-541.237	-0.199	-0.100	0.071
-540.223	16.481	0.262	0.206
-539.208	547.217	-0.034	-0.080
-538.193	94.416	-0.084	-0.095
-537.179	-56.151	-0.191	-0.084
-536.164	-42.908	0.200	-0.101
-535.150	-200.000	0.021	-0.215
-534.135	-107.351	-0.087	-0.019
-533.121	81.172	-0.110	-0.118
-532.106	800.000	-0.065	0.194
-531.091	25.107	0.211	0.174
-530.077	-200.000	-0.002	-0.055
-529.062	800.000	0.135	-0.443
-528.048	-86.991	0.396	0.120
-527.033	26.530	0.012	0.010
-526.018	9.166	0.148	-0.111
-525.004	66.824	0.193	-0.195
-523.989	391.322	-0.180	-0.372
-522.975	429.711	-0.109	0.235
-521.960	800.000	-0.038	0.133
-520.945	-35.837	0.140	0.075
-519.931	-71.599	0.233	-0.087
-518.916	-48.818	-0.106	-0.050
-517.902	-200.000	0.032	0.316
-516.887	2.625	0.131	-0.094
-515.872	84.375	0.058	-0.063
-514.858	-200.000	0.021	0.315
-513.843	114.512	0.169	-0.204
-512.829	-25.951	0.084	0.049
-511.814	15.368	-0.175	-0.137
-510.799	5.156	0.141	0.103
-509.785	-103.291	-0.303	-0.071
-508.770	-27.738	-0.195	-0.113
-507.756	322.037	-0.065	0.123
-506.741	105.729	-0.290	-0.341
-505.726	-69.522	-0.222	0.084
-504.712	159.606	-0.404	0.558
-503.697	7.335	-0.144	0.107
-502.683	-179.137	-0.105	0.002
-501.668	478.842	0.086	-0.193
-500.653	800.000	0.091	0.300
-499.639	161.637	-0.263	0.366
-498.624	182.845	0.035	-0.051
-497.610	-200.000	-0.014	0.253
-496.595	-39.145	0.192	-0.100
-495.581	-128.597	-0.212	-0.030
-494.566	-14.495	0.055	0.035
-493.551	-110.718	-0.077	-0.016
-492.537	222.782	-0.081	-0.130
-491.522	-12.333	0.204	0.132
-490.508	348.955	0.185	-0.363
-489.493	-200.000	0.006	0.060
-488.478	146.427	0.286	-0.382
-487.464	317.389	0.065	-0.121
-486.449	-200.000	-0.009	0.156
-485.435	-154.096	0.260	0.018
-484.420	-73.124	-0.016	-0.006
-483.405	-39.394	-0.413	0.215
-482.391	-200.000	0.010	-0.192
-481.376	-28.347	0.227	-0.130
-480.362	469.160	-0.161	-0.359
-479.347	6.862	0.245	-0.181
-478.332	287.679	0.280	0.503
-477.318	61.933	-0.251	0.248
-476.303	-59.345	0.179	0.076
-475.289	-44.427	-0.184	-0.092
-474.274	-125.020	-0.299	0.046
-473.259	389.159	-0.248	0.510
-472.245	49.110	-0.217	-0.202
-471.230	-19.507	-0.231	-0.142
-470.216	318.509	0.057	-0.108
-469.201	119.960	-0.244	-0.300
-468.186	-200.000	0.002	0.179
-467.172	-68.923	0.286	0.109
-466.157	-22.798	0.167	0.100
-465.143	-200.000	-0.000	0.186
-464.128	197.227	-0.016	-0.024
-463.113	39.756	0.157	-0.139
-462.099	30.494	0.126	-0.107
-461.084	60.012	-0.038	-0.037
-460.070	-55.951	0.080	0.035
-459.055	-200.000	-0.070	0.541
-458.040	65.361	0.301	0.301
-457.026	90.411	0.070	0.078
-456.011	-69.986	-0.252	-0.095
-454.997	-100.747	-0.147	-0.036
-453.982	69.805	0.085	-0.087
-452.968	371.363	0.111	-0.224
-451.953	-200.000	0.045	-0.279
-450.938	538.440	-0.015	0.036
-449.924	800.000	0.033	-0.106
-448.909	742.262	0.047	-0.127
-447.895	74.670	0.124	-0.129
-446.880	86.380	-0.017	-0.019
-445.865	515.450	-0.175	-0.405
-444.851	167.018	0.079	-0.111
-443.836	-200.000	-0.004	0.110
-442.822	80.631	-0.330	0.353
-441.807	149.247	0.143	-0.191
-440.792	-200.000	0.019	-0.198
-439.778	-77.000	-0.327	-0.113
-438.763	46.845	-0.150	-0.138
-437.749	155.907	-0.253	-0.346
-436.734	-46.503	-0.435	-0.212
-435.719	800.000	-0.021	0.092
-434.705	-200.000	-0.001	-0.143
-433.690	238.000	-0.047	0.077
-432.676	83.542	-0.123	0.133
-431.661	800.000	0.033	-0.132
-430.646	-200.000	0.004	-0.439
-429.632	800.000	-0.043	0.160
-428.617	-200.000	-0.011	0.273
-427.603	800.000	0.067	-0.212
-426.588	-30.645	0.351	-0.197
-425.573	-159.439	0.269	-0.015
-424.559	164.900	0.035	0.050
-423.544	351.652	0.103	0.203
-422.530	800.000	-0.035	-0.119
-421.515	-83.770	-0.177	-0.056
-420.500	-14.939	0.120	-0.076
-419.486	-200.000	0.003	-0.058
-418.471	800.000	0.026	-0.072
-417.457	-200.000	0.030	-0.161
-416.442	-136.233	0.184	-0.021
-415.428	-200.000	-0.002	0.165
-414.413	20.787	-0.104	0.083
-413.398	800.000	0.037	-0.134
-412.384	615.640	0.060	-0.148
-411.369	-0.728	-0.260	-0.182
-410.355	-43.471	-0.360	0.180
-409.340	800.000	0.041	-0.156
-408.325	191.782	-0.151	0.225
-407.311	-107.548	0.169	-0.037
-406.296	-200.000	0.042	-0.335
-405.282	-66.737	0.136	-0.053
-404.267	-200.000	0.050	-0.327
-403.252	71.975	0.304	0.312
-402.238	-127.898	0.367	0.052
-401.223	-67.182	-0.035	0.014
-400.209	-10.954	0.098	0.064
-399.194	16.253	0.023	0.018
-398.179	147.995	-0.100	0.134
-397.165	-76.041	0.239	0.084
-396.150	-200.000	0.023	-0.296
-395.136	139.464	-0.192	0.250
-394.121	29.633	0.215	-0.181
-393.106	101.216	-0.137	0.158
-392.092	-101.044	0.216	-0.052
-391.077	-27.511	-0.160	0.092
-390.063	72.706	-0.145	0.149
-389.048	-13.973	0.328	-0.209
-388.033	-67.493	0.070	-0.027
-387.019	191.355	0.218	-0.324
-386.004	173.027	0.120	0.171
-384.990	-105.750	-0.224	0.050
-383.975	70.564	-0.198	0.203
-382.960	-173.861	-0.138	-0.004
-381.946	418.826	0.014	0.030
-380.931	197.423	-0.048	-0.073
-379.917	52.428	-0.315	-0.297
-378.902	-200.000	-0.011	0.102
-377.888	800.000	-0.088	-0.259
-376.873	228.331	-0.134	0.216
-375.858	-61.883	0.153	-0.063
-374.844	-136.820	-0.257	0.029
-373.829	230.624	0.118	-0.191
-372.815	-155.766	0.123	-0.008
-371.800	93.582	0.281	-0.315
-370.785	-26.382	0.243	0.141
-369.771	-87.426	0.094	0.028
-368.756	136.391	-0.135	0.174
-367.742	-200.000	0.006	-0.053
-366.727	30.121	0.195	0.165
-365.712	-170.802	-0.205	-0.007
-364.698	50.769	0.143	-0.134
-363.683	118.301	-0.172	0.210
-362.669	-40.337	0.146	-0.075
-361.654	130.982	-0.133	0.169
-360.639	-43.102	-0.118	0.059
-359.625	800.000	0.087	-0.297
-358.610	266.671	-0.120	0.208
-357.596	-84.724	0.289	0.090
-356.581	-120.780	-0.200	0.033
-355.566	800.000	0.100	-0.302
-354.552	-51.439	-0.166	0.077
-353.537	-80.543	0.157	0.052
-352.523	-149.387	0.399	-0.031
-351.508	381.223	0.077	0.157
-350.493	-19.719	-0.377	0.230
-349.479	-200.000	-0.005	-0.079
-348.464	124.423	-0.112	-0.139
-347.450	11.989	0.089	-0.068
-346.435	44.235	0.195	0.177
-345.420	246.459	0.121	-0.201
-344.406	19.879	0.280	0.223
-343.391	-60.177	-0.281	-0.118
-342.377	62.624	-0.126	-0.125
-341.362	18.590	0.197	0.156
-340.348	169.923	-0.234	0.330
-339.333	104.888	-0.180	-0.210
-338.318	388.217	0.112	0.229
-337.304	75.129	0.221	0.230
-336.289	-133.889	-0.393	0.048
-335.275	30.397	0.095	0.080
-334.260	21.322	-0.171	-0.137
-333.245	-16.968	0.124	-0.077
-332.231	-64.144	0.191	0.077
-331.216	800.000	0.016	-0.062
-330.202	-200.000	0.005	-0.153
-329.187	49.581	-0.080	-0.074
-328.172	359.802	-0.030	0.059
-327.158	800.000	0.050	0.196
-326.143	800.000	0.084	-0.302
-325.129	-121.206	-0.084	0.014
-324.114	129.023	0.165	0.208
-323.099	-121.199	0.116	0.019
-322.085	-132.604	0.134	-0.017
-321.070	-6.689	-0.040	0.027
-320.056	-81.482	-0.142	0.046
-319.041	-53.071	0.386	0.175
-318.026	-50.423	-0.171	-0.079
-317.012	5.507	0.038	0.028
-315.997	596.008	-0.064	0.157
-314.983	45.715	-0.053	0.048
-313.968	303.777	-0.044	-0.080
-312.953	-31.007	0.128	-0.071
-311.939	715.222	-0.063	-0.164
-310.924	800.000	0.045	0.179
-309.910	-117.375	0.083	0.015
-308.895	530.973	0.106	-0.247
-307.880	800.000	0.057	-0.157
-306.866	-25.795	0.271	0.157
-305.851	276.877	-0.123	-0.216
-304.837	500.390	0.043	-0.097
-303.822	296.451	0.064	0.116
-302.807	-200.000	-0.008	-0.125
-301.793	800.000	0.167	0.477
-300.778	-66.546	0.077	-0.030
-299.764	-75.435	0.477	-0.167
-298.749	-68.626	0.243	-0.093
-297.735	-200.000	0.041	0.233
-296.720	-200.000	0.004	0.114
-295.705	-141.734	0.101	-0.010
-294.691	-135.905	-0.108	0.012
-293.676	-49.679	-0.211	-0.099
-292.662	-82.045	-0.432	0.139
-291.647	584.559	0.108	-0.262
-290.632	-90.307	0.066	0.019
-289.618	-200.000	0.003	0.048
-288.603	-8.047	-0.154	0.103
-287.589	800.000	0.059	0.208
-286.574	-200.000	-0.006	-0.209
-285.559	133.922	-0.093	0.118
-284.545	453.944	0.101	0.220
-283.530	5.497	-0.148	0.108
-282.516	82.605	0.224	0.240
-281.501	91.710	0.121	0.134
-280.486	331.101	-0.042	0.079
-279.472	-200.000	-0.049	-0.290
-278.457	-85.381	-0.375	0.115
-277.443	24.108	-0.079	0.064
-276.428	-200.000	-0.114	-0.498
-275.413	274.006	-0.194	-0.338
-274.399	-46.726	-0.143	0.069
-273.384	-200.000	-0.087	0.416
-272.370	-68.624	0.160	0.061
-271.355	443.455	0.042	0.091
-270.340	-59.656	0.334	-0.141
-269.326	130.595	0.087	0.110
-268.311	-99.403	-0.333	0.083
-267.297	545.648	-0.056	0.131
-266.282	-120.753	0.117	-0.019
-265.267	633.454	-0.164	0.409
-264.253	-10.590	0.210	0.137
-263.238	440.078	0.103	-0.221
-262.224	-200.000	0.043	-0.211
-261.209	-200.000	-0.014	0.075
-260.195	144.697	0.154	0.203
-259.180	-151.260	0.177	0.013
-258.165	-7.146	-0.110	0.073
-257.151	-104.300	0.125	-0.029
-256.136	800.000	-0.054	-0.198
-255.122	-0.113	0.027	0.019
-254.107	-54.258	0.148	-0.066
-253.092	182.536	-0.218	0.316
-252.078	-73.322	-0.037	0.013
-251.063	-200.000	-0.016	-0.122
-250.049	-186.242	-0.112	-0.002
-249.034	345.196	-0.125	-0.242
-248.019	147.922	-0.216	-0.286
-247.005	-99.554	-0.279	0.069
-245.990	150.885	0.108	-0.144
-244.976	36.698	0.217	-0.189
-243.961	69.326	0.291	0.295
-242.946	-147.970	-0.087	-0.007
-241.932	577.865	-0.062	0.150
-240.917	-115.873	-0.133	-0.025
-239.903	-36.394	0.311	-0.165
-238.888	109.385	0.268	0.316
-237.873	800.000	0.044	0.153
-236.859	747.377	-0.073	-0.194
-235.844	800.000	-0.107	-0.295
-234.830	1.335	-0.232	0.164
-233.815	199.499	0.163	0.246
-232.800	-90.352	-0.294	-0.084
-231.786	304.618	-0.178	0.325
-230.771	-58.327	0.096	-0.041
-229.757	-0.098	-0.129	0.090
-228.742	-39.602	0.175	-0.090
-227.727	47.277	0.060	-0.055
-226.713	-55.950	0.138	0.061
-225.698	-200.000	0.049	0.222
-224.684	800.000	0.096	0.291
-223.669	23.055	-0.141	-0.114
-222.655	31.829	0.071	0.060
-221.640	234.485	-0.089	-0.143
-220.625	0.157	0.317	0.222
-219.611	-27.293	0.090	-0.052
-218.596	100.488	-0.043	-0.049
-217.582	-111.535	0.114	-0.023
-216.567	-99.289	-0.299	-0.074
-215.552	-54.997	-0.233	-0.103
-214.538	288.814	-0.202	0.359
-213.523	-96.129	0.176	0.046
-212.509	-200.000	0.023	-0.304
-211.494	-72.249	-0.161	-0.058
-210.479	19.642	0.203	0.160
-209.465	48.237	0.327	0.300
-208.450	-98.871	0.219	-0.055
-207.436	682.754	-0.094	-0.240
-206.421	22.377	-0.383	-0.308
-205.406	800.000	0.067	0.280
-204.392	729.579	0.119	0.311
-203.377	-200.000	0.039	0.239
-202.363	576.558	0.095	-0.229
-201.348	-115.882	-0.317	0.058
-200.333	-200.000	-0.017	-0.268
-199.319	-40.843	0.069	-0.035
-198.304	-200.000	-0.034	-0.197
-197.290	82.789	-0.171	-0.182
-196.275	54.502	0.181	-0.172
-195.260	421.281	0.123	-0.259
-194.246	28.555	-0.079	0.066
-193.231	-54.466	0.371	0.165
-192.217	-200.000	0.014	-0.076
-191.202	-15.405	0.143	-0.090
-190.187	-159.271	0.323	0.018
-189.173	-200.000	-0.052	0.336
-188.158	-200.000	-0.002	0.096
-187.144	-113.065	-0.231	0.045
-186.129	-129.465	0.151	0.021
-185.114	195.790	0.146	-0.217
-184.100	-159.188	-0.385	-0.021
-183.085	63.497	-0.172	-0.169
-182.071	48.857	0.146	-0.134
-181.056	53.005	-0.259	-0.243
-180.042	39.440	0.365	-0.321
-179.027	-200.000	-0.029	0.482
-178.012	800.000	0.059	0.183
-176.998	99.332	0.116	0.132
-175.983	38.158	0.285	-0.249
-174.969	150.434	0.142	0.189
-173.954	44.068	0.072	0.064
-172.939	640.001	0.108	-0.270
-171.925	197.193	-0.111	0.166
-170.910	800.000	-0.042	0.156
-169.896	-200.000	0.073	0.437
-168.881	159.188	-0.150	0.204
-167.866	519.193	-0.062	-0.142
-166.852	-85.544	0.293	-0.089
-165.837	12.572	0.072	-0.054
-164.823	-111.310	0.347	-0.069
-163.808	-200.000	0.014	0.131
-162.793	-200.000	-0.011	-0.229
-161.779	271.024	-0.140	0.242
-160.764	800.000	0.107	-0.324
-159.750	65.965	-0.057	-0.057
-158.735	-114.097	0.037	-0.007
-157.720	140.408	0.226	-0.293
-156.706	-41.865	0.100	0.050
-155.691	136.668	0.208	-0.266
-154.677	-79.939	-0.292	-0.096
-153.662	-80.699	0.193	0.063
-152.647	-80.684	-0.235	0.077
-151.633	-141.258	-0.232	-0.023
-150.618	75.061	-0.201	-0.207
-149.604	800.000	0.125	0.408
-148.589	198.575	0.062	-0.093
-147.574	-29.504	0.383	0.215
-146.560	-55.917	0.442	0.193
-145.545	-145.890	-0.102	0.009
-144.531	-57.095	-0.180	0.078
-143.516	-99.381	0.158	0.039
-142.502	-25.895	0.100	-0.058
-141.487	-59.400	0.073	-0.031
-140.472	-200.000	-0.003	-0.053
-139.458	-108.546	-0.176	-0.037
-138.443	-200.000	0.028	-0.213
-137.429	-116.767	-0.185	0.033
-136.414	113.845	-0.123	-0.147
-135.399	-131.632	0.108	0.014
-134.385	22.578	0.312	-0.250
-133.370	800.000	-0.059	-0.207
-132.356	-200.000	-0.000	-0.201
-131.341	232.068	-0.169	0.272
-130.326	800.000	0.043	-0.177
-129.312	-118.230	-0.078	0.014
-128.297	17.512	-0.203	-0.158
-127.283	-200.000	-0.028	0.193
-126.268	-165.025	0.439	-0.019
-125.253	-137.440	0.203	-0.022
-124.239	-200.000	0.010	-0.077
-123.224	0.339	0.094	-0.065
-122.210	800.000	0.069	-0.267
-121.195	800.000	-0.078	-0.224
-120.180	800.000	0.076	0.216
-119.166	-93.123	-0.186	-0.051
-118.151	-90.277	0.101	0.029
-117.137	-200.000	0.025	0.459
-116.122	-200.000	-0.045	0.341
-115.107	800.000	-0.086	-0.300
-114.093	110.675	-0.039	0.046
-113.078	-200.000	0.045	0.413
-112.064	21.302	0.429	0.341
-111.049	-22.405	-0.299	-0.177
-110.034	-137.133	-0.398	0.044
-109.020	428.422	-0.001	0.002
-108.005	-200.000	-0.009	-0.215
-106.991	-106.732	-0.228	-0.049
-105.976	-33.928	0.043	0.023
-104.962	-119.632	0.422	-0.071
-103.947	-132.050	-0.261	0.033
-102.932	-200.000	-0.066	0.292
-101.918	177.561	-0.073	0.105
-100.903	-200.000	0.002	0.414
-99.889	-141.637	0.165	0.016
-98.874	800.000	-0.040	-0.133
-97.859	332.455	0.125	0.235
-96.845	-135.135	0.274	0.032
-95.830	-133.885	-0.273	-0.033
-94.816	-43.849	-0.333	0.164
-93.801	45.363	0.115	0.104
-92.786	159.074	0.092	0.125
-91.772	296.154	-0.088	-0.157
-90.757	-87.636	0.140	0.041
-89.743	-200.000	-0.011	-0.316
-88.728	-78.293	0.274	-0.092
-87.713	88.056	-0.116	-0.126
-86.699	-197.577	0.301	-0.002
-85.684	-153.534	0.281	0.019
-84.670	12.885	0.289	-0.218
-83.655	610.814	-0.116	0.284
-82.640	120.675	-0.199	-0.242
-81.626	-129.505	0.300	0.041
-80.611	800.000	0.072	0.267
-79.597	53.589	-0.143	-0.134
-78.582	166.750	-0.102	-0.141
-77.567	100.634	-0.111	-0.126
-76.553	-200.000	-0.013	-0.062
-75.538	-200.000	-0.008	0.163
-74.524	-87.576	-0.177	0.052
-73.509	-113.510	0.338	0.065
-72.494	-64.387	-0.098	-0.039
-71.480	406.329	0.125	0.258
-70.465	182.933	0.211	-0.305
-69.451	-200.000	0.120	0.000
-68.436	715.845	0.096	0.248
-67.422	207.226	-0.144	0.219
-66.407	-200.000	0.007	-0.091
-65.392	-200.000	0.023	0.387
-64.378	-150.917	0.109	-0.008
-63.363	-30.562	-0.264	-0.146
-62.349	12.269	-0.142	0.107
-61.334	138.086	-0.876	-1.121
-60.319	154.216	0.674	0.903
-59.305	800.000	-0.479	-1.421
-58.290	192.719	1.031	1.520
-57.276	677.608	0.609	1.545
-56.261	-200.000	122.598	617.464
-55.246	387.218	1570.568	3168.427
-54.232	140.442	2742.802	3533.848
-53.217	94.291	2182.171	2418.129
-52.203	35.136	1608.077	1375.118
-51.188	26.518	1348.964	1101.320
-50.173	23.950	1311.277	1055.294
-49.159	50.621	1379.919	1274.292
-48.144	47.905	1391.905	1268.749
-47.130	26.634	1339.689	1094.272
-46.115	23.434	1320.398	1059.385
-45.100	23.365	1315.381	1054.905
-44.086	23.252	1313.006	1052.285
-43.071	23.142	1310.845	1049.862
-42.057	23.114	1309.014	1048.188
-41.042	23.180	1307.346	1047.203
-40.027	23.198	1305.479	1045.771
-39.013	23.363	1303.464	1045.085
-37.998	23.278	1302.082	1043.435
-36.984	23.286	1300.469	1042.153
-35.969	23.389	1298.160	1040.861
-34.954	23.429	1296.625	1039.826
-33.940	23.371	1295.564	1038.595
-32.925	23.306	1294.089	1036.987
-31.911	23.425	1292.253	1036.173
-30.896	23.341	1291.441	1034.987
-29.881	23.387	1290.082	1034.130
-28.867	23.438	1288.632	1033.224
-27.852	23.498	1286.709	1031.989
-26.838	23.534	1285.451	1031.149
-25.823	23.513	1284.226	1030.002
-24.809	23.465	1282.642	1028.412
-23.794	23.446	1281.815	1027.598
-22.779	23.490	1280.336	1026.627
-21.765	23.460	1279.394	1025.657
-20.750	23.467	1277.888	1024.449
-19.736	23.359	1276.436	1022.623
-18.721	23.332	1275.861	1021.962
-17.706	23.330	1274.728	1021.003
-16.692	23.219	1273.672	1019.480
-15.677	23.213	1272.196	1018.222
-14.663	23.184	1270.795	1016.894
-13.648	23.296	1270.329	1017.125
-12.633	23.234	1269.234	1015.854
-11.619	23.155	1268.878	1015.073
-10.604	23.190	1268.133	1014.636
-9.590	23.139	1267.082	1013.465
-8.575	23.200	1265.833	1012.776
-7.560	23.212	1265.180	1012.278
-6.546	23.190	1264.588	1011.639
-5.531	23.224	1263.564	1010.978
-4.517	23.247	1262.049	1009.856
-3.502	23.267	1261.795	1009.725
-2.487	23.337	1260.693	1009.200
-1.473	23.387	1255.996	1005.687
-0.458	22.104	1241.677	986.981
0.556	17.967	1227.073	953.381
1.571	14.648	1235.553	941.205
2.586	13.924	1251.126	948.845
3.600	13.951	1238.259	939.160
4.615	10.423	1165.395	865.011
5.629	3.842	1093.817	778.755
6.644	0.809	1076.431	751.260
7.659	0.622	1074.772	749.107
8.673	0.552	1073.842	748.044
9.688	0.608	1072.676	747.443
10.702	0.782	1070.375	746.632
11.717	4.668	1075.238	769.208
12.731	11.588	1084.195	809.950
13.746	15.983	1089.154	835.422
14.761	17.209	1090.303	842.312
15.775	16.397	1089.120	837.302
16.790	15.499	1086.827	831.021
17.804	14.764	1085.380	826.209
18.819	14.444	1084.132	823.603
19.834	14.270	1083.551	822.233
20.848	13.936	1082.297	819.561
21.863	13.611	1081.574	817.337
22.877	13.576	1080.622	816.373
23.892	13.610	1079.754	815.811
24.907	13.543	1079.326	815.086
25.921	13.459	1078.485	813.965
26.936	13.584	1077.434	813.713
27.950	13.670	1076.289	813.201
28.965	13.776	1074.906	812.602
29.980	13.622	1074.031	811.114
30.994	13.665	1072.877	810.381
32.009	13.676	1071.972	809.683
33.023	13.711	1070.885	808.960
34.038	13.776	1069.397	808.080
35.053	13.681	1068.894	807.168
36.067	13.623	1068.232	806.314
37.082	13.524	1067.405	805.136
38.096	13.664	1066.432	805.010
39.111	13.704	1065.425	804.375
40.126	13.597	1064.641	803.192
41.140	13.553	1063.473	802.027
42.155	13.550	1062.018	800.846
43.169	13.353	1061.534	799.457
44.184	13.488	1060.366	799.155
45.199	13.441	1059.377	798.113
46.213	13.502	1058.000	797.300
47.228	13.610	1056.842	796.875
48.242	13.647	1055.966	796.321
49.257	13.643	1054.847	795.388
50.271	13.537	1054.547	794.586
51.286	13.657	1053.207	794.082
52.301	13.685	1052.071	793.286
53.315	13.579	1051.095	791.974
54.330	13.593	1050.114	791.233
55.344	13.531	1049.200	790.176
56.359	13.503	1048.468	789.425
57.374	13.570	1047.315	788.803
58.388	13.502	1046.568	787.847
59.403	13.449	1045.536	786.748
60.417	13.555	1044.717	786.566
61.432	13.491	1044.257	785.846
62.447	13.413	1043.407	784.766
63.461	13.376	1042.768	784.041
64.476	13.452	1041.315	783.239
65.490	13.524	1040.690	783.043
66.505	13.403	1039.987	781.874
67.520	13.370	1039.739	781.462
68.534	13.517	1038.385	781.065
69.549	13.502	1037.964	780.607
70.563	13.546	1037.022	780.039
71.578	13.422	1036.123	778.711
72.593	13.401	1035.435	778.027
73.607	13.496	1034.947	778.037
74.622	13.293	1034.347	776.563
75.636	13.368	1033.507	776.217
76.651	13.401	1032.563	775.595
77.666	13.473	1031.796	775.284
78.680	13.477	1031.132	774.735
79.695	13.466	1030.439	774.096
80.709	13.413	1030.045	773.486
81.724	13.591	1028.840	773.341
82.739	13.545	1028.353	772.693
83.753	13.629	1027.648	772.486
84.768	13.626	1026.646	771.652
85.782	13.619	1025.737	770.869
86.797	13.636	1024.940	770.279
87.812	13.634	1024.143	769.600
88.826	13.568	1022.901	768.295
89.841	13.543	1022.113	767.521
90.855	13.629	1021.193	767.158
91.870	13.793	1020.066	767.002
92.884	13.640	1019.721	765.970
93.899	13.784	1018.946	765.982
94.914	13.838	1017.742	765.259
95.928	13.707	1017.777	764.614
96.943	13.826	1015.925	763.700
97.957	13.732	1015.263	762.704
98.972	13.710	1014.674	762.095
99.987	13.624	1013.999	761.126
101.001	13.611	1012.932	760.198
102.016	13.648	1011.730	759.397
103.030	13.670	1011.254	759.072
104.045	13.675	1010.475	758.446
105.060	13.680	1009.766	757.868
106.074	13.667	1008.664	756.913
107.089	13.661	1007.672	756.075
108.103	13.645	1006.920	755.373
109.118	13.536	1006.148	754.229
110.133	13.606	1005.302	753.848
111.147	13.722	1003.808	753.187
112.162	13.643	1003.233	752.330
113.176	13.740	1002.341	752.031
114.191	13.713	1001.584	751.279
115.206	13.701	1000.868	750.618
116.220	13.650	1000.192	749.815
117.235	13.658	998.982	748.876
118.249	13.768	998.339	748.825
119.264	13.741	997.730	748.183
120.279	13.726	996.665	747.250
121.293	13.659	995.929	746.331
122.308	13.631	995.456	745.781
123.322	13.525	994.440	744.478
124.337	13.656	993.099	743.998
125.352	13.582	992.158	742.896
126.366	13.652	990.694	742.044
127.381	13.594	989.714	740.987
128.395	13.712	988.515	740.552
129.410	13.615	987.829	739.538
130.424	13.674	986.943	739.076
131.439	13.718	986.295	738.718
132.454	13.638	985.666	737.827
133.468	13.730	984.840	737.552
134.483	13.764	983.519	736.649
135.497	13.746	983.001	736.114
136.512	13.607	982.143	734.792
137.527	13.689	981.594	734.676
138.541	13.662	980.570	733.729
139.556	13.682	980.070	733.379
140.570	13.768	979.070	732.946
141.585	13.776	978.213	732.275
142.600	13.787	977.399	731.646
143.614	13.804	976.349	730.871
144.629	13.795	975.935	730.456
145.643	13.817	974.746	729.600
146.658	13.877	973.694	729.013
147.673	13.822	972.708	727.967
148.687	13.728	972.254	727.149
149.702	13.694	971.633	726.472
150.716	13.913	970.448	726.481
151.731	13.903	969.837	725.914
152.746	13.806	969.196	724.947
153.760	13.850	968.459	724.523
154.775	13.866	967.949	724.148
155.789	13.808	967.269	723.322
156.804	13.903	966.131	722.820
157.819	13.951	965.892	722.789
158.833	14.068	964.963	722.536
159.848	14.067	964.131	721.844
160.862	14.014	963.168	720.831
161.877	13.972	962.355	719.978
162.892	13.902	961.282	718.808
163.906	13.961	960.208	718.195
164.921	13.913	959.776	717.603
165.935	13.910	958.478	716.554
166.950	13.890	958.178	716.181
167.964	13.999	957.184	715.844
168.979	13.934	956.465	714.963
169.994	14.005	955.345	714.370
171.008	13.878	955.220	713.665
172.023	14.152	953.804	713.721
173.037	14.127	953.458	713.292
174.052	14.011	952.662	712.136
175.067	14.062	951.782	711.634
176.081	14.067	951.552	711.418
177.096	14.021	950.893	710.665
178.110	14.102	950.260	710.476
179.125	14.038	949.523	709.591
180.140	14.051	949.096	709.263
181.154	14.171	948.819	709.505
182.169	14.145	948.104	708.797
183.183	14.131	947.678	708.355
184.198	14.232	946.816	708.078
185.213	14.267	946.211	707.711
186.227	14.153	945.356	706.527
187.242	14.194	944.819	706.236
188.256	14.281	943.687	705.697
189.271	14.254	943.343	705.262
190.286	14.224	942.423	704.388
191.300	14.036	942.370	703.489
192.315	14.167	941.190	703.098
193.329	14.156	940.563	702.521
194.344	14.255	940.066	702.507
195.359	14.200	939.450	701.752
196.373	14.349	938.533	701.634
197.388	14.390	938.237	701.520
198.402	14.386	937.883	701.176
199.417	14.408	936.974	700.530
200.432	14.472	936.373	700.286
201.446	14.397	935.928	699.578
202.461	14.495	935.552	699.643
203.475	14.470	934.943	699.024
204.490	14.557	934.266	698.819
205.504	14.470	933.504	697.821
206.519	14.376	932.775	696.824
207.534	14.403	931.862	696.191
208.548	14.524	931.084	696.053
209.563	14.466	930.619	695.402
210.577	14.647	929.933	695.585
211.592	14.750	929.072	695.307
212.607	14.688	928.274	694.389
213.621	14.505	927.574	693.044
214.636	14.679	926.908	693.207
215.650	14.592	926.232	692.282
216.665	14.610	925.368	691.648
217.680	14.644	924.891	691.373
218.694	14.732	923.977	690.992
219.709	14.743	923.560	690.663
220.723	14.705	922.864	689.923
221.738	14.657	922.220	689.185
222.753	14.801	921.587	689.243
223.767	14.805	920.908	688.690
224.782	14.935	920.138	688.592
225.796	14.859	919.977	688.097
226.811	14.840	919.206	687.382
227.826	14.683	918.453	686.111
228.840	14.814	917.681	686.011
229.855	14.872	916.748	685.490
230.869	14.778	915.995	684.483
231.884	14.795	915.586	684.188
232.899	14.825	915.012	683.821
233.913	14.845	914.201	683.233
234.928	14.914	913.510	682.939
235.942	14.960	912.479	682.294
236.957	14.948	912.363	682.100
237.972	14.932	911.980	681.687
238.986	14.958	911.148	681.110
240.001	14.973	910.368	680.529
241.015	14.940	909.701	679.838
242.030	14.916	909.075	679.209
243.045	14.848	908.562	678.490
244.059	15.134	907.245	678.606
245.074	15.041	906.734	677.788
246.088	15.024	906.459	677.454
247.103	15.042	905.871	677.025
248.117	15.084	905.181	676.620
249.132	15.181	904.766	676.645
250.147	15.186	903.981	676.016
251.161	15.169	903.718	675.692
252.176	15.307	902.902	675.578
253.190	15.169	902.021	674.303
254.205	15.294	901.392	674.276
255.220	15.390	900.346	673.821
256.234	15.310	900.070	673.230
257.249	15.368	899.382	672.892
258.263	15.355	898.708	672.276
259.278	15.416	897.847	671.816
260.293	15.406	897.254	671.274
261.307	15.559	896.982	671.620
262.322	15.525	896.429	671.012
263.336	15.412	895.615	669.893
264.351	15.618	895.005	670.200
265.366	15.576	893.956	669.187
266.380	15.576	893.513	668.795
267.395	15.577	892.554	668.023
268.409	15.569	892.106	667.597
269.424	15.566	891.345	666.955
270.439	15.632	890.445	666.484
271.453	15.462	890.115	665.504
272.468	15.597	889.304	665.373
273.482	15.543	888.895	664.794
274.497	15.573	888.511	664.567
275.512	15.628	887.517	663.983
276.526	15.614	887.419	663.794
277.541	15.551	886.914	663.111
278.555	15.687	886.696	663.425
279.570	15.737	885.707	662.826
280.585	15.881	884.600	662.503
281.599	15.612	884.404	661.238
282.614	15.665	883.519	660.730
283.628	15.823	882.611	660.613
284.643	15.926	882.160	660.620
285.657	15.719	881.690	659.399
286.672	15.824	880.788	659.075
287.687	15.767	880.177	658.338
288.701	15.910	879.575	658.389
289.716	15.912	879.191	658.050
290.730	16.029	878.427	657.878
291.745	15.911	877.852	656.927
292.760	15.956	877.257	656.597
293.774	16.124	876.440	656.582
294.789	15.998	875.428	655.279
295.803	15.948	875.025	654.723
296.818	15.982	874.538	654.435
297.833	15.955	873.704	653.645
298.847	15.946	873.193	653.172
299.862	15.976	872.552	652.749
300.876	16.156	871.667	652.726
301.891	16.035	871.622	652.169
302.906	16.096	870.846	651.764
303.920	16.261	870.425	652.029
304.935	16.242	869.635	651.307
305.949	16.092	869.010	650.202
306.964	16.221	868.379	650.172
307.979	16.261	867.967	649.960
308.993	16.146	867.629	649.203
310.008	16.194	867.061	648.908
311.022	16.214	866.258	648.326
312.037	16.232	865.804	647.998
313.052	16.290	865.048	647.595
314.066	16.234	864.345	646.800
315.081	16.342	864.248	647.083
316.095	16.257	863.483	646.129
317.110	16.217	862.928	645.501
318.125	16.249	862.057	644.917
319.139	16.225	862.030	644.747
320.154	16.248	861.600	644.455
321.168	16.334	861.244	644.460
322.183	16.424	860.115	643.901
323.197	16.287	859.774	643.067
324.212	16.372	859.293	642.973
325.227	16.433	858.431	642.504
326.241	16.446	857.817	642.038
327.256	16.407	857.298	641.445
328.270	16.482	856.724	641.244
329.285	16.380	856.287	640.472
330.300	16.410	855.398	639.865
331.314	16.401	855.285	639.688
332.329	16.446	854.633	639.314
333.343	16.497	854.253	639.168
334.358	16.472	853.854	638.719
335.373	16.557	853.376	638.624
336.387	16.457	853.322	638.148
337.402	16.614	852.824	638.313
338.416	16.467	852.449	637.422
339.431	16.633	851.932	637.603
340.446	16.769	851.561	637.782
341.460	16.705	850.986	637.054
342.475	16.711	850.817	636.895
343.489	16.791	850.332	636.774
344.504	16.743	850.073	636.346
345.519	16.840	849.420	636.165
346.533	16.710	848.947	635.265
347.548	16.816	848.146	635.007
348.562	16.815	847.477	634.447
349.577	16.854	846.751	633.993
350.592	16.720	846.740	633.427
351.606	16.698	845.869	632.638
352.621	16.909	844.952	632.684
353.635	16.748	844.578	631.746
354.650	16.611	843.907	630.677
355.665	16.892	843.040	631.021
356.679	16.811	842.629	630.354
357.694	16.929	841.803	630.121
358.708	16.793	841.450	629.296
359.723	16.901	840.607	629.010
360.738	17.142	839.792	629.238
361.752	17.081	839.468	628.713
362.767	16.999	839.133	628.102
363.781	17.024	838.609	627.748
364.796	17.084	838.278	627.664
365.810	17.099	837.756	627.274
366.825	17.085	837.367	626.878
367.840	17.047	836.970	626.383
368.854	17.151	836.520	626.376
369.869	17.111	835.794	625.626
370.883	17.170	835.380	625.482
371.898	17.299	835.052	625.654
372.913	17.213	834.763	625.065
373.927	17.327	834.136	624.959
374.942	17.276	833.694	624.386
375.956	17.387	833.344	624.476
376.971	17.322	832.958	623.893
377.986	17.247	832.560	623.265
379.000	17.358	832.145	623.304
380.015	17.395	831.301	622.756
381.029	17.528	830.834	622.836
382.044	17.435	830.175	621.946
383.059	17.481	829.415	621.490
384.073	17.415	828.819	620.749
385.088	17.405	828.571	620.472
386.102	17.368	827.893	619.774
387.117	17.365	827.330	619.285
388.132	17.336	826.684	618.643
389.146	17.275	826.356	618.121
390.161	17.531	825.615	618.442
391.175	17.469	825.349	617.961
392.190	17.567	824.597	617.702
393.205	17.364	824.543	616.868
394.219	17.487	824.058	616.897
395.234	17.443	823.807	616.494
396.248	17.425	823.528	616.168
397.263	17.522	822.354	615.584
398.278	17.457	822.476	615.384
399.292	17.596	821.855	615.371
400.307	17.449	821.560	614.562
401.321	17.481	821.006	614.209
402.336	17.508	820.697	614.023
403.350	17.520	820.161	613.611
404.365	17.714	819.487	613.749
405.380	17.663	819.223	613.312
406.394	17.615	818.434	612.497
407.409	17.749	818.047	612.633
408.423	17.659	817.700	611.998
409.438	17.671	817.561	611.882
410.453	17.933	816.798	612.195
411.467	17.893	816.506	611.781
412.482	17.950	816.194	611.696
413.496	17.901	815.406	610.877
414.511	17.894	815.130	610.588
415.526	17.880	814.804	610.240
416.540	17.858	814.245	609.692
417.555	17.961	813.982	609.808
418.569	18.034	813.410	609.585
419.584	17.974	813.188	609.151
420.599	18.009	812.795	608.929
421.613	114.523	1298.490	1486.804
422.628	99.137	1369.224	1486.882
