DTS Sentinel unit serial number:	SN413079Multiplexer serial number:	ORYXHardware model number:	OX4-SRSoftware version number:	ORYX F/W v4.00 Oryx Data Collector v3.7.2.0data status	okinstallation	princeton_trtdifferential loss correction	single-endedforward channel	channel 1reverse channel	N/Adate	2019/09/15time	03:54:35forward acquisition time	60.00reverse acquisition time	0.00gamma	496.2192k internal	0.2323k external	0.2323temperature offset calibration	0.9985default loss term (dB/km)	0.3790temperature slope calibration	1.0000multiplexer offset coefficient	1.0000multiplexer slope coefficient	1.0000fibre end	0.00T internal ref (°C)	30.94T ext. ref 1 (°C)	4.60T ext. ref 2 (°C)	25.92length (m)	temperature (°C)	Stokes	anti-Stokes-747.200	-200.000	0.014	0.109
-746.185	189.583	-0.360	0.545
-745.171	-2.927	0.151	0.106
-744.156	-7.265	-0.324	0.222
-743.142	340.945	0.106	0.209
-742.127	236.737	-0.156	0.261
-741.112	150.202	0.198	0.271
-740.098	319.086	0.119	0.227
-739.083	73.975	0.301	0.319
-738.069	800.000	-0.191	0.549
-737.054	204.130	-0.225	0.352
-736.039	-103.664	-0.207	-0.049
-735.025	-56.701	-0.068	0.030
-734.010	75.000	0.163	-0.173
-732.996	-114.755	-0.251	-0.048
-731.981	-27.968	0.084	-0.049
-730.966	-56.056	0.277	0.124
-729.952	96.700	-0.074	0.086
-728.937	-21.875	-0.313	-0.192
-727.923	-200.000	-0.048	-0.220
-726.908	69.520	-0.252	-0.261
-725.894	-21.512	-0.466	0.287
-724.879	100.412	-0.049	-0.057
-723.864	612.402	0.092	-0.233
-722.850	800.000	-0.101	-0.328
-721.835	11.911	-0.063	-0.049
-720.821	2.123	-0.348	-0.253
-719.806	543.499	-0.024	-0.058
-718.791	127.569	-0.052	-0.066
-717.777	-131.334	0.039	-0.005
-716.762	-149.740	0.311	0.025
-715.748	-200.000	0.002	-0.189
-714.733	-42.409	-0.125	0.064
-713.718	27.879	0.043	-0.037
-712.704	107.800	-0.003	0.004
-711.689	512.537	-0.041	0.096
-710.675	-18.781	-0.199	0.125
-709.660	-99.800	-0.201	-0.051
-708.645	-76.547	0.252	0.089
-707.631	-200.000	0.001	-0.148
-706.616	-65.700	0.335	0.135
-705.602	170.993	0.314	0.454
-704.587	-48.125	0.235	0.114
-703.572	800.000	-0.109	0.463
-702.558	-200.000	0.031	-0.138
-701.543	800.000	0.074	-0.307
-700.529	-130.077	0.289	0.040
-699.514	166.744	-0.172	0.247
-698.499	156.174	-0.061	0.084
-697.485	-200.000	-0.009	0.149
-696.470	241.621	0.237	0.400
-695.456	-58.395	0.258	-0.113
-694.441	-75.809	0.265	-0.095
-693.426	179.444	0.099	0.146
-692.412	-200.000	0.012	0.334
-691.397	-102.482	-0.389	-0.094
-690.383	-200.000	0.026	-0.172
-689.368	-15.738	-0.473	-0.304
-688.354	-200.000	0.016	0.128
-687.339	-200.000	0.043	0.336
-686.324	-200.000	0.007	0.068
-685.310	-200.000	0.013	0.085
-684.295	-97.988	-0.401	-0.104
-683.281	-120.370	-0.248	0.043
-682.266	412.429	-0.095	0.203
-681.251	-13.912	0.233	0.151
-680.237	-108.442	-0.217	0.047
-679.222	-134.200	-0.475	-0.059
-678.208	-200.000	-0.002	0.246
-677.193	-156.532	-0.443	0.028
-676.178	171.100	0.094	-0.136
-675.164	-73.634	-0.174	0.064
-674.149	-200.000	-0.033	-0.178
-673.135	800.000	0.030	-0.093
-672.120	163.497	0.186	-0.263
-671.105	800.000	-0.137	-0.440
-670.091	-134.525	0.102	0.013
-669.076	-93.186	-0.474	0.133
-668.062	-200.000	-0.007	-0.166
-667.047	-143.114	0.161	-0.016
-666.032	120.378	0.186	-0.233
-665.018	-200.000	0.004	-0.119
-664.003	-95.522	-0.207	0.056
-662.989	-27.614	-0.178	-0.104
-661.974	800.000	0.096	0.376
-660.959	-86.789	0.050	-0.015
-659.945	-74.428	0.196	-0.071
-658.930	-200.000	-0.002	0.055
-657.916	8.985	0.138	-0.105
-656.901	800.000	-0.065	0.195
-655.886	9.138	-0.236	-0.180
-654.872	-39.124	0.173	0.092
-653.857	249.827	0.035	-0.059
-652.843	-200.000	-0.068	-0.315
-651.828	-57.423	-0.247	0.109
-650.814	-43.664	0.182	0.092
-649.799	-200.000	0.013	0.306
-648.784	576.493	0.076	-0.186
-647.770	-55.863	0.071	0.032
-646.755	800.000	0.096	0.398
-645.741	-34.466	-0.194	0.107
-644.726	-111.226	-0.128	0.026
-643.711	-73.271	0.093	0.034
-642.697	257.054	0.064	0.111
-641.682	178.182	0.104	0.152
-640.668	-1.648	-0.243	-0.172
-639.653	108.078	-0.034	-0.041
-638.638	-113.304	0.108	-0.021
-637.624	301.506	-0.141	-0.262
-636.609	530.038	0.020	0.048
-635.595	-89.032	-0.041	-0.012
-634.580	800.000	0.062	-0.184
-633.565	800.000	0.071	-0.299
-632.551	138.139	-0.207	-0.273
-631.536	-139.796	0.214	0.023
-630.522	-74.629	-0.300	0.109
-629.507	23.321	0.061	0.050
-628.492	233.029	-0.190	-0.314
-627.478	-200.000	0.006	0.119
-626.463	-112.910	0.128	0.026
-625.449	-2.460	0.143	0.101
-624.434	-200.000	0.000	0.039
-623.419	800.000	0.104	0.320
-622.405	612.311	0.101	-0.253
-621.390	-11.246	-0.048	-0.032
-620.376	-31.803	0.222	0.125
-619.361	-110.034	-0.213	0.045
-618.346	-105.337	-0.240	-0.055
-617.332	-200.000	-0.019	0.232
-616.317	800.000	0.075	-0.211
-615.303	-66.639	-0.122	0.049
-614.288	276.850	-0.043	-0.077
-613.273	112.574	-0.025	0.030
-612.259	-171.701	0.408	0.013
-611.244	-144.671	-0.283	-0.026
-610.230	-62.297	0.239	-0.100
-609.215	732.946	0.068	-0.183
-608.201	-200.000	0.027	0.184
-607.186	-170.838	0.083	-0.003
-606.171	-87.962	-0.413	0.125
-605.157	-200.000	0.013	-0.065
-604.142	-153.789	-0.328	-0.023
-603.128	668.475	-0.037	-0.097
-602.113	25.448	-0.132	0.110
-601.098	-200.000	0.017	0.108
-600.084	682.314	0.020	-0.053
-599.069	-200.000	-0.002	0.125
-598.055	285.641	0.044	0.079
-597.040	46.950	-0.131	-0.123
-596.025	-200.000	-0.015	-0.162
-595.011	-200.000	0.033	0.222
-593.996	-104.716	-0.285	0.066
-592.982	420.655	-0.201	-0.432
-591.967	565.030	-0.096	-0.235
-590.952	-200.000	-0.045	-0.291
-589.938	-87.017	-0.350	0.107
-588.923	71.954	-0.242	0.252
-587.909	657.793	-0.136	0.350
-586.894	213.843	0.115	0.182
-585.879	-198.101	-0.345	0.002
-584.865	89.581	0.101	0.113
-583.850	487.115	0.013	0.031
-582.836	279.480	0.130	-0.232
-581.821	387.832	-0.097	-0.201
-580.806	800.000	-0.093	-0.282
-579.792	138.388	-0.345	0.454
-578.777	-72.126	0.351	-0.131
-577.763	-71.510	-0.071	-0.026
-576.748	-200.000	0.013	-0.428
-575.733	-6.010	0.136	-0.094
-574.719	-200.000	0.055	0.251
-573.704	89.299	-0.157	-0.175
-572.690	-19.046	-0.200	-0.125
-571.675	-200.000	0.019	-0.243
-570.661	638.934	-0.038	-0.098
-569.646	210.444	0.213	-0.336
-568.631	8.918	-0.266	0.201
-567.617	94.213	-0.059	-0.067
-566.602	-200.000	0.012	-0.155
-565.588	-5.774	0.083	0.057
-564.573	137.750	0.091	0.120
-563.558	-58.144	0.260	0.113
-562.544	154.303	-0.145	0.200
-561.529	-3.160	0.060	-0.042
-560.515	7.459	0.168	0.126
-559.500	249.803	-0.170	-0.288
-558.485	-44.487	0.290	-0.145
-557.471	234.386	-0.018	0.030
-556.456	-128.096	0.121	-0.017
-555.442	-20.037	-0.154	-0.095
-554.427	-200.000	0.008	-0.064
-553.412	347.846	0.122	-0.240
-552.398	800.000	-0.049	-0.172
-551.383	137.708	-0.102	0.133
-550.369	-131.435	0.330	0.044
-549.354	458.678	0.113	0.252
-548.339	477.539	0.143	0.324
-547.325	-94.439	-0.121	0.033
-546.310	34.673	-0.159	0.140
-545.296	532.937	0.114	-0.269
-544.281	-123.075	-0.327	0.053
-543.266	5.956	0.216	0.160
-542.252	82.897	0.170	-0.186
-541.237	-68.377	-0.368	-0.143
-540.223	-97.203	-0.190	0.050
-539.208	-49.097	-0.166	-0.080
-538.193	77.051	0.102	0.108
-537.179	6.462	-0.275	-0.205
-536.164	96.290	-0.240	-0.275
-535.150	-73.042	0.159	-0.058
-534.135	-40.754	0.137	-0.071
-533.121	-58.384	-0.415	0.181
-532.106	-200.000	0.037	-0.263
-531.091	24.969	-0.329	0.273
-530.077	-7.786	-0.229	0.155
-529.062	800.000	0.009	-0.040
-528.048	-101.196	-0.310	-0.076
-527.033	452.549	-0.109	0.242
-526.018	-152.279	-0.029	-0.002
-525.004	-89.992	-0.260	0.076
-523.989	800.000	0.062	-0.258
-522.975	-76.499	0.436	-0.153
-521.960	-111.119	-0.099	-0.020
-520.945	185.291	-0.098	0.146
-519.931	-177.617	-0.240	-0.006
-518.916	-200.000	0.010	-0.161
-517.902	-108.453	-0.087	0.019
-516.887	800.000	0.048	0.148
-515.872	-163.472	0.054	-0.003
-514.858	-200.000	-0.002	0.315
-513.843	-143.513	0.198	-0.019
-512.829	800.000	-0.048	-0.196
-511.814	82.681	0.031	-0.034
-510.799	415.239	0.076	-0.162
-509.785	-76.079	-0.209	-0.074
-508.770	85.560	0.038	-0.042
-507.756	207.127	0.048	-0.075
-506.741	-200.000	0.032	-0.196
-505.726	800.000	0.047	0.136
-504.712	692.346	0.046	0.120
-503.697	28.974	-0.131	-0.111
-502.683	300.507	-0.107	-0.197
-501.668	-200.000	-0.012	-0.132
-500.653	-126.848	0.262	-0.039
-499.639	69.722	-0.163	0.168
-498.624	24.191	-0.313	-0.258
-497.610	-45.936	0.172	-0.085
-496.595	-82.362	0.152	-0.049
-495.581	-112.660	-0.360	0.072
-494.566	18.760	-0.123	-0.098
-493.551	-200.000	-0.029	-0.174
-492.537	56.181	0.195	0.189
-491.522	-200.000	-0.013	-0.201
-490.508	-82.835	-0.021	-0.007
-489.493	67.603	0.323	0.330
-488.478	800.000	-0.014	0.041
-487.464	129.152	-0.096	0.122
-486.449	4.093	-0.284	-0.207
-485.435	-200.000	0.035	0.331
-484.420	-121.077	0.252	0.042
-483.405	-200.000	-0.006	0.349
-482.391	-200.000	-0.012	-0.162
-481.376	271.041	-0.156	-0.275
-480.362	-200.000	-0.031	-0.296
-479.347	-200.000	0.027	-0.386
-478.332	-15.005	-0.117	0.075
-477.318	44.913	0.219	0.202
-476.303	-200.000	-0.027	0.219
-475.289	-33.284	0.022	-0.012
-474.274	-190.924	-0.174	-0.002
-473.259	48.274	0.245	-0.230
-472.245	-155.542	0.359	0.023
-471.230	287.338	0.056	-0.102
-470.216	800.000	0.132	0.368
-469.201	-168.103	0.203	-0.008
-468.186	-28.528	0.189	0.109
-467.172	76.511	0.105	-0.111
-466.157	-200.000	0.038	0.226
-465.143	-61.619	-0.213	0.089
-464.128	16.277	-0.112	0.088
-463.113	-22.589	0.092	0.056
-462.099	-200.000	0.004	0.173
-461.084	97.457	0.198	-0.227
-460.070	-1.547	-0.236	-0.166
-459.055	-200.000	-0.012	-0.090
-458.040	-99.417	-0.520	0.131
-457.026	-5.355	0.137	-0.094
-456.011	-112.837	-0.220	-0.044
-454.997	380.581	-0.055	0.112
-453.982	-4.048	0.114	-0.079
-452.968	-129.249	-0.075	-0.010
-451.953	160.173	0.178	-0.247
-450.938	-200.000	0.150	-0.660
-449.924	-143.945	0.310	-0.029
-448.909	-71.038	-0.154	0.058
-447.895	-200.000	0.003	-0.135
-446.880	-200.000	0.042	0.266
-445.865	-107.988	-0.173	0.038
-444.851	-86.878	0.118	-0.036
-443.836	196.321	0.068	-0.104
-442.822	-124.368	-0.430	-0.067
-441.807	319.100	0.148	0.280
-440.792	-70.034	0.175	-0.067
-439.778	646.081	0.097	-0.248
-438.763	-16.785	-0.262	0.165
-437.749	-123.802	-0.213	0.034
-436.734	-175.142	-0.138	0.004
-435.719	-176.293	0.230	-0.006
-434.705	-1.386	0.119	-0.084
-433.690	-200.000	0.038	-0.471
-432.676	-137.868	0.249	0.028
-431.661	-6.593	0.230	0.156
-430.646	78.092	-0.106	0.113
-429.632	106.712	0.202	0.239
-428.617	108.120	-0.102	-0.122
-427.603	0.700	0.042	0.030
-426.588	800.000	0.070	-0.254
-425.573	-73.517	-0.290	-0.105
-424.559	-200.000	-0.046	-0.210
-423.544	404.926	-0.064	-0.135
-422.530	69.523	0.155	0.159
-421.515	-200.000	-0.003	0.146
-420.500	-118.653	-0.238	0.042
-419.486	-86.746	0.175	-0.053
-418.471	57.343	-0.091	0.088
-417.457	273.859	-0.141	-0.249
-416.442	800.000	0.061	-0.182
-415.428	124.775	0.209	-0.263
-414.413	-134.306	-0.141	-0.017
-413.398	104.505	-0.346	-0.407
-412.384	-200.000	-0.142	-0.000
-411.369	73.559	0.178	-0.186
-410.355	-76.960	-0.260	-0.091
-409.340	-200.000	0.001	0.312
-408.325	-84.777	-0.172	-0.054
-407.311	188.661	-0.097	0.144
-406.296	48.504	0.052	0.048
-405.282	600.012	0.124	-0.308
-404.267	-148.766	-0.143	0.012
-403.252	549.771	-0.161	0.386
-402.238	710.542	0.093	0.246
-401.223	-31.089	-0.069	-0.039
-400.209	-8.964	0.091	-0.061
-399.194	34.648	-0.054	-0.047
-398.179	-21.459	-0.055	0.034
-397.165	-60.232	0.193	-0.082
-396.150	177.984	0.162	-0.236
-395.136	800.000	-0.080	-0.274
-394.121	41.509	0.023	0.021
-393.106	388.541	-0.148	-0.304
-392.092	-102.991	-0.308	0.073
-391.077	-75.506	-0.318	0.113
-390.063	-8.284	0.149	0.100
-389.048	-46.410	-0.268	-0.131
-388.033	-200.000	-0.014	0.204
-387.019	-83.502	-0.283	-0.090
-386.004	697.699	0.101	0.265
-384.990	-101.277	0.064	-0.016
-383.975	-57.438	0.037	-0.016
-382.960	327.201	-0.107	-0.205
-381.946	800.000	0.099	-0.365
-380.931	800.000	-0.083	0.283
-379.917	-111.568	-0.087	0.018
-378.902	202.387	0.106	-0.164
-377.888	530.677	0.025	-0.058
-376.873	226.205	0.034	0.055
-375.858	142.720	0.237	0.314
-374.844	-53.585	-0.351	0.160
-373.829	74.790	-0.126	-0.131
-372.815	800.000	0.016	-0.054
-371.800	-116.569	-0.118	0.022
-370.785	-89.755	-0.109	0.032
-369.771	-200.000	-0.010	0.068
-368.756	16.021	0.095	0.074
-367.742	44.781	0.084	0.077
-366.727	108.774	0.106	0.126
-365.712	800.000	-0.064	-0.211
-364.698	302.313	0.191	-0.352
-363.683	-200.000	0.023	-0.546
-362.669	79.460	-0.140	-0.149
-361.654	-5.956	0.048	0.033
-360.639	800.000	0.022	-0.075
-359.625	-200.000	0.015	0.092
-358.610	-200.000	0.022	0.159
-357.596	203.312	-0.116	-0.178
-356.581	632.643	-0.083	0.210
-355.566	229.160	-0.063	-0.101
-354.552	81.529	-0.267	0.287
-353.537	800.000	-0.076	-0.247
-352.523	800.000	0.093	0.288
-351.508	-143.547	-0.209	-0.020
-350.493	800.000	0.062	-0.173
-349.479	160.517	-0.128	-0.177
-348.464	15.499	-0.070	-0.054
-347.450	5.039	0.185	-0.136
-346.435	-200.000	0.032	-0.197
-345.420	19.078	-0.056	-0.044
-344.406	800.000	0.028	0.090
-343.391	-168.574	-0.074	0.003
-342.377	104.696	0.094	0.110
-341.362	-200.000	-0.059	0.299
-340.348	-3.431	-0.178	0.123
-339.333	22.949	0.160	-0.131
-338.318	800.000	-0.015	-0.054
-337.304	228.326	-0.122	0.198
-336.289	22.638	0.157	-0.127
-335.275	-200.000	-0.040	0.256
-334.260	113.852	-0.293	0.354
-333.245	-57.994	0.235	-0.102
-332.231	30.590	-0.230	0.195
-331.216	-145.864	-0.030	0.003
-330.202	-200.000	0.030	-0.331
-329.187	649.253	-0.092	-0.235
-328.172	62.977	0.139	0.139
-327.158	535.230	-0.048	-0.114
-326.143	-200.000	0.010	0.084
-325.129	-112.910	-0.220	0.043
-324.114	-124.416	0.090	-0.014
-323.099	-29.921	-0.384	0.217
-322.085	-200.000	-0.034	-0.166
-321.070	-200.000	0.039	0.172
-320.056	800.000	0.032	0.108
-319.041	-92.924	0.228	-0.063
-318.026	61.246	0.046	0.045
-317.012	434.361	0.028	-0.060
-315.997	-23.494	0.049	-0.029
-314.983	238.904	-0.112	0.186
-313.968	-7.575	0.189	0.127
-312.953	-52.343	0.438	-0.201
-311.939	-200.000	-0.023	-0.304
-310.924	-200.000	-0.032	-0.156
-309.910	29.088	0.257	0.217
-308.895	800.000	0.156	0.665
-307.880	303.534	-0.116	0.214
-306.866	-175.944	0.246	0.006
-305.851	-200.000	-0.006	-0.185
-304.837	-124.271	-0.411	-0.064
-303.822	-200.000	-0.021	0.271
-302.807	746.105	-0.082	0.220
-301.793	736.329	0.038	-0.100
-300.778	-96.068	0.067	0.018
-299.764	-150.153	-0.112	-0.009
-298.749	-9.146	-0.165	0.110
-297.735	-54.652	0.079	0.035
-296.720	-5.864	0.238	-0.162
-295.705	-13.347	0.091	-0.058
-294.691	-200.000	-0.105	-0.483
-293.676	-200.000	-0.039	-0.477
-292.662	404.359	0.131	0.273
-291.647	4.126	-0.192	0.139
-290.632	-91.713	0.079	0.022
-289.618	-111.457	-0.077	-0.016
-288.603	-13.796	0.378	0.242
-287.589	363.232	-0.080	-0.160
-286.574	-128.173	-0.143	-0.020
-285.559	800.000	0.072	-0.216
-284.545	464.825	0.092	-0.205
-283.530	-111.086	-0.201	0.041
-282.516	10.674	0.185	0.140
-281.501	-61.037	-0.067	0.028
-280.486	-200.000	0.040	0.247
-279.472	-200.000	0.005	0.049
-278.457	-200.000	0.022	0.179
-277.443	-65.764	0.210	-0.083
-276.428	6.601	-0.159	-0.117
-275.413	-75.308	0.012	-0.004
-274.399	-200.000	-0.017	-0.222
-273.384	470.027	0.143	0.318
-272.370	413.734	-0.085	0.180
-271.355	800.000	0.136	0.551
-270.340	5.388	0.261	0.191
-269.326	186.157	-0.074	0.110
-268.311	-22.360	-0.110	0.066
-267.297	49.338	0.162	0.151
-266.282	-94.371	0.172	0.046
-265.267	-200.000	0.038	0.168
-264.253	370.944	-0.032	-0.064
-263.238	199.976	0.105	-0.160
-262.224	-200.000	0.008	-0.231
-261.209	-200.000	-0.007	-0.030
-260.195	-159.213	-0.287	0.016
-259.180	55.517	0.102	0.098
-258.165	800.000	0.083	0.270
-257.151	-61.496	0.101	-0.042
-256.136	800.000	-0.086	0.325
-255.122	55.400	0.067	-0.064
-254.107	-7.676	0.389	-0.261
-253.092	-135.183	0.148	-0.018
-252.078	-200.000	-0.036	0.259
-251.063	-3.593	0.297	0.204
-250.049	-200.000	-0.054	-0.274
-249.034	800.000	0.067	0.189
-248.019	-95.846	0.152	-0.040
-247.005	17.737	-0.137	-0.108
-245.990	800.000	-0.084	0.263
-244.976	-61.498	0.405	-0.168
-243.961	2.247	-0.351	-0.251
-242.946	50.221	-0.262	0.245
-241.932	-200.000	-0.041	-0.266
-240.917	362.840	0.174	0.346
-239.903	800.000	-0.091	0.359
-238.888	172.744	0.064	0.091
-237.873	800.000	-0.025	0.093
-236.859	8.598	-0.128	0.096
-235.844	72.548	0.273	-0.282
-234.830	-47.248	0.285	-0.137
-233.815	-9.182	-0.010	0.006
-232.800	-151.660	0.397	-0.029
-231.786	-200.000	0.010	-0.096
-230.771	-145.164	0.239	0.021
-229.757	93.640	-0.249	0.279
-228.742	-112.227	-0.388	-0.077
-227.727	800.000	-0.048	-0.198
-226.713	-50.692	-0.084	0.039
-225.698	-41.757	-0.242	0.123
-224.684	138.094	0.147	-0.191
-223.669	64.024	0.228	-0.227
-222.655	-134.400	0.269	-0.033
-221.640	800.000	0.125	-0.347
-220.625	-110.342	-0.185	0.038
-219.611	-192.105	0.090	0.001
-218.596	357.836	-0.011	-0.022
-217.582	118.933	-0.042	0.052
-216.567	800.000	-0.073	0.228
-215.552	-136.033	-0.209	-0.024
-214.538	-100.252	0.094	-0.023
-213.523	319.986	0.032	-0.060
-212.509	-200.000	0.001	-0.105
-211.494	-200.000	-0.019	0.255
-210.479	-39.820	0.307	-0.159
-209.465	-66.766	0.194	-0.076
-208.450	800.000	0.113	-0.466
-207.436	-55.293	-0.187	0.083
-206.421	-53.418	0.330	0.149
-205.406	-20.022	0.231	-0.141
-204.392	319.906	0.075	-0.141
-203.377	-20.992	0.162	0.098
-202.363	139.384	0.052	0.068
-201.348	16.766	-0.111	0.087
-200.333	743.768	0.030	0.080
-199.319	-200.000	0.016	0.183
-198.304	-43.770	-0.087	-0.043
-197.290	143.820	0.068	-0.089
-196.275	-25.280	0.282	-0.165
-195.260	-200.000	-0.007	-0.111
-194.246	71.148	0.177	-0.182
-193.231	-54.389	-0.049	-0.022
-192.217	-147.330	0.070	0.006
-191.202	-200.000	-0.001	-0.250
-190.187	-200.000	0.026	0.141
-189.173	-131.364	-0.371	-0.048
-188.158	338.074	-0.131	0.251
-187.144	230.031	0.139	0.225
-186.129	-7.637	0.268	0.179
-185.114	46.640	0.220	-0.202
-184.100	-200.000	-0.020	0.102
-183.085	434.140	0.076	0.164
-182.071	153.682	-0.144	0.194
-181.056	24.399	0.049	0.040
-180.042	-200.000	-0.032	-0.174
-179.027	18.192	0.464	-0.365
-178.012	-172.750	-0.167	0.005
-176.998	-46.987	-0.216	0.104
-175.983	-113.693	0.190	0.036
-174.969	-163.533	0.079	0.004
-173.954	800.000	0.036	0.142
-172.939	-58.933	0.134	-0.057
-171.925	-65.705	0.216	0.085
-170.910	105.278	0.076	-0.088
-169.896	98.573	0.023	0.027
-168.881	-200.000	-0.030	0.297
-167.866	608.827	0.068	0.169
-166.852	499.189	-0.122	0.277
-165.837	-94.296	0.109	0.029
-164.823	-135.667	0.192	-0.022
-163.808	-200.000	-0.049	0.454
-162.793	-70.583	0.195	0.073
-161.779	123.084	-0.055	-0.068
-160.764	115.131	0.178	0.215
-159.750	800.000	0.107	0.386
-158.735	417.723	0.200	0.422
-157.720	-193.792	0.183	-0.002
-156.706	-200.000	0.102	0.502
-155.691	-200.000	-0.023	0.194
-154.677	157.702	-0.194	0.264
-153.662	-61.664	0.149	0.061
-152.647	36.149	-0.117	-0.101
-151.633	800.000	0.051	-0.213
-150.618	-46.491	0.268	0.130
-149.604	-200.000	-0.027	0.219
-148.589	56.583	0.061	-0.059
-147.574	-200.000	-0.013	0.059
-146.560	-102.528	-0.095	-0.022
-145.545	156.510	-0.087	0.118
-144.531	800.000	0.033	-0.111
-143.516	-59.101	0.097	0.041
-142.502	-200.000	-0.008	-0.211
-141.487	-200.000	0.022	0.212
-140.472	187.101	0.256	0.376
-139.458	165.928	0.318	-0.444
-138.443	800.000	-0.076	0.253
-137.429	28.716	0.248	-0.207
-136.414	-149.289	0.153	0.012
-135.399	12.903	-0.226	-0.172
-134.385	-85.331	-0.177	0.054
-133.370	-200.000	-0.034	0.479
-132.356	-200.000	0.012	0.116
-131.341	132.342	-0.066	0.084
-130.326	2.446	-0.257	-0.183
-129.312	-177.632	-0.166	0.004
-128.297	-200.000	0.044	0.263
-127.283	434.440	-0.050	0.107
-126.268	-121.196	-0.049	0.008
-125.253	-166.603	0.063	-0.003
-124.239	-36.675	-0.324	0.172
-123.224	274.148	0.056	0.097
-122.210	-200.000	-0.038	0.345
-121.195	-200.000	0.007	0.247
-120.180	800.000	0.072	0.250
-119.166	364.306	0.158	0.314
-118.151	450.702	-0.110	0.239
-117.137	-141.955	-0.188	0.019
-116.122	-200.000	0.026	-0.177
-115.107	-121.418	-0.293	0.048
-114.093	-58.512	-0.138	0.059
-113.078	-36.082	0.260	-0.138
-112.064	-121.793	0.237	-0.039
-111.049	35.080	0.104	-0.089
-110.034	72.626	-0.289	0.297
-109.020	541.480	-0.029	-0.068
-108.005	-198.462	-0.205	0.001
-106.991	-197.946	-0.347	0.002
-105.976	81.949	0.154	-0.164
-104.962	800.000	0.056	-0.210
-103.947	778.223	0.056	0.151
-102.932	47.959	-0.165	-0.152
-101.918	-34.351	0.424	-0.229
-100.903	34.193	-0.133	-0.114
-99.889	180.507	0.221	0.320
-98.874	245.016	-0.138	-0.228
-97.859	-129.398	-0.070	-0.010
-96.845	-67.153	0.213	0.083
-95.830	-82.519	-0.244	0.078
-94.816	678.760	-0.175	0.449
-93.801	-104.081	0.116	-0.026
-92.786	213.809	0.034	0.053
-91.772	53.184	0.082	-0.077
-90.757	-142.712	-0.387	-0.037
-89.743	-39.323	-0.101	0.052
-88.728	-44.095	-0.109	0.054
-87.713	228.311	0.188	0.302
-86.699	-50.584	0.116	0.054
-85.684	38.272	-0.004	0.004
-84.670	-55.842	0.146	-0.064
-83.655	2.867	0.235	-0.168
-82.640	474.716	-0.031	0.070
-81.626	-125.946	0.054	0.008
-80.611	-200.000	-0.007	0.217
-79.597	66.680	-0.026	-0.026
-78.582	-157.682	0.120	-0.007
-77.567	216.715	-0.136	0.213
-76.553	-56.711	0.251	0.109
-75.538	170.149	-0.141	-0.198
-74.524	-143.376	0.224	-0.021
-73.509	684.347	-0.025	0.063
-72.494	415.212	0.105	0.221
-71.480	-200.000	0.108	0.509
-70.465	-137.755	-0.262	0.029
-69.451	152.983	-0.229	0.309
-68.436	-2.131	0.075	-0.052
-67.422	242.228	-0.089	-0.146
-66.407	205.927	-0.155	0.238
-65.392	203.868	0.199	0.303
-64.378	-85.683	0.382	-0.116
-63.363	-159.799	0.080	-0.004
-62.349	181.213	0.236	0.341
-61.334	-15.554	-0.930	-0.583
-60.319	154.029	0.385	0.519
-59.305	268.661	-0.548	-0.945
-58.290	358.403	0.479	0.940
-57.276	800.000	0.549	1.687
-56.261	-200.000	101.366	594.970
-55.246	570.784	1414.367	3383.151
-54.232	191.208	2599.088	3844.396
-53.217	117.845	2142.732	2593.454
-52.203	42.944	1593.933	1428.102
-51.188	34.474	1328.968	1140.287
-50.173	31.408	1286.185	1085.763
-49.159	53.981	1337.057	1262.964
-48.144	55.845	1353.657	1289.629
-47.130	34.703	1310.047	1125.223
-46.115	31.058	1293.225	1089.485
-45.100	31.019	1287.537	1084.423
-44.086	30.761	1285.882	1081.486
-43.071	30.929	1283.353	1080.291
-42.057	30.809	1281.032	1077.602
-41.042	30.755	1279.981	1076.364
-40.027	30.862	1278.316	1075.540
-39.013	31.035	1275.821	1074.393
-37.998	30.780	1274.920	1072.122
-36.984	30.908	1273.002	1071.207
-35.969	30.866	1271.382	1069.558
-34.954	30.967	1269.163	1068.228
-33.940	30.926	1268.463	1067.359
-32.925	30.953	1266.654	1065.950
-31.911	31.078	1265.401	1065.569
-30.896	31.141	1263.922	1064.641
-29.881	31.128	1262.465	1063.297
-28.867	31.174	1260.848	1062.153
-27.852	31.084	1259.879	1060.781
-26.838	31.147	1258.084	1059.590
-25.823	31.089	1257.329	1058.580
-24.809	31.007	1256.112	1057.049
-23.794	31.009	1254.942	1056.033
-22.779	30.847	1253.583	1053.933
-21.765	30.992	1252.033	1053.407
-20.750	30.945	1251.168	1052.371
-19.736	30.900	1249.490	1050.665
-18.721	30.932	1248.315	1049.814
-17.706	30.891	1247.031	1048.461
-16.692	30.849	1246.115	1047.414
-15.677	30.935	1244.511	1046.508
-14.663	30.876	1243.474	1045.261
-13.648	30.926	1242.680	1044.833
-12.633	30.876	1241.905	1043.861
-11.619	30.818	1241.162	1042.870
-10.604	30.793	1240.245	1041.921
-9.590	30.952	1238.979	1041.702
-8.575	30.787	1238.128	1040.023
-7.560	30.805	1237.562	1039.607
-6.546	30.836	1236.482	1038.830
-5.531	30.841	1235.693	1038.158
-4.517	30.852	1234.605	1037.263
-3.502	30.880	1233.823	1036.718
-2.487	30.946	1232.528	1035.957
-1.473	30.938	1228.868	1032.795
-0.458	29.515	1214.324	1012.731
0.556	24.876	1196.974	975.987
1.571	21.207	1202.656	960.393
2.586	20.307	1217.251	966.949
3.600	19.866	1206.102	955.572
4.615	15.232	1136.504	876.184
5.629	7.887	1064.892	784.804
6.644	4.782	1046.155	755.867
7.659	4.599	1043.938	753.312
8.673	4.559	1042.401	751.945
9.688	4.460	1040.904	750.315
10.702	4.677	1039.362	750.184
11.717	8.816	1044.575	773.911
12.731	15.644	1054.343	814.262
13.746	18.393	1057.267	829.783
14.761	17.861	1055.967	826.114
15.775	16.808	1054.127	819.512
16.790	15.835	1051.905	813.013
17.804	15.153	1050.149	808.293
18.819	14.798	1049.233	805.807
19.834	14.575	1048.355	803.985
20.848	14.290	1047.583	801.950
21.863	14.038	1046.900	800.143
22.877	13.850	1045.865	798.378
23.892	13.949	1045.220	798.290
24.907	14.018	1044.400	797.926
25.921	13.966	1043.490	796.911
26.936	13.908	1042.360	795.699
27.950	14.030	1041.243	795.362
28.965	14.053	1039.327	793.934
29.980	14.247	1037.553	793.434
30.994	14.346	1036.586	793.098
32.009	14.324	1035.680	792.228
33.023	14.203	1034.822	790.927
34.038	14.061	1033.864	789.450
35.053	14.029	1032.966	788.542
36.067	13.920	1032.039	787.250
37.082	14.136	1031.140	787.517
38.096	14.162	1030.506	787.085
39.111	14.120	1030.218	786.596
40.126	13.954	1028.684	784.571
41.140	13.900	1026.968	782.942
42.155	13.807	1025.977	781.677
43.169	13.816	1025.337	781.162
44.184	13.758	1024.119	779.895
45.199	13.821	1023.049	779.307
46.213	14.000	1021.759	779.091
47.228	13.972	1021.189	778.459
48.242	14.128	1019.652	777.949
49.257	14.116	1018.612	777.031
50.271	14.124	1017.820	776.394
51.286	14.095	1017.324	775.809
52.301	14.060	1015.942	774.525
53.315	14.023	1015.207	773.727
54.330	13.979	1013.869	772.430
55.344	13.988	1013.392	772.040
56.359	13.885	1012.592	770.887
57.374	13.900	1011.969	770.412
58.388	13.839	1010.844	769.204
59.403	13.749	1010.388	768.373
60.417	13.877	1009.423	768.164
61.432	13.852	1008.600	767.354
62.447	13.733	1007.580	765.963
63.461	13.727	1007.068	765.477
64.476	13.733	1006.143	764.733
65.490	13.699	1005.173	763.772
66.505	13.731	1004.370	763.242
67.520	13.760	1003.759	762.840
68.534	13.870	1003.053	762.746
69.549	13.831	1002.187	761.839
70.563	13.784	1001.703	761.187
71.578	13.645	1001.039	759.981
72.593	13.670	1000.241	759.419
73.607	13.599	999.909	758.774
74.622	13.614	999.160	758.208
75.636	13.675	998.257	757.737
76.651	13.635	997.887	757.204
77.666	13.729	996.948	756.857
78.680	13.646	996.442	756.023
79.695	13.742	995.697	755.831
80.709	13.852	994.874	755.638
81.724	13.884	994.516	755.444
82.739	13.983	993.888	755.352
83.753	14.055	992.910	754.870
84.768	14.190	992.086	754.789
85.782	14.233	991.313	754.330
86.797	14.183	990.662	753.539
87.812	14.047	989.882	752.265
88.826	14.163	988.680	751.810
89.841	14.078	987.876	750.747
90.855	14.292	986.707	750.757
91.870	14.136	986.156	749.567
92.884	14.300	985.009	749.366
93.899	14.155	984.661	748.383
94.914	14.182	983.446	747.515
95.928	14.252	982.699	747.198
96.943	14.307	981.943	746.804
97.957	13.975	981.725	745.083
98.972	14.250	980.200	745.088
99.987	14.182	979.800	744.415
101.001	14.217	978.245	743.324
102.016	14.256	977.505	742.871
103.030	14.192	976.960	742.106
104.045	14.161	976.203	741.326
105.060	14.151	975.152	740.419
106.074	13.887	974.466	738.657
107.089	13.871	973.465	737.761
108.103	13.923	972.479	737.179
109.118	13.917	971.434	736.297
110.133	13.878	970.689	735.496
111.147	13.933	970.185	735.292
112.162	13.894	969.192	734.303
113.176	13.979	968.708	734.245
114.191	14.063	967.617	733.722
115.206	14.007	967.306	733.176
116.220	13.983	966.312	732.254
117.235	13.953	965.412	731.372
118.249	13.899	964.777	730.591
119.264	13.967	963.692	730.003
120.279	13.972	962.766	729.257
121.293	14.029	961.874	728.768
122.308	14.020	960.870	727.904
123.322	13.802	960.037	726.253
124.337	13.862	959.181	725.804
125.352	13.843	958.027	724.786
126.366	13.794	957.338	723.983
127.381	13.812	956.410	723.296
128.395	13.904	955.115	722.656
129.410	13.933	954.175	722.004
130.424	13.888	953.640	721.343
131.439	13.959	953.019	721.117
132.454	14.069	952.258	720.954
133.468	14.024	951.469	720.099
134.483	13.979	951.008	719.489
135.497	14.026	949.828	718.737
136.512	13.947	949.431	718.031
137.527	13.982	948.110	717.117
138.541	14.040	947.255	716.660
139.556	14.098	947.144	716.763
140.570	14.132	946.218	716.144
141.585	14.150	945.603	715.692
142.600	14.205	944.960	715.377
143.614	14.221	944.026	714.680
144.629	14.280	942.904	714.017
145.643	14.303	941.709	713.147
146.658	14.193	940.873	711.983
147.673	14.081	940.127	710.877
148.687	14.081	939.266	710.161
149.702	14.068	938.269	709.290
150.716	13.954	937.661	708.280
151.731	14.207	936.869	708.699
152.746	14.075	936.539	707.823
153.760	14.100	935.723	707.249
154.775	14.215	934.953	707.094
155.789	14.200	934.405	706.552
156.804	14.216	933.737	706.054
157.819	14.364	933.172	706.191
158.833	14.308	932.451	705.347
159.848	14.285	932.171	704.976
160.862	14.416	930.488	704.195
161.877	14.284	929.657	702.945
162.892	14.152	928.575	701.507
163.906	14.131	927.555	700.585
164.921	14.298	927.108	700.889
165.935	14.157	926.271	699.601
166.950	14.351	925.229	699.567
167.964	14.240	924.690	698.632
168.979	14.375	923.429	698.185
169.994	14.294	922.811	697.318
171.008	14.303	922.147	696.789
172.023	14.289	921.915	696.493
173.037	14.308	921.250	696.012
174.052	14.469	920.444	696.012
175.067	14.290	919.883	694.779
176.081	14.102	919.504	693.646
177.096	14.340	918.692	693.967
178.110	14.337	917.894	693.289
179.125	14.283	917.555	692.748
180.140	14.339	917.165	692.623
181.154	14.342	916.561	692.117
182.169	14.472	915.860	692.068
183.183	14.583	915.255	692.011
184.198	14.522	914.403	691.053
185.213	14.481	914.040	690.546
186.227	14.493	913.259	689.947
187.242	14.644	912.497	689.933
188.256	14.655	912.044	689.575
189.271	14.582	911.106	688.501
190.286	14.518	910.117	687.431
191.300	14.146	910.097	685.820
192.315	14.317	908.773	685.468
193.329	14.209	908.510	684.764
194.344	14.336	907.871	684.741
195.359	14.384	907.330	684.474
196.373	14.543	906.680	684.575
197.388	14.648	906.541	684.840
198.402	14.774	906.278	685.095
199.417	14.832	905.412	684.620
200.432	14.840	904.906	684.208
201.446	14.825	904.418	683.718
202.461	14.974	904.016	683.961
203.475	14.900	903.319	683.072
204.490	14.856	902.329	682.083
205.504	14.722	901.522	680.867
206.519	14.809	900.903	680.692
207.534	14.592	900.692	679.591
208.548	14.720	899.733	679.326
209.563	14.761	899.126	678.976
210.577	14.853	898.594	678.886
211.592	14.960	897.843	678.693
212.607	14.930	897.029	677.898
213.621	14.858	896.348	677.031
214.636	14.752	896.040	676.308
215.650	14.967	894.925	676.277
216.665	15.071	894.009	675.946
217.680	15.093	893.627	675.686
218.694	15.103	892.999	675.192
219.709	15.012	892.242	674.191
220.723	14.990	891.564	673.530
221.738	15.166	891.041	673.784
222.753	15.067	890.514	672.929
223.767	15.112	890.030	672.684
224.782	15.165	889.264	672.257
225.796	15.139	889.144	672.004
226.811	15.073	888.369	671.095
227.826	15.106	886.994	670.128
228.840	15.134	887.086	670.250
229.855	15.187	885.802	669.433
230.869	15.074	885.213	668.479
231.884	14.968	884.674	667.588
232.899	15.026	884.001	667.254
233.913	15.127	883.045	666.872
234.928	14.980	882.438	665.770
235.942	14.963	881.635	665.041
236.957	15.019	881.412	665.036
237.972	14.955	880.952	664.374
238.986	15.106	879.929	664.145
240.001	15.031	879.976	663.824
241.015	15.023	879.309	663.229
242.030	15.225	878.249	663.172
243.045	15.325	878.007	663.323
244.059	15.159	877.523	662.245
245.074	15.316	876.702	662.186
246.088	15.150	876.065	660.990
247.103	15.397	875.459	661.450
248.117	15.323	875.406	661.058
249.132	15.505	874.582	661.096
250.147	15.596	874.001	660.954
251.161	15.526	873.358	660.134
252.176	15.695	872.653	660.208
253.190	15.723	871.809	659.619
254.205	15.626	871.165	658.695
255.220	15.532	870.883	658.056
256.234	15.610	870.243	657.818
257.249	15.645	869.483	657.323
258.263	15.645	868.802	656.751
259.278	15.573	868.414	656.116
260.293	15.747	867.817	656.285
261.307	15.841	867.043	656.009
262.322	15.877	866.697	655.831
263.336	15.876	865.600	654.939
264.351	15.891	864.835	654.360
265.366	15.926	864.355	654.073
266.380	15.863	863.874	653.408
267.395	15.814	863.165	652.625
268.409	15.756	862.628	651.937
269.424	15.989	861.358	651.818
270.439	15.852	860.758	650.778
271.453	15.671	860.794	650.048
272.468	15.837	859.921	649.974
273.482	15.749	859.187	649.020
274.497	15.792	858.710	648.767
275.512	15.978	857.923	648.833
276.526	15.945	857.659	648.448
277.541	15.879	857.155	647.756
278.555	15.897	856.282	647.110
279.570	16.123	855.832	647.578
280.585	16.120	855.048	646.915
281.599	16.066	854.410	646.171
282.614	15.939	853.962	645.289
283.628	15.872	853.327	644.494
284.643	15.953	853.012	644.509
285.657	15.993	852.165	643.964
286.672	15.986	851.618	643.468
287.687	16.056	850.923	643.154
288.701	16.093	850.147	642.652
289.716	16.005	849.913	642.082
290.730	16.104	849.383	642.001
291.745	16.270	848.602	641.985
292.760	16.123	848.299	641.140
293.774	16.203	847.677	640.918
294.789	16.133	846.949	640.046
295.803	16.138	845.979	639.276
296.818	16.147	845.528	638.911
297.833	16.224	844.638	638.472
298.847	16.253	844.042	638.077
299.862	16.195	843.865	637.666
300.876	16.319	843.095	637.498
301.891	16.412	842.587	637.405
302.906	16.394	842.173	636.969
303.920	16.443	841.927	636.913
304.935	16.475	841.103	636.353
305.949	16.486	840.233	635.680
306.964	16.412	839.908	635.100
307.979	16.420	839.397	634.687
308.993	16.378	838.777	634.003
310.008	16.684	837.913	634.441
311.022	16.475	837.326	633.157
312.037	16.387	837.138	632.630
313.052	16.346	836.051	631.600
314.066	16.376	835.915	631.554
315.081	16.194	835.631	630.604
316.095	16.388	834.136	630.144
317.110	16.304	834.132	629.770
318.125	16.354	833.511	629.433
319.139	16.284	833.319	628.971
320.154	16.322	833.189	628.957
321.168	16.404	832.361	628.582
322.183	16.348	831.968	628.020
323.197	16.499	831.002	627.797
324.212	16.512	830.429	627.356
325.227	16.617	829.746	627.178
326.241	16.495	829.271	626.309
327.256	16.623	828.533	626.169
328.270	16.495	828.066	625.290
329.285	16.414	827.696	624.655
330.300	16.536	827.257	624.718
331.314	16.590	826.845	624.551
332.329	16.663	826.333	624.380
333.343	16.576	825.968	623.729
334.358	16.583	825.513	623.356
335.373	16.669	825.160	623.347
336.387	16.712	824.864	623.227
337.402	16.672	824.774	622.956
338.416	16.809	824.495	623.197
339.431	16.908	823.870	623.034
340.446	16.963	823.252	622.712
341.460	16.881	822.923	622.108
342.475	16.994	822.476	622.129
343.489	17.006	822.133	621.856
344.504	17.084	821.628	621.706
345.519	17.033	821.318	621.228
346.533	16.992	820.903	620.712
347.548	16.767	820.432	619.479
348.562	16.934	819.619	619.421
349.577	16.841	819.011	618.567
350.592	16.873	818.260	618.060
351.606	16.862	817.646	617.501
352.621	16.898	816.837	616.968
353.635	16.850	816.288	616.323
354.650	16.846	816.108	616.117
355.665	16.934	815.156	615.663
356.679	17.042	814.521	615.522
357.694	16.964	813.865	614.691
358.708	16.984	813.401	614.355
359.723	17.102	812.907	614.357
360.738	17.145	812.262	613.971
361.752	17.131	811.386	613.205
362.767	17.070	811.282	612.851
363.781	17.203	810.703	612.837
364.796	17.235	810.026	612.386
365.810	17.493	809.575	612.921
366.825	17.422	809.311	612.410
367.840	17.312	808.919	611.665
368.854	17.323	808.429	611.281
369.869	17.352	808.171	611.133
370.883	17.192	808.045	610.411
371.898	17.426	807.442	610.740
372.913	17.458	807.026	610.487
373.927	17.439	806.243	609.774
374.942	17.557	805.889	609.875
375.956	17.494	805.564	609.347
376.971	17.523	805.207	609.129
377.986	17.545	804.813	608.856
379.000	17.452	804.487	608.221
380.015	17.728	803.584	608.470
381.029	17.534	803.327	607.530
382.044	17.483	802.664	606.793
383.059	17.687	802.096	607.036
384.073	17.536	801.439	605.947
385.088	17.463	800.977	605.286
386.102	17.435	800.453	604.738
387.117	17.604	799.625	604.658
388.132	17.647	799.098	604.358
389.146	17.502	798.925	603.662
390.161	17.733	798.331	603.977
391.175	17.664	797.691	603.194
392.190	17.615	797.225	602.616
393.205	17.631	797.111	602.532
394.219	17.635	796.108	601.734
395.234	17.517	795.974	601.162
396.248	17.532	795.760	601.002
397.263	17.439	795.226	600.217
398.278	17.524	794.751	600.106
399.292	17.542	794.395	599.846
400.307	17.586	793.750	599.463
401.321	17.518	793.227	598.774
402.336	17.529	793.140	598.694
403.350	17.585	792.827	598.603
404.365	17.682	792.424	598.585
405.380	17.830	791.519	598.369
406.394	17.828	791.125	598.010
407.409	17.841	790.669	597.657
408.423	17.897	790.902	597.976
409.438	17.864	790.411	597.438
410.453	17.998	790.025	597.562
411.467	18.049	789.251	597.100
412.482	18.179	788.846	597.195
413.496	18.102	788.767	596.815
414.511	18.235	788.399	596.947
415.526	18.222	787.697	596.317
416.540	18.131	787.179	595.555
417.555	18.207	786.894	595.552
418.569	18.140	786.378	594.876
419.584	18.107	786.046	594.459
420.599	18.106	786.071	594.420
421.613	157.304	1370.118	1797.304
422.628	135.973	1455.186	1797.387
