DTS Sentinel unit serial number:	SN413079Multiplexer serial number:	ORYXHardware model number:	OX4-SRSoftware version number:	ORYX F/W v4.00 Oryx Data Collector v3.7.2.0data status	okinstallation	princeton_trtdifferential loss correction	single-endedforward channel	channel 1reverse channel	N/Adate	2019/09/12time	04:40:11forward acquisition time	60.00reverse acquisition time	0.00gamma	496.2192k internal	0.2324k external	0.2324temperature offset calibration	1.0114default loss term (dB/km)	0.3790temperature slope calibration	1.0000multiplexer offset coefficient	1.0000multiplexer slope coefficient	1.0000fibre end	0.00T internal ref (°C)	31.62T ext. ref 1 (°C)	2.68T ext. ref 2 (°C)	27.16length (m)	temperature (°C)	Stokes	anti-Stokes-747.200	-200.000	0.076	-0.390
-746.185	-70.031	-0.334	-0.128
-745.171	-134.604	0.071	-0.009
-744.156	-83.211	0.271	-0.088
-743.142	-200.000	-0.042	-0.243
-742.127	354.743	0.173	0.347
-741.112	299.355	0.155	0.289
-740.098	-14.212	-0.415	0.270
-739.083	46.865	0.119	-0.112
-738.069	253.419	0.139	0.239
-737.054	-200.000	-0.035	0.344
-736.039	28.456	0.033	0.028
-735.025	2.414	-0.139	0.102
-734.010	-22.575	-0.232	-0.142
-732.996	12.710	-0.281	-0.219
-731.981	335.031	0.158	-0.309
-730.966	-61.437	-0.251	-0.106
-729.952	26.228	0.115	-0.097
-728.937	-53.876	0.166	-0.077
-727.923	60.779	-0.212	-0.212
-726.908	800.000	0.022	-0.062
-725.894	-106.140	0.249	-0.056
-724.879	107.505	-0.279	-0.335
-723.864	703.355	-0.034	-0.092
-722.850	-79.823	-0.320	0.109
-721.835	15.564	0.228	-0.181
-720.821	-48.079	0.093	-0.046
-719.806	-2.428	-0.113	-0.080
-718.791	-200.000	-0.079	0.716
-717.777	-27.671	0.104	0.061
-716.762	-200.000	0.048	-0.281
-715.748	-127.643	-0.424	0.062
-714.733	-70.218	-0.355	-0.136
-713.718	-46.619	-0.188	0.093
-712.704	-13.633	0.049	-0.032
-711.689	-42.744	0.338	0.173
-710.675	106.564	-0.212	-0.253
-709.660	65.415	0.211	0.215
-708.645	571.374	0.050	0.124
-707.631	184.527	-0.215	0.321
-706.616	-47.656	-0.144	0.070
-705.602	-75.806	0.170	-0.061
-704.587	39.080	-0.079	-0.071
-703.572	-200.000	-0.020	-0.276
-702.558	-200.000	0.057	-0.299
-701.543	800.000	-0.088	0.273
-700.529	-109.429	-0.213	0.045
-699.514	63.706	0.378	-0.383
-698.499	-74.818	-0.153	-0.055
-697.485	25.888	-0.264	-0.222
-696.470	-200.000	-0.025	-0.257
-695.456	-13.775	-0.058	0.038
-694.441	162.466	0.202	0.286
-693.426	111.115	-0.263	-0.320
-692.412	-65.714	-0.115	0.046
-691.397	56.042	-0.073	0.071
-690.383	22.522	-0.298	0.246
-689.368	-29.940	0.248	0.142
-688.354	-94.672	-0.222	0.061
-687.339	39.514	-0.152	0.138
-686.324	244.944	-0.183	0.311
-685.310	36.211	0.051	-0.046
-684.295	8.459	0.241	-0.183
-683.281	-200.000	0.038	-0.335
-682.266	-56.245	-0.119	-0.054
-681.251	-33.507	0.177	0.099
-680.237	-47.248	-0.142	0.070
-679.222	800.000	-0.023	0.072
-678.208	-110.330	0.184	0.039
-677.193	507.290	-0.052	0.122
-676.178	-37.070	0.153	-0.083
-675.164	415.980	-0.125	-0.269
-674.149	633.609	0.032	0.080
-673.135	30.619	0.237	-0.204
-672.120	-200.000	-0.068	-0.390
-671.105	-200.000	-0.008	0.087
-670.091	331.294	-0.048	-0.094
-669.076	657.819	-0.074	-0.191
-668.062	135.483	0.160	-0.210
-667.047	179.469	0.168	0.248
-666.032	20.651	-0.124	0.101
-665.018	-64.845	-0.253	-0.103
-664.003	210.579	0.071	-0.112
-662.989	-39.042	0.337	0.178
-661.974	228.969	0.159	-0.261
-660.959	800.000	-0.040	-0.151
-659.945	-151.723	-0.288	-0.021
-658.930	-200.000	0.011	-0.194
-657.916	4.622	-0.273	-0.202
-656.901	264.731	-0.242	0.424
-655.886	-200.000	-0.035	-0.192
-654.872	-43.509	-0.225	-0.114
-653.857	-5.451	-0.315	-0.218
-652.843	-14.208	-0.228	-0.148
-651.828	-2.528	0.392	-0.276
-650.814	-119.665	-0.172	-0.030
-649.799	800.000	0.017	0.059
-648.784	-19.422	-0.128	0.080
-647.770	244.076	0.012	0.021
-646.755	108.038	0.065	0.077
-645.741	-200.000	-0.032	-0.279
-644.726	-77.170	-0.189	-0.066
-643.711	-81.511	0.252	-0.083
-642.697	46.822	0.306	0.286
-641.682	-123.922	-0.121	0.019
-640.668	42.605	0.113	0.103
-639.653	118.700	0.082	0.102
-638.638	55.889	-0.265	-0.258
-637.624	800.000	-0.066	-0.221
-636.609	150.320	-0.041	0.056
-635.595	6.923	0.220	-0.164
-634.580	196.446	0.144	-0.221
-633.565	504.258	0.027	-0.063
-632.551	800.000	0.024	0.077
-631.536	53.631	-0.158	-0.153
-630.522	-16.574	-0.120	0.076
-629.507	638.455	0.053	-0.135
-628.492	26.850	0.093	-0.078
-627.478	-173.526	0.232	0.007
-626.463	34.363	-0.296	0.260
-625.449	17.297	0.060	-0.048
-624.434	-97.093	-0.450	-0.118
-623.419	-200.000	0.043	-0.214
-622.405	9.919	-0.160	-0.122
-621.390	212.306	0.077	0.122
-620.376	-200.000	-0.028	0.341
-619.361	30.285	0.110	-0.095
-618.346	-81.527	0.127	-0.042
-617.332	-124.071	0.219	-0.035
-616.317	-168.725	-0.325	0.012
-615.303	313.826	0.111	-0.209
-614.288	800.000	-0.204	-0.657
-613.273	-4.791	0.224	0.155
-612.259	-159.226	0.220	-0.012
-611.244	-69.603	-0.131	0.050
-610.230	-200.000	0.001	-0.051
-609.215	57.263	-0.132	-0.129
-608.201	-159.741	0.250	0.014
-607.186	-52.901	-0.325	-0.150
-606.171	-200.000	0.040	-0.194
-605.157	-200.000	0.042	-0.289
-604.142	-36.518	0.018	-0.010
-603.128	300.728	-0.056	0.104
-602.113	159.492	-0.119	-0.167
-601.098	-4.928	-0.177	-0.122
-600.084	-11.218	0.187	-0.124
-599.069	31.595	-0.245	-0.211
-598.055	-200.000	-0.003	0.196
-597.040	800.000	0.053	-0.193
-596.025	-9.213	0.370	0.248
-595.011	-109.998	0.199	-0.042
-593.996	-200.000	0.022	0.138
-592.982	-85.079	-0.166	0.052
-591.967	55.949	-0.078	0.076
-590.952	227.239	0.173	0.282
-589.938	260.267	0.046	0.080
-588.923	384.400	-0.128	0.265
-587.909	376.903	0.166	0.339
-586.894	109.825	0.039	0.047
-585.879	-200.000	-0.036	-0.284
-584.865	-200.000	0.031	-0.236
-583.850	119.302	-0.076	-0.095
-582.836	18.604	0.267	-0.214
-581.821	800.000	-0.104	-0.288
-580.806	-64.325	0.201	0.082
-579.792	144.473	-0.200	-0.268
-578.777	-94.968	-0.201	-0.055
-577.763	-200.000	-0.060	0.276
-576.748	585.831	-0.046	-0.114
-575.733	30.362	-0.215	-0.184
-574.719	-156.747	0.088	-0.005
-573.704	-200.000	-0.018	-0.122
-572.690	-101.384	-0.070	-0.017
-571.675	-200.000	0.008	0.060
-570.661	-83.523	0.155	-0.050
-569.646	-200.000	0.004	0.294
-568.631	-50.762	-0.215	-0.102
-567.617	277.605	0.141	0.252
-566.602	353.887	0.149	-0.296
-565.588	244.953	-0.337	-0.569
-564.573	-134.280	-0.196	-0.024
-563.558	495.104	-0.059	0.136
-562.544	-42.239	0.276	-0.141
-561.529	134.984	-0.083	0.107
-560.515	-137.907	-0.179	-0.020
-559.500	536.222	0.040	0.096
-558.485	58.312	-0.166	0.163
-557.471	-49.401	0.446	-0.213
-556.456	800.000	0.026	-0.081
-555.442	282.527	0.103	-0.186
-554.427	118.004	-0.310	-0.383
-553.412	-95.521	0.036	-0.010
-552.398	-46.032	-0.232	0.114
-551.383	314.945	-0.064	-0.120
-550.369	-21.076	-0.241	-0.148
-549.354	-189.744	-0.082	0.001
-548.339	33.226	-0.091	-0.079
-547.325	-89.719	-0.240	0.070
-546.310	94.924	-0.124	-0.142
-545.296	18.125	-0.297	-0.237
-544.281	212.029	-0.234	-0.369
-543.266	115.760	0.063	-0.077
-542.252	172.544	-0.033	0.048
-541.237	215.113	0.069	-0.110
-540.223	19.340	-0.147	0.118
-539.208	-109.987	0.307	-0.064
-538.193	800.000	0.095	-0.297
-537.179	-200.000	-0.047	-0.212
-536.164	-138.704	-0.076	-0.008
-535.150	-29.685	-0.112	-0.064
-534.135	-121.297	-0.043	0.007
-533.121	-200.000	-0.027	-0.157
-532.106	-73.478	0.056	0.020
-531.091	800.000	0.083	0.291
-530.077	136.891	0.224	-0.293
-529.062	-200.000	-0.001	-0.130
-528.048	261.370	-0.130	0.225
-527.033	800.000	-0.075	-0.256
-526.018	-200.000	-0.018	-0.137
-525.004	-200.000	-0.008	-0.396
-523.989	-38.857	-0.192	-0.101
-522.975	316.906	-0.141	0.267
-521.960	620.145	0.176	-0.443
-520.945	394.380	-0.098	-0.204
-519.931	96.333	0.138	-0.158
-518.916	263.803	-0.136	-0.237
-517.902	44.240	-0.145	-0.133
-516.887	800.000	0.099	-0.359
-515.872	114.623	0.183	0.223
-514.858	246.504	-0.146	0.247
-513.843	-127.128	-0.218	0.032
-512.829	40.188	0.079	0.071
-511.814	800.000	0.006	0.021
-510.799	-200.000	-0.013	-0.240
-509.785	273.504	0.075	-0.133
-508.770	114.905	-0.137	0.167
-507.756	50.390	0.137	0.129
-506.741	165.363	-0.207	0.292
-505.726	800.000	-0.085	-0.356
-504.712	-51.292	0.160	0.075
-503.697	268.514	0.154	-0.270
-502.683	238.751	-0.027	0.045
-501.668	-111.318	-0.353	0.072
-500.653	-94.535	-0.375	0.102
-499.639	224.347	0.032	-0.052
-498.624	-200.000	-0.036	0.462
-497.610	151.802	0.105	0.144
-496.595	213.094	0.103	-0.162
-495.581	228.525	0.091	-0.148
-494.566	157.949	0.177	-0.246
-493.551	-145.980	-0.207	0.018
-492.537	486.699	-0.184	-0.420
-491.522	-33.988	-0.202	0.111
-490.508	-4.581	0.227	-0.157
-489.493	800.000	-0.066	0.229
-488.478	458.885	0.110	0.245
-487.464	603.920	-0.047	0.118
-486.449	-127.565	0.165	-0.024
-485.435	-102.589	0.074	0.018
-484.420	-55.122	-0.339	0.152
-483.405	-200.000	-0.048	0.259
-482.391	260.361	0.093	0.160
-481.376	-30.437	0.241	0.137
-480.362	800.000	0.067	0.230
-479.347	-200.000	-0.049	0.274
-478.332	-90.241	0.132	-0.038
-477.318	-200.000	0.014	0.247
-476.303	27.273	0.116	0.097
-475.289	-200.000	0.016	-0.284
-474.274	-200.000	0.021	0.103
-473.259	800.000	0.068	0.237
-472.245	112.899	-0.140	0.170
-471.230	193.984	0.100	-0.151
-470.216	127.010	0.197	0.249
-469.201	163.487	-0.121	0.169
-468.186	224.381	-0.216	-0.348
-467.172	800.000	-0.089	0.298
-466.157	-200.000	-0.012	-0.113
-465.143	-45.513	0.056	0.028
-464.128	258.632	-0.078	-0.134
-463.113	119.491	0.098	0.122
-462.099	-89.948	-0.013	0.004
-461.084	164.466	0.182	0.256
-460.070	-60.085	-0.031	0.013
-459.055	-150.917	0.266	0.020
-458.040	31.805	-0.046	-0.040
-457.026	-36.218	-0.202	-0.109
-456.011	-138.371	0.094	-0.010
-454.997	-0.531	-0.133	-0.094
-453.982	-22.753	-0.316	0.190
-452.968	229.107	-0.106	0.172
-451.953	204.881	-0.056	0.087
-450.938	627.123	-0.070	-0.177
-449.924	-29.388	0.170	-0.097
-448.909	800.000	0.045	0.170
-447.895	-65.163	0.358	-0.144
-446.880	510.841	-0.152	-0.352
-445.865	800.000	-0.017	0.059
-444.851	-53.386	0.334	0.153
-443.836	56.868	0.190	-0.185
-442.822	-85.683	-0.168	-0.052
-441.807	-17.162	0.223	0.141
-440.792	-200.000	-0.055	-0.347
-439.778	-75.528	-0.281	0.100
-438.763	-54.629	-0.222	-0.100
-437.749	78.831	-0.102	-0.109
-436.734	-200.000	-0.042	0.204
-435.719	-47.174	0.120	-0.059
-434.705	-200.000	0.013	0.195
-433.690	-200.000	-0.050	-0.305
-432.676	-33.628	-0.167	0.092
-431.661	-141.050	0.120	-0.012
-430.646	374.435	-0.083	0.168
-429.632	168.191	-0.134	0.190
-428.617	-135.848	0.181	-0.021
-427.603	67.492	0.269	0.274
-426.588	-29.926	-0.230	0.131
-425.573	-114.016	-0.276	-0.053
-424.559	-116.882	0.468	0.085
-423.544	-96.259	0.289	-0.076
-422.530	442.661	-0.024	-0.052
-421.515	-177.446	0.313	-0.008
-420.500	800.000	-0.063	0.229
-419.486	174.651	0.161	0.232
-418.471	-200.000	-0.018	0.109
-417.457	145.797	-0.090	-0.121
-416.442	-200.000	-0.017	0.142
-415.428	704.104	0.070	0.184
-414.413	-116.705	0.144	0.026
-413.398	-30.853	0.243	0.137
-412.384	291.585	0.173	-0.315
-411.369	-9.547	-0.157	-0.104
-410.355	104.626	-0.094	0.111
-409.340	800.000	0.120	0.362
-408.325	-200.000	0.011	0.211
-407.311	282.363	0.101	-0.181
-406.296	44.472	0.130	0.119
-405.282	800.000	0.090	0.316
-404.267	23.138	-0.137	-0.112
-403.252	-200.000	-0.072	0.345
-402.238	-200.000	0.038	-0.253
-401.223	-93.337	-0.021	0.006
-400.209	122.587	0.067	-0.084
-399.194	357.206	0.087	0.172
-398.179	233.180	-0.047	-0.077
-397.165	22.801	-0.190	0.155
-396.150	-99.113	0.202	0.051
-395.136	-131.306	0.202	0.027
-394.121	800.000	-0.007	-0.024
-393.106	-83.784	0.009	0.003
-392.092	-9.425	0.081	0.054
-391.077	-162.343	-0.220	0.011
-390.063	302.441	-0.120	-0.220
-389.048	-200.000	0.032	-0.159
-388.033	-200.000	-0.005	0.059
-387.019	-178.883	0.252	0.006
-386.004	-78.515	-0.074	0.025
-384.990	138.770	-0.156	-0.204
-383.975	-200.000	-0.008	-0.120
-382.960	110.523	-0.130	0.155
-381.946	800.000	-0.127	0.371
-380.931	-200.000	-0.064	0.391
-379.917	-36.475	0.014	0.008
-378.902	145.745	0.135	-0.180
-377.888	-28.946	0.132	0.075
-376.873	221.634	-0.136	0.218
-375.858	546.157	-0.006	0.015
-374.844	800.000	-0.039	0.144
-373.829	-130.631	0.051	-0.007
-372.815	-200.000	-0.040	-0.179
-371.800	-41.906	0.315	0.160
-370.785	282.732	-0.087	0.156
-369.771	800.000	0.056	-0.237
-368.756	15.674	-0.336	0.263
-367.742	-200.000	-0.010	0.154
-366.727	-107.698	-0.178	-0.039
-365.712	-12.682	0.130	-0.084
-364.698	-132.784	-0.416	-0.053
-363.683	23.571	0.111	0.091
-362.669	-36.262	0.160	-0.086
-361.654	-124.949	-0.216	0.033
-360.639	-200.000	0.008	0.040
-359.625	33.596	-0.179	0.154
-358.610	-9.828	0.367	0.243
-357.596	-106.529	-0.166	0.037
-356.581	-110.970	0.341	0.070
-355.566	219.371	-0.132	-0.211
-354.552	-55.575	0.064	-0.029
-353.537	-200.000	0.074	-0.338
-352.523	800.000	0.086	0.351
-351.508	35.262	0.126	-0.109
-350.493	800.000	-0.085	-0.276
-349.479	-30.062	0.150	0.085
-348.464	35.308	-0.173	-0.151
-347.450	800.000	0.031	0.090
-346.435	800.000	0.053	-0.148
-345.420	800.000	0.131	-0.386
-344.406	-35.839	0.232	0.125
-343.391	19.946	0.118	0.095
-342.377	-183.188	0.090	-0.002
-341.362	-200.000	0.011	0.254
-340.348	800.000	0.034	-0.099
-339.333	-165.886	0.264	-0.011
-338.318	205.383	-0.108	-0.167
-337.304	254.065	0.261	0.444
-336.289	-63.051	-0.311	0.128
-335.275	-200.000	0.023	-0.195
-334.260	487.559	-0.105	0.238
-333.245	310.620	-0.165	-0.307
-332.231	800.000	0.033	0.140
-331.216	479.788	-0.086	0.194
-330.202	98.392	0.071	-0.081
-329.187	-35.348	-0.185	-0.100
-328.172	-96.169	-0.056	-0.015
-327.158	-79.474	-0.065	0.022
-326.143	-77.139	0.249	-0.086
-325.129	106.209	-0.063	-0.074
-324.114	86.176	0.135	-0.147
-323.099	-131.099	0.369	-0.049
-322.085	92.496	0.190	0.213
-321.070	41.960	-0.057	0.052
-320.056	216.729	0.048	-0.075
-319.041	-38.765	0.150	0.079
-318.026	-200.000	0.002	-0.376
-317.012	425.507	-0.092	0.198
-315.997	-200.000	-0.016	0.310
-314.983	-10.896	-0.151	0.099
-313.968	-92.714	0.156	-0.043
-312.953	-130.434	-0.201	-0.027
-311.939	61.519	-0.300	-0.297
-310.924	66.571	0.076	0.076
-309.910	15.209	0.274	0.213
-308.895	1.879	0.131	0.093
-307.880	-29.210	0.157	-0.089
-306.866	9.079	-0.249	0.187
-305.851	-53.950	0.038	-0.017
-304.837	110.688	-0.152	0.182
-303.822	800.000	-0.093	0.290
-302.807	-10.246	0.201	0.132
-301.793	138.147	-0.097	0.126
-300.778	-145.052	-0.097	0.009
-299.764	140.863	0.236	-0.310
-298.749	-200.000	-0.011	0.264
-297.735	-129.326	0.290	-0.040
-296.720	-130.658	-0.185	-0.025
-295.705	38.724	-0.044	-0.039
-294.691	190.246	-0.157	-0.233
-293.676	-161.276	-0.140	-0.007
-292.662	-151.585	0.342	0.025
-291.647	-160.377	-0.444	-0.024
-290.632	800.000	-0.024	0.066
-289.618	-166.656	0.120	0.005
-288.603	-200.000	0.005	0.156
-287.589	-200.000	-0.018	0.127
-286.574	800.000	0.046	-0.136
-285.559	-88.117	0.164	-0.049
-284.545	-200.000	0.000	0.406
-283.530	205.851	-0.083	-0.127
-282.516	193.307	0.107	0.160
-281.501	61.873	-0.116	-0.115
-280.486	-92.395	-0.289	0.081
-279.472	-122.764	0.227	0.036
-278.457	43.311	-0.184	0.167
-277.443	659.026	0.047	0.120
-276.428	-200.000	-0.016	0.103
-275.413	-200.000	-0.063	0.335
-274.399	88.029	0.144	-0.158
-273.384	64.817	-0.247	-0.247
-272.370	-200.000	0.032	-0.150
-271.355	-200.000	0.062	-0.311
-270.340	718.844	0.141	0.372
-269.326	-41.820	-0.180	-0.091
-268.311	129.303	0.081	0.103
-267.297	800.000	0.053	-0.215
-266.282	-115.028	0.176	-0.033
-265.267	800.000	0.129	0.354
-264.253	705.017	-0.158	-0.414
-263.238	75.232	0.214	0.224
-262.224	-128.025	-0.225	0.032
-261.209	-200.000	-0.034	0.170
-260.195	-96.443	0.266	-0.070
-259.180	99.124	0.206	-0.236
-258.165	-110.640	-0.365	-0.075
-257.151	118.376	-0.129	-0.158
-256.136	129.728	0.069	0.088
-255.122	88.305	-0.247	0.272
-254.107	-115.984	0.172	0.032
-253.092	10.598	-0.179	-0.135
-252.078	61.923	0.093	0.091
-251.063	439.280	0.098	-0.212
-250.049	-92.265	-0.241	-0.067
-249.034	27.930	-0.111	0.093
-248.019	-90.350	0.098	-0.028
-247.005	-94.869	-0.295	0.079
-245.990	62.995	-0.098	-0.097
-244.976	800.000	0.026	-0.078
-243.961	-41.123	0.134	0.069
-242.946	-41.669	0.234	-0.119
-241.932	-163.639	-0.209	-0.010
-240.917	-147.067	0.120	-0.010
-239.903	410.339	-0.137	0.288
-238.888	-44.539	0.193	-0.095
-237.873	187.164	0.122	0.179
-236.859	-19.890	-0.105	0.064
-235.844	63.303	0.061	0.061
-234.830	75.393	-0.125	-0.131
-233.815	-72.230	0.070	0.026
-232.800	-89.826	0.128	-0.037
-231.786	-196.638	0.175	-0.001
-230.771	-94.691	0.088	0.024
-229.757	-200.000	0.007	-0.179
-228.742	-30.982	-0.274	0.153
-227.727	800.000	0.131	0.491
-226.713	76.520	-0.226	0.236
-225.698	84.022	0.174	-0.188
-224.684	-115.551	0.240	0.045
-223.669	-200.000	-0.001	0.149
-222.655	-82.439	0.323	0.104
-221.640	42.056	0.080	0.072
-220.625	112.510	-0.090	-0.108
-219.611	-148.171	-0.140	0.011
-218.596	653.510	-0.085	0.216
-217.582	194.608	-0.167	-0.250
-216.567	-200.000	-0.052	-0.293
-215.552	-200.000	-0.001	0.455
-214.538	-72.872	-0.418	0.152
-213.523	-32.005	-0.292	-0.161
-212.509	248.359	0.020	-0.033
-211.494	-177.711	0.330	0.008
-210.479	258.160	0.078	-0.133
-209.465	-15.149	-0.235	0.149
-208.450	-200.000	0.335	-0.000
-207.436	-120.997	-0.480	-0.080
-206.421	1.752	0.133	0.095
-205.406	406.979	-0.018	-0.038
-204.392	-176.201	0.238	-0.006
-203.377	-40.231	-0.257	-0.132
-202.363	290.348	-0.063	-0.113
-201.348	-41.488	0.499	0.254
-200.333	137.676	0.093	-0.120
-199.319	68.587	0.102	-0.103
-198.304	-162.977	0.246	0.012
-197.290	-108.954	0.122	-0.026
-196.275	-54.236	-0.252	-0.113
-195.260	-200.000	-0.021	0.165
-194.246	-200.000	0.026	-0.198
-193.231	-30.910	0.099	0.056
-192.217	-200.000	0.023	0.132
-191.202	-200.000	-0.004	0.063
-190.187	800.000	-0.060	-0.258
-189.173	35.917	0.064	0.055
-188.158	-200.000	-0.073	0.388
-187.144	-200.000	0.028	0.194
-186.129	-118.756	-0.321	-0.056
-185.114	-77.391	0.157	-0.054
-184.100	-34.539	-0.296	-0.160
-183.085	800.000	-0.020	0.077
-182.071	800.000	0.044	-0.163
-181.056	-20.383	0.054	0.033
-180.042	-85.410	-0.103	0.032
-179.027	353.418	0.048	-0.095
-178.012	-200.000	-0.019	0.199
-176.998	-114.878	-0.184	-0.035
-175.983	-162.319	0.393	0.019
-174.969	-92.323	0.187	-0.052
-173.954	-200.000	0.024	0.115
-172.939	-200.000	0.010	0.389
-171.925	800.000	0.045	0.178
-170.910	-162.251	-0.156	-0.008
-169.896	83.204	0.225	-0.241
-168.881	166.125	0.140	-0.195
-167.866	-200.000	-0.016	0.211
-166.852	-137.022	0.438	-0.050
-165.837	28.000	-0.241	-0.201
-164.823	97.489	-0.162	-0.184
-163.808	162.026	-0.151	-0.208
-162.793	-57.624	-0.178	-0.077
-161.779	-104.186	-0.171	-0.039
-160.764	-178.042	-0.378	-0.009
-159.750	-57.452	0.069	0.030
-158.735	730.997	0.089	-0.234
-157.720	-200.000	-0.034	0.178
-156.706	-200.000	0.010	0.087
-155.691	74.913	0.109	0.113
-154.677	800.000	-0.059	0.214
-153.662	59.081	0.260	0.252
-152.647	800.000	0.066	-0.248
-151.633	281.049	0.106	-0.187
-150.618	243.408	0.145	-0.240
-149.604	-54.599	0.039	-0.017
-148.589	407.325	-0.106	0.221
-147.574	-200.000	-0.037	-0.190
-146.560	-60.598	-0.280	-0.117
-145.545	-200.000	-0.008	0.087
-144.531	97.010	-0.182	-0.206
-143.516	-200.000	0.062	0.296
-142.502	-84.025	-0.344	0.108
-141.487	74.029	0.127	0.131
-140.472	-200.000	0.085	-0.393
-139.458	302.210	-0.117	0.213
-138.443	403.281	0.088	0.184
-137.429	-200.000	-0.009	-0.142
-136.414	351.768	-0.134	0.261
-135.399	61.366	-0.041	-0.041
-134.385	114.776	-0.125	0.150
-133.370	123.032	-0.076	0.094
-132.356	-123.078	0.194	0.031
-131.341	10.769	-0.163	0.122
-130.326	462.980	-0.129	0.285
-129.312	75.872	-0.019	-0.020
-128.297	337.451	-0.043	-0.082
-127.283	-23.281	-0.280	-0.166
-126.268	161.859	0.107	-0.147
-125.253	-93.210	-0.088	0.024
-124.239	-133.990	0.207	0.025
-123.224	-46.726	-0.311	0.150
-122.210	-200.000	-0.007	0.135
-121.195	-173.853	-0.339	-0.010
-120.180	-36.744	-0.079	-0.042
-119.166	229.062	0.143	-0.230
-118.151	-77.924	-0.144	-0.049
-117.137	109.053	0.075	0.088
-116.122	-200.000	0.005	0.111
-115.107	-111.037	-0.124	-0.025
-114.093	107.753	0.192	-0.225
-113.078	-109.032	0.298	0.062
-112.064	-63.311	0.082	0.033
-111.049	125.881	-0.293	0.365
-110.034	-200.000	0.004	0.450
-109.020	-74.381	0.019	-0.007
-108.005	17.256	0.095	-0.075
-106.991	117.197	0.103	0.125
-105.976	800.000	-0.058	0.223
-104.962	-87.058	0.172	-0.052
-103.947	-110.724	-0.184	-0.037
-102.932	-200.000	0.021	-0.133
-101.918	-74.965	-0.165	-0.058
-100.903	-200.000	0.001	-0.028
-99.889	18.448	-0.156	-0.122
-98.874	342.986	-0.190	-0.367
-97.859	606.658	0.048	0.117
-96.845	-200.000	-0.203	0.000
-95.830	-151.415	-0.068	-0.005
-94.816	800.000	-0.033	-0.093
-93.801	800.000	0.104	-0.359
-92.786	371.004	-0.068	-0.136
-91.772	-106.697	-0.434	-0.095
-90.757	-133.434	0.057	0.007
-89.743	-27.473	0.125	0.071
-88.728	-200.000	0.050	0.243
-87.713	506.819	0.104	0.238
-86.699	88.673	0.259	-0.283
-85.684	-113.520	-0.086	-0.017
-84.670	-54.851	0.092	-0.041
-83.655	-47.041	-0.300	-0.144
-82.640	-104.035	0.318	0.073
-81.626	-200.000	-0.042	0.424
-80.611	-93.412	0.228	-0.062
-79.597	365.662	-0.090	0.177
-78.582	-48.722	-0.109	0.051
-77.567	-58.564	-0.173	-0.074
-76.553	3.431	0.078	-0.056
-75.538	800.000	0.053	-0.187
-74.524	507.705	-0.111	0.253
-73.509	-200.000	-0.049	0.432
-72.494	-200.000	-0.016	-0.077
-71.480	-99.809	0.185	0.046
-70.465	168.840	-0.175	-0.245
-69.451	2.136	-0.160	0.114
-68.436	543.976	0.137	-0.321
-67.422	-200.000	-0.010	0.335
-66.407	-200.000	0.024	-0.176
-65.392	-86.864	-0.281	-0.084
-64.378	800.000	0.057	-0.232
-63.363	519.153	-0.082	-0.189
-62.349	252.877	-0.056	-0.095
-61.334	359.393	-0.649	-1.275
-60.319	62.647	0.394	0.387
-59.305	592.629	-0.389	-0.944
-58.290	142.383	0.667	0.870
-57.276	353.262	0.736	1.434
-56.261	-200.000	97.051	598.051
-55.246	550.307	1372.340	3234.425
-54.232	161.977	2549.513	3509.248
-53.217	113.133	2132.311	2540.764
-52.203	43.599	1593.598	1432.205
-51.188	35.166	1331.469	1146.382
-50.173	31.922	1289.988	1091.777
-49.159	54.698	1338.512	1268.322
-48.144	56.760	1354.332	1295.455
-47.130	35.252	1313.261	1131.034
-46.115	31.822	1295.093	1095.341
-45.100	31.633	1290.293	1090.141
-44.086	31.621	1287.813	1087.933
-43.071	31.525	1285.390	1085.281
-42.057	31.445	1283.372	1083.075
-41.042	31.529	1281.769	1082.161
-40.027	31.542	1280.584	1081.197
-39.013	31.604	1278.511	1079.760
-37.998	31.567	1276.919	1078.159
-36.984	31.622	1275.270	1077.043
-35.969	31.549	1273.647	1075.206
-34.954	31.691	1271.381	1074.067
-33.940	31.606	1270.231	1072.566
-32.925	31.678	1269.042	1071.930
-31.911	31.757	1267.627	1071.145
-30.896	31.713	1265.701	1069.222
-29.881	31.737	1264.765	1068.525
-28.867	31.650	1263.829	1067.197
-27.852	31.631	1262.205	1065.675
-26.838	31.783	1260.345	1064.927
-25.823	31.770	1259.188	1063.831
-24.809	31.721	1258.150	1062.638
-23.794	31.730	1256.315	1061.098
-22.779	31.784	1255.158	1060.382
-21.765	31.770	1254.356	1059.584
-20.750	31.702	1251.944	1057.121
-19.736	31.695	1251.237	1056.443
-18.721	31.529	1250.380	1054.738
-17.706	31.673	1248.762	1054.144
-16.692	31.725	1247.590	1053.403
-15.677	31.609	1246.547	1051.830
-14.663	31.648	1245.626	1051.232
-13.648	31.542	1244.852	1049.939
-12.633	31.572	1243.604	1049.014
-11.619	31.564	1243.159	1048.551
-10.604	31.491	1242.382	1047.446
-9.590	31.473	1241.257	1046.356
-8.575	31.519	1239.975	1045.491
-7.560	31.444	1239.311	1044.469
-6.546	31.530	1238.766	1044.453
-5.531	31.408	1238.081	1043.150
-4.517	31.514	1237.012	1042.799
-3.502	31.538	1235.797	1041.869
-2.487	31.446	1235.682	1041.218
-1.473	31.526	1230.693	1037.415
-0.458	30.212	1216.411	1018.126
0.556	28.286	1199.956	984.138
1.571	25.146	1205.180	971.357
2.586	24.447	1220.722	979.960
3.600	23.774	1209.727	967.385
4.615	17.177	1136.657	875.006
5.629	7.087	1060.510	767.592
6.644	2.913	1040.741	733.318
7.659	2.731	1037.926	730.402
8.673	2.572	1036.906	728.865
9.688	2.506	1035.446	727.461
10.702	2.752	1033.907	727.481
11.717	9.051	1042.233	763.313
12.731	19.186	1057.052	822.756
13.746	24.693	1064.021	854.507
14.761	25.984	1065.290	861.625
15.775	25.985	1065.165	861.453
16.790	25.798	1064.303	859.785
17.804	25.781	1063.249	858.777
18.819	26.020	1062.795	859.472
19.834	26.031	1062.928	859.557
20.848	26.120	1062.115	859.246
21.863	26.186	1061.187	858.733
22.877	25.982	1060.984	857.523
23.892	26.065	1060.318	857.305
24.907	25.987	1059.663	856.328
25.921	26.060	1058.311	855.509
26.936	26.094	1057.038	854.565
27.950	25.979	1055.730	852.886
28.965	25.901	1053.492	850.636
29.980	25.841	1052.527	849.499
30.994	26.052	1051.784	849.815
32.009	26.018	1050.707	848.710
33.023	25.777	1049.433	846.476
34.038	25.875	1048.964	846.482
35.053	25.922	1048.367	846.146
36.067	26.178	1046.910	846.097
37.082	26.116	1046.416	845.328
38.096	26.243	1046.002	845.516
39.111	26.349	1045.187	845.276
40.126	26.116	1043.880	843.057
41.140	25.904	1042.244	840.672
42.155	25.591	1040.582	837.801
43.169	25.660	1039.953	837.541
44.184	25.707	1039.149	837.038
45.199	25.656	1038.067	835.854
46.213	25.681	1037.267	835.256
47.228	25.768	1036.482	834.952
48.242	25.912	1035.781	834.982
49.257	25.925	1035.002	834.339
50.271	26.114	1034.152	834.452
51.286	26.082	1033.645	833.824
52.301	26.214	1032.312	833.282
53.315	26.169	1031.195	832.098
54.330	26.007	1030.800	830.961
55.344	25.960	1030.017	830.040
56.359	26.116	1028.730	829.644
57.374	25.823	1027.894	827.554
58.388	25.831	1027.362	827.090
59.403	25.665	1026.655	825.683
60.417	25.567	1025.366	824.125
61.432	25.645	1024.824	823.972
62.447	25.705	1024.482	823.901
63.461	25.804	1024.207	824.059
64.476	25.746	1022.876	822.652
65.490	25.653	1021.688	821.200
66.505	25.760	1020.880	820.966
67.520	25.852	1020.149	820.722
68.534	25.656	1019.055	818.879
69.549	25.339	1017.828	816.377
70.563	25.222	1017.818	815.768
71.578	25.174	1016.676	814.562
72.593	25.048	1015.698	813.135
73.607	25.269	1015.302	813.746
74.622	25.582	1014.704	814.614
75.636	25.557	1014.397	814.183
76.651	25.362	1013.436	812.456
77.666	25.442	1012.568	812.051
78.680	25.364	1012.148	811.287
79.695	25.584	1011.493	811.686
80.709	25.713	1010.453	811.361
81.724	25.720	1009.861	810.844
82.739	25.681	1008.861	809.797
83.753	25.965	1008.874	811.009
84.768	26.300	1008.182	811.890
85.782	26.491	1007.303	811.967
86.797	26.308	1006.129	810.129
87.812	26.076	1005.521	808.525
88.826	26.210	1004.333	808.097
89.841	26.289	1003.559	807.757
90.855	26.319	1002.534	806.996
91.870	26.289	1001.641	806.071
92.884	26.122	1000.843	804.615
93.899	26.084	999.611	803.382
94.914	26.271	998.646	803.368
95.928	26.150	997.875	802.140
96.943	25.930	996.472	799.965
97.957	25.592	995.454	797.578
98.972	25.535	994.112	796.180
99.987	25.930	993.497	797.365
101.001	26.124	992.837	797.623
102.016	25.963	992.308	796.413
103.030	25.821	991.440	795.021
104.045	25.686	990.983	793.990
105.060	25.627	989.761	792.680
106.074	25.787	988.896	792.620
107.089	26.160	988.235	793.659
108.103	25.953	987.361	791.981
109.118	25.735	986.268	790.076
110.133	25.850	985.354	789.778
111.147	25.458	984.126	787.006
112.162	25.565	982.875	786.406
113.176	25.727	982.997	787.142
114.191	25.444	982.359	785.323
115.206	25.283	980.760	783.275
116.220	25.248	980.237	782.636
117.235	25.350	979.744	782.617
118.249	25.565	978.283	782.317
119.264	25.444	977.366	780.987
120.279	25.494	976.792	780.678
121.293	25.599	975.716	780.204
122.308	25.528	975.282	779.480
123.322	25.409	973.799	777.710
124.337	25.252	972.667	776.057
125.352	24.641	971.191	772.175
126.366	24.605	970.641	771.512
127.381	25.454	970.721	775.173
128.395	25.828	970.031	776.165
129.410	26.016	968.843	775.954
130.424	25.896	968.636	775.204
131.439	25.937	967.125	774.099
132.454	26.070	966.074	773.760
133.468	25.839	965.595	772.320
134.483	26.014	964.525	772.146
135.497	26.316	963.484	772.534
136.512	26.327	962.697	771.881
137.527	26.180	962.026	770.649
138.541	26.292	961.417	770.572
139.556	26.195	960.764	769.562
140.570	26.231	959.687	768.785
141.585	26.307	958.655	768.215
142.600	26.352	957.883	767.720
143.614	26.453	957.340	767.644
144.629	26.652	956.410	767.673
145.643	26.369	955.524	765.700
146.658	26.128	954.305	763.634
147.673	26.149	952.562	762.260
148.687	25.981	952.443	761.389
149.702	26.023	950.862	760.234
150.716	25.956	950.544	759.632
151.731	26.080	950.007	759.658
152.746	26.401	949.196	760.290
153.760	26.453	948.464	759.857
154.775	26.387	947.743	758.934
155.789	26.392	947.290	758.526
156.804	26.243	946.291	757.032
157.819	26.531	945.351	757.420
158.833	26.551	944.946	757.111
159.848	26.601	943.692	756.249
160.862	26.423	942.549	754.524
161.877	26.458	941.368	753.656
162.892	26.546	940.363	753.153
163.906	26.320	939.810	751.703
164.921	26.348	938.826	750.965
165.935	26.344	938.062	750.271
166.950	26.431	937.406	750.042
167.964	26.301	936.195	748.469
168.979	26.245	935.246	747.411
169.994	26.257	934.232	746.583
171.008	26.420	933.955	746.969
172.023	26.427	932.921	746.105
173.037	26.096	931.801	743.782
174.052	26.146	930.896	743.196
175.067	26.100	930.626	742.725
176.081	26.149	930.142	742.476
177.096	26.167	929.865	742.264
178.110	25.804	928.609	739.707
179.125	25.659	927.503	738.164
180.140	25.877	927.297	738.826
181.154	25.965	927.175	739.027
182.169	26.348	926.657	740.118
183.183	26.420	926.326	740.080
184.198	26.340	925.364	738.921
185.213	26.213	925.199	738.205
186.227	26.448	924.226	738.324
187.242	26.410	923.786	737.749
188.256	26.396	923.187	737.152
189.271	26.555	922.198	736.942
190.286	26.165	921.237	734.521
191.300	25.554	919.632	730.695
192.315	24.639	918.433	725.965
193.329	24.633	917.619	725.230
194.344	25.716	917.845	729.739
195.359	26.200	918.198	731.915
196.373	26.442	917.317	732.130
197.388	26.307	916.722	731.046
198.402	26.232	916.584	730.568
199.417	26.226	916.024	730.033
200.432	25.997	914.963	728.195
201.446	25.993	914.287	727.576
202.461	25.854	914.052	726.763
203.475	25.012	912.082	721.745
204.490	24.292	910.552	717.575
205.504	25.264	910.712	721.548
206.519	25.932	910.709	724.165
207.534	25.872	910.268	723.510
208.548	26.405	910.050	725.410
209.563	26.146	909.171	723.606
210.577	26.115	908.493	722.880
211.592	26.476	908.160	723.996
212.607	26.533	907.345	723.510
213.621	26.543	906.876	723.112
214.636	26.457	906.161	722.133
215.650	26.501	904.984	721.306
216.665	26.534	904.810	721.238
217.680	26.384	903.887	719.839
218.694	25.986	902.923	717.425
219.709	25.752	902.287	715.925
220.723	26.241	901.432	717.126
221.738	26.400	900.869	717.248
222.753	26.369	900.222	716.543
223.767	26.279	900.340	716.217
224.782	26.554	899.775	716.795
225.796	26.461	899.680	716.288
226.811	25.863	898.013	712.533
227.826	25.231	896.540	708.806
228.840	25.535	895.652	709.241
229.855	25.502	895.556	708.971
230.869	25.154	894.505	706.704
231.884	25.650	894.330	708.458
232.899	26.209	894.559	710.776
233.913	26.165	893.772	709.915
234.928	26.221	893.103	709.543
235.942	26.227	892.453	708.987
236.957	25.854	891.666	706.834
237.972	25.933	890.832	706.419
238.986	25.914	890.415	705.954
240.001	25.944	889.958	705.644
241.015	26.061	889.750	705.876
242.030	26.134	889.213	705.672
243.045	26.419	888.041	705.794
244.059	26.505	888.333	706.300
245.074	26.257	887.515	704.616
246.088	25.856	886.351	702.071
247.103	26.117	886.149	702.865
248.117	26.778	886.342	705.529
249.132	26.939	885.803	705.662
250.147	27.109	885.113	705.713
251.161	27.274	884.588	705.870
252.176	27.077	884.194	704.730
253.190	27.294	883.257	704.762
254.205	27.465	882.923	705.095
255.220	27.371	882.189	704.083
256.234	27.129	881.388	702.444
257.249	27.109	880.943	701.952
258.263	27.090	880.475	701.441
259.278	27.283	879.684	701.496
260.293	27.229	879.399	700.997
261.307	27.167	878.560	700.030
262.322	27.007	877.677	698.647
263.336	26.183	876.008	694.092
264.351	25.065	874.102	688.228
265.366	25.291	873.854	688.838
266.380	26.327	874.542	693.299
267.395	26.745	873.875	694.310
268.409	26.689	873.171	693.476
269.424	27.019	872.729	694.326
270.439	27.037	872.052	693.793
271.453	27.019	871.632	693.329
272.468	27.177	871.664	693.895
273.482	27.166	871.161	693.390
274.497	26.684	869.943	690.523
275.512	26.416	869.192	688.846
276.526	26.944	868.856	690.528
277.541	26.932	868.571	690.197
278.555	26.831	867.917	689.231
279.570	26.725	867.070	688.097
280.585	26.874	866.357	688.035
281.599	26.786	865.369	686.853
282.614	26.219	864.274	683.778
283.628	26.218	864.030	683.521
284.643	26.674	863.591	684.839
285.657	26.051	862.625	681.657
286.672	25.830	861.788	680.103
287.687	26.619	861.680	682.933
288.701	26.499	861.144	681.996
289.716	26.304	860.290	680.525
290.730	26.288	859.659	679.905
291.745	26.106	858.615	678.336
292.760	26.342	858.604	679.154
293.774	27.123	859.173	682.478
294.789	27.561	858.679	683.671
295.803	27.619	857.997	683.282
296.818	27.489	857.755	682.544
297.833	27.226	856.121	680.198
298.847	26.864	855.577	678.354
299.862	27.362	855.591	680.166
300.876	27.573	855.514	680.832
301.891	27.401	854.638	679.433
302.906	26.985	853.803	677.157
303.920	27.170	853.458	677.515
304.935	27.509	853.502	678.754
305.949	27.488	852.436	677.766
306.964	27.118	851.647	675.705
307.979	27.218	851.233	675.686
308.993	27.715	851.023	677.306
310.008	27.660	850.572	676.684
311.022	27.321	849.810	674.762
312.037	27.209	849.023	673.662
313.052	26.953	847.889	671.754
314.066	26.086	846.542	667.424
315.081	25.795	845.945	665.817
316.095	26.751	846.256	669.535
317.110	27.222	846.084	671.079
318.125	26.244	844.809	666.403
319.139	25.168	843.030	660.977
320.154	25.180	842.991	660.935
321.168	26.268	843.127	664.987
322.183	26.771	843.579	667.139
323.197	26.851	843.436	667.261
324.212	27.288	842.664	668.196
325.227	27.220	842.290	667.590
326.241	27.227	840.752	666.337
327.256	27.184	840.416	665.855
328.270	26.968	840.297	664.911
329.285	26.796	839.131	663.300
330.300	26.434	838.633	661.524
331.314	26.862	838.334	662.794
332.329	27.360	838.017	664.304
333.343	27.410	837.896	664.331
334.358	27.406	837.245	663.742
335.373	27.322	837.510	663.588
336.387	27.747	836.895	664.590
337.402	27.858	836.676	664.760
338.416	27.667	836.411	663.795
339.431	27.788	836.078	663.914
340.446	27.975	835.728	664.257
341.460	27.845	835.479	663.526
342.475	27.676	834.451	662.039
343.489	27.742	834.666	662.389
344.504	28.109	833.927	663.074
345.519	28.186	833.609	663.042
346.533	28.176	833.107	662.547
347.548	28.229	832.576	662.260
348.562	28.308	832.020	662.044
349.577	28.174	831.454	661.051
350.592	27.976	830.994	659.912
351.606	28.257	829.983	660.063
352.621	27.861	829.427	658.138
353.635	27.910	828.398	657.437
354.650	27.343	826.598	653.913
355.665	26.256	825.687	649.234
356.679	26.887	825.208	651.063
357.694	27.133	825.063	651.773
358.708	27.186	824.364	651.355
359.723	27.626	824.374	652.879
360.738	27.683	824.183	652.877
361.752	27.959	823.404	653.188
362.767	28.316	823.233	654.270
363.781	28.468	823.056	654.614
364.796	28.484	822.620	654.265
365.810	28.491	822.496	654.133
366.825	28.600	821.912	654.001
367.840	28.260	820.978	651.988
368.854	27.715	820.014	649.226
369.869	27.794	819.858	649.328
370.883	28.033	819.048	649.477
371.898	27.967	818.683	648.896
372.913	27.941	818.337	648.472
373.927	28.028	818.034	648.484
374.942	28.211	817.485	648.640
375.956	28.268	817.043	648.434
376.971	28.461	817.250	649.222
377.986	28.613	816.500	649.109
379.000	28.407	816.067	647.977
380.015	28.251	815.483	646.904
381.029	28.432	814.798	646.945
382.044	28.708	814.252	647.426
383.059	28.628	813.810	646.735
384.073	28.550	813.473	646.136
385.088	28.512	812.663	645.303
386.102	28.206	811.866	643.535
387.117	28.188	811.434	643.075
388.132	27.853	809.866	640.600
389.146	27.551	809.199	638.955
390.161	27.942	809.068	640.166
391.175	28.397	808.851	641.530
392.190	27.991	808.097	639.457
393.205	26.668	805.761	632.931
394.219	24.983	804.531	626.026
395.234	24.876	804.084	625.249
396.248	26.798	805.065	632.672
397.263	28.123	805.991	637.970
398.278	28.032	805.682	637.351
399.292	27.871	804.979	636.178
400.307	27.826	804.502	635.586
401.321	27.893	804.410	635.689
402.336	28.171	804.651	636.793
403.350	28.634	804.343	638.102
404.365	29.180	803.773	639.488
405.380	29.436	803.400	640.023
406.394	29.279	803.165	639.235
407.409	29.093	802.607	638.091
408.423	29.046	802.413	637.717
409.438	29.195	802.047	637.887
410.453	29.217	801.660	637.598
411.467	29.027	801.243	636.552
412.482	29.333	800.492	636.958
413.496	29.188	800.297	636.245
414.511	29.365	799.717	636.339
415.526	29.201	799.641	635.655
416.540	29.124	798.680	634.570
417.555	28.905	797.723	633.001
418.569	29.004	797.224	632.888
419.584	28.866	797.108	632.265
420.599	28.809	796.240	631.327
421.613	113.333	1286.712	1461.290
422.628	97.760	1358.182	1461.383
