DTS Sentinel unit serial number:	SN413079Multiplexer serial number:	ORYXHardware model number:	OX4-SRSoftware version number:	ORYX F/W v4.00 Oryx Data Collector v3.7.2.0data status	okinstallation	princeton_trtdifferential loss correction	single-endedforward channel	channel 1reverse channel	N/Adate	2019/09/11time	13:24:11forward acquisition time	60.00reverse acquisition time	0.00gamma	496.2192k internal	0.2294k external	0.2294temperature offset calibration	0.9984default loss term (dB/km)	0.3790temperature slope calibration	1.0000multiplexer offset coefficient	1.0000multiplexer slope coefficient	1.0000fibre end	0.00T internal ref (°C)	41.94T ext. ref 1 (°C)	0.81T ext. ref 2 (°C)	36.66length (m)	temperature (°C)	Stokes	anti-Stokes-747.200	-156.194	0.257	-0.017
-746.185	800.000	0.054	0.234
-745.171	800.000	0.068	-0.276
-744.156	-59.730	0.200	0.088
-743.142	-165.164	0.166	-0.007
-742.127	-173.677	0.129	0.004
-741.112	-148.501	0.420	-0.035
-740.098	-45.526	0.047	-0.024
-739.083	-200.000	-0.012	-0.239
-738.069	-200.000	-0.022	0.223
-737.054	345.983	0.081	0.163
-736.039	-51.578	0.065	-0.031
-735.025	800.000	-0.050	0.195
-734.010	112.010	-0.165	0.203
-732.996	181.703	-0.099	-0.148
-731.981	-200.000	0.032	-0.319
-730.966	-38.434	0.168	-0.091
-729.952	-43.182	-0.059	0.031
-728.937	23.573	-0.336	-0.283
-727.923	-200.000	0.005	0.356
-726.908	-200.000	-0.032	0.183
-725.894	638.079	-0.071	-0.183
-724.879	41.191	-0.074	-0.068
-723.864	502.251	0.171	0.404
-722.850	521.041	-0.110	0.263
-721.835	-127.036	-0.298	-0.045
-720.821	441.178	-0.070	-0.156
-719.806	343.922	0.070	-0.141
-718.791	800.000	0.122	0.406
-717.777	-17.948	-0.176	0.113
-716.762	-200.000	-0.006	-0.101
-715.748	-183.782	-0.116	-0.002
-714.733	-200.000	0.037	0.177
-713.718	381.217	0.087	-0.182
-712.704	12.538	0.169	0.133
-711.689	488.835	0.065	0.151
-710.675	-200.000	-0.008	0.051
-709.660	96.956	0.159	0.186
-708.645	226.767	-0.102	0.170
-707.631	179.850	0.064	0.096
-706.616	-200.000	0.026	-0.176
-705.602	-30.460	0.086	0.050
-704.587	-162.576	-0.093	0.005
-703.572	88.056	0.082	0.093
-702.558	-78.596	0.160	-0.056
-701.543	800.000	-0.058	0.260
-700.529	-200.000	0.008	-0.211
-699.514	-5.380	0.322	-0.225
-698.499	-5.389	-0.165	-0.116
-697.485	-66.528	0.120	-0.049
-696.470	-200.000	-0.059	0.408
-695.456	28.949	0.219	0.189
-694.441	554.933	0.034	-0.083
-693.426	-76.134	0.470	-0.169
-692.412	-200.000	-0.016	0.151
-691.397	-105.217	-0.292	-0.068
-690.383	-17.021	-0.159	-0.103
-689.368	-109.736	-0.283	0.061
-688.354	515.462	-0.081	-0.192
-687.339	263.146	0.126	0.223
-686.324	183.157	-0.194	0.292
-685.310	-200.000	0.055	-0.349
-684.295	-49.820	-0.098	0.047
-683.281	-33.506	-0.125	0.070
-682.266	-52.356	0.307	0.145
-681.251	-200.000	-0.007	-0.054
-680.237	682.867	0.053	-0.140
-679.222	800.000	0.079	-0.294
-678.208	149.178	-0.092	-0.127
-677.193	-60.705	0.272	0.118
-676.178	-105.984	-0.312	0.072
-675.164	-200.000	-0.053	0.292
-674.149	-183.604	-0.292	-0.005
-673.135	413.880	-0.077	-0.166
-672.120	446.033	0.077	-0.173
-671.105	151.681	0.110	0.152
-670.091	69.103	-0.222	-0.233
-669.076	-128.796	-0.340	-0.049
-668.062	1.303	0.153	-0.112
-667.047	52.416	-0.211	-0.205
-666.032	12.109	-0.076	-0.060
-665.018	231.428	-0.173	-0.289
-664.003	513.213	-0.059	-0.141
-662.989	-168.941	-0.048	0.002
-661.974	-66.047	-0.055	-0.022
-660.959	-128.723	-0.133	-0.019
-659.945	-32.773	-0.248	0.140
-658.930	-200.000	0.029	-0.158
-657.916	-161.380	0.275	0.014
-656.901	299.369	-0.085	0.159
-655.886	-200.000	-0.006	0.220
-654.872	70.946	-0.105	0.111
-653.857	-5.887	-0.219	-0.153
-652.843	-163.571	-0.282	0.014
-651.828	-91.944	-0.307	-0.089
-650.814	-29.826	-0.066	0.038
-649.799	-200.000	-0.012	-0.093
-648.784	2.717	0.167	0.123
-647.770	-75.842	-0.242	0.087
-646.755	480.396	-0.100	0.231
-645.741	405.594	0.156	-0.336
-644.726	-148.878	0.225	-0.018
-643.711	229.988	0.059	0.099
-642.697	55.441	0.142	0.140
-641.682	33.410	-0.205	-0.182
-640.668	800.000	0.031	0.115
-639.653	274.790	0.101	-0.183
-638.638	124.684	-0.195	0.250
-637.624	-45.710	0.179	0.090
-636.609	402.455	0.102	-0.218
-635.595	800.000	-0.038	-0.130
-634.580	-105.965	-0.344	-0.079
-633.565	743.227	-0.072	-0.197
-632.551	-200.000	-0.038	-0.246
-631.536	-119.117	-0.109	0.019
-630.522	800.000	-0.031	-0.136
-629.507	98.761	-0.213	0.251
-628.492	98.235	0.121	0.142
-627.478	69.409	-0.109	-0.114
-626.463	-90.999	-0.384	-0.112
-625.449	-41.882	0.138	0.072
-624.434	-23.429	0.222	0.136
-623.419	260.691	0.111	0.195
-622.405	-118.175	-0.644	0.117
-621.390	-138.576	0.299	-0.033
-620.376	-200.000	0.029	-0.162
-619.361	137.643	0.043	0.057
-618.346	-106.578	0.232	-0.053
-617.332	-31.925	0.501	-0.285
-616.317	228.557	0.050	-0.083
-615.303	640.929	0.070	0.181
-614.288	-200.000	-0.037	0.322
-613.273	55.881	-0.253	0.250
-612.259	800.000	-0.080	0.257
-611.244	-129.526	0.208	-0.029
-610.230	-33.015	0.068	-0.038
-609.215	66.711	0.195	0.202
-608.201	-174.054	-0.242	-0.007
-607.186	110.737	-0.102	0.125
-606.171	-114.357	-0.182	0.036
-605.157	-200.000	-0.028	0.145
-604.142	-200.000	0.035	0.296
-603.128	-18.142	0.138	-0.088
-602.113	169.458	-0.085	-0.123
-601.098	-200.000	0.043	0.326
-600.084	374.683	0.088	0.183
-599.069	16.974	0.157	-0.126
-598.055	-70.298	0.150	-0.058
-597.040	-20.660	0.202	0.126
-596.025	-71.262	0.341	0.130
-595.011	-178.971	-0.223	-0.005
-593.996	-200.000	-0.043	-0.224
-592.982	-200.000	-0.014	-0.254
-591.967	-114.081	-0.107	0.021
-590.952	80.287	-0.101	-0.111
-589.938	-71.894	-0.175	0.066
-588.923	-200.000	0.054	0.268
-587.909	-125.094	0.139	-0.022
-586.894	-200.000	0.009	-0.238
-585.879	-87.622	0.078	-0.024
-584.865	-142.048	-0.196	0.020
-583.850	-90.444	-0.249	0.073
-582.836	-200.000	-0.034	-0.191
-581.821	-117.903	-0.009	-0.002
-580.806	2.016	0.249	0.182
-579.792	10.809	0.196	0.152
-578.777	-107.106	0.270	0.061
-577.763	-164.848	0.168	0.008
-576.748	154.398	0.201	-0.281
-575.733	-200.000	0.022	0.338
-574.719	134.661	-0.197	0.260
-573.704	-200.000	0.002	0.279
-572.690	800.000	-0.038	0.163
-571.675	224.757	0.103	-0.169
-570.661	-63.335	0.147	-0.061
-569.646	-28.308	0.194	0.114
-568.631	-144.497	0.094	-0.009
-567.617	-200.000	0.020	0.435
-566.602	-200.000	-0.028	-0.126
-565.588	118.182	-0.309	-0.386
-564.573	106.733	-0.131	-0.158
-563.558	800.000	-0.091	0.363
-562.544	-97.488	0.199	0.052
-561.529	611.599	-0.023	0.059
-560.515	54.586	0.085	-0.083
-559.500	26.218	0.077	-0.065
-558.485	800.000	0.085	0.346
-557.471	800.000	0.121	-0.425
-556.456	148.957	-0.086	-0.119
-555.442	-105.897	-0.109	0.025
-554.427	-200.000	-0.006	0.212
-553.412	-15.987	0.191	0.124
-552.398	313.071	0.120	-0.229
-551.383	181.808	0.014	-0.020
-550.369	134.312	-0.115	0.151
-549.354	-35.149	-0.128	-0.071
-548.339	-35.660	-0.220	0.121
-547.325	-200.000	0.019	0.085
-546.310	-4.020	-0.412	-0.289
-545.296	573.196	0.099	0.246
-544.281	-108.490	-0.164	-0.036
-543.266	174.857	-0.127	0.187
-542.252	175.635	-0.042	-0.062
-541.237	417.050	-0.063	-0.137
-540.223	800.000	-0.040	0.112
-539.208	-119.808	0.230	-0.040
-538.193	-75.129	-0.356	0.129
-537.179	351.111	-0.158	-0.317
-536.164	-140.562	-0.310	-0.033
-535.150	-108.853	-0.106	0.023
-534.135	-200.000	0.004	-0.148
-533.121	-200.000	0.093	-0.419
-532.106	-200.000	0.014	0.375
-531.091	-200.000	-0.001	-0.058
-530.077	-49.204	0.123	0.060
-529.062	-48.433	-0.069	-0.033
-528.048	-126.844	-0.038	-0.006
-527.033	25.523	0.052	0.044
-526.018	-60.351	0.102	0.044
-525.004	-200.000	0.046	-0.299
-523.989	-32.557	-0.216	0.122
-522.975	151.828	0.191	0.263
-521.960	-200.000	-0.029	-0.245
-520.945	62.005	0.191	-0.193
-519.931	211.651	0.160	0.256
-518.916	-118.607	0.286	-0.051
-517.902	-71.668	0.078	-0.029
-516.887	42.828	-0.147	0.135
-515.872	-103.233	-0.422	0.101
-514.858	154.809	-0.132	0.184
-513.843	223.663	0.080	0.131
-512.829	622.620	-0.078	0.199
-511.814	-60.060	0.196	0.085
-510.799	109.407	-0.029	-0.035
-509.785	-13.786	0.265	-0.174
-508.770	-166.157	-0.261	0.011
-507.756	800.000	-0.043	0.130
-506.741	599.373	0.123	0.308
-505.726	-200.000	0.013	0.174
-504.712	-1.953	0.095	0.067
-503.697	-134.929	-0.300	-0.037
-502.683	83.043	-0.073	0.081
-501.668	-200.000	-0.015	0.153
-500.653	800.000	0.116	0.344
-499.639	800.000	0.073	-0.275
-498.624	800.000	0.012	-0.035
-497.610	-53.155	0.308	0.143
-496.595	-200.000	-0.013	-0.056
-495.581	71.402	0.180	0.189
-494.566	-200.000	0.048	-0.441
-493.551	-200.000	0.026	-0.243
-492.537	18.553	-0.062	-0.050
-491.522	37.512	-0.122	0.110
-490.508	-120.243	0.045	-0.008
-489.493	192.628	0.013	0.021
-488.478	-127.371	0.091	-0.013
-487.464	-49.866	-0.201	0.096
-486.449	-119.420	0.038	-0.007
-485.435	-200.000	0.015	-0.228
-484.420	-33.348	0.171	-0.096
-483.405	-142.620	-0.119	-0.012
-482.391	275.926	-0.079	-0.142
-481.376	412.107	-0.185	0.398
-480.362	541.769	-0.124	-0.299
-479.347	595.252	0.069	-0.174
-478.332	-33.317	0.068	-0.038
-477.318	-140.480	0.128	0.013
-476.303	-130.828	0.172	-0.023
-475.289	-39.264	0.224	-0.119
-474.274	-158.354	-0.347	-0.020
-473.259	274.743	0.092	-0.165
-472.245	-45.310	-0.170	0.085
-471.230	672.830	-0.162	0.426
-470.216	94.674	-0.080	0.092
-469.201	75.086	0.065	-0.069
-468.186	800.000	0.031	0.112
-467.172	-132.290	-0.081	-0.011
-466.157	410.987	0.057	0.123
-465.143	260.678	-0.168	0.295
-464.128	111.429	-0.163	0.199
-463.113	-54.912	-0.063	-0.029
-462.099	-149.692	-0.284	0.023
-461.084	447.762	0.103	0.228
-460.070	31.254	-0.168	0.146
-459.055	-93.773	-0.203	-0.056
-458.040	127.045	-0.197	0.253
-457.026	138.096	-0.212	0.281
-456.011	-135.726	-0.061	0.007
-454.997	800.000	-0.064	0.235
-453.982	206.048	0.082	0.129
-452.968	13.204	-0.170	-0.133
-451.953	42.444	-0.145	0.133
-450.938	-200.000	-0.028	-0.229
-449.924	-200.000	-0.007	0.053
-448.909	-153.315	-0.326	-0.023
-447.895	254.277	0.227	0.392
-446.880	605.689	-0.054	0.135
-445.865	177.585	-0.033	0.048
-444.851	63.635	0.120	0.122
-443.836	-100.865	-0.129	0.032
-442.822	768.911	0.029	0.081
-441.807	98.885	0.087	-0.101
-440.792	-133.048	-0.187	-0.024
-439.778	-200.000	-0.006	0.052
-438.763	723.217	-0.148	0.397
-437.749	-76.871	0.142	0.050
-436.734	-28.248	-0.288	-0.168
-435.719	86.497	-0.084	-0.094
-434.705	-200.000	0.008	-0.041
-433.690	-2.790	-0.255	0.180
-432.676	343.105	0.129	-0.256
-431.661	-116.704	0.151	-0.028
-430.646	142.719	0.051	0.069
-429.632	800.000	-0.067	-0.206
-428.617	-118.432	-0.260	-0.047
-427.603	28.477	-0.182	-0.156
-426.588	-9.980	0.084	-0.056
-425.573	-149.890	0.087	0.007
-424.559	-61.790	-0.210	-0.089
-423.544	-200.000	0.007	-0.124
-422.530	-200.000	0.005	-0.172
-421.515	180.784	0.062	0.092
-420.500	800.000	0.039	0.143
-419.486	-128.874	-0.274	0.039
-418.471	88.006	-0.155	-0.174
-417.457	-200.000	0.023	-0.135
-416.442	-26.081	0.080	0.048
-415.428	64.118	0.164	0.167
-414.413	228.853	-0.205	0.337
-413.398	-122.314	0.196	-0.032
-412.384	-167.372	0.156	0.006
-411.369	512.510	0.097	0.228
-410.355	-200.000	-0.005	-0.050
-409.340	93.209	-0.212	0.242
-408.325	51.674	-0.228	0.219
-407.311	-200.000	0.004	-0.319
-406.296	-87.706	0.225	-0.068
-405.282	81.098	-0.174	-0.189
-404.267	55.798	-0.013	-0.013
-403.252	158.230	0.210	-0.294
-402.238	41.635	0.171	-0.156
-401.223	-200.000	-0.013	-0.113
-400.209	-79.123	-0.112	-0.039
-399.194	-200.000	0.000	0.135
-398.179	-90.196	0.330	0.097
-397.165	118.750	0.249	0.311
-396.150	-63.306	-0.279	-0.116
-395.136	-37.300	0.141	-0.076
-394.121	-125.456	0.135	0.021
-393.106	-96.775	-0.167	-0.044
-392.092	12.988	0.186	-0.145
-391.077	27.536	-0.038	0.032
-390.063	136.639	0.076	-0.101
-389.048	121.048	-0.176	0.220
-388.033	354.474	-0.099	-0.198
-387.019	760.627	0.099	-0.270
-386.004	-200.000	0.002	-0.145
-384.990	137.903	0.055	-0.073
-383.975	-83.449	0.187	-0.061
-382.960	-200.000	-0.006	-0.245
-381.946	-114.381	-0.297	-0.058
-380.931	-47.228	-0.091	-0.045
-379.917	-1.665	-0.141	-0.100
-378.902	-135.565	0.180	-0.022
-377.888	-43.338	0.185	-0.095
-376.873	-172.062	0.071	-0.002
-375.858	-200.000	0.049	-0.228
-374.844	769.715	0.044	0.121
-373.829	69.972	-0.120	0.125
-372.815	800.000	-0.092	-0.301
-371.800	-200.000	0.008	-0.129
-370.785	-146.611	0.162	0.014
-369.771	142.799	-0.134	0.179
-368.756	80.402	-0.134	-0.145
-367.742	80.476	0.113	0.123
-366.727	181.093	0.082	0.122
-365.712	161.875	0.107	0.150
-364.698	-90.434	0.275	0.080
-363.683	-200.000	0.002	-0.187
-362.669	-150.338	0.075	0.006
-361.654	-200.000	0.006	0.098
-360.639	-85.642	-0.227	0.071
-359.625	-76.679	-0.271	0.096
-358.610	-121.939	-0.150	0.025
-357.596	322.801	0.150	0.289
-356.581	-88.623	-0.196	0.059
-355.566	352.130	0.125	0.249
-354.552	-167.850	0.268	-0.011
-353.537	-200.000	-0.030	0.206
-352.523	799.348	0.089	0.247
-351.508	800.000	-0.077	-0.225
-350.493	800.000	0.070	-0.260
-349.479	25.266	-0.095	0.080
-348.464	-103.452	-0.224	-0.053
-347.450	-200.000	-0.026	-0.258
-346.435	-98.086	-0.247	0.064
-345.420	-200.000	-0.019	-0.104
-344.406	12.424	-0.198	0.154
-343.391	54.432	-0.166	-0.161
-342.377	-200.000	0.014	0.119
-341.362	-153.048	0.232	0.016
-340.348	12.783	-0.062	0.048
-339.333	-91.444	-0.152	0.044
-338.318	-56.178	-0.044	-0.020
-337.304	463.551	0.035	0.078
-336.289	-109.282	0.207	-0.044
-335.275	-36.317	-0.306	-0.166
-334.260	-132.305	-0.136	-0.018
-333.245	-20.923	0.181	0.112
-332.231	-200.000	-0.025	-0.368
-331.216	167.867	-0.064	-0.091
-330.202	-2.337	0.263	0.185
-329.187	157.311	0.126	-0.175
-328.172	800.000	0.030	-0.111
-327.158	-157.903	-0.213	-0.013
-326.143	160.973	-0.107	0.151
-325.129	800.000	-0.035	-0.144
-324.114	-56.984	0.235	-0.104
-323.099	-10.231	0.119	-0.080
-322.085	140.546	0.094	0.125
-321.070	800.000	0.090	-0.265
-320.056	-200.000	-0.016	-0.133
-319.041	245.325	0.134	-0.228
-318.026	259.022	-0.107	-0.186
-317.012	-200.000	0.017	-0.178
-315.997	-35.747	0.380	0.207
-314.983	67.651	-0.033	-0.034
-313.968	-28.100	-0.064	0.037
-312.953	-119.059	0.281	0.049
-311.939	215.925	-0.174	-0.279
-310.924	104.515	0.134	-0.159
-309.910	-200.000	-0.018	-0.081
-308.895	-200.000	0.014	-0.089
-307.880	310.368	-0.045	0.084
-306.866	95.033	0.048	-0.055
-305.851	-200.000	-0.058	-0.267
-304.837	-6.802	0.389	0.266
-303.822	-170.001	0.052	-0.002
-302.807	137.391	0.145	-0.191
-301.793	520.683	-0.025	0.058
-300.778	41.525	0.232	-0.211
-299.764	219.176	0.151	-0.243
-298.749	7.806	-0.141	0.106
-297.735	800.000	-0.020	0.060
-296.720	380.298	-0.066	0.136
-295.705	-61.904	0.092	0.039
-294.691	145.829	0.216	0.291
-293.676	800.000	0.079	0.302
-292.662	375.004	-0.090	0.185
-291.647	1.131	0.012	0.009
-290.632	-7.578	0.160	-0.109
-289.618	325.071	0.089	0.171
-288.603	23.871	0.298	-0.247
-287.589	-73.235	0.146	0.054
-286.574	585.154	-0.057	-0.141
-285.559	-200.000	-0.038	-0.479
-284.545	-110.644	0.166	0.035
-283.530	268.805	0.279	-0.492
-282.516	51.974	-0.088	-0.084
-281.501	-66.224	0.232	-0.093
-280.486	143.318	0.153	-0.205
-279.472	83.057	0.177	-0.194
-278.457	278.561	0.035	-0.063
-277.443	-200.000	0.033	-0.333
-276.428	-145.809	0.209	-0.019
-275.413	191.539	-0.129	0.194
-274.399	-114.795	-0.053	-0.010
-273.384	800.000	0.019	-0.059
-272.370	-81.217	-0.077	0.026
-271.355	285.465	-0.189	-0.343
-270.340	-2.632	-0.192	-0.135
-269.326	262.814	-0.091	-0.158
-268.311	50.574	0.168	0.160
-267.297	-28.164	-0.058	-0.034
-266.282	-103.854	-0.321	0.075
-265.267	83.696	-0.219	0.240
-264.253	-114.172	0.201	-0.039
-263.238	78.285	-0.161	0.173
-262.224	124.615	-0.165	0.208
-261.209	-32.694	-0.181	0.101
-260.195	-200.000	-0.002	0.194
-259.180	-193.681	0.443	0.004
-258.165	231.411	-0.030	-0.049
-257.151	-200.000	-0.024	0.221
-256.136	55.020	-0.172	0.167
-255.122	414.960	0.112	-0.239
-254.107	304.116	0.080	-0.148
-253.092	-94.070	0.215	0.059
-252.078	216.653	0.102	0.162
-251.063	52.620	-0.069	-0.066
-250.049	76.536	0.180	-0.192
-249.034	800.000	0.059	-0.221
-248.019	-108.367	-0.319	0.069
-247.005	800.000	0.070	0.209
-245.990	-68.439	0.191	-0.074
-244.976	-154.079	0.178	-0.012
-243.961	800.000	-0.025	-0.105
-242.946	-17.569	-0.144	-0.091
-241.932	63.238	-0.152	-0.153
-240.917	297.827	0.129	-0.239
-239.903	-200.000	0.036	0.376
-238.888	800.000	0.153	-0.434
-237.873	-200.000	-0.010	-0.170
-236.859	194.310	-0.066	-0.100
-235.844	-200.000	-0.026	-0.148
-234.830	359.364	0.149	0.299
-233.815	160.104	-0.127	0.178
-232.800	-26.568	-0.007	-0.004
-231.786	-99.479	0.143	0.036
-230.771	-51.387	-0.236	-0.111
-229.757	-200.000	-0.007	0.371
-228.742	375.914	-0.096	0.196
-227.727	-200.000	-0.022	-0.186
-226.713	-76.679	-0.147	0.052
-225.698	-51.908	-0.174	-0.081
-224.684	252.727	-0.226	0.386
-223.669	-110.657	-0.147	0.030
-222.655	800.000	-0.079	-0.299
-221.640	-134.198	0.069	-0.009
-220.625	-71.218	0.311	-0.117
-219.611	373.086	0.106	-0.216
-218.596	25.843	-0.032	0.027
-217.582	-69.585	-0.205	-0.079
-216.567	-200.000	0.061	-0.345
-215.552	-119.649	0.223	0.039
-214.538	-156.118	0.048	-0.003
-213.523	413.343	-0.034	-0.072
-212.509	-200.000	-0.014	-0.089
-211.494	-200.000	-0.025	-0.255
-210.479	-200.000	-0.034	-0.212
-209.465	800.000	0.029	-0.106
-208.450	-139.010	-0.168	-0.018
-207.436	-22.120	0.325	0.197
-206.421	-129.004	0.211	-0.030
-205.406	422.016	-0.079	-0.169
-204.392	-24.476	-0.297	-0.177
-203.377	111.486	-0.013	0.016
-202.363	453.841	0.033	0.073
-201.348	146.413	0.210	-0.282
-200.333	-22.966	-0.193	-0.116
-199.319	-200.000	0.045	0.331
-198.304	800.000	0.038	0.134
-197.290	12.988	0.182	-0.141
-196.275	-39.825	0.068	-0.036
-195.260	6.498	-0.206	-0.153
-194.246	-64.111	-0.211	0.086
-193.231	-172.297	-0.156	0.005
-192.217	-35.941	0.210	0.114
-191.202	-22.422	0.199	0.121
-190.187	-57.281	0.059	0.026
-189.173	-190.877	-0.162	-0.002
-188.158	718.470	0.052	0.139
-187.144	-144.721	0.172	0.016
-186.129	-200.000	-0.039	-0.268
-185.114	-200.000	-0.015	0.264
-184.100	6.809	-0.171	0.128
-183.085	-14.907	0.041	-0.026
-182.071	-200.000	0.015	0.198
-181.056	-89.942	0.065	0.019
-180.042	58.502	0.280	0.275
-179.027	-152.442	-0.061	-0.004
-178.012	79.037	-0.275	-0.295
-176.998	-77.623	-0.115	0.040
-175.983	-111.834	-0.086	0.017
-174.969	-168.808	-0.215	-0.008
-173.954	-38.556	0.285	-0.150
-172.939	-59.347	0.204	-0.088
-171.925	109.655	-0.077	-0.092
-170.910	-83.194	0.159	-0.051
-169.896	-80.462	-0.095	0.032
-168.881	-200.000	-0.001	0.249
-167.866	-68.967	-0.128	-0.049
-166.852	-71.376	-0.049	-0.018
-165.837	-200.000	0.001	-0.104
-164.823	71.569	-0.214	0.222
-163.808	-30.989	-0.224	-0.126
-162.793	0.587	-0.187	-0.134
-161.779	-175.250	0.278	-0.008
-160.764	-200.000	-0.008	0.098
-159.750	800.000	0.045	0.169
-158.735	-200.000	-0.065	-0.338
-157.720	800.000	-0.055	0.156
-156.706	92.236	0.212	0.239
-155.691	163.162	0.125	-0.175
-154.677	-114.814	0.067	-0.013
-153.662	-200.000	-0.007	0.269
-152.647	335.358	-0.060	-0.115
-151.633	800.000	0.080	0.277
-150.618	-200.000	-0.026	0.332
-149.604	-200.000	-0.026	0.135
-148.589	1.081	-0.169	-0.121
-147.574	334.429	-0.154	-0.298
-146.560	-74.172	0.195	0.070
-145.545	241.258	-0.139	-0.232
-144.531	-39.277	-0.056	-0.030
-143.516	98.125	0.205	0.236
-142.502	-100.453	0.298	-0.074
-141.487	-161.484	-0.255	0.013
-140.472	800.000	-0.027	-0.078
-139.458	125.961	-0.080	0.101
-138.443	-38.759	0.137	0.072
-137.429	148.339	-0.146	0.197
-136.414	800.000	0.157	0.506
-135.399	290.658	-0.064	-0.117
-134.385	48.715	0.254	0.238
-133.370	3.921	-0.179	0.131
-132.356	106.841	-0.084	-0.100
-131.341	407.978	-0.072	-0.151
-130.326	-139.950	-0.319	0.034
-129.312	388.408	0.048	0.099
-128.297	-125.189	0.332	-0.051
-127.283	154.114	-0.217	-0.297
-126.268	180.801	-0.148	0.217
-125.253	-89.582	-0.459	0.135
-124.239	330.816	0.075	0.144
-123.224	-200.000	0.016	-0.237
-122.210	-30.331	0.269	0.153
-121.195	800.000	-0.054	0.233
-120.180	92.341	-0.170	0.191
-119.166	-101.027	-0.324	0.079
-118.151	434.981	-0.077	-0.167
-117.137	38.816	-0.208	0.185
-116.122	-71.288	0.402	-0.150
-115.107	-200.000	-0.021	-0.225
-114.093	-200.000	0.009	0.212
-113.078	-200.000	-0.041	-0.218
-112.064	-200.000	0.005	-0.058
-111.049	7.771	0.330	-0.247
-110.034	10.205	-0.228	-0.173
-109.020	-200.000	-0.026	-0.237
-108.005	-200.000	-0.045	0.202
-106.991	126.997	-0.152	-0.192
-105.976	-200.000	-0.014	-0.174
-104.962	210.322	-0.158	-0.248
-103.947	-200.000	-0.035	-0.307
-102.932	-73.753	-0.424	0.154
-101.918	-75.437	-0.145	-0.052
-100.903	-200.000	0.040	-0.253
-99.889	-200.000	0.026	-0.233
-98.874	466.968	0.240	0.535
-97.859	-92.177	0.633	0.178
-96.845	70.564	0.068	0.071
-95.830	-128.478	-0.169	-0.024
-94.816	800.000	0.062	0.220
-93.801	338.514	0.092	0.178
-92.786	-75.712	0.072	-0.025
-91.772	104.567	-0.265	-0.311
-90.757	109.007	0.192	0.229
-89.743	111.646	0.109	0.131
-88.728	-102.433	-0.115	0.028
-87.713	73.167	-0.163	0.170
-86.699	-108.543	-0.253	0.054
-85.684	200.697	-0.163	0.250
-84.670	-17.768	0.242	0.151
-83.655	-143.666	0.330	-0.031
-82.640	213.430	-0.213	-0.336
-81.626	223.556	0.068	0.110
-80.611	-200.000	-0.002	-0.042
-79.597	191.318	-0.077	0.116
-78.582	587.508	-0.098	0.241
-77.567	-164.659	0.282	0.013
-76.553	771.611	0.098	-0.266
-75.538	-200.000	-0.044	-0.364
-74.524	-99.966	0.133	-0.033
-73.509	-95.133	-0.108	-0.029
-72.494	-200.000	-0.010	-0.198
-71.480	-49.885	0.152	0.072
-70.465	-200.000	-0.021	0.299
-69.451	800.000	0.083	0.296
-68.436	800.000	-0.030	0.088
-67.422	166.697	0.292	0.413
-66.407	308.014	0.142	0.263
-65.392	-194.181	0.265	0.002
-64.378	-200.000	-0.075	-0.338
-63.363	800.000	0.064	0.224
-62.349	-86.695	0.279	-0.085
-61.334	-56.417	-1.201	-0.531
-60.319	708.379	0.221	0.580
-59.305	800.000	-0.094	-0.361
-58.290	297.603	0.399	0.729
-57.276	800.000	0.515	1.420
-56.261	-200.000	75.457	532.585
-55.246	559.023	1308.346	3143.243
-54.232	145.296	2553.171	3401.507
-53.217	119.932	2241.001	2765.570
-52.203	54.608	1679.049	1611.089
-51.188	46.074	1397.497	1287.693
-50.173	42.094	1350.992	1220.602
-49.159	60.637	1385.086	1365.711
-48.144	67.907	1404.004	1428.876
-47.130	46.230	1366.415	1259.812
-46.115	42.140	1349.842	1219.651
-45.100	41.876	1345.022	1213.648
-44.086	41.814	1342.576	1211.013
-43.071	41.744	1340.253	1208.447
-42.057	41.743	1337.732	1206.119
-41.042	41.795	1335.748	1204.597
-40.027	41.759	1334.669	1203.358
-39.013	41.786	1332.572	1201.581
-37.998	41.915	1330.266	1200.231
-36.984	41.913	1328.982	1199.015
-35.969	42.029	1326.900	1197.779
-34.954	42.029	1325.154	1196.158
-33.940	42.057	1323.831	1195.081
-32.925	42.018	1322.074	1193.217
-31.911	42.086	1320.371	1192.039
-30.896	42.016	1319.095	1190.419
-29.881	41.902	1318.281	1188.960
-28.867	41.941	1316.588	1187.617
-27.852	42.097	1314.492	1186.605
-26.838	42.105	1313.322	1185.551
-25.823	42.019	1311.608	1183.447
-24.809	42.103	1310.284	1182.704
-23.794	41.988	1309.404	1181.184
-22.779	42.034	1307.965	1180.108
-21.765	42.190	1305.724	1178.957
-20.750	42.042	1304.978	1177.367
-19.736	41.960	1303.825	1175.798
-18.721	42.010	1302.142	1174.526
-17.706	41.847	1301.524	1172.970
-16.692	41.913	1299.960	1171.897
-15.677	41.863	1299.017	1170.712
-14.663	41.815	1297.999	1169.466
-13.648	41.845	1296.742	1168.462
-12.633	41.902	1295.199	1167.357
-11.619	41.819	1294.410	1166.115
-10.604	41.842	1293.850	1165.700
-9.590	41.835	1292.766	1164.632
-8.575	41.868	1291.819	1163.925
-7.560	41.815	1290.766	1162.624
-6.546	41.741	1289.983	1161.444
-5.531	41.764	1289.253	1160.872
-4.517	41.758	1288.143	1159.794
-3.502	41.932	1287.237	1159.941
-2.487	41.937	1286.203	1158.989
-1.473	41.844	1282.452	1155.030
-0.458	40.865	1267.202	1135.657
0.556	36.090	1247.220	1094.163
1.571	32.481	1251.052	1076.825
2.586	31.257	1265.885	1082.408
3.600	29.363	1254.325	1061.538
4.615	20.633	1175.455	947.381
5.629	7.312	1090.009	810.718
6.644	1.242	1065.147	761.748
7.659	0.871	1061.968	757.553
8.673	0.655	1061.043	755.744
9.688	0.494	1059.651	753.883
10.702	1.027	1058.401	755.583
11.717	8.773	1070.416	803.051
12.731	19.887	1086.250	871.111
13.746	23.482	1089.591	891.829
14.761	23.062	1088.894	889.067
15.775	23.029	1088.323	888.356
16.790	22.843	1087.457	886.639
17.804	22.794	1087.116	886.035
18.819	22.834	1086.679	885.800
19.834	22.892	1086.186	885.611
20.848	22.912	1085.704	885.240
21.863	22.954	1084.883	884.706
22.877	22.833	1084.378	883.611
23.892	22.834	1083.464	882.791
24.907	22.798	1082.888	882.062
25.921	22.915	1081.302	881.280
26.936	22.835	1080.365	880.038
27.950	22.717	1078.866	878.152
28.965	22.601	1077.194	876.133
29.980	22.740	1075.353	875.251
30.994	22.960	1074.170	875.302
32.009	22.873	1073.471	874.221
33.023	22.784	1071.702	872.263
34.038	22.867	1071.132	872.133
35.053	22.948	1070.715	872.115
36.067	22.969	1069.250	870.950
37.082	22.978	1068.706	870.475
38.096	23.104	1068.417	870.784
39.111	23.140	1067.736	870.327
40.126	22.985	1066.254	868.282
41.140	22.671	1064.852	865.520
42.155	22.454	1063.241	863.072
43.169	22.538	1061.875	862.300
44.184	22.560	1061.194	861.778
45.199	22.511	1060.093	860.565
46.213	22.613	1059.314	860.355
47.228	22.624	1058.602	859.756
48.242	22.673	1058.127	859.530
49.257	22.857	1056.781	859.258
50.271	22.923	1055.996	858.866
51.286	22.984	1055.237	858.465
52.301	22.956	1054.353	857.536
53.315	22.787	1053.556	855.991
54.330	22.932	1052.176	855.498
55.344	22.875	1051.957	854.968
56.359	22.926	1050.619	854.053
57.374	22.594	1049.895	851.784
58.388	22.751	1049.127	851.845
59.403	22.530	1048.737	850.386
60.417	22.415	1047.118	848.442
61.432	22.473	1047.142	848.667
62.447	22.663	1046.170	848.717
63.461	22.689	1045.547	848.264
64.476	22.715	1043.914	846.987
65.490	22.519	1043.416	845.568
66.505	22.610	1042.657	845.312
67.520	22.747	1042.048	845.402
68.534	22.527	1041.108	843.510
69.549	22.150	1040.063	840.786
70.563	22.270	1038.725	840.203
71.578	22.129	1038.099	838.950
72.593	22.015	1036.954	837.407
73.607	22.213	1036.877	838.214
74.622	22.434	1036.376	838.789
75.636	22.495	1035.972	838.676
76.651	22.424	1034.808	837.323
77.666	22.210	1033.906	835.504
78.680	22.400	1033.157	835.727
79.695	22.506	1032.222	835.398
80.709	22.496	1032.104	835.179
81.724	22.528	1031.019	834.383
82.739	22.604	1030.278	834.069
83.753	22.778	1029.780	834.412
84.768	23.169	1028.876	835.455
85.782	23.248	1027.989	835.031
86.797	23.228	1026.802	833.900
87.812	23.033	1026.012	832.267
88.826	23.015	1025.300	831.529
89.841	23.121	1024.541	831.338
90.855	23.133	1023.351	830.356
91.870	23.143	1022.270	829.452
92.884	23.057	1021.227	828.129
93.899	23.033	1020.244	827.149
94.914	23.172	1019.656	827.246
95.928	23.045	1018.550	825.686
96.943	22.750	1017.303	823.226
97.957	22.504	1016.438	821.303
98.972	22.422	1015.127	819.790
99.987	22.629	1014.678	820.319
101.001	22.737	1013.888	820.109
102.016	22.766	1012.833	819.317
103.030	22.661	1012.270	818.303
104.045	22.606	1010.849	816.827
105.060	22.494	1009.636	815.254
106.074	22.612	1009.439	815.569
107.089	22.983	1008.818	816.710
108.103	22.809	1007.575	814.832
109.118	22.683	1006.058	812.950
110.133	22.708	1004.870	812.034
111.147	22.443	1004.231	810.228
112.162	22.466	1002.694	809.023
113.176	22.549	1002.487	809.163
114.191	22.469	1001.661	808.060
115.206	22.120	1000.234	805.235
116.220	22.187	999.091	804.550
117.235	22.520	998.305	805.370
118.249	22.245	998.175	803.938
119.264	22.248	997.034	802.963
120.279	22.279	996.685	802.748
121.293	22.379	995.456	802.146
122.308	22.283	995.133	801.375
123.322	22.386	993.583	800.524
124.337	22.247	992.139	798.659
125.352	21.796	990.608	795.310
126.366	21.635	989.826	793.884
127.381	22.303	990.026	797.002
128.395	22.794	989.371	798.624
129.410	22.850	988.556	798.148
130.424	22.786	988.193	797.497
131.439	22.885	986.501	796.507
132.454	22.822	985.649	795.464
133.468	22.775	985.121	794.759
134.483	23.009	983.934	794.783
135.497	23.091	983.298	794.568
136.512	23.133	982.808	794.289
137.527	23.176	981.618	793.449
138.541	23.140	981.135	792.827
139.556	23.143	980.246	792.051
140.570	23.216	979.646	791.823
141.585	23.284	978.134	790.836
142.600	23.129	976.961	789.124
143.614	23.356	976.534	789.722
144.629	23.488	975.972	789.785
145.643	23.135	974.820	787.212
146.658	23.140	973.318	785.954
147.673	23.135	972.006	784.801
148.687	22.968	971.065	783.234
149.702	22.871	970.007	781.879
150.716	22.902	968.893	781.054
151.731	23.041	968.364	781.169
152.746	23.150	968.128	781.391
153.760	23.312	967.579	781.596
154.775	23.315	966.522	780.685
155.789	23.247	965.831	779.760
156.804	23.200	964.667	778.544
157.819	23.268	964.249	778.435
158.833	23.290	963.649	777.979
159.848	23.322	962.672	777.260
160.862	23.112	961.410	775.255
161.877	23.077	960.614	774.389
162.892	23.325	959.592	774.584
163.906	23.220	958.393	773.086
164.921	23.251	957.278	772.256
165.935	23.283	956.541	771.731
166.950	23.322	955.751	771.195
167.964	23.287	954.841	770.240
168.979	23.164	953.950	768.917
169.994	23.179	952.488	767.740
171.008	23.336	952.237	768.147
172.023	23.440	951.348	767.814
173.037	23.066	950.552	765.486
174.052	22.985	949.657	764.347
175.067	23.022	948.732	763.696
176.081	23.060	948.655	763.730
177.096	23.062	948.045	763.177
178.110	22.796	946.385	760.627
179.125	22.780	945.488	759.772
180.140	22.735	945.464	759.491
181.154	22.864	945.093	759.681
182.169	23.179	944.931	760.839
183.183	23.307	944.487	760.961
184.198	23.185	943.536	759.606
185.213	23.104	942.989	758.752
186.227	23.337	942.083	758.953
187.242	23.251	941.357	757.932
188.256	23.268	940.779	757.474
189.271	23.471	939.892	757.560
190.286	23.084	938.922	755.057
191.300	22.700	937.199	751.970
192.315	21.840	935.563	746.928
193.329	21.813	935.196	746.456
194.344	22.716	935.729	750.661
195.359	23.134	935.914	752.518
196.373	23.236	935.499	752.552
197.388	23.127	934.763	751.433
198.402	23.085	934.062	750.624
199.417	23.274	933.598	750.984
200.432	23.026	932.072	748.640
201.446	22.717	931.653	746.931
202.461	22.730	931.078	746.459
203.475	21.968	929.053	741.552
204.490	21.167	927.413	736.797
205.504	22.122	928.007	741.233
206.519	22.704	927.889	743.527
207.534	22.856	927.578	743.854
208.548	23.272	927.317	745.329
209.563	23.071	926.059	743.411
210.577	23.011	925.779	742.867
211.592	23.495	925.267	744.419
212.607	23.411	924.535	743.412
213.621	23.383	923.729	742.582
214.636	23.425	923.130	742.211
215.650	23.380	922.305	741.292
216.665	23.422	921.972	741.138
217.680	23.453	920.742	740.212
218.694	22.870	919.717	736.891
219.709	22.826	919.148	736.185
220.723	23.176	918.491	737.051
221.738	23.089	918.379	736.534
222.753	22.987	917.651	735.460
223.767	23.231	916.992	735.882
224.782	23.434	916.745	736.464
225.796	23.360	916.165	735.626
226.811	22.816	914.900	732.287
227.826	22.203	913.212	728.335
228.840	22.462	912.532	728.798
229.855	22.543	911.823	728.501
230.869	22.115	910.765	725.827
231.884	22.504	911.253	727.755
232.899	23.230	910.893	730.402
233.913	23.128	910.467	729.574
234.928	23.127	909.727	728.912
235.942	23.004	909.114	727.853
236.957	22.713	908.149	725.819
237.972	22.717	907.708	725.417
238.986	22.880	907.070	725.511
240.001	22.888	906.395	724.940
241.015	22.971	906.020	724.918
242.030	23.139	905.462	725.095
243.045	23.122	905.122	724.691
244.059	23.348	904.870	725.350
245.074	23.081	903.737	723.286
246.088	22.820	902.528	721.189
247.103	23.049	902.414	721.967
248.117	23.715	902.191	724.444
249.132	23.912	901.778	724.850
250.147	23.960	901.319	724.611
251.161	24.062	901.130	724.811
252.176	23.973	900.335	723.744
253.190	24.063	899.460	723.344
254.205	24.238	899.111	723.710
255.220	24.166	898.730	723.049
256.234	24.125	897.401	721.749
257.249	23.887	897.071	720.455
258.263	24.029	896.364	720.397
259.278	24.112	895.413	719.907
260.293	24.098	895.260	719.664
261.307	23.925	894.533	718.316
262.322	23.856	893.279	716.967
263.336	23.150	891.511	712.641
264.351	22.039	889.590	706.575
265.366	22.103	889.286	706.528
266.380	23.069	890.447	711.278
267.395	23.526	890.031	712.717
268.409	23.647	888.891	712.226
269.424	23.806	888.150	712.208
270.439	23.851	887.531	711.829
271.453	24.037	887.226	712.264
272.468	23.994	887.275	712.071
273.482	24.081	886.497	711.732
274.497	23.738	885.207	709.264
275.512	23.408	884.335	707.185
276.526	23.909	884.076	708.914
277.541	23.999	884.287	709.378
278.555	23.704	883.020	707.123
279.570	23.528	882.422	705.884
280.585	23.836	881.544	706.343
281.599	23.774	880.574	705.255
282.614	23.031	879.418	701.324
283.628	23.157	879.003	701.427
284.643	23.520	878.611	702.491
285.657	23.114	877.509	699.940
286.672	22.845	876.675	698.150
287.687	23.209	877.430	700.129
288.701	23.441	875.867	699.736
289.716	23.009	875.470	697.654
290.730	23.103	874.606	697.276
291.745	22.847	874.096	695.795
292.760	23.070	873.684	696.287
293.774	24.198	873.656	700.642
294.789	24.520	873.770	701.938
295.803	24.394	872.920	700.696
296.818	24.572	872.501	700.997
297.833	24.106	870.964	697.874
298.847	23.865	870.645	696.614
299.862	24.301	870.204	697.906
300.876	24.413	870.083	698.184
301.891	24.375	869.044	697.142
302.906	23.852	868.460	694.566
303.920	23.905	868.311	694.594
304.935	24.559	867.626	696.535
305.949	24.435	867.177	695.631
306.964	24.103	866.284	693.558
307.979	24.028	865.920	692.914
308.993	24.535	865.546	694.526
310.008	24.501	865.146	694.012
311.022	24.256	864.232	692.265
312.037	24.181	863.374	691.227
313.052	23.814	862.802	689.281
314.066	23.105	860.837	684.909
315.081	22.736	860.311	683.000
316.095	23.422	860.826	686.006
317.110	24.157	860.551	688.568
318.125	23.303	859.012	683.978
319.139	22.129	857.611	678.273
320.154	22.122	857.220	677.880
321.168	23.061	857.252	681.465
322.183	23.734	857.582	684.260
323.197	23.914	857.410	684.754
324.212	24.170	857.030	685.374
325.227	24.094	856.476	684.580
326.241	24.067	855.428	683.577
327.256	24.008	854.822	682.805
328.270	23.877	854.247	681.785
329.285	23.783	853.658	680.893
330.300	23.495	852.636	678.918
331.314	23.874	852.349	680.076
332.329	24.015	852.456	680.644
333.343	24.344	852.142	681.590
334.358	24.180	851.557	680.436
335.373	24.272	851.372	680.578
336.387	24.632	851.107	681.680
337.402	24.765	850.716	681.814
338.416	24.683	850.138	680.976
339.431	24.750	849.713	680.832
340.446	24.876	850.038	681.512
341.460	24.894	849.200	680.848
342.475	24.606	848.393	679.047
343.489	24.765	848.115	679.368
344.504	24.863	848.456	679.952
345.519	25.200	847.500	680.405
346.533	25.146	846.911	679.668
347.548	25.116	846.713	679.335
348.562	25.071	845.864	678.421
349.577	24.987	845.347	677.630
350.592	24.995	845.071	677.380
351.606	24.991	844.217	676.619
352.621	24.872	843.270	675.351
353.635	24.776	842.379	674.218
354.650	24.107	840.970	670.512
355.665	23.160	839.439	665.669
356.679	23.610	839.488	667.341
357.694	23.985	838.919	668.240
358.708	24.075	838.376	668.085
359.723	24.370	838.046	668.870
360.738	24.673	838.012	669.918
361.752	24.830	837.362	669.928
362.767	25.012	837.129	670.364
363.781	25.344	836.552	671.085
364.796	25.376	836.340	670.974
365.810	25.531	836.035	671.247
366.825	25.461	835.415	670.432
367.840	25.154	834.561	668.541
368.854	24.696	833.651	666.049
369.869	24.744	833.687	666.197
370.883	24.804	832.856	665.695
371.898	24.651	832.681	664.927
372.913	24.741	832.515	665.072
373.927	24.885	831.598	664.815
374.942	25.120	831.065	665.203
375.956	25.057	830.956	664.820
376.971	25.398	830.546	665.700
377.986	25.406	830.473	665.611
379.000	25.331	829.423	664.435
380.015	25.203	829.178	663.704
381.029	25.264	828.358	663.216
382.044	25.309	827.796	662.874
383.059	25.520	827.027	662.976
384.073	25.355	826.712	662.057
385.088	25.424	825.582	661.346
386.102	25.290	825.152	660.451
387.117	25.146	824.722	659.521
388.132	24.876	823.451	657.452
389.146	24.174	822.562	654.110
390.161	24.738	822.760	656.278
391.175	25.131	822.666	657.587
392.190	24.807	821.278	655.232
393.205	23.504	819.228	648.776
394.219	22.087	817.849	642.448
395.234	21.763	817.694	641.086
396.248	23.529	818.676	648.261
397.263	25.003	819.744	654.435
398.278	25.002	818.910	653.708
399.292	24.767	818.635	652.575
400.307	24.629	818.133	651.613
401.321	24.865	817.635	652.017
402.336	25.222	817.625	653.254
403.350	25.555	817.884	654.616
404.365	25.832	817.114	654.947
405.380	26.096	817.185	655.907
406.394	26.093	816.654	655.411
407.409	25.982	815.837	654.296
408.423	25.932	815.522	653.804
409.438	26.103	814.914	653.878
410.453	26.226	814.684	654.079
411.467	25.968	814.176	652.680
412.482	26.044	813.768	652.570
413.496	26.117	813.829	652.827
414.511	26.074	813.319	652.202
415.526	26.100	812.492	651.577
416.540	25.939	812.126	650.645
417.555	25.668	811.399	649.028
418.569	25.804	810.722	648.918
419.584	25.691	810.428	648.218
420.599	25.566	809.425	646.910
421.613	91.265	1255.275	1353.423
422.628	78.287	1320.267	1353.563
