DTS Sentinel unit serial number:	SN413079Multiplexer serial number:	ORYXHardware model number:	OX4-SRSoftware version number:	ORYX F/W v4.00 Oryx Data Collector v3.7.2.0data status	okinstallation	princeton_trtdifferential loss correction	single-endedforward channel	channel 1reverse channel	N/Adate	2019/09/11time	09:08:11forward acquisition time	60.00reverse acquisition time	0.00gamma	496.2192k internal	0.2309k external	0.2309temperature offset calibration	0.9950default loss term (dB/km)	0.3790temperature slope calibration	1.0000multiplexer offset coefficient	1.0000multiplexer slope coefficient	1.0000fibre end	0.00T internal ref (°C)	34.25T ext. ref 1 (°C)	0.10T ext. ref 2 (°C)	30.00length (m)	temperature (°C)	Stokes	anti-Stokes-747.200	-132.892	0.404	-0.052
-746.185	-131.872	-0.174	0.023
-745.171	310.650	0.201	-0.382
-744.156	-53.069	-0.191	0.089
-743.142	-166.527	0.118	-0.005
-742.127	706.547	0.097	0.259
-741.112	800.000	0.053	0.226
-740.098	-15.809	0.235	-0.152
-739.083	-200.000	-0.037	-0.206
-738.069	379.839	-0.171	0.356
-737.054	328.376	-0.147	-0.287
-736.039	-200.000	0.005	-0.148
-735.025	-72.862	0.228	0.085
-734.010	-43.401	-0.117	0.060
-732.996	-200.000	-0.031	-0.168
-731.981	-185.246	-0.314	0.005
-730.966	158.938	0.113	-0.159
-729.952	800.000	0.069	-0.199
-728.937	-25.825	-0.156	-0.093
-727.923	-200.000	0.047	-0.234
-726.908	-79.497	0.077	-0.026
-725.894	800.000	0.050	-0.223
-724.879	-200.000	0.002	-0.020
-723.864	-200.000	-0.011	0.205
-722.850	-145.340	0.180	0.017
-721.835	-84.756	-0.221	0.071
-720.821	427.515	-0.109	0.238
-719.806	-71.288	0.063	0.024
-718.791	791.261	-0.105	-0.292
-717.777	-110.438	-0.453	-0.095
-716.762	800.000	0.073	-0.307
-715.748	-80.025	-0.086	-0.029
-714.733	-59.931	0.052	-0.023
-713.718	-200.000	0.008	-0.064
-712.704	800.000	0.103	-0.423
-711.689	-88.997	0.097	-0.029
-710.675	130.861	-0.132	-0.172
-709.660	-8.477	-0.250	-0.170
-708.645	34.030	-0.178	0.158
-707.631	-78.277	0.358	-0.125
-706.616	-19.227	-0.123	-0.077
-705.602	800.000	-0.054	-0.174
-704.587	-53.169	0.212	-0.099
-703.572	-200.000	-0.052	0.377
-702.558	-150.767	0.160	0.012
-701.543	-200.000	0.051	0.275
-700.529	800.000	0.093	-0.261
-699.514	-119.509	-0.042	-0.007
-698.499	306.080	0.072	0.136
-697.485	194.484	-0.015	0.024
-696.470	-77.945	-0.193	0.067
-695.456	-200.000	0.002	0.133
-694.441	209.864	0.272	0.432
-693.426	-166.460	0.144	0.006
-692.412	-200.000	0.044	-0.399
-691.397	100.937	0.281	0.331
-690.383	105.927	-0.166	0.199
-689.368	-200.000	0.030	0.179
-688.354	110.547	-0.084	0.102
-687.339	246.380	0.043	0.074
-686.324	800.000	-0.086	-0.332
-685.310	12.321	0.294	-0.230
-684.295	184.274	-0.137	-0.205
-683.281	-139.223	-0.306	0.033
-682.266	800.000	0.077	-0.308
-681.251	164.404	0.162	-0.232
-680.237	-200.000	0.039	0.270
-679.222	-185.145	0.125	0.002
-678.208	61.329	-0.225	-0.226
-677.193	0.114	-0.048	0.034
-676.178	232.989	0.090	0.150
-675.164	28.645	-0.255	-0.219
-674.149	-137.866	-0.214	-0.024
-673.135	-62.317	0.146	-0.062
-672.120	-49.867	-0.091	-0.044
-671.105	125.407	-0.118	0.151
-670.091	-2.091	-0.321	-0.229
-669.076	-144.215	-0.602	-0.057
-668.062	-200.000	0.018	-0.115
-667.047	-200.000	0.005	-0.030
-666.032	275.755	-0.097	-0.174
-665.018	-22.638	0.226	-0.138
-664.003	-158.559	0.062	0.004
-662.989	9.495	-0.212	-0.162
-661.974	295.998	-0.093	0.173
-660.959	98.894	-0.160	-0.187
-659.945	800.000	-0.113	-0.393
-658.930	800.000	0.045	0.168
-657.916	-200.000	-0.100	-0.468
-656.901	136.686	-0.149	-0.197
-655.886	-144.045	0.160	0.015
-654.872	-48.907	0.195	0.095
-653.857	-200.000	-0.053	0.447
-652.843	614.845	-0.088	-0.222
-651.828	-54.579	-0.376	-0.172
-650.814	381.533	0.119	-0.247
-649.799	8.824	0.145	-0.111
-648.784	-125.728	0.399	-0.061
-647.770	9.228	-0.240	-0.183
-646.755	-200.000	-0.004	0.432
-645.741	188.303	0.126	0.191
-644.726	-200.000	0.025	0.170
-643.711	-123.243	-0.245	-0.040
-642.697	800.000	-0.044	0.163
-641.682	800.000	-0.069	-0.284
-640.668	-22.728	-0.211	-0.129
-639.653	-146.855	0.180	-0.016
-638.638	-61.118	0.117	0.050
-637.624	-200.000	-0.122	-0.597
-636.609	57.993	0.106	-0.105
-635.595	-125.972	0.167	0.025
-634.580	800.000	-0.065	0.225
-633.565	295.429	-0.082	-0.152
-632.551	-70.945	-0.105	-0.040
-631.536	-200.000	-0.025	-0.271
-630.522	-200.000	0.020	0.156
-629.507	-116.171	-0.182	0.034
-628.492	98.449	-0.037	0.044
-627.478	-200.000	0.033	-0.188
-626.463	-159.370	0.224	0.013
-625.449	68.715	0.077	-0.080
-624.434	-129.523	-0.167	-0.023
-623.419	-75.592	0.147	0.053
-622.405	800.000	0.024	0.081
-621.390	53.017	0.142	0.137
-620.376	383.337	0.180	0.374
-619.361	-200.000	-0.030	-0.193
-618.346	-120.560	0.155	-0.027
-617.332	313.368	-0.269	-0.512
-616.317	160.609	0.099	-0.140
-615.303	295.216	0.131	-0.242
-614.288	-43.250	-0.190	-0.097
-613.273	800.000	-0.121	0.454
-612.259	181.071	-0.109	-0.161
-611.244	-78.873	0.277	0.095
-610.230	-200.000	0.033	-0.279
-609.215	-200.000	0.024	0.138
-608.201	225.251	0.164	-0.268
-607.186	68.057	-0.253	0.262
-606.171	800.000	0.067	0.273
-605.157	-120.690	0.226	-0.039
-604.142	-138.228	-0.291	0.033
-603.128	253.167	-0.126	-0.216
-602.113	145.675	-0.089	-0.120
-601.098	-169.636	0.056	-0.002
-600.084	26.216	-0.069	0.058
-599.069	33.127	0.048	-0.042
-598.055	-6.661	-0.094	0.064
-597.040	800.000	0.048	0.175
-596.025	-148.910	0.310	0.025
-595.011	-81.833	0.105	0.035
-593.996	-200.000	0.030	0.315
-592.982	-200.000	0.053	-0.374
-591.967	-54.569	-0.372	0.170
-590.952	215.613	-0.065	0.105
-589.938	800.000	-0.033	-0.115
-588.923	43.092	-0.159	-0.146
-587.909	186.680	-0.131	0.197
-586.894	-82.487	0.194	-0.064
-585.879	-111.872	-0.133	-0.027
-584.865	800.000	-0.017	-0.070
-583.850	800.000	-0.066	0.286
-582.836	-81.446	0.380	0.126
-581.821	398.898	-0.040	-0.084
-580.806	-200.000	-0.012	-0.231
-579.792	-140.861	-0.100	0.010
-578.777	-19.997	-0.137	-0.086
-577.763	-159.406	0.426	-0.024
-576.748	222.158	-0.121	-0.196
-575.733	-129.788	0.164	0.023
-574.719	246.821	0.013	-0.023
-573.704	-53.337	0.196	0.091
-572.690	-114.491	-0.201	-0.039
-571.675	60.430	-0.277	-0.276
-570.661	800.000	-0.150	-0.463
-569.646	669.535	-0.059	0.155
-568.631	302.372	0.107	-0.201
-567.617	-99.582	-0.249	-0.063
-566.602	-29.225	0.066	-0.038
-565.588	-129.825	0.133	-0.019
-564.573	-10.493	-0.163	-0.109
-563.558	148.238	0.074	-0.101
-562.544	163.511	0.083	0.118
-561.529	-140.045	0.113	-0.012
-560.515	-200.000	0.054	0.280
-559.500	-200.000	0.003	0.084
-558.485	489.625	-0.088	-0.204
-557.471	-153.233	0.047	0.003
-556.456	-25.343	-0.270	-0.161
-555.442	-39.448	0.256	-0.135
-554.427	-14.239	-0.219	-0.142
-553.412	373.369	0.145	-0.298
-552.398	-68.468	-0.238	0.093
-551.383	8.809	-0.192	-0.146
-550.369	153.607	0.188	0.260
-549.354	53.718	-0.136	0.132
-548.339	-47.200	0.143	-0.070
-547.325	49.294	-0.165	-0.157
-546.310	-69.867	0.231	-0.089
-545.296	-200.000	-0.016	-0.512
-544.281	211.300	0.080	-0.128
-543.266	152.159	-0.109	-0.150
-542.252	743.649	0.083	0.226
-541.237	-86.790	-0.131	0.040
-540.223	55.654	-0.127	-0.124
-539.208	-116.701	0.430	-0.080
-538.193	-21.657	0.576	-0.354
-537.179	800.000	-0.047	-0.177
-536.164	-152.640	-0.081	0.006
-535.150	800.000	0.115	0.323
-534.135	-2.673	0.032	0.022
-533.121	-103.716	-0.249	0.059
-532.106	-49.535	0.058	-0.028
-531.091	-80.032	0.280	-0.095
-530.077	-104.099	-0.231	-0.054
-529.062	-16.965	-0.114	-0.073
-528.048	480.421	-0.106	-0.243
-527.033	-76.577	0.214	-0.076
-526.018	800.000	0.008	-0.034
-525.004	-151.982	0.174	0.013
-523.989	-41.191	-0.221	-0.115
-522.975	-22.915	-0.208	0.127
-521.960	-20.306	0.118	0.073
-520.945	-200.000	0.072	-0.322
-519.931	-44.145	0.101	-0.051
-518.916	-131.531	0.216	0.029
-517.902	196.729	0.032	-0.050
-516.887	-101.575	0.218	0.053
-515.872	-78.723	0.222	0.076
-514.858	216.288	0.256	-0.409
-513.843	252.623	0.061	0.105
-512.829	136.070	-0.129	-0.169
-511.814	-74.647	0.164	0.059
-510.799	-200.000	0.038	0.311
-509.785	800.000	0.116	-0.451
-508.770	-49.060	-0.135	-0.065
-507.756	-200.000	-0.027	0.139
-506.741	50.496	-0.145	-0.138
-505.726	800.000	0.064	-0.188
-504.712	470.559	0.157	-0.356
-503.697	-200.000	0.020	0.115
-502.683	236.154	-0.135	-0.225
-501.668	184.653	-0.055	0.082
-500.653	800.000	0.097	-0.274
-499.639	322.394	-0.025	-0.048
-498.624	200.423	0.077	-0.119
-497.610	576.040	-0.095	-0.233
-496.595	-129.664	-0.328	-0.046
-495.581	-200.000	-0.003	-0.145
-494.566	184.666	0.220	-0.328
-493.551	-54.612	0.175	-0.080
-492.537	-200.000	-0.054	-0.286
-491.522	-200.000	-0.017	-0.216
-490.508	-200.000	-0.003	0.124
-489.493	63.499	0.073	-0.074
-488.478	-11.214	0.062	-0.041
-487.464	-200.000	-0.024	-0.116
-486.449	-84.252	-0.180	-0.057
-485.435	800.000	0.049	0.151
-484.420	-71.933	0.178	-0.066
-483.405	183.628	0.033	0.049
-482.391	-200.000	-0.095	0.432
-481.376	34.748	-0.090	-0.079
-480.362	-200.000	-0.016	0.192
-479.347	-200.000	0.271	-0.001
-478.332	-200.000	0.048	-0.225
-477.318	197.668	-0.165	-0.253
-476.303	800.000	0.066	0.213
-475.289	800.000	0.046	-0.191
-474.274	-200.000	-0.003	-0.025
-473.259	40.390	0.096	-0.087
-472.245	-178.795	-0.225	-0.005
-471.230	800.000	0.060	0.257
-470.216	-200.000	-0.053	0.250
-469.201	-66.437	0.194	-0.078
-468.186	8.708	0.177	-0.134
-467.172	10.318	0.272	-0.208
-466.157	230.816	0.092	0.151
-465.143	408.211	0.140	-0.298
-464.128	-200.000	-0.015	-0.128
-463.113	-66.553	0.158	0.063
-462.099	-68.947	-0.088	-0.034
-461.084	241.866	-0.056	-0.093
-460.070	239.458	-0.081	-0.136
-459.055	-200.000	-0.002	0.169
-458.040	76.477	0.288	0.307
-457.026	-155.321	0.218	-0.014
-456.011	32.124	0.048	0.041
-454.997	566.398	0.156	0.381
-453.982	743.951	0.035	-0.094
-452.968	800.000	-0.094	0.338
-451.953	172.672	-0.232	0.336
-450.938	346.200	-0.116	0.230
-449.924	-56.838	0.166	0.074
-448.909	-18.222	-0.196	0.123
-447.895	275.602	-0.118	0.210
-446.880	3.452	0.214	0.157
-445.865	749.611	0.078	-0.210
-444.851	-84.511	-0.371	-0.118
-443.836	-94.651	0.182	0.050
-442.822	472.700	-0.041	-0.092
-441.807	179.777	-0.167	-0.245
-440.792	-200.000	0.065	0.371
-439.778	-139.737	-0.105	-0.011
-438.763	151.701	-0.346	-0.474
-437.749	598.885	-0.130	-0.323
-436.734	144.936	0.239	0.321
-435.719	-196.454	-0.159	0.001
-434.705	583.558	0.081	0.201
-433.690	-151.070	-0.254	0.019
-432.676	-88.530	-0.385	-0.115
-431.661	23.889	-0.103	-0.085
-430.646	-200.000	0.014	0.227
-429.632	-126.867	-0.292	0.043
-428.617	228.734	-0.184	-0.301
-427.603	133.654	-0.132	0.172
-426.588	46.208	0.286	-0.265
-425.573	1.826	-0.060	-0.043
-424.559	-47.011	0.247	-0.121
-423.544	218.787	-0.263	0.422
-422.530	32.625	-0.278	-0.241
-421.515	-192.476	-0.312	-0.003
-420.500	-106.434	-0.322	-0.072
-419.486	-83.260	-0.309	0.100
-418.471	305.633	0.164	-0.306
-417.457	-200.000	-0.017	-0.080
-416.442	41.448	-0.117	0.106
-415.428	222.226	-0.029	0.047
-414.413	-200.000	-0.062	-0.605
-413.398	-131.862	0.404	0.053
-412.384	-200.000	-0.040	-0.287
-411.369	309.724	-0.141	-0.265
-410.355	-200.000	-0.005	0.069
-409.340	-139.742	0.056	0.006
-408.325	-159.054	-0.114	-0.006
-407.311	-200.000	0.006	-0.103
-406.296	-200.000	0.001	0.255
-405.282	-200.000	0.013	-0.118
-404.267	619.526	0.060	0.152
-403.252	-200.000	0.048	-0.301
-402.238	-200.000	-0.000	0.034
-401.223	-200.000	0.014	-0.094
-400.209	24.942	-0.260	0.216
-399.194	325.469	0.087	0.167
-398.179	-45.025	0.296	-0.148
-397.165	44.873	0.168	-0.155
-396.150	-200.000	0.037	0.202
-395.136	297.174	-0.160	-0.294
-394.121	-1.675	-0.237	0.167
-393.106	-17.468	-0.103	-0.065
-392.092	-6.467	0.125	0.086
-391.077	168.674	-0.052	-0.074
-390.063	209.035	0.081	-0.127
-389.048	45.642	0.177	-0.164
-388.033	-144.561	0.101	0.009
-387.019	-200.000	-0.017	-0.226
-386.004	-120.509	-0.260	-0.044
-384.990	316.867	0.130	0.246
-383.975	-128.822	-0.110	-0.016
-382.960	-200.000	0.002	0.468
-381.946	-200.000	0.021	0.431
-380.931	239.997	-0.147	-0.245
-379.917	-200.000	0.015	-0.210
-378.902	18.101	-0.019	0.015
-377.888	-21.128	-0.157	0.096
-376.873	-200.000	0.005	-0.321
-375.858	-200.000	0.005	-0.126
-374.844	252.308	0.079	-0.136
-373.829	342.012	0.039	0.077
-372.815	618.098	0.054	-0.136
-371.800	425.458	-0.046	-0.098
-370.785	-42.936	0.198	-0.101
-369.771	-109.376	-0.415	0.088
-368.756	-51.909	-0.195	-0.091
-367.742	537.775	0.147	-0.350
-366.727	-137.960	-0.273	-0.031
-365.712	-200.000	-0.006	0.250
-364.698	800.000	-0.041	-0.128
-363.683	84.358	0.151	0.165
-362.669	-149.975	-0.204	0.016
-361.654	800.000	-0.196	0.688
-360.639	-3.376	0.153	-0.106
-359.625	800.000	-0.083	0.250
-358.610	-18.145	0.292	0.183
-357.596	543.918	-0.155	-0.370
-356.581	-43.011	0.341	-0.173
-355.566	-28.777	0.420	-0.242
-354.552	-99.871	0.199	0.050
-353.537	-127.464	-0.040	0.006
-352.523	800.000	0.019	0.060
-351.508	102.737	0.208	0.243
-350.493	-3.150	0.359	0.250
-349.479	-122.133	-0.224	-0.037
-348.464	34.944	-0.099	-0.087
-347.450	-152.438	0.035	-0.002
-346.435	-46.825	0.227	0.111
-345.420	-92.627	0.159	-0.045
-344.406	-92.106	0.114	-0.032
-343.391	-200.000	-0.030	0.210
-342.377	14.981	-0.125	0.098
-341.362	27.900	-0.307	0.259
-340.348	31.774	0.106	-0.092
-339.333	14.252	0.068	-0.053
-338.318	-54.959	-0.226	0.102
-337.304	-125.839	0.294	0.044
-336.289	144.069	0.316	-0.421
-335.275	-200.000	0.044	-0.193
-334.260	800.000	0.115	-0.423
-333.245	-8.120	0.075	0.050
-332.231	-200.000	-0.016	0.336
-331.216	210.554	-0.247	-0.388
-330.202	28.963	0.136	-0.115
-329.187	800.000	-0.087	0.288
-328.172	-200.000	0.022	-0.364
-327.158	-200.000	-0.043	-0.230
-326.143	-116.329	-0.238	-0.044
-325.129	-100.578	0.074	-0.018
-324.114	29.955	-0.241	0.205
-323.099	-200.000	0.025	-0.126
-322.085	800.000	0.048	-0.134
-321.070	-17.270	0.247	-0.156
-320.056	-106.859	-0.316	-0.070
-319.041	-200.000	-0.040	0.313
-318.026	-200.000	-0.018	0.376
-317.012	-200.000	-0.010	0.446
-315.997	-101.549	0.293	0.071
-314.983	-200.000	0.030	0.243
-313.968	-32.982	-0.137	-0.076
-312.953	-60.342	0.379	0.161
-311.939	-200.000	0.020	0.346
-310.924	228.129	-0.093	0.152
-309.910	-130.094	-0.021	0.003
-308.895	318.075	0.039	0.074
-307.880	-131.641	-0.260	-0.034
-306.866	4.637	-0.108	0.079
-305.851	89.850	0.134	-0.150
-304.837	68.140	0.236	-0.242
-303.822	1.237	-0.184	0.132
-302.807	-77.989	-0.134	-0.046
-301.793	-200.000	0.044	0.240
-300.778	264.090	0.020	0.034
-299.764	2.570	-0.191	-0.138
-298.749	40.977	0.058	0.053
-297.735	-200.000	0.058	-0.337
-296.720	-200.000	-0.004	0.210
-295.705	-184.972	-0.210	0.003
-294.691	427.168	0.083	0.179
-293.676	-16.907	-0.031	0.019
-292.662	800.000	-0.084	0.280
-291.647	-140.474	-0.465	0.048
-290.632	800.000	-0.065	0.194
-289.618	-200.000	-0.023	0.140
-288.603	800.000	0.090	0.350
-287.589	233.679	-0.078	-0.129
-286.574	-200.000	0.001	-0.107
-285.559	1.070	-0.280	0.201
-284.545	155.369	0.121	-0.166
-283.530	-60.307	-0.319	0.135
-282.516	-9.287	0.025	-0.016
-281.501	-199.856	-0.257	-0.001
-280.486	-51.960	0.196	-0.091
-279.472	-200.000	0.015	0.318
-278.457	90.971	0.075	0.084
-277.443	-75.317	0.412	-0.147
-276.428	501.170	0.031	0.071
-275.413	-86.633	-0.197	0.060
-274.399	-39.731	-0.192	0.100
-273.384	800.000	0.050	0.173
-272.370	135.956	0.142	0.185
-271.355	-32.326	-0.191	-0.106
-270.340	308.582	-0.054	-0.100
-269.326	-200.000	-0.009	-0.066
-268.311	-174.524	-0.176	-0.005
-267.297	148.575	0.087	0.117
-266.282	-14.023	-0.154	0.099
-265.267	-92.587	0.351	0.098
-264.253	558.820	-0.048	-0.116
-263.238	279.291	-0.199	-0.355
-262.224	-200.000	0.008	-0.291
-261.209	422.483	0.083	-0.178
-260.195	-156.951	-0.274	-0.017
-259.180	-105.662	-0.296	-0.067
-258.165	56.391	-0.034	-0.033
-257.151	133.668	-0.386	0.497
-256.136	-92.275	0.247	0.069
-255.122	402.114	0.092	0.193
-254.107	-32.720	-0.324	-0.180
-253.092	-200.000	0.003	0.435
-252.078	131.026	0.225	0.288
-251.063	97.941	0.208	-0.238
-250.049	175.521	-0.080	0.115
-249.034	-108.209	0.210	0.045
-248.019	-200.000	-0.006	-0.257
-247.005	105.003	0.283	0.333
-245.990	771.850	-0.094	0.255
-244.976	-200.000	0.029	-0.335
-243.961	-74.849	-0.153	0.055
-242.946	110.352	-0.212	0.254
-241.932	-200.000	-0.005	-0.194
-240.917	36.021	-0.073	-0.064
-239.903	-200.000	-0.002	0.019
-238.888	-126.794	0.280	-0.041
-237.873	-99.849	0.088	0.022
-236.859	447.257	-0.032	0.070
-235.844	4.947	0.237	-0.174
-234.830	-97.258	0.185	0.048
-233.815	129.307	-0.022	0.027
-232.800	194.530	0.110	-0.167
-231.786	-108.848	0.060	0.013
-230.771	-200.000	-0.028	0.341
-229.757	-113.888	-0.269	-0.052
-228.742	273.842	0.038	0.067
-227.727	-99.940	0.329	-0.082
-226.713	67.656	-0.075	0.077
-225.698	-73.222	0.168	-0.061
-224.684	89.765	-0.097	0.108
-223.669	111.294	-0.175	0.210
-222.655	109.364	0.148	-0.176
-221.640	-36.260	0.224	-0.120
-220.625	146.585	0.096	-0.128
-219.611	48.658	0.343	-0.320
-218.596	-200.000	0.005	-0.055
-217.582	-133.797	0.121	0.015
-216.567	-148.700	-0.067	-0.005
-215.552	276.752	0.165	0.293
-214.538	-200.000	-0.031	0.308
-213.523	218.729	0.073	0.116
-212.509	690.474	-0.072	0.189
-211.494	-115.575	0.191	0.036
-210.479	296.699	0.160	0.292
-209.465	800.000	-0.032	-0.116
-208.450	-200.000	-0.002	-0.295
-207.436	41.743	0.351	0.317
-206.421	631.909	0.121	-0.304
-205.406	-112.675	-0.172	-0.034
-204.392	53.056	-0.361	0.343
-203.377	800.000	0.106	0.371
-202.363	800.000	-0.086	-0.248
-201.348	6.549	-0.245	0.181
-200.333	-200.000	0.026	0.411
-199.319	-114.693	-0.234	-0.044
-198.304	127.035	0.192	0.242
-197.290	341.467	-0.107	0.207
-196.275	-200.000	-0.022	-0.177
-195.260	26.010	0.072	-0.059
-194.246	-183.595	-0.162	-0.003
-193.231	207.440	-0.271	0.420
-192.217	-200.000	0.005	-0.171
-191.202	-95.867	-0.015	-0.004
-190.187	-200.000	-0.024	0.334
-189.173	-28.349	-0.153	0.088
-188.158	117.898	-0.108	0.132
-187.144	-38.353	-0.547	0.288
-186.129	-200.000	-0.010	0.133
-185.114	-16.251	0.079	-0.050
-184.100	224.083	0.121	-0.195
-183.085	-37.005	0.115	-0.061
-182.071	-200.000	0.006	0.246
-181.056	-48.799	-0.171	-0.082
-180.042	-200.000	0.002	-0.047
-179.027	90.876	-0.058	0.064
-178.012	-99.112	0.128	-0.032
-176.998	-154.655	-0.219	-0.015
-175.983	58.499	-0.187	0.182
-174.969	156.792	-0.065	0.090
-173.954	-27.542	-0.032	0.018
-172.939	41.643	0.190	0.171
-171.925	200.816	0.200	0.306
-170.910	-200.000	0.006	0.125
-169.896	-94.481	-0.166	-0.045
-168.881	-200.000	0.002	0.090
-167.866	-88.714	0.222	0.065
-166.852	499.823	0.099	0.227
-165.837	151.106	0.139	0.188
-164.823	-5.515	0.189	0.129
-163.808	800.000	0.022	-0.081
-162.793	-33.475	-0.347	0.190
-161.779	194.726	0.146	-0.220
-160.764	1.016	-0.225	0.160
-159.750	173.115	0.208	0.297
-158.735	187.318	0.105	0.155
-157.720	-84.571	0.195	0.061
-156.706	202.045	-0.123	0.189
-155.691	-104.929	0.155	0.035
-154.677	-185.588	-0.239	0.004
-153.662	28.897	0.174	0.147
-152.647	214.531	-0.159	-0.249
-151.633	-200.000	0.045	-0.336
-150.618	-55.327	0.023	0.010
-149.604	-13.949	-0.193	0.124
-148.589	-122.205	0.238	0.039
-147.574	130.677	0.018	-0.022
-146.560	83.237	0.107	0.116
-145.545	-94.483	-0.130	0.035
-144.531	-200.000	-0.028	0.166
-143.516	-56.005	0.285	-0.126
-142.502	800.000	0.062	0.172
-141.487	-200.000	0.004	0.152
-140.472	130.386	-0.087	0.110
-139.458	200.587	0.101	0.154
-138.443	800.000	-0.105	0.348
-137.429	-126.590	-0.110	-0.016
-136.414	11.390	-0.142	-0.108
-135.399	244.600	-0.286	-0.477
-134.385	-96.223	-0.139	-0.037
-133.370	231.591	-0.193	-0.314
-132.356	296.064	-0.127	-0.231
-131.341	-200.000	-0.027	0.209
-130.326	-115.591	-0.165	-0.031
-129.312	117.066	0.277	0.338
-128.297	243.033	-0.102	-0.169
-127.283	-200.000	-0.050	0.232
-126.268	800.000	-0.043	0.157
-125.253	-56.050	0.160	-0.071
-124.239	-114.462	-0.357	-0.068
-123.224	-9.554	0.286	0.189
-122.210	116.757	0.068	0.083
-121.195	-81.965	-0.207	-0.067
-120.180	-7.797	0.406	0.272
-119.166	800.000	-0.079	0.332
-118.151	-200.000	0.013	0.171
-117.137	36.787	0.131	0.114
-116.122	139.680	0.108	-0.141
-115.107	453.943	-0.078	0.171
-114.093	-46.474	-0.189	0.092
-113.078	47.348	-0.030	0.027
-112.064	-200.000	-0.003	0.399
-111.049	-200.000	0.058	0.470
-110.034	103.312	-0.105	0.122
-109.020	377.754	0.277	0.561
-108.005	291.706	0.076	-0.137
-106.991	63.961	0.111	-0.111
-105.976	-40.305	0.257	0.133
-104.962	87.544	0.075	-0.083
-103.947	21.325	0.002	-0.001
-102.932	-200.000	-0.064	0.288
-101.918	-60.418	-0.280	-0.118
-100.903	224.428	0.096	0.154
-99.889	156.345	-0.087	0.118
-98.874	800.000	0.037	-0.155
-97.859	-166.644	-0.410	-0.017
-96.845	146.871	-0.209	0.278
-95.830	-28.697	-0.121	0.069
-94.816	-71.358	-0.366	-0.136
-93.801	-173.643	0.049	-0.001
-92.786	-200.000	-0.044	0.311
-91.772	70.894	0.119	-0.122
-90.757	10.301	-0.062	-0.047
-89.743	-24.365	0.297	-0.175
-88.728	-150.314	0.260	-0.020
-87.713	-58.732	0.230	-0.099
-86.699	-72.383	0.314	-0.115
-85.684	-137.030	-0.106	-0.012
-84.670	-200.000	0.016	-0.395
-83.655	224.463	0.107	0.172
-82.640	-17.577	-0.258	-0.161
-81.626	59.865	0.121	-0.119
-80.611	800.000	-0.047	0.200
-79.597	-200.000	-0.009	0.238
-78.582	-57.138	-0.260	-0.113
-77.567	42.742	0.140	0.126
-76.553	-164.108	-0.210	-0.010
-75.538	-124.432	0.408	-0.063
-74.524	198.804	0.084	0.127
-73.509	-112.259	0.210	0.042
-72.494	-200.000	0.031	-0.165
-71.480	-200.000	-0.032	0.295
-70.465	-200.000	-0.022	0.120
-69.451	93.811	0.278	-0.312
-68.436	685.999	0.129	-0.333
-67.422	-80.004	0.273	-0.091
-66.407	33.251	0.190	0.163
-65.392	346.516	0.011	0.021
-64.378	-37.308	0.191	-0.101
-63.363	-121.700	-0.418	-0.068
-62.349	-200.000	0.062	0.308
-61.334	28.963	-0.923	-0.774
-60.319	-56.503	0.410	0.180
-59.305	800.000	-0.164	-0.624
-58.290	168.634	0.747	1.053
-57.276	-200.000	0.295	1.431
-56.261	-200.000	97.871	547.240
-55.246	582.953	1397.482	3391.817
-54.232	182.821	2632.447	3841.739
-53.217	118.429	2203.638	2688.882
-52.203	46.016	1648.410	1508.737
-51.188	37.807	1381.070	1213.171
-50.173	34.495	1338.567	1155.764
-49.159	55.493	1388.795	1329.247
-48.144	59.429	1405.558	1369.497
-47.130	38.017	1359.661	1195.465
-46.115	34.399	1342.081	1158.028
-45.100	34.157	1337.015	1152.149
-44.086	34.104	1334.502	1149.617
-43.071	34.090	1332.330	1147.616
-42.057	34.048	1330.228	1145.508
-41.042	34.076	1328.412	1144.064
-40.027	34.079	1326.865	1142.708
-39.013	34.111	1324.752	1141.032
-37.998	34.158	1322.510	1139.337
-36.984	34.212	1320.884	1138.213
-35.969	34.270	1319.116	1136.993
-34.954	34.305	1317.459	1135.726
-33.940	34.404	1316.071	1135.074
-32.925	34.398	1314.563	1133.697
-31.911	34.507	1312.844	1132.814
-30.896	34.310	1311.880	1130.770
-29.881	34.342	1310.239	1129.497
-28.867	34.371	1309.014	1128.572
-27.852	34.399	1307.432	1127.323
-26.838	34.403	1305.920	1126.001
-25.823	34.316	1304.599	1124.303
-24.809	34.250	1303.578	1122.990
-23.794	34.290	1301.752	1121.607
-22.779	34.269	1300.327	1120.210
-21.765	34.387	1299.445	1120.100
-20.750	34.362	1297.881	1118.565
-19.736	34.260	1296.868	1117.047
-18.721	34.140	1295.281	1114.931
-17.706	34.139	1294.265	1114.006
-16.692	34.196	1292.995	1113.207
-15.677	34.178	1291.907	1112.118
-14.663	34.242	1290.602	1111.325
-13.648	34.236	1288.985	1109.850
-12.633	34.216	1288.367	1109.161
-11.619	34.220	1287.443	1108.342
-10.604	34.140	1287.165	1107.597
-9.590	34.152	1285.663	1106.331
-8.575	34.098	1284.858	1105.278
-7.560	34.106	1284.044	1104.580
-6.546	34.141	1282.706	1103.586
-5.531	34.212	1281.919	1103.282
-4.517	34.276	1281.134	1102.928
-3.502	34.205	1280.404	1101.846
-2.487	34.147	1279.500	1100.689
-1.473	34.146	1275.372	1097.086
-0.458	32.942	1260.376	1077.280
0.556	27.821	1241.943	1039.387
1.571	24.297	1248.187	1024.319
2.586	23.669	1263.665	1033.272
3.600	22.665	1252.548	1018.299
4.615	15.985	1175.713	919.418
5.629	5.092	1095.410	800.884
6.644	0.447	1073.109	761.113
7.659	-0.004	1070.757	757.107
8.673	-0.021	1069.733	756.231
9.688	-0.021	1068.338	755.178
10.702	0.345	1067.686	756.486
11.717	7.264	1077.503	798.326
12.731	17.244	1092.025	859.742
13.746	21.386	1096.779	884.406
14.761	21.980	1096.704	887.271
15.775	21.967	1095.761	886.365
16.790	21.658	1095.427	884.457
17.804	21.675	1094.701	883.876
18.819	21.702	1094.683	883.923
19.834	21.768	1094.342	883.902
20.848	21.822	1093.666	883.548
21.863	21.742	1093.218	882.706
22.877	21.678	1092.477	881.707
23.892	21.687	1091.773	881.107
24.907	21.777	1090.881	880.759
25.921	21.717	1089.853	879.552
26.936	21.703	1088.689	878.462
27.950	21.518	1087.326	876.361
28.965	21.529	1085.186	874.611
29.980	21.659	1083.494	873.820
30.994	21.869	1082.277	873.806
32.009	21.924	1081.156	873.101
33.023	21.570	1080.191	870.483
34.038	21.657	1079.502	870.284
35.053	21.804	1079.137	870.641
36.067	21.732	1078.246	869.489
37.082	21.859	1077.442	869.391
38.096	22.041	1076.619	869.554
39.111	22.056	1075.905	868.976
40.126	21.900	1074.484	866.977
41.140	21.594	1072.694	863.947
42.155	21.400	1071.132	861.658
43.169	21.459	1070.345	861.239
44.184	21.489	1069.278	860.449
45.199	21.382	1068.260	859.030
46.213	21.393	1067.078	858.056
47.228	21.647	1066.688	858.913
48.242	21.651	1065.309	857.748
49.257	21.677	1064.940	857.502
50.271	21.735	1064.120	857.049
51.286	21.879	1063.109	856.861
52.301	21.880	1061.883	855.805
53.315	21.784	1061.113	854.637
54.330	21.776	1060.207	853.794
55.344	21.777	1059.342	853.027
56.359	21.585	1058.644	851.454
57.374	21.439	1057.437	849.698
58.388	21.569	1056.834	849.770
59.403	21.655	1055.292	848.872
60.417	21.337	1054.970	846.997
61.432	21.423	1054.246	846.760
62.447	21.642	1053.739	847.337
63.461	21.563	1052.958	846.251
64.476	21.630	1051.399	845.244
65.490	21.474	1050.957	844.065
66.505	21.527	1050.188	843.628
67.520	21.514	1049.532	842.962
68.534	21.218	1048.757	840.840
69.549	21.024	1047.061	838.473
70.563	20.911	1046.624	837.505
71.578	21.057	1045.713	837.403
72.593	21.009	1044.061	835.781
73.607	21.217	1043.481	836.238
74.622	21.432	1043.498	837.203
75.636	21.321	1043.319	836.454
76.651	21.099	1042.348	834.542
77.666	21.101	1041.116	833.488
78.680	21.292	1040.382	833.742
79.695	21.340	1039.649	833.308
80.709	21.446	1039.223	833.399
81.724	21.399	1037.757	831.926
82.739	21.491	1037.343	831.960
83.753	21.798	1036.728	832.849
84.768	21.939	1036.167	832.995
85.782	22.118	1035.150	832.953
86.797	22.046	1033.986	831.601
87.812	21.852	1033.197	829.976
88.826	21.983	1031.894	829.474
89.841	22.143	1031.149	829.556
90.855	22.025	1030.166	828.139
91.870	22.073	1029.372	827.651
92.884	21.824	1028.416	825.636
93.899	21.900	1027.331	825.052
94.914	22.010	1026.621	824.923
95.928	21.957	1025.252	823.501
96.943	21.759	1023.662	821.224
97.957	21.446	1022.837	819.022
98.972	21.283	1021.686	817.269
99.987	21.528	1021.473	818.170
101.001	21.803	1020.073	818.261
102.016	21.730	1019.499	817.387
103.030	21.611	1018.412	815.889
104.045	21.430	1017.810	814.490
105.060	21.354	1016.509	813.025
106.074	21.408	1016.012	812.805
107.089	21.835	1015.390	814.220
108.103	21.816	1014.414	813.276
109.118	21.428	1012.912	810.204
110.133	21.535	1012.070	809.954
111.147	21.364	1010.611	807.924
112.162	21.151	1009.702	806.141
113.176	21.468	1008.654	806.696
114.191	21.366	1007.837	805.503
115.206	21.129	1006.946	803.626
116.220	21.055	1006.014	802.471
117.235	21.192	1005.153	802.346
118.249	21.120	1004.482	801.405
119.264	21.167	1003.437	800.716
120.279	21.235	1002.890	800.524
121.293	21.326	1001.963	800.130
122.308	21.303	1000.760	798.990
123.322	21.398	999.741	798.542
124.337	21.153	998.459	796.331
125.352	20.604	996.575	792.254
126.366	20.558	996.195	791.673
127.381	21.290	995.939	794.732
128.395	21.651	995.261	795.762
129.410	21.870	994.006	795.679
130.424	21.776	993.358	794.666
131.439	21.796	992.241	793.792
132.454	21.757	991.708	793.121
133.468	21.707	990.672	791.996
134.483	21.712	990.524	791.829
135.497	21.968	989.268	791.909
136.512	21.902	988.447	790.886
137.527	22.011	987.446	790.506
138.541	21.926	986.686	789.443
139.556	22.098	985.553	789.242
140.570	22.045	984.968	788.464
141.585	22.102	983.992	787.867
142.600	22.134	982.552	786.787
143.614	22.114	982.447	786.546
144.629	22.219	981.754	786.394
145.643	22.120	979.689	784.226
146.658	21.894	978.577	782.259
147.673	21.879	977.577	781.322
148.687	21.997	976.522	780.937
149.702	21.854	975.821	779.669
150.716	21.768	974.892	778.478
151.731	21.996	973.802	778.548
152.746	22.100	973.907	779.026
153.760	22.161	972.630	778.204
154.775	22.239	972.405	778.304
155.789	22.182	971.391	777.167
156.804	22.099	970.635	776.131
157.819	22.243	969.493	775.781
158.833	22.241	969.306	775.555
159.848	22.192	967.826	774.089
160.862	21.843	966.763	771.634
161.877	22.045	966.139	771.955
162.892	22.093	964.825	771.046
163.906	22.022	963.650	769.730
164.921	21.965	963.087	768.961
165.935	22.189	961.903	768.926
166.950	22.202	960.967	768.168
167.964	22.047	960.163	766.781
168.979	21.987	958.854	765.407
169.994	21.925	957.971	764.366
171.008	22.126	957.558	764.841
172.023	22.203	956.807	764.507
173.037	21.924	955.557	762.231
174.052	21.743	954.697	760.691
175.067	21.756	954.225	760.304
176.081	21.945	953.284	760.307
177.096	21.785	953.115	759.413
178.110	21.581	951.739	757.367
179.125	21.343	951.037	755.712
180.140	21.468	950.896	756.072
181.154	21.685	950.709	756.794
182.169	21.944	950.546	757.718
183.183	22.198	949.835	758.180
184.198	22.122	948.676	756.859
185.213	21.933	948.239	755.631
186.227	22.044	947.326	755.311
187.242	22.145	946.543	755.053
188.256	22.011	946.485	754.367
189.271	22.313	945.403	754.732
190.286	21.923	944.218	752.047
191.300	21.395	942.621	748.452
192.315	20.727	940.825	744.102
193.329	20.570	940.757	743.311
194.344	21.428	941.438	747.456
195.359	22.084	940.932	749.788
196.373	22.072	940.114	749.018
197.388	21.970	939.999	748.427
198.402	22.034	939.037	747.867
199.417	22.034	938.462	747.343
200.432	21.622	937.474	744.736
201.446	21.570	936.736	743.862
202.461	21.576	936.275	743.457
203.475	20.743	934.024	738.075
204.490	20.041	932.899	734.144
205.504	20.846	933.430	737.909
206.519	21.535	933.150	740.539
207.534	21.697	932.870	740.938
208.548	22.139	932.469	742.420
209.563	21.839	931.211	740.089
210.577	21.924	930.733	740.002
211.592	22.220	930.745	741.195
212.607	22.280	929.370	740.284
213.621	22.112	929.112	739.306
214.636	22.244	928.393	739.226
215.650	22.221	927.338	738.221
216.665	22.168	927.132	737.770
217.680	22.166	926.120	736.894
218.694	21.729	925.067	734.158
219.709	21.569	924.634	733.078
220.723	21.969	924.025	734.206
221.738	21.997	923.276	733.664
222.753	21.961	922.838	733.099
223.767	22.041	922.680	733.244
224.782	22.232	921.928	733.377
225.796	22.290	921.353	733.095
226.811	21.740	919.776	729.489
227.826	21.054	918.686	725.708
228.840	21.176	918.052	725.648
229.855	21.291	917.205	725.391
230.869	20.889	916.323	722.961
231.884	21.327	916.125	724.559
232.899	22.000	916.474	727.560
233.913	21.970	915.758	726.805
234.928	21.945	914.896	725.953
235.942	21.906	914.076	725.075
236.957	21.549	913.319	722.937
237.972	21.669	912.500	722.718
238.986	21.800	912.337	723.067
240.001	21.705	911.515	721.958
241.015	21.987	910.675	722.390
242.030	21.991	910.794	722.438
243.045	22.099	910.136	722.298
244.059	22.268	909.411	722.353
245.074	22.034	908.723	720.781
246.088	21.761	907.502	718.631
247.103	22.041	907.096	719.393
248.117	22.373	907.434	720.957
249.132	22.832	906.655	722.152
250.147	22.860	906.028	721.702
251.161	22.792	905.998	721.339
252.176	22.781	905.383	720.741
253.190	22.874	904.702	720.514
254.205	23.003	904.097	720.491
255.220	23.037	902.971	719.669
256.234	22.886	902.345	718.495
257.249	22.789	901.681	717.507
258.263	22.853	901.136	717.269
259.278	22.994	900.613	717.363
260.293	22.916	900.063	716.545
261.307	22.758	899.221	715.170
262.322	22.654	898.350	713.995
263.336	21.871	896.083	708.966
264.351	20.892	894.301	703.541
265.366	20.975	894.096	703.651
266.380	22.107	894.881	708.779
267.395	22.474	894.381	709.797
268.409	22.339	893.806	708.737
269.424	22.631	893.321	709.462
270.439	22.715	892.353	708.968
271.453	22.762	892.198	708.971
272.468	22.796	891.842	708.762
273.482	22.945	890.814	708.481
274.497	22.557	889.933	706.162
275.512	22.118	889.126	703.705
276.526	22.636	888.917	705.550
277.541	22.829	888.441	705.882
278.555	22.511	887.779	704.023
279.570	22.410	886.776	702.760
280.585	22.644	886.224	703.196
281.599	22.486	885.492	701.922
282.614	21.860	884.334	698.449
283.628	21.886	883.622	697.927
284.643	22.201	883.736	699.210
285.657	21.964	882.122	696.932
286.672	21.780	881.005	695.255
287.687	22.223	881.535	697.371
288.701	22.291	880.743	696.952
289.716	21.998	879.852	695.023
290.730	21.965	878.851	694.044
291.745	21.681	878.285	692.412
292.760	22.040	878.301	693.783
293.774	22.893	878.626	697.348
294.789	23.108	878.372	697.933
295.803	23.158	878.006	697.776
296.818	23.256	877.095	697.379
297.833	22.959	875.625	694.978
298.847	22.745	874.676	693.321
299.862	23.045	874.947	694.656
300.876	23.237	874.557	695.037
301.891	23.174	873.579	693.954
302.906	22.747	872.754	691.562
303.920	22.885	872.453	691.803
304.935	23.205	872.073	692.695
305.949	23.102	871.594	691.849
306.964	22.675	870.656	689.373
307.979	22.920	870.361	690.035
308.993	23.357	870.033	691.421
310.008	23.370	869.319	690.842
311.022	23.111	868.672	689.257
312.037	23.050	867.907	688.353
313.052	22.695	867.372	686.485
314.066	22.003	865.586	682.323
315.081	21.519	864.875	679.822
316.095	22.456	865.277	683.719
317.110	22.839	865.368	685.217
318.125	22.002	863.373	680.335
319.139	21.004	862.104	675.412
320.154	21.019	861.667	675.069
321.168	21.908	862.059	678.757
322.183	22.561	862.115	681.266
323.197	22.672	861.716	681.316
324.212	22.858	861.446	681.761
325.227	22.939	861.227	681.842
326.241	22.942	860.340	681.089
327.256	22.744	859.274	679.424
328.270	22.783	858.473	678.882
329.285	22.480	857.980	677.264
330.300	22.347	856.944	675.876
331.314	22.627	856.453	676.504
332.329	23.026	856.398	677.930
333.343	23.239	855.786	678.203
334.358	23.190	855.361	677.620
335.373	23.155	855.789	677.763
336.387	23.440	855.652	678.688
337.402	23.545	855.285	678.738
338.416	23.481	854.422	677.747
339.431	23.654	854.024	678.031
340.446	23.653	854.205	678.113
341.460	23.588	853.380	677.148
342.475	23.265	852.831	675.422
343.489	23.393	852.638	675.698
344.504	23.775	852.106	676.672
345.519	23.857	851.811	676.690
346.533	23.806	851.767	676.401
347.548	23.967	850.909	676.270
348.562	23.904	850.322	675.505
349.577	23.744	849.772	674.401
350.592	23.731	849.273	673.898
351.606	23.774	848.030	673.013
352.621	23.758	847.299	672.315
353.635	23.618	846.867	671.382
354.650	22.932	844.872	667.150
355.665	21.993	843.906	662.784
356.679	22.290	843.988	663.914
357.694	22.857	843.191	665.363
358.708	22.857	842.345	664.640
359.723	23.321	842.178	666.193
360.738	23.325	842.153	666.129
361.752	23.688	841.593	666.992
362.767	23.876	841.269	667.380
363.781	24.227	840.822	668.284
364.796	24.023	840.918	667.535
365.810	24.202	839.841	667.291
366.825	24.145	839.673	666.888
367.840	23.990	838.684	665.464
368.854	23.537	837.778	662.994
369.869	23.521	837.527	662.674
370.883	23.577	837.109	662.494
371.898	23.592	836.650	662.127
372.913	23.539	836.256	661.560
373.927	23.631	835.997	661.639
374.942	23.897	835.720	662.355
375.956	23.923	835.135	661.927
376.971	24.039	834.829	662.059
377.986	24.193	834.408	662.238
379.000	23.992	833.950	661.069
380.015	24.046	833.229	660.640
381.029	23.986	832.688	659.928
382.044	24.140	832.301	660.135
383.059	24.155	831.948	659.852
384.073	24.198	831.361	659.487
385.088	24.133	830.487	658.497
386.102	23.996	829.534	657.176
387.117	23.884	828.973	656.261
388.132	23.586	827.982	654.320
389.146	23.081	827.078	651.686
390.161	23.471	826.895	652.920
391.175	23.854	826.747	654.156
392.190	23.564	825.830	652.308
393.205	22.332	823.467	645.862
394.219	20.839	821.801	639.025
395.234	20.745	821.731	638.570
396.248	22.243	823.178	645.140
397.263	23.826	823.744	651.330
398.278	23.828	823.264	650.900
399.292	23.343	823.065	648.911
400.307	23.578	822.031	648.895
401.321	23.659	821.883	649.021
402.336	23.929	821.991	650.033
403.350	24.347	821.734	651.301
404.365	24.536	821.609	651.832
405.380	24.830	821.145	652.480
406.394	25.070	820.451	652.742
407.409	24.775	820.198	651.409
408.423	24.573	820.319	650.712
409.438	24.949	819.590	651.445
410.453	24.813	819.069	650.481
411.467	24.764	818.291	649.628
412.482	24.750	818.225	649.465
413.496	25.011	817.540	649.811
414.511	24.817	817.348	648.897
415.526	24.870	816.727	648.540
416.540	24.778	815.711	647.342
417.555	24.555	815.197	646.071
418.569	24.698	814.670	646.112
419.584	24.517	814.019	644.887
420.599	24.244	813.808	643.676
421.613	154.362	1365.576	1794.637
422.628	134.334	1445.967	1794.753
