DTS Sentinel unit serial number:	SN413079Multiplexer serial number:	ORYXHardware model number:	OX4-SRSoftware version number:	ORYX F/W v4.00 Oryx Data Collector v3.7.2.0data status	okinstallation	princeton_trtdifferential loss correction	single-endedforward channel	channel 1reverse channel	N/Adate	2019/09/13time	16:10:35forward acquisition time	60.00reverse acquisition time	0.00gamma	496.2192k internal	0.2305k external	0.2305temperature offset calibration	1.0157default loss term (dB/km)	0.3790temperature slope calibration	1.0000multiplexer offset coefficient	1.0000multiplexer slope coefficient	1.0000fibre end	0.00T internal ref (°C)	34.80T ext. ref 1 (°C)	4.84T ext. ref 2 (°C)	31.51length (m)	temperature (°C)	Stokes	anti-Stokes-747.200	-37.355	0.105	0.057
-746.185	55.426	-0.081	-0.080
-745.171	800.000	0.072	-0.250
-744.156	-200.000	-0.049	-0.239
-743.142	92.260	0.105	0.121
-742.127	266.309	0.146	0.260
-741.112	-200.000	-0.039	-0.232
-740.098	694.733	0.033	0.088
-739.083	61.855	-0.173	-0.175
-738.069	104.081	-0.286	0.342
-737.054	-46.278	-0.240	-0.120
-736.039	-107.037	-0.491	-0.110
-735.025	-69.521	0.188	0.073
-734.010	-96.045	-0.176	0.048
-732.996	80.720	0.185	-0.203
-731.981	709.287	0.129	0.346
-730.966	-99.542	-0.182	0.046
-729.952	-15.342	-0.531	-0.345
-728.937	22.616	0.073	0.061
-727.923	-118.505	-0.159	-0.029
-726.908	-200.000	-0.027	0.196
-725.894	-85.887	0.086	0.027
-724.879	-110.460	-0.619	0.131
-723.864	-123.824	-0.416	0.067
-722.850	-139.361	0.188	-0.021
-721.835	-200.000	0.019	-0.321
-720.821	-130.001	-0.267	-0.037
-719.806	800.000	-0.059	-0.226
-718.791	800.000	-0.116	0.375
-717.777	142.469	0.107	0.145
-716.762	223.273	-0.051	0.083
-715.748	166.817	-0.127	-0.184
-714.733	-151.042	0.156	-0.012
-713.718	-200.000	-0.029	0.312
-712.704	800.000	0.035	0.131
-711.689	-200.000	0.038	-0.289
-710.675	-22.698	-0.261	-0.160
-709.660	189.065	0.157	0.240
-708.645	170.551	-0.156	-0.226
-707.631	800.000	0.035	-0.155
-706.616	37.795	-0.189	0.170
-705.602	-105.831	0.070	0.016
-704.587	-138.077	0.150	0.017
-703.572	800.000	0.045	-0.170
-702.558	-159.219	0.195	-0.011
-701.543	-81.095	0.299	0.101
-700.529	800.000	0.062	0.177
-699.514	30.003	0.264	0.229
-698.499	110.409	0.137	-0.167
-697.485	-66.605	-0.205	-0.083
-696.470	95.674	-0.053	0.061
-695.456	-13.916	0.175	0.115
-694.441	392.711	0.131	0.276
-693.426	-200.000	0.015	0.224
-692.412	-53.201	0.042	0.020
-691.397	147.345	-0.071	-0.097
-690.383	-200.000	-0.008	0.154
-689.368	-99.602	-0.521	-0.133
-688.354	-73.228	-0.337	0.125
-687.339	-200.000	-0.045	-0.356
-686.324	72.974	-0.068	-0.072
-685.310	51.734	-0.081	0.078
-684.295	255.103	-0.132	-0.230
-683.281	330.850	-0.080	0.156
-682.266	-34.473	0.205	-0.114
-681.251	-17.330	-0.171	-0.109
-680.237	-200.000	-0.033	-0.184
-679.222	-200.000	-0.012	-0.316
-678.208	-60.212	0.161	-0.070
-677.193	-194.559	-0.344	-0.003
-676.178	738.151	0.044	-0.120
-675.164	-158.761	0.259	0.015
-674.149	-2.709	-0.102	-0.072
-673.135	101.080	-0.234	-0.276
-672.120	800.000	-0.037	-0.163
-671.105	1.957	-0.375	0.275
-670.091	16.254	-0.212	0.170
-669.076	237.840	-0.115	-0.194
-668.062	-24.078	0.496	0.301
-667.047	-150.420	-0.208	0.016
-666.032	-137.797	-0.049	-0.006
-665.018	117.158	-0.104	0.130
-664.003	-9.498	0.119	0.081
-662.989	101.451	0.155	-0.184
-661.974	-200.000	0.022	-0.099
-660.959	-103.133	-0.278	-0.067
-659.945	-11.509	-0.127	-0.085
-658.930	466.276	-0.074	0.168
-657.916	800.000	-0.040	0.153
-656.901	-27.635	0.212	0.125
-655.886	800.000	-0.061	-0.189
-654.872	13.709	0.164	0.129
-653.857	-141.768	-0.143	0.015
-652.843	-73.326	-0.283	-0.105
-651.828	-52.009	0.083	0.039
-650.814	-73.987	-0.280	0.103
-649.799	-200.000	-0.103	0.488
-648.784	-200.000	-0.001	0.166
-647.770	212.021	0.146	-0.233
-646.755	-67.302	-0.254	-0.101
-645.741	-46.119	0.274	-0.137
-644.726	113.490	0.332	-0.409
-643.711	-12.209	-0.253	0.168
-642.697	-97.307	-0.216	-0.057
-641.682	248.785	-0.253	-0.435
-640.668	-96.798	-0.163	-0.043
-639.653	98.396	0.124	-0.145
-638.638	-28.852	0.178	-0.104
-637.624	71.522	0.155	0.164
-636.609	53.762	0.343	-0.334
-635.595	-200.000	0.006	0.176
-634.580	-35.405	-0.289	-0.159
-633.565	-42.622	0.217	-0.112
-632.551	59.584	0.129	-0.129
-631.536	276.601	0.220	0.395
-630.522	15.555	0.175	-0.139
-629.507	135.728	0.104	0.138
-628.492	125.509	0.182	-0.233
-627.478	800.000	0.067	-0.286
-626.463	800.000	-0.012	0.040
-625.449	-200.000	-0.263	-0.001
-624.434	800.000	-0.108	-0.336
-623.419	-46.600	-0.211	0.105
-622.405	161.297	0.009	-0.013
-621.390	480.447	-0.089	0.203
-620.376	-108.979	-0.268	0.058
-619.361	192.063	-0.086	-0.132
-618.346	-136.392	0.161	-0.019
-617.332	-108.340	-0.168	0.037
-616.317	-200.000	0.036	-0.171
-615.303	-200.000	0.061	-0.342
-614.288	114.819	-0.021	-0.026
-613.273	-68.001	0.099	-0.039
-612.259	470.399	0.090	0.204
-611.244	800.000	-0.020	-0.059
-610.230	-97.158	-0.231	0.061
-609.215	-33.809	-0.302	0.168
-608.201	7.692	0.041	0.031
-607.186	211.384	0.057	-0.090
-606.171	273.909	0.142	-0.255
-605.157	106.741	-0.259	-0.311
-604.142	-139.897	-0.142	-0.015
-603.128	129.952	-0.277	-0.359
-602.113	800.000	0.053	0.224
-601.098	-200.000	0.009	-0.209
-600.084	-116.872	0.102	0.019
-599.069	-86.486	0.172	0.053
-598.055	-200.000	0.034	-0.499
-597.040	778.078	-0.084	-0.232
-596.025	182.214	-0.176	0.262
-595.011	498.242	0.032	-0.074
-593.996	-77.015	-0.155	-0.055
-592.982	-19.963	-0.198	0.123
-591.967	587.579	-0.044	0.110
-590.952	62.459	-0.168	-0.170
-589.938	-200.000	-0.003	-0.271
-588.923	-62.464	-0.206	-0.087
-587.909	-28.199	-0.187	0.109
-586.894	-200.000	0.042	0.204
-585.879	-175.985	0.223	0.006
-584.865	173.743	-0.099	0.144
-583.850	-165.854	0.138	0.006
-582.836	-131.788	-0.334	0.044
-581.821	701.854	0.027	-0.072
-580.806	86.913	0.234	0.261
-579.792	-200.000	0.015	0.111
-578.777	107.364	0.191	-0.230
-577.763	4.757	-0.333	0.247
-576.748	-110.771	0.505	0.105
-575.733	344.996	0.111	0.221
-574.719	-200.000	0.007	0.040
-573.704	-15.479	0.131	-0.085
-572.690	232.547	0.053	0.089
-571.675	76.018	-0.250	-0.267
-570.661	317.441	-0.136	0.260
-569.646	281.640	-0.145	0.262
-568.631	800.000	-0.075	0.268
-567.617	381.307	-0.063	-0.132
-566.602	-81.915	0.263	-0.087
-565.588	-52.259	-0.146	0.069
-564.573	-28.496	0.091	0.053
-563.558	104.112	-0.125	0.148
-562.544	-44.690	0.107	-0.054
-561.529	-159.490	0.376	0.021
-560.515	-45.184	-0.246	-0.124
-559.500	800.000	-0.044	-0.167
-558.485	-21.390	-0.211	0.130
-557.471	12.351	-0.249	0.194
-556.456	-117.442	0.022	-0.004
-555.442	-91.692	-0.438	0.126
-554.427	-3.822	0.127	-0.089
-553.412	-115.093	0.141	0.027
-552.398	-200.000	-0.010	-0.160
-551.383	800.000	-0.094	-0.335
-550.369	-35.517	-0.144	-0.079
-549.354	-94.500	0.149	-0.041
-548.339	-0.394	-0.208	0.149
-547.325	46.482	0.174	0.163
-546.310	-18.269	0.182	-0.115
-545.296	-155.969	0.171	-0.011
-544.281	39.751	-0.149	-0.135
-543.266	280.935	0.121	-0.219
-542.252	150.921	0.131	0.180
-541.237	-200.000	0.041	-0.199
-540.223	151.802	0.209	-0.288
-539.208	-200.000	0.002	-0.055
-538.193	800.000	0.033	-0.119
-537.179	-131.828	-0.403	0.053
-536.164	243.954	0.140	-0.238
-535.150	800.000	0.121	-0.532
-534.135	-145.430	-0.314	-0.029
-533.121	-65.693	-0.310	0.125
-532.106	-200.000	0.011	0.121
-531.091	-171.361	0.416	-0.014
-530.077	596.508	-0.115	-0.287
-529.062	155.654	0.076	-0.106
-528.048	-67.764	0.329	0.130
-527.033	-27.799	0.182	0.106
-526.018	161.067	0.068	0.095
-525.004	-92.001	0.123	0.035
-523.989	51.781	0.080	-0.077
-522.975	-199.430	-0.131	-0.001
-521.960	-200.000	0.010	-0.095
-520.945	448.745	0.084	0.186
-519.931	29.839	-0.147	-0.126
-518.916	224.044	0.097	0.158
-517.902	45.436	-0.099	-0.092
-516.887	800.000	0.101	-0.307
-515.872	-19.831	-0.225	-0.140
-514.858	51.890	-0.139	-0.133
-513.843	800.000	0.072	0.248
-512.829	90.024	-0.085	-0.096
-511.814	39.012	-0.152	0.137
-510.799	-200.000	0.008	-0.335
-509.785	632.201	-0.086	-0.221
-508.770	-198.417	0.394	0.002
-507.756	-53.586	0.104	-0.048
-506.741	85.307	-0.062	-0.069
-505.726	200.712	0.063	-0.098
-504.712	206.656	-0.157	-0.247
-503.697	-150.429	0.258	0.020
-502.683	90.617	0.121	-0.137
-501.668	-30.155	0.157	-0.090
-500.653	127.202	-0.079	-0.101
-499.639	800.000	-0.048	-0.136
-498.624	55.203	0.122	0.119
-497.610	-28.978	0.044	-0.025
-496.595	38.503	0.141	0.126
-495.581	800.000	-0.074	0.298
-494.566	-81.983	-0.441	-0.145
-493.551	-197.618	-0.331	0.002
-492.537	-40.080	0.034	0.018
-491.522	253.419	-0.170	0.293
-490.508	-137.096	0.170	0.020
-489.493	-200.000	-0.016	-0.134
-488.478	-74.444	-0.265	-0.096
-487.464	-63.113	0.051	0.021
-486.449	800.000	-0.065	0.188
-485.435	-200.000	-0.037	-0.247
-484.420	443.021	-0.117	-0.259
-483.405	87.188	-0.086	0.095
-482.391	92.709	0.141	-0.161
-481.376	-200.000	-0.007	-0.129
-480.362	-200.000	-0.037	0.370
-479.347	-187.178	0.240	-0.003
-478.332	-85.961	0.132	0.041
-477.318	-200.000	0.021	0.149
-476.303	-200.000	0.012	-0.100
-475.289	800.000	-0.069	-0.198
-474.274	800.000	-0.045	0.188
-473.259	800.000	0.044	0.190
-472.245	-117.431	-0.404	0.074
-471.230	800.000	-0.050	-0.219
-470.216	229.077	-0.075	0.122
-469.201	102.360	-0.070	-0.082
-468.186	43.877	-0.062	0.057
-467.172	-10.026	-0.197	-0.132
-466.157	800.000	0.070	0.205
-465.143	-200.000	0.066	0.375
-464.128	-61.915	-0.180	-0.076
-463.113	321.822	-0.117	0.225
-462.099	-200.000	0.021	0.104
-461.084	-32.221	0.187	0.105
-460.070	455.946	0.236	0.526
-459.055	1.967	-0.145	0.105
-458.040	-200.000	-0.062	0.379
-457.026	800.000	-0.074	-0.283
-456.011	152.301	-0.136	-0.187
-454.997	-88.740	0.390	-0.117
-453.982	-34.421	0.224	0.123
-452.968	-129.317	-0.123	0.017
-451.953	135.565	0.295	0.387
-450.938	780.307	-0.063	-0.173
-449.924	-73.638	-0.198	-0.073
-448.909	478.497	-0.103	0.235
-447.895	800.000	-0.056	0.199
-446.880	98.377	-0.024	-0.028
-445.865	123.665	0.150	-0.190
-444.851	-63.311	-0.285	0.118
-443.836	94.771	0.120	-0.137
-442.822	-200.000	0.019	0.250
-441.807	212.429	-0.169	-0.268
-440.792	-4.575	0.209	-0.145
-439.778	154.356	-0.191	0.263
-438.763	-22.732	-0.081	-0.049
-437.749	-200.000	-0.069	0.313
-436.734	-107.672	0.399	-0.088
-435.719	-78.152	-0.230	0.080
-434.705	123.690	-0.153	-0.193
-433.690	-97.184	-0.128	0.034
-432.676	-40.188	-0.178	0.093
-431.661	85.297	0.082	-0.091
-430.646	-124.451	0.038	-0.006
-429.632	-200.000	-0.025	-0.116
-428.617	101.764	0.095	-0.111
-427.603	59.389	0.354	-0.351
-426.588	391.972	0.060	-0.124
-425.573	10.444	-0.246	-0.188
-424.559	244.626	-0.102	0.172
-423.544	-68.518	0.253	0.099
-422.530	-200.000	-0.024	0.172
-421.515	175.533	0.047	-0.069
-420.500	800.000	0.060	-0.183
-419.486	-200.000	-0.028	-0.466
-418.471	125.340	-0.076	0.097
-417.457	-22.645	-0.176	-0.107
-416.442	34.285	-0.221	-0.194
-415.428	-200.000	-0.007	0.108
-414.413	-30.455	-0.177	-0.101
-413.398	-1.705	-0.154	0.109
-412.384	23.121	-0.127	0.104
-411.369	51.133	0.363	0.346
-410.355	212.005	0.304	0.481
-409.340	-200.000	0.003	0.149
-408.325	-91.400	-0.184	0.053
-407.311	-200.000	0.066	0.294
-406.296	34.233	0.100	-0.088
-405.282	-200.000	0.009	-0.238
-404.267	259.877	0.102	-0.176
-403.252	-70.232	0.086	0.033
-402.238	-148.099	-0.168	-0.014
-401.223	-28.067	0.181	0.105
-400.209	-200.000	0.012	0.133
-399.194	-93.012	-0.274	-0.077
-398.179	-121.313	-0.044	0.007
-397.165	556.228	0.022	-0.054
-396.150	259.000	-0.079	0.137
-395.136	759.108	0.047	-0.127
-394.121	800.000	-0.072	-0.291
-393.106	800.000	0.040	0.158
-392.092	185.314	-0.093	-0.139
-391.077	70.624	-0.119	-0.123
-390.063	-69.558	-0.197	0.076
-389.048	-129.961	0.295	0.041
-388.033	-75.776	-0.198	-0.070
-387.019	800.000	-0.078	-0.236
-386.004	71.543	0.063	0.066
-384.990	800.000	0.103	0.301
-383.975	433.516	0.080	0.174
-382.960	-19.935	0.234	0.145
-381.946	367.142	-0.108	-0.220
-380.931	-6.029	0.206	0.141
-379.917	121.325	0.248	0.310
-378.902	377.989	0.046	0.094
-377.888	62.895	-0.108	-0.108
-376.873	374.662	0.044	0.090
-375.858	185.042	0.191	0.284
-374.844	-57.718	0.113	0.050
-373.829	-7.063	0.229	-0.156
-372.815	8.985	-0.434	-0.328
-371.800	359.468	0.054	0.109
-370.785	800.000	0.061	0.193
-369.771	-130.891	0.169	-0.023
-368.756	800.000	-0.136	0.437
-367.742	-110.976	0.113	-0.023
-366.727	18.729	-0.289	0.232
-365.712	-7.972	0.202	0.137
-364.698	53.563	-0.049	0.047
-363.683	-26.420	0.063	-0.037
-362.669	-78.109	-0.064	-0.022
-361.654	25.906	-0.278	0.233
-360.639	-131.714	-0.187	0.025
-359.625	800.000	0.068	0.216
-358.610	463.285	-0.080	0.180
-357.596	800.000	0.017	0.076
-356.581	-168.078	0.489	-0.019
-355.566	102.967	0.113	0.132
-354.552	557.666	-0.058	-0.140
-353.537	-112.182	0.187	-0.038
-352.523	-94.452	0.354	-0.097
-351.508	-144.039	0.140	0.013
-350.493	232.965	0.126	-0.208
-349.479	-59.374	0.044	0.019
-348.464	78.362	-0.038	-0.040
-347.450	-176.029	-0.276	-0.007
-346.435	530.825	-0.056	-0.134
-345.420	24.639	0.136	-0.113
-344.406	96.864	-0.012	-0.014
-343.391	-161.338	-0.097	0.005
-342.377	-108.176	-0.396	0.086
-341.362	-0.380	-0.111	-0.079
-340.348	-200.000	-0.046	0.232
-339.333	-23.948	-0.157	0.094
-338.318	800.000	0.082	0.252
-337.304	-200.000	0.016	0.000
-336.289	-200.000	0.001	0.252
-335.275	147.373	-0.047	0.064
-334.260	-200.000	-0.028	-0.182
-333.245	165.797	0.109	0.154
-332.231	-180.868	-0.217	-0.004
-331.216	-200.000	-0.014	0.116
-330.202	122.977	0.004	0.005
-329.187	-0.880	0.226	0.160
-328.172	-67.192	0.295	-0.116
-327.158	3.499	0.325	0.237
-326.143	17.102	0.290	0.230
-325.129	305.120	0.118	-0.220
-324.114	-1.202	-0.281	0.199
-323.099	3.674	-0.195	-0.142
-322.085	800.000	-0.064	-0.183
-321.070	27.400	0.053	0.045
-320.056	-148.737	0.127	0.010
-319.041	-110.044	-0.279	0.058
-318.026	1.937	0.318	-0.230
-317.012	216.929	0.037	-0.060
-315.997	800.000	-0.050	0.139
-314.983	651.095	0.160	0.409
-313.968	70.260	-0.091	-0.095
-312.953	-200.000	-0.054	-0.248
-311.939	407.336	0.096	0.202
-310.924	169.158	0.266	0.380
-309.910	156.669	0.275	0.380
-308.895	125.680	0.206	-0.260
-307.880	-83.563	-0.174	0.056
-306.866	-121.804	-0.257	0.042
-305.851	-118.947	-0.084	-0.015
-304.837	-200.000	0.002	0.018
-303.822	-200.000	-0.002	-0.179
-302.807	-77.412	-0.036	0.012
-301.793	9.374	-0.406	0.307
-300.778	-95.287	0.018	0.005
-299.764	800.000	-0.080	-0.276
-298.749	-107.463	-0.281	-0.062
-297.735	-200.000	0.011	-0.164
-296.720	-122.244	0.258	-0.042
-295.705	-103.448	0.317	-0.075
-294.691	-78.983	0.140	0.048
-293.676	-200.000	-0.024	-0.134
-292.662	-127.971	-0.145	-0.021
-291.647	-63.877	-0.071	-0.029
-290.632	-200.000	0.053	0.275
-289.618	-53.572	-0.192	-0.088
-288.603	-125.728	-0.167	-0.025
-287.589	-44.150	0.091	-0.046
-286.574	151.239	0.113	0.154
-285.559	296.554	-0.078	0.143
-284.545	800.000	-0.058	0.204
-283.530	-200.000	0.002	0.040
-282.516	11.853	-0.195	-0.150
-281.501	77.680	0.256	-0.273
-280.486	-44.795	0.062	0.031
-279.472	-200.000	0.008	0.062
-278.457	-94.123	0.396	0.109
-277.443	-200.000	0.001	-0.138
-276.428	-59.680	-0.007	0.003
-275.413	-40.804	0.141	-0.073
-274.399	315.734	0.057	0.107
-273.384	-200.000	-0.008	0.044
-272.370	13.966	0.109	-0.084
-271.355	-103.556	-0.193	0.045
-270.340	800.000	-0.088	-0.277
-269.326	4.178	-0.181	-0.133
-268.311	-86.253	-0.353	-0.109
-267.297	-200.000	0.035	0.316
-266.282	210.990	0.233	0.366
-265.267	800.000	0.107	0.369
-264.253	-14.462	0.306	0.196
-263.238	-132.430	0.052	0.007
-262.224	678.657	0.119	0.309
-261.209	85.744	-0.274	-0.301
-260.195	-114.424	0.279	-0.054
-259.180	-82.409	0.338	0.110
-258.165	-122.730	0.008	-0.001
-257.151	-8.387	-0.105	0.071
-256.136	-124.761	0.317	-0.049
-255.122	-200.000	-0.019	0.093
-254.107	-3.873	-0.047	0.033
-253.092	-200.000	-0.024	0.141
-252.078	-151.256	-0.128	-0.010
-251.063	125.409	0.189	-0.238
-250.049	-83.739	-0.254	0.081
-249.034	-200.000	-0.054	-0.304
-248.019	545.638	-0.058	-0.139
-247.005	-53.690	0.151	-0.069
-245.990	800.000	-0.055	0.164
-244.976	286.586	-0.070	0.126
-243.961	800.000	0.023	0.070
-242.946	201.520	0.043	-0.066
-241.932	-200.000	0.154	0.000
-240.917	31.676	-0.095	0.082
-239.903	338.846	-0.172	-0.334
-238.888	800.000	-0.084	0.238
-237.873	-50.299	0.025	-0.012
-236.859	-160.038	-0.280	-0.015
-235.844	267.776	0.077	0.135
-234.830	800.000	0.056	0.230
-233.815	-200.000	-0.015	0.235
-232.800	220.188	-0.095	0.152
-231.786	-200.000	0.044	-0.344
-230.771	-164.801	0.313	0.014
-229.757	226.997	0.050	-0.081
-228.742	-1.780	-0.186	0.131
-227.727	800.000	0.037	0.111
-226.713	-143.957	-0.293	0.028
-225.698	-76.337	0.115	0.041
-224.684	20.814	0.185	-0.150
-223.669	-200.000	0.122	0.000
-222.655	47.260	-0.300	-0.279
-221.640	-121.041	-0.180	-0.030
-220.625	11.810	0.124	0.095
-219.611	800.000	0.062	0.190
-218.596	-107.416	0.336	0.073
-217.582	204.868	0.236	-0.366
-216.567	99.403	0.136	-0.157
-215.552	-193.271	-0.370	0.003
-214.538	-32.163	0.128	0.071
-213.523	800.000	-0.066	0.199
-212.509	-200.000	0.000	0.102
-211.494	800.000	-0.144	-0.489
-210.479	-200.000	0.063	-0.378
-209.465	184.806	-0.030	0.045
-208.450	133.680	0.115	0.149
-207.436	176.907	-0.145	0.211
-206.421	-64.315	0.059	0.024
-205.406	-200.000	-0.034	-0.193
-204.392	-200.000	0.035	0.160
-203.377	-200.000	0.024	-0.214
-202.363	99.258	-0.063	-0.073
-201.348	33.124	0.119	0.103
-200.333	-133.051	-0.246	0.031
-199.319	-32.236	-0.132	0.073
-198.304	20.977	-0.179	0.145
-197.290	-90.233	0.286	-0.083
-196.275	29.216	-0.178	-0.151
-195.260	-45.588	0.253	-0.125
-194.246	-141.968	-0.302	-0.030
-193.231	-32.835	0.352	0.195
-192.217	-180.986	-0.138	-0.003
-191.202	-25.452	0.261	0.154
-190.187	800.000	0.069	-0.280
-189.173	-59.341	0.239	0.102
-188.158	-110.454	-0.016	-0.003
-187.144	0.381	0.051	0.036
-186.129	-74.672	0.058	-0.021
-185.114	-129.273	0.082	0.011
-184.100	-90.330	0.366	0.106
-183.085	81.851	-0.281	-0.303
-182.071	-200.000	0.025	-0.147
-181.056	187.818	-0.175	-0.260
-180.042	-22.616	0.234	0.141
-179.027	272.964	-0.070	0.124
-178.012	-146.293	-0.104	0.009
-176.998	160.964	-0.050	0.069
-175.983	-76.832	-0.233	0.081
-174.969	-200.000	-0.015	0.195
-173.954	-45.232	0.193	0.095
-172.939	469.091	-0.167	-0.374
-171.925	-200.000	0.055	0.283
-170.910	-51.289	0.383	0.178
-169.896	-137.487	-0.246	0.028
-168.881	76.376	-0.342	-0.360
-167.866	-105.943	0.171	0.038
-166.852	-200.000	0.012	-0.227
-165.837	800.000	0.028	-0.110
-164.823	265.311	-0.059	0.103
-163.808	67.035	0.070	-0.071
-162.793	-200.000	-0.010	-0.227
-161.779	-200.000	0.004	-0.126
-160.764	126.386	-0.225	0.283
-159.750	5.597	0.232	0.171
-158.735	-95.930	0.074	-0.020
-157.720	174.746	0.229	0.330
-156.706	239.531	-0.101	-0.167
-155.691	-200.000	0.006	-0.174
-154.677	-77.746	0.060	-0.021
-153.662	-24.711	-0.278	-0.165
-152.647	-107.105	-0.328	-0.072
-151.633	88.479	-0.072	-0.080
-150.618	-112.277	-0.468	-0.093
-149.604	800.000	0.090	0.291
-148.589	-95.004	-0.183	0.049
-147.574	268.373	-0.036	-0.062
-146.560	1.494	-0.051	-0.037
-145.545	29.512	-0.216	0.182
-144.531	63.962	-0.181	0.181
-143.516	103.451	0.153	-0.178
-142.502	-171.090	-0.228	0.008
-141.487	137.148	-0.218	-0.283
-140.472	97.046	0.239	0.272
-139.458	-84.710	0.172	0.054
-138.443	-200.000	-0.012	0.138
-137.429	-124.856	-0.494	-0.076
-136.414	19.582	0.119	-0.095
-135.399	-106.469	0.101	0.022
-134.385	240.176	0.060	0.099
-133.370	-88.792	-0.243	0.072
-132.356	800.000	0.038	0.135
-131.341	-200.000	-0.001	-0.173
-130.326	40.448	0.132	-0.118
-129.312	800.000	0.090	0.303
-128.297	800.000	-0.128	0.412
-127.283	115.162	-0.118	-0.143
-126.268	-200.000	-0.003	0.059
-125.253	710.307	-0.106	0.279
-124.239	-73.793	0.078	-0.028
-123.224	-200.000	-0.006	-0.117
-122.210	181.624	-0.196	0.287
-121.195	17.907	-0.237	-0.188
-120.180	28.931	0.055	-0.046
-119.166	-123.142	0.371	-0.059
-118.151	-120.507	-0.270	-0.045
-117.137	-59.050	0.027	-0.012
-116.122	-73.105	0.434	0.158
-115.107	186.707	-0.188	-0.279
-114.093	-200.000	0.023	0.210
-113.078	-10.442	0.157	-0.104
-112.064	-73.327	0.333	-0.121
-111.049	-200.000	-0.005	0.113
-110.034	330.838	0.134	-0.256
-109.020	-147.649	0.213	-0.018
-108.005	-200.000	0.001	-0.170
-106.991	133.353	0.181	0.232
-105.976	-200.000	-0.019	-0.219
-104.962	269.957	-0.140	-0.244
-103.947	-40.461	0.113	-0.058
-102.932	-66.601	0.268	0.105
-101.918	-62.455	-0.281	0.116
-100.903	-132.436	-0.223	0.029
-99.889	19.829	-0.157	0.126
-98.874	36.246	-0.255	-0.223
-97.859	9.303	-0.263	0.197
-96.845	-27.453	0.226	0.130
-95.830	29.095	0.271	-0.228
-94.816	-74.265	0.123	0.044
-93.801	-200.000	-0.010	-0.314
-92.786	-35.767	0.008	-0.004
-91.772	245.458	0.196	-0.327
-90.757	-69.254	0.049	-0.019
-89.743	-200.000	-0.017	0.087
-88.728	800.000	-0.012	0.040
-87.713	12.867	0.050	0.039
-86.699	-42.656	-0.105	0.053
-85.684	-134.454	0.575	0.070
-84.670	-91.516	-0.348	0.099
-83.655	-200.000	-0.046	-0.322
-82.640	132.352	0.151	-0.193
-81.626	-137.033	0.219	-0.025
-80.611	311.498	-0.142	0.264
-79.597	77.272	-0.073	0.076
-78.582	-200.000	-0.016	0.099
-77.567	-111.562	-0.193	-0.039
-76.553	440.082	-0.092	0.200
-75.538	-189.841	0.341	0.004
-74.524	-29.736	0.011	-0.006
-73.509	372.623	-0.034	0.069
-72.494	800.000	-0.064	-0.191
-71.480	-36.878	0.120	-0.064
-70.465	-36.196	-0.084	-0.045
-69.451	599.125	0.015	0.038
-68.436	128.510	0.078	-0.099
-67.422	-0.423	0.165	-0.116
-66.407	374.160	-0.098	0.197
-65.392	-95.885	-0.211	0.056
-64.378	-97.182	0.132	-0.034
-63.363	-200.000	-0.032	0.198
-62.349	-200.000	0.009	0.096
-61.334	193.019	-0.678	-1.016
-60.319	-86.366	0.693	0.211
-59.305	-200.000	-0.119	-0.959
-58.290	56.825	0.833	0.804
-57.276	415.312	0.718	1.515
-56.261	-200.000	95.749	567.170
-55.246	643.532	1382.076	3491.758
-54.232	186.811	2599.052	3835.950
-53.217	122.821	2184.291	2707.917
-52.203	46.685	1636.490	1505.445
-51.188	38.358	1371.616	1210.475
-50.173	34.984	1328.772	1152.342
-49.159	56.374	1377.165	1325.858
-48.144	60.675	1396.143	1370.407
-47.130	38.648	1349.896	1192.883
-46.115	35.021	1332.101	1155.265
-45.100	34.774	1327.477	1149.726
-44.086	34.604	1325.133	1146.630
-43.071	34.628	1322.484	1144.433
-42.057	34.572	1320.644	1142.464
-41.042	34.652	1318.997	1141.469
-40.027	34.728	1317.250	1140.368
-39.013	34.699	1314.893	1138.111
-37.998	34.685	1313.685	1136.933
-36.984	34.848	1311.220	1135.725
-35.969	34.825	1309.818	1134.325
-34.954	34.892	1307.849	1132.975
-33.940	34.857	1306.547	1131.598
-32.925	34.996	1305.444	1131.416
-31.911	34.970	1303.633	1129.651
-30.896	35.058	1302.043	1128.742
-29.881	34.879	1301.276	1126.982
-28.867	34.929	1299.507	1125.698
-27.852	34.892	1298.346	1124.432
-26.838	34.807	1296.857	1122.597
-25.823	34.917	1295.510	1122.032
-24.809	34.849	1294.576	1120.783
-23.794	34.915	1292.794	1119.580
-22.779	34.829	1291.496	1117.910
-21.765	34.895	1290.430	1117.323
-20.750	34.824	1289.123	1115.737
-19.736	34.786	1288.287	1114.745
-18.721	34.704	1286.740	1112.885
-17.706	34.725	1285.386	1111.795
-16.692	34.782	1283.675	1110.599
-15.677	34.753	1282.894	1109.713
-14.663	34.668	1281.973	1108.380
-13.648	34.754	1280.486	1107.545
-12.633	34.796	1279.523	1106.912
-11.619	34.678	1278.853	1105.608
-10.604	34.677	1278.080	1104.889
-9.590	34.728	1277.186	1104.368
-8.575	34.651	1276.373	1103.175
-7.560	34.699	1275.192	1102.387
-6.546	34.639	1274.725	1101.592
-5.531	34.710	1273.443	1100.853
-4.517	34.731	1272.596	1100.198
-3.502	34.726	1271.902	1099.524
-2.487	34.720	1270.517	1098.245
-1.473	34.917	1266.320	1095.704
-0.458	33.753	1252.327	1076.952
0.556	31.973	1233.853	1036.384
1.571	27.740	1236.804	1015.275
2.586	25.940	1250.739	1016.480
3.600	24.140	1238.510	996.397
4.615	18.176	1165.007	905.695
5.629	9.398	1088.846	802.786
6.644	5.187	1067.575	766.396
7.659	4.868	1064.656	762.674
8.673	4.613	1063.464	760.504
9.688	4.693	1061.855	759.677
10.702	5.264	1061.096	761.849
11.717	10.886	1068.700	794.792
12.731	19.097	1080.317	843.776
13.746	22.127	1083.837	861.328
14.761	21.725	1082.647	858.338
15.775	20.967	1080.234	852.646
16.790	19.894	1078.332	845.825
17.804	19.184	1076.863	841.132
18.819	18.707	1076.665	838.576
19.834	18.785	1075.160	837.711
20.848	18.519	1074.525	835.840
21.863	18.304	1073.766	834.132
22.877	18.217	1073.022	833.056
23.892	18.168	1072.245	832.141
24.907	18.113	1071.493	831.214
25.921	18.141	1070.498	830.508
26.936	18.209	1069.129	829.699
27.950	18.113	1067.788	828.119
28.965	18.318	1065.953	827.616
29.980	18.446	1064.596	827.105
30.994	18.539	1063.671	826.764
32.009	18.582	1062.955	826.343
33.023	18.429	1061.998	824.790
34.038	18.343	1060.696	823.290
35.053	18.193	1060.024	821.974
36.067	18.349	1058.375	821.372
37.082	18.264	1058.041	820.635
38.096	18.516	1057.061	821.005
39.111	18.423	1056.550	820.091
40.126	18.289	1055.109	818.260
41.140	18.074	1053.784	816.136
42.155	18.036	1052.595	814.959
43.169	17.830	1051.678	813.198
44.184	17.877	1050.465	812.408
45.199	17.857	1049.557	811.538
46.213	17.844	1049.071	811.033
47.228	18.285	1047.704	811.995
48.242	18.246	1046.984	811.182
49.257	18.244	1046.105	810.419
50.271	18.304	1045.231	809.952
51.286	18.330	1044.456	809.402
52.301	18.298	1042.998	808.050
53.315	18.200	1042.067	806.798
54.330	18.059	1041.070	805.290
55.344	18.022	1039.812	804.072
56.359	18.061	1039.870	804.229
57.374	18.011	1038.496	802.857
58.388	17.998	1037.385	801.869
59.403	17.905	1036.583	800.739
60.417	17.907	1036.153	800.348
61.432	17.825	1034.945	798.959
62.447	17.796	1034.390	798.324
63.461	17.739	1033.549	797.337
64.476	17.608	1032.662	795.973
65.490	17.752	1031.920	796.000
66.505	17.733	1031.122	795.227
67.520	17.725	1030.597	794.715
68.534	17.801	1029.887	794.452
69.549	17.608	1029.197	792.951
70.563	17.654	1027.860	792.063
71.578	17.480	1027.401	790.829
72.593	17.538	1026.448	790.296
73.607	17.483	1025.667	789.370
74.622	17.545	1025.025	789.096
75.636	17.575	1024.425	788.700
76.651	17.669	1023.601	788.433
77.666	17.633	1023.119	787.825
78.680	17.668	1022.332	787.312
79.695	17.652	1021.977	786.896
80.709	17.826	1021.455	787.224
81.724	17.962	1020.297	786.888
82.739	17.928	1020.289	786.656
83.753	18.254	1019.623	787.575
84.768	18.377	1018.689	787.348
85.782	18.478	1017.931	787.158
86.797	18.465	1017.240	786.491
87.812	18.227	1016.062	784.422
88.826	18.370	1015.149	784.301
89.841	18.415	1014.358	783.827
90.855	18.458	1013.231	783.086
91.870	18.475	1012.312	782.383
92.884	18.484	1011.800	781.958
93.899	18.449	1011.191	781.258
94.914	18.484	1010.198	780.584
95.928	18.623	1008.969	780.197
96.943	18.464	1007.751	778.463
97.957	18.447	1006.995	777.731
98.972	18.315	1006.576	776.744
99.987	18.428	1005.505	776.358
101.001	18.419	1004.389	775.389
102.016	18.357	1003.825	774.604
103.030	18.471	1003.084	774.475
104.045	18.482	1002.229	773.797
105.060	18.244	1001.408	772.023
106.074	18.047	1000.007	769.988
107.089	17.900	998.851	768.367
108.103	17.674	998.285	766.848
109.118	17.768	997.128	766.312
110.133	17.740	996.323	765.499
111.147	17.846	995.532	765.302
112.162	17.857	994.705	764.646
113.176	17.915	994.089	764.364
114.191	18.099	993.383	764.580
115.206	17.942	992.819	763.374
116.220	17.967	991.744	762.593
117.235	17.936	990.857	761.703
118.249	17.867	989.791	760.509
119.264	17.960	988.972	760.225
120.279	17.777	988.413	758.914
121.293	17.723	987.497	757.903
122.308	17.672	986.606	756.929
123.322	17.712	985.595	756.265
124.337	17.581	984.373	754.680
125.352	17.764	982.931	754.314
126.366	17.687	982.439	753.529
127.381	17.765	981.451	753.051
128.395	17.729	980.775	752.305
129.410	17.679	979.905	751.352
130.424	17.871	978.878	751.344
131.439	17.970	978.237	751.220
132.454	18.115	977.483	751.214
133.468	17.918	976.946	749.869
134.483	17.972	976.012	749.322
135.497	18.035	975.380	749.046
136.512	17.932	974.398	747.776
137.527	18.060	973.643	747.688
138.541	18.081	972.837	747.095
139.556	18.041	972.329	746.464
140.570	18.247	971.746	746.850
141.585	18.570	970.624	747.329
142.600	18.409	970.165	746.211
143.614	18.540	969.604	746.283
144.629	18.619	968.463	745.682
145.643	18.492	967.647	744.434
146.658	18.299	966.279	742.481
147.673	18.151	965.327	741.040
148.687	18.103	964.251	739.940
149.702	18.052	963.500	739.082
150.716	18.103	962.540	738.499
151.731	18.177	961.815	738.197
152.746	18.182	961.036	737.553
153.760	18.208	960.562	737.239
154.775	18.263	960.119	737.069
155.789	18.440	959.403	737.217
156.804	18.310	958.794	736.125
157.819	18.444	957.997	736.020
158.833	18.517	957.371	735.791
159.848	18.602	956.718	735.587
160.862	18.582	955.465	734.474
161.877	18.137	954.634	731.866
162.892	18.011	953.344	730.273
163.906	18.052	952.492	729.730
164.921	18.059	951.519	728.951
165.935	18.180	950.755	728.818
166.950	18.268	949.727	728.336
167.964	18.159	949.385	727.547
168.979	18.152	947.817	726.252
169.994	18.171	946.875	725.548
171.008	18.290	946.504	725.702
172.023	18.581	945.768	726.307
173.037	18.571	945.250	725.802
174.052	18.431	944.470	724.547
175.067	18.198	943.757	722.951
176.081	18.092	943.183	722.001
177.096	18.119	942.856	721.798
178.110	18.238	941.824	721.449
179.125	18.207	941.147	720.733
180.140	18.338	941.059	721.157
181.154	18.388	940.643	720.983
182.169	18.698	939.517	721.361
183.183	18.454	939.640	720.363
184.198	18.511	939.031	720.073
185.213	18.568	938.397	719.761
186.227	18.610	937.427	719.130
187.242	18.684	936.894	718.968
188.256	18.831	936.635	719.322
189.271	18.787	935.953	718.552
190.286	18.340	935.255	716.080
191.300	18.199	933.015	713.717
192.315	18.060	932.454	712.644
193.329	18.139	932.264	712.763
194.344	18.205	932.163	712.898
195.359	18.236	931.623	712.551
196.373	18.563	930.829	713.242
197.388	18.684	930.744	713.616
198.402	18.835	930.387	713.906
199.417	18.814	929.569	713.130
200.432	19.050	928.849	713.491
201.446	19.016	928.797	713.250
202.461	19.247	928.098	713.608
203.475	19.159	927.148	712.447
204.490	18.760	926.572	710.292
205.504	18.736	925.465	709.280
206.519	18.705	924.575	708.409
207.534	18.695	923.949	707.825
208.548	18.795	923.582	707.895
209.563	18.687	922.788	706.780
210.577	18.803	922.309	706.828
211.592	19.012	921.811	707.240
212.607	19.141	920.728	706.879
213.621	18.978	920.046	705.622
214.636	18.895	919.584	704.867
215.650	18.973	918.753	704.487
216.665	19.171	918.246	704.844
217.680	19.212	917.581	704.441
218.694	19.321	916.972	704.358
219.709	19.043	916.477	702.779
220.723	19.211	915.433	702.600
221.738	19.047	915.031	701.559
222.753	19.014	914.446	700.917
223.767	19.243	913.843	701.325
224.782	19.343	913.633	701.509
225.796	19.333	913.146	701.032
226.811	19.238	912.303	699.934
227.826	18.975	911.477	698.173
228.840	18.981	910.543	697.418
229.855	18.987	909.430	696.528
230.869	18.998	909.103	696.261
231.884	18.887	908.195	695.057
232.899	18.994	907.416	694.830
233.913	18.773	907.154	693.675
234.928	18.796	906.074	692.882
235.942	18.771	905.510	692.289
236.957	18.767	905.046	691.854
237.972	18.868	904.291	691.626
238.986	18.889	903.949	691.385
240.001	18.823	903.505	690.720
241.015	19.019	902.647	690.790
242.030	19.022	902.447	690.589
243.045	19.076	901.806	690.253
244.059	19.244	900.911	690.180
245.074	19.120	900.459	689.276
246.088	19.175	899.961	689.054
247.103	19.418	899.299	689.456
248.117	19.556	898.898	689.639
249.132	19.768	898.687	690.264
250.147	19.810	898.464	690.200
251.161	19.837	897.527	689.524
252.176	20.055	896.735	689.722
253.190	20.002	896.095	688.960
254.205	19.996	895.476	688.399
255.220	19.921	894.524	687.308
256.234	19.819	894.486	686.813
257.249	19.974	893.640	686.719
258.263	19.887	892.759	685.635
259.278	19.863	892.446	685.240
260.293	20.082	891.336	685.191
261.307	20.097	891.113	685.018
262.322	20.006	890.504	684.130
263.336	20.214	889.756	684.317
264.351	20.092	888.955	683.159
265.366	20.055	888.471	682.582
266.380	20.320	887.751	683.012
267.395	20.042	886.981	681.265
268.409	20.016	885.833	680.220
269.424	19.947	885.134	679.354
270.439	19.883	884.504	678.560
271.453	19.767	883.998	677.655
272.468	19.920	883.368	677.714
273.482	19.894	883.078	677.327
274.497	19.820	882.527	676.556
275.512	19.837	881.807	676.012
276.526	19.772	881.691	675.608
277.541	20.122	880.397	675.923
278.555	20.041	880.655	675.743
279.570	20.107	879.893	675.355
280.585	20.396	878.773	675.562
281.599	20.110	877.826	673.664
282.614	20.138	877.133	673.179
283.628	19.882	876.453	671.606
284.643	20.043	876.193	671.973
285.657	19.904	875.792	671.066
286.672	19.910	875.259	670.622
287.687	19.931	874.371	669.960
288.701	19.960	873.892	669.648
289.716	19.940	873.310	669.067
290.730	20.049	872.436	668.759
291.745	20.276	871.875	669.145
292.760	20.316	871.495	668.947
293.774	20.339	871.027	668.617
294.789	20.182	870.146	667.279
295.803	20.136	869.226	666.339
296.818	20.130	868.643	665.805
297.833	20.169	868.099	665.480
298.847	20.177	867.591	665.063
299.862	20.212	866.708	664.461
300.876	20.354	866.495	664.784
301.891	20.258	866.368	664.259
302.906	20.489	865.570	664.472
303.920	20.483	865.549	664.376
304.935	20.605	864.537	664.004
305.949	20.548	863.666	663.058
306.964	20.357	863.202	661.918
307.979	20.444	862.778	661.864
308.993	20.626	862.055	661.945
310.008	20.622	861.474	661.426
311.022	20.611	860.348	660.459
312.037	20.440	860.229	659.660
313.052	20.220	859.264	658.026
314.066	20.204	858.896	657.629
315.081	20.259	858.117	657.180
316.095	20.198	857.266	656.241
317.110	20.212	856.844	655.911
318.125	20.126	857.017	655.661
319.139	20.142	855.958	654.852
320.154	20.227	855.725	654.939
321.168	20.236	855.301	654.590
322.183	20.414	854.344	654.469
323.197	20.200	854.478	653.706
324.212	20.346	853.855	653.724
325.227	20.250	852.958	652.618
326.241	20.240	852.636	652.277
327.256	20.093	852.251	651.373
328.270	20.329	851.115	651.332
329.285	20.217	850.785	650.599
330.300	20.258	850.055	650.139
331.314	20.318	849.658	650.000
332.329	20.497	849.228	650.286
333.343	20.659	848.322	650.139
334.358	20.543	848.338	649.662
335.373	20.539	848.084	649.393
336.387	20.575	848.020	649.422
337.402	20.776	847.145	649.446
338.416	20.998	846.862	649.997
339.431	20.930	846.531	649.431
340.446	21.057	846.401	649.750
341.460	20.984	846.237	649.295
342.475	21.072	845.801	649.230
343.489	21.138	845.147	648.915
344.504	21.043	844.937	648.341
345.519	21.280	844.308	648.682
346.533	21.006	843.603	647.067
347.548	20.884	843.208	646.255
348.562	20.693	842.399	644.870
349.577	20.719	842.044	644.638
350.592	20.609	840.863	643.271
351.606	20.562	840.051	642.418
352.621	20.628	839.848	642.449
353.635	20.804	838.823	642.259
354.650	20.840	838.201	641.857
355.665	20.973	837.567	641.806
356.679	20.973	837.330	641.567
357.694	20.933	836.605	640.808
358.708	20.866	836.094	640.112
359.723	20.950	834.985	639.515
360.738	21.109	834.481	639.657
361.752	20.997	834.244	639.007
362.767	21.198	833.690	639.261
363.781	21.299	833.347	639.313
364.796	21.452	832.806	639.401
365.810	21.328	832.982	639.023
366.825	21.530	832.457	639.305
367.840	21.492	831.717	638.539
368.854	21.151	831.438	637.025
369.869	21.336	830.781	637.139
370.883	21.355	830.314	636.795
371.898	21.452	829.822	636.712
372.913	21.502	829.814	636.831
373.927	21.374	828.882	635.596
374.942	21.452	828.693	635.678
375.956	21.641	828.251	635.970
376.971	21.718	827.845	635.880
377.986	21.802	827.230	635.658
379.000	21.666	826.795	634.772
380.015	21.743	825.965	634.360
381.029	21.779	825.240	633.876
382.044	21.676	825.109	633.347
383.059	21.843	824.428	633.371
384.073	21.556	823.986	631.942
385.088	21.462	823.121	630.882
386.102	21.331	822.277	629.707
387.117	21.480	821.608	629.677
388.132	21.362	821.070	628.783
389.146	21.415	821.098	628.940
390.161	21.640	820.674	629.366
391.175	21.593	820.185	628.768
392.190	21.550	819.649	628.148
393.205	21.502	818.726	627.213
394.219	21.467	818.253	626.668
395.234	21.361	817.901	625.963
396.248	21.350	817.689	625.708
397.263	21.218	817.057	624.694
398.278	21.130	816.875	624.187
399.292	21.179	816.351	623.905
400.307	21.253	815.551	623.505
401.321	21.335	815.222	623.490
402.336	21.475	815.093	623.833
403.350	21.616	814.455	623.794
404.365	21.721	814.199	623.916
405.380	21.931	813.970	624.433
406.394	21.786	813.260	623.318
407.409	21.831	813.035	623.249
408.423	21.826	812.812	623.007
409.438	22.004	812.281	623.175
410.453	22.139	811.417	622.936
411.467	21.870	811.552	622.029
412.482	22.157	811.059	622.614
413.496	22.167	810.563	622.216
414.511	22.065	810.301	621.599
415.526	22.004	809.877	621.001
416.540	22.059	809.395	620.771
417.555	22.048	808.787	620.212
418.569	22.214	808.076	620.198
419.584	22.180	807.354	619.469
420.599	22.143	807.179	619.149
421.613	158.964	1369.583	1788.354
422.628	138.202	1451.519	1788.454
