DTS Sentinel unit serial number:	SN413079Multiplexer serial number:	ORYXHardware model number:	OX4-SRSoftware version number:	ORYX F/W v4.00 Oryx Data Collector v3.7.2.0data status	okinstallation	princeton_trtdifferential loss correction	single-endedforward channel	channel 1reverse channel	N/Adate	2019/09/18time	01:58:35forward acquisition time	60.00reverse acquisition time	0.00gamma	496.2192k internal	0.2341k external	0.2341temperature offset calibration	0.9976default loss term (dB/km)	0.3790temperature slope calibration	1.0000multiplexer offset coefficient	1.0000multiplexer slope coefficient	1.0000fibre end	0.00T internal ref (°C)	22.94T ext. ref 1 (°C)	0.17T ext. ref 2 (°C)	16.66length (m)	temperature (°C)	Stokes	anti-Stokes-747.200	15.399	0.068	0.054
-746.185	-75.814	-0.295	-0.105
-745.171	-36.563	-0.170	-0.092
-744.156	-45.756	-0.178	0.088
-743.142	277.599	0.194	0.346
-742.127	167.352	-0.239	-0.340
-741.112	-124.949	-0.072	0.011
-740.098	800.000	0.076	0.213
-739.083	259.217	0.043	0.074
-738.069	-137.876	-0.432	0.048
-737.054	800.000	0.024	-0.098
-736.039	-200.000	0.001	-0.103
-735.025	-200.000	0.013	0.114
-734.010	-168.353	-0.301	0.012
-732.996	342.451	-0.035	0.068
-731.981	-14.943	-0.188	-0.121
-730.966	-15.154	0.228	0.146
-729.952	39.496	-0.267	-0.239
-728.937	-74.765	0.153	-0.055
-727.923	193.826	-0.005	-0.008
-726.908	15.546	-0.235	-0.185
-725.894	30.006	-0.341	-0.292
-724.879	-46.688	-0.330	0.162
-723.864	207.681	-0.089	-0.140
-722.850	-49.497	-0.147	-0.070
-721.835	-55.604	-0.128	0.057
-720.821	800.000	-0.061	0.240
-719.806	9.797	-0.206	0.156
-718.791	-200.000	-0.041	-0.304
-717.777	335.788	-0.136	0.265
-716.762	-49.255	0.146	-0.070
-715.748	-108.291	0.219	-0.047
-714.733	-109.883	0.275	0.058
-713.718	-137.715	-0.428	-0.048
-712.704	43.337	0.116	0.106
-711.689	-200.000	-0.026	-0.202
-710.675	-105.619	-0.158	0.036
-709.660	-15.341	-0.098	0.062
-708.645	-200.000	-0.007	0.138
-707.631	265.650	0.050	0.087
-706.616	95.900	-0.105	-0.120
-705.602	-7.031	-0.287	-0.195
-704.587	184.179	0.189	-0.280
-703.572	114.242	-0.177	-0.215
-702.558	-5.330	-0.204	0.140
-701.543	275.601	-0.118	-0.209
-700.529	4.509	0.138	0.102
-699.514	-200.000	0.013	0.087
-698.499	-107.848	0.222	0.048
-697.485	800.000	-0.068	0.201
-696.470	41.044	0.151	0.136
-695.456	27.859	-0.063	-0.053
-694.441	800.000	0.057	-0.203
-693.426	-117.993	-0.174	0.031
-692.412	13.361	-0.270	-0.209
-691.397	-62.692	0.181	-0.075
-690.383	-200.000	-0.030	0.146
-689.368	-172.032	0.223	-0.007
-688.354	-105.550	0.077	0.018
-687.339	110.800	-0.192	0.231
-686.324	-83.674	0.143	0.046
-685.310	267.080	-0.111	0.193
-684.295	-200.000	-0.007	-0.198
-683.281	-200.000	0.064	-0.286
-682.266	-86.906	0.124	-0.038
-681.251	-8.616	-0.405	0.272
-680.237	74.739	0.066	0.069
-679.222	-79.410	0.199	0.067
-678.208	-157.731	-0.239	-0.014
-677.193	-76.484	0.332	0.117
-676.178	800.000	-0.042	0.122
-675.164	-200.000	0.028	-0.163
-674.149	-200.000	-0.037	0.384
-673.135	-98.434	0.024	-0.006
-672.120	507.472	-0.091	0.211
-671.105	11.664	-0.364	-0.279
-670.091	-105.576	-0.192	-0.043
-669.076	800.000	-0.031	-0.133
-668.062	382.904	-0.092	-0.190
-667.047	-103.566	0.270	0.063
-666.032	594.370	-0.034	-0.084
-665.018	800.000	0.072	-0.225
-664.003	203.195	0.048	-0.074
-662.989	209.588	0.129	-0.202
-661.974	-200.000	-0.036	-0.244
-660.959	-64.694	-0.174	0.070
-659.945	-104.105	-0.268	0.062
-658.930	77.764	0.194	0.207
-657.916	124.563	0.147	0.185
-656.901	248.403	0.057	-0.097
-655.886	799.942	0.077	-0.213
-654.872	92.775	-0.088	-0.100
-653.857	208.621	-0.104	0.163
-652.843	447.844	-0.106	0.233
-651.828	-7.492	-0.197	0.133
-650.814	-19.508	0.284	-0.176
-649.799	66.354	0.046	-0.047
-648.784	-49.313	-0.118	0.056
-647.770	165.169	-0.144	-0.203
-646.755	414.576	-0.034	0.072
-645.741	-122.427	-0.276	-0.045
-644.726	513.503	0.173	-0.402
-643.711	278.539	-0.242	0.430
-642.697	267.710	-0.182	0.319
-641.682	122.520	-0.032	-0.040
-640.668	800.000	0.025	0.110
-639.653	-32.218	-0.348	0.194
-638.638	-66.300	-0.320	-0.127
-637.624	-1.838	0.246	-0.173
-636.609	-200.000	-0.143	0.000
-635.595	-68.823	0.375	-0.144
-634.580	426.222	0.221	-0.475
-633.565	-55.229	0.285	-0.128
-632.551	-176.858	0.225	0.006
-631.536	-200.000	-0.016	-0.078
-630.522	-200.000	0.008	-0.069
-629.507	527.927	0.146	0.344
-628.492	-12.343	0.081	0.053
-627.478	-132.004	0.262	0.034
-626.463	-200.000	-0.016	-0.147
-625.449	42.478	0.067	0.061
-624.434	9.030	-0.117	0.088
-623.419	-200.000	0.013	-0.109
-622.405	-200.000	-0.004	0.270
-621.390	419.726	-0.034	-0.073
-620.376	52.463	0.274	-0.261
-619.361	800.000	-0.067	-0.185
-618.346	540.905	-0.158	-0.375
-617.332	-144.897	0.285	0.026
-616.317	52.367	-0.180	-0.172
-615.303	-200.000	0.023	-0.247
-614.288	-50.668	-0.387	-0.182
-613.273	-5.369	-0.118	0.081
-612.259	504.751	0.146	-0.336
-611.244	138.797	-0.059	0.078
-610.230	-111.528	-0.038	0.008
-609.215	-90.180	0.300	0.087
-608.201	-90.191	-0.164	0.048
-607.186	-44.678	0.158	-0.079
-606.171	-17.029	-0.035	0.022
-605.157	80.919	-0.188	0.202
-604.142	228.051	-0.150	-0.244
-603.128	-11.685	-0.026	-0.017
-602.113	-8.021	-0.400	-0.269
-601.098	-89.674	0.510	0.149
-600.084	-200.000	-0.019	-0.265
-599.069	329.948	-0.114	0.219
-598.055	-8.121	-0.123	-0.083
-597.040	-200.000	-0.011	0.188
-596.025	334.303	-0.138	0.267
-595.011	582.233	-0.122	-0.299
-593.996	88.934	-0.049	-0.054
-592.982	227.055	0.072	-0.117
-591.967	-25.211	-0.129	-0.076
-590.952	-64.175	0.054	-0.022
-589.938	-13.384	0.014	0.009
-588.923	-200.000	0.008	0.113
-587.909	-46.713	-0.196	-0.095
-586.894	-0.940	0.132	0.093
-585.879	-113.181	-0.149	-0.029
-584.865	-158.356	-0.253	-0.015
-583.850	-53.128	-0.219	0.100
-582.836	-129.468	0.248	0.034
-581.821	-141.919	0.159	0.016
-580.806	-51.597	0.018	0.009
-579.792	-53.390	-0.192	-0.088
-578.777	-35.194	0.235	-0.127
-577.763	219.486	0.185	0.295
-576.748	-200.000	-0.023	-0.412
-575.733	162.830	0.044	0.062
-574.719	93.357	-0.133	0.150
-573.704	23.604	-0.077	0.063
-572.690	281.432	0.180	-0.320
-571.675	198.482	0.147	-0.225
-570.661	-200.000	-0.019	-0.269
-569.646	18.509	0.264	0.210
-568.631	800.000	-0.104	-0.381
-567.617	-85.504	0.267	-0.083
-566.602	-200.000	0.010	0.100
-565.588	-115.542	0.155	0.029
-564.573	800.000	0.064	-0.210
-563.558	-200.000	-0.088	-0.475
-562.544	632.890	0.185	0.466
-561.529	-200.000	-0.030	-0.280
-560.515	800.000	0.080	0.269
-559.500	-159.520	0.347	0.019
-558.485	9.170	0.150	-0.113
-557.471	67.697	-0.018	-0.018
-556.456	800.000	-0.075	-0.260
-555.442	-200.000	0.012	-0.371
-554.427	-200.000	0.035	0.176
-553.412	-200.000	0.043	-0.230
-552.398	-24.945	-0.055	0.032
-551.383	-200.000	-0.069	0.433
-550.369	800.000	0.075	-0.253
-549.354	346.206	-0.142	0.278
-548.339	-123.390	-0.224	-0.036
-547.325	-125.436	0.270	0.041
-546.310	-7.040	0.113	0.076
-545.296	-200.000	0.036	-0.264
-544.281	-104.447	-0.178	-0.041
-543.266	-2.161	-0.249	0.174
-542.252	15.466	-0.042	-0.033
-541.237	-151.933	-0.136	-0.010
-540.223	-200.000	-0.024	0.129
-539.208	789.654	-0.173	0.474
-538.193	401.691	-0.058	-0.121
-537.179	-118.150	0.089	0.016
-536.164	7.849	-0.097	0.072
-535.150	238.862	0.061	0.100
-534.135	-51.254	-0.404	-0.188
-533.121	-200.000	0.093	-0.454
-532.106	47.940	-0.159	0.148
-531.091	636.699	-0.104	-0.262
-530.077	-97.438	0.095	-0.024
-529.062	308.783	0.178	-0.331
-528.048	260.055	0.107	-0.184
-527.033	295.785	0.041	0.075
-526.018	-200.000	0.024	0.123
-525.004	-2.013	0.192	-0.134
-523.989	-117.233	0.278	0.050
-522.975	-200.000	-0.005	0.046
-521.960	800.000	-0.041	0.162
-520.945	-63.476	-0.523	-0.214
-519.931	9.582	-0.183	-0.138
-518.916	800.000	0.051	0.184
-517.902	88.245	-0.070	0.077
-516.887	639.135	0.080	0.202
-515.872	-200.000	0.000	-0.144
-514.858	21.334	-0.301	0.243
-513.843	800.000	-0.038	0.118
-512.829	-200.000	0.019	0.121
-511.814	4.943	0.105	-0.077
-510.799	207.793	-0.043	0.066
-509.785	800.000	-0.103	0.286
-508.770	-200.000	-0.190	0.000
-507.756	47.735	0.091	0.085
-506.741	95.750	-0.127	-0.144
-505.726	219.777	-0.007	-0.011
-504.712	124.027	0.080	-0.100
-503.697	-12.367	0.118	0.077
-502.683	48.593	-0.130	-0.121
-501.668	47.796	0.072	-0.067
-500.653	-38.363	0.178	0.094
-499.639	136.401	0.126	0.164
-498.624	800.000	0.105	-0.296
-497.610	31.520	0.192	0.164
-496.595	27.120	-0.209	0.174
-495.581	-122.900	-0.089	0.014
-494.566	-88.520	0.149	0.044
-493.551	13.098	-0.097	-0.075
-492.537	47.033	0.132	-0.122
-491.522	-200.000	0.002	-0.308
-490.508	800.000	-0.028	-0.087
-489.493	108.921	0.181	0.215
-488.478	-200.000	-0.001	0.134
-487.464	-200.000	0.007	0.261
-486.449	-166.001	-0.227	-0.010
-485.435	29.366	0.055	0.046
-484.420	-60.451	-0.196	0.082
-483.405	-62.951	-0.147	-0.060
-482.391	-161.036	-0.139	-0.007
-481.376	-106.438	-0.219	0.048
-480.362	363.882	-0.219	0.436
-479.347	-200.000	-0.056	-0.253
-478.332	329.163	0.089	0.170
-477.318	22.822	-0.172	0.139
-476.303	-163.373	0.183	0.009
-475.289	3.592	-0.148	-0.107
-474.274	-1.277	0.439	-0.307
-473.259	-200.000	-0.002	-0.352
-472.245	117.949	-0.118	0.144
-471.230	-108.574	0.417	-0.089
-470.216	-79.980	-0.228	0.076
-469.201	-200.000	0.016	-0.073
-468.186	631.759	0.024	-0.060
-467.172	-144.520	0.262	-0.024
-466.157	44.110	0.240	0.218
-465.143	-200.000	0.016	-0.246
-464.128	-98.374	-0.227	-0.058
-463.113	36.250	0.059	0.051
-462.099	-200.000	0.014	-0.333
-461.084	800.000	-0.030	0.093
-460.070	234.875	-0.189	0.308
-459.055	800.000	0.154	-0.444
-458.040	800.000	-0.057	0.214
-457.026	93.269	-0.022	-0.025
-456.011	234.319	0.073	0.119
-454.997	124.733	-0.027	-0.034
-453.982	-172.288	0.151	0.005
-452.968	-200.000	0.007	0.052
-451.953	550.406	-0.053	0.126
-450.938	800.000	0.008	-0.027
-449.924	119.188	0.141	0.173
-448.909	-84.386	-0.264	0.083
-447.895	-26.826	-0.271	0.157
-446.880	43.804	-0.054	-0.049
-445.865	-85.039	0.163	0.051
-444.851	191.956	0.059	-0.087
-443.836	63.013	0.081	-0.080
-442.822	-89.114	0.407	-0.119
-441.807	-73.726	-0.171	-0.062
-440.792	-41.836	-0.138	-0.070
-439.778	50.013	-0.305	0.285
-438.763	800.000	0.044	0.136
-437.749	102.641	0.143	0.166
-436.734	-200.000	0.006	-0.175
-435.719	-58.747	-0.169	0.072
-434.705	-183.025	-0.293	-0.005
-433.690	-163.769	0.336	0.016
-432.676	-54.633	-0.160	0.071
-431.661	800.000	-0.063	-0.264
-430.646	800.000	0.025	-0.097
-429.632	-70.892	-0.145	0.054
-428.617	411.093	-0.054	0.114
-427.603	4.352	-0.309	0.224
-426.588	-3.176	-0.192	0.133
-425.573	-152.892	0.400	-0.028
-424.559	-200.000	-0.034	0.283
-423.544	73.889	0.039	0.041
-422.530	161.564	-0.287	0.397
-421.515	-154.082	0.186	0.013
-420.500	-25.112	-0.129	-0.075
-419.486	97.782	0.094	0.107
-418.471	-200.000	-0.015	-0.309
-417.457	800.000	0.016	-0.050
-416.442	468.559	-0.195	0.433
-415.428	-40.046	0.217	0.112
-414.413	-8.736	-0.236	-0.156
-413.398	-200.000	-0.014	0.286
-412.384	37.357	0.076	0.067
-411.369	606.873	-0.122	0.301
-410.355	-200.000	0.036	0.206
-409.340	-200.000	0.014	0.441
-408.325	-116.364	0.359	0.066
-407.311	18.151	-0.141	-0.111
-406.296	-200.000	-0.030	-0.134
-405.282	-89.692	0.140	0.041
-404.267	800.000	-0.065	-0.235
-403.252	-68.719	-0.247	-0.095
-402.238	-200.000	0.009	0.072
-401.223	-105.432	0.170	0.038
-400.209	-147.962	0.329	0.027
-399.194	-73.939	0.324	-0.116
-398.179	-188.524	-0.064	0.001
-397.165	-36.479	0.242	-0.129
-396.150	-172.554	0.249	0.008
-395.136	458.581	0.069	0.151
-394.121	168.685	-0.247	0.348
-393.106	-98.670	-0.131	-0.033
-392.092	-79.486	0.203	-0.068
-391.077	-87.867	0.072	-0.021
-390.063	-165.120	0.294	-0.013
-389.048	-31.862	-0.176	-0.098
-388.033	188.296	-0.035	0.052
-387.019	800.000	0.064	0.200
-386.004	800.000	-0.040	0.161
-384.990	189.032	0.159	0.235
-383.975	800.000	0.061	-0.235
-382.960	-156.848	0.360	0.022
-381.946	-166.558	0.239	0.010
-380.931	800.000	0.056	-0.201
-379.917	281.382	-0.125	-0.222
-378.902	800.000	0.085	-0.308
-377.888	424.163	-0.125	0.265
-376.873	-38.140	0.264	-0.138
-375.858	-162.586	0.191	-0.009
-374.844	-200.000	-0.010	0.061
-373.829	388.200	0.092	-0.189
-372.815	472.857	-0.196	0.435
-371.800	-59.226	0.209	-0.089
-370.785	-136.158	0.258	0.030
-369.771	230.068	-0.191	-0.309
-368.756	-200.000	0.034	0.178
-367.742	800.000	-0.086	0.353
-366.727	-25.958	-0.310	-0.180
-365.712	-200.000	-0.043	-0.265
-364.698	-200.000	0.001	-0.188
-363.683	338.008	-0.064	0.123
-362.669	-44.933	0.261	0.128
-361.654	-73.818	0.199	0.071
-360.639	186.593	0.203	-0.299
-359.625	281.771	0.071	0.126
-358.610	-112.421	0.179	0.035
-357.596	318.499	-0.242	-0.453
-356.581	176.528	0.135	-0.194
-355.566	0.692	0.302	-0.213
-354.552	182.313	0.133	-0.194
-353.537	-70.225	-0.303	0.114
-352.523	245.930	-0.203	0.337
-351.508	347.662	-0.054	0.105
-350.493	738.553	0.091	-0.240
-349.479	69.299	0.248	-0.252
-348.464	-126.015	-0.375	-0.056
-347.450	-117.472	0.078	-0.014
-346.435	-79.646	0.168	-0.056
-345.420	-13.426	-0.089	-0.057
-344.406	236.432	0.124	0.203
-343.391	-89.081	-0.188	0.055
-342.377	-131.574	-0.259	-0.034
-341.362	800.000	-0.083	0.286
-340.348	554.602	-0.135	0.321
-339.333	24.628	-0.198	-0.162
-338.318	800.000	0.053	0.217
-337.304	391.273	-0.111	0.227
-336.289	18.594	0.116	0.091
-335.275	-200.000	-0.007	-0.049
-334.260	-99.496	0.043	-0.011
-333.245	636.779	0.098	0.247
-332.231	-16.050	-0.278	0.174
-331.216	27.321	0.238	0.197
-330.202	-112.705	0.214	-0.042
-329.187	-200.000	-0.014	0.126
-328.172	-18.774	0.183	0.112
-327.158	800.000	-0.059	0.195
-326.143	-0.998	0.169	-0.118
-325.129	309.651	-0.142	0.261
-324.114	800.000	-0.055	0.197
-323.099	-70.695	-0.325	0.121
-322.085	779.571	0.153	-0.413
-321.070	800.000	-0.151	-0.517
-320.056	-140.921	-0.340	0.034
-319.041	-118.017	-0.213	0.038
-318.026	-21.138	0.194	0.117
-317.012	104.351	0.197	0.228
-315.997	551.436	-0.186	-0.441
-314.983	274.113	0.095	-0.166
-313.968	-82.544	0.218	0.070
-312.953	124.001	-0.393	0.486
-311.939	800.000	0.021	0.090
-310.924	585.207	0.100	0.241
-309.910	32.044	0.168	0.142
-308.895	-18.767	-0.203	-0.125
-307.880	-15.913	-0.078	-0.049
-306.866	-113.195	-0.256	0.050
-305.851	-68.261	-0.262	0.101
-304.837	-13.439	-0.169	-0.108
-303.822	-200.000	0.034	0.285
-302.807	620.928	0.046	0.113
-301.793	-200.000	0.004	0.110
-300.778	348.897	-0.068	-0.132
-299.764	-200.000	-0.016	-0.081
-298.749	221.581	0.139	0.220
-297.735	407.716	0.036	0.075
-296.720	26.851	0.169	0.140
-295.705	327.379	-0.266	-0.502
-294.691	-110.671	-0.050	-0.010
-293.676	72.840	-0.208	0.214
-292.662	-128.212	-0.157	-0.022
-291.647	-200.000	-0.010	-0.046
-290.632	-179.618	0.185	-0.004
-289.618	800.000	-0.141	0.570
-288.603	679.351	0.051	-0.129
-287.589	34.962	-0.235	0.202
-286.574	-29.335	0.162	0.091
-285.559	55.595	-0.145	0.138
-284.545	800.000	-0.040	0.112
-283.530	93.198	-0.122	-0.136
-282.516	78.777	0.156	-0.164
-281.501	800.000	-0.096	-0.268
-280.486	52.795	0.218	0.206
-279.472	-157.574	-0.175	0.010
-278.457	-200.000	-0.012	-0.176
-277.443	148.724	0.162	0.215
-276.428	800.000	-0.099	-0.276
-275.413	13.941	0.051	-0.039
-274.399	633.410	0.070	-0.176
-273.384	-200.000	0.000	-0.403
-272.370	-49.835	0.160	0.075
-271.355	700.133	-0.099	0.256
-270.340	-2.255	-0.101	0.070
-269.326	-46.099	0.196	0.095
-268.311	800.000	0.057	0.157
-267.297	-134.075	-0.070	0.008
-266.282	-200.000	-0.033	-0.238
-265.267	-116.326	-0.350	-0.064
-264.253	633.146	0.037	-0.093
-263.238	-200.000	0.007	-0.103
-262.224	-26.714	0.361	-0.208
-261.209	-37.533	0.265	-0.139
-260.195	61.814	-0.148	0.145
-259.180	-168.896	-0.425	-0.016
-258.165	-61.295	-0.459	0.190
-257.151	-200.000	0.034	0.203
-256.136	-59.431	-0.086	-0.036
-255.122	23.242	0.111	0.090
-254.107	-10.588	-0.211	-0.137
-253.092	320.804	-0.123	0.230
-252.078	9.606	-0.289	0.215
-251.063	50.671	0.205	0.191
-250.049	-128.400	0.172	-0.024
-249.034	800.000	-0.073	-0.224
-248.019	128.103	-0.095	-0.119
-247.005	-200.000	0.025	-0.153
-245.990	-159.168	0.223	0.012
-244.976	-34.152	-0.152	-0.082
-243.961	684.903	0.018	-0.047
-242.946	-167.082	0.185	-0.007
-241.932	-200.000	0.000	0.473
-240.917	-12.985	-0.102	-0.065
-239.903	25.474	-0.125	-0.102
-238.888	-58.516	0.180	-0.077
-237.873	-55.975	0.402	-0.176
-236.859	386.001	-0.116	0.235
-235.844	161.092	-0.140	0.192
-234.830	-137.414	-0.271	-0.030
-233.815	14.613	-0.123	-0.095
-232.800	294.155	0.042	-0.075
-231.786	58.645	0.183	-0.176
-230.771	-104.454	-0.170	-0.039
-229.757	-91.048	0.072	-0.020
-228.742	-128.467	0.358	-0.050
-227.727	-30.569	-0.351	-0.195
-226.713	73.488	0.168	0.173
-225.698	-127.284	0.160	0.023
-224.684	-200.000	0.075	-0.366
-223.669	370.500	0.034	0.068
-222.655	175.327	0.144	-0.205
-221.640	-106.821	0.142	0.031
-220.625	350.365	-0.046	0.090
-219.611	622.239	-0.024	0.060
-218.596	21.854	0.106	0.085
-217.582	-69.015	-0.321	-0.122
-216.567	-70.759	-0.205	0.076
-215.552	-55.878	-0.036	0.016
-214.538	162.946	-0.109	-0.150
-213.523	64.819	-0.357	0.353
-212.509	44.296	0.121	0.109
-211.494	-147.526	0.337	-0.028
-210.479	247.398	-0.028	0.047
-209.465	36.978	0.143	0.124
-208.450	-27.422	-0.191	-0.109
-207.436	-67.916	-0.324	0.124
-206.421	-150.465	-0.177	-0.013
-205.406	20.963	-0.178	-0.142
-204.392	-144.242	0.094	0.009
-203.377	76.234	0.244	0.254
-202.363	-14.326	-0.122	-0.077
-201.348	90.028	0.145	0.159
-200.333	-104.355	-0.150	-0.034
-199.319	-112.722	-0.222	0.043
-198.304	-58.441	0.115	0.049
-197.290	-200.000	0.014	-0.185
-196.275	-123.990	0.216	-0.033
-195.260	81.202	-0.245	-0.259
-194.246	-17.315	0.169	0.104
-193.231	-47.562	0.294	0.140
-192.217	-200.000	-0.009	0.122
-191.202	-74.685	-0.255	-0.090
-190.187	-45.435	0.240	0.117
-189.173	-89.586	-0.036	-0.011
-188.158	-95.710	0.319	-0.084
-187.144	-200.000	-0.025	-0.284
-186.129	533.810	0.073	-0.170
-185.114	-16.866	-0.280	0.174
-184.100	-200.000	-0.056	0.463
-183.085	-36.874	-0.211	-0.111
-182.071	-90.095	0.223	-0.064
-181.056	-163.829	0.154	-0.007
-180.042	244.160	0.150	-0.247
-179.027	-200.000	-0.053	-0.234
-178.012	800.000	0.054	0.190
-176.998	-48.784	0.257	0.121
-175.983	-160.832	0.128	-0.007
-174.969	-85.937	-0.124	-0.038
-173.954	-200.000	-0.009	0.157
-172.939	724.246	0.068	0.177
-171.925	-27.145	0.417	0.238
-170.910	-14.921	0.101	0.063
-169.896	-200.000	0.035	-0.204
-168.881	-200.000	0.061	-0.347
-167.866	-200.000	0.067	-0.485
-166.852	154.928	0.215	-0.290
-165.837	31.892	-0.283	-0.239
-164.823	-153.775	0.231	-0.016
-163.808	-200.000	-0.031	-0.195
-162.793	-119.929	0.285	0.048
-161.779	-200.000	0.010	-0.241
-160.764	139.321	0.068	-0.087
-159.750	-84.271	0.184	-0.057
-158.735	10.382	-0.329	0.245
-157.720	-30.267	-0.050	0.028
-156.706	-127.353	0.211	0.030
-155.691	148.038	-0.122	0.162
-154.677	-61.090	-0.200	0.083
-153.662	-158.848	0.196	-0.011
-152.647	84.186	-0.062	0.067
-151.633	48.436	-0.051	0.047
-150.618	471.150	-0.049	-0.107
-149.604	-51.258	0.239	0.109
-148.589	-69.258	-0.111	-0.042
-147.574	-140.026	0.151	-0.016
-146.560	-131.893	-0.344	0.044
-145.545	-200.000	0.042	0.253
-144.531	-57.830	-0.267	-0.114
-143.516	28.223	-0.060	-0.050
-142.502	800.000	0.018	0.066
-141.487	239.929	0.118	0.193
-140.472	2.836	0.309	0.219
-139.458	-200.000	-0.017	-0.152
-138.443	143.799	0.172	0.224
-137.429	-200.000	-0.002	0.067
-136.414	0.007	0.131	-0.091
-135.399	394.152	-0.082	-0.167
-134.385	189.623	0.064	0.094
-133.370	-3.440	-0.278	-0.189
-132.356	-142.379	0.344	0.033
-131.341	-66.971	-0.169	-0.065
-130.326	283.148	0.087	-0.152
-129.312	69.439	-0.135	0.136
-128.297	729.746	0.100	-0.260
-127.283	280.064	-0.101	-0.176
-126.268	-84.205	0.291	0.090
-125.253	129.010	-0.070	0.087
-124.239	-91.278	-0.663	-0.186
-123.224	-24.256	-0.195	0.114
-122.210	-102.645	-0.306	0.071
-121.195	313.751	0.153	0.282
-120.180	54.301	0.080	-0.075
-119.166	800.000	-0.023	0.063
-118.151	800.000	0.121	-0.486
-117.137	-41.032	0.018	-0.009
-116.122	14.546	-0.062	0.048
-115.107	-144.114	0.111	0.010
-114.093	456.396	-0.135	-0.292
-113.078	800.000	-0.100	0.288
-112.064	444.750	0.047	0.100
-111.049	-87.117	-0.526	-0.156
-110.034	787.375	-0.159	-0.428
-109.020	36.572	0.146	-0.126
-108.005	-96.687	0.206	0.053
-106.991	226.066	0.175	0.278
-105.976	-68.527	0.166	-0.063
-104.962	-115.371	-0.341	0.063
-103.947	423.481	-0.061	-0.128
-102.932	-180.552	0.359	-0.007
-101.918	750.648	0.076	0.201
-100.903	-89.710	0.044	0.013
-99.889	-145.061	0.056	-0.005
-98.874	-85.145	0.484	-0.148
-97.859	-200.000	-0.040	-0.185
-96.845	-200.000	-0.038	-0.277
-95.830	-200.000	-0.011	0.078
-94.816	78.092	0.062	-0.064
-93.801	78.418	0.083	-0.087
-92.786	-45.505	-0.154	0.075
-91.772	-34.145	-0.151	0.081
-90.757	-129.166	-0.535	-0.073
-89.743	313.951	-0.143	-0.263
-88.728	-75.526	-0.133	0.046
-87.713	-146.001	0.228	-0.020
-86.699	-200.000	-0.023	-0.110
-85.684	-144.962	0.211	-0.019
-84.670	-44.523	-0.238	0.116
-83.655	304.590	-0.067	-0.122
-82.640	-64.258	0.180	0.072
-81.626	-200.000	0.059	-0.412
-80.611	-200.000	0.059	-0.265
-79.597	3.608	-0.293	-0.209
-78.582	54.577	0.024	-0.023
-77.567	94.663	-0.061	-0.067
-76.553	-29.409	-0.265	0.148
-75.538	800.000	-0.042	-0.114
-74.524	-40.468	0.172	0.087
-73.509	71.672	0.242	-0.246
-72.494	-143.867	0.017	0.002
-71.480	88.442	-0.404	0.438
-70.465	-200.000	-0.003	-0.187
-69.451	-31.066	0.226	-0.124
-68.436	157.154	-0.122	0.165
-67.422	800.000	-0.047	0.179
-66.407	359.992	0.247	0.482
-65.392	-110.087	-0.308	0.063
-64.378	800.000	-0.044	-0.135
-63.363	44.048	0.184	0.165
-62.349	3.187	0.356	0.253
-61.334	114.395	-1.205	-1.432
-60.319	284.108	0.578	1.015
-59.305	386.452	-0.707	-1.424
-58.290	800.000	0.607	1.751
-57.276	800.000	0.460	1.537
-56.261	-200.000	127.864	675.032
-55.246	411.634	1601.481	3316.581
-54.232	139.402	2754.180	3535.727
-53.217	95.330	2157.553	2398.564
-52.203	34.422	1588.509	1352.528
-51.188	26.314	1332.949	1086.383
-50.173	23.809	1295.124	1040.863
-49.159	51.959	1365.833	1268.522
-48.144	48.433	1377.006	1257.623
-47.130	26.352	1324.272	1079.364
-46.115	23.104	1305.356	1044.751
-45.100	22.853	1300.505	1039.351
-44.086	22.825	1297.341	1036.621
-43.071	22.749	1295.545	1034.699
-42.057	22.756	1293.233	1032.851
-41.042	22.920	1291.443	1032.335
-40.027	22.841	1290.506	1031.084
-39.013	22.903	1288.479	1029.790
-37.998	22.850	1286.319	1027.711
-36.984	22.950	1284.577	1026.860
-35.969	22.912	1282.761	1025.151
-34.954	22.957	1281.516	1024.375
-33.940	22.913	1280.574	1023.324
-32.925	22.966	1278.935	1022.279
-31.911	22.887	1277.271	1020.457
-30.896	23.068	1275.894	1020.359
-29.881	23.069	1274.772	1019.426
-28.867	23.124	1273.311	1018.533
-27.852	22.994	1272.213	1016.869
-26.838	23.143	1270.180	1016.058
-25.823	23.072	1269.415	1014.997
-24.809	23.114	1267.688	1013.814
-23.794	23.101	1266.257	1012.556
-22.779	22.887	1265.503	1010.689
-21.765	22.949	1264.437	1010.152
-20.750	23.083	1262.780	1009.552
-19.736	22.983	1261.287	1007.752
-18.721	22.962	1260.188	1006.711
-17.706	22.895	1259.304	1005.584
-16.692	22.868	1258.060	1004.397
-15.677	22.881	1256.858	1003.473
-14.663	22.881	1255.969	1002.721
-13.648	22.921	1254.467	1001.712
-12.633	22.858	1254.068	1000.998
-11.619	22.789	1253.313	999.960
-10.604	22.833	1252.601	999.605
-9.590	22.891	1251.071	998.674
-8.575	22.782	1249.965	997.132
-7.560	22.864	1249.268	997.003
-6.546	22.888	1248.959	996.849
-5.531	22.844	1248.181	995.939
-4.517	22.782	1247.472	994.984
-3.502	22.819	1246.576	994.442
-2.487	22.905	1245.244	993.821
-1.473	22.895	1240.971	990.316
-0.458	21.309	1226.415	969.865
0.556	16.327	1211.705	934.501
1.571	12.765	1219.586	920.625
2.586	12.132	1234.977	928.574
3.600	12.137	1222.740	919.320
4.615	8.771	1151.837	848.140
5.629	2.907	1081.759	767.237
6.644	0.346	1064.811	742.548
7.659	0.167	1063.015	740.350
8.673	0.058	1062.034	739.062
9.688	0.099	1061.018	738.492
10.702	0.337	1058.495	737.836
11.717	3.775	1062.828	757.667
12.731	10.741	1071.882	798.400
13.746	15.449	1077.956	826.073
14.761	16.668	1079.443	833.143
15.775	15.939	1077.065	827.653
16.790	14.950	1075.315	821.382
17.804	14.300	1073.705	816.890
18.819	14.055	1072.776	814.909
19.834	13.738	1072.034	812.723
20.848	13.618	1071.145	811.391
21.863	13.202	1070.234	808.593
22.877	13.159	1069.363	807.654
23.892	13.132	1068.636	806.901
24.907	13.049	1068.208	806.102
25.921	13.160	1067.103	805.738
26.936	13.230	1066.117	805.262
27.950	13.246	1065.446	804.760
28.965	13.230	1064.392	803.814
29.980	13.374	1062.687	803.156
30.994	13.407	1061.814	802.585
32.009	13.290	1060.965	801.304
33.023	13.404	1059.585	800.746
34.038	13.263	1059.063	799.596
35.053	13.275	1058.213	798.941
36.067	13.254	1057.159	797.975
37.082	13.276	1056.524	797.531
38.096	13.379	1055.264	797.005
39.111	13.431	1054.626	796.703
40.126	13.353	1053.503	795.409
41.140	13.022	1053.091	793.439
42.155	13.157	1051.290	792.657
43.169	13.077	1050.404	791.535
44.184	13.083	1049.404	790.739
45.199	13.230	1048.242	790.501
46.213	13.224	1046.990	789.455
47.228	13.189	1046.155	788.589
48.242	13.258	1044.713	787.760
49.257	13.319	1043.762	787.266
50.271	13.236	1043.404	786.529
51.286	13.243	1042.551	785.851
52.301	13.212	1041.400	784.766
53.315	13.207	1040.493	783.992
54.330	13.121	1039.035	782.417
55.344	13.168	1038.737	782.343
56.359	13.186	1037.697	781.575
57.374	13.220	1036.810	781.002
58.388	13.157	1035.833	779.897
59.403	13.148	1035.279	779.367
60.417	13.150	1034.090	778.413
61.432	13.129	1033.818	778.042
62.447	12.974	1032.965	776.600
63.461	13.115	1032.030	776.491
64.476	13.041	1031.557	775.722
65.490	13.017	1030.457	774.712
66.505	13.055	1029.544	774.136
67.520	13.166	1028.650	773.916
68.534	13.085	1028.024	772.994
69.549	12.985	1027.622	772.156
70.563	13.052	1026.520	771.575
71.578	13.006	1025.698	770.675
72.593	12.935	1025.114	769.835
73.607	12.889	1024.446	769.049
74.622	13.055	1023.306	768.898
75.636	12.994	1022.785	768.155
76.651	12.893	1022.376	767.313
77.666	12.868	1021.852	766.732
78.680	13.013	1021.024	766.719
79.695	13.052	1020.261	766.261
80.709	12.960	1019.717	765.357
81.724	13.106	1018.800	765.275
82.739	13.165	1018.156	764.997
83.753	13.185	1017.538	764.558
84.768	13.332	1016.149	764.125
85.782	13.325	1015.470	763.516
86.797	13.158	1014.825	762.192
87.812	13.231	1013.461	761.439
88.826	13.232	1012.357	760.545
89.841	13.263	1011.463	759.947
90.855	13.226	1011.082	759.424
91.870	13.208	1010.385	758.750
92.884	13.287	1009.068	758.057
93.899	13.178	1008.531	757.087
94.914	13.313	1007.517	756.880
95.928	13.335	1007.116	756.610
96.943	13.245	1006.049	755.332
97.957	13.287	1004.872	754.572
98.972	13.357	1003.952	754.135
99.987	13.361	1003.321	753.611
101.001	13.394	1001.969	752.678
102.016	13.266	1001.497	751.674
103.030	13.256	1000.758	751.009
104.045	13.279	999.847	750.363
105.060	13.262	999.195	749.732
106.074	13.217	998.304	748.791
107.089	13.212	997.056	747.765
108.103	13.139	996.468	746.931
109.118	13.210	995.112	746.167
110.133	13.234	994.698	745.901
111.147	13.132	993.185	744.240
112.162	13.201	992.726	744.142
113.176	13.266	991.969	743.799
114.191	13.274	990.906	742.971
115.206	13.346	990.364	742.826
116.220	13.181	989.878	741.652
117.235	13.294	988.483	741.051
118.249	13.219	987.791	740.129
119.264	13.182	987.417	739.617
120.279	13.196	986.182	738.690
121.293	13.354	985.031	738.467
122.308	13.088	984.636	736.919
123.322	13.129	983.415	736.123
124.337	13.327	982.678	736.389
125.352	13.139	981.424	734.546
126.366	13.169	980.829	734.169
127.381	13.156	979.597	733.123
128.395	13.130	978.599	732.196
129.410	13.286	977.306	731.854
130.424	13.133	976.808	730.742
131.439	13.280	975.914	730.659
132.454	13.263	975.427	730.152
133.468	13.333	974.562	729.748
134.483	13.267	973.714	728.760
135.497	13.249	973.310	728.315
136.512	13.222	971.929	727.098
137.527	13.367	970.849	726.863
138.541	13.217	970.821	726.118
139.556	13.337	969.622	725.684
140.570	13.338	969.413	725.468
141.585	13.456	967.803	724.714
142.600	13.418	967.483	724.244
143.614	13.456	966.729	723.784
144.629	13.338	966.059	722.700
145.643	13.433	965.109	722.340
146.658	13.511	963.752	721.602
147.673	13.373	962.839	720.252
148.687	13.411	961.837	719.606
149.702	13.311	961.403	718.783
150.716	13.296	960.719	718.140
151.731	13.415	959.691	717.826
152.746	13.402	959.278	717.398
153.760	13.488	958.547	717.161
154.775	13.535	958.017	716.904
155.789	13.499	957.145	716.031
156.804	13.461	956.869	715.596
157.819	13.617	956.135	715.659
158.833	13.580	955.558	715.004
159.848	13.614	954.453	714.261
160.862	13.674	953.363	713.641
161.877	13.451	952.680	712.107
162.892	13.507	951.408	711.334
163.906	13.484	950.910	710.799
164.921	13.644	949.525	710.386
165.935	13.582	948.791	709.509
166.950	13.695	947.741	709.144
167.964	13.551	947.105	707.989
168.979	13.685	946.291	707.890
169.994	13.607	945.438	706.856
171.008	13.544	945.091	706.266
172.023	13.761	943.950	706.276
173.037	13.717	943.262	705.513
174.052	13.849	942.577	705.500
175.067	13.571	941.663	703.573
176.081	13.671	941.539	703.841
177.096	13.604	940.816	702.952
178.110	13.693	940.341	702.912
179.125	13.616	939.975	702.252
180.140	13.735	939.173	702.096
181.154	13.753	938.888	701.897
182.169	13.907	938.410	702.128
183.183	13.758	937.783	700.967
184.198	13.844	936.665	700.432
185.213	13.728	936.468	699.731
186.227	13.873	935.338	699.439
187.242	13.872	934.935	699.069
188.256	13.811	934.283	698.263
189.271	13.839	933.113	697.446
190.286	13.770	932.731	696.807
191.300	13.770	931.621	695.918
192.315	13.747	931.311	695.529
193.329	13.703	930.559	694.719
194.344	13.690	930.080	694.247
195.359	13.771	929.456	694.060
196.373	13.698	929.027	693.372
197.388	13.956	928.502	693.995
198.402	14.192	927.564	694.219
199.417	13.990	926.905	692.821
200.432	14.055	926.510	692.737
201.446	14.100	926.284	692.696
202.461	14.113	925.504	692.105
203.475	14.133	924.691	691.518
204.490	13.975	924.435	690.608
205.504	14.130	923.387	690.409
206.519	14.103	922.722	689.735
207.534	14.079	922.011	689.046
208.548	13.955	921.798	688.311
209.563	14.074	920.673	687.903
210.577	14.093	920.165	687.541
211.592	14.071	919.337	686.769
212.607	14.213	918.718	686.835
213.621	14.233	917.486	685.932
214.636	14.333	916.973	685.900
215.650	14.196	916.488	684.914
216.665	14.228	916.139	684.725
217.680	14.319	915.047	684.220
218.694	14.321	914.352	683.648
219.709	14.387	913.651	683.334
220.723	14.270	912.926	682.255
221.738	14.297	912.169	681.737
222.753	14.292	911.779	681.365
223.767	14.544	911.133	681.854
224.782	14.484	910.675	681.205
225.796	14.394	910.222	680.439
226.811	14.363	909.526	679.732
227.826	14.281	909.097	679.015
228.840	14.308	908.233	678.419
229.855	14.350	907.172	677.739
230.869	14.472	906.405	677.604
231.884	14.400	905.701	676.722
232.899	14.335	905.018	675.887
233.913	14.389	904.435	675.613
234.928	14.432	903.596	675.100
235.942	14.392	903.218	674.597
236.957	14.478	902.460	674.320
237.972	14.515	901.893	673.985
238.986	14.414	901.380	673.133
240.001	14.477	900.718	672.833
241.015	14.485	899.903	672.197
242.030	14.502	899.176	671.664
243.045	14.521	899.029	671.570
244.059	14.618	897.918	671.070
245.074	14.589	897.697	670.732
246.088	14.722	896.578	670.370
247.103	14.540	896.182	669.282
248.117	14.689	895.868	669.586
249.132	14.891	894.926	669.632
250.147	14.829	894.579	669.068
251.161	14.941	893.483	668.636
252.176	14.822	892.967	667.714
253.190	14.910	892.253	667.472
254.205	14.894	891.859	667.055
255.220	15.046	891.038	666.988
256.234	14.978	890.869	666.530
257.249	15.028	889.902	665.948
258.263	14.843	888.960	664.449
259.278	15.030	888.168	664.539
260.293	15.015	887.975	664.279
261.307	15.228	887.068	664.384
262.322	15.017	886.685	663.202
263.336	14.991	886.078	662.587
264.351	15.146	885.390	662.628
265.366	15.029	884.523	661.457
266.380	15.282	883.766	661.830
267.395	15.278	883.016	661.197
268.409	15.097	882.288	659.879
269.424	15.113	881.632	659.393
270.439	15.067	881.076	658.736
271.453	15.168	880.063	658.319
272.468	15.133	880.073	658.130
273.482	15.108	879.389	657.463
274.497	15.009	878.721	656.516
275.512	15.156	878.234	656.670
276.526	15.196	878.097	656.667
277.541	15.231	876.860	655.821
278.555	15.379	875.937	655.651
279.570	15.360	875.788	655.406
280.585	15.389	875.132	654.972
281.599	15.424	874.307	654.435
282.614	15.273	873.920	653.497
283.628	15.332	873.319	653.221
284.643	15.346	872.642	652.708
285.657	15.432	871.816	652.368
286.672	15.387	871.207	651.683
287.687	15.348	870.664	651.064
288.701	15.490	870.084	651.123
289.716	15.302	869.880	650.184
290.730	15.505	868.940	650.212
291.745	15.481	868.153	649.471
292.760	15.495	868.017	649.368
293.774	15.523	867.273	648.863
294.789	15.533	866.270	648.093
295.803	15.465	865.907	647.502
296.818	15.634	864.734	647.218
297.833	15.662	864.009	646.724
298.847	15.556	863.852	646.141
299.862	15.616	863.373	645.959
300.876	15.617	862.667	645.375
301.891	15.687	861.940	645.042
302.906	15.708	861.631	644.835
303.920	15.638	861.491	644.406
304.935	15.812	860.685	644.412
305.949	15.665	859.949	643.244
306.964	15.691	859.396	642.871
307.979	15.777	858.609	642.555
308.993	15.773	857.911	641.961
310.008	15.787	857.581	641.710
311.022	15.823	856.803	641.206
312.037	15.774	856.455	640.704
313.052	15.715	855.915	640.017
314.066	15.754	854.885	639.338
315.081	15.835	854.834	639.553
316.095	15.820	854.044	638.847
317.110	15.881	853.307	638.472
318.125	15.799	853.206	638.029
319.139	15.848	852.572	637.685
320.154	15.921	851.890	637.394
321.168	15.913	851.951	637.353
322.183	15.897	850.844	636.408
323.197	15.961	850.643	636.442
324.212	15.863	850.273	635.738
325.227	15.925	849.312	635.199
326.241	15.837	848.910	634.510
327.256	15.850	848.573	634.250
328.270	16.030	847.544	634.102
329.285	15.893	847.229	633.297
330.300	16.077	846.287	633.226
331.314	15.926	846.308	632.618
332.329	15.979	845.698	632.306
333.343	15.887	845.520	631.773
334.358	15.955	845.038	631.609
335.373	16.012	844.491	631.359
336.387	15.941	844.043	630.703
337.402	16.182	843.850	631.405
338.416	16.075	843.507	630.693
339.431	16.110	843.220	630.553
340.446	16.285	842.288	630.452
341.460	16.133	842.240	629.794
342.475	16.140	842.127	629.682
343.489	16.342	841.078	629.594
344.504	16.396	840.760	629.499
345.519	16.418	840.387	629.248
346.533	16.372	839.891	628.651
347.548	16.257	839.217	627.663
348.562	16.398	838.715	627.755
349.577	16.479	838.212	627.623
350.592	16.274	837.603	626.352
351.606	16.293	836.929	625.861
352.621	16.363	836.180	625.506
353.635	16.249	835.714	624.680
354.650	16.473	834.904	624.849
355.665	16.451	834.481	624.396
356.679	16.405	833.930	623.756
357.694	16.435	833.082	623.178
358.708	16.566	832.551	623.210
359.723	16.504	832.057	622.554
360.738	16.488	831.182	621.788
361.752	16.485	830.633	621.311
362.767	16.698	829.876	621.471
363.781	16.641	829.837	621.179
364.796	16.585	829.552	620.704
365.810	16.774	828.888	620.844
366.825	16.798	828.487	620.576
367.840	16.727	828.170	620.026
368.854	16.683	827.620	619.397
369.869	16.627	827.248	618.860
370.883	16.808	826.580	618.966
371.898	16.637	826.451	618.192
372.913	16.662	825.730	617.687
373.927	16.696	825.322	617.450
374.942	16.735	824.871	617.201
375.956	16.956	824.496	617.671
376.971	16.839	824.456	617.161
377.986	16.910	823.899	616.948
379.000	16.867	822.906	615.991
380.015	17.063	822.587	616.410
381.029	16.955	822.054	615.566
382.044	16.923	821.448	614.942
383.059	16.980	820.716	614.547
384.073	17.043	820.022	614.198
385.088	16.980	819.614	613.611
386.102	17.089	818.706	613.273
387.117	17.101	818.722	613.274
388.132	16.955	818.281	612.362
389.146	16.796	817.822	611.391
390.161	17.023	817.051	611.577
391.175	17.163	816.508	611.621
392.190	17.156	815.893	611.082
393.205	17.014	815.971	610.576
394.219	17.056	815.437	610.272
395.234	16.970	815.278	609.789
396.248	17.028	814.515	609.371
397.263	17.065	814.134	609.166
398.278	16.999	813.698	608.552
399.292	16.921	813.212	607.854
400.307	17.139	812.785	608.260
401.321	17.033	812.197	607.386
402.336	17.119	811.896	607.418
403.350	17.198	811.491	607.341
404.365	17.294	810.618	606.977
405.380	17.333	810.167	606.726
406.394	17.347	810.077	606.655
407.409	17.293	809.482	605.965
408.423	17.272	809.545	605.883
409.438	17.419	808.704	605.721
410.453	17.498	808.428	605.744
411.467	17.342	808.479	605.171
412.482	17.272	807.614	604.224
413.496	17.513	806.678	604.323
414.511	17.563	806.723	604.481
415.526	17.605	806.663	604.534
416.540	17.452	805.654	603.180
417.555	17.609	805.469	603.545
418.569	17.718	804.772	603.353
419.584	17.528	804.662	602.548
420.599	17.739	804.015	602.755
421.613	114.086	1298.977	1488.565
422.628	98.468	1371.048	1488.646
