DTS Sentinel unit serial number:	SN413079Multiplexer serial number:	ORYXHardware model number:	OX4-SRSoftware version number:	ORYX F/W v4.00 Oryx Data Collector v3.7.2.0data status	okinstallation	princeton_trtdifferential loss correction	single-endedforward channel	channel 1reverse channel	N/Adate	2019/09/16time	09:34:35forward acquisition time	60.00reverse acquisition time	0.00gamma	496.2192k internal	0.2321k external	0.2321temperature offset calibration	0.9969default loss term (dB/km)	0.3790temperature slope calibration	1.0000multiplexer offset coefficient	1.0000multiplexer slope coefficient	1.0000fibre end	0.00T internal ref (°C)	32.06T ext. ref 1 (°C)	12.23T ext. ref 2 (°C)	29.82length (m)	temperature (°C)	Stokes	anti-Stokes-747.200	-1.913	0.245	-0.174
-746.185	-73.934	0.117	0.043
-745.171	2.791	0.108	-0.079
-744.156	466.993	0.096	0.219
-743.142	80.420	-0.249	0.271
-742.127	21.472	0.274	0.225
-741.112	62.246	-0.027	0.028
-740.098	282.537	-0.067	0.122
-739.083	124.052	-0.201	0.255
-738.069	800.000	0.108	0.353
-737.054	-44.572	0.246	0.124
-736.039	-200.000	-0.021	0.155
-735.025	264.416	-0.123	-0.216
-734.010	4.098	-0.314	-0.232
-732.996	191.200	0.146	-0.222
-731.981	123.613	-0.212	-0.269
-730.966	104.155	-0.094	0.112
-729.952	-200.000	0.043	-0.263
-728.937	690.343	0.056	0.149
-727.923	-200.000	0.046	-0.255
-726.908	-110.278	-0.209	0.044
-725.894	-135.092	-0.521	0.063
-724.879	-108.460	0.196	0.043
-723.864	-9.741	0.261	-0.176
-722.850	101.337	-0.232	-0.273
-721.835	-200.000	0.048	0.239
-720.821	-30.485	-0.304	0.174
-719.806	415.776	0.041	0.089
-718.791	514.883	-0.160	-0.376
-717.777	800.000	-0.145	0.416
-716.762	360.483	0.084	-0.169
-715.748	-97.528	0.155	0.041
-714.733	220.676	0.168	-0.273
-713.718	88.225	0.026	0.029
-712.704	800.000	-0.022	0.061
-711.689	-27.379	0.313	0.184
-710.675	-164.488	0.311	-0.014
-709.660	-200.000	-0.001	0.192
-708.645	-18.446	-0.170	0.107
-707.631	483.684	0.215	-0.493
-706.616	-20.469	-0.208	-0.129
-705.602	104.926	0.061	0.072
-704.587	-200.000	-0.057	-0.350
-703.572	-200.000	0.067	-0.368
-702.558	429.854	-0.094	-0.204
-701.543	705.187	0.081	-0.215
-700.529	639.182	0.037	0.094
-699.514	53.722	0.260	-0.252
-698.499	-59.830	-0.195	0.084
-697.485	-200.000	-0.056	0.316
-696.470	-200.000	0.004	0.100
-695.456	-99.558	0.044	-0.011
-694.441	125.899	0.164	-0.209
-693.426	87.696	-0.255	-0.285
-692.412	-74.586	0.128	-0.047
-691.397	800.000	0.073	-0.258
-690.383	146.242	0.030	0.041
-689.368	800.000	0.067	0.221
-688.354	161.569	0.048	0.067
-687.339	-107.828	-0.217	0.048
-686.324	-200.000	-0.043	0.215
-685.310	-27.975	0.212	0.124
-684.295	800.000	0.014	-0.046
-683.281	130.793	-0.022	0.028
-682.266	-40.338	-0.208	0.109
-681.251	-51.348	-0.163	-0.077
-680.237	800.000	-0.078	0.292
-679.222	79.482	-0.222	-0.240
-678.208	54.014	0.328	-0.318
-677.193	-80.021	-0.206	-0.070
-676.178	-154.501	0.261	0.018
-675.164	69.327	0.245	-0.254
-674.149	-96.577	-0.365	0.097
-673.135	-189.062	-0.256	-0.003
-672.120	375.348	-0.107	-0.220
-671.105	99.511	0.169	-0.197
-670.091	-200.000	0.002	0.029
-669.076	693.544	-0.056	0.149
-668.062	16.234	0.126	0.100
-667.047	-16.536	-0.231	-0.147
-666.032	-104.412	-0.448	-0.105
-665.018	2.622	0.134	0.098
-664.003	-68.226	-0.060	0.024
-662.989	-200.000	0.074	-0.591
-661.974	102.946	-0.116	-0.137
-660.959	-165.154	0.123	-0.005
-659.945	-200.000	0.025	-0.500
-658.930	800.000	-0.031	0.136
-657.916	-4.192	-0.050	-0.035
-656.901	-146.853	-0.073	-0.006
-655.886	80.916	-0.095	0.103
-654.872	-200.000	0.005	0.267
-653.857	800.000	-0.084	0.303
-652.843	19.996	-0.151	0.122
-651.828	800.000	0.096	0.277
-650.814	618.022	-0.085	-0.214
-649.799	165.509	-0.132	0.188
-648.784	-142.229	0.222	-0.022
-647.770	167.505	0.276	-0.394
-646.755	-61.851	-0.431	0.182
-645.741	383.931	0.070	0.144
-644.726	-45.700	-0.109	-0.054
-643.711	-164.291	-0.277	-0.013
-642.697	54.681	-0.056	-0.054
-641.682	800.000	-0.080	-0.283
-640.668	800.000	-0.058	0.207
-639.653	-140.749	0.185	0.019
-638.638	-10.214	-0.185	0.124
-637.624	-200.000	0.028	-0.290
-636.609	-16.591	0.064	-0.041
-635.595	-162.359	-0.165	0.008
-634.580	-106.298	-0.159	-0.036
-633.565	294.736	0.129	-0.238
-632.551	-96.243	-0.231	0.062
-631.536	91.203	0.199	0.224
-630.522	-79.557	0.101	0.034
-629.507	-175.210	-0.136	0.004
-628.492	72.866	0.125	0.132
-627.478	-42.483	-0.212	-0.109
-626.463	436.117	0.129	-0.283
-625.449	40.125	0.148	0.134
-624.434	-21.291	-0.116	0.071
-623.419	800.000	0.042	-0.150
-622.405	89.170	-0.162	-0.182
-621.390	702.801	0.079	0.209
-620.376	-58.919	0.389	0.169
-619.361	170.952	-0.110	0.158
-618.346	-200.000	0.079	0.402
-617.332	471.202	-0.100	0.226
-616.317	-200.000	0.012	-0.117
-615.303	-9.802	-0.181	0.121
-614.288	-82.806	0.272	-0.089
-613.273	29.913	-0.309	0.265
-612.259	21.955	-0.203	0.166
-611.244	5.352	-0.251	0.186
-610.230	-111.404	-0.355	-0.073
-609.215	800.000	0.066	-0.190
-608.201	82.806	-0.227	-0.248
-607.186	72.566	0.206	0.216
-606.171	800.000	0.063	0.219
-605.157	-57.969	0.101	0.044
-604.142	-83.376	-0.168	-0.054
-603.128	-200.000	0.018	-0.134
-602.113	-20.667	0.178	-0.110
-601.098	800.000	0.115	0.327
-600.084	-78.360	-0.279	0.096
-599.069	-181.376	0.094	0.002
-598.055	259.081	-0.133	0.230
-597.040	-200.000	0.016	0.295
-596.025	-90.210	0.179	-0.052
-595.011	-33.002	0.203	0.113
-593.996	264.512	-0.114	-0.200
-592.982	221.470	-0.088	0.141
-591.967	723.604	-0.115	-0.307
-590.952	-200.000	-0.046	-0.208
-589.938	-50.777	0.298	-0.141
-588.923	-13.167	0.142	-0.093
-587.909	9.339	0.304	0.231
-586.894	-153.245	-0.297	0.021
-585.879	-200.000	-0.011	0.123
-584.865	-155.398	-0.069	-0.005
-583.850	-200.000	0.011	-0.166
-582.836	-61.407	-0.360	0.152
-581.821	-26.263	0.221	0.130
-580.806	800.000	-0.073	0.226
-579.792	-200.000	0.015	0.160
-578.777	-110.385	-0.090	-0.019
-577.763	800.000	0.109	0.355
-576.748	141.320	0.056	-0.074
-575.733	-95.114	-0.109	0.030
-574.719	-95.808	-0.171	0.046
-573.704	781.414	-0.022	-0.061
-572.690	-174.661	0.418	-0.012
-571.675	104.717	0.151	-0.179
-570.661	746.820	0.078	-0.212
-569.646	-114.927	0.194	-0.037
-568.631	-6.938	0.329	0.225
-567.617	800.000	-0.050	-0.200
-566.602	-200.000	-0.111	-0.541
-565.588	-144.017	0.241	-0.023
-564.573	27.511	-0.198	-0.167
-563.558	129.386	-0.085	0.110
-562.544	226.069	0.116	0.189
-561.529	21.030	0.039	-0.031
-560.515	800.000	-0.056	-0.187
-559.500	358.503	0.045	-0.090
-558.485	-31.435	-0.205	-0.116
-557.471	800.000	0.046	0.173
-556.456	800.000	0.058	-0.208
-555.442	-124.547	-0.349	-0.054
-554.427	-200.000	-0.052	0.258
-553.412	-8.679	-0.178	-0.120
-552.398	-141.532	-0.074	-0.007
-551.383	236.458	-0.133	-0.221
-550.369	19.108	-0.268	0.216
-549.354	0.390	0.194	0.139
-548.339	-68.706	0.141	-0.055
-547.325	179.103	0.072	-0.106
-546.310	79.301	0.109	0.118
-545.296	-200.000	0.010	0.282
-544.281	61.443	-0.085	-0.084
-543.266	117.266	-0.153	0.188
-542.252	-20.257	-0.303	-0.187
-541.237	192.173	0.243	0.367
-540.223	-200.000	0.027	-0.296
-539.208	-200.000	-0.004	0.033
-538.193	27.442	-0.207	-0.174
-537.179	223.592	0.131	-0.212
-536.164	-200.000	0.002	0.144
-535.150	68.224	0.176	0.181
-534.135	-97.137	-0.178	-0.047
-533.121	-77.410	-0.102	0.036
-532.106	800.000	0.055	0.173
-531.091	154.040	0.051	0.070
-530.077	-72.246	0.462	0.171
-529.062	-165.788	0.179	0.008
-528.048	551.067	0.142	0.342
-527.033	-68.159	0.191	0.075
-526.018	175.216	0.075	-0.108
-525.004	-200.000	-0.067	-0.430
-523.989	-200.000	-0.019	0.166
-522.975	149.746	0.108	0.147
-521.960	96.761	0.071	0.081
-520.945	-76.469	0.320	-0.113
-519.931	-107.324	-0.368	-0.081
-518.916	-200.000	-0.050	0.232
-517.902	236.105	0.018	0.031
-516.887	-200.000	0.029	-0.164
-515.872	-34.602	0.106	0.058
-514.858	-12.723	0.163	0.107
-513.843	-23.522	0.203	-0.122
-512.829	-119.502	-0.103	-0.018
-511.814	110.568	-0.214	-0.258
-510.799	538.310	-0.059	0.141
-509.785	-148.221	0.085	-0.007
-508.770	74.204	-0.291	0.306
-507.756	113.604	0.076	0.093
-506.741	268.084	-0.019	0.033
-505.726	-174.611	-0.502	-0.014
-504.712	-200.000	-0.009	-0.090
-503.697	290.343	0.270	-0.491
-502.683	-12.826	0.140	-0.091
-501.668	187.266	-0.199	-0.297
-500.653	-200.000	0.002	-0.156
-499.639	106.042	0.184	0.218
-498.624	196.152	-0.320	0.487
-497.610	162.249	0.138	-0.194
-496.595	-64.087	-0.166	0.068
-495.581	-104.303	0.196	-0.045
-494.566	164.116	0.179	0.253
-493.551	-200.000	0.026	-0.189
-492.537	265.242	0.178	-0.311
-491.522	800.000	-0.066	0.280
-490.508	-170.732	-0.349	0.012
-489.493	-199.892	-0.194	0.001
-488.478	-42.723	0.148	0.075
-487.464	125.089	-0.026	-0.033
-486.449	643.641	-0.058	0.147
-485.435	58.073	-0.168	-0.165
-484.420	9.670	-0.259	-0.197
-483.405	-18.710	-0.164	-0.102
-482.391	800.000	0.046	-0.181
-481.376	1.968	0.060	-0.043
-480.362	800.000	-0.062	-0.213
-479.347	-110.827	-0.233	-0.048
-478.332	217.801	0.072	0.115
-477.318	800.000	-0.109	0.306
-476.303	84.524	0.191	0.209
-475.289	-103.812	0.404	0.095
-474.274	-13.286	-0.257	0.167
-473.259	-200.000	0.011	0.108
-472.245	-64.894	0.378	0.153
-471.230	17.935	-0.153	-0.122
-470.216	-134.129	0.233	-0.029
-469.201	-200.000	-0.013	-0.110
-468.186	-123.737	-0.231	-0.036
-467.172	-46.775	-0.098	-0.048
-466.157	-200.000	-0.033	0.274
-465.143	-31.345	0.161	0.090
-464.128	8.668	-0.180	0.136
-463.113	59.642	0.125	-0.124
-462.099	298.558	-0.159	-0.293
-461.084	-116.354	-0.266	-0.049
-460.070	316.545	0.071	0.134
-459.055	-200.000	-0.036	0.288
-458.040	538.272	0.097	-0.230
-457.026	30.246	-0.214	0.183
-456.011	0.438	-0.274	0.196
-454.997	90.878	-0.034	0.038
-453.982	559.168	-0.077	0.185
-452.968	-200.000	-0.034	-0.307
-451.953	-29.042	0.143	-0.082
-450.938	-72.146	0.087	-0.032
-449.924	-200.000	-0.004	-0.121
-448.909	-96.377	-0.261	0.069
-447.895	-110.272	-0.169	0.035
-446.880	-36.417	-0.219	-0.118
-445.865	-35.735	0.124	-0.067
-444.851	800.000	-0.049	0.139
-443.836	-200.000	0.016	-0.240
-442.822	116.302	-0.061	0.075
-441.807	-152.489	0.137	0.010
-440.792	800.000	0.127	-0.520
-439.778	729.308	0.135	-0.360
-438.763	622.438	0.098	-0.247
-437.749	-82.164	-0.189	0.061
-436.734	-91.569	-0.256	0.073
-435.719	-28.057	-0.172	-0.099
-434.705	800.000	0.013	0.041
-433.690	-130.100	-0.178	0.024
-432.676	-17.952	0.486	-0.304
-431.661	-58.062	-0.156	0.068
-430.646	-200.000	0.070	0.466
-429.632	-36.216	-0.446	0.241
-428.617	282.208	0.082	0.146
-427.603	800.000	-0.059	-0.233
-426.588	29.081	-0.088	0.074
-425.573	45.361	-0.201	0.185
-424.559	330.186	-0.172	0.330
-423.544	452.999	-0.062	-0.137
-422.530	-62.145	0.459	-0.191
-421.515	575.412	0.106	-0.258
-420.500	-77.071	-0.339	-0.118
-419.486	-200.000	0.048	0.432
-418.471	9.516	0.212	0.160
-417.457	-200.000	-0.019	0.085
-416.442	-200.000	0.011	-0.129
-415.428	-6.401	-0.061	-0.041
-414.413	-200.000	0.054	-0.438
-413.398	-156.333	0.081	0.005
-412.384	84.847	0.387	-0.423
-411.369	15.076	0.257	0.201
-410.355	800.000	-0.020	-0.059
-409.340	-71.426	-0.242	0.090
-408.325	-35.242	0.193	0.105
-407.311	7.472	-0.160	-0.119
-406.296	52.849	-0.269	0.257
-405.282	136.752	-0.048	0.062
-404.267	150.714	0.134	-0.181
-403.252	800.000	-0.031	-0.097
-402.238	800.000	0.018	0.055
-401.223	-118.127	-0.309	-0.055
-400.209	-130.925	-0.133	0.018
-399.194	-112.909	-0.418	0.083
-398.179	-76.527	-0.189	0.066
-397.165	438.705	-0.052	-0.114
-396.150	655.084	-0.034	-0.086
-395.136	-100.124	0.315	-0.078
-394.121	147.983	0.028	0.037
-393.106	11.201	0.283	-0.216
-392.092	247.322	0.119	-0.200
-391.077	236.901	-0.069	0.113
-390.063	800.000	-0.101	-0.443
-389.048	169.184	0.062	-0.089
-388.033	40.629	-0.215	-0.194
-387.019	26.724	0.173	0.144
-386.004	-119.383	0.210	0.036
-384.990	77.158	0.115	0.122
-383.975	209.549	0.119	-0.186
-382.960	-118.273	0.287	0.051
-381.946	-200.000	0.023	-0.243
-380.931	-112.961	-0.162	-0.032
-379.917	224.341	0.306	0.493
-378.902	-173.116	0.150	-0.005
-377.888	-128.585	-0.190	0.027
-376.873	-114.720	0.360	0.069
-375.858	-85.846	0.377	-0.116
-374.844	-119.478	-0.093	-0.016
-373.829	188.673	-0.048	-0.071
-372.815	140.908	-0.327	0.431
-371.800	-14.933	-0.130	0.083
-370.785	19.022	0.283	0.226
-369.771	-200.000	0.013	-0.293
-368.756	800.000	0.055	-0.184
-367.742	-104.180	0.094	0.022
-366.727	-135.659	-0.201	-0.024
-365.712	-18.556	0.072	-0.045
-364.698	-199.151	-0.163	-0.001
-363.683	-200.000	0.208	0.001
-362.669	800.000	0.072	0.233
-361.654	-98.277	0.121	0.031
-360.639	-174.698	0.041	-0.001
-359.625	425.678	0.021	0.045
-358.610	-200.000	-0.005	-0.034
-357.596	-81.439	0.184	0.060
-356.581	-200.000	0.071	-0.417
-355.566	84.808	0.032	-0.035
-354.552	244.136	-0.059	-0.099
-353.537	800.000	-0.043	0.148
-352.523	-91.841	0.383	0.108
-351.508	-108.707	-0.134	-0.029
-350.493	-98.169	0.379	-0.097
-349.479	247.500	0.048	0.080
-348.464	469.844	0.101	-0.225
-347.450	-93.225	0.432	-0.120
-346.435	-14.491	-0.126	-0.081
-345.420	-14.906	0.127	-0.081
-344.406	-200.000	-0.063	-0.485
-343.391	-17.516	0.271	0.170
-342.377	-110.629	0.344	0.071
-341.362	57.479	0.072	0.070
-340.348	800.000	-0.042	-0.155
-339.333	-10.164	0.197	-0.130
-338.318	-54.497	0.158	0.071
-337.304	-82.517	0.383	0.124
-336.289	-200.000	-0.009	-0.254
-335.275	-61.095	0.337	0.142
-334.260	580.400	-0.057	-0.138
-333.245	50.713	0.154	-0.145
-332.231	-200.000	-0.003	0.062
-331.216	-123.808	-0.302	-0.047
-330.202	-200.000	-0.003	-0.197
-329.187	-148.066	-0.314	0.026
-328.172	73.293	-0.213	-0.222
-327.158	-35.666	-0.235	0.127
-326.143	-13.856	0.168	-0.108
-325.129	161.790	-0.150	0.209
-324.114	233.661	-0.063	-0.103
-323.099	-200.000	-0.003	0.107
-322.085	-124.189	0.148	-0.023
-321.070	45.813	-0.032	0.029
-320.056	-116.873	-0.253	-0.046
-319.041	130.518	0.193	0.246
-318.026	133.770	-0.024	-0.031
-317.012	13.089	0.124	0.095
-315.997	-200.000	-0.063	0.392
-314.983	-95.862	-0.240	-0.064
-313.968	42.604	0.281	0.254
-312.953	307.318	-0.066	0.122
-311.939	247.185	0.110	-0.184
-310.924	-21.600	-0.293	-0.178
-309.910	60.169	0.063	-0.062
-308.895	-75.300	-0.046	0.016
-307.880	-96.539	-0.230	0.060
-306.866	-30.715	0.299	0.168
-305.851	-71.130	-0.118	-0.044
-304.837	4.672	-0.220	-0.160
-303.822	-53.928	0.253	-0.115
-302.807	-105.841	-0.314	0.070
-301.793	800.000	-0.051	-0.156
-300.778	-33.372	-0.253	-0.139
-299.764	-200.000	-0.023	0.122
-298.749	-200.000	-0.020	-0.222
-297.735	-44.680	0.177	-0.088
-296.720	133.245	-0.055	-0.071
-295.705	128.808	0.145	-0.184
-294.691	83.220	-0.081	-0.088
-293.676	488.270	0.085	-0.193
-292.662	17.662	0.092	-0.072
-291.647	-200.000	0.035	0.308
-290.632	-200.000	-0.032	-0.223
-289.618	-200.000	0.027	-0.139
-288.603	-119.683	0.032	0.005
-287.589	-200.000	0.016	0.075
-286.574	-25.149	0.300	0.177
-285.559	-200.000	-0.023	-0.191
-284.545	157.589	0.119	-0.163
-283.530	-200.000	0.007	-0.298
-282.516	-72.270	0.223	0.082
-281.501	-21.661	-0.308	-0.186
-280.486	-200.000	0.054	-0.318
-279.472	-82.016	0.272	0.088
-278.457	-111.710	-0.175	0.035
-277.443	-106.351	-0.269	0.060
-276.428	-68.143	-0.038	0.015
-275.413	-200.000	-0.057	0.326
-274.399	800.000	0.023	-0.092
-273.384	-117.676	0.184	0.033
-272.370	156.169	0.066	-0.090
-271.355	800.000	-0.073	0.258
-270.340	16.537	-0.239	0.187
-269.326	152.597	0.191	-0.260
-268.311	-165.236	0.270	0.012
-267.297	-77.054	-0.208	-0.072
-266.282	469.894	0.159	0.354
-265.267	242.833	-0.181	0.301
-264.253	-83.413	0.101	0.032
-263.238	-87.678	0.319	-0.095
-262.224	125.414	-0.204	0.256
-261.209	-200.000	-0.012	0.076
-260.195	19.650	0.040	0.032
-259.180	-200.000	0.024	0.168
-258.165	153.252	-0.183	0.249
-257.151	52.316	-0.255	0.241
-256.136	-132.814	0.112	-0.014
-255.122	-200.000	-0.026	0.154
-254.107	213.572	-0.181	0.284
-253.092	-146.845	0.328	0.028
-252.078	33.484	-0.183	0.158
-251.063	800.000	0.054	0.201
-250.049	-28.180	0.098	0.056
-249.034	-13.081	-0.421	-0.271
-248.019	-0.275	-0.258	0.182
-247.005	-200.000	-0.006	0.369
-245.990	114.341	0.063	-0.076
-244.976	-144.909	-0.326	0.030
-243.961	-200.000	-0.011	0.162
-242.946	-160.799	-0.125	0.007
-241.932	800.000	0.020	0.059
-240.917	-162.735	-0.111	0.005
-239.903	-200.000	-0.023	-0.241
-238.888	-158.521	0.064	-0.004
-237.873	-200.000	-0.058	0.270
-236.859	-159.139	-0.274	0.015
-235.844	-27.673	0.106	0.061
-234.830	-200.000	-0.007	-0.051
-233.815	-19.664	-0.233	-0.143
-232.800	6.513	-0.092	-0.068
-231.786	-200.000	-0.012	0.102
-230.771	220.314	0.092	-0.146
-229.757	-200.000	0.027	0.320
-228.742	-200.000	-0.067	0.328
-227.727	498.182	-0.099	-0.226
-226.713	335.075	0.154	0.295
-225.698	-110.958	-0.195	0.040
-224.684	141.915	-0.150	-0.197
-223.669	800.000	-0.037	-0.128
-222.655	-200.000	0.068	-0.294
-221.640	-93.011	0.118	0.033
-220.625	-141.051	0.171	0.017
-219.611	68.091	-0.191	0.194
-218.596	518.733	-0.057	-0.132
-217.582	-152.693	-0.264	-0.019
-216.567	-53.159	-0.187	-0.085
-215.552	-132.269	0.262	0.034
-214.538	266.899	0.146	0.253
-213.523	-3.490	0.308	-0.212
-212.509	-200.000	0.017	-0.315
-211.494	-6.327	0.228	0.154
-210.479	630.178	0.103	0.259
-209.465	-32.631	0.306	0.169
-208.450	173.497	0.131	-0.187
-207.436	24.113	-0.376	0.307
-206.421	375.655	-0.131	-0.264
-205.406	-183.415	-0.237	-0.004
-204.392	-24.987	-0.123	-0.072
-203.377	3.035	-0.302	0.217
-202.363	-200.000	0.031	0.229
-201.348	-92.130	0.150	-0.042
-200.333	239.578	-0.072	-0.119
-199.319	-200.000	0.018	-0.206
-198.304	16.899	-0.104	-0.082
-197.290	-29.427	-0.231	0.131
-196.275	80.685	0.379	0.404
-195.260	800.000	-0.094	-0.330
-194.246	-200.000	-0.036	-0.401
-193.231	97.961	0.129	0.147
-192.217	-155.652	0.414	0.026
-191.202	248.635	0.151	0.253
-190.187	-200.000	-0.007	-0.095
-189.173	-119.996	0.174	-0.030
-188.158	800.000	-0.031	0.090
-187.144	-200.000	-0.014	0.271
-186.129	14.001	0.202	0.156
-185.114	-95.015	-0.260	0.069
-184.100	-82.632	0.339	0.109
-183.085	-200.000	0.006	-0.163
-182.071	27.971	0.074	0.062
-181.056	-200.000	0.000	0.229
-180.042	800.000	-0.050	-0.158
-179.027	-96.222	0.487	-0.128
-178.012	19.420	0.129	-0.102
-176.998	112.523	0.094	-0.112
-175.983	-117.007	0.133	0.024
-174.969	-200.000	0.001	-0.101
-173.954	128.880	-0.204	-0.257
-172.939	11.797	-0.320	-0.243
-171.925	-164.304	-0.193	0.009
-170.910	162.561	0.115	0.160
-169.896	253.449	-0.109	-0.184
-168.881	309.463	-0.049	0.091
-167.866	29.833	0.294	-0.248
-166.852	-200.000	0.033	-0.238
-165.837	104.994	-0.112	-0.131
-164.823	518.472	-0.200	-0.462
-163.808	-15.885	0.025	-0.016
-162.793	-113.640	0.033	-0.006
-161.779	459.010	0.006	-0.014
-160.764	298.479	0.161	-0.293
-159.750	224.697	0.180	0.288
-158.735	13.459	-0.088	-0.067
-157.720	-140.804	-0.253	-0.026
-156.706	787.971	0.078	0.212
-155.691	-93.348	0.093	0.026
-154.677	800.000	0.067	-0.207
-153.662	-78.875	-0.276	-0.093
-152.647	101.259	0.215	0.247
-151.633	-163.611	-0.254	-0.012
-150.618	152.913	0.254	0.343
-149.604	-200.000	0.030	0.171
-148.589	421.672	0.035	-0.075
-147.574	-149.281	-0.160	0.013
-146.560	-199.853	0.375	0.002
-145.545	-192.300	-0.574	0.005
-144.531	308.302	0.065	-0.120
-143.516	-200.000	0.022	-0.200
-142.502	-51.775	-0.242	0.111
-141.487	-9.555	0.175	0.115
-140.472	-200.000	-0.018	-0.428
-139.458	-11.365	0.159	0.104
-138.443	-79.416	0.273	-0.091
-137.429	145.633	-0.169	0.223
-136.414	-76.342	-0.204	0.071
-135.399	722.077	0.068	0.178
-134.385	40.662	0.200	-0.178
-133.370	-60.005	0.139	-0.058
-132.356	566.522	-0.114	0.273
-131.341	608.195	-0.098	0.242
-130.326	-200.000	0.026	-0.115
-129.312	-116.845	-0.154	0.028
-128.297	-200.000	-0.019	0.166
-127.283	137.134	-0.149	-0.192
-126.268	-45.153	0.173	-0.085
-125.253	371.877	0.112	-0.224
-124.239	-200.000	-0.071	-0.340
-123.224	-152.865	-0.280	-0.020
-122.210	-83.698	0.193	-0.061
-121.195	-200.000	-0.005	0.253
-120.180	-130.574	-0.182	-0.024
-119.166	-169.847	-0.331	0.012
-118.151	537.835	-0.087	-0.203
-117.137	-92.074	0.127	-0.035
-116.122	347.192	0.109	-0.212
-115.107	-200.000	0.014	0.167
-114.093	-153.268	0.044	-0.003
-113.078	-88.010	0.048	-0.014
-112.064	172.776	-0.247	0.350
-111.049	-159.845	-0.159	0.009
-110.034	14.845	0.178	-0.137
-109.020	-13.268	0.226	-0.145
-108.005	269.913	-0.020	0.035
-106.991	-91.096	0.175	-0.049
-105.976	534.964	-0.140	-0.327
-104.962	-102.464	0.145	0.034
-103.947	-200.000	0.021	-0.129
-102.932	-182.511	0.286	-0.005
-101.918	75.214	0.239	0.248
-100.903	153.811	-0.105	0.141
-99.889	541.045	-0.040	0.095
-98.874	-130.502	-0.469	-0.062
-97.859	-200.000	-0.046	-0.235
-96.845	800.000	0.038	-0.148
-95.830	800.000	-0.082	0.259
-94.816	1.787	-0.085	0.060
-93.801	621.846	0.091	0.225
-92.786	-136.271	-0.180	-0.021
-91.772	800.000	0.040	0.152
-90.757	-76.923	0.369	0.127
-89.743	387.749	0.104	0.212
-88.728	-59.203	-0.217	0.092
-87.713	-64.728	0.068	-0.027
-86.699	-38.179	-0.268	-0.140
-85.684	-200.000	0.003	-0.167
-84.670	-130.840	-0.245	0.032
-83.655	-87.867	-0.212	0.063
-82.640	127.157	0.279	0.349
-81.626	-88.376	0.027	-0.008
-80.611	555.375	-0.106	0.252
-79.597	50.611	0.099	0.093
-78.582	-23.120	0.165	-0.098
-77.567	-188.114	0.195	0.002
-76.553	-3.038	0.307	0.211
-75.538	-126.634	0.382	-0.056
-74.524	-107.969	-0.376	-0.080
-73.509	-61.388	-0.139	0.058
-72.494	-200.000	0.061	0.315
-71.480	-95.772	0.225	-0.059
-70.465	90.373	-0.053	0.058
-69.451	-200.000	0.012	0.153
-68.436	36.575	-0.104	0.090
-67.422	93.169	-0.186	0.207
-66.407	-38.886	0.270	0.140
-65.392	-124.416	-0.367	0.056
-64.378	231.195	-0.090	0.145
-63.363	74.811	-0.162	0.168
-62.349	-67.474	-0.428	-0.165
-61.334	21.404	-0.931	-0.745
-60.319	14.083	0.678	0.519
-59.305	421.001	-0.297	-0.626
-58.290	800.000	0.349	0.954
-57.276	333.672	0.760	1.446
-56.261	-200.000	94.837	572.936
-55.246	531.537	1412.276	3286.500
-54.232	154.067	2596.879	3504.461
-53.217	112.319	2183.915	2598.691
-52.203	43.990	1631.182	1470.787
-51.188	35.573	1363.230	1177.802
-50.173	32.298	1321.366	1122.084
-49.159	55.086	1367.149	1299.518
-48.144	57.067	1383.372	1326.867
-47.130	35.906	1343.052	1162.199
-46.115	32.363	1325.881	1126.127
-45.100	32.136	1320.914	1120.510
-44.086	32.066	1318.502	1118.002
-43.071	31.950	1316.534	1115.599
-42.057	31.897	1314.344	1113.388
-41.042	32.031	1311.995	1112.147
-40.027	32.018	1310.900	1111.097
-39.013	32.022	1308.524	1109.064
-37.998	32.004	1306.756	1107.412
-36.984	32.064	1305.475	1106.640
-35.969	32.119	1303.505	1105.247
-34.954	32.158	1302.062	1104.211
-33.940	32.104	1300.619	1102.624
-32.925	32.089	1299.340	1101.406
-31.911	32.181	1297.146	1100.045
-30.896	32.214	1295.763	1099.018
-29.881	32.156	1293.990	1097.135
-28.867	32.197	1292.916	1096.417
-27.852	32.207	1291.393	1095.142
-26.838	32.330	1289.593	1094.291
-25.823	32.165	1288.813	1092.622
-24.809	32.217	1287.672	1091.915
-23.794	32.155	1286.304	1090.353
-22.779	32.039	1285.093	1088.607
-21.765	32.156	1283.761	1088.115
-20.750	32.097	1282.349	1086.537
-19.736	32.129	1280.725	1085.300
-18.721	32.019	1279.999	1084.008
-17.706	32.071	1278.334	1082.854
-16.692	31.995	1277.622	1081.769
-15.677	31.964	1276.201	1080.343
-14.663	32.104	1274.778	1079.901
-13.648	31.852	1274.361	1078.057
-12.633	31.936	1273.007	1077.354
-11.619	31.970	1272.537	1077.108
-10.604	31.928	1271.698	1076.110
-9.590	32.001	1269.680	1074.779
-8.575	31.876	1269.395	1073.782
-7.560	31.892	1268.533	1073.099
-6.546	32.019	1267.588	1072.984
-5.531	31.912	1266.621	1071.512
-4.517	31.951	1265.728	1070.936
-3.502	32.111	1264.722	1070.958
-2.487	31.986	1264.034	1069.619
-1.473	32.085	1259.714	1066.485
-0.458	31.263	1246.064	1050.266
0.556	27.053	1229.904	1017.882
1.571	23.755	1237.031	1005.065
2.586	22.912	1252.068	1012.365
3.600	22.433	1241.110	1000.692
4.615	19.621	1172.737	930.358
5.629	14.740	1102.742	849.972
6.644	12.420	1084.311	824.070
7.659	12.218	1081.734	821.031
8.673	12.145	1080.665	819.779
9.688	12.118	1079.465	818.661
10.702	12.464	1077.604	818.902
11.717	15.478	1081.583	836.900
12.731	19.018	1085.988	857.922
13.746	19.059	1084.636	856.983
14.761	17.717	1082.464	848.513
15.775	16.517	1080.689	841.085
16.790	15.524	1078.352	834.261
17.804	14.732	1076.895	829.128
18.819	14.394	1075.433	826.251
19.834	14.066	1074.086	823.521
20.848	13.921	1073.477	822.265
21.863	13.641	1072.570	820.111
22.877	13.503	1071.792	818.763
23.892	13.379	1071.146	817.583
24.907	13.548	1070.173	817.600
25.921	13.590	1069.128	816.940
26.936	13.614	1067.854	816.010
27.950	13.639	1066.421	814.968
28.965	13.698	1065.042	814.128
29.980	13.647	1063.701	812.785
30.994	13.688	1062.283	811.829
32.009	13.759	1061.567	811.556
33.023	13.688	1060.639	810.427
34.038	13.721	1059.443	809.605
35.053	13.664	1058.697	808.684
36.067	13.568	1057.935	807.561
37.082	13.690	1056.663	807.115
38.096	13.670	1056.159	806.558
39.111	13.638	1055.513	805.839
40.126	13.552	1053.909	804.126
41.140	13.485	1052.962	803.008
42.155	13.510	1051.310	801.797
43.169	13.381	1050.427	800.432
44.184	13.455	1049.635	800.115
45.199	13.390	1048.458	798.832
46.213	13.538	1047.641	798.851
47.228	13.531	1046.192	797.644
48.242	13.541	1045.319	796.955
49.257	13.575	1043.929	795.989
50.271	13.664	1043.107	795.717
51.286	13.609	1042.342	794.798
52.301	13.593	1041.316	793.869
53.315	13.607	1040.231	793.041
54.330	13.518	1039.185	791.748
55.344	13.444	1038.626	790.897
56.359	13.557	1037.502	790.511
57.374	13.578	1036.474	789.760
58.388	13.341	1036.099	788.271
59.403	13.415	1035.110	787.805
60.417	13.481	1033.852	787.090
61.432	13.399	1033.308	786.218
62.447	13.385	1032.419	785.404
63.461	13.412	1031.555	784.804
64.476	13.312	1030.582	783.520
65.490	13.324	1029.380	782.594
66.505	13.446	1028.900	782.738
67.520	13.322	1028.283	781.615
68.534	13.410	1027.698	781.516
69.549	13.506	1027.103	781.445
70.563	13.288	1026.310	779.747
71.578	13.335	1025.355	779.174
72.593	13.276	1024.324	778.042
73.607	13.288	1023.704	777.561
74.622	13.232	1023.446	777.031
75.636	13.224	1022.598	776.280
76.651	13.324	1021.404	775.775
77.666	13.393	1021.051	775.762
78.680	13.279	1020.479	774.727
79.695	13.235	1019.888	774.000
80.709	13.390	1018.730	773.778
81.724	13.469	1018.366	773.803
82.739	13.431	1017.906	773.207
83.753	13.520	1016.994	772.861
84.768	13.702	1015.640	772.613
85.782	13.719	1014.722	771.928
86.797	13.647	1013.975	770.955
87.812	13.574	1013.050	769.846
88.826	13.571	1012.193	769.109
89.841	13.614	1010.840	768.215
90.855	13.659	1010.307	767.950
91.870	13.683	1009.617	767.468
92.884	13.729	1008.605	766.845
93.899	13.724	1007.617	766.004
94.914	13.731	1006.746	765.303
95.928	13.778	1006.035	764.915
96.943	13.837	1005.019	764.343
97.957	13.714	1004.458	763.284
98.972	13.638	1003.347	762.024
99.987	13.703	1002.629	761.706
101.001	13.731	1001.601	760.987
102.016	13.603	1000.582	759.561
103.030	13.551	1000.121	758.905
104.045	13.712	999.325	758.970
105.060	13.594	998.483	757.722
106.074	13.472	997.826	756.601
107.089	13.542	996.459	755.816
108.103	13.489	995.022	754.419
109.118	13.500	994.273	753.834
110.133	13.476	993.457	753.040
111.147	13.516	992.549	752.465
112.162	13.533	991.930	752.009
113.176	13.641	991.021	751.740
114.191	13.444	990.737	750.568
115.206	13.530	989.726	750.124
116.220	13.544	988.779	749.403
117.235	13.513	987.948	748.569
118.249	13.493	986.977	747.677
119.264	13.559	986.420	747.485
120.279	13.496	985.497	746.435
121.293	13.464	984.815	745.707
122.308	13.390	984.392	744.987
123.322	13.445	982.869	744.019
124.337	13.379	982.262	743.195
125.352	13.501	980.678	742.478
126.366	13.521	979.206	741.390
127.381	13.446	978.664	740.577
128.395	13.612	977.407	740.301
129.410	13.641	976.672	739.807
130.424	13.582	975.986	738.959
131.439	13.645	975.328	738.679
132.454	13.596	974.539	737.798
133.468	13.694	973.687	737.520
134.483	13.688	972.751	736.721
135.497	13.605	971.934	735.667
136.512	13.661	971.292	735.364
137.527	13.596	970.803	734.642
138.541	13.593	969.931	733.903
139.556	13.575	969.399	733.359
140.570	13.755	968.333	733.283
141.585	13.756	967.956	732.935
142.600	13.819	966.627	732.145
143.614	13.895	965.666	731.684
144.629	13.895	965.180	731.250
145.643	13.893	964.059	730.327
146.658	13.779	962.868	728.863
147.673	13.729	962.250	728.109
148.687	13.647	961.494	727.112
149.702	13.649	960.442	726.264
150.716	13.698	959.597	725.776
151.731	13.852	959.023	725.950
152.746	13.736	958.507	724.989
153.760	13.761	957.385	724.183
154.775	13.797	956.880	723.896
155.789	13.809	956.225	723.387
156.804	13.729	955.927	722.748
157.819	13.844	955.293	722.705
158.833	13.881	954.559	722.250
159.848	13.866	953.854	721.586
160.862	13.816	952.729	720.454
161.877	13.886	951.650	719.876
162.892	13.843	950.807	718.989
163.906	13.749	949.785	717.747
164.921	13.799	948.793	717.152
165.935	13.895	947.596	716.595
166.950	13.796	947.144	715.763
167.964	13.961	946.004	715.549
168.979	13.827	945.379	714.438
169.994	13.855	944.581	713.892
171.008	13.882	943.693	713.275
172.023	13.911	943.324	713.055
173.037	14.020	942.436	712.789
174.052	13.968	941.720	711.960
175.067	13.844	941.245	711.007
176.081	13.829	940.744	710.501
177.096	13.894	940.176	710.287
178.110	14.081	939.475	710.495
179.125	13.917	939.223	709.540
180.140	13.983	938.714	709.375
181.154	14.065	938.346	709.386
182.169	14.019	937.754	708.678
183.183	14.186	936.776	708.586
184.198	14.246	935.860	708.089
185.213	14.130	935.382	707.171
186.227	14.090	934.879	706.557
187.242	14.176	934.296	706.421
188.256	14.238	933.459	705.988
189.271	14.233	932.562	705.227
190.286	14.044	931.884	703.848
191.300	14.100	931.179	703.491
192.315	13.920	930.446	702.117
193.329	13.988	930.300	702.229
194.344	13.927	929.378	701.214
195.359	14.119	928.603	701.376
196.373	14.087	928.355	700.993
197.388	14.259	928.019	701.402
198.402	14.419	927.014	701.256
199.417	14.335	926.894	700.746
200.432	14.479	925.724	700.404
201.446	14.502	925.633	700.370
202.461	14.469	925.166	699.817
203.475	14.399	924.857	699.227
204.490	14.471	923.484	698.432
205.504	14.325	922.949	697.351
206.519	14.461	921.909	697.076
207.534	14.428	921.360	696.460
208.548	14.461	920.567	695.934
209.563	14.354	920.203	695.154
210.577	14.371	919.870	694.909
211.592	14.613	918.745	695.006
212.607	14.549	918.132	694.217
213.621	14.544	917.518	693.670
214.636	14.559	916.772	693.104
215.650	14.527	915.838	692.207
216.665	14.695	915.141	692.315
217.680	14.681	914.257	691.528
218.694	14.651	913.765	690.969
219.709	14.580	913.270	690.241
220.723	14.563	912.734	689.701
221.738	14.699	911.702	689.422
222.753	14.665	911.418	689.010
223.767	14.715	910.924	688.778
224.782	14.695	910.309	688.172
225.796	14.786	910.175	688.385
226.811	14.674	909.053	687.012
227.826	14.742	908.481	686.800
228.840	14.770	907.482	686.098
229.855	14.709	906.768	685.250
230.869	14.841	905.695	684.918
231.884	14.760	905.196	684.147
232.899	14.699	904.544	683.346
233.913	14.696	904.133	682.961
234.928	14.642	903.640	682.308
235.942	14.626	902.558	681.365
236.957	14.748	902.227	681.554
237.972	14.785	901.093	680.788
238.986	14.716	900.793	680.219
240.001	14.744	900.483	680.039
241.015	14.678	899.781	679.181
242.030	14.903	899.169	679.572
243.045	14.767	898.590	678.522
244.059	14.797	898.227	678.311
245.074	14.977	896.962	678.026
246.088	14.961	896.439	677.505
247.103	14.996	895.867	677.154
248.117	15.009	895.475	676.849
249.132	15.090	894.956	676.727
250.147	15.068	894.430	676.179
251.161	15.119	893.876	675.906
252.176	15.262	893.053	675.799
253.190	15.262	892.244	675.130
254.205	15.269	891.624	674.630
255.220	15.246	890.956	673.971
256.234	15.146	890.463	673.136
257.249	15.329	889.627	673.181
258.263	15.189	889.192	672.227
259.278	15.291	888.323	671.919
260.293	15.340	887.519	671.449
261.307	15.442	887.204	671.561
262.322	15.461	886.353	670.931
263.336	15.426	885.728	670.260
264.351	15.459	884.855	669.673
265.366	15.509	884.513	669.554
266.380	15.533	884.123	669.296
267.395	15.460	883.434	668.424
268.409	15.431	882.125	667.257
269.424	15.529	881.274	666.944
270.439	15.330	881.401	666.192
271.453	15.379	880.332	665.518
272.468	15.469	879.753	665.378
273.482	15.497	878.793	664.705
274.497	15.426	878.154	663.883
275.512	15.363	878.387	663.751
276.526	15.540	877.291	663.564
277.541	15.612	876.640	663.295
278.555	15.598	876.405	663.002
279.570	15.755	875.580	662.940
280.585	15.750	874.676	662.177
281.599	15.700	874.043	661.442
282.614	15.528	873.551	660.337
283.628	15.710	872.643	660.304
284.643	15.683	872.051	659.693
285.657	15.629	871.438	658.959
286.672	15.799	870.943	659.193
287.687	15.743	870.566	658.628
288.701	15.706	869.872	657.902
289.716	15.774	869.115	657.537
290.730	15.801	868.736	657.298
291.745	15.899	867.924	657.009
292.760	15.915	867.233	656.489
293.774	15.864	867.058	656.099
294.789	15.843	866.385	655.451
295.803	15.771	865.459	654.410
296.818	15.834	864.781	654.084
297.833	15.837	864.298	653.675
298.847	15.782	863.736	652.978
299.862	15.798	862.998	652.425
300.876	15.828	862.363	652.003
301.891	15.877	862.083	651.923
302.906	16.043	861.185	651.829
303.920	16.064	860.629	651.432
304.935	16.239	860.041	651.606
305.949	16.035	859.459	650.316
306.964	16.124	858.851	650.144
307.979	15.978	858.804	649.486
308.993	16.129	858.130	649.503
310.008	16.100	857.249	648.665
311.022	16.148	856.720	648.392
312.037	16.061	856.576	647.894
313.052	16.078	855.859	647.359
314.066	16.118	854.764	646.625
315.081	16.128	854.614	646.492
316.095	16.038	853.842	645.506
317.110	16.120	853.078	645.185
318.125	16.148	852.821	645.043
319.139	16.124	852.507	644.655
320.154	16.143	852.029	644.311
321.168	16.175	851.339	643.855
322.183	16.217	850.684	643.461
323.197	16.055	850.558	642.693
324.212	16.140	850.111	642.622
325.227	16.091	849.125	641.633
326.241	16.204	848.577	641.592
327.256	16.087	848.293	640.875
328.270	16.288	847.563	641.028
329.285	16.200	847.053	640.253
330.300	16.094	846.377	639.286
331.314	16.168	846.006	639.226
332.329	16.322	845.352	639.261
333.343	16.412	844.700	639.052
334.358	16.339	844.421	638.507
335.373	16.326	844.137	638.186
336.387	16.326	843.785	637.864
337.402	16.435	843.433	637.952
338.416	16.498	843.134	637.906
339.431	16.391	842.778	637.179
340.446	16.415	842.142	636.733
341.460	16.512	842.200	637.086
342.475	16.520	841.481	636.514
343.489	16.691	840.734	636.537
344.504	16.568	840.408	635.772
345.519	16.640	839.835	635.552
346.533	16.715	839.488	635.514
347.548	16.569	839.069	634.593
348.562	16.651	838.258	634.231
349.577	16.715	837.336	633.717
350.592	16.606	837.040	633.027
351.606	16.475	836.592	632.145
352.621	16.631	835.652	631.961
353.635	16.633	834.989	631.410
354.650	16.593	834.969	631.189
355.665	16.597	834.155	630.534
356.679	16.532	833.537	629.771
357.694	16.788	832.948	630.222
358.708	16.772	831.697	629.158
359.723	16.845	831.356	629.117
360.738	16.697	831.110	628.327
361.752	16.657	830.459	627.629
362.767	16.795	829.669	627.487
363.781	16.879	829.293	627.458
364.796	16.890	828.931	627.171
365.810	17.017	828.606	627.339
366.825	16.964	828.000	626.628
367.840	16.963	827.671	626.322
368.854	17.041	826.941	626.000
369.869	17.010	826.506	625.500
370.883	16.976	826.475	625.296
371.898	17.044	825.938	625.085
372.913	17.002	825.341	624.423
373.927	16.981	825.018	624.047
374.942	17.090	824.766	624.203
375.956	17.068	824.352	623.753
376.971	17.248	823.328	623.584
377.986	17.246	823.266	623.475
379.000	17.273	822.664	623.060
380.015	17.234	822.060	622.408
381.029	17.330	821.574	622.334
382.044	17.377	820.757	621.833
383.059	17.221	820.826	621.260
384.073	17.260	820.010	620.730
385.088	17.266	818.831	619.805
386.102	17.266	818.636	619.602
387.117	17.172	818.315	618.963
388.132	17.321	817.492	618.827
389.146	17.246	817.071	618.181
390.161	17.310	816.726	618.096
391.175	17.495	816.039	618.196
392.190	17.275	815.730	617.107
393.205	17.479	815.258	617.435
394.219	17.249	814.781	616.184
395.234	17.321	814.233	615.978
396.248	17.265	813.946	615.504
397.263	17.145	813.780	614.888
398.278	17.190	813.439	614.739
399.292	17.277	812.919	614.608
400.307	17.239	812.381	614.009
401.321	17.127	812.192	613.407
402.336	17.346	811.492	613.615
403.350	17.389	810.978	613.324
404.365	17.373	810.334	612.728
405.380	17.463	810.177	612.877
406.394	17.485	809.599	612.466
407.409	17.512	808.978	612.040
408.423	17.673	808.842	612.460
409.438	17.771	808.438	612.453
410.453	17.676	808.033	611.752
411.467	17.685	807.436	611.276
412.482	17.750	806.984	611.115
413.496	17.637	806.793	610.508
414.511	17.776	806.495	610.727
415.526	17.829	806.045	610.523
416.540	17.784	805.408	609.825
417.555	17.766	805.121	609.490
418.569	17.782	804.615	609.110
419.584	17.661	804.062	608.204
420.599	17.775	803.759	608.329
421.613	107.344	1288.107	1456.471
422.628	92.440	1358.667	1456.582
