DTS Sentinel unit serial number:	SN413079Multiplexer serial number:	ORYXHardware model number:	OX4-SRSoftware version number:	ORYX F/W v4.00 Oryx Data Collector v3.7.2.0data status	okinstallation	princeton_trtdifferential loss correction	single-endedforward channel	channel 1reverse channel	N/Adate	2019/09/19time	15:46:35forward acquisition time	60.00reverse acquisition time	0.00gamma	496.2192k internal	0.2305k external	0.2305temperature offset calibration	1.0028default loss term (dB/km)	0.3790temperature slope calibration	1.0000multiplexer offset coefficient	1.0000multiplexer slope coefficient	1.0000fibre end	0.00T internal ref (°C)	34.86T ext. ref 1 (°C)	1.20T ext. ref 2 (°C)	33.43length (m)	temperature (°C)	Stokes	anti-Stokes-747.200	191.027	-0.218	0.335
-746.185	262.155	-0.016	0.028
-745.171	-68.646	-0.277	-0.109
-744.156	-190.297	-0.178	-0.002
-743.142	-189.199	0.233	0.003
-742.127	800.000	0.075	0.270
-741.112	62.166	0.155	-0.157
-740.098	172.886	0.166	0.244
-739.083	-81.839	0.069	0.023
-738.069	800.000	-0.052	0.161
-737.054	-171.909	0.282	-0.009
-736.039	30.283	-0.106	0.092
-735.025	-57.937	0.338	-0.150
-734.010	212.639	-0.079	-0.128
-732.996	767.419	-0.110	-0.304
-731.981	263.512	-0.169	-0.298
-730.966	-200.000	-0.018	-0.232
-729.952	-98.259	0.104	-0.027
-728.937	99.866	0.107	-0.126
-727.923	-5.785	-0.306	-0.213
-726.908	800.000	-0.029	0.117
-725.894	-25.790	0.212	-0.127
-724.879	-200.000	0.003	0.054
-723.864	800.000	-0.052	-0.211
-722.850	-200.000	0.015	-0.084
-721.835	-87.106	-0.111	0.034
-720.821	44.752	-0.193	-0.180
-719.806	-200.000	0.002	-0.125
-718.791	-95.253	0.352	0.096
-717.777	165.105	-0.185	-0.265
-716.762	34.999	-0.215	0.191
-715.748	-38.007	-0.076	0.041
-714.733	-87.144	0.195	0.060
-713.718	129.230	0.080	0.104
-712.704	-46.490	-0.254	0.127
-711.689	68.859	0.074	0.078
-710.675	187.411	-0.038	0.058
-709.660	-10.923	0.232	0.156
-708.645	-146.840	0.086	0.008
-707.631	-38.991	0.200	-0.107
-706.616	-28.950	-0.321	0.187
-705.602	800.000	-0.122	0.405
-704.587	-153.337	0.134	-0.009
-703.572	-200.000	-0.023	-0.255
-702.558	316.426	-0.027	0.052
-701.543	-110.382	-0.218	-0.046
-700.529	-63.526	0.059	0.025
-699.514	-111.209	0.145	-0.030
-698.499	-144.305	0.127	-0.012
-697.485	228.811	-0.099	0.163
-696.470	-79.061	-0.237	0.082
-695.456	197.517	0.121	-0.188
-694.441	33.142	-0.189	0.167
-693.426	52.737	0.235	-0.228
-692.412	-200.000	0.011	-0.181
-691.397	341.579	0.140	-0.277
-690.383	-200.000	-0.079	-0.521
-689.368	-200.000	-0.082	-0.678
-688.354	-71.761	0.220	-0.083
-687.339	-82.136	-0.086	0.028
-686.324	-200.000	0.001	-0.111
-685.310	0.506	0.065	-0.047
-684.295	-131.450	0.061	0.008
-683.281	800.000	-0.052	0.203
-682.266	-51.418	-0.213	0.101
-681.251	-68.268	0.350	0.138
-680.237	-19.365	-0.233	0.147
-679.222	-7.232	0.265	-0.183
-678.208	431.170	-0.042	0.092
-677.193	-106.277	-0.144	-0.033
-676.178	-43.735	-0.241	0.123
-675.164	800.000	0.121	-0.427
-674.149	-130.705	0.191	0.026
-673.135	-150.468	-0.390	-0.030
-672.120	581.939	-0.057	-0.142
-671.105	-72.376	-0.177	0.067
-670.091	800.000	-0.055	-0.210
-669.076	101.737	-0.112	-0.133
-668.062	-50.304	-0.270	0.129
-667.047	-57.013	-0.177	-0.079
-666.032	-37.187	-0.239	-0.130
-665.018	-200.000	0.057	-0.299
-664.003	800.000	0.052	0.223
-662.989	155.512	0.099	-0.138
-661.974	315.771	-0.034	-0.065
-660.959	-137.231	-0.058	-0.007
-659.945	-151.750	0.314	0.023
-658.930	65.985	0.291	-0.300
-657.916	-200.000	0.006	-0.186
-656.901	38.321	-0.115	0.104
-655.886	293.792	-0.121	0.225
-654.872	17.312	0.074	-0.060
-653.857	100.225	0.116	-0.136
-652.843	-180.831	0.127	0.003
-651.828	800.000	0.094	-0.360
-650.814	800.000	0.075	0.292
-649.799	186.610	-0.092	0.139
-648.784	46.036	0.235	-0.221
-647.770	-102.351	-0.168	0.041
-646.755	-81.950	-0.252	-0.084
-645.741	120.580	-0.253	0.319
-644.726	-200.000	0.000	-0.171
-643.711	-2.524	0.258	0.183
-642.697	-107.092	0.054	0.012
-641.682	-90.350	0.224	0.066
-640.668	-108.999	0.318	-0.069
-639.653	65.792	-0.169	-0.174
-638.638	-93.554	0.191	0.054
-637.624	-23.247	-0.099	0.060
-636.609	281.100	-0.144	0.261
-635.595	-103.984	0.079	0.019
-634.580	-35.853	-0.477	-0.262
-633.565	-172.474	-0.213	0.007
-632.551	736.196	-0.101	0.275
-631.536	-97.600	-0.222	0.058
-630.522	800.000	-0.073	0.255
-629.507	-61.808	-0.186	0.079
-628.492	-57.152	0.271	-0.121
-627.478	-88.664	0.037	-0.011
-626.463	205.687	-0.193	-0.304
-625.449	177.364	-0.129	-0.190
-624.434	2.604	-0.239	-0.176
-623.419	-9.597	-0.024	0.016
-622.405	-65.252	0.197	-0.080
-621.390	-126.958	-0.285	-0.042
-620.376	-200.000	0.014	0.282
-619.361	147.685	-0.054	0.074
-618.346	255.675	0.150	0.260
-617.332	47.766	0.169	0.160
-616.317	13.129	-0.133	-0.105
-615.303	-114.683	-0.160	-0.031
-614.288	-58.699	0.208	0.091
-613.273	-118.269	-0.079	0.014
-612.259	-200.000	0.006	0.079
-611.244	800.000	0.116	-0.438
-610.230	-75.190	-0.507	-0.183
-609.215	302.777	0.147	-0.275
-608.201	800.000	-0.060	-0.182
-607.186	-200.000	0.022	-0.141
-606.171	-64.290	0.220	0.091
-605.157	115.152	-0.150	-0.185
-604.142	220.220	-0.086	0.140
-603.128	-12.787	-0.060	0.040
-602.113	-200.000	0.008	0.044
-601.098	-200.000	0.042	-0.235
-600.084	-119.538	-0.435	-0.076
-599.069	54.109	-0.245	-0.239
-598.055	24.006	-0.140	0.117
-597.040	227.694	-0.028	0.045
-596.025	-48.182	0.076	-0.037
-595.011	-200.000	0.040	-0.267
-593.996	23.422	0.278	-0.231
-592.982	800.000	-0.078	0.263
-591.967	-66.181	-0.162	-0.065
-590.952	-105.738	0.077	0.018
-589.938	-57.402	0.264	0.117
-588.923	-68.252	0.128	-0.050
-587.909	547.729	-0.098	0.238
-586.894	-20.538	0.240	0.149
-585.879	-81.010	-0.041	0.014
-584.865	163.236	-0.123	-0.174
-583.850	-126.739	-0.203	0.030
-582.836	-168.061	-0.324	-0.013
-581.821	-200.000	0.026	-0.303
-580.806	-200.000	0.040	-0.192
-579.792	-129.300	-0.213	0.030
-578.777	-70.110	-0.286	0.110
-577.763	-200.000	-0.036	-0.234
-576.748	390.896	-0.023	0.048
-575.733	-161.748	0.258	-0.013
-574.719	-122.463	0.467	0.077
-573.704	282.629	0.162	-0.294
-572.690	191.704	-0.367	-0.559
-571.675	119.990	0.083	0.104
-570.661	9.827	-0.121	-0.093
-569.646	800.000	-0.149	-0.441
-568.631	13.126	0.168	0.132
-567.617	-139.857	-0.331	-0.035
-566.602	179.953	-0.094	-0.139
-565.588	-128.657	-0.380	-0.054
-564.573	-92.208	-0.080	0.023
-563.558	-57.156	-0.238	-0.106
-562.544	-200.000	0.024	-0.136
-561.529	-110.339	-0.250	-0.053
-560.515	800.000	0.071	0.313
-559.500	-200.000	-0.041	-0.196
-558.485	334.619	-0.123	0.241
-557.471	46.061	0.131	-0.123
-556.456	800.000	-0.098	-0.395
-555.442	800.000	0.109	-0.305
-554.427	399.829	0.117	-0.248
-553.412	297.136	-0.092	-0.171
-552.398	382.757	0.049	0.103
-551.383	-173.459	-0.396	-0.012
-550.369	-57.381	0.320	-0.142
-549.354	506.909	-0.052	0.122
-548.339	-136.678	-0.224	0.026
-547.325	800.000	-0.103	0.299
-546.310	90.333	-0.020	-0.022
-545.296	272.492	-0.078	-0.139
-544.281	70.963	0.221	0.231
-543.266	-200.000	-0.011	0.161
-542.252	243.646	0.090	0.152
-541.237	800.000	-0.081	0.299
-540.223	179.048	-0.268	0.396
-539.208	373.143	0.152	-0.312
-538.193	800.000	-0.035	-0.148
-537.179	-44.480	0.193	-0.098
-536.164	-125.605	-0.331	-0.051
-535.150	17.193	0.136	0.109
-534.135	81.469	0.121	-0.133
-533.121	800.000	-0.053	-0.202
-532.106	491.682	-0.060	0.138
-531.091	-112.872	-0.393	0.079
-530.077	-70.547	0.101	0.038
-529.062	-200.000	-0.064	0.349
-528.048	209.243	0.147	0.233
-527.033	127.308	0.309	0.396
-526.018	-200.000	0.012	0.224
-525.004	4.299	-0.449	0.332
-523.989	184.165	0.017	-0.026
-522.975	-200.000	-0.004	-0.224
-521.960	258.740	-0.131	-0.228
-520.945	59.076	-0.222	0.220
-519.931	-91.358	-0.103	0.030
-518.916	800.000	-0.069	-0.208
-517.902	68.596	0.093	-0.096
-516.887	-5.624	0.230	-0.159
-515.872	415.254	0.115	-0.247
-514.858	18.468	0.148	0.119
-513.843	280.528	0.046	-0.084
-512.829	-79.886	0.131	0.044
-511.814	95.461	-0.162	0.187
-510.799	133.012	0.081	0.105
-509.785	228.480	0.023	-0.037
-508.770	800.000	-0.094	-0.288
-507.756	23.491	-0.169	-0.140
-506.741	58.123	-0.220	0.217
-505.726	-200.000	-0.023	0.147
-504.712	3.938	-0.057	0.042
-503.697	94.492	-0.147	-0.168
-502.683	-200.000	-0.010	-0.093
-501.668	-43.389	-0.194	0.099
-500.653	8.405	-0.066	-0.050
-499.639	-145.606	-0.206	0.019
-498.624	-20.220	0.006	0.004
-497.610	-200.000	0.038	-0.234
-496.595	-1.702	-0.223	-0.158
-495.581	800.000	-0.068	0.292
-494.566	148.473	0.109	0.148
-493.551	311.671	-0.169	-0.319
-492.537	80.973	0.369	-0.401
-491.522	-114.672	-0.128	0.025
-490.508	-112.838	0.133	0.027
-489.493	-200.000	0.005	0.075
-488.478	55.802	-0.114	0.112
-487.464	-78.698	-0.129	0.045
-486.449	105.363	0.226	0.269
-485.435	112.159	-0.089	-0.109
-484.420	363.160	-0.048	0.097
-483.405	-178.895	0.163	-0.004
-482.391	-200.000	-0.008	0.335
-481.376	3.458	-0.153	0.112
-480.362	-162.449	-0.124	0.006
-479.347	-200.000	-0.024	-0.150
-478.332	-200.000	-0.013	0.092
-477.318	9.332	-0.120	0.092
-476.303	-128.847	-0.045	-0.006
-475.289	-48.311	-0.195	0.095
-474.274	800.000	-0.060	-0.216
-473.259	800.000	0.046	0.161
-472.245	-107.757	0.203	0.045
-471.230	-24.510	0.332	0.199
-470.216	-11.980	-0.052	0.034
-469.201	-9.072	0.170	-0.115
-468.186	-144.438	-0.115	-0.011
-467.172	44.738	0.207	-0.192
-466.157	166.945	0.100	-0.142
-465.143	7.638	-0.122	0.092
-464.128	-3.960	0.074	-0.052
-463.113	800.000	-0.111	-0.317
-462.099	800.000	0.036	0.141
-461.084	-34.124	-0.059	0.033
-460.070	13.178	0.219	0.171
-459.055	655.919	0.038	-0.098
-458.040	-200.000	-0.009	-0.047
-457.026	800.000	-0.077	0.266
-456.011	-185.425	-0.324	0.005
-454.997	800.000	-0.015	0.053
-453.982	247.231	0.072	-0.122
-452.968	77.922	0.118	-0.127
-451.953	46.734	-0.316	-0.295
-450.938	35.791	0.318	-0.281
-449.924	780.998	0.075	0.206
-448.909	23.370	0.116	-0.096
-447.895	800.000	-0.089	0.269
-446.880	513.120	0.130	-0.305
-445.865	148.882	0.291	-0.396
-444.851	-44.674	0.251	-0.126
-443.836	107.600	0.257	-0.308
-442.822	-110.706	-0.131	0.027
-441.807	107.062	-0.198	-0.237
-440.792	472.291	-0.110	-0.249
-439.778	3.214	0.096	0.070
-438.763	-79.816	0.155	0.052
-437.749	102.683	0.238	0.281
-436.734	-0.210	0.268	-0.192
-435.719	-44.429	-0.210	-0.106
-434.705	-200.000	0.013	-0.097
-433.690	275.927	0.134	-0.238
-432.676	-73.389	0.168	-0.062
-431.661	800.000	-0.090	0.274
-430.646	800.000	0.050	0.212
-429.632	-163.993	0.160	-0.007
-428.617	70.918	0.046	0.048
-427.603	-23.350	0.142	-0.086
-426.588	-131.926	0.242	-0.032
-425.573	800.000	0.085	-0.245
-424.559	313.531	-0.059	0.112
-423.544	800.000	-0.023	-0.069
-422.530	-72.329	-0.128	-0.047
-421.515	80.461	-0.173	0.188
-420.500	272.479	0.032	0.056
-419.486	-76.497	-0.270	-0.095
-418.471	-46.609	0.152	-0.075
-417.457	106.716	-0.139	-0.166
-416.442	-155.048	-0.117	-0.008
-415.428	131.928	0.199	-0.258
-414.413	800.000	-0.075	0.278
-413.398	22.540	0.171	0.141
-412.384	86.189	-0.180	-0.199
-411.369	337.187	-0.128	0.251
-410.355	-200.000	-0.004	-0.255
-409.340	-107.920	0.089	-0.020
-408.325	-200.000	0.047	0.270
-407.311	85.253	-0.187	-0.206
-406.296	163.226	-0.199	0.282
-405.282	291.984	0.160	-0.292
-404.267	-61.371	0.442	0.187
-403.252	191.144	-0.174	-0.264
-402.238	-33.828	-0.281	0.156
-401.223	2.158	0.107	0.078
-400.209	-200.000	-0.030	0.371
-399.194	108.409	-0.028	-0.033
-398.179	31.727	0.122	0.106
-397.165	800.000	-0.082	0.350
-396.150	800.000	-0.029	0.115
-395.136	22.146	-0.164	0.135
-394.121	337.795	-0.046	0.090
-393.106	800.000	0.045	-0.144
-392.092	-95.991	-0.367	-0.098
-391.077	-148.619	0.159	-0.013
-390.063	-33.687	0.062	-0.034
-389.048	266.433	-0.074	-0.130
-388.033	-200.000	0.055	-0.339
-387.019	-15.001	0.158	0.101
-386.004	-91.111	-0.338	0.097
-384.990	-177.668	-0.150	0.004
-383.975	234.933	0.040	0.066
-382.960	-2.300	-0.206	0.145
-381.946	-135.769	0.080	-0.009
-380.931	11.242	0.067	0.052
-379.917	-200.000	0.009	-0.100
-378.902	161.993	0.240	-0.338
-377.888	-128.978	0.326	-0.046
-376.873	-50.922	-0.306	0.144
-375.858	-99.307	-0.072	-0.018
-374.844	260.324	0.094	-0.163
-373.829	-64.909	-0.054	-0.022
-372.815	15.342	0.111	0.087
-371.800	641.654	-0.132	-0.336
-370.785	-99.609	-0.005	-0.001
-369.771	-115.787	-0.157	0.029
-368.756	-200.000	0.046	0.297
-367.742	-175.436	0.033	0.001
-366.727	-37.693	-0.121	0.065
-365.712	174.032	0.183	-0.265
-364.698	-9.178	-0.377	0.253
-363.683	-103.793	0.109	0.026
-362.669	-92.563	0.192	-0.054
-361.654	-61.346	0.089	-0.037
-360.639	-200.000	0.034	0.175
-359.625	373.787	0.062	0.126
-358.610	-22.385	0.128	0.078
-357.596	79.817	-0.211	0.227
-356.581	281.952	-0.015	-0.027
-355.566	174.802	-0.054	-0.078
-354.552	512.286	0.031	-0.073
-353.537	-200.000	-0.003	-0.064
-352.523	250.702	-0.201	-0.342
-351.508	-2.181	-0.306	-0.215
-350.493	79.090	0.155	0.167
-349.479	111.154	0.049	0.060
-348.464	-196.402	-0.121	0.001
-347.450	9.333	0.156	0.118
-346.435	129.613	-0.214	0.274
-345.420	17.820	0.409	0.326
-344.406	-115.988	0.143	0.027
-343.391	114.755	-0.176	0.214
-342.377	120.430	0.108	0.135
-341.362	-182.024	-0.321	-0.006
-340.348	-19.315	0.235	0.146
-339.333	-95.174	0.116	-0.031
-338.318	-130.703	-0.477	-0.064
-337.304	100.931	-0.058	0.067
-336.289	499.102	-0.081	-0.186
-335.275	221.000	-0.000	0.000
-334.260	321.462	-0.030	-0.058
-333.245	-0.856	0.128	-0.091
-332.231	-134.615	-0.196	0.024
-331.216	195.911	0.153	0.234
-330.202	-60.621	0.331	0.141
-329.187	162.238	-0.095	0.134
-328.172	-128.507	0.112	0.016
-327.158	-26.366	-0.217	0.127
-326.143	54.171	-0.101	0.097
-325.129	-103.332	0.527	-0.125
-324.114	25.267	0.087	-0.072
-323.099	-1.210	0.326	-0.231
-322.085	211.198	-0.134	0.211
-321.070	780.984	0.105	0.286
-320.056	-111.357	0.256	-0.052
-319.041	99.061	-0.163	-0.189
-318.026	-70.585	0.147	-0.056
-317.012	-29.775	0.142	-0.081
-315.997	86.944	0.147	-0.163
-314.983	162.396	-0.194	0.272
-313.968	-120.776	0.252	0.043
-312.953	208.678	0.094	0.148
-311.939	-200.000	0.015	0.261
-310.924	258.465	0.113	0.195
-309.910	-200.000	0.014	0.284
-308.895	-35.608	-0.229	0.124
-307.880	-3.797	-0.213	0.148
-306.866	-84.926	-0.263	-0.083
-305.851	349.350	-0.068	0.134
-304.837	800.000	0.045	0.190
-303.822	-113.095	0.340	0.067
-302.807	-52.034	-0.197	-0.092
-301.793	-70.219	0.131	-0.050
-300.778	-200.000	0.047	0.285
-299.764	-200.000	0.020	0.087
-298.749	-122.915	-0.211	-0.034
-297.735	123.700	-0.082	0.103
-296.720	49.204	0.248	0.233
-295.705	800.000	0.131	0.436
-294.691	-62.381	-0.268	0.111
-293.676	800.000	0.048	-0.154
-292.662	-200.000	-0.041	0.199
-291.647	-106.919	0.272	-0.060
-290.632	127.255	0.078	-0.099
-289.618	313.025	-0.035	0.065
-288.603	354.047	-0.240	-0.476
-287.589	-200.000	-0.030	-0.372
-286.574	22.448	0.101	0.083
-285.559	-64.657	0.065	0.026
-284.545	748.910	0.190	0.513
-283.530	-141.697	-0.209	-0.021
-282.516	-111.367	0.037	0.008
-281.501	-105.107	-0.324	0.074
-280.486	-72.907	0.185	0.068
-279.472	33.815	0.341	-0.296
-278.457	248.776	0.020	-0.034
-277.443	61.191	0.203	0.201
-276.428	-120.791	0.467	-0.079
-275.413	-200.000	0.039	-0.265
-274.399	130.030	0.087	0.111
-273.384	-6.824	0.264	-0.180
-272.370	-77.616	0.132	0.046
-271.355	-21.961	0.261	-0.159
-270.340	-200.000	-0.039	0.220
-269.326	193.241	-0.069	0.105
-268.311	-190.243	0.135	0.001
-267.297	522.182	-0.083	-0.194
-266.282	-64.717	0.190	-0.077
-265.267	-59.179	0.254	0.109
-264.253	-80.128	0.139	-0.046
-263.238	55.481	0.139	0.134
-262.224	-66.214	0.305	0.121
-261.209	-130.150	-0.106	-0.014
-260.195	-27.043	-0.374	0.218
-259.180	-200.000	0.012	-0.146
-258.165	800.000	0.071	0.204
-257.151	25.102	0.299	-0.248
-256.136	-80.695	0.440	0.146
-255.122	-56.471	-0.343	-0.152
-254.107	199.959	0.051	0.079
-253.092	71.945	0.161	-0.167
-252.078	-200.000	0.037	-0.548
-251.063	-7.478	-0.013	-0.009
-250.049	-200.000	-0.030	0.163
-249.034	111.555	-0.031	0.038
-248.019	228.389	0.198	-0.322
-247.005	-45.075	0.275	-0.137
-245.990	-50.947	-0.111	0.052
-244.976	-44.161	-0.067	0.033
-243.961	-200.000	0.015	-0.188
-242.946	14.329	0.099	0.077
-241.932	105.985	-0.186	0.220
-240.917	85.664	-0.262	0.288
-239.903	131.730	0.044	0.057
-238.888	-38.099	-0.201	0.106
-237.873	304.855	-0.132	-0.244
-236.859	31.333	-0.414	-0.355
-235.844	-200.000	-0.028	-0.193
-234.830	44.118	-0.112	-0.102
-233.815	-104.296	0.158	0.037
-232.800	360.396	-0.079	-0.158
-231.786	131.242	-0.166	-0.213
-230.771	-174.906	-0.226	0.006
-229.757	-2.065	-0.205	-0.144
-228.742	24.553	0.061	-0.050
-227.727	-200.000	-0.002	0.205
-226.713	13.127	-0.136	-0.105
-225.698	467.719	0.110	0.245
-224.684	-9.143	0.121	-0.081
-223.669	-200.000	-0.011	0.063
-222.655	-200.000	0.032	0.293
-221.640	412.808	-0.154	-0.327
-220.625	53.793	0.071	-0.068
-219.611	-4.186	0.338	-0.233
-218.596	-200.000	-0.074	-0.367
-217.582	800.000	0.050	0.201
-216.567	375.308	-0.095	0.193
-215.552	-200.000	0.020	-0.092
-214.538	130.203	-0.161	-0.205
-213.523	-9.565	0.140	-0.093
-212.509	25.431	0.271	-0.224
-211.494	-26.286	-0.309	-0.181
-210.479	-200.000	-0.042	0.523
-209.465	59.617	-0.201	0.198
-208.450	-152.206	0.295	0.021
-207.436	14.125	0.207	-0.161
-206.421	-47.149	0.226	-0.110
-205.406	60.096	0.170	0.168
-204.392	800.000	-0.102	0.344
-203.377	-33.909	0.218	0.119
-202.363	12.769	-0.295	-0.227
-201.348	-200.000	-0.029	0.194
-200.333	-184.210	0.319	-0.005
-199.319	47.753	0.157	0.146
-198.304	15.446	0.100	-0.078
-197.290	800.000	0.108	0.312
-196.275	-88.483	0.187	-0.055
-195.260	53.118	-0.038	0.036
-194.246	-69.313	0.103	0.039
-193.231	800.000	0.048	-0.156
-192.217	142.260	0.280	0.370
-191.202	34.373	-0.100	0.087
-190.187	3.521	0.213	0.155
-189.173	-200.000	0.053	-0.309
-188.158	13.914	0.120	-0.093
-187.144	-200.000	-0.010	-0.141
-186.129	174.948	-0.037	0.053
-185.114	-29.740	0.427	-0.243
-184.100	800.000	-0.166	0.575
-183.085	210.605	0.153	0.240
-182.071	41.034	0.043	0.038
-181.056	-145.893	-0.492	-0.043
-180.042	83.818	-0.023	0.025
-179.027	-200.000	0.009	0.168
-178.012	-107.778	-0.461	-0.100
-176.998	800.000	0.021	-0.082
-175.983	26.610	0.322	0.268
-174.969	124.779	-0.097	-0.121
-173.954	254.067	0.120	0.204
-172.939	800.000	0.043	0.139
-171.925	-200.000	0.051	0.382
-170.910	-200.000	-0.004	-0.055
-169.896	-200.000	-0.042	-0.376
-168.881	800.000	0.096	-0.331
-167.866	571.302	-0.037	-0.089
-166.852	-200.000	-0.058	-0.362
-165.837	226.475	0.086	0.139
-164.823	-200.000	-0.065	0.451
-163.808	-200.000	0.052	0.332
-162.793	159.155	0.021	0.029
-161.779	306.810	0.101	-0.186
-160.764	-200.000	0.011	-0.262
-159.750	-54.267	-0.175	0.079
-158.735	-200.000	0.025	0.212
-157.720	-200.000	0.011	0.085
-156.706	65.083	-0.152	-0.153
-155.691	744.638	0.086	0.230
-154.677	0.902	-0.140	-0.100
-153.662	-200.000	-0.037	-0.368
-152.647	270.537	0.053	0.092
-151.633	-162.935	0.241	-0.012
-150.618	-46.729	-0.135	0.066
-149.604	800.000	0.028	-0.088
-148.589	19.653	0.273	-0.219
-147.574	-118.130	0.113	0.020
-146.560	690.477	0.076	0.199
-145.545	-42.509	0.180	-0.091
-144.531	35.776	-0.303	0.265
-143.516	4.825	0.142	0.104
-142.502	68.764	0.122	0.125
-141.487	-49.121	-0.152	0.072
-140.472	800.000	0.091	-0.282
-139.458	-197.663	-0.157	-0.001
-138.443	434.781	0.049	-0.105
-137.429	-25.924	-0.187	-0.109
-136.414	-111.225	-0.264	0.054
-135.399	-61.689	-0.288	0.120
-134.385	8.052	-0.291	-0.217
-133.370	56.088	-0.126	-0.121
-132.356	-33.371	0.171	-0.094
-131.341	33.657	-0.055	-0.047
-130.326	245.625	-0.205	0.343
-129.312	-200.000	0.023	-0.332
-128.297	242.191	0.116	0.192
-127.283	45.083	-0.145	0.133
-126.268	-144.261	-0.103	0.009
-125.253	-200.000	-0.015	0.517
-124.239	800.000	-0.048	-0.201
-123.224	800.000	0.067	0.205
-122.210	5.852	-0.158	0.116
-121.195	111.217	0.023	-0.028
-120.180	-200.000	-0.037	0.325
-119.166	-40.546	0.232	-0.119
-118.151	800.000	-0.059	-0.170
-117.137	-103.581	0.261	0.061
-116.122	-200.000	-0.059	0.298
-115.107	24.727	0.259	-0.213
-114.093	-35.008	0.107	-0.058
-113.078	-122.704	0.130	0.021
-112.064	69.003	-0.067	-0.068
-111.049	800.000	-0.075	0.216
-110.034	-147.034	-0.251	0.021
-109.020	-187.944	0.191	0.002
-108.005	19.847	-0.201	-0.161
-106.991	-0.829	-0.425	0.299
-105.976	86.226	0.248	0.271
-104.962	-200.000	-0.001	0.082
-103.947	-100.826	0.078	-0.019
-102.932	-81.945	0.344	0.112
-101.918	-200.000	-0.038	0.414
-100.903	41.534	-0.039	0.035
-99.889	-177.982	0.364	-0.009
-98.874	-200.000	0.025	0.205
-97.859	-200.000	-0.005	0.328
-96.845	800.000	0.077	0.248
-95.830	45.429	0.053	0.049
-94.816	800.000	-0.051	-0.195
-93.801	-91.729	-0.057	0.016
-92.786	626.907	0.018	0.046
-91.772	77.482	0.130	0.137
-90.757	-134.072	0.192	-0.024
-89.743	4.417	0.096	-0.070
-88.728	-94.336	0.096	-0.026
-87.713	187.660	-0.095	-0.140
-86.699	477.269	0.109	-0.244
-85.684	-136.344	-0.134	-0.015
-84.670	13.665	0.152	0.117
-83.655	157.070	-0.059	0.081
-82.640	-11.336	0.072	-0.047
-81.626	16.453	-0.153	0.120
-80.611	244.484	-0.199	0.331
-79.597	190.455	0.202	0.301
-78.582	-200.000	0.024	0.114
-77.567	390.251	0.089	-0.182
-76.553	-159.505	-0.146	-0.008
-75.538	-16.528	-0.263	0.165
-74.524	43.011	-0.231	0.209
-73.509	-200.000	0.000	0.096
-72.494	-79.204	-0.297	-0.100
-71.480	371.638	0.206	-0.414
-70.465	57.055	0.089	0.086
-69.451	-58.417	-0.351	0.151
-68.436	-34.431	0.039	0.021
-67.422	-80.386	0.363	0.120
-66.407	711.755	-0.080	0.209
-65.392	303.707	-0.053	0.097
-64.378	214.336	0.127	0.199
-63.363	-154.567	-0.256	0.017
-62.349	-109.337	0.144	0.030
-61.334	39.231	-1.154	-1.023
-60.319	215.684	0.304	0.478
-59.305	-200.000	-0.051	-0.705
-58.290	24.780	0.679	0.557
-57.276	222.710	0.955	1.524
-56.261	-200.000	92.853	543.888
-55.246	507.770	1402.733	3225.579
-54.232	143.140	2646.778	3488.312
-53.217	111.542	2239.283	2675.885
-52.203	46.507	1677.231	1541.561
-51.188	38.362	1406.666	1241.403
-50.173	35.039	1363.082	1182.414
-49.159	55.095	1410.994	1350.453
-48.144	59.031	1428.727	1392.086
-47.130	38.657	1384.061	1223.104
-46.115	35.098	1365.673	1184.835
-45.100	34.865	1361.251	1179.516
-44.086	34.694	1358.964	1176.435
-43.071	34.731	1356.330	1174.335
-42.057	34.758	1354.411	1172.791
-41.042	34.711	1353.259	1171.457
-40.027	34.779	1350.935	1169.815
-39.013	34.759	1349.279	1168.217
-37.998	34.868	1346.873	1166.752
-36.984	34.809	1345.585	1165.226
-35.969	34.901	1343.230	1163.704
-34.954	34.961	1341.404	1162.440
-33.940	34.996	1340.427	1161.759
-32.925	34.878	1339.110	1159.858
-31.911	34.986	1337.458	1159.032
-30.896	35.049	1335.906	1158.020
-29.881	34.937	1334.650	1156.210
-28.867	34.996	1333.318	1155.367
-27.852	35.046	1331.517	1154.061
-26.838	34.991	1330.196	1152.540
-25.823	34.977	1328.784	1151.186
-24.809	34.895	1327.417	1149.463
-23.794	34.907	1325.817	1148.103
-22.779	34.910	1324.799	1147.196
-21.765	34.806	1323.786	1145.652
-20.750	34.868	1322.346	1144.728
-19.736	34.836	1321.133	1143.440
-18.721	34.789	1319.736	1141.907
-17.706	34.790	1318.275	1140.607
-16.692	34.894	1316.633	1139.760
-15.677	34.873	1315.763	1138.835
-14.663	34.857	1314.689	1137.768
-13.648	34.816	1313.685	1136.609
-12.633	34.692	1313.043	1135.270
-11.619	34.794	1311.863	1134.809
-10.604	34.741	1311.234	1133.906
-9.590	34.755	1310.396	1133.220
-8.575	34.713	1309.215	1131.905
-7.560	34.774	1308.234	1131.374
-6.546	34.744	1307.671	1130.661
-5.531	34.846	1305.982	1129.760
-4.517	34.824	1305.208	1128.915
-3.502	34.843	1304.214	1128.121
-2.487	34.723	1303.537	1126.787
-1.473	34.936	1300.059	1124.987
-0.458	34.450	1286.480	1110.362
0.556	31.370	1268.870	1076.003
1.571	26.949	1272.942	1053.759
2.586	24.846	1286.106	1052.214
3.600	22.837	1272.814	1029.542
4.615	16.149	1194.035	929.022
5.629	6.197	1112.317	814.069
6.644	1.514	1090.698	774.362
7.659	1.109	1088.209	770.471
8.673	1.132	1086.740	769.477
9.688	1.026	1085.643	768.096
10.702	1.369	1083.816	768.472
11.717	6.080	1090.151	796.826
12.731	13.571	1100.270	842.372
13.746	17.329	1104.362	864.571
14.761	17.601	1105.057	866.422
15.775	17.049	1102.255	861.350
16.790	16.065	1100.550	854.953
17.804	15.258	1098.873	849.483
18.819	14.971	1097.391	846.810
19.834	14.721	1096.498	844.780
20.848	14.383	1095.918	842.550
21.863	14.038	1094.893	839.944
22.877	13.860	1094.349	838.557
23.892	13.859	1093.218	837.608
24.907	13.854	1092.635	837.062
25.921	13.886	1092.144	836.773
26.936	13.862	1091.278	835.917
27.950	13.946	1090.121	835.377
28.965	14.019	1088.950	834.772
29.980	14.099	1087.392	833.908
30.994	14.228	1085.976	833.391
32.009	14.258	1085.201	832.874
33.023	14.210	1083.997	831.636
34.038	14.174	1082.920	830.556
35.053	14.052	1082.364	829.447
36.067	14.052	1081.363	828.610
37.082	14.112	1080.782	828.388
38.096	14.060	1079.826	827.325
39.111	14.150	1079.226	827.238
40.126	14.039	1077.927	825.620
41.140	14.012	1076.820	824.562
42.155	13.950	1075.731	823.351
43.169	13.848	1074.878	822.118
44.184	13.971	1073.598	821.673
45.199	13.975	1072.479	820.767
46.213	14.000	1070.899	819.609
47.228	13.902	1070.227	818.540
48.242	13.971	1069.133	817.968
49.257	13.932	1068.231	817.016
50.271	14.069	1067.442	817.013
51.286	14.065	1066.379	816.109
52.301	14.008	1065.456	815.048
53.315	13.882	1064.459	813.597
54.330	14.062	1062.811	813.143
55.344	14.006	1062.004	812.184
56.359	13.972	1061.615	811.646
57.374	13.918	1060.757	810.657
58.388	13.869	1059.830	809.634
59.403	13.904	1058.960	809.070
60.417	13.871	1058.238	808.288
61.432	13.855	1057.669	807.703
62.447	13.801	1056.815	806.714
63.461	13.788	1056.046	805.994
64.476	13.800	1054.769	805.008
65.490	13.794	1053.804	804.172
66.505	13.868	1053.753	804.420
67.520	13.871	1052.830	803.657
68.534	13.973	1051.514	803.074
69.549	13.902	1051.053	802.307
70.563	13.803	1050.153	801.072
71.578	13.962	1049.081	800.951
72.593	13.796	1048.767	799.839
73.607	13.851	1048.024	799.468
74.622	13.799	1047.452	798.710
75.636	13.871	1046.716	798.425
76.651	13.776	1045.791	797.193
77.666	13.816	1045.200	796.862
78.680	13.840	1044.176	796.128
79.695	13.829	1043.644	795.600
80.709	13.902	1043.373	795.669
81.724	13.965	1042.347	795.118
82.739	14.032	1041.721	794.890
83.753	14.015	1040.810	794.048
84.768	13.980	1039.842	793.067
85.782	14.109	1038.544	792.624
86.797	14.019	1037.826	791.579
87.812	13.954	1037.155	790.688
88.826	13.892	1036.240	789.624
89.841	14.033	1035.320	789.524
90.855	14.138	1034.227	789.116
91.870	14.103	1033.309	788.181
92.884	14.091	1032.694	787.586
93.899	14.154	1031.809	787.139
94.914	14.136	1031.292	786.592
95.928	14.212	1029.895	785.816
96.943	14.157	1029.077	784.864
97.957	14.081	1028.887	784.290
98.972	13.947	1027.769	782.735
99.987	14.227	1026.246	782.822
101.001	14.180	1025.339	781.839
102.016	14.105	1024.666	780.909
103.030	14.154	1023.799	780.405
104.045	14.189	1023.055	779.934
105.060	14.161	1022.106	779.013
106.074	14.001	1021.216	777.514
107.089	14.064	1019.974	776.794
108.103	14.082	1019.220	776.236
109.118	13.967	1018.371	774.983
110.133	14.033	1017.270	774.387
111.147	13.987	1016.821	773.761
112.162	14.107	1015.787	773.466
113.176	13.988	1015.201	772.396
114.191	14.108	1014.428	772.297
115.206	14.038	1013.824	771.443
116.220	14.063	1012.922	770.806
117.235	14.060	1011.665	769.769
118.249	14.071	1010.756	769.058
119.264	14.000	1010.210	768.245
120.279	14.094	1009.272	767.901
121.293	14.094	1008.273	767.069
122.308	14.012	1007.978	766.400
123.322	13.907	1006.425	764.669
124.337	14.129	1004.958	764.507
125.352	14.195	1004.579	764.454
126.366	14.066	1003.189	762.739
127.381	14.066	1002.363	762.043
128.395	14.156	1001.046	761.384
129.410	13.998	1000.845	760.444
130.424	14.061	1000.008	760.028
131.439	14.025	999.136	759.132
132.454	14.108	998.466	758.934
133.468	14.212	996.823	758.093
134.483	14.163	996.379	757.466
135.497	14.189	995.438	756.799
136.512	14.218	994.220	755.940
137.527	14.241	993.607	755.510
138.541	14.148	993.136	754.662
139.556	14.207	992.442	754.339
140.570	14.266	991.487	753.813
141.585	14.213	990.762	752.956
142.600	14.301	989.631	752.427
143.614	14.394	988.888	752.214
144.629	14.268	987.748	750.712
145.643	14.391	986.844	750.513
146.658	14.304	985.809	749.267
147.673	14.239	985.342	748.553
148.687	14.198	984.538	747.691
149.702	14.213	983.517	746.921
150.716	14.294	982.573	746.500
151.731	14.200	981.725	745.369
152.746	14.322	981.173	745.428
153.760	14.246	980.226	744.302
154.775	14.315	979.809	744.228
155.789	14.265	979.456	743.672
156.804	14.365	978.429	743.273
157.819	14.476	977.640	743.102
158.833	14.394	977.148	742.297
159.848	14.438	976.301	741.785
160.862	14.266	975.565	740.395
161.877	14.410	974.673	740.292
162.892	14.435	973.107	739.145
163.906	14.368	972.712	738.485
164.921	14.340	971.777	737.585
165.935	14.337	971.168	737.045
166.950	14.399	969.834	736.244
167.964	14.520	969.168	736.206
168.979	14.416	968.238	734.974
169.994	14.395	967.479	734.241
171.008	14.372	966.635	733.433
172.023	14.624	965.262	733.434
173.037	14.618	964.805	732.997
174.052	14.679	964.123	732.684
175.067	14.326	963.982	730.959
176.081	14.363	963.556	730.737
177.096	14.462	962.624	730.398
178.110	14.509	961.807	729.916
179.125	14.436	961.166	729.050
180.140	14.537	960.448	728.880
181.154	14.459	960.546	728.551
182.169	14.575	959.402	728.123
183.183	14.661	958.884	728.041
184.198	14.690	958.387	727.725
185.213	14.696	957.503	727.018
186.227	14.657	956.835	726.274
187.242	14.758	956.048	726.053
188.256	14.798	955.527	725.765
189.271	14.725	954.895	724.906
190.286	14.632	953.971	723.737
191.300	14.592	953.282	722.979
192.315	14.519	952.848	722.269
193.329	14.547	952.640	722.167
194.344	14.582	951.387	721.305
195.359	14.627	950.642	720.868
196.373	14.705	950.024	720.673
197.388	14.677	949.766	720.296
198.402	14.858	949.016	720.440
199.417	14.815	948.506	719.803
200.432	15.003	947.583	719.851
201.446	14.909	947.478	719.303
202.461	15.006	946.575	718.968
203.475	14.888	946.018	717.976
204.490	14.809	945.340	717.058
205.504	14.979	944.284	716.924
206.519	14.907	943.493	715.953
207.534	14.888	943.323	715.678
208.548	14.918	942.440	715.072
209.563	14.980	941.890	714.860
210.577	14.983	941.168	714.260
211.592	14.906	940.448	713.319
212.607	15.011	939.466	712.960
213.621	15.002	938.729	712.299
214.636	14.955	938.072	711.537
215.650	15.011	937.386	711.192
216.665	15.152	936.586	711.121
217.680	15.117	935.945	710.426
218.694	15.177	934.846	709.781
219.709	15.168	934.535	709.445
220.723	15.139	933.883	708.762
221.738	15.148	933.057	708.112
222.753	15.131	932.482	707.540
223.767	15.079	932.398	707.196
224.782	15.208	931.278	706.827
225.796	15.425	930.256	706.904
226.811	15.376	929.791	706.281
227.826	15.326	929.026	705.428
228.840	15.241	928.405	704.535
229.855	15.283	927.202	703.736
230.869	15.289	926.668	703.295
231.884	15.174	926.456	702.587
232.899	15.240	925.981	702.444
233.913	15.337	924.822	701.908
234.928	15.471	923.789	701.623
235.942	15.335	923.806	701.005
236.957	15.163	923.524	700.009
237.972	15.292	922.480	699.694
238.986	15.333	921.910	699.370
240.001	15.383	920.893	698.745
241.015	15.323	920.629	698.236
242.030	15.423	919.788	697.952
243.045	15.407	919.243	697.408
244.059	15.360	918.913	696.902
245.074	15.476	917.906	696.557
246.088	15.448	917.385	695.983
247.103	15.493	916.763	695.636
248.117	15.559	916.167	695.395
249.132	15.623	915.540	695.122
250.147	15.582	914.205	693.879
251.161	15.790	913.997	694.520
252.176	15.603	913.339	693.185
253.190	15.641	912.682	692.785
254.205	15.768	911.891	692.646
255.220	15.697	911.360	691.888
256.234	15.682	910.691	691.257
257.249	15.694	910.110	690.804
258.263	15.811	909.030	690.401
259.278	15.702	908.398	689.415
260.293	15.871	907.750	689.555
261.307	15.801	907.344	688.897
262.322	15.857	906.677	688.558
263.336	15.953	905.667	688.125
264.351	16.011	904.617	687.502
265.366	15.992	904.698	687.425
266.380	16.022	903.996	686.953
267.395	15.903	903.201	685.806
268.409	15.821	903.026	685.275
269.424	15.978	901.492	684.688
270.439	15.912	901.198	684.137
271.453	15.905	900.349	683.404
272.468	15.949	900.271	683.465
273.482	16.066	899.015	682.922
274.497	15.975	898.893	682.403
275.512	16.141	897.938	682.289
276.526	16.013	897.740	681.561
277.541	16.111	896.770	681.161
278.555	16.132	896.157	680.717
279.570	16.182	895.199	680.132
280.585	16.128	894.898	679.624
281.599	16.039	894.278	678.737
282.614	16.139	893.461	678.459
283.628	16.101	892.827	677.764
284.643	16.256	892.277	677.908
285.657	16.263	891.308	677.141
286.672	16.094	891.060	676.216
287.687	16.128	890.649	675.977
288.701	16.241	889.781	675.712
289.716	16.265	888.928	675.101
290.730	16.223	888.558	674.595
291.745	16.290	888.034	674.402
292.760	16.291	887.337	673.819
293.774	16.340	886.580	673.378
294.789	16.467	885.583	673.067
295.803	16.412	884.909	672.275
296.818	16.414	884.265	671.735
297.833	16.545	883.854	671.884
298.847	16.439	883.096	670.828
299.862	16.522	882.344	670.527
300.876	16.549	881.578	669.994
301.891	16.481	881.316	669.465
302.906	16.408	880.819	668.739
303.920	16.562	880.462	669.017
304.935	16.504	879.566	668.049
305.949	16.607	879.084	668.029
306.964	16.683	878.190	667.590
307.979	16.594	877.963	667.010
308.993	16.666	877.297	666.727
310.008	16.723	876.456	666.256
311.022	16.714	875.611	665.518
312.037	16.624	875.613	665.105
313.052	16.783	874.806	665.059
314.066	16.593	873.922	663.581
315.081	16.636	873.650	663.486
316.095	16.650	873.028	663.011
317.110	16.703	872.322	662.623
318.125	16.653	872.022	662.139
319.139	16.685	871.330	661.683
320.154	16.549	871.121	660.935
321.168	16.563	870.561	660.503
322.183	16.670	869.497	660.056
323.197	16.728	869.030	659.870
324.212	16.630	868.736	659.204
325.227	16.761	868.102	659.174
326.241	16.891	867.554	659.206
327.256	16.709	867.359	658.294
328.270	16.714	866.331	657.475
329.285	16.804	865.506	657.139
330.300	16.802	865.005	656.693
331.314	16.772	864.974	656.496
332.329	17.024	864.105	656.754
333.343	16.912	863.941	656.136
334.358	16.919	863.675	655.904
335.373	16.997	862.738	655.433
336.387	16.887	862.367	654.671
337.402	16.952	862.167	654.712
338.416	17.146	861.648	655.007
339.431	17.022	861.671	654.489
340.446	17.110	861.200	654.413
341.460	17.106	860.539	653.836
342.475	17.152	860.545	653.959
343.489	17.037	860.215	653.210
344.504	17.121	859.344	652.814
345.519	17.351	858.334	652.869
346.533	17.208	858.166	652.137
347.548	17.114	858.016	651.603
348.562	17.082	857.346	650.914
349.577	17.083	856.529	650.240
350.592	17.089	855.998	649.802
351.606	17.138	855.110	649.259
352.621	17.238	854.653	649.236
353.635	17.254	853.774	648.572
354.650	17.245	853.175	648.027
355.665	17.194	852.738	647.442
356.679	17.196	852.119	646.922
357.694	17.377	851.213	646.866
358.708	17.241	850.619	645.841
359.723	17.268	850.252	645.606
360.738	17.325	849.481	645.179
361.752	17.371	848.870	644.833
362.767	17.274	848.506	644.134
363.781	17.436	847.707	644.083
364.796	17.447	847.268	643.735
365.810	17.407	847.218	643.488
366.825	17.631	846.467	643.707
367.840	17.620	845.981	643.240
368.854	17.588	845.537	642.725
369.869	17.559	845.231	642.324
370.883	17.527	844.800	641.820
371.898	17.629	844.088	641.604
372.913	17.614	843.896	641.345
373.927	17.656	843.135	640.871
374.942	17.501	843.105	640.207
375.956	17.630	842.477	640.158
376.971	17.671	842.347	640.158
377.986	17.495	841.832	639.047
379.000	17.711	841.238	639.352
380.015	17.904	840.052	639.114
381.029	17.849	839.747	638.622
382.044	17.730	839.394	637.850
383.059	17.855	838.474	637.561
384.073	17.800	838.290	637.160
385.088	17.861	837.798	636.958
386.102	17.774	837.120	636.062
387.117	17.937	836.473	636.121
388.132	17.880	835.931	635.439
389.146	17.716	835.648	634.557
390.161	17.783	835.182	634.397
391.175	18.068	834.109	634.585
392.190	17.934	834.026	633.967
393.205	17.991	833.223	633.512
394.219	17.889	833.332	633.162
395.234	17.802	833.148	632.643
396.248	17.823	832.287	632.010
397.263	17.864	831.964	631.863
398.278	17.826	831.601	631.391
399.292	17.916	831.014	631.222
400.307	17.941	830.246	630.672
401.321	17.910	830.212	630.479
402.336	17.828	829.834	629.832
403.350	17.939	829.208	629.711
404.365	18.094	828.848	629.952
405.380	18.012	828.125	629.044
406.394	18.114	827.493	628.884
407.409	18.209	826.951	628.767
408.423	18.208	826.832	628.617
409.438	18.092	826.553	627.922
410.453	18.282	825.992	628.138
411.467	18.173	825.643	627.419
412.482	18.360	825.032	627.582
413.496	18.133	825.216	626.835
414.511	18.373	824.406	627.044
415.526	18.267	823.926	626.237
416.540	18.272	823.376	625.780
417.555	18.312	823.246	625.774
418.569	18.315	822.606	625.242
419.584	18.257	822.228	624.687
420.599	18.312	821.588	624.345
421.613	104.476	1285.288	1440.268
422.628	90.354	1352.835	1440.381
