DTS Sentinel unit serial number:	SN413079Multiplexer serial number:	ORYXHardware model number:	OX4-SRSoftware version number:	ORYX F/W v4.00 Oryx Data Collector v3.7.2.0data status	okinstallation	princeton_trtdifferential loss correction	single-endedforward channel	channel 1reverse channel	N/Adate	2019/09/14time	21:34:35forward acquisition time	60.00reverse acquisition time	0.00gamma	496.2192k internal	0.2318k external	0.2318temperature offset calibration	1.0011default loss term (dB/km)	0.3790temperature slope calibration	1.0000multiplexer offset coefficient	1.0000multiplexer slope coefficient	1.0000fibre end	0.00T internal ref (°C)	32.83T ext. ref 1 (°C)	4.75T ext. ref 2 (°C)	27.71length (m)	temperature (°C)	Stokes	anti-Stokes-747.200	-80.911	0.053	0.018
-746.185	338.863	-0.021	-0.042
-745.171	74.439	0.101	0.108
-744.156	-32.778	-0.096	-0.054
-743.142	10.100	-0.188	0.145
-742.127	327.155	0.134	0.260
-741.112	741.749	-0.077	-0.208
-740.098	-128.483	0.079	0.011
-739.083	320.763	0.096	0.184
-738.069	-121.130	0.223	0.038
-737.054	-94.086	0.078	0.022
-736.039	87.132	-0.168	-0.188
-735.025	800.000	-0.132	-0.416
-734.010	214.006	-0.176	-0.282
-732.996	277.484	-0.027	-0.048
-731.981	-171.163	0.142	-0.005
-730.966	-200.000	-0.007	0.312
-729.952	-58.997	0.132	0.058
-728.937	-200.000	0.013	-0.225
-727.923	-200.000	-0.023	0.141
-726.908	-154.450	-0.429	-0.029
-725.894	-200.000	-0.057	-0.292
-724.879	62.312	0.163	0.165
-723.864	8.197	0.177	-0.135
-722.850	800.000	-0.133	-0.474
-721.835	-57.704	-0.303	-0.134
-720.821	371.214	-0.089	-0.183
-719.806	-16.694	-0.165	0.105
-718.791	-18.982	-0.098	-0.062
-717.777	-200.000	-0.038	-0.260
-716.762	67.955	0.202	-0.209
-715.748	-39.076	0.270	-0.143
-714.733	-200.000	0.003	-0.084
-713.718	-102.489	0.238	0.057
-712.704	120.401	-0.176	0.221
-711.689	116.917	0.175	-0.217
-710.675	146.100	-0.198	-0.268
-709.660	91.580	-0.088	-0.100
-708.645	800.000	-0.155	-0.465
-707.631	23.022	-0.253	-0.210
-706.616	153.984	-0.054	0.075
-705.602	24.846	-0.233	0.195
-704.587	-54.262	-0.138	0.063
-703.572	203.293	-0.147	-0.229
-702.558	-21.172	-0.255	-0.157
-701.543	800.000	-0.110	-0.412
-700.529	-41.133	0.195	-0.102
-699.514	-200.000	-0.062	0.308
-698.499	36.564	-0.024	0.022
-697.485	272.600	0.158	-0.281
-696.470	299.818	0.172	0.320
-695.456	-200.000	0.023	-0.334
-694.441	-55.606	0.152	0.069
-693.426	-200.000	0.001	0.045
-692.412	-5.711	-0.225	-0.156
-691.397	330.479	0.068	0.131
-690.383	-35.143	-0.354	-0.195
-689.368	-56.283	0.183	-0.082
-688.354	-200.000	-0.002	-0.206
-687.339	-24.650	0.242	0.145
-686.324	-64.972	0.193	-0.079
-685.310	800.000	0.097	0.306
-684.295	285.057	-0.089	-0.161
-683.281	-4.046	-0.428	-0.300
-682.266	9.866	0.061	-0.047
-681.251	-127.947	-0.116	-0.017
-680.237	57.373	0.255	0.252
-679.222	-200.000	-0.010	-0.044
-678.208	-200.000	-0.005	-0.180
-677.193	119.172	-0.229	-0.285
-676.178	510.336	0.044	-0.104
-675.164	-14.280	-0.076	0.050
-674.149	142.321	-0.109	-0.146
-673.135	5.472	-0.254	-0.189
-672.120	800.000	0.014	0.042
-671.105	-109.329	-0.277	0.059
-670.091	-142.394	0.157	-0.016
-669.076	46.014	0.033	0.031
-668.062	-113.015	0.333	-0.066
-667.047	-98.215	-0.250	-0.065
-666.032	-163.516	0.251	-0.012
-665.018	63.896	-0.035	0.036
-664.003	800.000	-0.028	0.115
-662.989	-200.000	0.049	-0.273
-661.974	176.645	-0.147	0.215
-660.959	-200.000	0.003	-0.073
-659.945	661.103	-0.083	0.215
-658.930	-53.694	0.305	0.141
-657.916	26.180	0.266	-0.224
-656.901	8.529	0.255	0.194
-655.886	-200.000	0.003	-0.121
-654.872	-200.000	-0.021	0.232
-653.857	102.750	0.110	-0.130
-652.843	-200.000	-0.030	0.150
-651.828	1.077	-0.111	-0.081
-650.814	307.270	-0.132	-0.247
-649.799	190.438	-0.101	-0.153
-648.784	800.000	0.043	0.176
-647.770	194.941	0.148	-0.226
-646.755	-200.000	0.022	0.290
-645.741	19.733	-0.250	0.203
-644.726	173.599	-0.273	-0.397
-643.711	-200.000	0.027	0.315
-642.697	-200.000	-0.005	0.152
-641.682	-67.195	-0.255	-0.101
-640.668	66.589	0.154	0.158
-639.653	13.088	-0.098	-0.076
-638.638	-83.180	0.155	-0.050
-637.624	-36.827	-0.159	-0.086
-636.609	95.948	-0.300	-0.345
-635.595	313.280	-0.116	-0.219
-634.580	67.830	0.379	-0.391
-633.565	441.337	-0.048	0.105
-632.551	68.542	-0.199	-0.206
-631.536	-53.279	-0.178	-0.082
-630.522	156.963	0.142	0.198
-629.507	-121.171	0.148	-0.025
-628.492	-20.045	-0.077	0.048
-627.478	-81.019	0.117	-0.039
-626.463	642.239	0.127	-0.326
-625.449	-72.641	-0.125	0.046
-624.434	249.241	0.116	0.198
-623.419	68.560	0.070	-0.072
-622.405	-65.980	-0.224	0.090
-621.390	-114.874	-0.411	-0.079
-620.376	-151.484	0.092	0.007
-619.361	-200.000	0.014	0.073
-618.346	-200.000	0.002	-0.198
-617.332	-200.000	-0.018	-0.120
-616.317	800.000	0.061	-0.190
-615.303	800.000	-0.056	-0.215
-614.288	-200.000	-0.065	0.349
-613.273	582.858	0.065	-0.160
-612.259	-200.000	0.024	0.285
-611.244	-31.864	0.179	-0.101
-610.230	13.232	-0.018	-0.014
-609.215	-200.000	0.015	-0.210
-608.201	330.699	-0.146	0.283
-607.186	800.000	0.105	0.353
-606.171	800.000	0.021	0.084
-605.157	186.827	-0.166	0.250
-604.142	131.930	0.024	-0.031
-603.128	114.854	0.174	0.214
-602.113	-200.000	0.037	-0.181
-601.098	-157.184	-0.340	0.021
-600.084	580.611	0.066	0.162
-599.069	37.564	0.157	-0.140
-598.055	619.108	0.143	-0.362
-597.040	800.000	0.037	0.103
-596.025	800.000	0.131	-0.556
-595.011	85.628	-0.131	-0.145
-593.996	800.000	0.039	0.133
-592.982	800.000	-0.055	-0.237
-591.967	79.586	0.117	-0.126
-590.952	316.919	0.015	0.028
-589.938	-168.932	-0.172	-0.006
-588.923	-9.586	-0.204	-0.137
-587.909	591.127	-0.135	0.334
-586.894	102.650	0.092	-0.108
-585.879	-200.000	0.005	-0.129
-584.865	-138.014	-0.362	-0.041
-583.850	56.554	0.033	0.033
-582.836	28.264	0.044	0.037
-581.821	742.619	0.104	0.282
-580.806	257.046	-0.121	-0.210
-579.792	-200.000	-0.012	-0.065
-578.777	-200.000	-0.031	0.145
-577.763	800.000	0.036	0.140
-576.748	-88.708	0.266	0.079
-575.733	-167.177	0.256	0.010
-574.719	800.000	-0.079	0.243
-573.704	211.824	0.072	-0.114
-572.690	26.180	0.176	0.148
-571.675	-102.483	0.032	0.008
-570.661	85.051	-0.131	-0.145
-569.646	33.741	-0.154	-0.134
-568.631	169.530	-0.137	0.197
-567.617	11.657	0.053	-0.041
-566.602	146.098	-0.144	-0.194
-565.588	800.000	-0.015	-0.053
-564.573	48.892	0.148	0.139
-563.558	-0.648	-0.118	-0.084
-562.544	-50.000	0.292	0.139
-561.529	376.758	-0.108	-0.222
-560.515	-200.000	0.008	0.065
-559.500	-200.000	-0.028	0.255
-558.485	41.452	-0.112	-0.102
-557.471	368.618	-0.111	-0.226
-556.456	-199.176	-0.304	-0.002
-555.442	-200.000	0.040	0.242
-554.427	-29.423	-0.168	-0.097
-553.412	-200.000	0.039	0.233
-552.398	119.167	-0.168	0.209
-551.383	-90.370	-0.238	-0.069
-550.369	26.656	0.237	-0.200
-549.354	-53.543	0.334	-0.154
-548.339	-200.000	-0.032	0.187
-547.325	-55.162	-0.081	0.036
-546.310	-106.253	-0.182	-0.041
-545.296	-19.892	-0.147	-0.091
-544.281	64.777	0.162	0.164
-543.266	259.159	-0.147	-0.254
-542.252	-107.081	-0.262	0.058
-541.237	-200.000	-0.001	-0.145
-540.223	-1.442	0.029	-0.020
-539.208	-92.134	-0.147	0.042
-538.193	-200.000	0.006	0.322
-537.179	-13.058	0.312	0.204
-536.164	299.264	0.141	-0.261
-535.150	206.231	-0.137	-0.214
-534.135	-110.132	-0.259	-0.054
-533.121	-75.406	-0.315	0.113
-532.106	758.908	-0.039	0.106
-531.091	-193.723	-0.135	-0.001
-530.077	6.763	-0.060	0.045
-529.062	278.546	0.109	0.195
-528.048	-132.341	-0.253	0.033
-527.033	-9.898	0.349	-0.233
-526.018	-200.000	0.020	-0.449
-525.004	-111.420	-0.337	-0.069
-523.989	109.157	-0.162	-0.194
-522.975	-74.752	-0.093	0.033
-521.960	121.769	0.123	0.153
-520.945	549.461	0.030	0.073
-519.931	-136.063	-0.171	0.020
-518.916	-78.285	0.294	-0.101
-517.902	711.259	0.107	0.284
-516.887	587.747	0.052	0.128
-515.872	-96.948	0.076	-0.020
-514.858	278.811	-0.117	-0.209
-513.843	800.000	-0.040	0.165
-512.829	-200.000	-0.014	-0.098
-511.814	17.812	-0.235	-0.187
-510.799	775.870	0.193	0.528
-509.785	-47.584	-0.060	-0.029
-508.770	-18.199	0.185	0.116
-507.756	66.274	0.158	-0.160
-506.741	26.922	-0.344	-0.289
-505.726	800.000	0.085	-0.264
-504.712	-5.100	-0.208	0.144
-503.697	-111.328	-0.036	-0.007
-502.683	-65.925	-0.410	0.164
-501.668	-150.466	0.116	0.009
-500.653	229.960	0.100	-0.164
-499.639	-8.827	-0.319	0.215
-498.624	-30.441	0.284	-0.161
-497.610	-200.000	0.004	0.101
-496.595	800.000	-0.026	0.101
-495.581	-139.180	0.199	0.022
-494.566	800.000	-0.136	-0.446
-493.551	-180.996	0.148	-0.003
-492.537	-200.000	0.030	-0.189
-491.522	-200.000	-0.013	-0.062
-490.508	-200.000	-0.015	-0.096
-489.493	800.000	0.025	0.080
-488.478	338.702	0.202	-0.395
-487.464	-102.013	0.217	0.052
-486.449	-200.000	0.006	0.328
-485.435	-70.578	-0.112	0.042
-484.420	-28.437	0.200	0.115
-483.405	43.100	-0.070	0.064
-482.391	-77.776	-0.295	0.102
-481.376	304.432	0.123	0.229
-480.362	158.030	-0.161	-0.223
-479.347	-200.000	0.002	0.272
-478.332	84.182	0.145	0.158
-477.318	-53.581	-0.066	0.030
-476.303	-162.398	0.177	0.009
-475.289	-100.188	-0.308	0.077
-474.274	800.000	0.113	0.416
-473.259	189.257	0.294	-0.441
-472.245	-6.869	-0.226	0.154
-471.230	-200.000	-0.023	0.267
-470.216	41.664	-0.288	-0.261
-469.201	190.402	-0.058	0.087
-468.186	-53.879	-0.133	0.061
-467.172	49.274	0.173	-0.163
-466.157	76.086	0.240	0.254
-465.143	440.777	0.057	-0.124
-464.128	80.556	-0.198	-0.214
-463.113	-200.000	-0.001	0.145
-462.099	541.810	0.031	-0.073
-461.084	389.851	-0.162	0.336
-460.070	11.336	-0.299	-0.230
-459.055	-50.399	0.311	-0.147
-458.040	-74.132	-0.201	0.073
-457.026	351.551	-0.187	0.370
-456.011	-200.000	0.008	0.242
-454.997	800.000	0.028	0.088
-453.982	264.953	0.092	-0.160
-452.968	-200.000	-0.004	-0.198
-451.953	-13.587	-0.298	0.193
-450.938	408.341	0.051	0.108
-449.924	28.155	-0.139	0.117
-448.909	154.602	0.116	0.160
-447.895	-28.936	-0.215	-0.124
-446.880	145.953	0.224	-0.301
-445.865	800.000	0.018	0.063
-444.851	64.329	-0.149	-0.150
-443.836	-167.082	-0.221	-0.009
-442.822	146.650	-0.055	-0.074
-441.807	-106.850	-0.255	0.056
-440.792	-161.662	-0.267	0.014
-439.778	6.908	0.340	0.254
-438.763	784.238	0.176	-0.482
-437.749	-35.887	0.028	0.015
-436.734	-125.042	-0.113	-0.017
-435.719	39.351	-0.257	-0.230
-434.705	-40.876	0.156	-0.081
-433.690	177.581	-0.225	0.328
-432.676	-28.655	0.277	0.160
-431.661	514.586	0.055	0.128
-430.646	191.728	0.087	0.131
-429.632	129.199	-0.171	-0.218
-428.617	-200.000	-0.003	0.148
-427.603	610.443	0.112	0.281
-426.588	800.000	-0.092	-0.281
-425.573	-65.124	-0.046	-0.018
-424.559	-73.610	0.265	-0.096
-423.544	-200.000	-0.003	-0.194
-422.530	180.599	-0.250	-0.366
-421.515	-99.502	0.076	-0.019
-420.500	70.883	0.383	0.397
-419.486	-132.685	0.179	-0.023
-418.471	-175.907	-0.468	0.012
-417.457	-200.000	-0.009	0.507
-416.442	-47.430	0.250	0.122
-415.428	153.106	0.125	0.170
-414.413	800.000	-0.141	-0.459
-413.398	800.000	-0.050	-0.207
-412.384	-172.125	-0.368	0.012
-411.369	-200.000	0.006	-0.052
-410.355	800.000	-0.076	-0.277
-409.340	-200.000	-0.012	-0.122
-408.325	192.908	-0.130	0.197
-407.311	-99.215	-0.185	0.047
-406.296	-75.219	0.200	-0.071
-405.282	50.239	-0.189	-0.179
-404.267	-96.800	-0.093	0.024
-403.252	800.000	0.057	-0.164
-402.238	800.000	0.025	-0.102
-401.223	-72.178	-0.226	0.084
-400.209	-200.000	0.024	0.357
-399.194	164.037	0.225	0.316
-398.179	-27.099	0.076	0.044
-397.165	800.000	0.079	0.288
-396.150	79.683	-0.129	0.138
-395.136	-200.000	0.022	0.249
-394.121	-182.472	0.137	0.003
-393.106	2.838	0.250	-0.181
-392.092	-102.416	0.117	-0.028
-391.077	-200.000	0.052	0.268
-390.063	-98.819	-0.148	-0.038
-389.048	800.000	-0.038	0.104
-388.033	-200.000	0.033	0.198
-387.019	-200.000	-0.004	0.262
-386.004	3.927	0.300	-0.219
-384.990	-200.000	0.049	0.255
-383.975	46.998	0.148	0.137
-382.960	357.986	0.110	0.218
-381.946	134.209	-0.058	0.076
-380.931	800.000	0.010	0.029
-379.917	800.000	0.034	0.100
-378.902	-106.010	0.110	-0.025
-377.888	-200.000	-0.015	-0.237
-376.873	49.808	-0.109	0.102
-375.858	-48.833	0.164	0.079
-374.844	531.703	0.116	-0.273
-373.829	-29.752	-0.284	0.162
-372.815	641.899	-0.139	0.352
-371.800	-200.000	0.029	0.133
-370.785	22.070	-0.090	-0.073
-369.771	220.992	0.159	0.255
-368.756	-131.776	0.256	0.033
-367.742	454.230	-0.056	-0.124
-366.727	-45.727	-0.175	-0.086
-365.712	94.933	-0.094	-0.107
-364.698	38.235	0.366	-0.325
-363.683	800.000	-0.114	-0.431
-362.669	-200.000	-0.018	0.128
-361.654	-96.026	-0.125	0.033
-360.639	-143.732	0.095	-0.009
-359.625	-200.000	-0.030	0.172
-358.610	800.000	-0.094	0.357
-357.596	-200.000	0.054	0.279
-356.581	259.580	-0.081	0.139
-355.566	142.787	0.242	0.321
-354.552	-110.895	-0.037	0.008
-353.537	256.826	-0.121	0.208
-352.523	532.010	-0.132	-0.311
-351.508	22.444	-0.091	-0.074
-350.493	65.710	0.208	-0.210
-349.479	64.803	-0.090	-0.090
-348.464	226.814	-0.036	-0.059
-347.450	800.000	0.030	-0.123
-346.435	-83.139	-0.198	0.064
-345.420	-124.607	0.210	-0.033
-344.406	138.431	0.147	-0.192
-343.391	141.488	-0.165	-0.218
-342.377	64.324	-0.037	-0.037
-341.362	800.000	0.100	-0.377
-340.348	79.535	0.049	-0.052
-339.333	-95.416	0.082	-0.022
-338.318	728.511	-0.059	0.157
-337.304	-200.000	0.005	0.071
-336.289	-76.903	-0.253	0.088
-335.275	-65.574	-0.410	0.164
-334.260	-200.000	0.025	0.231
-333.245	-14.013	-0.117	-0.076
-332.231	162.857	-0.104	0.145
-331.216	-200.000	0.008	0.142
-330.202	-23.680	-0.133	0.079
-329.187	33.607	-0.112	0.097
-328.172	800.000	-0.057	-0.162
-327.158	60.561	0.092	0.090
-326.143	663.336	0.075	0.193
-325.129	117.461	0.247	-0.302
-324.114	800.000	0.051	-0.182
-323.099	133.827	0.293	0.378
-322.085	80.288	-0.118	-0.127
-321.070	-49.397	0.051	-0.024
-320.056	-47.888	0.056	-0.027
-319.041	406.160	0.099	-0.207
-318.026	-117.883	-0.329	-0.059
-317.012	385.604	-0.039	0.079
-315.997	-68.569	-0.330	0.127
-314.983	0.579	-0.227	0.162
-313.968	-122.557	0.244	-0.039
-312.953	-104.500	0.305	0.070
-311.939	-28.494	0.082	-0.047
-310.924	349.950	-0.027	-0.053
-309.910	-61.525	0.106	-0.044
-308.895	21.845	-0.194	-0.157
-307.880	-41.943	0.246	-0.125
-306.866	-84.344	0.009	0.003
-305.851	60.350	-0.083	0.082
-304.837	-61.840	0.158	-0.066
-303.822	-65.394	0.127	0.051
-302.807	-19.585	0.071	-0.044
-301.793	156.647	0.118	-0.162
-300.778	-200.000	0.057	-0.298
-299.764	-200.000	0.014	-0.199
-298.749	800.000	0.039	-0.124
-297.735	-200.000	-0.057	-0.351
-296.720	-108.215	-0.074	-0.016
-295.705	-66.851	-0.474	0.186
-294.691	33.271	0.171	0.148
-293.676	-37.817	-0.234	-0.124
-292.662	-200.000	0.014	0.118
-291.647	70.435	0.081	0.083
-290.632	-69.441	0.545	-0.208
-289.618	93.092	0.181	0.204
-288.603	480.163	0.123	0.276
-287.589	-200.000	0.073	0.361
-286.574	-200.000	-0.035	-0.285
-285.559	738.556	0.113	-0.302
-284.545	46.865	0.085	0.078
-283.530	779.789	0.056	0.152
-282.516	739.704	0.123	0.328
-281.501	43.428	-0.036	-0.033
-280.486	296.109	-0.067	-0.121
-279.472	800.000	-0.055	0.228
-278.457	252.009	-0.264	0.447
-277.443	-39.362	-0.165	0.086
-276.428	-36.306	-0.378	-0.203
-275.413	332.867	-0.124	-0.239
-274.399	-200.000	-0.039	-0.369
-273.384	90.786	0.029	0.032
-272.370	-107.159	0.318	0.070
-271.355	102.300	0.260	-0.302
-270.340	293.071	0.082	0.149
-269.326	-200.000	-0.007	-0.094
-268.311	800.000	-0.129	0.486
-267.297	-41.282	-0.311	0.159
-266.282	305.689	-0.199	-0.367
-265.267	34.708	-0.231	0.200
-264.253	800.000	0.067	-0.235
-263.238	-144.855	0.194	-0.018
-262.224	774.555	0.140	0.381
-261.209	-140.726	0.188	-0.019
-260.195	-103.942	0.154	0.036
-259.180	-168.974	0.341	0.013
-258.165	100.853	0.047	-0.054
-257.151	-82.949	0.170	-0.055
-256.136	-107.809	0.093	0.020
-255.122	26.849	-0.233	-0.194
-254.107	-5.039	0.206	-0.141
-253.092	-32.678	0.184	-0.102
-252.078	-139.956	-0.197	0.021
-251.063	-70.003	0.157	-0.059
-250.049	273.215	0.028	-0.049
-249.034	800.000	-0.038	-0.105
-248.019	-200.000	0.009	-0.301
-247.005	2.728	0.266	0.192
-245.990	197.636	0.073	0.111
-244.976	55.285	0.251	0.241
-243.961	-98.492	0.319	-0.081
-242.946	-73.924	-0.368	-0.132
-241.932	-200.000	-0.022	0.107
-240.917	356.612	-0.066	-0.131
-239.903	-200.000	0.070	0.406
-238.888	-67.357	-0.051	-0.020
-237.873	-200.000	0.024	-0.132
-236.859	6.596	-0.165	-0.122
-235.844	-26.622	0.289	-0.168
-234.830	3.063	-0.051	0.037
-233.815	-69.966	-0.295	-0.111
-232.800	49.605	0.142	0.133
-231.786	80.904	-0.098	-0.105
-230.771	-64.372	0.452	-0.183
-229.757	217.256	-0.208	-0.328
-228.742	11.800	0.204	0.156
-227.727	800.000	-0.082	-0.228
-226.713	-46.391	-0.066	0.032
-225.698	-169.752	-0.406	-0.015
-224.684	-59.726	0.128	-0.054
-223.669	-147.911	0.014	0.001
-222.655	12.657	0.183	0.140
-221.640	-80.250	-0.300	0.100
-220.625	800.000	-0.059	-0.179
-219.611	-200.000	0.000	0.246
-218.596	106.900	-0.233	-0.274
-217.582	132.760	0.063	-0.081
-216.567	-115.915	-0.026	-0.005
-215.552	-97.387	0.277	0.072
-214.538	800.000	0.092	0.271
-213.523	108.150	-0.104	0.123
-212.509	41.460	-0.161	0.144
-211.494	-200.000	0.064	-0.322
-210.479	-93.100	-0.300	-0.083
-209.465	45.968	0.246	0.226
-208.450	-200.000	-0.017	0.210
-207.436	-72.059	0.189	0.070
-206.421	-171.827	0.168	-0.005
-205.406	-131.209	-0.109	0.014
-204.392	35.522	-0.243	-0.212
-203.377	-93.648	0.390	-0.107
-202.363	-133.168	0.313	0.039
-201.348	91.021	0.045	-0.050
-200.333	37.183	-0.301	0.264
-199.319	199.770	0.141	0.215
-198.304	-110.116	0.393	0.081
-197.290	251.297	0.010	0.017
-196.275	44.935	-0.237	-0.216
-195.260	-200.000	0.014	0.349
-194.246	-200.000	0.027	-0.199
-193.231	140.817	-0.220	0.288
-192.217	-95.031	0.372	0.099
-191.202	638.211	-0.097	-0.245
-190.187	-200.000	0.030	-0.132
-189.173	-200.000	-0.008	0.450
-188.158	-32.420	0.164	-0.090
-187.144	5.980	0.074	-0.054
-186.129	800.000	0.084	-0.357
-185.114	-200.000	0.042	-0.220
-184.100	224.367	-0.174	-0.278
-183.085	800.000	0.176	0.492
-182.071	40.394	0.235	0.209
-181.056	83.392	-0.165	-0.178
-180.042	-20.157	-0.063	0.038
-179.027	-20.881	-0.159	0.097
-178.012	-72.053	0.307	0.113
-176.998	237.293	0.109	-0.179
-175.983	82.860	0.044	-0.047
-174.969	-26.770	0.287	-0.166
-173.954	408.068	0.015	-0.032
-172.939	-113.266	0.113	-0.022
-171.925	537.610	0.069	-0.163
-170.910	-161.212	0.236	-0.012
-169.896	-200.000	-0.005	0.184
-168.881	800.000	-0.056	-0.178
-167.866	223.521	-0.107	-0.170
-166.852	21.398	-0.235	-0.189
-165.837	-87.757	-0.141	-0.042
-164.823	800.000	-0.058	-0.178
-163.808	-90.546	0.455	0.130
-162.793	33.856	0.142	0.122
-161.779	-200.000	0.014	-0.165
-160.764	-200.000	0.215	-0.001
-159.750	-139.642	0.054	0.006
-158.735	-5.002	0.161	-0.110
-157.720	-92.016	0.248	-0.070
-156.706	207.688	0.013	-0.020
-155.691	-139.884	0.093	-0.010
-154.677	-51.545	0.125	0.058
-153.662	-52.987	-0.451	0.205
-152.647	-108.420	-0.405	-0.086
-151.633	34.797	0.249	-0.215
-150.618	697.944	0.086	0.223
-149.604	-67.120	-0.082	0.032
-148.589	132.045	0.091	-0.116
-147.574	182.119	-0.072	0.105
-146.560	607.297	0.094	0.231
-145.545	-149.976	-0.156	0.012
-144.531	-155.392	0.350	-0.022
-143.516	89.544	-0.224	0.247
-142.502	30.700	0.137	0.116
-141.487	-78.935	-0.185	0.062
-140.472	-200.000	-0.066	0.361
-139.458	800.000	-0.091	-0.249
-138.443	56.005	0.245	-0.235
-137.429	68.366	0.030	-0.031
-136.414	800.000	0.023	0.086
-135.399	380.455	0.100	0.203
-134.385	568.250	0.121	-0.292
-133.370	-200.000	0.011	-0.211
-132.356	-119.367	-0.298	0.051
-131.341	-98.045	0.146	-0.037
-130.326	800.000	-0.127	0.420
-129.312	157.642	0.133	-0.182
-128.297	800.000	0.081	0.256
-127.283	168.105	-0.059	0.083
-126.268	-77.307	0.060	0.021
-125.253	-200.000	-0.023	-0.275
-124.239	453.525	-0.125	0.273
-123.224	800.000	0.121	-0.476
-122.210	25.230	0.169	-0.139
-121.195	-200.000	-0.032	-0.185
-120.180	-181.514	-0.123	0.002
-119.166	30.479	0.077	-0.065
-118.151	-200.000	-0.034	0.336
-117.137	-200.000	0.023	0.121
-116.122	-200.000	0.027	0.250
-115.107	800.000	-0.012	0.052
-114.093	-105.780	-0.446	0.099
-113.078	-200.000	-0.006	-0.260
-112.064	98.315	-0.093	-0.106
-111.049	-134.920	0.317	-0.038
-110.034	-159.742	0.044	0.002
-109.020	-124.134	0.244	0.038
-108.005	-198.184	-0.051	0.000
-106.991	206.245	-0.185	-0.284
-105.976	-17.937	-0.297	0.184
-104.962	-200.000	0.008	-0.227
-103.947	91.817	0.110	-0.122
-102.932	-200.000	-0.080	-0.475
-101.918	-200.000	-0.006	-0.209
-100.903	-200.000	-0.010	0.067
-99.889	-37.440	0.115	0.061
-98.874	-110.776	-0.532	-0.108
-97.859	15.443	-0.316	-0.245
-96.845	-160.135	0.148	0.008
-95.830	-130.436	-0.240	0.032
-94.816	800.000	0.078	-0.287
-93.801	-53.655	-0.141	0.064
-92.786	-92.936	0.039	-0.011
-91.772	800.000	-0.128	-0.393
-90.757	-76.549	0.193	-0.067
-89.743	-73.577	0.247	-0.089
-88.728	-200.000	-0.005	0.209
-87.713	800.000	-0.102	0.311
-86.699	90.274	0.152	-0.167
-85.684	334.843	-0.120	-0.229
-84.670	-200.000	0.011	-0.159
-83.655	-60.438	-0.394	-0.165
-82.640	164.110	-0.275	0.383
-81.626	116.306	-0.123	0.149
-80.611	365.214	0.106	0.211
-79.597	104.159	-0.119	-0.138
-78.582	-139.462	0.172	0.018
-77.567	28.419	0.191	0.159
-76.553	269.543	0.090	-0.156
-75.538	-49.006	-0.212	-0.100
-74.524	800.000	-0.086	-0.264
-73.509	-19.390	-0.188	-0.115
-72.494	-142.564	0.485	-0.047
-71.480	112.616	0.178	-0.213
-70.465	114.584	-0.057	-0.069
-69.451	-25.828	-0.080	0.047
-68.436	-120.086	0.017	0.003
-67.422	800.000	-0.045	-0.157
-66.407	800.000	0.135	0.382
-65.392	-200.000	-0.054	-0.432
-64.378	800.000	0.086	0.296
-63.363	-17.226	0.357	-0.222
-62.349	25.124	0.100	0.082
-61.334	136.756	-0.666	-0.857
-60.319	194.673	0.241	0.361
-59.305	-200.000	-0.220	-0.987
-58.290	109.892	0.992	1.173
-57.276	800.000	0.386	1.406
-56.261	-200.000	95.707	571.855
-55.246	648.756	1377.003	3470.058
-54.232	198.356	2548.796	3840.810
-53.217	119.854	2142.513	2616.358
-52.203	44.514	1606.927	1454.455
-51.188	36.306	1344.829	1167.779
-50.173	33.111	1302.871	1112.531
-49.159	55.159	1348.625	1283.925
-48.144	57.456	1366.166	1314.307
-47.130	36.494	1325.163	1151.639
-46.115	33.028	1307.968	1116.218
-45.100	32.845	1303.088	1110.927
-44.086	32.613	1300.805	1107.577
-43.071	32.656	1298.474	1105.799
-42.057	32.685	1296.560	1104.293
-41.042	32.704	1295.024	1103.054
-40.027	32.750	1293.049	1101.596
-39.013	32.782	1291.308	1100.256
-37.998	32.757	1289.349	1098.400
-36.984	32.861	1287.925	1097.744
-35.969	32.870	1285.596	1095.767
-34.954	32.901	1284.464	1094.940
-33.940	32.808	1282.917	1093.042
-32.925	32.878	1281.816	1092.466
-31.911	32.942	1279.988	1091.233
-30.896	32.883	1278.780	1089.821
-29.881	32.823	1277.509	1088.345
-28.867	32.980	1275.883	1087.821
-27.852	32.989	1274.354	1086.526
-26.838	32.902	1273.001	1084.830
-25.823	32.878	1272.031	1083.821
-24.809	32.899	1270.016	1082.186
-23.794	32.958	1268.849	1081.484
-22.779	32.906	1267.773	1080.229
-21.765	32.913	1266.412	1079.064
-20.750	32.882	1264.908	1077.561
-19.736	32.850	1264.048	1076.604
-18.721	32.906	1263.098	1076.072
-17.706	32.831	1262.537	1075.123
-16.692	32.734	1260.840	1073.083
-15.677	32.860	1259.589	1072.697
-14.663	32.894	1258.447	1071.872
-13.648	32.739	1257.671	1070.291
-12.633	32.679	1256.705	1069.084
-11.619	32.741	1255.816	1068.639
-10.604	32.803	1254.640	1067.942
-9.590	32.770	1253.617	1066.844
-8.575	32.651	1253.479	1066.010
-7.560	32.643	1252.034	1064.695
-6.546	32.727	1251.054	1064.293
-5.531	32.743	1250.401	1063.785
-4.517	32.823	1248.858	1062.882
-3.502	32.697	1248.923	1062.186
-2.487	32.800	1247.542	1061.546
-1.473	32.698	1244.238	1058.123
-0.458	31.414	1228.349	1037.445
0.556	26.932	1211.360	998.870
1.571	23.266	1215.963	982.280
2.586	22.365	1230.759	989.082
3.600	21.574	1220.209	976.106
4.615	16.584	1149.356	893.070
5.629	8.418	1075.699	795.266
6.644	4.847	1055.697	762.943
7.659	4.649	1053.227	760.121
8.673	4.819	1051.747	759.818
9.688	4.685	1050.637	758.292
10.702	4.924	1048.969	758.187
11.717	9.245	1055.563	783.999
12.731	16.621	1065.796	827.737
13.746	19.318	1068.237	842.764
14.761	18.473	1066.237	836.987
15.775	17.573	1064.278	830.985
16.790	16.339	1062.546	823.547
17.804	15.675	1061.019	819.060
18.819	15.236	1059.816	815.920
19.834	15.071	1058.534	814.058
20.848	14.793	1058.150	812.342
21.863	14.600	1057.074	810.503
22.877	14.491	1056.651	809.577
23.892	14.595	1055.175	808.880
24.907	14.508	1054.867	808.149
25.921	14.560	1053.954	807.631
26.936	14.475	1052.455	806.004
27.950	14.644	1050.773	805.459
28.965	14.713	1049.301	804.590
29.980	14.668	1048.285	803.524
30.994	14.841	1047.219	803.467
32.009	14.701	1046.282	802.006
33.023	14.711	1044.889	800.915
34.038	14.708	1043.829	800.016
35.053	14.641	1043.267	799.196
36.067	14.616	1042.493	798.409
37.082	14.668	1041.570	797.880
38.096	14.731	1041.180	797.811
39.111	14.666	1040.298	796.757
40.126	14.638	1038.692	795.325
41.140	14.479	1037.607	793.664
42.155	14.292	1036.529	791.880
43.169	14.441	1035.337	791.607
44.184	14.399	1034.227	790.490
45.199	14.406	1033.443	789.852
46.213	14.568	1032.242	789.633
47.228	14.650	1031.279	789.214
48.242	14.654	1030.646	788.677
49.257	14.568	1029.676	787.461
50.271	14.603	1028.793	786.882
51.286	14.719	1027.446	786.327
52.301	14.709	1026.722	785.655
53.315	14.503	1025.646	783.797
54.330	14.595	1024.507	783.286
55.344	14.458	1023.744	781.995
56.359	14.458	1022.883	781.268
57.374	14.484	1021.914	780.579
58.388	14.308	1021.386	779.282
59.403	14.343	1020.537	778.729
60.417	14.440	1019.370	778.224
61.432	14.325	1018.647	777.066
62.447	14.288	1018.039	776.358
63.461	14.146	1017.575	775.277
64.476	14.250	1016.564	774.921
65.490	14.278	1015.822	774.416
66.505	14.190	1015.301	773.540
67.520	14.352	1014.293	773.458
68.534	14.391	1013.615	773.054
69.549	14.395	1012.628	772.253
70.563	14.333	1011.926	771.358
71.578	14.192	1011.511	770.322
72.593	14.154	1010.705	769.466
73.607	14.184	1009.637	768.722
74.622	14.222	1008.986	768.336
75.636	14.066	1008.850	767.443
76.651	14.288	1007.988	767.745
77.666	14.291	1007.492	767.313
78.680	14.216	1006.635	766.247
79.695	14.333	1005.689	765.996
80.709	14.392	1005.376	765.961
81.724	14.414	1004.850	765.593
82.739	14.432	1003.910	764.891
83.753	14.678	1002.938	765.211
84.768	14.759	1002.175	764.933
85.782	14.813	1001.550	764.634
86.797	14.767	1000.749	763.748
87.812	14.641	999.777	762.360
88.826	14.688	998.883	761.827
89.841	14.738	997.868	761.214
90.855	14.676	996.989	760.193
91.870	14.708	996.329	759.766
92.884	14.789	995.026	759.075
93.899	14.693	994.646	758.281
94.914	14.923	993.700	758.535
95.928	14.916	992.931	757.849
96.943	14.709	992.225	756.307
97.957	14.736	990.850	755.313
98.972	14.722	990.346	754.801
99.987	14.735	989.462	754.117
101.001	14.825	988.481	753.710
102.016	14.715	987.816	752.638
103.030	14.818	986.679	752.170
104.045	14.800	986.184	751.645
105.060	14.646	985.409	750.299
106.074	14.511	984.173	748.684
107.089	14.358	983.300	747.266
108.103	14.378	982.665	746.806
109.118	14.374	981.595	745.908
110.133	14.448	980.805	745.574
111.147	14.392	979.918	744.584
112.162	14.419	979.009	743.949
113.176	14.495	978.230	743.630
114.191	14.522	977.652	743.247
115.206	14.526	976.788	742.542
116.220	14.467	975.699	741.385
117.235	14.442	974.706	740.453
118.249	14.481	974.299	740.251
119.264	14.464	973.505	739.507
120.279	14.497	972.084	738.508
121.293	14.419	971.777	737.865
122.308	14.447	970.404	736.880
123.322	14.409	969.799	736.187
124.337	14.458	968.913	735.669
125.352	14.349	968.056	734.472
126.366	14.437	966.875	733.896
127.381	14.395	966.341	733.241
128.395	14.594	965.208	733.191
129.410	14.456	964.706	732.141
130.424	14.495	963.636	731.436
131.439	14.503	962.739	730.725
132.454	14.599	962.294	730.743
133.468	14.551	961.633	729.966
134.483	14.650	960.506	729.476
135.497	14.664	959.549	728.749
136.512	14.577	958.779	727.718
137.527	14.629	958.218	727.455
138.541	14.632	957.224	726.650
139.556	14.704	956.942	726.682
140.570	14.746	956.048	726.123
141.585	14.804	955.719	726.060
142.600	14.806	954.476	725.062
143.614	14.961	953.332	724.798
144.629	14.944	952.646	724.142
145.643	14.953	951.579	723.305
146.658	14.785	950.448	721.655
147.673	14.721	949.765	720.796
148.687	14.722	949.062	720.204
149.702	14.681	948.099	719.235
150.716	14.612	947.741	718.599
151.731	14.728	946.617	718.182
152.746	14.712	945.879	717.491
153.760	14.668	945.481	716.936
154.775	14.963	944.636	717.499
155.789	14.804	944.157	716.388
156.804	14.805	943.673	715.964
157.819	14.885	942.917	715.669
158.833	15.035	941.976	715.533
159.848	15.011	941.164	714.749
160.862	15.016	940.205	713.977
161.877	14.720	939.784	712.335
162.892	14.737	938.788	711.589
163.906	14.828	937.230	710.733
164.921	14.723	937.134	710.149
165.935	14.714	936.407	709.496
166.950	14.890	935.134	709.217
167.964	14.722	934.445	707.918
168.979	14.644	933.932	707.137
169.994	14.933	932.466	707.187
171.008	14.916	931.946	706.658
172.023	15.082	931.108	706.663
173.037	15.067	930.476	706.054
174.052	15.013	929.801	705.253
175.067	14.778	929.063	703.640
176.081	14.854	928.514	703.484
177.096	14.676	928.186	702.425
178.110	14.898	927.528	702.797
179.125	14.908	926.734	702.175
180.140	14.885	925.966	701.436
181.154	15.022	925.637	701.699
182.169	15.082	925.297	701.630
183.183	15.186	924.350	701.286
184.198	14.913	923.761	699.633
185.213	15.129	923.298	700.124
186.227	15.066	922.674	699.324
187.242	15.229	921.504	699.057
188.256	15.227	921.398	698.906
189.271	15.103	920.655	697.763
190.286	15.000	919.440	696.352
191.300	14.798	918.379	694.649
192.315	14.743	918.397	694.373
193.329	14.638	918.275	693.780
194.344	14.812	917.348	693.741
195.359	14.947	916.641	693.707
196.373	14.999	916.038	693.405
197.388	15.106	915.873	693.662
198.402	15.340	915.040	693.936
199.417	15.441	914.037	693.532
200.432	15.323	914.283	693.172
201.446	15.436	913.197	692.754
202.461	15.564	912.425	692.631
203.475	15.508	912.347	692.282
204.490	15.322	911.641	690.919
205.504	15.238	910.724	689.816
206.519	15.294	909.762	689.257
207.534	15.376	909.391	689.253
208.548	15.202	909.003	688.184
209.563	15.351	907.615	687.684
210.577	15.346	907.357	687.404
211.592	15.671	906.527	688.043
212.607	15.555	905.734	686.909
213.621	15.549	905.164	686.390
214.636	15.559	904.564	685.915
215.650	15.565	903.353	684.963
216.665	15.590	903.060	684.779
217.680	15.694	902.241	684.524
218.694	15.627	901.653	683.745
219.709	15.521	901.467	683.111
220.723	15.475	900.607	682.210
221.738	15.514	900.185	681.989
222.753	15.471	899.423	681.178
223.767	15.560	898.732	680.954
224.782	15.871	897.988	681.592
225.796	15.888	897.441	681.183
226.811	15.799	896.770	680.253
227.826	15.755	895.884	679.344
228.840	15.607	895.619	678.486
229.855	15.592	894.894	677.815
230.869	15.546	894.173	677.025
231.884	15.500	893.315	676.128
232.899	15.567	892.706	675.877
233.913	15.574	891.939	675.266
234.928	15.484	891.461	674.484
235.942	15.645	890.393	674.261
236.957	15.577	890.099	673.707
237.972	15.676	889.393	673.508
238.986	15.505	889.014	672.478
240.001	15.645	888.204	672.365
241.015	15.761	887.367	672.134
242.030	15.679	886.779	671.304
243.045	15.758	886.813	671.585
244.059	15.700	886.069	670.729
245.074	15.809	885.086	670.362
246.088	15.947	884.735	670.585
247.103	15.806	884.409	669.720
248.117	15.891	883.608	669.390
249.132	16.031	883.251	669.617
250.147	16.119	882.558	669.384
251.161	16.361	881.447	669.439
252.176	16.195	881.553	668.801
253.190	16.228	880.988	668.447
254.205	16.326	880.165	668.150
255.220	16.326	879.445	667.545
256.234	16.131	879.128	666.472
257.249	16.297	878.175	666.348
258.263	16.437	876.926	665.893
259.278	16.296	876.678	665.090
260.293	16.311	876.238	664.758
261.307	16.434	875.713	664.784
262.322	16.372	875.494	664.314
263.336	16.517	873.885	663.603
264.351	16.478	873.588	663.165
265.366	16.483	873.037	662.710
266.380	16.561	872.302	662.397
267.395	16.324	871.587	660.869
268.409	16.582	870.388	660.910
269.424	16.541	870.079	660.457
270.439	16.425	869.409	659.437
271.453	16.451	868.875	659.075
272.468	16.352	868.318	658.206
273.482	16.285	867.809	657.501
274.497	16.415	867.070	657.389
275.512	16.512	866.220	657.065
276.526	16.406	866.001	656.429
277.541	16.397	865.504	655.960
278.555	16.591	864.951	656.233
279.570	16.619	864.382	655.854
280.585	16.566	863.578	654.982
281.599	16.587	862.421	654.124
282.614	16.484	862.357	653.622
283.628	16.591	861.469	653.302
284.643	16.487	861.036	652.515
285.657	16.470	860.366	651.886
286.672	16.470	859.932	651.500
287.687	16.535	859.154	651.101
288.701	16.704	858.347	651.082
289.716	16.790	858.280	651.303
290.730	16.729	857.672	650.551
291.745	16.611	856.883	649.442
292.760	16.672	856.656	649.448
293.774	16.754	856.140	649.313
294.789	16.834	855.136	648.801
295.803	16.722	854.059	647.496
296.818	16.654	853.700	646.909
297.833	16.698	853.393	646.785
298.847	16.679	852.693	646.128
299.862	16.659	852.725	646.018
300.876	16.760	851.785	645.631
301.891	16.916	850.742	645.380
302.906	16.955	850.108	644.990
303.920	17.000	849.877	644.928
304.935	16.992	849.538	644.583
305.949	17.101	849.045	644.566
306.964	16.953	848.269	643.359
307.979	16.971	847.928	643.109
308.993	17.148	846.746	642.828
310.008	17.207	846.434	642.757
311.022	17.045	846.060	641.803
312.037	16.768	845.603	640.353
313.052	17.042	844.528	640.515
314.066	16.792	844.328	639.364
315.081	16.891	843.591	639.123
316.095	16.768	843.257	638.351
317.110	17.120	841.666	638.411
318.125	16.949	841.809	637.821
319.139	17.080	841.387	637.937
320.154	16.838	841.205	636.834
321.168	17.083	840.322	637.029
322.183	17.027	840.006	636.524
323.197	17.056	839.728	636.365
324.212	16.990	839.261	635.709
325.227	16.997	838.496	635.096
326.241	17.088	837.685	634.768
327.256	17.039	837.054	634.049
328.270	16.948	836.693	633.381
329.285	16.911	836.452	633.005
330.300	17.003	835.617	632.660
331.314	17.068	834.915	632.313
332.329	17.082	834.839	632.253
333.343	17.193	834.150	632.087
334.358	17.255	833.729	631.944
335.373	17.310	833.244	631.726
336.387	17.280	833.113	631.458
337.402	17.296	832.829	631.248
338.416	17.311	832.724	631.168
339.431	17.234	832.259	630.473
340.446	17.373	832.108	630.817
341.460	17.472	831.319	630.530
342.475	17.522	830.809	630.273
343.489	17.533	830.536	630.051
344.504	17.633	829.831	629.831
345.519	17.656	829.440	629.564
346.533	17.658	828.780	629.014
347.548	17.534	828.477	628.270
348.562	17.453	827.606	627.255
349.577	17.438	826.911	626.617
350.592	17.417	826.598	626.250
351.606	17.395	825.624	625.373
352.621	17.384	825.416	625.119
353.635	17.553	824.413	624.924
354.650	17.549	823.541	624.195
355.665	17.555	823.592	624.201
356.679	17.501	823.268	623.701
357.694	17.427	822.572	622.849
358.708	17.620	821.427	622.631
359.723	17.601	820.919	622.123
360.738	17.399	820.657	621.133
361.752	17.529	820.007	621.060
362.767	17.867	819.073	621.526
363.781	17.741	818.746	620.764
364.796	17.914	818.504	621.157
365.810	17.861	818.701	621.057
366.825	17.966	817.954	620.818
367.840	17.969	817.127	620.144
368.854	17.857	817.105	619.668
369.869	17.859	816.552	619.200
370.883	17.906	816.079	618.959
371.898	17.973	815.149	618.441
372.913	18.035	814.872	618.399
373.927	17.975	814.611	617.930
374.942	17.960	814.203	617.511
375.956	18.025	813.747	617.347
376.971	18.097	813.446	617.322
377.986	18.133	813.083	617.124
379.000	18.118	812.742	616.756
380.015	18.150	811.844	616.136
381.029	18.153	810.799	615.297
382.044	18.162	811.003	615.432
383.059	18.257	810.110	615.039
384.073	18.206	809.579	614.400
385.088	18.053	808.921	613.296
386.102	18.124	808.001	612.800
387.117	18.146	807.588	612.510
388.132	18.066	807.030	611.747
389.146	17.947	807.137	611.348
390.161	18.203	806.427	611.672
391.175	18.227	805.934	611.328
392.190	18.056	805.723	610.504
393.205	18.151	805.078	610.300
394.219	18.097	804.254	609.428
395.234	18.013	804.249	609.072
396.248	17.891	803.802	608.244
397.263	17.985	802.992	607.913
398.278	18.067	802.830	608.029
399.292	17.984	802.767	607.632
400.307	17.977	802.139	607.079
401.321	18.193	801.422	607.250
402.336	18.135	800.758	606.484
403.350	18.230	800.428	606.519
404.365	18.363	800.158	606.733
405.380	18.345	799.862	606.391
406.394	18.440	799.164	606.144
407.409	18.600	798.985	606.521
408.423	18.392	798.783	605.576
409.438	18.577	798.389	605.878
410.453	18.682	797.547	605.557
411.467	18.593	797.226	604.945
412.482	18.486	797.043	604.375
413.496	18.520	796.877	604.315
414.511	18.731	796.128	604.438
415.526	18.701	795.693	603.949
416.540	18.550	795.318	603.078
417.555	18.661	794.658	602.915
418.569	18.648	794.423	602.637
419.584	18.740	794.060	602.633
420.599	18.754	793.405	602.131
421.613	156.415	1370.987	1793.838
422.628	135.399	1455.149	1793.955
