DTS Sentinel unit serial number:	SN413079Multiplexer serial number:	ORYXHardware model number:	OX4-SRSoftware version number:	ORYX F/W v4.00 Oryx Data Collector v3.7.2.0data status	okinstallation	princeton_trtdifferential loss correction	single-endedforward channel	channel 1reverse channel	N/Adate	2019/09/17time	06:14:35forward acquisition time	60.00reverse acquisition time	0.00gamma	496.2192k internal	0.2326k external	0.2326temperature offset calibration	0.9970default loss term (dB/km)	0.3790temperature slope calibration	1.0000multiplexer offset coefficient	1.0000multiplexer slope coefficient	1.0000fibre end	0.00T internal ref (°C)	28.50T ext. ref 1 (°C)	0.13T ext. ref 2 (°C)	21.89length (m)	temperature (°C)	Stokes	anti-Stokes-747.200	146.398	0.141	-0.191
-746.185	134.829	-0.164	0.214
-745.171	800.000	-0.040	-0.172
-744.156	-119.018	-0.235	-0.042
-743.142	12.141	-0.085	-0.066
-742.127	3.609	-0.287	0.211
-741.112	-200.000	0.055	-0.302
-740.098	-94.827	-0.153	0.042
-739.083	45.625	-0.242	0.225
-738.069	-200.000	0.112	0.598
-737.054	247.068	-0.049	0.083
-736.039	-138.051	-0.164	-0.018
-735.025	37.814	0.130	-0.116
-734.010	800.000	-0.096	-0.418
-732.996	-200.000	-0.035	-0.325
-731.981	252.406	-0.013	0.023
-730.966	272.001	0.041	-0.074
-729.952	788.343	0.106	-0.292
-728.937	-200.000	-0.030	-0.136
-727.923	-87.181	-0.345	-0.106
-726.908	800.000	0.040	-0.169
-725.894	92.320	-0.083	0.094
-724.879	-54.666	0.085	-0.039
-723.864	-200.000	-0.050	-0.355
-722.850	74.335	0.293	-0.310
-721.835	370.620	0.069	0.142
-720.821	57.937	-0.128	-0.126
-719.806	542.805	-0.056	0.135
-718.791	-58.095	-0.257	-0.113
-717.777	-115.302	0.115	-0.022
-716.762	664.563	-0.212	-0.552
-715.748	-46.012	0.089	0.044
-714.733	-200.000	-0.048	0.238
-713.718	800.000	0.043	0.134
-712.704	-28.352	0.289	-0.168
-711.689	297.258	-0.143	-0.265
-710.675	-89.697	0.071	-0.021
-709.660	-161.743	0.050	0.003
-708.645	-200.000	-0.007	-0.174
-707.631	78.648	-0.036	-0.038
-706.616	-200.000	-0.011	-0.446
-705.602	-157.238	0.084	0.005
-704.587	509.601	-0.014	0.034
-703.572	-142.351	0.152	-0.015
-702.558	47.771	0.176	-0.165
-701.543	-200.000	0.002	-0.045
-700.529	534.414	-0.149	-0.355
-699.514	50.759	0.102	-0.097
-698.499	-91.253	0.332	-0.096
-697.485	153.599	-0.215	-0.296
-696.470	151.372	-0.139	0.190
-695.456	-200.000	0.003	0.442
-694.441	-200.000	-0.015	-0.303
-693.426	-116.738	-0.198	0.037
-692.412	309.196	-0.143	-0.270
-691.397	-91.089	0.177	-0.051
-690.383	-80.573	-0.014	0.005
-689.368	800.000	0.028	0.105
-688.354	68.263	0.193	0.199
-687.339	130.528	-0.237	-0.305
-686.324	436.531	-0.186	-0.407
-685.310	150.672	0.204	-0.279
-684.295	284.913	-0.068	0.123
-683.281	-77.884	-0.045	0.016
-682.266	-159.330	0.220	0.012
-681.251	-87.114	-0.240	-0.073
-680.237	-133.598	0.223	-0.028
-679.222	-8.418	-0.121	0.082
-678.208	201.586	-0.129	-0.200
-677.193	-31.329	-0.076	0.043
-676.178	221.869	-0.117	-0.189
-675.164	-87.853	0.260	0.079
-674.149	147.611	-0.161	-0.218
-673.135	-23.653	-0.188	0.113
-672.120	800.000	0.087	-0.356
-671.105	-45.862	-0.263	0.131
-670.091	-200.000	-0.022	-0.119
-669.076	311.969	-0.076	-0.143
-668.062	51.579	0.125	-0.120
-667.047	17.868	-0.152	-0.121
-666.032	108.070	0.031	0.037
-665.018	202.799	-0.071	0.111
-664.003	-20.082	0.093	-0.058
-662.989	-26.285	-0.519	0.306
-661.974	-56.986	0.134	-0.059
-660.959	-33.151	-0.116	-0.065
-659.945	-8.365	-0.184	-0.124
-658.930	-54.132	-0.008	0.004
-657.916	-141.085	0.330	-0.034
-656.901	-12.070	-0.143	-0.094
-655.886	-52.104	0.126	-0.059
-654.872	189.235	-0.075	-0.113
-653.857	-200.000	-0.003	0.165
-652.843	-74.932	0.404	-0.146
-651.828	693.729	0.041	-0.107
-650.814	190.439	0.204	-0.308
-649.799	157.054	-0.114	-0.158
-648.784	97.506	-0.226	-0.261
-647.770	-140.502	0.137	-0.014
-646.755	-133.419	0.013	0.002
-645.741	-68.943	0.170	0.066
-644.726	800.000	-0.064	0.183
-643.711	-52.946	-0.219	0.101
-642.697	723.292	-0.135	-0.361
-641.682	-200.000	-0.059	0.357
-640.668	-134.640	-0.278	0.034
-639.653	-200.000	0.007	-0.353
-638.638	800.000	-0.131	0.432
-637.624	229.713	-0.045	-0.074
-636.609	-106.420	0.152	-0.034
-635.595	27.444	-0.127	-0.107
-634.580	55.338	0.119	-0.116
-633.565	-59.601	0.209	-0.090
-632.551	-41.602	0.069	0.036
-631.536	15.960	0.142	-0.112
-630.522	-77.184	-0.224	-0.078
-629.507	-111.923	0.378	-0.077
-628.492	800.000	-0.125	-0.438
-627.478	-104.247	0.158	-0.037
-626.463	27.769	-0.180	-0.152
-625.449	-85.621	0.120	0.038
-624.434	-116.919	0.223	0.041
-623.419	239.001	-0.065	-0.108
-622.405	542.274	0.111	-0.266
-621.390	343.739	0.144	0.284
-620.376	-78.999	-0.264	-0.090
-619.361	-200.000	0.077	-0.407
-618.346	131.376	-0.103	0.132
-617.332	105.504	-0.080	-0.095
-616.317	-68.792	-0.114	-0.044
-615.303	-200.000	0.022	-0.233
-614.288	-15.626	-0.126	-0.080
-613.273	72.125	-0.184	-0.192
-612.259	-126.400	0.176	-0.026
-611.244	-48.636	-0.096	0.046
-610.230	-200.000	0.031	0.224
-609.215	300.854	-0.065	0.120
-608.201	-200.000	-0.009	0.209
-607.186	-200.000	0.017	-0.088
-606.171	-55.264	-0.336	0.152
-605.157	-200.000	0.018	-0.407
-604.142	-115.434	0.101	-0.019
-603.128	800.000	-0.103	-0.388
-602.113	-92.277	-0.206	-0.058
-601.098	800.000	0.090	0.333
-600.084	-62.381	-0.176	-0.073
-599.069	2.156	-0.186	-0.135
-598.055	25.382	-0.103	-0.086
-597.040	-200.000	0.037	-0.256
-596.025	687.110	0.140	0.366
-595.011	-200.000	-0.023	0.308
-593.996	12.054	0.159	0.122
-592.982	-65.973	-0.180	-0.072
-591.967	-200.000	-0.006	0.060
-590.952	91.399	-0.196	-0.221
-589.938	-74.364	0.051	-0.018
-588.923	57.384	0.072	-0.071
-587.909	-138.421	0.259	-0.029
-586.894	-142.270	-0.215	-0.021
-585.879	-55.965	-0.083	0.037
-584.865	517.882	0.064	-0.149
-583.850	-67.179	-0.225	-0.089
-582.836	151.758	-0.078	0.106
-581.821	508.647	-0.073	-0.169
-580.806	555.766	-0.119	-0.286
-579.792	348.299	-0.062	0.122
-578.777	-94.038	-0.301	0.083
-577.763	-200.000	0.019	-0.203
-576.748	-11.791	-0.251	0.165
-575.733	377.310	0.063	0.128
-574.719	-119.574	-0.242	-0.042
-573.704	54.446	-0.046	0.045
-572.690	3.758	-0.185	0.136
-571.675	-36.304	0.344	-0.186
-570.661	-132.781	0.304	-0.039
-569.646	-200.000	0.028	-0.206
-568.631	-168.332	-0.163	-0.006
-567.617	87.028	-0.230	0.255
-566.602	-75.563	-0.060	0.021
-565.588	-138.469	-0.200	-0.022
-564.573	117.944	0.143	-0.177
-563.558	69.956	0.111	0.114
-562.544	800.000	-0.099	0.278
-561.529	299.809	0.185	-0.341
-560.515	-13.023	0.148	-0.096
-559.500	15.503	-0.121	0.096
-558.485	-61.269	0.221	-0.093
-557.471	106.662	-0.123	0.146
-556.456	6.898	-0.227	0.169
-555.442	494.098	-0.125	-0.288
-554.427	-90.587	0.120	-0.035
-553.412	207.168	-0.163	0.255
-552.398	32.282	-0.198	0.171
-551.383	800.000	0.014	-0.044
-550.369	90.512	0.165	-0.185
-549.354	800.000	0.078	0.246
-548.339	800.000	-0.121	-0.362
-547.325	190.284	-0.050	0.075
-546.310	155.492	0.131	-0.180
-545.296	57.973	0.052	-0.051
-544.281	79.286	-0.125	-0.134
-543.266	800.000	-0.026	-0.100
-542.252	-200.000	0.030	-0.484
-541.237	-200.000	0.084	-0.378
-540.223	-99.773	0.425	-0.107
-539.208	800.000	0.049	-0.181
-538.193	-143.540	0.261	-0.025
-537.179	-90.409	0.192	-0.056
-536.164	-200.000	0.056	-0.317
-535.150	58.197	-0.049	-0.048
-534.135	-1.904	-0.202	-0.142
-533.121	-150.741	0.284	0.022
-532.106	80.678	0.074	-0.079
-531.091	51.971	-0.070	-0.067
-530.077	-102.456	-0.230	0.055
-529.062	146.782	0.087	0.117
-528.048	-69.140	0.140	-0.054
-527.033	174.316	-0.049	-0.072
-526.018	-8.502	-0.022	0.015
-525.004	287.264	0.029	0.052
-523.989	-200.000	0.002	-0.293
-522.975	333.488	0.108	-0.210
-521.960	395.008	-0.025	0.052
-520.945	-62.722	-0.325	0.135
-519.931	60.271	-0.062	0.061
-518.916	-157.463	0.096	-0.006
-517.902	145.087	0.055	-0.074
-516.887	23.647	-0.123	0.101
-515.872	-159.388	-0.209	0.012
-514.858	-200.000	0.005	-0.067
-513.843	-42.209	-0.221	0.113
-512.829	-56.035	-0.171	-0.076
-511.814	-45.593	-0.269	-0.133
-510.799	-147.502	0.219	0.018
-509.785	70.084	0.159	-0.164
-508.770	106.601	-0.214	0.254
-507.756	-115.229	0.314	-0.059
-506.741	355.365	0.050	0.100
-505.726	-21.118	0.428	0.261
-504.712	-152.581	0.080	0.006
-503.697	420.245	0.101	0.216
-502.683	-92.860	-0.172	0.048
-501.668	-200.000	0.007	-0.083
-500.653	2.323	-0.212	0.153
-499.639	-0.213	-0.183	0.130
-498.624	800.000	-0.079	0.295
-497.610	372.761	-0.095	0.194
-496.595	32.700	-0.129	-0.112
-495.581	-60.285	0.239	-0.102
-494.566	-200.000	-0.001	-0.187
-493.551	61.156	0.221	-0.219
-492.537	800.000	-0.048	-0.167
-491.522	-141.830	-0.192	0.019
-490.508	161.674	-0.171	-0.239
-489.493	-49.256	0.202	-0.096
-488.478	15.329	0.525	-0.411
-487.464	26.614	0.160	-0.134
-486.449	-200.000	-0.065	-0.302
-485.435	-149.082	-0.145	-0.012
-484.420	536.912	0.113	-0.268
-483.405	161.286	0.078	0.108
-482.391	-112.967	0.292	0.058
-481.376	259.851	-0.071	-0.122
-480.362	-31.686	0.343	-0.192
-479.347	-200.000	-0.004	-0.162
-478.332	240.827	0.127	0.211
-477.318	146.729	-0.140	-0.188
-476.303	800.000	0.024	0.065
-475.289	75.477	0.241	-0.254
-474.274	765.595	-0.009	-0.024
-473.259	188.198	-0.186	-0.278
-472.245	-200.000	0.047	-0.222
-471.230	219.230	-0.069	0.111
-470.216	119.362	0.102	-0.126
-469.201	-73.728	0.217	-0.079
-468.186	-200.000	-0.032	0.232
-467.172	800.000	-0.063	-0.200
-466.157	3.471	-0.220	-0.160
-465.143	39.434	-0.365	0.326
-464.128	382.613	-0.052	0.107
-463.113	103.259	0.300	0.350
-462.099	800.000	-0.018	0.073
-461.084	326.961	-0.094	-0.180
-460.070	-75.849	0.310	-0.110
-459.055	329.005	0.062	0.119
-458.040	558.527	0.022	-0.052
-457.026	-85.793	-0.049	-0.015
-456.011	-56.633	0.228	-0.101
-454.997	-183.763	0.329	0.006
-453.982	800.000	-0.086	-0.315
-452.968	-5.116	0.247	0.169
-451.953	-47.929	-0.095	0.046
-450.938	-191.912	0.147	0.001
-449.924	145.172	-0.283	0.377
-448.909	285.425	-0.115	-0.206
-447.895	-102.723	0.265	-0.063
-446.880	-200.000	0.013	-0.087
-445.865	156.031	-0.063	-0.086
-444.851	84.870	0.330	0.361
-443.836	308.665	0.048	-0.089
-442.822	470.558	-0.111	0.249
-441.807	21.749	-0.200	-0.162
-440.792	0.229	-0.372	0.264
-439.778	277.839	-0.081	0.144
-438.763	-200.000	0.025	-0.130
-437.749	-56.385	-0.100	0.044
-436.734	622.611	-0.109	0.274
-435.719	-56.552	-0.171	0.076
-434.705	-90.877	0.316	-0.091
-433.690	135.124	-0.110	-0.142
-432.676	-200.000	-0.014	-0.204
-431.661	682.413	-0.117	0.304
-430.646	-200.000	-0.014	0.132
-429.632	-200.000	0.009	0.200
-428.617	800.000	-0.078	0.243
-427.603	34.794	0.036	0.032
-426.588	-118.098	-0.280	0.050
-425.573	289.000	0.207	-0.374
-424.559	-200.000	0.012	0.093
-423.544	73.375	0.137	-0.143
-422.530	336.860	0.052	0.100
-421.515	-83.212	0.174	-0.056
-420.500	168.753	-0.268	0.381
-419.486	217.099	0.066	0.105
-418.471	-200.000	0.042	0.225
-417.457	800.000	0.037	0.154
-416.442	800.000	0.033	0.126
-415.428	171.643	0.043	0.061
-414.413	315.404	-0.144	0.270
-413.398	-200.000	0.002	0.077
-412.384	190.187	0.042	0.063
-411.369	-57.546	-0.042	-0.018
-410.355	-21.862	-0.329	-0.199
-409.340	-183.702	-0.134	0.002
-408.325	123.060	0.032	-0.040
-407.311	76.312	0.186	0.196
-406.296	-200.000	0.089	-0.416
-405.282	136.593	0.250	-0.324
-404.267	145.755	0.172	-0.230
-403.252	-134.689	-0.097	0.012
-402.238	284.380	-0.129	0.232
-401.223	-197.956	0.142	-0.001
-400.209	-131.952	-0.537	-0.070
-399.194	128.769	0.193	-0.244
-398.179	18.093	0.147	0.116
-397.165	354.918	0.042	0.083
-396.150	-5.949	0.212	0.144
-395.136	-200.000	-0.022	0.166
-394.121	-111.986	-0.273	0.055
-393.106	145.820	0.095	-0.127
-392.092	-13.055	0.202	-0.131
-391.077	393.432	-0.083	-0.172
-390.063	86.654	0.120	0.132
-389.048	-200.000	-0.022	-0.247
-388.033	-97.205	0.283	0.074
-387.019	461.323	-0.104	0.230
-386.004	-163.556	0.185	0.009
-384.990	-200.000	-0.278	0.001
-383.975	-116.280	-0.151	0.028
-382.960	25.629	-0.045	0.037
-381.946	-13.997	0.227	-0.146
-380.931	-47.742	0.167	-0.080
-379.917	-15.168	-0.251	0.160
-378.902	-200.000	0.014	0.068
-377.888	800.000	-0.047	0.164
-376.873	-82.760	0.211	-0.068
-375.858	2.132	-0.078	0.056
-374.844	636.881	0.133	0.335
-373.829	800.000	0.083	0.299
-372.815	-7.757	-0.122	-0.082
-371.800	9.971	0.216	-0.163
-370.785	-200.000	0.006	-0.122
-369.771	48.151	-0.086	-0.080
-368.756	-146.369	0.257	0.022
-367.742	36.419	-0.140	0.123
-366.727	99.692	0.092	-0.106
-365.712	472.931	-0.022	0.050
-364.698	789.437	0.032	0.087
-363.683	-89.313	-0.055	-0.016
-362.669	-200.000	-0.008	0.183
-361.654	403.124	0.121	0.252
-360.639	-52.413	-0.061	-0.028
-359.625	-117.015	-0.139	0.025
-358.610	800.000	-0.118	-0.397
-357.596	78.530	0.260	0.276
-356.581	800.000	-0.043	-0.141
-355.566	-116.403	0.122	-0.022
-354.552	76.848	0.232	0.244
-353.537	391.741	0.042	-0.087
-352.523	-10.749	0.091	0.060
-351.508	800.000	0.039	-0.120
-350.493	-51.871	0.187	-0.086
-349.479	800.000	0.064	-0.251
-348.464	-200.000	0.027	0.243
-347.450	-63.955	-0.180	-0.073
-346.435	-200.000	0.034	0.224
-345.420	343.803	-0.058	-0.113
-344.406	54.490	-0.064	-0.061
-343.391	240.000	0.049	-0.080
-342.377	141.701	-0.163	-0.215
-341.362	-80.978	-0.304	0.100
-340.348	135.842	0.011	0.014
-339.333	800.000	-0.085	-0.239
-338.318	59.752	-0.157	-0.153
-337.304	19.236	0.118	0.094
-336.289	243.728	0.080	-0.133
-335.275	-200.000	-0.007	0.174
-334.260	-122.803	-0.416	-0.067
-333.245	-2.404	-0.272	-0.189
-332.231	800.000	0.061	0.166
-331.216	687.771	0.110	-0.285
-330.202	-200.000	-0.012	-0.147
-329.187	41.298	0.088	0.079
-328.172	-193.784	0.384	-0.003
-327.158	63.784	-0.175	-0.174
-326.143	340.320	-0.088	-0.170
-325.129	-7.076	-0.207	-0.139
-324.114	60.726	-0.186	0.183
-323.099	-0.835	-0.242	0.170
-322.085	-109.439	-0.068	0.014
-321.070	800.000	0.059	-0.230
-320.056	-98.977	-0.215	-0.054
-319.041	715.610	-0.043	0.113
-318.026	-102.610	-0.354	0.084
-317.012	800.000	0.087	0.335
-315.997	207.353	-0.020	0.032
-314.983	-60.864	0.119	-0.050
-313.968	-29.307	0.153	-0.087
-312.953	-113.273	0.040	-0.008
-311.939	800.000	-0.081	0.238
-310.924	202.090	0.013	0.019
-309.910	1.505	0.295	-0.210
-308.895	-200.000	0.033	-0.190
-307.880	75.542	0.142	0.148
-306.866	375.287	-0.108	0.219
-305.851	82.308	0.079	-0.085
-304.837	-46.897	-0.154	0.074
-303.822	-96.558	0.233	-0.061
-302.807	249.255	0.144	0.241
-301.793	347.573	0.250	0.488
-300.778	440.033	-0.124	0.268
-299.764	-97.815	-0.191	0.049
-298.749	-109.332	0.212	0.044
-297.735	-93.342	0.265	0.073
-296.720	800.000	-0.050	0.210
-295.705	190.298	0.068	-0.102
-294.691	-62.964	0.113	-0.046
-293.676	-14.013	-0.223	-0.143
-292.662	-18.361	0.145	0.090
-291.647	-121.107	0.145	-0.024
-290.632	414.086	-0.059	-0.124
-289.618	-24.229	0.230	0.136
-288.603	-99.732	0.107	-0.027
-287.589	636.604	0.033	0.083
-286.574	160.385	-0.061	0.085
-285.559	68.258	0.224	-0.228
-284.545	101.346	-0.092	0.106
-283.530	215.618	-0.088	0.139
-282.516	-9.144	0.097	-0.064
-281.501	-184.296	-0.194	0.003
-280.486	24.206	0.155	0.127
-279.472	-23.443	0.289	-0.172
-278.457	800.000	-0.040	-0.169
-277.443	800.000	0.033	0.108
-276.428	-30.742	-0.248	0.139
-275.413	-36.321	-0.069	0.037
-274.399	800.000	0.094	-0.340
-273.384	-200.000	-0.011	-0.149
-272.370	800.000	-0.007	-0.023
-271.355	252.110	0.124	0.208
-270.340	323.945	-0.138	-0.261
-269.326	-148.705	0.474	-0.038
-268.311	68.280	0.263	-0.267
-267.297	-91.250	0.192	-0.054
-266.282	-200.000	0.043	-0.342
-265.267	-47.534	0.164	-0.079
-264.253	-200.000	0.002	0.024
-263.238	36.917	-0.269	0.235
-262.224	-4.293	-0.135	0.092
-261.209	185.872	0.135	-0.198
-260.195	231.116	-0.227	0.368
-259.180	800.000	0.139	0.396
-258.165	247.499	0.145	0.242
-257.151	800.000	-0.070	-0.209
-256.136	-142.930	0.248	0.024
-255.122	397.324	-0.109	0.225
-254.107	-200.000	0.035	0.202
-253.092	79.403	0.297	0.315
-252.078	30.199	-0.260	-0.220
-251.063	-200.000	0.033	-0.185
-250.049	63.804	0.273	-0.271
-249.034	129.425	-0.166	0.210
-248.019	429.110	-0.170	0.364
-247.005	324.030	-0.125	0.235
-245.990	-93.851	-0.131	0.036
-244.976	-200.000	-0.005	0.042
-243.961	145.746	0.075	0.100
-242.946	-200.000	0.005	0.069
-241.932	165.952	-0.040	0.055
-240.917	682.445	0.062	0.160
-239.903	41.454	-0.131	0.117
-238.888	-63.442	0.347	-0.141
-237.873	314.329	-0.182	-0.339
-236.859	-25.210	-0.143	-0.084
-235.844	800.000	-0.036	0.119
-234.830	-95.078	0.074	-0.020
-233.815	800.000	-0.074	0.242
-232.800	-200.000	-0.000	-0.068
-231.786	251.206	-0.129	0.217
-230.771	36.511	0.294	0.257
-229.757	-200.000	-0.094	0.598
-228.742	-43.182	-0.358	0.179
-227.727	57.209	-0.078	-0.075
-226.713	-157.410	-0.161	0.010
-225.698	715.219	0.022	0.057
-224.684	-55.929	0.047	0.021
-223.669	-200.000	0.055	-0.383
-222.655	-49.097	0.202	-0.096
-221.640	39.769	-0.186	-0.165
-220.625	18.200	0.058	-0.045
-219.611	90.149	-0.165	0.183
-218.596	-134.277	-0.378	0.046
-217.582	-61.924	0.298	0.123
-216.567	210.740	0.071	-0.111
-215.552	-40.098	0.174	0.089
-214.538	-39.060	-0.308	0.160
-213.523	-26.567	0.213	-0.123
-212.509	-25.035	-0.185	0.108
-211.494	-8.787	-0.273	-0.181
-210.479	279.133	0.039	-0.068
-209.465	418.494	0.040	0.085
-208.450	800.000	-0.079	0.282
-207.436	395.803	-0.162	0.334
-206.421	800.000	-0.031	0.093
-205.406	-163.016	0.154	0.007
-204.392	-172.093	0.211	0.007
-203.377	117.539	-0.223	-0.271
-202.363	-133.536	0.221	0.027
-201.348	-200.000	0.059	0.440
-200.333	-200.000	0.011	0.327
-199.319	-13.111	-0.144	0.092
-198.304	-200.000	0.005	-0.088
-197.290	-10.979	-0.301	0.196
-196.275	-200.000	-0.033	-0.166
-195.260	-130.597	0.371	0.049
-194.246	342.069	-0.011	0.021
-193.231	45.308	0.054	-0.049
-192.217	800.000	-0.061	-0.173
-191.202	74.310	0.202	0.209
-190.187	167.730	0.114	0.159
-189.173	-92.969	-0.267	0.074
-188.158	-45.375	0.064	0.031
-187.144	-12.480	0.154	0.099
-186.129	-112.302	-0.355	0.070
-185.114	-108.871	0.116	-0.024
-184.100	38.966	0.084	-0.074
-183.085	-200.000	0.005	0.139
-182.071	213.155	0.111	0.172
-181.056	-200.000	0.030	-0.163
-180.042	217.923	0.098	0.153
-179.027	154.799	0.306	0.414
-178.012	-146.955	-0.276	-0.023
-176.998	-139.471	0.339	-0.036
-175.983	162.001	0.116	-0.160
-174.969	-102.271	0.209	-0.049
-173.954	-83.647	0.243	0.077
-172.939	169.633	0.137	0.193
-171.925	-58.355	0.302	0.130
-170.910	-32.621	-0.301	-0.165
-169.896	-83.521	-0.184	-0.058
-168.881	-97.486	0.313	-0.080
-167.866	-41.788	-0.196	0.099
-166.852	17.206	-0.187	-0.146
-165.837	107.572	-0.046	-0.054
-164.823	113.904	0.031	0.037
-163.808	518.121	-0.058	0.134
-162.793	-88.172	-0.153	0.045
-161.779	-80.346	-0.189	0.062
-160.764	-15.206	0.133	-0.084
-159.750	181.295	-0.235	0.341
-158.735	-57.664	0.206	0.089
-157.720	-116.202	-0.352	0.064
-156.706	-200.000	0.013	-0.116
-155.691	5.602	-0.298	-0.217
-154.677	178.431	-0.065	0.094
-153.662	532.192	-0.077	-0.179
-152.647	117.305	-0.035	-0.043
-151.633	30.012	-0.243	-0.204
-150.618	635.256	0.045	-0.113
-149.604	-200.000	0.001	0.102
-148.589	-200.000	-0.015	0.209
-147.574	-66.701	0.037	-0.014
-146.560	39.021	0.184	0.162
-145.545	-92.804	-0.114	-0.031
-144.531	232.969	0.076	0.123
-143.516	201.837	-0.136	-0.207
-142.502	3.496	-0.106	0.076
-141.487	597.033	-0.086	0.210
-140.472	-200.000	-0.014	0.267
-139.458	186.483	-0.097	-0.142
-138.443	-68.712	-0.128	0.049
-137.429	-69.093	0.068	0.026
-136.414	34.692	0.048	-0.042
-135.399	-200.000	0.051	0.248
-134.385	168.487	0.053	0.075
-133.370	76.370	-0.252	0.263
-132.356	800.000	0.053	-0.193
-131.341	800.000	-0.007	0.019
-130.326	800.000	-0.007	0.030
-129.312	-200.000	0.016	0.238
-128.297	-121.607	-0.013	-0.002
-127.283	-122.198	-0.251	0.040
-126.268	585.835	-0.058	-0.141
-125.253	-90.832	-0.140	-0.040
-124.239	25.824	0.145	0.119
-123.224	-27.907	-0.335	-0.191
-122.210	65.337	0.209	-0.208
-121.195	43.375	0.215	-0.193
-120.180	-125.035	-0.258	0.039
-119.166	258.521	0.042	0.070
-118.151	-200.000	0.013	-0.099
-117.137	116.863	-0.092	-0.112
-116.122	-200.000	0.021	0.126
-115.107	293.938	0.142	0.255
-114.093	25.255	-0.252	0.206
-113.078	-200.000	-0.027	-0.124
-112.064	-114.833	0.441	-0.083
-111.049	241.982	0.111	0.183
-110.034	208.556	-0.082	0.126
-109.020	-200.000	0.009	0.054
-108.005	-163.611	0.318	0.015
-106.991	-200.000	-0.004	0.130
-105.976	-142.414	0.261	-0.025
-104.962	-81.703	0.231	0.074
-103.947	125.575	0.152	0.189
-102.932	-78.584	0.137	-0.046
-101.918	39.224	0.103	0.091
-100.903	-30.024	-0.178	0.100
-99.889	276.209	-0.031	0.054
-98.874	261.155	-0.141	-0.240
-97.859	-43.510	0.156	0.078
-96.845	286.179	-0.126	-0.224
-95.830	-105.527	0.126	-0.028
-94.816	-53.023	0.315	0.142
-93.801	406.911	0.081	-0.169
-92.786	9.522	0.217	-0.161
-91.772	-43.001	0.109	-0.054
-90.757	-65.238	0.273	-0.108
-89.743	362.770	-0.091	-0.179
-88.728	562.612	0.171	-0.407
-87.713	-35.884	0.221	-0.118
-86.699	146.407	-0.170	-0.224
-85.684	376.828	0.170	-0.341
-84.670	-101.211	-0.267	0.064
-83.655	244.628	-0.149	-0.245
-82.640	-16.326	0.473	-0.295
-81.626	800.000	-0.070	0.298
-80.611	-1.455	-0.057	0.040
-79.597	2.579	-0.123	0.088
-78.582	-200.000	0.036	-0.162
-77.567	76.321	-0.154	-0.160
-76.553	105.478	-0.180	0.209
-75.538	555.049	-0.085	0.201
-74.524	-91.269	0.227	0.064
-73.509	-112.542	-0.249	-0.049
-72.494	-181.465	0.142	0.003
-71.480	800.000	0.026	0.079
-70.465	433.494	-0.090	0.191
-69.451	68.022	0.259	-0.260
-68.436	164.131	0.205	0.284
-67.422	-185.515	0.026	0.000
-66.407	-83.196	0.125	-0.040
-65.392	-200.000	-0.003	-0.100
-64.378	55.393	0.216	0.205
-63.363	262.189	-0.042	-0.072
-62.349	-30.934	-0.241	-0.134
-61.334	-19.967	-1.615	-0.979
-60.319	68.464	0.494	0.497
-59.305	800.000	-0.382	-1.056
-58.290	468.005	0.584	1.287
-57.276	800.000	0.555	1.643
-56.261	-200.000	111.671	640.804
-55.246	464.262	1507.208	3307.454
-54.232	146.046	2674.042	3520.669
-53.217	105.899	2154.440	2502.210
-52.203	40.125	1604.486	1415.599
-51.188	31.935	1349.876	1141.332
-50.173	28.973	1311.231	1091.081
-49.159	55.859	1366.842	1300.668
-48.144	55.453	1380.860	1311.510
-47.130	32.274	1336.371	1131.780
-46.115	28.674	1319.493	1095.994
-45.100	28.363	1314.892	1090.281
-44.086	28.309	1312.369	1087.823
-43.071	28.358	1309.712	1085.867
-42.057	28.368	1307.661	1084.180
-41.042	28.428	1306.059	1083.165
-40.027	28.451	1304.531	1081.994
-39.013	28.330	1302.946	1079.922
-37.998	28.303	1301.070	1078.167
-36.984	28.454	1298.824	1077.146
-35.969	28.561	1296.594	1075.882
-34.954	28.531	1295.325	1074.612
-33.940	28.559	1294.254	1073.846
-32.925	28.537	1292.882	1072.535
-31.911	28.535	1291.410	1071.261
-30.896	28.611	1289.617	1070.171
-29.881	28.614	1288.950	1069.593
-28.867	28.599	1287.356	1068.140
-27.852	28.711	1285.205	1066.966
-26.838	28.612	1284.714	1065.942
-25.823	28.598	1283.201	1064.564
-24.809	28.488	1282.013	1062.894
-23.794	28.575	1280.716	1062.282
-22.779	28.507	1279.217	1060.603
-21.765	28.659	1277.820	1060.279
-20.750	28.579	1276.254	1058.478
-19.736	28.644	1274.643	1057.478
-18.721	28.514	1274.110	1056.240
-17.706	28.416	1273.063	1054.770
-16.692	28.439	1272.062	1054.032
-15.677	28.439	1271.026	1053.129
-14.663	28.467	1269.652	1052.109
-13.648	28.372	1268.818	1050.831
-12.633	28.419	1267.624	1050.069
-11.619	28.469	1266.644	1049.501
-10.604	28.562	1265.438	1048.997
-9.590	28.441	1265.019	1047.912
-8.575	28.406	1264.223	1047.011
-7.560	28.467	1263.359	1046.602
-6.546	28.417	1262.178	1045.297
-5.531	28.404	1261.842	1044.905
-4.517	28.406	1260.759	1043.976
-3.502	28.494	1259.429	1043.334
-2.487	28.386	1259.386	1042.645
-1.473	28.279	1254.932	1038.311
-0.458	26.738	1239.035	1016.480
0.556	21.143	1222.551	976.325
1.571	17.200	1227.898	958.309
2.586	16.175	1241.750	963.187
3.600	16.055	1230.325	953.561
4.615	11.835	1158.520	875.305
5.629	4.116	1083.464	779.793
6.644	0.449	1064.371	747.830
7.659	0.105	1062.302	744.606
8.673	0.007	1061.061	743.188
9.688	-0.031	1059.580	741.898
10.702	0.233	1057.719	741.829
11.717	4.952	1063.756	769.327
12.731	12.863	1074.326	816.211
13.746	16.891	1079.036	839.704
14.761	16.991	1078.480	839.697
15.775	16.091	1076.064	833.292
16.790	15.021	1074.420	826.662
17.804	14.320	1072.798	821.886
18.819	13.969	1072.170	819.599
19.834	13.735	1071.050	817.515
20.848	13.494	1069.986	815.446
21.863	13.248	1069.122	813.506
22.877	13.221	1068.257	812.640
23.892	13.124	1067.587	811.582
24.907	13.171	1066.750	811.108
25.921	13.135	1065.824	810.155
26.936	13.230	1065.040	809.951
27.950	13.152	1064.212	808.867
28.965	13.272	1063.191	808.607
29.980	13.457	1061.176	807.905
30.994	13.289	1060.973	806.862
32.009	13.446	1059.510	806.444
33.023	13.274	1059.304	805.376
34.038	13.334	1057.506	804.228
35.053	13.349	1056.710	803.627
36.067	13.162	1056.346	802.372
37.082	13.355	1054.652	801.948
38.096	13.284	1054.344	801.298
39.111	13.279	1053.686	800.703
40.126	13.260	1052.264	799.458
41.140	13.153	1051.240	798.094
42.155	13.126	1049.798	796.798
43.169	13.054	1049.339	796.031
44.184	13.017	1048.352	795.033
45.199	13.062	1047.102	794.235
46.213	13.035	1046.061	793.246
47.228	13.297	1044.509	793.253
48.242	13.126	1044.181	792.114
49.257	13.217	1042.778	791.414
50.271	13.286	1041.570	790.758
51.286	13.286	1040.963	790.229
52.301	13.188	1040.069	789.011
53.315	13.159	1039.366	788.271
54.330	13.026	1038.772	787.116
55.344	13.086	1037.431	786.314
56.359	13.138	1036.437	785.739
57.374	13.165	1035.644	785.196
58.388	13.123	1034.914	784.376
59.403	13.235	1033.855	784.036
60.417	13.018	1033.361	782.563
61.432	13.070	1032.255	781.901
62.447	13.020	1031.502	781.024
63.461	13.080	1030.506	780.484
64.476	13.049	1029.641	779.616
65.490	13.040	1028.729	778.815
66.505	13.118	1027.969	778.538
67.520	13.087	1027.707	778.122
68.534	13.132	1026.510	777.358
69.549	13.086	1026.371	776.971
70.563	13.124	1025.014	776.052
71.578	13.021	1024.875	775.394
72.593	12.899	1024.168	774.220
73.607	12.982	1023.247	773.842
74.622	13.029	1022.281	773.263
75.636	12.981	1021.934	772.706
76.651	12.859	1021.220	771.529
77.666	12.967	1020.802	771.648
78.680	13.054	1019.868	771.281
79.695	13.125	1018.913	770.823
80.709	12.957	1018.521	769.675
81.724	13.146	1017.791	769.936
82.739	13.134	1017.057	769.254
83.753	13.184	1016.502	769.003
84.768	13.287	1015.420	768.595
85.782	13.369	1014.275	768.039
86.797	13.257	1013.716	767.030
87.812	13.135	1012.936	765.807
88.826	13.177	1011.622	764.939
89.841	13.312	1010.882	764.937
90.855	13.230	1010.161	763.945
91.870	13.193	1008.974	762.809
92.884	13.331	1008.010	762.648
93.899	13.447	1007.018	762.362
94.914	13.346	1006.573	761.493
95.928	13.359	1005.549	760.710
96.943	13.267	1004.977	759.790
97.957	13.376	1003.684	759.243
98.972	13.336	1003.174	758.607
99.987	13.331	1001.694	757.399
101.001	13.216	1001.271	756.487
102.016	13.310	1000.332	756.140
103.030	13.279	999.674	755.432
104.045	13.346	999.068	755.213
105.060	13.394	998.175	754.694
106.074	13.230	996.852	752.877
107.089	13.256	995.763	752.107
108.103	13.240	995.096	751.464
109.118	13.162	994.402	750.518
110.133	13.154	993.555	749.777
111.147	13.129	992.583	748.862
112.162	13.154	991.888	748.388
113.176	13.231	991.339	748.254
114.191	13.124	990.790	747.290
115.206	13.267	989.435	746.850
116.220	13.266	988.460	746.040
117.235	13.290	987.764	745.560
118.249	13.230	986.849	744.530
119.264	13.255	986.246	744.122
120.279	13.199	985.605	743.320
121.293	13.191	984.204	742.166
122.308	13.089	983.897	741.407
123.322	13.225	982.534	740.927
124.337	13.090	981.945	739.811
125.352	13.232	980.323	739.160
126.366	13.170	979.393	738.115
127.381	13.146	978.428	737.216
128.395	13.145	977.902	736.748
129.410	13.233	976.452	735.986
130.424	13.068	975.874	734.749
131.439	13.333	974.936	735.155
132.454	13.247	974.333	734.253
133.468	13.195	973.403	733.256
134.483	13.231	971.950	732.259
135.497	13.243	971.370	731.810
136.512	13.281	970.659	731.378
137.527	13.341	969.723	730.871
138.541	13.254	969.434	730.205
139.556	13.295	968.335	729.495
140.570	13.330	967.661	729.072
141.585	13.385	967.086	728.819
142.600	13.466	965.817	728.154
143.614	13.488	965.014	727.582
144.629	13.410	964.727	726.959
145.643	13.435	963.724	726.248
146.658	13.447	962.178	725.071
147.673	13.369	961.831	724.405
148.687	13.330	961.029	723.567
149.702	13.244	959.920	722.291
150.716	13.320	959.402	722.170
151.731	13.276	958.676	721.368
152.746	13.415	957.681	721.159
153.760	13.379	957.202	720.578
154.775	13.459	956.507	720.340
155.789	13.460	956.073	719.953
156.804	13.476	955.363	719.427
157.819	13.618	954.777	719.535
158.833	13.622	954.043	718.938
159.848	13.638	953.131	718.257
160.862	13.590	951.950	717.093
161.877	13.546	950.961	716.096
162.892	13.429	950.305	715.032
163.906	13.441	949.436	714.368
164.921	13.511	948.811	714.134
165.935	13.547	947.600	713.315
166.950	13.569	947.015	712.909
167.964	13.412	946.279	711.615
168.979	13.557	945.393	711.507
169.994	13.504	944.807	710.779
171.008	13.581	943.885	710.352
172.023	13.758	942.858	710.274
173.037	13.769	942.328	709.856
174.052	13.625	941.913	708.867
175.067	13.529	941.347	707.966
176.081	13.531	940.706	707.431
177.096	13.594	940.045	707.141
178.110	13.547	939.484	706.455
179.125	13.614	938.802	706.168
180.140	13.497	938.443	705.335
181.154	13.719	938.270	706.088
182.169	13.752	937.684	705.726
183.183	13.747	936.587	704.817
184.198	13.758	935.520	703.995
185.213	13.766	935.257	703.772
186.227	13.855	934.601	703.593
187.242	13.877	933.588	702.861
188.256	14.026	932.960	702.955
189.271	13.980	932.165	702.098
190.286	13.766	931.530	700.654
191.300	13.649	931.024	699.721
192.315	13.786	930.086	699.531
193.329	13.629	929.775	698.572
194.344	13.746	929.151	698.534
195.359	13.713	928.800	698.072
196.373	13.778	927.863	697.576
197.388	13.881	927.450	697.638
198.402	14.022	926.733	697.628
199.417	13.957	926.234	696.919
200.432	14.195	925.522	697.319
201.446	14.104	925.136	696.585
202.461	14.195	924.894	696.724
203.475	14.037	923.831	695.198
204.490	14.152	923.367	695.269
205.504	14.076	922.335	694.115
206.519	13.954	922.090	693.359
207.534	14.026	921.328	693.026
208.548	13.973	920.430	692.065
209.563	13.954	920.371	691.880
210.577	14.181	918.872	691.637
211.592	14.221	918.368	691.364
212.607	14.164	917.806	690.642
213.621	14.252	917.046	690.372
214.636	14.191	916.253	689.463
215.650	14.145	915.926	688.967
216.665	14.186	914.852	688.266
217.680	14.359	913.945	688.236
218.694	14.263	913.617	687.534
219.709	14.321	912.749	687.058
220.723	14.399	912.075	686.814
221.738	14.274	911.651	685.919
222.753	14.310	911.058	685.561
223.767	14.369	910.346	685.207
224.782	14.467	909.730	685.084
225.796	14.337	909.272	684.145
226.811	14.543	908.197	684.120
227.826	14.477	907.862	683.537
228.840	14.368	906.859	682.275
229.855	14.388	906.363	681.924
230.869	14.390	905.220	681.012
231.884	14.403	904.952	680.804
232.899	14.420	903.837	679.974
233.913	14.511	903.449	679.991
234.928	14.269	903.051	678.644
235.942	14.207	902.784	678.134
236.957	14.364	901.664	677.870
237.972	14.473	900.872	677.658
238.986	14.279	900.485	676.518
240.001	14.425	899.499	676.308
241.015	14.262	899.387	675.503
242.030	14.526	898.315	675.707
243.045	14.460	897.829	675.016
244.059	14.361	897.302	674.160
245.074	14.596	896.499	674.447
246.088	14.569	895.901	673.828
247.103	14.644	895.195	673.542
248.117	14.615	894.690	672.982
249.132	14.689	894.272	672.910
250.147	14.668	893.269	672.007
251.161	14.831	892.640	672.131
252.176	14.851	892.265	671.869
253.190	14.804	891.625	671.142
254.205	14.931	890.633	670.845
255.220	14.922	890.070	670.326
256.234	14.959	889.603	670.060
257.249	14.857	889.133	669.238
258.263	14.917	888.284	668.781
259.278	15.029	887.300	668.429
260.293	15.068	886.695	668.072
261.307	15.101	886.087	667.684
262.322	14.993	885.788	666.970
263.336	15.104	884.733	666.558
264.351	15.171	884.001	666.213
265.366	15.176	883.660	665.919
266.380	15.197	883.059	665.490
267.395	15.067	882.533	664.517
268.409	15.069	881.753	663.881
269.424	15.158	880.830	663.478
270.439	15.109	879.996	662.597
271.453	15.071	879.426	661.960
272.468	15.000	879.278	661.507
273.482	15.033	878.662	661.119
274.497	15.182	877.590	660.839
275.512	15.090	877.342	660.232
276.526	15.138	876.871	660.007
277.541	15.069	876.530	659.423
278.555	15.222	875.566	659.240
279.570	15.262	875.191	659.058
280.585	15.228	874.442	658.302
281.599	15.300	873.829	658.065
282.614	15.165	872.745	656.658
283.628	15.213	872.322	656.472
284.643	15.220	871.671	655.950
285.657	15.249	871.121	655.592
286.672	15.275	870.056	654.833
287.687	15.389	869.560	654.849
288.701	15.422	869.133	654.597
289.716	15.488	868.580	654.382
290.730	15.420	868.235	653.797
291.745	15.426	867.480	653.196
292.760	15.586	866.428	652.966
293.774	15.638	865.891	652.707
294.789	15.482	865.428	651.694
295.803	15.437	864.866	651.039
296.818	15.504	864.065	650.639
297.833	15.295	863.566	649.394
298.847	15.403	862.895	649.250
299.862	15.492	862.458	649.210
300.876	15.504	861.953	648.819
301.891	15.484	861.459	648.309
302.906	15.698	860.284	648.194
303.920	15.696	859.812	647.773
304.935	15.667	859.577	647.427
305.949	15.612	859.153	646.840
306.964	15.750	858.196	646.594
307.979	15.613	857.816	645.723
308.993	15.827	857.231	646.046
310.008	15.767	856.486	645.198
311.022	15.740	855.895	644.592
312.037	15.719	855.325	644.024
313.052	15.631	854.890	643.304
314.066	15.683	854.707	643.309
315.081	15.585	854.128	642.441
316.095	15.715	853.150	642.145
317.110	15.720	852.422	641.559
318.125	15.660	852.219	641.119
319.139	15.667	851.643	640.656
320.154	15.832	851.025	640.765
321.168	15.790	850.612	640.235
322.183	15.815	849.889	639.729
323.197	15.749	849.634	639.230
324.212	15.810	848.875	638.836
325.227	15.941	848.257	638.812
326.241	15.700	847.934	637.597
327.256	15.918	847.196	637.812
328.270	15.785	846.792	636.947
329.285	15.873	846.038	636.657
330.300	15.853	845.407	636.051
331.314	15.835	845.242	635.802
332.329	15.980	844.389	635.648
333.343	16.076	843.764	635.487
334.358	15.957	843.754	634.975
335.373	16.002	843.319	634.761
336.387	15.953	843.006	634.284
337.402	15.994	842.969	634.352
338.416	16.033	842.474	634.071
339.431	16.121	841.624	633.707
340.446	16.114	841.015	633.166
341.460	16.142	840.953	633.170
342.475	16.229	840.519	633.111
343.489	16.226	840.434	632.982
344.504	16.286	839.634	632.548
345.519	16.266	839.115	632.024
346.533	16.194	838.729	631.408
347.548	16.205	838.353	631.110
348.562	16.243	837.473	630.536
349.577	16.258	837.123	630.271
350.592	16.235	836.554	629.702
351.606	16.307	835.510	629.128
352.621	16.283	834.917	628.538
353.635	16.282	834.343	628.046
354.650	16.303	833.788	627.649
355.665	16.194	833.413	626.905
356.679	16.310	832.856	626.863
357.694	16.376	831.922	626.350
358.708	16.451	831.242	626.060
359.723	16.247	830.878	624.975
360.738	16.468	830.280	625.287
361.752	16.599	829.063	624.798
362.767	16.447	828.917	624.073
363.781	16.535	828.595	624.099
364.796	16.540	828.098	623.689
365.810	16.652	827.346	623.480
366.825	16.684	826.939	623.235
367.840	16.501	827.171	622.683
368.854	16.502	826.579	622.184
369.869	16.556	825.991	621.885
370.883	16.537	825.525	621.410
371.898	16.796	825.213	622.073
372.913	16.675	824.705	621.188
373.927	16.665	824.323	620.809
374.942	16.682	823.951	620.538
375.956	16.713	823.060	619.923
376.971	16.744	822.839	619.817
377.986	16.861	822.575	619.993
379.000	16.902	821.906	619.584
380.015	16.943	821.485	619.360
381.029	16.877	820.594	618.393
382.044	16.922	820.112	618.139
383.059	16.823	819.548	617.298
384.073	17.020	818.931	617.494
385.088	16.986	818.303	616.845
386.102	16.866	817.807	615.978
387.117	16.774	817.438	615.312
388.132	16.759	816.891	614.792
389.146	16.889	816.090	614.608
390.161	17.021	815.573	614.641
391.175	16.917	815.525	614.172
392.190	16.979	814.770	613.774
393.205	16.838	814.147	612.742
394.219	16.850	814.076	612.676
395.234	16.992	813.649	612.814
396.248	16.946	812.969	612.083
397.263	16.956	812.501	611.711
398.278	16.905	812.253	611.287
399.292	16.795	812.158	610.763
400.307	17.021	811.340	610.908
401.321	16.897	811.066	610.203
402.336	17.076	810.255	610.181
403.350	17.111	809.679	609.820
404.365	17.190	809.376	609.822
405.380	17.171	808.897	609.339
406.394	17.340	808.367	609.490
407.409	17.325	807.967	609.079
408.423	17.276	807.929	608.825
409.438	17.298	807.550	608.564
410.453	17.235	807.179	608.005
411.467	17.445	806.172	607.940
412.482	17.389	806.102	607.637
413.496	17.354	805.652	607.117
414.511	17.396	805.126	606.816
415.526	17.484	804.726	606.777
416.540	17.515	804.385	606.574
417.555	17.440	804.030	605.988
418.569	17.475	803.575	605.713
419.584	17.437	802.905	605.019
420.599	17.491	802.731	605.029
421.613	109.907	1294.459	1472.804
422.628	94.668	1366.067	1472.926
