DTS Sentinel unit serial number:	SN413079Multiplexer serial number:	ORYXHardware model number:	OX4-SRSoftware version number:	ORYX F/W v4.00 Oryx Data Collector v3.7.2.0data status	okinstallation	princeton_trtdifferential loss correction	single-endedforward channel	channel 1reverse channel	N/Adate	2019/09/10time	21:52:12forward acquisition time	60.00reverse acquisition time	0.00gamma	496.2192k internal	0.2331k external	0.2331temperature offset calibration	0.9938default loss term (dB/km)	0.3790temperature slope calibration	1.0000multiplexer offset coefficient	1.0000multiplexer slope coefficient	1.0000fibre end	0.00T internal ref (°C)	30.81T ext. ref 1 (°C)	-0.31T ext. ref 2 (°C)	24.01length (m)	temperature (°C)	Stokes	anti-Stokes-747.200	-13.487	-0.418	-0.273
-746.185	800.000	-0.079	0.298
-745.171	-200.000	-0.007	0.131
-744.156	-200.000	-0.015	0.211
-743.142	135.355	-0.255	-0.334
-742.127	224.163	0.243	0.394
-741.112	-108.442	-0.071	0.015
-740.098	-23.948	-0.256	0.154
-739.083	18.654	-0.148	-0.119
-738.069	-114.751	-0.121	0.023
-737.054	-56.893	-0.317	-0.141
-736.039	156.585	-0.049	-0.068
-735.025	800.000	-0.144	-0.424
-734.010	800.000	0.024	-0.075
-732.996	304.574	-0.079	-0.147
-731.981	-8.843	-0.314	0.212
-730.966	439.070	-0.036	0.079
-729.952	-121.530	-0.103	-0.017
-728.937	-83.478	-0.140	-0.045
-727.923	-146.664	-0.074	-0.006
-726.908	-200.000	-0.042	-0.214
-725.894	-93.986	-0.106	0.029
-724.879	386.177	-0.175	-0.363
-723.864	-11.362	-0.167	0.110
-722.850	-94.590	-0.346	-0.095
-721.835	119.860	-0.140	-0.175
-720.821	118.760	0.175	0.218
-719.806	273.583	-0.083	0.148
-718.791	800.000	0.068	-0.272
-717.777	330.325	0.109	-0.210
-716.762	-81.653	0.167	-0.055
-715.748	-144.923	-0.219	0.020
-714.733	800.000	-0.121	-0.486
-713.718	-32.132	0.193	-0.109
-712.704	-200.000	0.000	-0.270
-711.689	1.775	-0.219	0.158
-710.675	-17.179	0.058	-0.037
-709.660	129.767	0.112	-0.143
-708.645	523.928	-0.022	-0.053
-707.631	359.580	0.078	0.157
-706.616	44.015	-0.135	0.124
-705.602	207.015	0.055	0.087
-704.587	13.355	-0.098	-0.076
-703.572	-200.000	0.011	-0.098
-702.558	481.616	-0.034	0.077
-701.543	800.000	0.062	-0.206
-700.529	265.756	-0.041	-0.072
-699.514	-200.000	0.048	0.262
-698.499	153.054	-0.110	-0.152
-697.485	-138.889	-0.244	0.027
-696.470	160.515	0.103	-0.144
-695.456	-19.109	-0.252	0.157
-694.441	-0.850	-0.104	-0.074
-693.426	-32.689	-0.211	0.118
-692.412	208.424	0.061	-0.095
-691.397	163.139	-0.108	-0.153
-690.383	67.017	-0.072	0.073
-689.368	-51.106	0.171	0.080
-688.354	-70.737	-0.152	-0.057
-687.339	118.435	0.096	-0.119
-686.324	-47.817	-0.338	0.165
-685.310	277.301	0.118	0.212
-684.295	136.088	0.209	0.273
-683.281	84.193	0.069	0.076
-682.266	800.000	-0.064	-0.195
-681.251	-40.764	0.110	-0.057
-680.237	-103.041	-0.212	-0.050
-679.222	192.075	0.036	0.054
-678.208	473.593	0.110	-0.249
-677.193	-10.170	-0.370	-0.247
-676.178	162.495	0.305	0.429
-675.164	-186.293	-0.147	-0.002
-674.149	-41.299	-0.160	0.083
-673.135	36.787	0.199	0.176
-672.120	253.252	-0.158	0.270
-671.105	-200.000	-0.050	-0.347
-670.091	-200.000	-0.012	0.114
-669.076	117.091	0.107	0.132
-668.062	800.000	-0.032	0.101
-667.047	-84.953	0.067	-0.021
-666.032	524.401	0.108	-0.256
-665.018	16.536	-0.328	-0.260
-664.003	312.036	0.140	-0.263
-662.989	-60.538	0.213	-0.091
-661.974	176.465	-0.184	-0.268
-660.959	219.598	0.104	0.167
-659.945	-69.069	-0.078	0.030
-658.930	-138.248	-0.275	0.031
-657.916	42.308	0.128	-0.117
-656.901	-137.335	-0.237	0.027
-655.886	-200.000	0.006	-0.092
-654.872	-200.000	0.007	-0.166
-653.857	800.000	0.155	-0.433
-652.843	-105.080	0.147	-0.034
-651.828	37.565	0.275	-0.244
-650.814	-200.000	0.108	-0.552
-649.799	399.558	-0.164	0.344
-648.784	-200.000	-0.065	0.288
-647.770	-125.860	-0.325	-0.049
-646.755	21.450	-0.070	-0.057
-645.741	45.042	0.156	-0.144
-644.726	-74.649	-0.509	-0.183
-643.711	224.063	-0.024	-0.039
-642.697	-50.370	-0.114	0.054
-641.682	-180.745	-0.036	-0.001
-640.668	-43.218	-0.080	-0.040
-639.653	128.852	-0.098	0.125
-638.638	-200.000	0.040	0.198
-637.624	120.815	-0.174	-0.217
-636.609	800.000	0.008	-0.029
-635.595	299.083	-0.199	-0.366
-634.580	-31.371	0.096	-0.054
-633.565	-107.393	0.120	-0.026
-632.551	212.836	0.083	0.131
-631.536	-80.135	0.247	-0.083
-630.522	593.144	-0.112	0.278
-629.507	-48.444	-0.105	0.050
-628.492	278.930	-0.102	0.182
-627.478	488.151	0.131	-0.299
-626.463	55.174	-0.310	0.300
-625.449	28.854	0.335	0.284
-624.434	800.000	0.016	0.054
-623.419	-113.728	-0.217	-0.042
-622.405	800.000	-0.012	0.047
-621.390	19.187	0.200	-0.161
-620.376	180.721	0.060	-0.088
-619.361	-12.860	-0.196	0.128
-618.346	-200.000	0.026	-0.160
-617.332	-60.372	0.054	0.023
-616.317	181.486	-0.081	-0.120
-615.303	80.153	0.146	0.157
-614.288	-168.327	-0.221	-0.009
-613.273	-8.285	-0.079	0.053
-612.259	-102.747	0.283	0.067
-611.244	47.342	-0.165	-0.154
-610.230	-15.881	0.114	0.073
-609.215	220.132	0.143	0.229
-608.201	576.553	0.053	0.130
-607.186	-71.745	-0.136	0.051
-606.171	800.000	0.008	-0.028
-605.157	29.012	0.077	0.065
-604.142	204.126	-0.114	0.177
-603.128	-37.612	-0.380	-0.203
-602.113	361.590	0.067	-0.135
-601.098	-200.000	0.039	0.200
-600.084	-65.442	-0.265	-0.106
-599.069	50.605	-0.120	-0.113
-598.055	206.683	-0.083	0.130
-597.040	67.215	0.152	-0.155
-596.025	144.669	-0.134	0.180
-595.011	712.261	0.033	-0.087
-593.996	10.992	-0.041	-0.032
-592.982	501.443	-0.091	0.209
-591.967	31.778	0.192	0.165
-590.952	34.229	0.148	-0.129
-589.938	0.413	0.320	0.229
-588.923	800.000	0.027	-0.084
-587.909	-156.778	-0.157	-0.010
-586.894	6.006	0.307	0.227
-585.879	800.000	0.087	0.338
-584.865	-200.000	-0.006	0.094
-583.850	38.612	0.214	0.191
-582.836	-93.079	-0.043	-0.012
-581.821	-46.884	-0.244	0.119
-580.806	101.177	0.144	0.167
-579.792	-200.000	0.002	-0.098
-578.777	113.233	-0.094	0.114
-577.763	-200.000	-0.019	-0.090
-576.748	-200.000	-0.001	0.102
-575.733	-67.649	-0.016	-0.006
-574.719	46.838	-0.050	0.046
-573.704	-200.000	-0.030	-0.139
-572.690	26.946	0.056	0.047
-571.675	-200.000	-0.057	-0.301
-570.661	800.000	-0.033	-0.102
-569.646	-171.361	0.024	-0.001
-568.631	-62.336	0.284	-0.118
-567.617	14.388	-0.060	-0.047
-566.602	-149.317	0.198	-0.016
-565.588	153.572	0.176	-0.241
-564.573	94.348	0.239	-0.271
-563.558	10.068	0.227	-0.173
-562.544	800.000	-0.016	-0.068
-561.529	800.000	-0.057	0.220
-560.515	-77.285	-0.373	0.130
-559.500	236.725	-0.112	0.185
-558.485	800.000	0.086	0.325
-557.471	191.886	-0.055	-0.082
-556.456	-31.786	0.292	-0.164
-555.442	-140.858	0.333	-0.034
-554.427	401.895	-0.097	-0.203
-553.412	-25.880	-0.136	0.080
-552.398	-106.609	0.347	-0.077
-551.383	285.297	-0.034	-0.060
-550.369	116.466	-0.098	0.120
-549.354	-200.000	0.016	0.120
-548.339	-42.724	0.120	-0.061
-547.325	-158.607	-0.082	0.005
-546.310	-68.908	0.240	0.093
-545.296	751.411	0.134	-0.361
-544.281	280.903	-0.096	-0.172
-543.266	-200.000	0.013	-0.316
-542.252	139.292	0.272	-0.357
-541.237	214.604	-0.093	-0.147
-540.223	-145.700	0.130	-0.012
-539.208	-200.000	0.031	-0.313
-538.193	135.369	0.028	-0.036
-537.179	800.000	-0.087	0.267
-536.164	-200.000	-0.039	-0.457
-535.150	-19.942	-0.142	0.088
-534.135	12.495	-0.117	-0.090
-533.121	-58.036	0.242	-0.105
-532.106	327.277	0.104	-0.199
-531.091	-200.000	0.030	0.193
-530.077	-49.092	-0.302	-0.144
-529.062	385.341	0.151	-0.310
-528.048	-136.831	-0.266	0.031
-527.033	18.588	-0.212	0.169
-526.018	80.570	-0.077	0.083
-525.004	-75.964	-0.252	0.089
-523.989	-14.831	0.177	-0.113
-522.975	-200.000	0.018	-0.227
-521.960	-82.251	0.229	0.075
-520.945	52.295	-0.132	0.126
-519.931	-11.028	0.345	0.227
-518.916	-82.024	-0.224	0.073
-517.902	25.023	-0.120	-0.100
-516.887	6.474	0.162	0.120
-515.872	-200.000	-0.070	-0.619
-514.858	-112.975	-0.171	0.034
-513.843	535.594	0.135	0.318
-512.829	118.027	0.149	0.184
-511.814	-13.724	-0.147	-0.095
-510.799	535.038	-0.138	0.325
-509.785	800.000	-0.090	-0.335
-508.770	346.643	0.137	-0.268
-507.756	-46.044	0.304	0.150
-506.741	14.421	-0.250	0.194
-505.726	-57.233	0.209	-0.092
-504.712	-121.322	0.108	0.018
-503.697	-102.284	0.353	-0.084
-502.683	-55.687	-0.101	0.045
-501.668	6.648	-0.071	-0.053
-500.653	5.580	-0.155	0.114
-499.639	-124.590	0.175	-0.027
-498.624	-200.000	-0.024	0.296
-497.610	381.863	-0.208	-0.426
-496.595	151.660	-0.055	0.075
-495.581	180.866	-0.026	0.038
-494.566	-7.496	-0.008	0.005
-493.551	-54.026	0.151	-0.068
-492.537	60.042	0.154	-0.152
-491.522	148.264	0.103	0.139
-490.508	-200.000	0.070	-0.362
-489.493	123.934	0.093	-0.116
-488.478	-200.000	-0.007	0.110
-487.464	-19.919	0.325	0.200
-486.449	800.000	-0.047	0.132
-485.435	800.000	0.075	0.212
-484.420	-103.073	-0.268	0.063
-483.405	-200.000	0.028	-0.155
-482.391	81.295	0.144	-0.155
-481.376	191.900	0.122	0.183
-480.362	-83.313	-0.235	0.075
-479.347	-160.451	-0.311	-0.017
-478.332	93.090	-0.232	0.262
-477.318	90.078	0.131	0.146
-476.303	31.629	-0.127	0.109
-475.289	217.074	0.129	-0.205
-474.274	-200.000	-0.002	0.047
-473.259	-13.248	-0.391	0.253
-472.245	-37.151	-0.095	-0.051
-471.230	-90.057	0.210	-0.061
-470.216	-82.153	0.304	0.099
-469.201	15.893	0.125	0.098
-468.186	-200.000	0.013	0.241
-467.172	108.675	0.177	-0.211
-466.157	-200.000	-0.059	0.333
-465.143	-115.755	-0.360	0.067
-464.128	-121.855	0.152	0.025
-463.113	462.081	-0.120	-0.266
-462.099	-148.313	0.360	-0.029
-461.084	294.357	-0.147	0.268
-460.070	51.406	-0.169	0.160
-459.055	-128.233	0.190	0.027
-458.040	-15.521	0.140	-0.089
-457.026	87.055	0.252	0.277
-456.011	-13.014	0.166	-0.108
-454.997	147.637	0.156	0.210
-453.982	179.737	-0.194	0.283
-452.968	0.956	-0.144	-0.103
-451.953	11.451	0.170	-0.130
-450.938	-200.000	0.000	-0.023
-449.924	182.526	0.224	0.329
-448.909	53.934	-0.351	0.336
-447.895	-108.403	-0.085	-0.018
-446.880	20.587	0.126	-0.102
-445.865	-36.943	-0.313	0.167
-444.851	13.802	-0.183	0.142
-443.836	-141.152	0.036	-0.004
-442.822	-118.866	-0.074	-0.013
-441.807	58.437	-0.241	-0.235
-440.792	-200.000	-0.046	0.353
-439.778	800.000	0.089	-0.263
-438.763	167.985	-0.071	-0.100
-437.749	38.319	0.166	-0.147
-436.734	-85.981	-0.206	0.063
-435.719	183.564	-0.099	0.146
-434.705	-111.454	-0.134	0.027
-433.690	256.660	-0.040	-0.069
-432.676	-62.012	-0.180	0.075
-431.661	800.000	0.037	-0.142
-430.646	800.000	-0.068	-0.244
-429.632	21.603	-0.315	-0.255
-428.617	-80.578	-0.304	-0.101
-427.603	618.645	-0.117	-0.291
-426.588	363.749	-0.133	-0.266
-425.573	15.633	0.182	0.142
-424.559	-44.812	-0.150	0.075
-423.544	-118.931	0.414	0.072
-422.530	800.000	-0.061	0.172
-421.515	800.000	-0.048	-0.203
-420.500	-200.000	0.048	0.344
-419.486	800.000	0.034	-0.119
-418.471	148.080	0.106	0.143
-417.457	-200.000	-0.064	0.367
-416.442	-172.053	0.143	0.005
-415.428	22.327	-0.057	-0.046
-414.413	800.000	-0.082	-0.302
-413.398	-200.000	0.014	-0.473
-412.384	607.755	0.138	-0.343
-411.369	23.657	0.079	0.064
-410.355	-200.000	-0.015	-0.215
-409.340	-105.144	0.281	-0.064
-408.325	630.450	-0.096	-0.242
-407.311	-67.092	-0.041	-0.016
-406.296	0.221	-0.249	0.176
-405.282	-200.000	0.003	0.049
-404.267	386.219	-0.232	-0.476
-403.252	-200.000	0.072	-0.348
-402.238	-143.858	0.043	-0.004
-401.223	-72.924	-0.365	-0.133
-400.209	43.825	-0.178	0.162
-399.194	-200.000	-0.021	0.134
-398.179	173.217	-0.132	0.189
-397.165	514.435	0.057	-0.132
-396.150	137.244	-0.305	0.396
-395.136	-76.960	-0.122	0.042
-394.121	274.494	0.227	0.399
-393.106	-200.000	0.007	0.125
-392.092	33.877	0.115	-0.099
-391.077	-200.000	0.006	0.041
-390.063	-71.926	-0.446	-0.165
-389.048	-102.285	0.081	-0.019
-388.033	233.437	0.061	-0.100
-387.019	-12.190	-0.088	0.057
-386.004	-200.000	-0.061	0.329
-384.990	800.000	-0.058	0.158
-383.975	-200.000	-0.045	0.246
-382.960	-200.000	-0.004	-0.286
-381.946	-200.000	0.021	0.193
-380.931	-200.000	-0.002	0.279
-379.917	-22.765	-0.217	-0.130
-378.902	303.060	0.107	-0.196
-377.888	84.853	-0.238	0.258
-376.873	405.125	-0.070	0.146
-375.858	171.439	0.124	-0.177
-374.844	-83.692	-0.327	0.104
-373.829	-35.795	0.317	0.170
-372.815	-200.000	0.037	0.231
-371.800	-120.001	0.020	-0.003
-370.785	26.639	0.225	0.187
-369.771	-126.341	-0.276	-0.041
-368.756	11.679	0.081	-0.061
-367.742	-200.000	-0.015	-0.156
-366.727	63.933	-0.212	-0.211
-365.712	-36.119	0.048	0.026
-364.698	-80.219	0.101	-0.033
-363.683	-200.000	-0.030	0.303
-362.669	-200.000	0.053	-0.248
-361.654	595.563	0.075	0.184
-360.639	23.558	0.178	0.145
-359.625	-65.815	-0.167	-0.066
-358.610	-46.110	0.145	0.071
-357.596	120.218	-0.229	0.282
-356.581	-110.115	0.253	-0.052
-355.566	-97.531	0.234	0.060
-354.552	19.420	-0.256	-0.204
-353.537	32.720	0.233	-0.200
-352.523	190.246	-0.102	0.152
-351.508	-176.425	-0.416	0.011
-350.493	-65.943	0.143	-0.057
-349.479	-200.000	0.030	0.000
-348.464	162.272	-0.114	-0.158
-347.450	52.505	0.212	-0.201
-346.435	-56.953	0.429	0.188
-345.420	340.182	0.083	0.160
-344.406	107.961	-0.092	0.108
-343.391	-147.882	-0.178	0.015
-342.377	-156.412	-0.193	0.012
-341.362	207.547	0.109	0.168
-340.348	493.029	0.101	0.229
-339.333	-119.207	0.236	0.041
-338.318	243.845	0.153	0.255
-337.304	-199.503	-0.144	-0.001
-336.289	69.432	-0.173	0.177
-335.275	-200.000	0.025	-0.110
-334.260	-200.000	0.000	-0.128
-333.245	-70.009	0.004	-0.002
-332.231	-200.000	0.004	-0.050
-331.216	-67.076	0.132	0.052
-330.202	573.690	-0.043	-0.104
-329.187	-11.433	0.034	-0.022
-328.172	-34.771	-0.161	0.087
-327.158	73.770	0.125	-0.130
-326.143	-200.000	-0.014	0.090
-325.129	95.294	-0.080	-0.090
-324.114	-76.203	0.099	0.035
-323.099	-75.968	0.070	-0.024
-322.085	8.316	0.241	-0.179
-321.070	-200.000	0.024	-0.198
-320.056	-200.000	-0.038	0.185
-319.041	800.000	-0.038	-0.138
-318.026	800.000	-0.086	0.318
-317.012	800.000	0.016	0.048
-315.997	800.000	0.018	-0.050
-314.983	-150.127	0.102	-0.008
-313.968	800.000	0.046	0.185
-312.953	-20.007	0.282	-0.172
-311.939	-172.096	0.360	-0.011
-310.924	173.258	0.111	-0.158
-309.910	-200.000	0.007	-0.138
-308.895	424.787	0.057	0.121
-307.880	-94.509	0.107	-0.029
-306.866	212.036	0.099	0.154
-305.851	6.047	0.185	-0.136
-304.837	227.848	-0.228	-0.367
-303.822	71.262	0.048	0.049
-302.807	-68.290	0.254	0.098
-301.793	73.597	-0.185	0.191
-300.778	172.135	0.227	-0.323
-299.764	-129.927	0.154	0.021
-298.749	58.877	0.279	-0.271
-297.735	-48.051	0.079	-0.038
-296.720	100.623	0.136	-0.156
-295.705	104.749	0.104	-0.121
-294.691	515.783	-0.099	0.228
-293.676	58.442	0.238	-0.230
-292.662	-200.000	0.029	-0.387
-291.647	-33.464	-0.123	-0.067
-290.632	800.000	-0.008	0.031
-289.618	-152.765	-0.047	-0.003
-288.603	-200.000	0.064	0.295
-287.589	-32.933	-0.130	-0.072
-286.574	80.414	0.055	-0.058
-285.559	403.480	-0.131	-0.273
-284.545	-71.806	-0.183	0.067
-283.530	-54.739	-0.292	0.131
-282.516	-30.343	0.130	-0.073
-281.501	-125.364	-0.343	-0.052
-280.486	-21.115	-0.029	0.018
-279.472	-200.000	0.023	0.298
-278.457	800.000	0.120	0.438
-277.443	-159.726	-0.069	-0.004
-276.428	-49.128	-0.129	0.061
-275.413	235.981	0.264	0.431
-274.399	-155.953	0.104	0.007
-273.384	-200.000	-0.052	-0.313
-272.370	-162.696	0.331	-0.016
-271.355	24.423	-0.142	-0.116
-270.340	-144.061	0.452	0.042
-269.326	-77.022	-0.058	-0.020
-268.311	-200.000	-0.006	0.272
-267.297	-22.603	-0.047	0.028
-266.282	-89.010	-0.125	-0.037
-265.267	-200.000	0.001	-0.134
-264.253	254.671	0.103	-0.174
-263.238	608.717	0.043	-0.106
-262.224	-200.000	-0.004	-0.119
-261.209	259.376	0.110	-0.187
-260.195	4.325	0.082	-0.060
-259.180	590.309	0.105	0.257
-258.165	-200.000	0.018	0.118
-257.151	-133.802	-0.079	0.010
-256.136	-200.000	-0.092	0.435
-255.122	-121.437	-0.188	0.031
-254.107	-38.961	-0.214	0.111
-253.092	800.000	0.053	-0.188
-252.078	-200.000	0.033	-0.162
-251.063	-103.900	0.117	-0.027
-250.049	626.371	-0.052	0.130
-249.034	31.692	-0.137	-0.117
-248.019	349.184	-0.034	0.065
-247.005	306.531	0.059	0.109
-245.990	800.000	-0.038	-0.104
-244.976	-11.950	-0.139	-0.090
-243.961	46.771	-0.178	0.163
-242.946	-200.000	0.054	0.296
-241.932	436.321	0.056	-0.120
-240.917	-200.000	-0.054	-0.666
-239.903	45.205	0.142	0.129
-238.888	-60.757	0.336	-0.140
-237.873	-17.006	0.080	-0.050
-236.859	174.650	0.156	-0.223
-235.844	-25.412	0.047	0.027
-234.830	-200.000	0.007	-0.130
-233.815	73.953	0.097	-0.101
-232.800	-182.519	-0.046	0.001
-231.786	598.828	0.075	-0.183
-230.771	-7.692	0.115	-0.077
-229.757	48.306	-0.023	0.021
-228.742	-75.932	0.236	-0.082
-227.727	-107.043	-0.010	0.002
-226.713	53.059	0.204	-0.192
-225.698	324.785	-0.106	0.200
-224.684	777.427	-0.089	-0.241
-223.669	-200.000	-0.009	-0.229
-222.655	75.605	-0.095	-0.099
-221.640	10.914	-0.245	-0.184
-220.625	-40.173	-0.312	0.160
-219.611	166.479	0.089	-0.125
-218.596	-200.000	-0.040	0.324
-217.582	-90.454	0.146	-0.042
-216.567	165.608	-0.117	-0.163
-215.552	-200.000	0.022	0.193
-214.538	-18.911	0.136	0.084
-213.523	107.694	0.153	0.179
-212.509	-56.796	-0.211	0.092
-211.494	-200.000	-0.011	0.383
-210.479	-200.000	0.035	0.202
-209.465	50.164	-0.265	0.246
-208.450	82.971	0.131	-0.140
-207.436	55.143	-0.230	0.219
-206.421	-16.352	-0.138	0.086
-205.406	-149.329	-0.433	-0.034
-204.392	-101.260	0.266	-0.064
-203.377	800.000	-0.144	0.419
-202.363	-91.809	-0.171	-0.048
-201.348	446.119	0.026	-0.056
-200.333	-200.000	-0.029	-0.240
-199.319	174.077	-0.076	-0.108
-198.304	-200.000	-0.021	-0.200
-197.290	-123.527	0.148	0.023
-196.275	-200.000	-0.004	0.025
-195.260	70.218	-0.062	0.063
-194.246	-50.781	0.407	0.189
-193.231	177.285	0.039	0.056
-192.217	223.198	-0.114	-0.181
-191.202	800.000	-0.116	-0.392
-190.187	-200.000	0.024	0.117
-189.173	-200.000	-0.013	-0.265
-188.158	-25.173	0.270	-0.157
-187.144	-34.092	-0.081	-0.044
-186.129	53.998	0.269	-0.255
-185.114	-15.726	0.188	0.118
-184.100	560.102	-0.099	-0.235
-183.085	-74.824	0.098	0.035
-182.071	-55.504	0.115	0.051
-181.056	178.360	-0.137	0.196
-180.042	213.207	0.211	-0.328
-179.027	-58.571	0.104	-0.044
-178.012	-79.632	-0.061	-0.020
-176.998	-111.904	-0.392	0.078
-175.983	-37.320	0.364	0.191
-174.969	-109.263	0.080	-0.017
-173.954	9.635	0.230	-0.172
-172.939	-148.658	-0.328	0.026
-171.925	-200.000	0.044	-0.274
-170.910	114.041	0.174	0.208
-169.896	800.000	0.047	-0.143
-168.881	154.473	-0.184	-0.249
-167.866	777.770	-0.062	-0.168
-166.852	-95.910	-0.380	-0.100
-165.837	403.597	-0.132	-0.273
-164.823	32.392	0.076	-0.065
-163.808	361.075	-0.062	0.122
-162.793	12.666	0.072	0.055
-161.779	-200.000	-0.020	0.281
-160.764	626.180	-0.130	-0.323
-159.750	-76.731	-0.222	-0.076
-158.735	366.278	-0.015	0.029
-157.720	-200.000	0.030	0.247
-156.706	384.381	0.100	0.203
-155.691	-200.000	-0.037	0.210
-154.677	33.027	-0.187	-0.159
-153.662	50.394	-0.279	0.259
-152.647	429.009	-0.056	0.119
-151.633	-101.929	0.160	0.038
-150.618	241.836	0.140	0.230
-149.604	-200.000	0.017	0.477
-148.589	169.076	-0.080	0.113
-147.574	-155.976	-0.082	0.005
-146.560	-80.015	0.191	0.063
-145.545	-10.811	0.157	0.102
-144.531	-200.000	0.010	-0.288
-143.516	-100.645	-0.011	-0.003
-142.502	303.575	0.178	0.324
-141.487	-200.000	0.007	0.095
-140.472	72.934	0.288	-0.296
-139.458	457.068	-0.079	-0.172
-138.443	-135.127	-0.408	0.048
-137.429	-86.489	-0.251	-0.076
-136.414	173.025	0.180	-0.255
-135.399	18.445	0.313	0.246
-134.385	-200.000	0.008	0.102
-133.370	120.092	-0.093	-0.113
-132.356	604.569	-0.070	-0.172
-131.341	-200.000	-0.023	-0.121
-130.326	-200.000	-0.045	0.353
-129.312	320.200	0.096	0.178
-128.297	-47.843	0.200	0.095
-127.283	287.906	-0.071	0.127
-126.268	800.000	0.027	0.109
-125.253	438.103	0.066	0.141
-124.239	-76.226	-0.396	-0.137
-123.224	190.470	-0.088	-0.129
-122.210	-200.000	-0.016	-0.193
-121.195	763.440	-0.031	-0.083
-120.180	-155.016	-0.387	-0.025
-119.166	98.542	-0.157	-0.177
-118.151	278.101	-0.116	0.202
-117.137	68.882	0.235	0.237
-116.122	32.052	0.256	-0.217
-115.107	68.486	-0.195	0.197
-114.093	55.636	0.031	0.029
-113.078	98.698	-0.086	0.097
-112.064	-156.328	-0.072	-0.004
-111.049	-109.256	-0.247	-0.051
-110.034	-14.549	-0.301	0.190
-109.020	-200.000	-0.027	0.130
-108.005	-26.297	-0.185	0.107
-106.991	9.325	0.206	-0.153
-105.976	15.503	0.302	-0.233
-104.962	-124.243	-0.303	-0.047
-103.947	157.035	0.154	-0.209
-102.932	-200.000	0.041	-0.347
-101.918	-77.339	0.183	0.062
-100.903	-43.756	-0.295	0.146
-99.889	-15.517	0.109	-0.068
-98.874	755.640	0.042	-0.111
-97.859	76.420	0.123	-0.128
-96.845	-200.000	-0.033	-0.219
-95.830	-200.000	-0.008	-0.113
-94.816	-200.000	-0.039	0.319
-93.801	800.000	-0.022	-0.072
-92.786	60.006	-0.360	-0.349
-91.772	800.000	-0.137	0.397
-90.757	114.248	0.159	0.190
-89.743	-117.157	0.258	0.046
-88.728	676.208	0.173	-0.442
-87.713	88.410	-0.171	0.187
-86.699	800.000	0.054	-0.177
-85.684	-200.000	0.008	-0.170
-84.670	-167.783	-0.431	-0.017
-83.655	122.502	0.123	-0.151
-82.640	800.000	-0.048	0.135
-81.626	-84.247	0.005	0.001
-80.611	-200.000	-0.058	0.327
-79.597	35.755	-0.112	0.096
-78.582	800.000	-0.030	-0.103
-77.567	-40.022	0.242	-0.124
-76.553	564.048	0.105	0.250
-75.538	312.528	-0.144	0.264
-74.524	-200.000	-0.036	0.193
-73.509	371.750	0.078	-0.156
-72.494	454.121	0.046	0.100
-71.480	423.560	-0.096	-0.203
-70.465	-200.000	0.003	-0.165
-69.451	290.650	-0.029	-0.052
-68.436	184.863	-0.160	-0.233
-67.422	295.676	0.055	-0.099
-66.407	-200.000	-0.040	-0.241
-65.392	-200.000	-0.035	-0.151
-64.378	-143.533	-0.328	0.031
-63.363	114.718	0.120	0.144
-62.349	290.945	0.083	0.147
-61.334	47.124	-1.134	-1.034
-60.319	103.157	0.544	0.624
-59.305	257.712	-0.357	-0.602
-58.290	314.948	0.579	1.069
-57.276	536.257	0.632	1.468
-56.261	-200.000	100.181	615.723
-55.246	555.031	1438.002	3390.230
-54.232	187.148	2633.487	3846.026
-53.217	116.665	2145.767	2578.655
-52.203	43.001	1590.856	1421.056
-51.188	34.420	1324.948	1132.774
-50.173	31.178	1283.816	1078.861
-49.159	54.799	1334.848	1261.486
-48.144	56.115	1350.516	1283.984
-47.130	34.428	1307.485	1117.714
-46.115	30.903	1289.894	1082.201
-45.100	30.756	1285.028	1077.228
-44.086	30.776	1282.291	1075.003
-43.071	30.707	1280.199	1072.810
-42.057	30.665	1278.237	1070.883
-41.042	30.706	1276.485	1069.608
-40.027	30.804	1274.900	1068.800
-39.013	30.750	1273.302	1067.106
-37.998	30.687	1271.385	1065.098
-36.984	30.758	1269.930	1064.245
-35.969	30.708	1268.280	1062.535
-34.954	30.916	1266.333	1062.045
-33.940	30.790	1265.736	1060.782
-32.925	30.911	1264.077	1060.042
-31.911	30.770	1262.954	1058.257
-30.896	30.914	1261.062	1057.443
-29.881	30.980	1259.633	1056.576
-28.867	30.875	1258.256	1054.785
-27.852	30.976	1257.160	1054.397
-26.838	30.913	1255.545	1052.647
-25.823	30.966	1254.441	1051.979
-24.809	30.893	1253.103	1050.402
-23.794	30.990	1251.601	1049.649
-22.779	30.940	1250.526	1048.424
-21.765	30.928	1249.206	1047.209
-20.750	30.933	1247.457	1045.728
-19.736	30.860	1246.742	1044.678
-18.721	30.720	1245.351	1042.687
-17.706	30.763	1244.051	1041.794
-16.692	30.764	1243.148	1041.002
-15.677	30.707	1242.152	1039.809
-14.663	30.722	1241.064	1038.942
-13.648	30.623	1240.771	1038.106
-12.633	30.802	1238.982	1037.564
-11.619	30.796	1238.052	1036.711
-10.604	30.802	1237.275	1036.052
-9.590	30.686	1236.603	1034.800
-8.575	30.755	1235.438	1034.170
-7.560	30.691	1234.657	1033.122
-6.546	30.755	1233.494	1032.461
-5.531	30.801	1232.600	1031.928
-4.517	30.759	1231.602	1030.820
-3.502	30.805	1231.047	1030.569
-2.487	30.726	1229.816	1029.056
-1.473	30.708	1226.321	1025.993
-0.458	29.012	1211.579	1004.371
0.556	23.364	1193.520	966.407
1.571	19.673	1198.525	950.120
2.586	18.776	1213.457	956.873
3.600	18.622	1202.354	947.187
4.615	13.643	1131.804	865.589
5.629	4.436	1057.392	763.508
6.644	-0.039	1037.269	727.296
7.659	-0.415	1035.138	723.923
8.673	-0.383	1033.620	722.950
9.688	-0.393	1032.008	721.711
10.702	-0.087	1030.792	722.266
11.717	5.615	1038.545	755.190
12.731	14.597	1051.735	808.407
13.746	18.862	1056.178	832.458
14.761	19.339	1056.515	834.962
15.775	19.162	1055.966	833.594
16.790	19.004	1054.903	831.919
17.804	18.846	1054.479	830.748
18.819	19.060	1053.973	831.310
19.834	19.161	1053.274	831.169
20.848	18.978	1053.176	830.138
21.863	19.017	1052.675	829.854
22.877	18.912	1051.712	828.517
23.892	18.892	1050.996	827.785
24.907	19.049	1050.503	828.079
25.921	19.112	1048.983	827.108
26.936	19.080	1048.040	826.141
27.950	19.074	1045.678	824.177
28.965	18.841	1044.340	821.932
29.980	18.948	1042.407	820.852
30.994	19.030	1041.730	820.636
32.009	19.006	1040.872	819.774
33.023	18.757	1039.547	817.474
34.038	18.999	1038.629	817.828
35.053	19.067	1037.910	817.515
36.067	19.049	1037.217	816.811
37.082	19.245	1035.997	816.707
38.096	19.379	1035.391	816.788
39.111	19.320	1034.598	815.815
40.126	19.218	1033.137	814.108
41.140	19.019	1031.432	811.755
42.155	18.715	1030.133	809.224
43.169	18.834	1029.407	809.143
44.184	18.938	1028.031	808.480
45.199	18.571	1027.208	806.038
46.213	18.774	1025.894	805.886
47.228	18.989	1024.746	805.924
48.242	18.825	1024.148	804.612
49.257	18.970	1023.311	804.564
50.271	19.138	1022.331	804.503
51.286	19.131	1021.417	803.683
52.301	18.985	1020.709	802.372
53.315	19.122	1019.395	801.906
54.330	19.112	1018.292	800.923
55.344	19.057	1017.880	800.269
56.359	19.002	1016.672	798.997
57.374	18.800	1015.764	797.274
58.388	18.920	1014.793	796.998
59.403	18.891	1013.776	795.992
60.417	18.664	1013.135	794.370
61.432	18.833	1012.484	794.570
62.447	18.956	1012.210	794.852
63.461	18.963	1011.106	793.947
64.476	18.903	1010.416	793.059
65.490	18.750	1009.273	791.388
66.505	18.836	1008.336	790.981
67.520	18.996	1007.646	791.103
68.534	18.719	1006.639	788.968
69.549	18.524	1005.309	786.964
70.563	18.500	1004.564	786.199
71.578	18.471	1004.341	785.821
72.593	18.376	1002.846	784.149
73.607	18.635	1002.180	784.742
74.622	18.817	1001.861	785.258
75.636	18.753	1001.504	784.615
76.651	18.601	1000.231	782.854
77.666	18.550	999.912	782.301
78.680	18.727	998.753	782.133
79.695	18.844	998.256	782.205
80.709	18.842	997.555	781.578
81.724	18.745	996.675	780.378
82.739	18.998	995.520	780.556
83.753	19.230	995.274	781.343
84.768	19.202	994.254	780.351
85.782	19.313	993.441	780.145
86.797	19.308	992.175	779.059
87.812	19.034	991.183	776.975
88.826	19.182	990.636	777.141
89.841	19.330	989.248	776.651
90.855	19.188	988.679	775.497
91.870	19.264	987.314	774.701
92.884	19.145	986.490	773.451
93.899	19.027	985.609	772.161
94.914	19.340	984.796	772.858
95.928	19.087	983.843	770.912
96.943	18.922	982.238	768.848
97.957	18.661	981.072	766.702
98.972	18.568	979.926	765.323
99.987	18.853	978.969	765.776
101.001	19.004	978.543	766.050
102.016	19.032	977.534	765.315
103.030	18.892	976.222	763.598
104.045	18.807	975.270	762.411
105.060	18.661	974.253	760.900
106.074	18.888	973.777	761.467
107.089	19.166	973.579	762.473
108.103	19.130	972.362	761.295
109.118	18.930	970.841	759.155
110.133	18.988	969.976	758.669
111.147	18.840	968.562	756.839
112.162	18.698	967.615	755.409
113.176	18.820	967.003	755.403
114.191	18.802	965.804	754.317
115.206	18.527	965.138	752.527
116.220	18.563	963.968	751.704
117.235	18.759	962.881	751.648
118.249	18.598	962.488	750.569
119.264	18.495	961.927	749.616
120.279	18.665	960.498	749.180
121.293	18.611	960.039	748.519
122.308	18.843	959.127	748.751
123.322	18.762	957.452	747.024
124.337	18.646	956.437	745.663
125.352	18.117	954.902	742.104
126.366	18.152	953.800	741.336
127.381	18.813	953.594	743.972
128.395	19.150	952.872	744.802
129.410	19.203	952.194	744.438
130.424	19.202	951.202	743.592
131.439	19.148	950.234	742.535
132.454	19.053	949.700	741.642
133.468	19.129	948.382	740.873
134.483	19.138	947.789	740.384
135.497	19.346	946.954	740.561
136.512	19.244	946.432	739.650
137.527	19.433	944.916	739.210
138.541	19.433	944.334	738.688
139.556	19.457	943.392	737.988
140.570	19.399	942.840	737.242
141.585	19.380	941.630	736.151
142.600	19.365	940.959	735.495
143.614	19.510	940.293	735.531
144.629	19.531	939.110	734.628
145.643	19.470	937.907	733.362
146.658	19.372	936.745	731.975
147.673	19.242	935.776	730.602
148.687	19.178	934.960	729.627
149.702	19.263	933.543	728.818
150.716	19.148	932.881	727.748
151.731	19.389	932.181	728.156
152.746	19.449	931.818	728.062
153.760	19.419	931.294	727.460
154.775	19.546	930.579	727.374
155.789	19.491	929.294	726.076
156.804	19.427	928.943	725.465
157.819	19.428	927.946	724.628
158.833	19.651	926.583	724.436
159.848	19.380	925.923	722.719
160.862	19.500	924.556	722.089
161.877	19.418	924.353	721.524
162.892	19.496	923.447	721.078
163.906	19.522	921.912	719.927
164.921	19.537	921.237	719.396
165.935	19.532	920.390	718.649
166.950	19.493	919.358	717.618
167.964	19.593	918.640	717.411
168.979	19.372	917.415	715.475
169.994	19.379	916.402	714.650
171.008	19.496	916.360	715.040
172.023	19.501	915.160	714.059
173.037	19.278	913.966	712.142
174.052	19.108	913.112	710.712
175.067	19.246	912.543	710.775
176.081	19.345	912.286	710.923
177.096	19.361	911.741	710.500
178.110	19.073	910.376	708.187
179.125	19.112	909.645	707.716
180.140	18.958	909.327	706.774
181.154	19.088	909.128	707.090
182.169	19.373	908.627	707.809
183.183	19.594	908.207	708.326
184.198	19.552	907.022	707.167
185.213	19.353	906.651	706.001
186.227	19.455	905.937	705.798
187.242	19.565	904.673	705.203
188.256	19.501	904.616	704.833
189.271	19.596	903.429	704.234
190.286	19.392	902.534	702.644
191.300	18.874	901.173	699.412
192.315	18.185	899.701	695.408
193.329	18.177	899.361	695.053
194.344	18.973	899.935	698.671
195.359	19.582	899.029	700.377
196.373	19.405	898.946	699.528
197.388	19.205	898.299	698.156
198.402	19.189	897.488	697.396
199.417	19.164	896.825	696.721
200.432	19.167	895.590	695.712
201.446	19.029	894.751	694.440
202.461	18.841	894.456	693.391
203.475	18.089	892.868	689.068
204.490	17.564	891.294	685.678
205.504	18.389	892.142	689.595
206.519	19.112	891.676	692.081
207.534	19.215	890.984	691.895
208.548	19.430	890.953	692.676
209.563	19.337	889.910	691.430
210.577	19.245	889.318	690.538
211.592	19.572	888.923	691.481
212.607	19.468	888.221	690.460
213.621	19.525	887.234	689.857
214.636	19.654	886.413	689.675
215.650	19.535	885.852	688.700
216.665	19.633	885.249	688.562
217.680	19.426	884.676	687.232
218.694	18.987	883.311	684.365
219.709	19.048	882.605	683.999
220.723	19.305	882.108	684.572
221.738	19.394	881.509	684.399
222.753	19.423	881.027	684.082
223.767	19.506	880.899	684.251
224.782	19.767	879.993	684.520
225.796	19.666	879.312	683.528
226.811	18.955	878.164	679.767
227.826	18.387	877.122	676.655
228.840	18.801	876.339	677.626
229.855	18.699	876.082	676.965
230.869	18.443	874.833	674.931
231.884	18.725	875.081	676.176
232.899	19.432	874.691	678.596
233.913	19.406	873.829	677.763
234.928	19.432	873.301	677.397
235.942	19.361	872.704	676.598
236.957	19.180	871.778	675.109
237.972	19.010	871.508	674.173
238.986	19.348	870.732	674.835
240.001	19.276	869.851	673.811
241.015	19.248	869.239	673.172
242.030	19.438	868.632	673.383
243.045	19.523	868.350	673.436
244.059	19.535	867.901	673.074
245.074	19.436	866.554	671.583
246.088	19.071	865.738	669.473
247.103	19.350	865.465	670.289
248.117	19.756	865.335	671.704
249.132	19.934	864.860	671.970
250.147	20.016	864.287	671.783
251.161	20.295	863.567	672.245
252.176	20.183	863.099	671.386
253.190	20.069	862.643	670.532
254.205	20.293	861.803	670.686
255.220	20.368	861.064	670.338
256.234	20.221	860.346	669.155
257.249	20.254	859.349	668.446
258.263	20.134	858.983	667.639
259.278	20.300	858.095	667.529
260.293	20.414	857.376	667.348
261.307	20.018	856.898	665.398
262.322	20.003	855.710	664.358
263.336	19.161	853.535	659.390
264.351	18.284	851.708	654.565
265.366	18.274	851.866	654.590
266.380	19.475	852.464	659.588
267.395	19.839	852.501	660.947
268.409	19.732	851.795	659.932
269.424	19.836	851.092	659.727
270.439	20.049	850.478	660.006
271.453	20.175	849.637	659.773
272.468	20.317	849.537	660.176
273.482	20.345	849.084	659.874
274.497	19.858	847.532	656.759
275.512	19.510	847.068	655.024
276.526	20.005	847.135	656.893
277.541	20.148	846.525	656.906
278.555	19.815	845.352	654.676
279.570	19.563	844.466	652.980
280.585	19.888	844.064	653.840
281.599	19.795	843.186	652.750
282.614	19.365	842.415	650.472
283.628	19.406	841.900	650.172
284.643	19.629	841.471	650.625
285.657	19.207	840.618	648.321
286.672	19.104	838.935	646.578
287.687	19.543	839.291	648.441
288.701	19.544	838.842	648.044
289.716	19.307	837.924	646.388
290.730	19.280	837.159	645.639
291.745	19.075	836.221	644.090
292.760	19.389	835.741	644.839
293.774	20.427	835.825	648.724
294.789	20.437	835.780	648.671
295.803	20.572	835.499	648.900
296.818	20.698	834.775	648.748
297.833	20.299	833.794	646.445
298.847	20.207	832.925	645.372
299.862	20.539	833.042	646.638
300.876	20.594	832.456	646.329
301.891	20.534	831.541	645.342
302.906	20.140	830.436	642.967
303.920	20.124	830.058	642.556
304.935	20.612	829.597	643.951
305.949	20.459	829.149	642.979
306.964	20.237	828.349	641.481
307.979	20.332	828.067	641.556
308.993	20.781	828.124	643.205
310.008	20.828	827.134	642.551
311.022	20.547	826.505	640.968
312.037	20.471	825.925	640.182
313.052	20.228	824.874	638.418
314.066	19.286	823.744	634.024
315.081	19.115	823.012	632.773
316.095	19.929	823.434	636.036
317.110	20.227	823.147	636.853
318.125	19.555	821.842	633.322
319.139	18.849	820.069	629.313
320.154	18.804	819.807	628.892
321.168	19.563	820.253	631.957
322.183	20.162	820.389	634.201
323.197	20.217	820.006	634.048
324.212	20.409	819.655	634.421
325.227	20.389	818.944	633.741
326.241	20.203	818.464	632.636
327.256	20.369	817.512	632.450
328.270	20.165	816.955	631.218
329.285	20.049	816.221	630.176
330.300	19.884	815.370	628.862
331.314	20.229	814.982	629.760
332.329	20.486	814.761	630.466
333.343	20.602	814.618	630.720
334.358	20.520	814.148	630.004
335.373	20.678	813.667	630.148
336.387	20.813	813.642	630.563
337.402	20.965	813.361	630.837
338.416	20.747	812.749	629.520
339.431	20.916	812.039	629.525
340.446	21.025	812.250	630.025
341.460	20.910	811.695	629.123
342.475	20.516	811.316	627.353
343.489	20.822	810.366	627.668
344.504	21.145	810.195	628.642
345.519	21.297	809.792	628.823
346.533	21.159	809.768	628.251
347.548	21.372	808.956	628.331
348.562	21.352	808.538	627.876
349.577	21.190	808.071	626.878
350.592	21.245	807.198	626.343
351.606	21.077	807.178	625.669
352.621	21.178	805.461	624.646
353.635	21.166	804.667	623.930
354.650	20.452	803.409	620.351
355.665	19.589	802.096	616.205
356.679	20.138	801.581	617.712
357.694	20.426	801.357	618.511
358.708	20.110	801.257	617.254
359.723	20.509	801.181	618.560
360.738	21.103	800.362	619.985
361.752	21.008	800.010	619.319
362.767	21.309	799.602	620.018
363.781	21.385	799.684	620.294
364.796	21.542	798.884	620.174
365.810	21.563	798.959	620.253
366.825	21.437	798.237	619.194
367.840	21.238	797.341	617.741
368.854	20.941	796.645	616.096
369.869	21.062	796.083	616.032
370.883	20.968	795.691	615.344
371.898	20.823	795.464	614.603
372.913	20.921	794.853	614.422
373.927	21.169	794.268	614.789
374.942	21.260	794.144	614.959
375.956	21.357	793.720	614.915
376.971	21.333	793.517	614.620
377.986	21.538	793.068	614.941
379.000	21.484	792.459	614.224
380.015	21.189	791.759	612.590
381.029	21.410	791.258	612.924
382.044	21.490	791.061	612.997
383.059	21.544	790.320	612.557
384.073	21.512	789.889	612.059
385.088	21.566	789.333	611.762
386.102	21.475	788.677	610.881
387.117	21.446	787.843	610.082
388.132	20.976	786.912	607.667
389.146	20.603	785.984	605.597
390.161	21.017	785.820	606.859
391.175	21.200	785.655	607.316
392.190	20.987	784.433	605.578
393.205	19.827	782.696	600.159
394.219	18.554	781.383	594.688
395.234	18.501	781.391	594.459
396.248	20.136	782.490	600.915
397.263	21.447	783.106	605.880
398.278	21.342	782.524	605.013
399.292	21.084	782.112	603.747
400.307	20.988	781.791	603.112
401.321	21.048	781.625	603.139
402.336	21.482	781.021	604.121
403.350	21.697	780.895	604.709
404.365	21.982	780.990	605.713
405.380	22.086	780.459	605.608
406.394	22.176	779.927	605.452
407.409	22.169	779.280	604.870
408.423	22.091	778.877	604.236
409.438	22.044	778.644	603.841
410.453	22.126	778.120	603.662
411.467	22.175	777.526	603.315
412.482	22.061	777.559	602.897
413.496	22.223	777.051	603.005
414.511	22.178	776.590	602.441
415.526	22.428	775.967	602.759
416.540	22.043	775.625	601.124
417.555	21.968	774.521	599.960
418.569	21.989	774.366	599.857
419.584	21.834	773.822	598.853
420.599	21.763	773.273	598.134
421.613	159.417	1361.804	1799.209
422.628	137.609	1447.547	1799.331
