DTS Sentinel unit serial number:	SN413079Multiplexer serial number:	ORYXHardware model number:	OX4-SRSoftware version number:	ORYX F/W v4.00 Oryx Data Collector v3.7.2.0data status	okinstallation	princeton_trtdifferential loss correction	single-endedforward channel	channel 1reverse channel	N/Adate	2019/09/17time	09:18:35forward acquisition time	60.00reverse acquisition time	0.00gamma	496.2192k internal	0.2326k external	0.2326temperature offset calibration	0.9959default loss term (dB/km)	0.3790temperature slope calibration	1.0000multiplexer offset coefficient	1.0000multiplexer slope coefficient	1.0000fibre end	0.00T internal ref (°C)	28.59T ext. ref 1 (°C)	0.14T ext. ref 2 (°C)	25.57length (m)	temperature (°C)	Stokes	anti-Stokes-747.200	36.526	-0.280	0.249
-746.185	-94.332	0.202	0.056
-745.171	800.000	-0.030	0.124
-744.156	-96.867	0.159	-0.042
-743.142	205.355	-0.083	-0.130
-742.127	351.442	-0.064	0.128
-741.112	127.203	0.076	0.097
-740.098	200.675	0.132	0.204
-739.083	27.411	0.098	-0.083
-738.069	-26.934	0.332	0.195
-737.054	30.403	-0.100	0.087
-736.039	-96.410	-0.312	-0.083
-735.025	126.791	0.108	0.138
-734.010	-59.593	-0.201	-0.087
-732.996	-200.000	0.248	-0.001
-731.981	-94.481	0.210	-0.058
-730.966	133.263	0.116	-0.151
-729.952	15.383	-0.451	0.357
-728.937	-141.766	0.169	0.017
-727.923	-87.310	-0.464	0.142
-726.908	-200.000	-0.010	-0.313
-725.894	14.100	-0.124	0.097
-724.879	-6.601	-0.106	-0.073
-723.864	-125.718	-0.224	-0.034
-722.850	-200.000	0.008	-0.069
-721.835	-60.595	-0.488	-0.209
-720.821	-15.026	-0.073	0.047
-719.806	-170.605	0.072	0.003
-718.791	114.125	0.117	-0.144
-717.777	-110.932	0.117	-0.024
-716.762	-154.024	-0.326	-0.022
-715.748	91.039	-0.060	0.067
-714.733	723.810	0.032	0.087
-713.718	5.768	0.263	-0.196
-712.704	-40.571	-0.244	0.128
-711.689	-200.000	-0.005	-0.150
-710.675	-154.478	-0.234	0.016
-709.660	18.827	-0.044	-0.036
-708.645	2.682	-0.208	-0.152
-707.631	-200.000	-0.018	-0.221
-706.616	258.333	0.179	-0.311
-705.602	800.000	-0.112	0.365
-704.587	-200.000	-0.008	-0.230
-703.572	-200.000	0.057	-0.279
-702.558	-85.723	0.249	0.078
-701.543	160.395	0.042	0.059
-700.529	772.288	0.073	-0.202
-699.514	-200.000	-0.009	-0.156
-698.499	-127.340	-0.192	-0.028
-697.485	-200.000	-0.027	-0.233
-696.470	348.900	0.185	0.367
-695.456	11.615	-0.090	0.069
-694.441	800.000	0.115	-0.407
-693.426	754.029	0.046	0.125
-692.412	54.127	-0.153	-0.148
-691.397	800.000	0.095	0.391
-690.383	-124.465	-0.080	0.013
-689.368	114.477	-0.075	0.092
-688.354	800.000	-0.041	0.156
-687.339	106.258	-0.214	0.255
-686.324	-1.226	0.179	-0.127
-685.310	257.724	0.088	-0.153
-684.295	123.093	0.090	-0.114
-683.281	-200.000	0.011	-0.099
-682.266	6.189	0.037	0.028
-681.251	782.712	-0.086	0.238
-680.237	-200.000	-0.072	0.406
-679.222	-200.000	-0.010	-0.233
-678.208	800.000	0.062	0.176
-677.193	-4.954	0.057	-0.039
-676.178	800.000	0.024	0.071
-675.164	247.535	-0.058	0.099
-674.149	41.475	-0.240	0.218
-673.135	-4.295	-0.164	0.114
-672.120	800.000	0.050	0.170
-671.105	800.000	-0.057	-0.216
-670.091	33.219	-0.271	-0.236
-669.076	-74.090	-0.343	0.125
-668.062	-200.000	-0.019	0.233
-667.047	33.471	0.045	-0.039
-666.032	800.000	-0.052	0.175
-665.018	-200.000	-0.030	-0.286
-664.003	-69.370	0.429	-0.166
-662.989	-44.032	0.151	-0.076
-661.974	-200.000	-0.020	0.106
-660.959	-156.332	-0.073	-0.005
-659.945	-200.000	-0.002	-0.199
-658.930	-68.686	-0.049	0.019
-657.916	-19.124	0.256	-0.160
-656.901	-200.000	0.053	0.337
-655.886	-200.000	0.000	0.037
-654.872	-200.000	-0.008	-0.163
-653.857	-134.264	0.041	0.005
-652.843	-200.000	0.044	-0.666
-651.828	800.000	-0.039	-0.111
-650.814	570.146	-0.061	0.150
-649.799	-136.575	0.180	-0.021
-648.784	26.422	0.194	0.163
-647.770	118.302	0.147	-0.182
-646.755	48.996	-0.115	-0.109
-645.741	61.230	-0.053	-0.053
-644.726	800.000	0.078	0.239
-643.711	800.000	0.033	0.111
-642.697	-41.262	0.213	0.110
-641.682	795.071	-0.098	-0.271
-640.668	-200.000	0.043	-0.202
-639.653	114.553	0.177	-0.216
-638.638	-200.000	0.013	-0.396
-637.624	137.684	-0.088	-0.116
-636.609	-200.000	-0.017	-0.119
-635.595	-63.645	0.322	-0.133
-634.580	394.850	0.032	-0.067
-633.565	231.563	0.076	0.125
-632.551	-200.000	-0.052	-0.352
-631.536	121.185	0.060	0.075
-630.522	322.855	-0.068	0.130
-629.507	-200.000	-0.056	0.502
-628.492	-32.918	0.252	0.140
-627.478	-200.000	0.015	-0.197
-626.463	-144.326	0.092	-0.009
-625.449	800.000	-0.059	0.186
-624.434	-111.462	0.164	-0.034
-623.419	140.728	-0.100	0.133
-622.405	-79.638	-0.161	-0.055
-621.390	-200.000	0.062	0.325
-620.376	189.099	-0.209	0.315
-619.361	-200.000	0.001	0.080
-618.346	-175.063	-0.064	0.002
-617.332	66.551	0.040	0.041
-616.317	-27.007	-0.150	0.088
-615.303	-185.747	-0.143	-0.002
-614.288	163.930	0.090	-0.127
-613.273	123.423	0.172	-0.217
-612.259	19.621	0.274	-0.221
-611.244	800.000	0.023	-0.075
-610.230	-92.759	-0.147	-0.041
-609.215	-116.637	0.348	0.064
-608.201	-72.659	-0.397	-0.147
-607.186	-72.042	-0.141	0.052
-606.171	-87.797	-0.353	0.107
-605.157	-33.796	0.276	0.153
-604.142	-200.000	0.001	0.028
-603.128	-200.000	0.024	0.184
-602.113	350.012	0.107	-0.212
-601.098	90.099	-0.191	-0.215
-600.084	340.644	0.152	0.297
-599.069	-183.035	0.270	-0.005
-598.055	-85.279	-0.167	-0.052
-597.040	179.158	0.216	0.317
-596.025	118.033	0.176	0.217
-595.011	326.993	0.064	-0.122
-593.996	223.863	0.227	0.368
-592.982	-200.000	-0.001	-0.272
-591.967	800.000	-0.099	-0.296
-590.952	-200.000	-0.089	0.505
-589.938	-94.446	0.547	0.150
-588.923	-145.990	0.230	-0.020
-587.909	471.448	-0.104	0.235
-586.894	800.000	-0.033	-0.101
-585.879	30.712	-0.301	0.258
-584.865	-1.769	0.163	0.115
-583.850	-61.701	-0.259	-0.109
-582.836	-131.273	-0.212	0.028
-581.821	28.236	-0.163	0.138
-580.806	111.399	0.105	0.127
-579.792	98.682	0.138	0.160
-578.777	-35.009	0.261	-0.143
-577.763	104.071	0.110	-0.130
-576.748	-174.189	-0.084	-0.002
-575.733	-88.951	-0.420	0.125
-574.719	193.436	-0.078	-0.118
-573.704	-55.398	-0.250	0.112
-572.690	-39.034	-0.114	-0.060
-571.675	-200.000	0.018	0.168
-570.661	-176.849	-0.108	-0.003
-569.646	568.468	0.087	-0.211
-568.631	-39.126	0.084	0.044
-567.617	150.427	-0.288	-0.391
-566.602	-58.714	0.196	0.085
-565.588	199.558	0.100	0.154
-564.573	800.000	-0.095	0.273
-563.558	-48.539	-0.399	0.192
-562.544	-26.907	-0.017	-0.010
-561.529	14.823	0.156	0.122
-560.515	-6.404	0.072	0.049
-559.500	-200.000	0.007	0.150
-558.485	-130.245	0.235	0.032
-557.471	42.744	-0.048	-0.044
-556.456	117.530	-0.121	0.149
-555.442	-54.803	-0.122	0.055
-554.427	43.973	-0.417	-0.383
-553.412	-176.399	-0.308	-0.008
-552.398	-43.733	-0.198	0.100
-551.383	-3.568	0.258	-0.180
-550.369	-200.000	-0.039	-0.345
-549.354	800.000	0.063	0.243
-548.339	-130.063	-0.082	-0.011
-547.325	800.000	-0.028	0.100
-546.310	144.001	-0.282	-0.376
-545.296	154.974	0.134	0.184
-544.281	-59.180	-0.408	0.176
-543.266	225.129	0.041	0.066
-542.252	-127.042	-0.364	-0.054
-541.237	-143.216	-0.230	-0.022
-540.223	800.000	-0.084	-0.314
-539.208	-90.204	-0.260	-0.076
-538.193	-113.448	-0.165	-0.032
-537.179	800.000	0.028	0.112
-536.164	800.000	-0.104	-0.397
-535.150	16.583	-0.164	-0.130
-534.135	29.948	0.078	0.067
-533.121	-200.000	0.051	-0.244
-532.106	-65.477	-0.052	-0.021
-531.091	-110.533	0.157	-0.032
-530.077	167.512	-0.128	0.182
-529.062	-51.536	-0.049	-0.023
-528.048	-62.070	-0.046	-0.019
-527.033	-75.000	-0.197	-0.071
-526.018	-63.111	0.432	-0.178
-525.004	800.000	-0.118	0.340
-523.989	-44.393	0.206	0.103
-522.975	-25.244	0.453	-0.268
-521.960	800.000	-0.017	-0.073
-520.945	220.237	-0.126	-0.201
-519.931	800.000	-0.034	-0.137
-518.916	80.998	-0.214	-0.231
-517.902	-135.605	0.347	0.041
-516.887	-187.922	-0.148	-0.002
-515.872	-30.878	-0.227	0.128
-514.858	137.775	0.096	-0.126
-513.843	800.000	0.007	0.026
-512.829	32.373	-0.160	0.138
-511.814	-87.661	0.280	0.084
-510.799	-51.553	0.145	0.068
-509.785	-153.602	0.016	-0.001
-508.770	800.000	-0.113	0.395
-507.756	-156.257	-0.190	0.012
-506.741	277.141	0.160	0.284
-505.726	-200.000	0.040	0.254
-504.712	-45.674	0.355	0.175
-503.697	800.000	-0.025	0.083
-502.683	-200.000	0.037	0.227
-501.668	-200.000	-0.041	-0.193
-500.653	-87.587	-0.253	0.076
-499.639	213.521	0.158	-0.250
-498.624	-122.620	-0.202	-0.033
-497.610	-103.027	-0.130	-0.031
-496.595	334.881	0.096	-0.186
-495.581	-200.000	-0.040	0.244
-494.566	-133.925	-0.187	0.023
-493.551	-52.859	-0.257	0.118
-492.537	-200.000	-0.023	-0.393
-491.522	-104.270	-0.232	-0.054
-490.508	-75.339	0.201	0.072
-489.493	-8.375	0.203	-0.136
-488.478	196.997	0.183	-0.279
-487.464	-200.000	-0.170	0.001
-486.449	203.064	-0.153	-0.237
-485.435	-82.377	0.082	0.027
-484.420	441.771	0.165	-0.361
-483.405	-200.000	0.019	-0.124
-482.391	-200.000	0.043	-0.503
-481.376	477.956	0.069	-0.156
-480.362	-200.000	0.002	-0.122
-479.347	800.000	-0.075	0.271
-478.332	-200.000	-0.022	0.255
-477.318	-200.000	0.023	0.133
-476.303	-200.000	0.042	0.202
-475.289	27.327	-0.133	0.112
-474.274	-56.097	-0.203	-0.090
-473.259	-27.681	-0.238	-0.138
-472.245	300.107	-0.069	-0.127
-471.230	-200.000	-0.047	0.225
-470.216	168.596	0.139	-0.198
-469.201	139.042	-0.058	-0.076
-468.186	-112.223	-0.132	-0.026
-467.172	-11.896	0.336	-0.220
-466.157	-200.000	-0.029	-0.228
-465.143	-48.055	-0.197	-0.095
-464.128	-200.000	0.037	-0.169
-463.113	-58.823	-0.111	-0.048
-462.099	-120.275	0.237	0.040
-461.084	800.000	0.031	0.108
-460.070	154.628	0.151	-0.206
-459.055	800.000	-0.107	-0.314
-458.040	3.667	0.134	-0.098
-457.026	-37.315	0.281	-0.150
-456.011	-134.116	-0.349	0.043
-454.997	262.916	0.078	0.135
-453.982	74.644	-0.112	-0.118
-452.968	800.000	0.097	-0.413
-451.953	67.487	-0.150	-0.152
-450.938	800.000	0.036	0.106
-449.924	33.487	-0.051	-0.044
-448.909	800.000	0.012	-0.036
-447.895	-200.000	-0.060	0.452
-446.880	-150.638	-0.184	-0.014
-445.865	-200.000	-0.224	-0.000
-444.851	-67.255	-0.030	-0.012
-443.836	-130.162	-0.202	0.027
-442.822	-86.790	0.066	0.020
-441.807	-190.187	0.323	0.004
-440.792	-118.088	0.346	0.062
-439.778	197.242	-0.184	0.280
-438.763	379.871	0.089	-0.182
-437.749	-200.000	0.035	0.164
-436.734	257.144	0.067	0.115
-435.719	35.708	0.073	-0.064
-434.705	59.128	-0.160	0.157
-433.690	355.009	0.227	0.449
-432.676	-158.671	-0.315	-0.018
-431.661	565.748	0.140	0.339
-430.646	-38.043	0.358	0.189
-429.632	142.877	0.126	0.166
-428.617	800.000	-0.063	0.210
-427.603	-6.676	0.041	0.028
-426.588	-200.000	-0.037	-0.184
-425.573	-78.698	0.099	0.034
-424.559	-162.336	0.229	0.011
-423.544	800.000	0.017	-0.048
-422.530	178.262	0.164	-0.238
-421.515	96.059	-0.219	0.250
-420.500	706.105	-0.074	0.194
-419.486	-40.925	0.101	-0.052
-418.471	-152.158	0.289	0.021
-417.457	453.431	-0.099	-0.217
-416.442	-200.000	0.027	-0.215
-415.428	-65.548	0.281	0.113
-414.413	-41.207	-0.091	0.047
-413.398	-44.044	-0.081	-0.041
-412.384	-47.604	-0.121	-0.059
-411.369	452.468	0.069	-0.153
-410.355	163.174	0.059	0.083
-409.340	-35.367	0.057	0.031
-408.325	157.800	-0.129	-0.178
-407.311	-70.657	-0.155	0.058
-406.296	-94.607	0.296	-0.080
-405.282	76.214	0.252	-0.266
-404.267	-91.385	-0.149	0.043
-403.252	-150.762	0.141	-0.011
-402.238	112.491	-0.270	0.326
-401.223	-200.000	-0.018	0.151
-400.209	-200.000	0.020	-0.269
-399.194	53.829	0.042	-0.040
-398.179	-200.000	0.008	-0.179
-397.165	-96.413	-0.250	0.066
-396.150	-12.280	-0.170	0.111
-395.136	97.213	0.150	-0.172
-394.121	-9.403	0.113	0.075
-393.106	172.270	-0.192	-0.274
-392.092	140.299	0.068	-0.089
-391.077	-51.545	0.139	-0.064
-390.063	456.554	-0.096	-0.213
-389.048	-89.764	-0.421	0.123
-388.033	-200.000	-0.007	0.298
-387.019	-75.609	0.217	0.077
-386.004	-24.799	-0.112	-0.066
-384.990	251.013	-0.175	0.296
-383.975	800.000	-0.115	0.471
-382.960	508.542	-0.056	0.130
-381.946	-28.598	0.130	0.075
-380.931	-5.390	0.126	0.086
-379.917	-13.346	-0.152	0.098
-378.902	10.050	0.213	-0.161
-377.888	590.166	-0.113	-0.277
-376.873	-200.000	-0.020	0.252
-375.858	54.025	-0.117	0.112
-374.844	-200.000	-0.055	-0.240
-373.829	177.229	-0.064	-0.093
-372.815	-68.245	0.424	-0.164
-371.800	-6.416	-0.058	0.040
-370.785	47.950	0.009	0.008
-369.771	103.043	-0.059	-0.069
-368.756	733.685	-0.088	-0.235
-367.742	-37.634	-0.025	-0.013
-366.727	175.869	0.185	-0.267
-365.712	-200.000	0.019	0.128
-364.698	800.000	0.158	0.433
-363.683	-111.461	0.109	-0.022
-362.669	551.548	0.089	0.213
-361.654	43.394	-0.087	-0.079
-360.639	-56.900	-0.245	0.107
-359.625	14.236	-0.036	-0.028
-358.610	-111.465	0.255	0.052
-357.596	800.000	0.109	-0.338
-356.581	358.765	-0.114	-0.227
-355.566	216.875	0.095	-0.150
-354.552	339.875	0.113	0.220
-353.537	-32.807	0.219	-0.121
-352.523	224.809	0.121	-0.194
-351.508	232.379	0.062	0.102
-350.493	-200.000	-0.025	-0.117
-349.479	-120.255	0.312	0.053
-348.464	-10.871	-0.276	0.181
-347.450	531.797	0.148	0.348
-346.435	-33.126	0.086	-0.047
-345.420	-40.375	0.179	0.092
-344.406	-200.000	-0.022	-0.099
-343.391	48.755	-0.239	-0.223
-342.377	220.197	-0.149	0.238
-341.362	-120.412	-0.241	0.041
-340.348	-82.129	0.028	-0.009
-339.333	-119.921	0.205	0.035
-338.318	722.203	0.053	-0.139
-337.304	-84.291	-0.401	0.126
-336.289	-26.944	-0.282	-0.164
-335.275	-178.368	0.144	-0.003
-334.260	-58.985	0.029	0.013
-333.245	274.757	-0.235	-0.412
-332.231	-155.271	0.076	-0.005
-331.216	-111.747	0.196	-0.039
-330.202	800.000	0.093	0.307
-329.187	21.784	0.041	0.033
-328.172	1.129	0.125	-0.089
-327.158	-200.000	0.003	-0.290
-326.143	-6.039	0.115	0.078
-325.129	-3.863	0.116	0.080
-324.114	-34.139	0.145	0.079
-323.099	-87.398	-0.187	0.056
-322.085	39.638	-0.305	-0.272
-321.070	-200.000	-0.019	-0.153
-320.056	-200.000	-0.006	-0.312
-319.041	-63.019	0.457	0.187
-318.026	1.076	-0.047	-0.033
-317.012	-76.871	0.130	-0.045
-315.997	-200.000	0.002	-0.059
-314.983	-109.022	0.051	0.011
-313.968	4.402	0.075	0.054
-312.953	-12.108	0.193	-0.125
-311.939	130.575	-0.242	0.308
-310.924	297.858	0.207	0.377
-309.910	73.138	-0.058	-0.060
-308.895	271.640	-0.139	-0.243
-307.880	191.706	-0.221	-0.329
-306.866	-200.000	-0.081	-0.361
-305.851	130.400	0.118	-0.150
-304.837	689.481	-0.090	0.235
-303.822	-84.690	-0.090	0.028
-302.807	-0.515	0.199	0.140
-301.793	-48.220	0.083	0.040
-300.778	30.052	-0.196	-0.165
-299.764	91.094	0.047	-0.052
-298.749	107.743	0.176	-0.208
-297.735	-128.050	-0.111	-0.016
-296.720	-47.913	-0.195	-0.093
-295.705	-84.324	0.291	-0.091
-294.691	-77.664	-0.093	0.032
-293.676	-81.884	0.443	0.144
-292.662	50.518	0.146	-0.136
-291.647	-200.000	-0.023	0.140
-290.632	25.422	-0.384	0.317
-289.618	-200.000	-0.034	0.199
-288.603	-109.205	-0.307	0.065
-287.589	-59.094	0.119	-0.051
-286.574	285.617	-0.080	0.142
-285.559	800.000	0.063	-0.223
-284.545	88.126	-0.193	0.213
-283.530	-80.028	0.408	-0.136
-282.516	108.004	0.057	0.067
-281.501	-200.000	-0.026	0.207
-280.486	-200.000	-0.008	0.166
-279.472	-200.000	-0.040	0.178
-278.457	14.060	-0.059	0.045
-277.443	-200.000	0.010	-0.172
-276.428	-49.763	-0.370	-0.174
-275.413	226.773	-0.118	-0.190
-274.399	299.241	0.120	-0.218
-273.384	-125.037	-0.429	-0.065
-272.370	77.560	0.174	0.184
-271.355	-39.081	0.105	-0.055
-270.340	242.024	0.055	-0.092
-269.326	-200.000	0.027	0.135
-268.311	125.553	-0.256	0.320
-267.297	800.000	0.079	-0.274
-266.282	-108.718	-0.315	0.067
-265.267	800.000	-0.048	0.184
-264.253	-8.963	0.319	0.212
-263.238	800.000	-0.103	-0.293
-262.224	-3.997	-0.317	0.218
-261.209	3.465	0.251	0.181
-260.195	-119.735	-0.119	-0.020
-259.180	634.959	-0.190	0.478
-258.165	149.754	-0.110	-0.147
-257.151	212.739	0.089	0.139
-256.136	288.216	0.066	0.118
-255.122	-200.000	0.007	-0.476
-254.107	-200.000	0.014	0.201
-253.092	-152.972	-0.138	0.010
-252.078	-5.551	0.345	0.234
-251.063	-115.416	0.103	-0.019
-250.049	-200.000	-0.050	-0.260
-249.034	-163.351	-0.267	-0.013
-248.019	-38.603	-0.219	0.115
-247.005	800.000	-0.068	-0.249
-245.990	-50.698	0.108	-0.050
-244.976	-47.375	0.184	0.088
-243.961	-98.823	-0.181	0.046
-242.946	-148.649	-0.177	-0.014
-241.932	-108.464	0.297	0.063
-240.917	800.000	0.081	-0.301
-239.903	24.743	-0.251	0.206
-238.888	800.000	-0.074	0.272
-237.873	800.000	0.050	-0.180
-236.859	-23.088	0.234	-0.139
-235.844	-200.000	-0.007	-0.127
-234.830	800.000	-0.078	-0.278
-233.815	290.938	-0.031	-0.056
-232.800	800.000	0.018	-0.054
-231.786	87.506	0.037	0.041
-230.771	72.204	-0.197	-0.202
-229.757	-71.052	0.204	0.076
-228.742	677.895	0.075	-0.192
-227.727	17.475	0.131	0.103
-226.713	-84.655	0.139	-0.043
-225.698	-138.063	-0.171	0.019
-224.684	-200.000	0.001	-0.293
-223.669	-57.228	0.128	-0.056
-222.655	-13.188	0.208	0.134
-221.640	-200.000	-0.004	0.057
-220.625	282.877	0.048	0.085
-219.611	800.000	-0.086	-0.291
-218.596	-43.021	-0.322	0.161
-217.582	800.000	-0.034	0.100
-216.567	46.905	-0.103	-0.095
-215.552	120.948	-0.188	-0.231
-214.538	66.594	0.234	0.236
-213.523	88.180	-0.164	-0.180
-212.509	-4.001	-0.325	0.223
-211.494	-97.760	0.374	0.096
-210.479	800.000	-0.063	-0.230
-209.465	800.000	0.016	0.048
-208.450	-196.006	0.170	-0.001
-207.436	-59.005	0.064	-0.027
-206.421	48.263	0.091	0.084
-205.406	-200.000	-0.008	0.042
-204.392	243.180	0.120	0.199
-203.377	286.971	0.271	0.484
-202.363	13.103	0.154	0.118
-201.348	-200.000	-0.002	-0.259
-200.333	-49.307	-0.184	0.087
-199.319	-145.136	-0.127	-0.011
-198.304	-22.549	-0.253	0.151
-197.290	800.000	-0.097	-0.283
-196.275	-122.963	-0.342	-0.054
-195.260	800.000	0.101	-0.308
-194.246	-104.618	-0.162	0.037
-193.231	800.000	-0.037	-0.110
-192.217	-200.000	0.011	0.197
-191.202	252.452	0.129	0.218
-190.187	69.495	0.286	-0.291
-189.173	800.000	0.065	-0.263
-188.158	-0.394	0.413	0.289
-187.144	-3.509	-0.179	0.123
-186.129	-106.889	-0.280	-0.061
-185.114	-83.958	-0.249	-0.078
-184.100	587.992	0.089	-0.217
-183.085	-126.260	0.172	0.025
-182.071	20.316	0.109	-0.087
-181.056	-200.000	0.023	0.108
-180.042	-200.000	0.007	0.372
-179.027	-165.917	0.054	-0.002
-178.012	-136.090	0.133	-0.015
-176.998	-49.025	0.225	0.106
-175.983	748.882	0.088	0.235
-174.969	-97.280	0.266	0.068
-173.954	-27.223	0.375	0.216
-172.939	-200.000	0.006	0.207
-171.925	125.927	-0.280	0.348
-170.910	-96.002	-0.059	-0.016
-169.896	539.108	-0.070	-0.165
-168.881	-87.221	-0.208	-0.062
-167.866	-8.100	0.282	-0.187
-166.852	-200.000	-0.002	0.081
-165.837	184.926	0.083	0.122
-164.823	172.574	-0.144	-0.204
-163.808	330.190	0.059	-0.113
-162.793	-200.000	-0.015	-0.157
-161.779	800.000	0.052	0.152
-160.764	800.000	0.026	0.103
-159.750	91.766	0.099	-0.110
-158.735	800.000	0.094	0.306
-157.720	800.000	-0.034	-0.129
-156.706	-200.000	0.045	0.317
-155.691	-11.282	-0.221	-0.144
-154.677	800.000	-0.058	-0.176
-153.662	676.815	-0.066	0.168
-152.647	-154.813	0.051	0.003
-151.633	-200.000	-0.008	-0.094
-150.618	59.175	-0.108	-0.104
-149.604	19.732	0.097	-0.077
-148.589	319.330	0.101	0.189
-147.574	800.000	0.076	-0.286
-146.560	-200.000	-0.027	-0.428
-145.545	-70.708	0.116	0.043
-144.531	74.857	0.303	0.315
-143.516	-65.317	-0.177	-0.070
-142.502	-115.474	-0.164	0.030
-141.487	378.614	-0.015	-0.030
-140.472	-200.000	-0.007	-0.194
-139.458	800.000	0.059	0.222
-138.443	-99.780	-0.290	-0.071
-137.429	-86.492	-0.386	0.117
-136.414	26.661	0.187	-0.155
-135.399	-31.513	0.175	0.097
-134.385	125.958	-0.126	0.157
-133.370	444.438	-0.183	-0.395
-132.356	-52.717	0.398	-0.181
-131.341	557.760	-0.041	-0.096
-130.326	112.711	-0.025	0.030
-129.312	-200.000	0.024	0.291
-128.297	800.000	0.072	0.253
-127.283	-66.023	0.210	-0.083
-126.268	-16.161	-0.070	-0.044
-125.253	27.214	-0.257	0.212
-124.239	-110.279	0.004	-0.001
-123.224	35.075	0.196	0.169
-122.210	-66.880	0.440	0.171
-121.195	-21.129	-0.340	0.205
-120.180	-200.000	-0.011	0.092
-119.166	-200.000	-0.052	0.385
-118.151	142.008	-0.167	0.219
-117.137	-200.000	0.041	-0.254
-116.122	8.321	0.210	0.155
-115.107	174.875	0.091	-0.129
-114.093	-200.000	0.007	0.478
-113.078	-200.000	-0.014	0.075
-112.064	17.374	-0.128	0.100
-111.049	-29.883	-0.132	0.074
-110.034	-84.421	-0.083	-0.026
-109.020	-31.565	-0.349	-0.193
-108.005	638.917	-0.111	0.277
-106.991	-142.698	0.034	0.003
-105.976	596.994	0.035	-0.085
-104.962	-69.611	-0.211	0.080
-103.947	-110.365	0.242	-0.050
-102.932	60.244	-0.097	0.095
-101.918	800.000	0.058	0.230
-100.903	-105.561	0.090	-0.020
-99.889	-200.000	-0.008	0.178
-98.874	-168.369	0.118	-0.004
-97.859	-200.000	0.021	-0.263
-96.845	-153.353	0.297	0.020
-95.830	-140.142	-0.134	-0.014
-94.816	-18.575	-0.044	0.027
-93.801	58.166	0.083	-0.080
-92.786	351.621	-0.049	-0.095
-91.772	800.000	-0.049	-0.206
-90.757	-19.515	-0.386	-0.235
-89.743	-107.682	0.128	-0.028
-88.728	-200.000	-0.001	0.309
-87.713	353.883	-0.133	0.261
-86.699	-200.000	0.044	0.225
-85.684	100.725	-0.223	0.255
-84.670	-30.243	0.182	0.102
-83.655	-200.000	0.013	0.404
-82.640	132.737	0.102	-0.129
-81.626	10.042	0.191	-0.142
-80.611	-200.000	-0.033	-0.333
-79.597	800.000	0.124	0.375
-78.582	-6.584	-0.156	-0.104
-77.567	-200.000	-0.035	-0.349
-76.553	228.037	-0.080	0.128
-75.538	205.352	0.155	0.237
-74.524	-147.832	-0.457	0.038
-73.509	-108.519	0.242	0.051
-72.494	-111.831	0.315	0.062
-71.480	-70.473	0.057	0.021
-70.465	61.372	-0.183	0.178
-69.451	-147.733	0.540	0.044
-68.436	260.947	0.125	-0.213
-67.422	38.802	-0.137	-0.120
-66.407	43.020	-0.051	0.046
-65.392	-130.651	0.404	-0.054
-64.378	-142.812	-0.098	-0.009
-63.363	-22.317	0.252	0.150
-62.349	-200.000	-0.029	-0.304
-61.334	177.742	-0.825	-1.181
-60.319	800.000	0.097	0.379
-59.305	531.732	-0.422	-0.979
-58.290	482.107	0.679	1.515
-57.276	388.472	0.811	1.648
-56.261	-200.000	108.713	585.154
-55.246	433.155	1502.124	3201.202
-54.232	144.420	2685.903	3521.300
-53.217	103.863	2167.612	2500.685
-52.203	39.987	1611.208	1421.050
-51.188	32.073	1352.007	1144.393
-50.173	28.952	1312.241	1092.191
-49.159	53.112	1366.736	1284.623
-48.144	53.134	1382.224	1299.264
-47.130	32.234	1337.040	1132.518
-46.115	28.818	1319.294	1097.087
-45.100	28.622	1313.949	1091.433
-44.086	28.512	1312.067	1089.173
-43.071	28.381	1309.876	1086.535
-42.057	28.319	1308.211	1084.741
-41.042	28.428	1305.838	1083.377
-40.027	28.503	1304.213	1082.430
-39.013	28.474	1302.086	1080.451
-37.998	28.467	1300.559	1079.100
-36.984	28.578	1298.540	1078.030
-35.969	28.567	1297.063	1076.696
-34.954	28.624	1294.936	1075.222
-33.940	28.581	1293.856	1074.033
-32.925	28.768	1292.536	1073.988
-31.911	28.623	1291.537	1072.267
-30.896	28.700	1290.146	1071.522
-29.881	28.792	1288.273	1070.458
-28.867	28.788	1287.185	1069.490
-27.852	28.734	1285.364	1067.618
-26.838	28.670	1283.950	1066.031
-25.823	28.727	1282.966	1065.501
-24.809	28.645	1281.118	1063.451
-23.794	28.597	1280.161	1062.335
-22.779	28.812	1278.741	1062.361
-21.765	28.741	1277.390	1060.783
-20.750	28.609	1276.301	1059.078
-19.736	28.615	1274.808	1057.827
-18.721	28.529	1273.890	1056.528
-17.706	28.557	1272.386	1055.403
-16.692	28.542	1271.385	1054.442
-15.677	28.576	1270.196	1053.611
-14.663	28.559	1269.354	1052.774
-13.648	28.516	1268.600	1051.856
-12.633	28.536	1267.337	1050.883
-11.619	28.462	1267.159	1050.273
-10.604	28.549	1265.905	1049.689
-9.590	28.481	1264.939	1048.455
-8.575	28.442	1263.757	1047.212
-7.560	28.595	1262.667	1047.142
-6.546	28.529	1261.835	1046.033
-5.531	28.427	1261.232	1044.913
-4.517	28.548	1260.260	1044.755
-3.502	28.544	1259.379	1043.957
-2.487	28.468	1259.064	1043.224
-1.473	28.463	1254.494	1039.367
-0.458	27.453	1239.819	1021.507
0.556	22.613	1224.003	987.142
1.571	19.260	1231.131	973.886
2.586	18.672	1245.456	981.769
3.600	17.942	1233.803	968.358
4.615	13.002	1159.848	883.835
5.629	4.458	1083.753	782.861
6.644	0.505	1063.761	748.767
7.659	0.053	1061.713	745.019
8.673	0.074	1060.591	744.272
9.688	-0.061	1059.251	742.595
10.702	0.220	1057.389	742.613
11.717	5.403	1063.357	772.387
12.731	13.425	1074.738	820.496
13.746	17.075	1078.728	841.600
14.761	17.051	1078.017	840.852
15.775	15.987	1076.001	833.941
16.790	15.019	1073.770	827.356
17.804	14.291	1072.625	822.805
18.819	13.976	1071.085	819.995
19.834	13.618	1070.728	817.883
20.848	13.413	1069.847	816.126
21.863	13.107	1068.728	813.692
22.877	13.021	1068.130	812.744
23.892	12.948	1067.521	811.850
24.907	13.157	1066.264	811.847
25.921	13.166	1065.212	811.021
26.936	13.148	1064.617	810.406
27.950	13.166	1064.154	810.071
28.965	13.239	1062.653	809.211
29.980	13.350	1061.311	808.661
30.994	13.227	1060.445	807.331
32.009	13.366	1059.624	807.313
33.023	13.175	1058.765	805.657
34.038	13.353	1057.452	805.451
35.053	13.258	1056.087	803.881
36.067	13.215	1055.884	803.445
37.082	13.256	1054.740	802.699
38.096	13.293	1054.577	802.686
39.111	13.258	1053.403	801.552
40.126	13.244	1052.172	800.475
41.140	13.062	1051.334	798.886
42.155	13.146	1049.838	798.087
43.169	13.117	1049.165	797.361
44.184	12.997	1048.279	796.039
45.199	12.938	1047.500	795.093
46.213	13.069	1045.914	794.448
47.228	13.071	1045.237	793.875
48.242	13.157	1043.707	793.054
49.257	13.089	1043.064	792.170
50.271	13.206	1042.079	791.916
51.286	13.228	1041.094	791.201
52.301	13.194	1040.093	790.206
53.315	13.255	1038.815	789.456
54.330	13.243	1037.664	788.458
55.344	13.039	1037.253	787.102
56.359	13.086	1036.657	786.804
57.374	13.184	1035.348	786.206
58.388	13.128	1034.748	785.416
59.403	13.087	1033.311	784.058
60.417	13.083	1032.685	783.497
61.432	12.922	1032.594	782.595
62.447	12.929	1031.630	781.829
63.461	12.883	1030.723	780.853
64.476	12.927	1029.639	780.170
65.490	12.900	1029.092	779.559
66.505	12.880	1028.299	778.796
67.520	12.972	1027.591	778.625
68.534	13.059	1026.677	778.272
69.549	12.884	1025.952	776.832
70.563	13.070	1025.403	777.223
71.578	12.919	1024.639	775.864
72.593	12.955	1023.644	775.210
73.607	12.893	1023.214	774.524
74.622	12.871	1022.348	773.696
75.636	12.928	1021.853	773.523
76.651	12.919	1020.877	772.675
77.666	12.928	1019.949	771.945
78.680	12.968	1019.805	771.956
79.695	12.955	1019.005	771.219
80.709	13.027	1018.324	770.974
81.724	13.015	1017.839	770.481
82.739	13.045	1017.139	770.024
83.753	13.099	1015.884	769.258
84.768	13.150	1015.275	768.965
85.782	13.288	1014.008	768.577
86.797	13.110	1013.704	767.453
87.812	13.131	1012.616	766.657
88.826	13.071	1011.794	765.688
89.841	13.184	1010.799	765.393
90.855	13.139	1009.903	764.440
91.870	13.264	1008.620	763.979
92.884	13.303	1007.797	763.466
93.899	13.405	1007.285	763.481
94.914	13.401	1006.336	762.678
95.928	13.398	1005.362	761.856
96.943	13.291	1004.580	760.706
97.957	13.133	1004.265	759.672
98.972	13.245	1003.213	759.325
99.987	13.286	1001.808	758.381
101.001	13.170	1001.365	757.445
102.016	13.118	1000.307	756.343
103.030	13.224	999.471	756.127
104.045	13.357	998.616	756.022
105.060	13.317	997.366	754.825
106.074	13.028	997.184	753.303
107.089	13.071	996.234	752.716
108.103	13.106	994.940	751.830
109.118	13.016	993.999	750.644
110.133	13.156	992.959	750.425
111.147	13.082	992.416	749.612
112.162	13.157	991.661	749.317
113.176	13.115	990.873	748.468
114.191	13.160	990.154	748.059
115.206	13.169	989.756	747.732
116.220	13.245	988.161	746.807
117.235	13.234	987.360	746.085
118.249	13.151	987.133	745.472
119.264	13.295	985.662	744.946
120.279	13.057	985.263	743.504
121.293	13.175	984.365	743.292
122.308	13.162	983.036	742.167
123.322	13.055	982.854	741.480
124.337	13.066	981.530	740.468
125.352	12.883	981.007	739.187
126.366	13.064	979.574	738.851
127.381	13.168	978.536	738.466
128.395	13.086	977.951	737.594
129.410	13.210	976.629	737.086
130.424	13.163	975.878	736.245
131.439	13.156	975.139	735.590
132.454	13.152	974.758	735.218
133.468	13.161	973.850	734.511
134.483	13.128	973.000	733.658
135.497	13.149	971.803	732.784
136.512	13.137	970.999	732.059
137.527	13.213	970.131	731.678
138.541	13.263	969.678	731.490
139.556	13.191	968.901	730.523
140.570	13.248	968.183	730.169
141.585	13.247	967.023	729.225
142.600	13.308	966.168	728.784
143.614	13.324	965.619	728.374
144.629	13.402	964.439	727.763
145.643	13.415	963.370	726.952
146.658	13.376	962.559	726.103
147.673	13.365	961.764	725.389
148.687	13.203	961.077	724.100
149.702	13.202	960.292	723.438
150.716	13.297	959.357	723.085
151.731	13.308	958.619	722.511
152.746	13.398	957.798	722.224
153.760	13.428	957.385	721.981
154.775	13.406	956.885	721.443
155.789	13.399	956.090	720.749
156.804	13.479	955.439	720.543
157.819	13.382	955.257	719.920
158.833	13.558	954.260	719.868
159.848	13.533	953.577	719.181
160.862	13.476	952.531	718.080
161.877	13.389	951.133	716.589
162.892	13.378	950.418	715.936
163.906	13.383	949.792	715.426
164.921	13.305	949.281	714.638
165.935	13.345	948.297	714.009
166.950	13.491	947.116	713.683
167.964	13.402	946.238	712.578
168.979	13.421	945.306	711.896
169.994	13.469	944.522	711.448
171.008	13.476	944.104	711.098
172.023	13.517	943.468	710.734
173.037	13.636	942.096	710.147
174.052	13.585	941.766	709.618
175.067	13.488	941.115	708.649
176.081	13.540	940.559	708.388
177.096	13.483	940.004	707.663
178.110	13.633	939.180	707.624
179.125	13.537	938.640	706.742
180.140	13.701	937.744	706.706
181.154	13.680	937.706	706.523
182.169	13.544	937.464	705.701
183.183	13.567	936.656	705.127
184.198	13.637	935.911	704.803
185.213	13.705	935.096	704.415
186.227	13.756	934.559	704.163
187.242	13.723	934.377	703.826
188.256	13.755	933.379	703.146
189.271	13.780	932.508	702.533
190.286	13.681	931.734	701.472
191.300	13.544	931.249	700.461
192.315	13.406	930.629	699.353
193.329	13.630	929.754	699.577
194.344	13.808	928.768	699.522
195.359	13.652	928.670	698.730
196.373	13.760	927.952	698.584
197.388	13.798	927.308	698.195
198.402	13.906	927.306	698.587
199.417	13.829	926.398	697.520
200.432	13.958	925.578	697.383
201.446	14.016	925.095	697.197
202.461	14.069	924.690	697.053
203.475	13.986	924.255	696.317
204.490	14.040	923.443	695.870
205.504	13.910	922.502	694.555
206.519	13.885	921.955	693.978
207.534	14.061	920.911	693.864
208.548	13.997	920.369	693.127
209.563	14.121	919.667	693.053
210.577	14.053	919.168	692.332
211.592	14.081	918.288	691.727
212.607	14.007	917.787	690.980
213.621	14.053	917.109	690.599
214.636	14.055	916.709	690.247
215.650	14.096	915.658	689.562
216.665	14.231	914.781	689.400
217.680	14.309	913.855	688.966
218.694	14.208	913.414	688.154
219.709	14.275	912.840	687.937
220.723	14.269	912.030	687.242
221.738	14.184	911.609	686.513
222.753	14.309	910.383	686.046
223.767	14.236	910.225	685.563
224.782	14.308	909.467	685.230
225.796	14.358	908.903	684.949
226.811	14.302	908.759	684.548
227.826	14.265	907.601	683.465
228.840	14.330	906.762	683.037
229.855	14.229	906.171	682.120
230.869	14.145	905.577	681.266
231.884	14.212	904.871	680.952
232.899	14.185	904.003	680.129
233.913	14.229	903.114	679.575
234.928	14.265	902.916	679.513
235.942	14.301	902.203	679.066
236.957	14.216	901.808	678.363
237.972	14.384	900.643	678.110
238.986	14.404	900.192	677.790
240.001	14.309	899.386	676.738
241.015	14.377	898.646	676.398
242.030	14.309	898.542	675.982
243.045	14.445	897.792	675.909
244.059	14.373	897.128	675.060
245.074	14.480	896.360	674.853
246.088	14.391	895.943	674.119
247.103	14.460	895.211	673.791
248.117	14.603	894.817	674.010
249.132	14.534	894.155	673.175
250.147	14.574	893.499	672.781
251.161	14.672	892.769	672.567
252.176	14.680	892.228	672.132
253.190	14.724	891.631	671.801
254.205	14.656	890.915	670.930
255.220	14.839	889.836	670.791
256.234	14.617	889.890	669.882
257.249	14.792	888.898	669.777
258.263	14.838	887.860	669.118
259.278	14.951	887.296	669.086
260.293	14.809	886.978	668.218
261.307	14.911	886.184	667.969
262.322	14.912	885.806	667.630
263.336	14.834	885.062	666.701
264.351	15.087	883.790	666.691
265.366	14.953	883.563	665.927
266.380	15.085	882.996	665.967
267.395	14.926	882.770	665.101
268.409	14.965	881.472	664.222
269.424	14.852	880.995	663.354
270.439	14.934	880.322	663.113
271.453	15.023	879.232	662.587
272.468	15.090	879.003	662.620
273.482	15.053	878.551	662.075
274.497	15.060	877.701	661.403
275.512	15.103	877.115	661.072
276.526	15.135	876.823	660.919
277.541	15.189	876.081	660.515
278.555	15.095	875.915	659.964
279.570	15.278	874.820	659.799
280.585	15.221	873.917	658.836
281.599	15.088	873.770	658.145
282.614	15.211	872.530	657.634
283.628	15.092	872.377	656.994
284.643	15.118	871.775	656.585
285.657	15.197	870.982	656.239
286.672	15.072	870.896	655.625
287.687	15.298	869.620	655.492
288.701	15.273	869.488	655.236
289.716	15.232	868.887	654.565
290.730	15.495	867.806	654.719
291.745	15.333	867.659	653.918
292.760	15.414	866.503	653.303
293.774	15.378	866.241	652.908
294.789	15.487	865.457	652.685
295.803	15.330	865.071	651.723
296.818	15.323	864.540	651.240
297.833	15.394	863.818	650.913
298.847	15.478	862.868	650.468
299.862	15.585	862.471	650.522
300.876	15.394	862.196	649.520
301.891	15.444	861.516	649.143
302.906	15.570	860.859	649.079
303.920	15.574	860.077	648.447
304.935	15.671	859.496	648.323
305.949	15.772	858.940	648.237
306.964	15.475	858.566	646.753
307.979	15.639	858.252	647.092
308.993	15.480	857.770	646.057
310.008	15.718	856.921	646.276
311.022	15.649	856.278	645.471
312.037	15.577	855.768	644.750
313.052	15.601	855.058	644.250
314.066	15.691	854.271	643.945
315.081	15.561	854.049	643.225
316.095	15.628	853.472	642.989
317.110	15.592	852.835	642.317
318.125	15.730	852.192	642.302
319.139	15.532	851.988	641.333
320.154	15.831	851.161	641.794
321.168	15.847	850.621	641.393
322.183	15.776	850.120	640.689
323.197	15.727	849.697	640.127
324.212	15.811	849.354	640.129
325.227	15.679	848.742	639.109
326.241	15.782	848.029	638.906
327.256	15.717	847.747	638.394
328.270	15.775	846.681	637.754
329.285	15.873	845.981	637.541
330.300	15.812	845.208	636.669
331.314	15.867	845.169	636.793
332.329	15.899	844.508	636.359
333.343	15.851	844.326	635.983
334.358	15.795	844.001	635.471
335.373	16.044	843.257	635.795
336.387	15.880	843.227	635.099
337.402	16.026	842.821	635.285
338.416	16.076	842.555	635.219
339.431	16.132	842.180	635.091
340.446	16.066	841.578	634.331
341.460	16.036	840.974	633.706
342.475	16.123	840.904	633.926
343.489	16.180	840.245	633.587
344.504	16.250	839.867	633.510
345.519	16.210	839.444	632.984
346.533	16.191	838.841	632.402
347.548	16.277	838.168	632.161
348.562	16.171	837.749	631.389
349.577	16.111	837.083	630.610
350.592	16.252	836.293	630.486
351.606	16.344	835.646	630.284
352.621	16.150	834.996	629.016
353.635	16.140	834.453	628.511
354.650	16.384	833.677	628.782
355.665	16.168	833.446	627.747
356.679	16.296	832.690	627.598
357.694	16.238	832.035	626.835
358.708	16.290	831.407	626.498
359.723	16.342	830.796	626.177
360.738	16.218	830.826	625.681
361.752	16.173	830.176	624.971
362.767	16.388	829.079	624.884
363.781	16.443	828.910	624.905
364.796	16.423	828.457	624.436
365.810	16.701	827.558	624.728
366.825	16.595	827.238	624.042
367.840	16.488	826.872	623.315
368.854	16.504	826.418	622.975
369.869	16.520	826.027	622.687
370.883	16.522	825.886	622.532
371.898	16.718	825.165	622.653
372.913	16.694	824.844	622.269
373.927	16.585	824.384	621.466
374.942	16.643	823.975	621.313
375.956	16.727	823.506	621.214
376.971	16.803	822.928	621.001
377.986	16.804	822.816	620.868
379.000	16.757	822.118	620.114
380.015	16.885	821.448	620.022
381.029	16.840	820.814	619.324
382.044	16.856	820.691	619.232
383.059	16.824	819.929	618.489
384.073	16.707	819.633	617.782
385.088	16.894	818.608	617.636
386.102	16.798	817.934	616.723
387.117	16.691	818.025	616.350
388.132	16.837	817.246	616.238
389.146	16.830	816.433	615.545
390.161	16.901	816.088	615.486
391.175	16.905	815.564	615.052
392.190	16.835	814.984	614.307
393.205	16.848	814.556	613.978
394.219	16.965	814.041	613.959
395.234	16.824	813.974	613.341
396.248	16.805	813.450	612.824
397.263	16.942	812.604	612.629
398.278	16.702	812.814	611.867
399.292	16.985	811.989	612.212
400.307	16.800	811.590	611.191
401.321	16.870	811.213	611.102
402.336	16.958	810.341	610.711
403.350	17.031	809.950	610.624
404.365	17.024	809.551	610.244
405.380	16.983	809.457	609.973
406.394	17.161	808.579	609.896
407.409	17.249	808.053	609.759
408.423	17.265	807.601	609.421
409.438	17.132	807.796	609.038
410.453	17.253	807.289	609.037
411.467	17.255	806.851	608.659
412.482	17.274	806.059	608.075
413.496	17.360	805.808	608.138
414.511	17.355	805.396	607.758
415.526	17.393	805.217	607.706
416.540	17.338	804.547	606.948
417.555	17.333	804.179	606.599
418.569	17.353	803.942	606.437
419.584	17.469	803.163	606.210
420.599	17.258	802.921	605.224
421.613	110.014	1292.774	1473.560
422.628	94.794	1364.110	1473.639
