DTS Sentinel unit serial number:	SN413079Multiplexer serial number:	ORYXHardware model number:	OX4-SRSoftware version number:	ORYX F/W v4.00 Oryx Data Collector v3.7.2.0data status	okinstallation	princeton_trtdifferential loss correction	single-endedforward channel	channel 1reverse channel	N/Adate	2019/09/13time	08:42:35forward acquisition time	60.00reverse acquisition time	0.00gamma	496.2192k internal	0.2329k external	0.2329temperature offset calibration	1.0166default loss term (dB/km)	0.3790temperature slope calibration	1.0000multiplexer offset coefficient	1.0000multiplexer slope coefficient	1.0000fibre end	0.00T internal ref (°C)	27.84T ext. ref 1 (°C)	4.30T ext. ref 2 (°C)	24.74length (m)	temperature (°C)	Stokes	anti-Stokes-747.200	-37.050	0.272	-0.147
-746.185	-200.000	-0.079	0.400
-745.171	-130.779	0.085	-0.011
-744.156	51.447	-0.386	0.370
-743.142	-200.000	-0.006	0.274
-742.127	125.674	-0.177	0.225
-741.112	64.122	0.150	0.152
-740.098	185.003	0.024	-0.036
-739.083	-18.817	0.238	0.150
-738.069	800.000	-0.136	0.450
-737.054	-56.537	0.206	-0.092
-736.039	94.088	-0.120	0.137
-735.025	-82.575	0.404	0.132
-734.010	-104.308	-0.444	0.104
-732.996	139.128	-0.125	0.166
-731.981	-200.000	0.003	0.258
-730.966	155.214	0.161	0.223
-729.952	430.782	-0.072	0.156
-728.937	800.000	0.128	0.417
-727.923	0.836	0.115	-0.083
-726.908	155.130	-0.330	-0.457
-725.894	227.351	0.040	0.066
-724.879	114.476	0.017	-0.020
-723.864	87.783	-0.038	0.042
-722.850	-27.618	0.088	-0.052
-721.835	800.000	-0.127	-0.376
-720.821	-6.958	0.144	-0.099
-719.806	-200.000	-0.005	0.233
-718.791	22.700	-0.246	-0.203
-717.777	-13.849	0.204	0.133
-716.762	-86.931	-0.323	-0.099
-715.748	-33.980	-0.402	-0.223
-714.733	250.624	0.165	-0.282
-713.718	614.215	-0.072	0.182
-712.704	16.612	-0.275	0.218
-711.689	-200.000	0.056	0.264
-710.675	131.320	0.084	0.109
-709.660	-79.565	0.213	-0.072
-708.645	-82.426	-0.255	0.083
-707.631	764.335	-0.076	-0.208
-706.616	-200.000	0.036	0.190
-705.602	-63.473	-0.117	0.049
-704.587	-80.692	-0.226	0.076
-703.572	-156.442	-0.142	0.009
-702.558	19.720	-0.176	0.143
-701.543	478.659	0.066	-0.150
-700.529	-200.000	-0.022	-0.151
-699.514	119.042	-0.141	-0.175
-698.499	800.000	-0.064	-0.255
-697.485	117.422	0.089	0.110
-696.470	-200.000	0.037	-0.357
-695.456	800.000	0.046	0.186
-694.441	437.215	-0.111	0.242
-693.426	-64.622	0.265	-0.108
-692.412	-200.000	-0.005	-0.091
-691.397	-200.000	0.002	0.205
-690.383	-200.000	-0.022	-0.271
-689.368	447.560	0.085	0.187
-688.354	800.000	-0.067	0.196
-687.339	800.000	0.073	-0.277
-686.324	-47.273	0.033	0.016
-685.310	351.917	-0.071	0.142
-684.295	-189.089	-0.207	0.002
-683.281	-200.000	0.038	0.276
-682.266	-6.588	0.067	0.046
-681.251	26.847	-0.165	-0.139
-680.237	360.714	0.059	-0.119
-679.222	11.490	-0.176	-0.136
-678.208	-95.930	0.096	-0.026
-677.193	-200.000	0.012	0.384
-676.178	165.181	-0.060	0.085
-675.164	107.663	-0.081	-0.097
-674.149	-200.000	-0.062	-0.293
-673.135	745.478	0.145	-0.392
-672.120	-28.378	-0.153	-0.088
-671.105	8.428	0.216	0.163
-670.091	-200.000	-0.006	0.195
-669.076	-137.149	-0.072	-0.008
-668.062	-38.791	0.171	0.091
-667.047	-2.471	0.052	-0.036
-666.032	285.023	-0.061	-0.110
-665.018	-86.815	-0.099	-0.030
-664.003	69.302	0.068	-0.070
-662.989	-184.881	-0.225	-0.004
-661.974	-200.000	0.003	-0.171
-660.959	-72.409	0.330	0.123
-659.945	-200.000	0.009	0.182
-658.930	-93.678	0.155	0.043
-657.916	8.012	-0.098	0.074
-656.901	-53.875	0.098	-0.045
-655.886	-89.566	0.215	-0.063
-654.872	-10.556	0.237	0.158
-653.857	488.672	-0.072	0.166
-652.843	-200.000	0.112	-0.599
-651.828	214.052	0.136	-0.217
-650.814	-49.235	0.050	0.024
-649.799	189.390	0.108	-0.162
-648.784	-77.198	0.298	-0.104
-647.770	163.439	0.077	0.108
-646.755	76.370	-0.144	0.153
-645.741	-55.113	-0.206	-0.093
-644.726	-16.885	-0.036	0.023
-643.711	-20.957	-0.249	-0.153
-642.697	-34.148	0.045	0.025
-641.682	-132.302	-0.146	-0.019
-640.668	-26.383	-0.181	-0.107
-639.653	-25.127	-0.298	0.177
-638.638	-10.925	0.268	-0.177
-637.624	-82.889	0.070	-0.023
-636.609	148.877	-0.063	-0.085
-635.595	-141.128	0.361	-0.037
-634.580	-66.012	-0.227	-0.091
-633.565	-123.821	0.419	0.066
-632.551	46.641	-0.198	0.185
-631.536	-163.322	-0.129	0.006
-630.522	-115.097	-0.176	0.033
-629.507	-200.000	0.033	0.247
-628.492	179.439	0.150	-0.221
-627.478	29.575	-0.284	0.242
-626.463	800.000	0.048	-0.145
-625.449	-15.718	-0.235	-0.150
-624.434	105.259	-0.034	-0.041
-623.419	800.000	-0.043	0.173
-622.405	-20.772	-0.080	0.049
-621.390	143.880	0.181	0.242
-620.376	-200.000	0.028	-0.428
-619.361	27.924	-0.118	-0.099
-618.346	-139.291	-0.252	-0.027
-617.332	-38.134	-0.238	-0.126
-616.317	-94.400	-0.148	-0.041
-615.303	-69.494	0.213	-0.082
-614.288	800.000	0.055	-0.183
-613.273	-85.566	-0.243	-0.076
-612.259	-151.828	0.376	0.028
-611.244	-200.000	-0.013	-0.252
-610.230	460.637	-0.038	-0.085
-609.215	87.320	-0.332	-0.368
-608.201	-200.000	0.012	0.235
-607.186	152.051	0.218	0.298
-606.171	-200.000	-0.022	0.147
-605.157	122.624	0.116	-0.145
-604.142	-200.000	-0.008	-0.115
-603.128	800.000	-0.111	-0.325
-602.113	140.790	0.104	-0.138
-601.098	-158.287	0.192	-0.011
-600.084	-149.369	0.127	-0.010
-599.069	-49.117	0.191	0.091
-598.055	-200.000	-0.027	-0.237
-597.040	-83.385	0.347	-0.111
-596.025	534.084	-0.015	0.037
-595.011	-65.747	0.124	0.050
-593.996	-16.709	-0.130	-0.083
-592.982	-64.574	0.344	-0.140
-591.967	712.283	-0.034	0.090
-590.952	3.798	-0.186	0.136
-589.938	134.779	-0.227	-0.295
-588.923	-119.918	0.229	0.039
-587.909	-200.000	-0.049	-0.257
-586.894	-107.654	0.064	0.014
-585.879	800.000	0.057	-0.205
-584.865	-114.050	-0.186	0.036
-583.850	-46.573	-0.165	-0.081
-582.836	-108.939	-0.359	0.077
-581.821	-200.000	-0.039	0.451
-580.806	-85.520	-0.260	0.081
-579.792	800.000	0.053	0.228
-578.777	622.930	-0.054	-0.136
-577.763	800.000	-0.078	-0.219
-576.748	-200.000	0.004	-0.124
-575.733	17.946	-0.136	0.109
-574.719	204.148	0.118	0.183
-573.704	-37.173	-0.341	-0.183
-572.690	713.793	-0.070	0.186
-571.675	122.341	0.188	0.236
-570.661	318.925	-0.089	0.168
-569.646	145.124	-0.030	0.040
-568.631	175.616	0.106	0.153
-567.617	-21.089	0.217	0.133
-566.602	46.010	-0.114	-0.105
-565.588	84.421	0.042	0.046
-564.573	269.921	0.063	-0.111
-563.558	234.704	-0.110	0.181
-562.544	-200.000	-0.008	0.095
-561.529	-52.924	-0.079	0.036
-560.515	-81.175	-0.236	0.078
-559.500	-108.825	0.158	0.034
-558.485	152.705	0.012	0.016
-557.471	-200.000	0.028	0.181
-556.456	-113.531	-0.118	0.023
-555.442	131.477	0.172	0.220
-554.427	-43.171	0.315	0.160
-553.412	-200.000	0.040	-0.285
-552.398	507.513	0.079	-0.184
-551.383	59.888	0.203	-0.200
-550.369	121.877	0.149	0.186
-549.354	-106.392	-0.164	-0.037
-548.339	18.258	0.235	-0.188
-547.325	544.556	-0.095	-0.228
-546.310	127.362	-0.009	-0.011
-545.296	-23.269	-0.174	-0.104
-544.281	800.000	0.019	-0.070
-543.266	-99.340	-0.162	-0.041
-542.252	-154.773	0.310	-0.021
-541.237	-200.000	-0.040	0.268
-540.223	800.000	-0.107	0.339
-539.208	56.200	0.230	0.223
-538.193	-200.000	-0.016	-0.194
-537.179	-101.979	-0.043	0.010
-536.164	800.000	-0.038	-0.116
-535.150	160.130	-0.108	0.150
-534.135	-139.488	0.475	0.051
-533.121	184.952	-0.080	-0.118
-532.106	-200.000	-0.014	-0.108
-531.091	45.358	0.194	-0.179
-530.077	-162.109	0.130	0.007
-529.062	-28.997	0.233	-0.134
-528.048	161.265	0.071	0.099
-527.033	-200.000	0.017	-0.287
-526.018	96.838	0.052	0.060
-525.004	686.766	-0.004	-0.010
-523.989	-42.630	0.047	-0.024
-522.975	-117.087	-0.327	-0.060
-521.960	294.183	-0.122	-0.222
-520.945	-200.000	0.033	-0.375
-519.931	800.000	-0.079	-0.326
-518.916	-43.310	-0.220	0.111
-517.902	-39.346	0.253	0.132
-516.887	336.949	-0.052	-0.100
-515.872	-200.000	-0.010	0.110
-514.858	-9.933	-0.164	-0.109
-513.843	44.807	-0.154	0.141
-512.829	358.142	0.108	0.215
-511.814	-200.000	-0.016	0.596
-510.799	-58.884	0.376	0.162
-509.785	123.223	-0.238	-0.298
-508.770	-200.000	0.018	-0.193
-507.756	-37.713	-0.131	0.070
-506.741	-200.000	-0.080	-0.408
-505.726	256.377	0.119	0.204
-504.712	-157.163	-0.165	-0.010
-503.697	-200.000	0.051	0.340
-502.683	12.539	-0.311	-0.239
-501.668	-167.651	0.350	-0.014
-500.653	323.530	-0.157	-0.299
-499.639	33.485	0.047	-0.040
-498.624	-47.079	0.238	-0.116
-497.610	656.529	0.074	-0.189
-496.595	99.167	-0.061	0.071
-495.581	207.016	-0.109	-0.169
-494.566	135.104	-0.098	-0.126
-493.551	-76.953	0.246	0.086
-492.537	583.436	-0.206	-0.504
-491.522	426.363	0.063	0.135
-490.508	-129.781	-0.142	0.019
-489.493	-105.244	-0.305	0.069
-488.478	159.124	-0.031	0.043
-487.464	-81.892	-0.303	0.099
-486.449	-40.994	0.372	0.192
-485.435	-133.569	0.021	-0.003
-484.420	-89.471	0.041	-0.012
-483.405	112.543	0.161	0.194
-482.391	-200.000	0.002	-0.147
-481.376	-103.066	0.022	0.005
-480.362	120.273	-0.110	0.136
-479.347	75.201	0.077	0.081
-478.332	800.000	-0.052	0.172
-477.318	-94.109	-0.333	-0.091
-476.303	-200.000	0.016	-0.119
-475.289	-200.000	0.026	0.290
-474.274	54.899	-0.200	0.193
-473.259	30.514	-0.205	-0.174
-472.245	-144.514	0.319	-0.029
-471.230	-20.317	-0.091	-0.056
-470.216	-150.303	0.145	-0.011
-469.201	800.000	0.041	-0.168
-468.186	57.229	0.127	0.123
-467.172	-38.482	0.241	0.127
-466.157	-75.299	0.272	0.097
-465.143	421.799	-0.131	-0.280
-464.128	-172.811	0.143	0.004
-463.113	105.736	-0.094	0.111
-462.099	-53.353	-0.064	-0.029
-461.084	-73.081	0.137	0.050
-460.070	-66.291	0.345	-0.137
-459.055	-82.499	-0.307	-0.099
-458.040	800.000	0.068	0.201
-457.026	-51.496	0.127	-0.059
-456.011	-200.000	0.040	0.188
-454.997	-3.853	0.231	0.160
-453.982	405.320	0.183	-0.384
-452.968	800.000	-0.059	-0.172
-451.953	-200.000	0.042	0.237
-450.938	5.437	-0.212	0.156
-449.924	-200.000	-0.002	0.262
-448.909	800.000	0.011	-0.045
-447.895	800.000	-0.102	0.293
-446.880	800.000	-0.108	-0.461
-445.865	566.651	0.099	0.239
-444.851	-168.306	-0.278	0.011
-443.836	-200.000	0.002	0.010
-442.822	800.000	0.098	0.340
-441.807	542.505	0.068	-0.161
-440.792	-16.999	0.085	-0.054
-439.778	-200.000	0.012	0.059
-438.763	-119.309	0.151	0.026
-437.749	-121.748	-0.134	0.022
-436.734	431.557	0.145	-0.313
-435.719	-74.437	0.104	-0.037
-434.705	-62.203	0.303	-0.126
-433.690	800.000	0.039	0.120
-432.676	-200.000	0.031	0.221
-431.661	1.713	-0.202	-0.145
-430.646	-21.423	0.138	-0.084
-429.632	-200.000	-0.025	-0.353
-428.617	-58.722	-0.138	0.060
-427.603	-200.000	0.326	-0.001
-426.588	-200.000	0.005	-0.069
-425.573	608.327	-0.044	0.110
-424.559	-200.000	0.025	-0.180
-423.544	145.860	-0.022	0.029
-422.530	8.828	-0.180	0.135
-421.515	-200.000	-0.026	0.506
-420.500	68.064	0.170	0.173
-419.486	184.851	0.100	0.147
-418.471	20.665	0.201	0.162
-417.457	384.266	0.018	0.038
-416.442	-34.644	0.198	0.108
-415.428	75.764	0.097	0.102
-414.413	-12.756	-0.105	0.068
-413.398	613.515	-0.084	-0.210
-412.384	14.901	-0.295	-0.230
-411.369	-200.000	-0.009	-0.248
-410.355	102.292	-0.096	0.112
-409.340	247.969	-0.139	0.234
-408.325	27.312	0.193	0.162
-407.311	-67.259	-0.245	-0.096
-406.296	380.060	-0.173	0.352
-405.282	19.595	-0.015	0.012
-404.267	-89.288	0.143	-0.042
-403.252	-200.000	-0.034	-0.228
-402.238	-200.000	-0.036	0.311
-401.223	85.050	-0.209	-0.228
-400.209	800.000	-0.035	-0.108
-399.194	-52.269	-0.172	-0.079
-398.179	-200.000	0.006	-0.263
-397.165	-57.448	0.143	0.063
-396.150	800.000	0.031	0.119
-395.136	-200.000	-0.026	0.402
-394.121	-116.760	0.155	0.028
-393.106	11.678	-0.195	-0.149
-392.092	-30.900	-0.181	-0.102
-391.077	79.508	0.100	0.107
-390.063	-200.000	-0.001	0.318
-389.048	27.606	0.197	0.165
-388.033	800.000	0.125	-0.525
-387.019	269.111	-0.090	-0.156
-386.004	640.565	-0.060	0.151
-384.990	164.230	0.164	-0.230
-383.975	83.269	-0.263	-0.284
-382.960	-200.000	-0.057	0.258
-381.946	183.333	-0.158	-0.232
-380.931	47.416	-0.143	0.133
-379.917	510.715	-0.075	-0.173
-378.902	800.000	0.060	0.166
-377.888	-193.408	-0.108	-0.001
-376.873	-200.000	-0.020	0.131
-375.858	-200.000	0.020	-0.119
-374.844	105.957	-0.064	0.075
-373.829	-59.136	-0.377	-0.161
-372.815	49.304	-0.241	-0.225
-371.800	279.468	-0.183	-0.324
-370.785	41.834	0.175	0.157
-369.771	381.365	0.051	-0.104
-368.756	-47.441	0.170	0.082
-367.742	243.699	-0.196	-0.327
-366.727	-200.000	-0.003	0.059
-365.712	5.349	-0.124	-0.091
-364.698	-40.801	-0.186	-0.095
-363.683	5.914	-0.111	0.082
-362.669	88.525	0.122	-0.135
-361.654	5.522	0.059	0.043
-360.639	69.764	-0.191	-0.196
-359.625	198.995	0.075	-0.113
-358.610	672.133	-0.066	0.169
-357.596	133.649	0.121	0.156
-356.581	-200.000	0.037	-0.192
-355.566	-137.978	-0.110	0.012
-354.552	422.120	-0.116	-0.247
-353.537	800.000	0.046	-0.189
-352.523	-200.000	0.105	-0.540
-351.508	362.267	0.151	0.301
-350.493	-154.534	0.099	-0.007
-349.479	52.568	0.059	-0.056
-348.464	-200.000	-0.062	0.320
-347.450	29.112	-0.126	0.106
-346.435	-0.098	0.159	-0.112
-345.420	15.256	0.020	0.015
-344.406	-200.000	-0.000	0.254
-343.391	-135.927	-0.336	-0.039
-342.377	-113.077	-0.103	-0.020
-341.362	142.132	-0.015	0.019
-340.348	85.428	-0.196	0.213
-339.333	-71.504	-0.237	0.088
-338.318	-200.000	0.000	0.063
-337.304	404.111	0.129	0.270
-336.289	800.000	-0.122	-0.443
-335.275	49.197	0.121	0.112
-334.260	-200.000	-0.020	0.253
-333.245	368.806	0.188	0.376
-332.231	191.284	0.043	0.065
-331.216	126.214	0.195	0.244
-330.202	27.101	0.185	0.154
-329.187	-143.647	0.494	-0.047
-328.172	-200.000	-0.078	0.377
-327.158	-130.149	-0.077	-0.010
-326.143	107.786	0.123	-0.146
-325.129	-26.031	0.297	-0.173
-324.114	-75.810	0.218	-0.077
-323.099	-200.000	-0.007	-0.049
-322.085	91.455	-0.105	0.117
-321.070	158.149	0.042	-0.057
-320.056	-106.231	0.174	0.039
-319.041	-13.110	0.184	-0.119
-318.026	-200.000	0.026	0.255
-317.012	192.540	-0.053	-0.079
-315.997	237.754	-0.035	-0.058
-314.983	152.854	0.084	-0.114
-313.968	-200.000	0.043	0.395
-312.953	-158.287	0.311	0.018
-311.939	-200.000	-0.001	0.008
-310.924	440.523	0.121	-0.263
-309.910	800.000	-0.009	0.035
-308.895	-57.588	0.039	-0.017
-307.880	-37.304	-0.251	-0.133
-306.866	-72.516	-0.226	0.083
-305.851	-84.920	-0.101	0.031
-304.837	344.403	-0.039	0.076
-303.822	-154.548	-0.326	-0.022
-302.807	-67.504	-0.270	-0.105
-301.793	248.525	-0.172	-0.288
-300.778	139.270	-0.213	-0.277
-299.764	-83.565	-0.282	-0.089
-298.749	8.723	0.031	-0.023
-297.735	-102.388	0.192	-0.045
-296.720	-149.154	0.160	-0.013
-295.705	-3.255	-0.176	0.122
-294.691	-49.458	0.065	-0.031
-293.676	401.937	-0.171	0.356
-292.662	-9.232	-0.240	0.159
-291.647	80.225	0.253	0.269
-290.632	-200.000	-0.025	0.161
-289.618	-97.238	-0.140	-0.036
-288.603	800.000	0.025	0.077
-287.589	-163.868	0.282	0.013
-286.574	-14.614	-0.040	0.025
-285.559	-12.409	0.153	-0.099
-284.545	800.000	0.050	-0.144
-283.530	-52.710	0.097	-0.044
-282.516	-53.927	-0.498	-0.225
-281.501	-25.684	-0.043	0.025
-280.486	653.993	-0.045	0.114
-279.472	-170.981	0.158	0.005
-278.457	-200.000	-0.007	0.030
-277.443	-82.806	0.134	-0.043
-276.428	635.158	0.045	-0.113
-275.413	65.325	-0.217	-0.217
-274.399	-191.741	0.293	-0.003
-273.384	186.567	0.169	0.249
-272.370	402.370	-0.230	0.479
-271.355	80.925	0.090	-0.096
-270.340	-61.142	0.088	-0.037
-269.326	-200.000	0.065	0.289
-268.311	-105.062	0.177	0.040
-267.297	-63.847	-0.227	-0.092
-266.282	95.303	-0.076	0.086
-265.267	-130.956	0.207	-0.027
-264.253	-103.777	-0.259	-0.060
-263.238	-31.259	0.070	0.039
-262.224	-102.686	0.216	-0.051
-261.209	227.832	0.134	0.215
-260.195	74.314	-0.123	0.128
-259.180	0.172	-0.113	0.080
-258.165	-200.000	0.037	-0.187
-257.151	-40.981	0.227	0.116
-256.136	-200.000	-0.011	-0.070
-255.122	-97.429	0.236	-0.061
-254.107	-86.713	-0.228	-0.069
-253.092	226.197	0.147	-0.236
-252.078	442.267	-0.144	-0.311
-251.063	405.807	-0.201	0.419
-250.049	103.874	0.045	-0.053
-249.034	-42.521	0.338	-0.170
-248.019	-35.649	-0.039	-0.021
-247.005	509.393	-0.050	0.115
-245.990	353.219	0.095	0.187
-244.976	-25.182	0.110	0.064
-243.961	-200.000	0.008	-0.135
-242.946	-33.870	-0.162	0.088
-241.932	76.035	0.164	0.171
-240.917	24.316	-0.072	-0.059
-239.903	-78.376	0.162	-0.055
-238.888	800.000	0.084	-0.250
-237.873	303.946	-0.095	0.174
-236.859	158.492	-0.096	-0.131
-235.844	-200.000	0.019	-0.220
-234.830	-102.965	0.242	-0.057
-233.815	-49.050	0.042	0.020
-232.800	61.546	-0.065	0.064
-231.786	-1.112	0.082	0.057
-230.771	-33.899	0.194	0.106
-229.757	800.000	-0.048	-0.181
-228.742	-169.840	-0.284	0.010
-227.727	-93.981	-0.312	-0.085
-226.713	124.479	0.094	0.117
-225.698	183.704	-0.182	0.265
-224.684	415.774	-0.074	-0.155
-223.669	-17.007	-0.088	-0.055
-222.655	-87.970	-0.182	0.054
-221.640	515.913	-0.187	0.432
-220.625	800.000	0.051	-0.167
-219.611	-120.646	-0.379	-0.063
-218.596	-19.972	-0.254	-0.155
-217.582	-83.610	-0.161	-0.051
-216.567	67.232	-0.170	0.171
-215.552	-158.132	-0.089	0.005
-214.538	136.414	0.133	-0.172
-213.523	53.181	-0.129	-0.122
-212.509	256.203	-0.173	-0.293
-211.494	-74.508	0.212	0.075
-210.479	41.744	-0.097	-0.087
-209.465	494.477	0.147	0.332
-208.450	-76.771	-0.537	-0.185
-207.436	-200.000	-0.012	-0.214
-206.421	0.185	0.384	0.270
-205.406	61.383	0.056	0.055
-204.392	70.898	0.223	0.228
-203.377	-200.000	-0.013	0.363
-202.363	800.000	-0.004	0.013
-201.348	800.000	-0.055	-0.173
-200.333	-55.908	0.112	-0.049
-199.319	117.813	-0.057	0.069
-198.304	-96.533	0.105	0.027
-197.290	145.836	-0.172	-0.227
-196.275	-61.748	0.194	-0.080
-195.260	800.000	-0.039	0.131
-194.246	-41.855	0.044	0.022
-193.231	-200.000	-0.026	0.194
-192.217	-179.754	0.134	-0.003
-191.202	-7.558	0.294	0.196
-190.187	422.702	0.036	0.075
-189.173	-19.413	0.101	0.061
-188.158	-165.517	-0.411	0.018
-187.144	207.243	0.162	-0.248
-186.129	-20.377	-0.116	-0.070
-185.114	-200.000	0.043	0.588
-184.100	-200.000	0.015	0.379
-183.085	-37.437	-0.062	-0.032
-182.071	414.645	-0.149	0.312
-181.056	-200.000	-0.026	-0.358
-180.042	-35.370	0.268	-0.144
-179.027	63.173	0.069	-0.068
-178.012	100.841	-0.061	-0.070
-176.998	-94.349	0.148	-0.040
-175.983	800.000	0.038	-0.115
-174.969	-149.679	0.158	-0.012
-173.954	58.719	0.247	0.239
-172.939	-200.000	0.000	-0.043
-171.925	800.000	0.017	-0.061
-170.910	800.000	-0.017	-0.056
-169.896	104.610	-0.134	0.155
-168.881	459.362	0.201	0.440
-167.866	-40.564	0.277	0.142
-166.852	363.777	0.111	-0.221
-165.837	107.227	0.068	0.080
-164.823	-165.304	0.141	-0.006
-163.808	323.802	-0.080	0.151
-162.793	113.319	-0.047	-0.056
-161.779	12.274	0.218	-0.166
-160.764	800.000	-0.090	-0.385
-159.750	-72.114	-0.084	0.031
-158.735	543.753	0.077	-0.181
-157.720	-103.962	0.243	0.056
-156.706	84.395	0.119	0.128
-155.691	-63.073	-0.005	0.002
-154.677	208.251	-0.128	-0.197
-153.662	-118.348	-0.283	0.049
-152.647	-177.450	0.149	-0.004
-151.633	-200.000	0.006	-0.106
-150.618	-5.877	0.188	-0.127
-149.604	-12.006	-0.177	-0.114
-148.589	-200.000	-0.003	-0.069
-147.574	196.328	-0.254	0.381
-146.560	76.269	-0.252	-0.262
-145.545	250.997	0.167	0.279
-144.531	185.138	-0.054	-0.079
-143.516	800.000	-0.072	0.281
-142.502	800.000	0.048	-0.167
-141.487	289.973	-0.066	0.118
-140.472	197.222	-0.124	0.186
-139.458	4.945	0.191	0.138
-138.443	15.393	-0.090	-0.069
-137.429	800.000	-0.052	0.208
-136.414	49.884	-0.123	0.115
-135.399	800.000	0.039	0.141
-134.385	-17.853	-0.273	-0.168
-133.370	-104.163	0.212	0.049
-132.356	-200.000	0.040	0.300
-131.341	-37.322	0.515	-0.271
-130.326	-16.005	0.098	0.061
-129.312	-12.672	0.227	0.145
-128.297	3.194	0.063	-0.045
-127.283	16.334	-0.122	-0.095
-126.268	-5.207	0.227	-0.154
-125.253	67.535	-0.132	-0.132
-124.239	84.349	-0.040	-0.043
-123.224	800.000	0.072	0.249
-122.210	109.572	-0.066	0.078
-121.195	-200.000	-0.078	-0.556
-120.180	-76.855	-0.068	0.023
-119.166	170.052	-0.081	0.113
-118.151	-200.000	0.031	-0.142
-117.137	-86.627	0.105	0.031
-116.122	528.348	0.052	-0.120
-115.107	-32.333	-0.278	0.153
-114.093	198.119	-0.053	-0.080
-113.078	-31.727	0.201	-0.111
-112.064	-159.270	-0.328	0.018
-111.049	800.000	0.102	0.316
-110.034	-155.809	0.114	-0.007
-109.020	564.225	-0.085	0.203
-108.005	-200.000	0.003	0.256
-106.991	2.682	-0.098	-0.070
-105.976	112.567	-0.091	-0.109
-104.962	-69.315	-0.207	0.078
-103.947	5.206	0.106	0.077
-102.932	431.823	0.044	-0.094
-101.918	-109.842	0.147	0.030
-100.903	48.448	-0.276	0.254
-99.889	-4.911	0.417	-0.282
-98.874	-90.328	-0.321	0.091
-97.859	118.557	0.062	0.075
-96.845	-91.041	0.400	-0.113
-95.830	-120.075	0.224	-0.038
-94.816	-31.346	-0.241	0.133
-93.801	583.414	0.070	-0.169
-92.786	189.161	-0.139	0.204
-91.772	-78.546	0.086	-0.029
-90.757	15.606	0.210	-0.162
-89.743	-200.000	0.053	0.280
-88.728	-200.000	-0.015	-0.181
-87.713	-95.806	0.202	-0.053
-86.699	338.176	-0.222	-0.425
-85.684	20.433	0.135	-0.107
-84.670	4.339	0.305	-0.219
-83.655	49.088	-0.407	0.375
-82.640	-132.841	-0.270	0.034
-81.626	83.058	0.240	0.256
-80.611	-57.118	0.284	0.123
-79.597	-17.240	0.072	-0.044
-78.582	136.740	0.113	0.145
-77.567	-188.899	0.153	-0.002
-76.553	-92.933	-0.188	-0.051
-75.538	-62.982	-0.045	-0.018
-74.524	-200.000	0.037	-0.241
-73.509	-100.541	-0.065	0.016
-72.494	156.400	0.184	0.249
-71.480	-69.032	0.506	-0.191
-70.465	315.122	-0.068	0.127
-69.451	64.949	0.166	0.165
-68.436	-138.728	-0.320	0.034
-67.422	-200.000	0.062	-0.392
-66.407	800.000	0.106	-0.332
-65.392	-127.661	-0.231	-0.033
-64.378	-124.036	-0.303	-0.047
-63.363	452.865	0.109	0.236
-62.349	800.000	-0.073	0.289
-61.334	76.063	-0.965	-1.001
-60.319	137.203	0.356	0.457
-59.305	800.000	-0.390	-1.129
-58.290	130.678	0.859	1.081
-57.276	530.745	0.548	1.270
-56.261	-200.000	111.486	609.067
-55.246	498.307	1530.576	3456.452
-54.232	174.317	2710.073	3841.285
-53.217	107.464	2170.155	2531.485
-52.203	39.496	1609.534	1414.088
-51.188	31.405	1350.900	1137.813
-50.173	28.273	1311.660	1086.171
-49.159	52.807	1369.314	1283.446
-48.144	52.705	1383.097	1295.692
-47.130	31.340	1337.566	1126.011
-46.115	28.034	1319.840	1091.345
-45.100	27.796	1315.122	1085.988
-44.086	27.744	1312.351	1083.345
-43.071	27.762	1310.004	1081.475
-42.057	27.708	1307.851	1079.335
-41.042	27.735	1306.274	1078.149
-40.027	27.712	1304.827	1076.776
-39.013	27.721	1303.164	1075.415
-37.998	27.779	1301.084	1073.993
-36.984	27.814	1299.350	1072.729
-35.969	27.887	1297.437	1071.533
-34.954	27.881	1295.398	1069.772
-33.940	27.782	1294.597	1068.489
-32.925	27.817	1292.967	1067.308
-31.911	27.900	1291.679	1066.685
-30.896	27.926	1290.410	1065.744
-29.881	27.959	1289.100	1064.818
-28.867	27.939	1287.822	1063.597
-27.852	27.932	1286.349	1062.301
-26.838	28.050	1284.721	1061.602
-25.823	27.934	1283.528	1059.898
-24.809	27.841	1282.662	1058.600
-23.794	27.946	1280.829	1057.654
-22.779	27.996	1279.194	1056.550
-21.765	27.987	1278.005	1055.474
-20.750	27.881	1276.745	1053.780
-19.736	27.819	1275.667	1052.492
-18.721	27.861	1274.117	1051.413
-17.706	27.818	1273.471	1050.594
-16.692	27.811	1272.447	1049.666
-15.677	27.806	1271.403	1048.736
-14.663	27.768	1270.217	1047.495
-13.648	27.736	1269.485	1046.670
-12.633	27.826	1268.288	1046.155
-11.619	27.768	1267.131	1044.824
-10.604	27.953	1266.028	1044.936
-9.590	27.872	1265.319	1043.844
-8.575	27.657	1264.243	1041.684
-7.560	27.712	1263.348	1041.223
-6.546	27.795	1262.709	1041.130
-5.531	27.742	1261.743	1039.985
-4.517	27.810	1260.905	1039.645
-3.502	27.738	1260.228	1038.633
-2.487	27.863	1258.596	1037.959
-1.473	27.898	1254.879	1035.051
-0.458	26.630	1241.090	1016.524
0.556	25.402	1223.460	980.520
1.571	21.829	1228.662	964.979
2.586	20.762	1243.112	970.298
3.600	19.956	1230.887	956.221
4.615	15.266	1158.720	875.636
5.629	7.804	1086.631	784.412
6.644	4.641	1067.941	755.501
7.659	4.274	1065.807	752.146
8.673	4.146	1064.604	750.612
9.688	4.141	1062.949	749.352
10.702	4.533	1061.087	749.870
11.717	9.511	1067.357	778.346
12.731	17.315	1078.468	824.356
13.746	21.545	1083.441	848.643
14.761	22.201	1084.036	852.215
15.775	21.332	1082.538	846.753
16.790	20.351	1080.824	840.588
17.804	19.703	1079.023	835.982
18.819	19.480	1077.946	833.995
19.834	19.578	1077.009	833.672
20.848	19.365	1077.229	832.738
21.863	19.287	1075.346	830.833
22.877	19.036	1075.485	829.658
23.892	18.960	1074.797	828.685
24.907	18.973	1073.475	827.658
25.921	18.984	1072.863	827.164
26.936	18.886	1071.390	825.482
27.950	19.019	1070.001	824.981
28.965	19.163	1067.911	823.984
29.980	19.338	1066.696	823.812
30.994	19.367	1065.754	823.147
32.009	19.385	1064.990	822.570
33.023	19.346	1064.055	821.592
34.038	19.082	1063.399	819.753
35.053	19.152	1062.251	819.130
36.067	19.102	1061.430	818.184
37.082	19.153	1060.740	817.825
38.096	19.224	1060.130	817.617
39.111	19.344	1058.988	817.234
40.126	19.100	1057.859	815.132
41.140	18.806	1056.334	812.498
42.155	18.653	1055.277	810.889
43.169	18.535	1053.958	809.247
44.184	18.564	1053.138	808.682
45.199	18.451	1052.177	807.342
46.213	18.927	1050.953	808.571
47.228	18.988	1050.361	808.329
48.242	19.100	1049.278	807.951
49.257	18.944	1048.505	806.551
50.271	19.187	1047.340	806.721
51.286	19.134	1046.945	806.098
52.301	19.163	1046.177	805.571
53.315	18.856	1044.990	803.150
54.330	18.857	1043.412	801.871
55.344	18.717	1043.135	800.934
56.359	18.820	1041.925	800.415
57.374	18.798	1040.971	799.510
58.388	18.734	1039.809	798.251
59.403	18.594	1039.232	797.083
60.417	18.680	1038.352	796.737
61.432	18.671	1037.933	796.305
62.447	18.382	1037.018	794.195
63.461	18.356	1036.288	793.444
64.476	18.427	1034.815	792.572
65.490	18.370	1034.063	791.664
66.505	18.468	1033.441	791.571
67.520	18.571	1032.453	791.219
68.534	18.441	1032.111	790.284
69.549	18.417	1031.147	789.366
70.563	18.414	1030.508	788.794
71.578	18.282	1029.298	787.194
72.593	18.223	1028.813	786.479
73.607	18.148	1028.307	785.678
74.622	18.278	1027.439	785.541
75.636	18.183	1027.341	784.962
76.651	18.344	1026.324	784.856
77.666	18.259	1025.686	783.906
78.680	18.364	1024.689	783.558
79.695	18.475	1024.270	783.676
80.709	18.509	1023.768	783.379
81.724	18.677	1023.196	783.638
82.739	18.764	1022.286	783.269
83.753	18.997	1021.989	784.032
84.768	19.469	1021.294	785.580
85.782	19.507	1020.770	785.280
86.797	19.428	1019.544	783.908
87.812	19.116	1018.617	781.707
88.826	19.167	1017.808	781.253
89.841	19.410	1016.467	781.255
90.855	19.339	1016.089	780.571
91.870	19.475	1015.225	780.454
92.884	19.185	1014.791	778.742
93.899	19.338	1013.351	778.258
94.914	19.486	1012.240	778.001
95.928	19.313	1011.557	776.631
96.943	19.259	1010.156	775.243
97.957	19.168	1009.982	774.629
98.972	19.292	1008.846	774.249
99.987	19.285	1007.955	773.466
101.001	19.170	1007.093	772.218
102.016	19.203	1006.009	771.469
103.030	19.301	1005.744	771.635
104.045	19.214	1004.876	770.510
105.060	19.063	1003.957	769.062
106.074	18.871	1002.612	767.108
107.089	18.719	1001.064	765.180
108.103	18.461	1000.557	763.572
109.118	18.434	999.279	762.413
110.133	18.441	998.333	761.654
111.147	18.409	997.932	761.138
112.162	18.408	997.166	760.483
113.176	18.639	996.248	760.738
114.191	18.798	995.550	760.841
115.206	18.608	995.086	759.579
116.220	18.537	994.091	758.440
117.235	18.465	993.146	757.334
118.249	18.558	992.249	756.990
119.264	18.500	991.189	755.860
120.279	18.494	990.560	755.290
121.293	18.342	989.743	753.930
122.308	18.348	988.568	752.991
123.322	18.244	987.893	751.957
124.337	18.160	986.659	750.579
125.352	18.297	985.036	749.880
126.366	18.284	984.271	749.176
127.381	18.334	983.422	748.681
128.395	18.291	982.583	747.789
129.410	18.345	981.747	747.323
130.424	18.465	981.453	747.553
131.439	18.734	980.117	747.642
132.454	18.477	980.256	746.563
133.468	18.705	978.704	746.305
134.483	18.534	978.578	745.399
135.497	18.716	976.934	744.871
136.512	18.767	976.492	744.691
137.527	18.731	975.818	743.957
138.541	18.656	975.224	743.113
139.556	18.804	974.350	743.018
140.570	18.934	973.806	743.100
141.585	19.027	973.239	743.006
142.600	19.248	971.905	742.872
143.614	19.333	971.150	742.599
144.629	19.461	970.387	742.497
145.643	19.275	969.414	740.891
146.658	19.072	968.158	738.991
147.673	18.931	967.031	737.461
148.687	18.752	966.138	735.946
149.702	18.779	964.731	734.928
150.716	18.673	964.381	734.143
151.731	18.806	963.933	734.304
152.746	18.789	963.264	733.659
153.760	19.022	961.861	733.518
154.775	18.947	962.246	733.425
155.789	18.943	961.667	732.902
156.804	19.135	960.334	732.638
157.819	19.316	959.562	732.756
158.833	19.193	959.290	731.958
159.848	19.385	959.003	732.492
160.862	19.228	957.230	730.406
161.877	18.894	956.244	728.174
162.892	18.771	954.816	726.505
163.906	18.690	953.993	725.470
164.921	18.722	953.274	724.994
165.935	19.001	952.425	725.461
166.950	18.923	951.869	724.645
167.964	18.972	950.489	723.735
168.979	18.772	949.821	722.323
169.994	18.790	948.697	721.481
171.008	18.921	948.625	721.910
172.023	19.181	947.691	722.229
173.037	19.415	947.302	722.849
174.052	19.028	946.666	720.677
175.067	18.863	945.446	718.995
176.081	18.815	944.835	718.264
177.096	18.724	944.460	717.538
178.110	18.746	943.936	717.166
179.125	18.835	943.351	717.032
180.140	18.918	942.539	716.696
181.154	19.153	942.428	717.526
182.169	19.240	942.184	717.640
183.183	19.172	942.217	717.319
184.198	19.343	940.601	716.736
185.213	19.302	939.721	715.833
186.227	19.278	939.462	715.472
187.242	19.515	938.676	715.792
188.256	19.582	938.033	715.516
189.271	19.587	936.819	714.547
190.286	19.177	936.070	712.217
191.300	18.651	935.284	709.383
192.315	18.513	934.829	708.404
193.329	18.625	934.325	708.421
194.344	18.804	933.710	708.631
195.359	18.825	933.251	708.307
196.373	19.127	932.172	708.669
197.388	19.302	932.126	709.291
198.402	19.496	931.756	709.746
199.417	19.589	931.321	709.733
200.432	19.565	931.084	709.392
201.446	19.673	930.527	709.349
202.461	19.881	929.865	709.635
203.475	19.695	929.220	708.317
204.490	19.420	928.182	706.337
205.504	19.354	927.082	705.167
206.519	19.352	926.555	704.697
207.534	19.333	925.770	703.957
208.548	19.305	925.272	703.403
209.563	19.360	924.465	702.953
210.577	19.529	923.806	703.076
211.592	19.634	923.464	703.181
212.607	19.823	922.266	702.976
213.621	19.612	921.958	701.821
214.636	19.650	921.157	701.302
215.650	19.562	920.651	700.502
216.665	19.791	919.948	700.830
217.680	19.881	919.265	700.612
218.694	19.959	918.214	700.064
219.709	19.856	918.002	699.423
220.723	19.802	917.384	698.675
221.738	19.603	916.768	697.342
222.753	19.609	916.208	696.878
223.767	19.636	915.849	696.650
224.782	19.940	915.326	697.417
225.796	19.961	915.024	697.211
226.811	19.908	913.550	695.812
227.826	19.607	913.136	694.224
228.840	19.698	912.046	693.699
229.855	19.679	911.487	693.136
230.869	19.707	910.371	692.339
231.884	19.638	909.843	691.602
232.899	19.482	909.394	690.575
233.913	19.270	908.635	689.090
234.928	19.156	907.944	688.048
235.942	19.256	907.171	687.799
236.957	19.420	906.666	688.011
237.972	19.291	905.970	686.908
238.986	19.375	905.489	686.816
240.001	19.365	905.045	686.382
241.015	19.623	904.166	686.677
242.030	19.686	903.712	686.523
243.045	19.511	903.512	685.613
244.059	19.837	902.495	686.076
245.074	19.850	901.608	685.391
246.088	19.761	901.833	685.148
247.103	19.995	901.102	685.462
248.117	20.012	901.043	685.423
249.132	20.320	900.723	686.338
250.147	20.514	900.036	686.519
251.161	20.551	899.389	686.111
252.176	20.680	898.564	685.930
253.190	20.695	897.974	685.476
254.205	20.753	897.157	685.020
255.220	20.677	896.548	684.196
256.234	20.692	896.099	683.853
257.249	20.637	895.381	683.028
258.263	20.588	894.401	682.029
259.278	20.599	894.086	681.772
260.293	20.654	893.588	681.544
261.307	20.739	892.935	681.320
262.322	20.754	892.130	680.705
263.336	20.796	891.608	680.408
264.351	20.746	890.700	679.460
265.366	20.738	890.327	679.087
266.380	20.763	889.304	678.344
267.395	20.742	888.515	677.599
268.409	20.590	887.948	676.514
269.424	20.533	887.165	675.636
270.439	20.546	886.460	675.089
271.453	20.415	885.813	674.032
272.468	20.434	885.382	673.718
273.482	20.563	884.723	673.654
274.497	20.414	884.101	672.547
275.512	20.557	883.325	672.448
276.526	20.572	883.240	672.383
277.541	20.574	883.041	672.178
278.555	20.715	882.393	672.172
279.570	20.947	881.598	672.399
280.585	20.881	880.958	671.600
281.599	20.545	879.805	669.367
282.614	20.626	878.944	668.964
283.628	20.568	878.676	668.476
284.643	20.658	877.776	668.080
285.657	20.547	877.572	667.438
286.672	20.509	876.937	666.752
287.687	20.605	876.324	666.596
288.701	20.604	875.568	665.958
289.716	20.655	875.249	665.849
290.730	20.604	874.443	664.983
291.745	20.834	873.884	665.379
292.760	20.797	873.732	665.063
293.774	20.864	873.086	664.769
294.789	20.940	872.127	664.269
295.803	20.780	871.186	662.882
296.818	20.713	870.618	662.138
297.833	20.742	869.906	661.649
298.847	20.603	869.652	660.869
299.862	20.773	869.060	661.006
300.876	21.042	868.554	661.584
301.891	20.979	868.060	660.910
302.906	21.133	867.339	660.883
303.920	21.281	867.348	661.394
304.935	21.301	866.835	661.020
305.949	21.344	865.633	660.208
306.964	21.093	864.678	658.474
307.979	20.945	864.580	657.782
308.993	21.237	864.177	658.517
310.008	21.318	863.110	657.951
311.022	21.072	863.045	656.917
312.037	20.843	862.173	655.332
313.052	20.623	861.577	653.996
314.066	20.695	860.496	653.387
315.081	20.765	860.083	653.278
316.095	20.770	859.383	652.710
317.110	20.693	859.123	652.164
318.125	20.828	858.195	651.907
319.139	20.643	858.400	651.314
320.154	20.664	857.935	650.981
321.168	20.795	857.205	650.859
322.183	20.893	856.710	650.793
323.197	20.901	856.139	650.331
324.212	20.920	855.419	649.795
325.227	20.850	854.595	648.852
326.241	20.892	854.069	648.551
327.256	20.777	853.576	647.694
328.270	20.837	853.096	647.494
329.285	20.756	852.506	646.688
330.300	20.803	851.747	646.228
331.314	20.795	851.737	646.135
332.329	21.152	851.475	647.205
333.343	20.995	851.093	646.272
334.358	21.158	850.450	646.332
335.373	21.111	850.164	645.883
336.387	21.188	849.922	645.927
337.402	21.325	849.705	646.212
338.416	21.472	849.199	646.314
339.431	21.594	848.955	646.519
340.446	21.672	848.597	646.480
341.460	21.835	848.365	646.845
342.475	21.795	847.908	646.293
343.489	21.875	847.612	646.305
344.504	21.735	847.230	645.439
345.519	21.863	846.615	645.385
346.533	21.859	845.639	644.569
347.548	21.642	844.900	643.154
348.562	21.454	844.426	642.045
349.577	21.286	843.503	640.671
350.592	21.211	842.743	639.763
351.606	21.256	841.835	639.181
352.621	21.211	841.740	638.888
353.635	21.420	840.749	638.842
354.650	21.350	840.466	638.316
355.665	21.414	839.801	637.987
356.679	21.463	839.488	637.870
357.694	21.604	838.431	637.527
358.708	21.418	838.336	636.719
359.723	21.598	837.412	636.615
360.738	21.483	836.945	635.787
361.752	21.620	836.492	635.885
362.767	21.829	835.992	636.205
363.781	21.824	835.872	636.041
364.796	22.183	835.226	636.794
365.810	22.145	835.146	636.539
366.825	22.299	834.466	636.519
367.840	22.125	833.959	635.447
368.854	21.945	833.176	634.145
369.869	21.793	832.853	633.293
370.883	21.935	832.197	633.253
371.898	22.161	832.119	633.953
372.913	22.022	831.866	633.203
373.927	21.908	831.222	632.243
374.942	22.045	830.770	632.339
375.956	22.157	830.344	632.362
376.971	22.324	829.881	632.552
377.986	22.357	829.196	632.092
379.000	22.382	829.036	632.005
380.015	22.332	828.508	631.367
381.029	22.303	827.699	630.591
382.044	22.351	827.169	630.303
383.059	22.420	826.642	630.093
384.073	22.121	826.234	628.658
385.088	22.021	825.022	627.321
386.102	21.955	824.720	626.801
387.117	21.788	824.281	625.814
388.132	21.917	823.402	625.553
389.146	22.051	822.647	625.400
390.161	22.303	822.344	626.014
391.175	22.242	822.559	625.905
392.190	22.094	821.668	624.644
393.205	22.050	820.997	623.924
394.219	22.026	820.712	623.564
395.234	21.908	819.927	622.493
396.248	21.768	819.668	621.746
397.263	21.667	818.770	620.652
398.278	21.593	818.640	620.236
399.292	21.658	818.441	620.263
400.307	21.604	817.983	619.666
401.321	21.913	816.994	619.958
402.336	21.993	816.933	620.137
403.350	22.037	816.703	620.064
404.365	22.287	816.138	620.463
405.380	22.233	816.206	620.269
406.394	22.407	815.666	620.415
407.409	22.361	815.214	619.854
408.423	22.591	814.733	620.244
409.438	22.565	814.589	619.988
410.453	22.849	813.701	620.256
411.467	22.814	813.095	619.614
412.482	22.852	812.738	619.423
413.496	22.852	812.503	619.187
414.511	22.846	812.128	618.826
415.526	22.733	811.649	618.010
416.540	22.545	811.592	617.255
417.555	22.615	810.975	616.976
418.569	22.666	810.706	616.893
419.584	22.751	809.940	616.553
420.599	22.722	809.567	616.117
421.613	164.223	1371.535	1795.658
422.628	143.008	1453.403	1795.751
