DTS Sentinel unit serial number:	SN413079Multiplexer serial number:	ORYXHardware model number:	OX4-SRSoftware version number:	ORYX F/W v4.00 Oryx Data Collector v3.7.2.0data status	okinstallation	princeton_trtdifferential loss correction	single-endedforward channel	channel 1reverse channel	N/Adate	2019/09/13time	23:46:36forward acquisition time	60.00reverse acquisition time	0.00gamma	496.2192k internal	0.2337k external	0.2337temperature offset calibration	1.0080default loss term (dB/km)	0.3790temperature slope calibration	1.0000multiplexer offset coefficient	1.0000multiplexer slope coefficient	1.0000fibre end	0.00T internal ref (°C)	26.62T ext. ref 1 (°C)	3.16T ext. ref 2 (°C)	20.93length (m)	temperature (°C)	Stokes	anti-Stokes-747.200	-51.590	-0.247	0.116
-746.185	800.000	0.038	0.169
-745.171	-200.000	0.032	-0.261
-744.156	590.276	-0.149	0.368
-743.142	48.828	-0.204	-0.192
-742.127	800.000	0.156	0.502
-741.112	-200.000	0.063	0.394
-740.098	-115.326	0.094	-0.018
-739.083	-77.812	-0.194	0.067
-738.069	25.103	-0.199	0.165
-737.054	-200.000	0.053	0.299
-736.039	-62.537	-0.513	-0.214
-735.025	-179.070	-0.259	0.006
-734.010	-43.777	-0.068	-0.034
-732.996	71.182	0.044	-0.046
-731.981	466.237	0.039	-0.089
-730.966	273.041	-0.162	-0.287
-729.952	-145.325	-0.203	-0.018
-728.937	800.000	-0.139	-0.417
-727.923	-200.000	0.006	0.072
-726.908	17.913	0.199	-0.159
-725.894	800.000	0.128	-0.480
-724.879	-86.210	-0.357	0.110
-723.864	44.262	0.327	-0.301
-722.850	235.454	0.076	0.126
-721.835	150.885	0.023	-0.031
-720.821	72.606	-0.215	-0.225
-719.806	-115.652	0.249	-0.047
-718.791	-55.484	0.196	0.088
-717.777	-127.389	-0.104	-0.015
-716.762	78.329	-0.119	0.128
-715.748	-91.751	0.088	-0.025
-714.733	-111.295	0.047	-0.010
-713.718	218.398	0.166	0.266
-712.704	31.930	-0.114	0.099
-711.689	-62.989	-0.127	-0.053
-710.675	243.727	-0.148	-0.248
-709.660	-129.686	0.539	-0.074
-708.645	-200.000	0.037	0.433
-707.631	165.171	-0.032	-0.045
-706.616	-200.000	0.006	-0.216
-705.602	-200.000	-0.020	0.290
-704.587	-91.206	0.059	0.017
-703.572	-200.000	-0.026	-0.156
-702.558	-55.901	0.306	0.137
-701.543	308.844	0.085	-0.159
-700.529	-200.000	0.021	0.142
-699.514	-196.703	0.484	-0.003
-698.499	-38.751	-0.195	0.103
-697.485	-133.384	-0.142	-0.018
-696.470	-200.000	-0.001	-0.029
-695.456	-80.103	0.238	0.080
-694.441	-200.000	0.013	0.462
-693.426	7.284	-0.363	0.271
-692.412	-71.210	0.273	-0.103
-691.397	-200.000	0.070	-0.386
-690.383	563.712	0.111	-0.268
-689.368	11.157	0.110	-0.084
-688.354	800.000	0.050	0.190
-687.339	-58.601	0.164	-0.071
-686.324	-159.768	0.305	0.017
-685.310	37.093	-0.198	0.175
-684.295	760.509	-0.143	-0.387
-683.281	2.963	-0.065	-0.047
-682.266	77.058	-0.191	-0.203
-681.251	-200.000	0.014	-0.190
-680.237	97.406	0.232	0.267
-679.222	-104.323	0.190	0.044
-678.208	-85.643	-0.560	-0.174
-677.193	-200.000	-0.001	-0.173
-676.178	-26.844	-0.146	-0.085
-675.164	-22.356	0.166	0.101
-674.149	-70.786	-0.101	-0.038
-673.135	18.553	-0.137	0.110
-672.120	111.723	-0.138	-0.167
-671.105	800.000	0.096	0.315
-670.091	43.651	-0.208	0.191
-669.076	52.359	0.108	-0.103
-668.062	-41.454	-0.075	0.039
-667.047	-64.212	0.165	0.067
-666.032	-200.000	-0.035	-0.451
-665.018	28.280	-0.061	-0.052
-664.003	-135.729	-0.184	-0.022
-662.989	-91.183	0.146	0.042
-661.974	-200.000	0.097	-0.502
-660.959	-132.944	0.270	0.034
-659.945	800.000	-0.116	-0.382
-658.930	453.729	0.076	-0.168
-657.916	-200.000	0.000	0.095
-656.901	-200.000	0.025	-0.443
-655.886	-165.853	0.153	0.007
-654.872	397.225	0.153	-0.319
-653.857	-106.435	0.214	0.048
-652.843	557.329	0.031	0.075
-651.828	-200.000	0.031	0.191
-650.814	-196.479	-0.094	0.001
-649.799	-22.865	0.099	0.060
-648.784	800.000	-0.016	0.070
-647.770	0.609	-0.313	-0.224
-646.755	-9.854	-0.241	0.160
-645.741	-88.943	-0.091	-0.027
-644.726	164.362	0.039	0.056
-643.711	-200.000	-0.004	0.159
-642.697	786.755	0.020	0.056
-641.682	-141.698	-0.150	-0.015
-640.668	-62.876	-0.089	0.037
-639.653	279.316	0.067	0.119
-638.638	-200.000	-0.014	0.174
-637.624	-41.134	0.111	0.057
-636.609	348.668	0.114	-0.225
-635.595	800.000	-0.086	-0.378
-634.580	800.000	0.078	-0.323
-633.565	-200.000	-0.002	-0.232
-632.551	-200.000	-0.038	-0.172
-631.536	-93.392	-0.158	0.044
-630.522	-168.999	-0.162	-0.006
-629.507	-20.918	-0.264	-0.162
-628.492	-200.000	0.010	0.077
-627.478	-82.500	-0.266	0.086
-626.463	800.000	-0.066	0.216
-625.449	-32.561	-0.059	-0.033
-624.434	800.000	-0.042	-0.118
-623.419	-31.967	-0.296	0.166
-622.405	-69.457	0.240	0.092
-621.390	6.323	-0.272	0.202
-620.376	-119.515	0.106	0.018
-619.361	-44.633	0.240	0.120
-618.346	37.559	0.084	0.074
-617.332	234.980	-0.106	-0.175
-616.317	-54.449	0.055	-0.025
-615.303	15.331	-0.026	-0.020
-614.288	-33.495	-0.285	-0.158
-613.273	27.203	0.173	0.145
-612.259	601.205	0.193	-0.479
-611.244	377.841	0.114	-0.234
-610.230	793.434	-0.143	0.394
-609.215	-24.005	0.294	0.176
-608.201	251.907	0.131	-0.222
-607.186	-69.722	0.510	0.195
-606.171	64.267	0.242	0.243
-605.157	-50.034	-0.361	-0.171
-604.142	384.501	-0.163	-0.335
-603.128	800.000	0.069	-0.226
-602.113	-144.032	0.236	0.022
-601.098	-95.672	0.408	0.109
-600.084	-125.626	-0.272	0.041
-599.069	160.845	0.176	-0.245
-598.055	133.333	-0.154	-0.199
-597.040	422.906	-0.147	0.315
-596.025	161.329	-0.070	-0.097
-595.011	-182.093	-0.076	-0.001
-593.996	-80.439	0.246	-0.082
-592.982	202.114	0.133	-0.204
-591.967	-112.616	-0.189	-0.038
-590.952	123.097	-0.195	-0.244
-589.938	361.884	-0.069	-0.138
-588.923	-77.396	0.263	0.091
-587.909	-150.824	-0.275	0.021
-586.894	18.560	0.128	-0.103
-585.879	-139.837	0.238	-0.025
-584.865	-200.000	-0.033	0.168
-583.850	-136.628	-0.233	-0.027
-582.836	800.000	-0.040	0.116
-581.821	13.319	0.106	0.082
-580.806	-94.811	-0.189	-0.051
-579.792	196.175	0.081	0.122
-578.777	41.627	0.148	0.134
-577.763	-200.000	-0.035	0.171
-576.748	-157.605	0.136	-0.008
-575.733	-24.008	0.059	0.035
-574.719	47.239	-0.173	0.160
-573.704	-53.949	-0.227	-0.103
-572.690	-137.053	-0.059	-0.007
-571.675	800.000	0.154	-0.577
-570.661	-200.000	0.012	0.288
-569.646	-188.032	-0.124	-0.002
-568.631	800.000	-0.073	0.228
-567.617	-200.000	0.004	0.161
-566.602	-72.624	-0.240	-0.088
-565.588	24.885	-0.408	0.337
-564.573	105.242	0.102	0.120
-563.558	-200.000	-0.127	0.000
-562.544	-33.660	0.196	0.108
-561.529	-78.326	-0.061	-0.021
-560.515	115.071	-0.110	0.134
-559.500	149.585	0.200	0.270
-558.485	800.000	0.078	-0.259
-557.471	800.000	0.029	0.125
-556.456	-200.000	-0.004	0.257
-555.442	-96.852	0.310	-0.081
-554.427	800.000	0.022	0.093
-553.412	800.000	-0.047	-0.203
-552.398	-200.000	0.000	-0.119
-551.383	30.829	-0.113	0.096
-550.369	124.532	-0.090	-0.112
-549.354	-200.000	-0.052	-0.241
-548.339	800.000	-0.048	0.206
-547.325	-138.664	-0.207	0.023
-546.310	-24.323	-0.453	-0.269
-545.296	292.327	0.035	0.064
-544.281	-57.277	-0.399	0.175
-543.266	800.000	0.042	0.169
-542.252	-119.313	-0.311	0.054
-541.237	70.072	0.292	-0.300
-540.223	-157.028	0.277	-0.017
-539.208	77.987	0.109	0.116
-538.193	75.188	-0.128	0.134
-537.179	80.693	-0.091	-0.098
-536.164	-102.926	0.223	-0.053
-535.150	18.395	0.169	0.134
-534.135	359.554	-0.124	-0.247
-533.121	-155.005	0.512	-0.034
-532.106	-58.976	0.080	-0.034
-531.091	-131.691	-0.030	-0.004
-530.077	5.050	0.192	-0.141
-529.062	-200.000	-0.010	0.146
-528.048	-138.569	0.242	0.026
-527.033	-200.000	-0.002	0.111
-526.018	-108.841	-0.148	-0.031
-525.004	-182.003	0.294	0.006
-523.989	22.793	0.158	-0.129
-522.975	-200.000	0.023	-0.120
-521.960	-125.600	-0.211	-0.032
-520.945	-131.968	0.122	-0.016
-519.931	800.000	-0.056	0.240
-518.916	-125.049	0.079	-0.012
-517.902	689.856	-0.088	-0.228
-516.887	800.000	0.104	-0.420
-515.872	-200.000	0.020	0.176
-514.858	109.118	-0.135	0.161
-513.843	156.774	-0.063	0.087
-512.829	-200.000	-0.007	0.248
-511.814	-164.479	0.253	0.011
-510.799	-192.608	-0.383	-0.004
-509.785	-112.571	0.050	0.010
-508.770	-200.000	0.004	-0.137
-507.756	-200.000	-0.018	0.082
-506.741	800.000	0.097	0.297
-505.726	18.171	0.228	0.181
-504.712	-158.305	-0.309	-0.018
-503.697	800.000	-0.039	-0.161
-502.683	-200.000	0.026	-0.207
-501.668	800.000	-0.152	-0.450
-500.653	-200.000	-0.014	0.125
-499.639	236.223	0.093	-0.154
-498.624	386.549	-0.046	-0.095
-497.610	-200.000	0.040	-0.208
-496.595	800.000	0.069	-0.268
-495.581	59.350	-0.080	0.078
-494.566	129.567	-0.142	-0.180
-493.551	194.831	-0.027	-0.041
-492.537	-152.391	0.237	0.017
-491.522	62.326	0.181	0.180
-490.508	-74.451	0.076	-0.027
-489.493	35.110	-0.131	-0.114
-488.478	330.930	0.086	0.164
-487.464	255.879	0.168	0.286
-486.449	26.857	0.070	0.059
-485.435	-200.000	0.011	-0.089
-484.420	-42.730	0.286	0.145
-483.405	800.000	-0.081	0.303
-482.391	-58.611	0.335	0.144
-481.376	49.369	0.034	-0.032
-480.362	48.917	0.272	0.254
-479.347	-200.000	0.046	0.510
-478.332	-200.000	0.000	-0.135
-477.318	125.095	0.107	-0.133
-476.303	-200.000	-0.020	-0.345
-475.289	216.602	0.112	0.178
-474.274	800.000	0.026	-0.111
-473.259	-200.000	-0.026	-0.292
-472.245	800.000	-0.126	-0.493
-471.230	100.782	-0.134	-0.154
-470.216	-122.373	-0.179	-0.029
-469.201	-49.555	-0.112	0.053
-468.186	800.000	-0.120	0.460
-467.172	-200.000	0.560	0.002
-466.157	-200.000	0.024	-0.148
-465.143	-200.000	-0.021	-0.181
-464.128	77.852	-0.040	0.042
-463.113	-19.383	-0.022	0.014
-462.099	236.956	0.177	-0.291
-461.084	-76.293	-0.323	-0.113
-460.070	-90.280	-0.363	0.105
-459.055	189.759	-0.137	-0.204
-458.040	184.215	0.220	-0.324
-457.026	-27.617	-0.072	-0.041
-456.011	-51.945	0.174	-0.080
-454.997	-93.626	0.215	0.059
-453.982	-175.995	-0.213	-0.006
-452.968	750.628	-0.174	0.466
-451.953	-74.360	0.291	0.104
-450.938	-12.011	-0.120	-0.078
-449.924	30.765	0.177	0.150
-448.909	-180.209	-0.180	0.004
-447.895	33.428	-0.124	0.107
-446.880	-130.335	0.109	0.015
-445.865	-58.389	-0.416	0.179
-444.851	221.964	0.111	0.178
-443.836	-67.643	-0.149	0.058
-442.822	-200.000	-0.025	-0.324
-441.807	656.966	-0.131	0.334
-440.792	-70.675	-0.157	0.059
-439.778	-200.000	-0.007	0.037
-438.763	800.000	0.041	-0.124
-437.749	406.971	0.030	0.063
-436.734	800.000	0.054	0.202
-435.719	-37.638	0.148	0.078
-434.705	-113.217	-0.330	0.064
-433.690	-155.141	0.493	0.032
-432.676	36.887	0.341	-0.299
-431.661	296.316	-0.123	0.224
-430.646	-5.871	-0.099	-0.067
-429.632	528.019	0.168	0.394
-428.617	-20.635	0.144	-0.088
-427.603	-200.000	0.056	-0.319
-426.588	-200.000	-0.012	-0.114
-425.573	800.000	0.026	0.077
-424.559	-91.810	0.252	-0.071
-423.544	-108.826	0.173	-0.037
-422.530	5.837	0.120	-0.088
-421.515	320.705	-0.127	0.239
-420.500	-112.454	-0.162	0.032
-419.486	132.850	0.111	-0.142
-418.471	290.952	0.104	-0.187
-417.457	-99.651	-0.098	0.024
-416.442	44.086	0.116	0.105
-415.428	8.446	-0.255	-0.190
-414.413	-5.376	0.200	-0.136
-413.398	320.791	-0.061	0.114
-412.384	61.573	0.067	0.066
-411.369	-85.100	-0.231	0.072
-410.355	-111.023	-0.085	-0.017
-409.340	58.504	0.233	0.227
-408.325	495.075	-0.101	-0.230
-407.311	-69.621	-0.160	0.061
-406.296	80.114	-0.167	0.178
-405.282	481.200	-0.149	-0.335
-404.267	-25.299	-0.083	0.049
-403.252	21.852	-0.222	-0.179
-402.238	127.406	-0.145	0.182
-401.223	-200.000	-0.029	0.168
-400.209	230.526	0.219	-0.355
-399.194	-55.147	0.205	-0.091
-398.179	-18.017	-0.126	0.078
-397.165	800.000	-0.031	0.111
-396.150	-151.198	-0.525	0.039
-395.136	-13.013	0.110	-0.071
-394.121	1.344	0.146	-0.104
-393.106	320.186	-0.158	-0.296
-392.092	-200.000	0.055	0.577
-391.077	-18.287	0.080	0.050
-390.063	106.495	-0.246	0.288
-389.048	-200.000	-0.012	0.103
-388.033	280.103	-0.106	0.187
-387.019	-147.110	-0.565	0.048
-386.004	53.644	0.244	-0.232
-384.990	-113.716	-0.480	0.093
-383.975	800.000	0.092	-0.266
-382.960	507.197	0.031	-0.072
-381.946	206.348	0.279	-0.429
-380.931	-108.632	0.207	0.044
-379.917	-5.469	0.280	0.190
-378.902	-46.221	-0.307	0.150
-377.888	202.705	0.124	-0.189
-376.873	-125.090	0.051	-0.008
-375.858	-46.535	-0.105	0.051
-374.844	165.269	-0.090	-0.125
-373.829	-32.451	0.222	-0.122
-372.815	104.760	0.239	0.279
-371.800	-43.617	-0.162	-0.081
-370.785	559.143	-0.070	0.166
-369.771	-200.000	-0.030	-0.235
-368.756	800.000	-0.020	-0.064
-367.742	97.110	-0.033	0.037
-366.727	605.022	-0.047	-0.115
-365.712	-200.000	-0.021	0.128
-364.698	-95.866	-0.160	0.042
-363.683	-180.618	-0.214	0.004
-362.669	396.532	-0.130	-0.269
-361.654	118.504	-0.090	-0.110
-360.639	-82.990	0.129	0.041
-359.625	800.000	0.073	-0.315
-358.610	-22.049	-0.149	0.090
-357.596	-200.000	0.074	-0.374
-356.581	-60.096	-0.258	-0.109
-355.566	-196.567	-0.164	0.001
-354.552	-200.000	0.008	-0.204
-353.537	-90.420	-0.038	0.011
-352.523	448.269	0.133	-0.289
-351.508	226.794	0.156	-0.250
-350.493	24.626	-0.109	0.089
-349.479	159.408	-0.048	-0.065
-348.464	-200.000	-0.125	0.000
-347.450	-133.120	-0.166	-0.021
-346.435	-158.825	0.172	0.010
-345.420	30.254	0.145	-0.122
-344.406	333.423	-0.099	-0.189
-343.391	-200.000	0.027	0.000
-342.377	83.783	0.337	0.363
-341.362	189.325	-0.103	0.152
-340.348	-25.203	-0.141	0.083
-339.333	-15.583	-0.190	0.120
-338.318	800.000	-0.047	-0.181
-337.304	-200.000	0.033	0.420
-336.289	118.664	0.239	0.292
-335.275	201.016	0.097	-0.147
-334.260	-12.510	0.055	0.036
-333.245	157.411	0.087	0.119
-332.231	-58.893	0.136	-0.058
-331.216	-142.241	0.054	0.005
-330.202	-200.000	0.019	0.176
-329.187	-200.000	0.051	0.327
-328.172	800.000	0.028	-0.090
-327.158	-172.237	-0.322	-0.010
-326.143	-96.149	-0.193	0.051
-325.129	-200.000	-0.052	-0.263
-324.114	800.000	0.044	0.178
-323.099	-200.000	-0.008	-0.041
-322.085	-200.000	-0.091	0.480
-321.070	800.000	0.125	-0.371
-320.056	-59.580	-0.361	-0.153
-319.041	-114.595	0.242	0.046
-318.026	-22.373	-0.079	0.048
-317.012	-200.000	0.065	0.309
-315.997	-200.000	0.065	-0.560
-314.983	82.794	0.042	0.045
-313.968	-51.137	0.199	0.092
-312.953	-66.531	-0.094	0.037
-311.939	800.000	0.163	-0.566
-310.924	23.232	0.103	0.083
-309.910	-200.000	-0.007	0.194
-308.895	380.034	-0.140	-0.284
-307.880	76.747	0.158	-0.165
-306.866	-124.469	0.252	0.039
-305.851	77.754	0.115	0.121
-304.837	800.000	0.046	-0.144
-303.822	-200.000	0.057	0.285
-302.807	392.312	-0.023	-0.047
-301.793	210.263	-0.041	0.064
-300.778	-135.807	-0.233	0.027
-299.764	-71.255	-0.087	-0.032
-298.749	-140.097	0.015	-0.002
-297.735	0.832	0.251	-0.178
-296.720	-11.498	0.278	-0.180
-295.705	-57.298	-0.287	-0.125
-294.691	32.659	-0.009	-0.008
-293.676	-9.820	-0.098	-0.064
-292.662	263.458	0.033	-0.057
-291.647	800.000	0.122	-0.356
-290.632	290.786	0.085	0.153
-289.618	58.010	-0.083	0.080
-288.603	295.478	0.088	-0.158
-287.589	-115.681	0.121	0.022
-286.574	37.940	0.185	-0.162
-285.559	-58.250	-0.283	-0.122
-284.545	800.000	0.045	0.153
-283.530	-148.965	-0.319	-0.025
-282.516	91.867	-0.220	-0.244
-281.501	-116.605	-0.123	-0.022
-280.486	-45.071	0.228	-0.112
-279.472	-200.000	-0.084	0.388
-278.457	-98.087	0.059	-0.015
-277.443	-84.944	-0.253	0.078
-276.428	77.586	-0.255	0.268
-275.413	-72.938	0.508	-0.184
-274.399	-200.000	-0.106	0.511
-273.384	66.497	0.091	-0.091
-272.370	-15.459	0.254	0.160
-271.355	210.308	-0.064	0.100
-270.340	247.165	-0.014	0.024
-269.326	429.816	-0.191	0.407
-268.311	-70.186	-0.287	0.107
-267.297	-200.000	-0.002	-0.047
-266.282	126.142	0.219	-0.273
-265.267	-200.000	-0.021	-0.177
-264.253	62.739	0.145	0.143
-263.238	64.909	-0.021	-0.021
-262.224	149.393	0.109	-0.145
-261.209	-5.049	0.341	-0.231
-260.195	-150.833	0.180	-0.013
-259.180	-84.818	-0.435	-0.135
-258.165	-67.039	0.187	0.072
-257.151	-59.457	-0.301	-0.127
-256.136	-29.654	0.075	0.042
-255.122	109.841	0.200	0.236
-254.107	361.538	0.121	-0.238
-253.092	-103.439	0.193	0.045
-252.078	-8.001	0.196	0.130
-251.063	-200.000	0.018	0.284
-250.049	-200.000	0.050	-0.326
-249.034	-114.740	0.368	-0.069
-248.019	800.000	0.010	-0.037
-247.005	-184.657	-0.209	0.003
-245.990	800.000	0.045	-0.155
-244.976	22.367	0.232	-0.186
-243.961	-102.032	-0.373	-0.089
-242.946	296.809	-0.088	0.159
-241.932	-154.638	0.137	-0.009
-240.917	22.784	-0.075	0.061
-239.903	-137.889	-0.039	-0.004
-238.888	-200.000	0.020	-0.348
-237.873	-82.773	0.333	0.106
-236.859	-151.776	-0.129	-0.009
-235.844	-3.000	-0.396	0.272
-234.830	314.811	-0.100	0.185
-233.815	-200.000	-0.002	-0.135
-232.800	4.467	0.236	0.170
-231.786	-200.000	-0.028	0.255
-230.771	800.000	0.056	0.157
-229.757	-53.674	-0.218	0.098
-228.742	120.403	-0.206	-0.252
-227.727	-200.000	0.011	-0.109
-226.713	588.903	0.170	-0.411
-225.698	253.124	0.135	-0.227
-224.684	96.167	-0.060	0.068
-223.669	800.000	-0.078	0.326
-222.655	415.523	-0.047	-0.099
-221.640	-70.449	-0.134	-0.050
-220.625	122.698	0.276	-0.339
-219.611	-129.620	-0.093	0.013
-218.596	800.000	-0.095	-0.373
-217.582	7.886	-0.118	0.087
-216.567	-164.714	-0.207	-0.009
-215.552	364.417	0.041	0.081
-214.538	-200.000	-0.193	0.001
-213.523	33.208	-0.104	0.089
-212.509	60.287	0.067	0.065
-211.494	-10.671	-0.238	0.155
-210.479	-15.286	0.190	0.120
-209.465	-138.040	0.085	0.009
-208.450	175.271	-0.193	-0.275
-207.436	653.026	0.066	0.166
-206.421	-16.952	-0.262	0.163
-205.406	-192.423	-0.171	-0.002
-204.392	800.000	0.085	-0.362
-203.377	180.817	-0.174	0.252
-202.363	800.000	-0.019	0.072
-201.348	339.346	-0.116	-0.222
-200.333	-200.000	0.012	0.148
-199.319	107.512	0.067	-0.079
-198.304	-125.481	0.434	0.065
-197.290	-200.000	0.032	0.398
-196.275	-81.349	-0.165	-0.053
-195.260	-200.000	-0.021	-0.114
-194.246	800.000	0.081	0.290
-193.231	-47.708	0.052	-0.025
-192.217	73.584	-0.132	0.135
-191.202	88.737	-0.043	0.047
-190.187	-74.046	0.170	0.061
-189.173	187.114	-0.127	0.185
-188.158	-111.342	0.306	0.061
-187.144	800.000	-0.023	-0.076
-186.129	131.093	0.121	0.153
-185.114	26.074	0.163	0.134
-184.100	-56.469	-0.389	0.170
-183.085	72.314	0.172	-0.176
-182.071	239.281	0.190	-0.310
-181.056	565.523	0.174	0.413
-180.042	-143.256	0.380	0.036
-179.027	800.000	0.042	-0.168
-178.012	-22.990	0.280	0.166
-176.998	-200.000	0.014	-0.140
-175.983	367.726	0.048	-0.095
-174.969	-200.000	0.081	0.435
-173.954	337.915	-0.174	0.332
-172.939	29.130	-0.099	0.082
-171.925	770.562	0.032	0.086
-170.910	131.127	0.043	0.054
-169.896	26.022	0.215	0.176
-168.881	71.708	0.214	-0.218
-167.866	145.461	-0.108	0.142
-166.852	800.000	-0.050	0.175
-165.837	800.000	-0.016	0.066
-164.823	214.511	-0.053	-0.083
-163.808	38.494	0.317	-0.277
-162.793	-72.613	-0.180	-0.065
-161.779	-138.966	0.101	0.011
-160.764	-200.000	0.021	-0.203
-159.750	800.000	0.018	0.075
-158.735	184.182	-0.128	0.186
-157.720	277.856	0.091	0.160
-156.706	700.420	0.153	-0.396
-155.691	22.927	0.058	-0.046
-154.677	-200.000	0.045	0.320
-153.662	11.029	-0.367	0.275
-152.647	-47.928	-0.181	0.086
-151.633	-159.814	-0.129	-0.007
-150.618	46.379	0.281	0.256
-149.604	-128.031	0.240	0.034
-148.589	-200.000	0.002	-0.163
-147.574	800.000	0.060	-0.181
-146.560	-7.665	0.161	0.107
-145.545	65.305	0.361	-0.358
-144.531	159.480	0.168	0.229
-143.516	-200.000	0.021	0.198
-142.502	-28.672	0.097	-0.055
-141.487	-200.000	0.043	-0.503
-140.472	106.426	0.165	-0.191
-139.458	28.333	0.081	0.067
-138.443	800.000	-0.074	-0.274
-137.429	800.000	0.030	0.087
-136.414	-110.737	0.152	0.031
-135.399	240.150	-0.120	-0.197
-134.385	101.583	0.143	-0.163
-133.370	222.111	0.227	0.358
-132.356	741.330	-0.037	0.098
-131.341	116.903	0.064	-0.077
-130.326	-10.993	0.182	-0.118
-129.312	-40.406	0.271	-0.138
-128.297	-5.525	0.049	-0.033
-127.283	9.644	-0.267	0.198
-126.268	-200.000	-0.015	0.315
-125.253	800.000	0.073	0.198
-124.239	565.198	-0.039	-0.093
-123.224	-138.711	0.169	-0.018
-122.210	-79.233	-0.247	-0.082
-121.195	-44.809	-0.275	-0.134
-120.180	148.912	0.247	-0.328
-119.166	-200.000	-0.013	-0.097
-118.151	53.252	-0.185	-0.174
-117.137	248.156	0.027	-0.045
-116.122	-105.731	-0.120	-0.027
-115.107	-58.605	-0.105	0.044
-114.093	-76.978	-0.094	-0.032
-113.078	800.000	0.072	0.242
-112.064	-200.000	-0.012	0.125
-111.049	-74.838	-0.211	0.074
-110.034	20.481	-0.238	-0.188
-109.020	-31.026	0.286	0.158
-108.005	-115.239	0.085	-0.016
-106.991	-72.365	-0.511	-0.185
-105.976	-67.131	0.101	-0.039
-104.962	192.998	0.041	-0.060
-103.947	-109.318	-0.080	0.017
-102.932	0.395	-0.194	0.136
-101.918	-86.512	0.284	-0.085
-100.903	-200.000	0.014	0.143
-99.889	-200.000	0.021	0.383
-98.874	-200.000	-0.043	-0.347
-97.859	37.024	-0.208	-0.180
-96.845	-34.484	-0.168	0.090
-95.830	298.556	-0.056	-0.101
-94.816	496.514	0.115	-0.259
-93.801	-66.935	0.198	0.077
-92.786	-200.000	0.019	-0.167
-91.772	534.786	-0.074	0.172
-90.757	-200.000	-0.006	-0.261
-89.743	110.928	-0.113	0.133
-88.728	-200.000	0.027	0.220
-87.713	49.181	0.196	0.181
-86.699	-140.520	0.438	0.045
-85.684	-200.000	0.024	-0.148
-84.670	-163.021	0.215	-0.010
-83.655	58.953	-0.149	0.143
-82.640	800.000	0.018	0.052
-81.626	317.093	-0.092	0.170
-80.611	314.663	0.279	0.514
-79.597	-13.231	0.079	0.050
-78.582	36.570	0.369	-0.319
-77.567	6.326	0.177	-0.128
-76.553	-71.018	-0.142	-0.052
-75.538	108.256	-0.130	-0.152
-74.524	-135.886	0.328	-0.038
-73.509	-200.000	0.029	-0.163
-72.494	128.388	-0.206	-0.256
-71.480	-60.495	0.290	-0.120
-70.465	-200.000	-0.031	-0.317
-69.451	800.000	-0.039	0.144
-68.436	28.578	0.265	-0.219
-67.422	677.633	0.148	-0.377
-66.407	800.000	0.021	-0.067
-65.392	428.492	-0.117	-0.246
-64.378	155.348	0.142	0.191
-63.363	383.672	0.077	-0.155
-62.349	29.048	0.202	0.167
-61.334	29.730	-1.390	-1.157
-60.319	-3.531	0.403	0.274
-59.305	137.111	-0.855	-1.093
-58.290	384.610	0.542	1.091
-57.276	454.055	0.779	1.686
-56.261	-200.000	116.358	649.485
-55.246	505.948	1534.725	3475.952
-54.232	177.115	2700.360	3840.943
-53.217	106.063	2144.377	2480.979
-52.203	38.290	1582.003	1376.712
-51.188	30.010	1326.027	1104.769
-50.173	27.196	1287.038	1055.925
-49.159	52.644	1345.974	1256.341
-48.144	51.132	1359.008	1259.482
-47.130	30.073	1314.091	1095.026
-46.115	26.817	1295.720	1060.662
-45.100	26.469	1290.864	1054.617
-44.086	26.535	1287.637	1052.326
-43.071	26.392	1285.780	1049.935
-42.057	26.378	1283.599	1048.030
-41.042	26.469	1281.944	1047.168
-40.027	26.440	1280.579	1045.844
-39.013	26.501	1278.295	1044.286
-37.998	26.540	1276.954	1043.373
-36.984	26.593	1274.999	1042.042
-35.969	26.659	1273.517	1041.169
-34.954	26.700	1271.572	1039.774
-33.940	26.696	1270.230	1038.607
-32.925	26.669	1268.513	1037.010
-31.911	26.634	1267.134	1035.639
-30.896	26.712	1266.075	1035.182
-29.881	26.680	1264.476	1033.651
-28.867	26.717	1263.270	1032.831
-27.852	26.773	1261.715	1031.840
-26.838	26.681	1260.309	1030.124
-25.823	26.742	1259.283	1029.596
-24.809	26.657	1257.714	1027.789
-23.794	26.575	1256.901	1026.620
-22.779	26.737	1254.800	1025.777
-21.765	26.615	1254.074	1024.452
-20.750	26.674	1253.073	1023.930
-19.736	26.649	1251.509	1022.469
-18.721	26.506	1250.525	1020.818
-17.706	26.683	1249.009	1020.537
-16.692	26.610	1247.987	1019.247
-15.677	26.702	1246.909	1018.844
-14.663	26.597	1245.948	1017.430
-13.648	26.512	1245.061	1016.191
-12.633	26.568	1243.815	1015.446
-11.619	26.548	1243.088	1014.701
-10.604	26.648	1242.275	1014.554
-9.590	26.593	1241.222	1013.347
-8.575	26.621	1240.291	1012.706
-7.560	26.553	1239.562	1011.687
-6.546	26.596	1238.315	1010.871
-5.531	26.543	1238.112	1010.370
-4.517	26.480	1237.351	1009.358
-3.502	26.500	1236.315	1008.582
-2.487	26.704	1234.402	1008.118
-1.473	26.495	1230.908	1004.062
-0.458	24.955	1215.569	983.069
0.556	21.613	1199.367	945.658
1.571	17.876	1205.395	930.003
2.586	17.028	1220.607	936.977
3.600	16.768	1208.506	926.185
4.615	12.632	1138.665	851.230
5.629	5.999	1068.588	766.486
6.644	3.248	1051.299	740.795
7.659	3.062	1049.165	738.336
8.673	3.206	1047.331	737.670
9.688	3.124	1046.356	736.523
10.702	3.318	1044.737	736.245
11.717	7.132	1049.106	757.539
12.731	14.422	1060.006	800.474
13.746	18.931	1065.500	826.271
14.761	19.809	1065.578	830.477
15.775	18.952	1064.237	825.244
16.790	17.878	1062.348	818.556
17.804	17.132	1060.911	813.805
18.819	16.873	1059.631	811.510
19.834	16.743	1059.093	810.408
20.848	16.775	1058.163	809.777
21.863	16.479	1057.654	807.899
22.877	16.223	1056.855	805.994
23.892	16.288	1055.834	805.455
24.907	16.242	1054.988	804.519
25.921	16.429	1053.519	804.219
26.936	16.279	1053.089	803.106
27.950	16.363	1051.696	802.374
28.965	16.476	1049.897	801.463
29.980	16.640	1048.694	801.251
30.994	16.513	1047.819	799.910
32.009	16.639	1046.781	799.642
33.023	16.585	1045.676	798.473
34.038	16.645	1044.706	797.943
35.053	16.459	1043.499	796.075
36.067	16.493	1042.824	795.652
37.082	16.423	1041.911	794.554
38.096	16.550	1041.467	794.744
39.111	16.566	1040.509	794.016
40.126	16.373	1039.178	792.025
41.140	16.084	1038.026	789.724
42.155	16.130	1036.516	788.723
43.169	15.956	1035.718	787.232
44.184	16.085	1034.612	786.922
45.199	16.047	1033.966	786.183
46.213	16.243	1032.741	786.096
47.228	16.558	1031.684	786.687
48.242	16.536	1030.616	785.703
49.257	16.340	1029.890	784.170
50.271	16.531	1028.679	784.062
51.286	16.400	1028.639	783.354
52.301	16.451	1027.352	782.543
53.315	16.342	1026.397	781.242
54.330	16.373	1024.890	780.167
55.344	16.215	1024.228	778.867
56.359	16.264	1023.050	778.128
57.374	16.178	1022.641	777.353
58.388	16.059	1021.751	776.058
59.403	15.989	1021.144	775.206
60.417	16.216	1019.646	775.044
61.432	16.028	1019.173	773.753
62.447	15.941	1018.137	772.500
63.461	15.853	1017.723	771.711
64.476	16.012	1016.311	771.303
65.490	15.918	1015.413	770.122
66.505	16.041	1015.133	770.403
67.520	15.953	1014.818	769.694
68.534	16.072	1013.574	769.226
69.549	15.921	1013.548	768.448
70.563	15.989	1011.961	767.487
71.578	15.833	1010.861	765.874
72.593	15.735	1010.246	764.895
73.607	15.782	1009.960	764.824
74.622	15.803	1009.010	764.133
75.636	15.916	1008.376	764.100
76.651	15.918	1007.724	763.545
77.666	15.819	1007.433	762.811
78.680	15.861	1006.656	762.344
79.695	15.976	1006.018	762.315
80.709	16.072	1005.331	762.158
81.724	16.164	1004.447	761.838
82.739	16.150	1004.306	761.601
83.753	16.395	1003.254	761.840
84.768	16.629	1002.703	762.406
85.782	16.600	1001.974	761.655
86.797	16.625	1001.065	761.008
87.812	16.446	1000.027	759.351
88.826	16.479	998.990	758.642
89.841	16.531	998.137	758.160
90.855	16.529	997.629	757.698
91.870	16.636	996.512	757.261
92.884	16.679	995.508	756.626
93.899	16.688	994.520	755.848
94.914	16.703	994.215	755.613
95.928	16.732	993.535	755.159
96.943	16.662	991.813	753.472
97.957	16.454	991.601	752.320
98.972	16.488	990.449	751.530
99.987	16.642	989.229	751.224
101.001	16.537	988.683	750.275
102.016	16.617	987.766	749.868
103.030	16.632	986.753	749.101
104.045	16.621	986.330	748.664
105.060	16.557	985.105	747.386
106.074	16.421	983.962	745.851
107.089	16.190	982.996	744.033
108.103	16.119	982.085	742.967
109.118	15.955	981.533	741.758
110.133	16.037	980.376	741.183
111.147	16.017	979.369	740.268
112.162	16.215	978.647	740.524
113.176	16.277	977.913	740.174
114.191	16.303	977.317	739.770
115.206	16.140	976.733	738.550
116.220	16.189	975.967	738.120
117.235	16.256	975.146	737.727
118.249	16.091	973.999	736.073
119.264	16.063	973.180	735.268
120.279	16.052	972.619	734.729
121.293	16.085	971.319	733.829
122.308	15.997	971.010	733.147
123.322	15.899	970.019	731.906
124.337	15.969	968.517	731.011
125.352	16.093	967.506	730.723
126.366	15.977	966.486	729.386
127.381	15.860	965.881	728.360
128.395	16.070	964.256	727.976
129.410	16.051	963.511	727.267
130.424	16.102	963.109	727.118
131.439	16.199	962.454	726.979
132.454	16.281	961.345	726.429
133.468	16.273	960.821	725.934
134.483	16.180	960.087	724.917
135.497	16.346	958.801	724.592
136.512	16.222	958.234	723.570
137.527	16.304	957.426	723.247
138.541	16.301	956.748	722.654
139.556	16.251	956.489	722.184
140.570	16.389	955.714	722.122
141.585	16.533	954.754	721.950
142.600	16.725	953.513	721.766
143.614	16.724	953.327	721.558
144.629	16.665	952.646	720.724
145.643	16.561	951.225	719.144
146.658	16.466	950.530	718.152
147.673	16.368	949.207	716.674
148.687	16.127	948.902	715.358
149.702	16.354	947.329	715.069
150.716	16.258	946.695	714.123
151.731	16.224	946.287	713.605
152.746	16.362	945.303	713.386
153.760	16.399	944.947	713.210
154.775	16.551	944.723	713.619
155.789	16.502	943.773	712.633
156.804	16.594	942.588	712.060
157.819	16.654	942.284	712.022
158.833	16.724	941.855	711.928
159.848	16.678	941.264	711.225
160.862	16.611	940.135	710.028
161.877	16.485	938.311	708.061
162.892	16.405	937.592	707.119
163.906	16.346	936.730	706.160
164.921	16.451	935.820	705.848
165.935	16.508	935.291	705.627
166.950	16.499	934.818	705.172
167.964	16.523	933.834	704.465
168.979	16.462	932.724	703.310
169.994	16.322	932.270	702.325
171.008	16.488	931.567	702.424
172.023	16.712	930.682	702.625
173.037	16.847	930.108	702.687
174.052	16.732	929.248	701.501
175.067	16.440	928.727	699.833
176.081	16.445	927.677	699.004
177.096	16.416	927.680	698.821
178.110	16.484	926.808	698.386
179.125	16.570	926.270	698.272
180.140	16.548	925.790	697.760
181.154	16.555	925.735	697.683
182.169	16.713	924.876	697.627
183.183	16.847	924.816	698.070
184.198	16.922	923.232	697.122
185.213	16.797	923.078	696.429
186.227	16.738	922.617	695.780
187.242	16.925	921.654	695.759
188.256	17.032	921.431	695.965
189.271	16.942	920.448	694.795
190.286	16.738	919.090	692.872
191.300	16.465	918.331	691.125
192.315	16.351	917.804	690.200
193.329	16.247	917.689	689.629
194.344	16.482	917.001	690.007
195.359	16.581	916.337	689.850
196.373	16.790	915.561	690.057
197.388	17.009	915.368	690.743
198.402	17.007	914.762	690.215
199.417	17.198	913.959	690.324
200.432	17.345	913.705	690.672
201.446	17.250	913.283	689.906
202.461	17.429	912.758	690.174
203.475	17.200	912.270	688.816
204.490	16.968	911.573	687.288
205.504	16.955	910.363	686.260
206.519	17.078	909.443	686.003
207.534	17.067	909.167	685.690
208.548	16.954	908.644	684.781
209.563	16.933	907.940	684.102
210.577	17.024	907.397	684.002
211.592	17.307	906.319	684.268
212.607	17.231	905.859	683.552
213.621	17.162	905.232	682.743
214.636	17.167	904.401	682.074
215.650	17.230	903.564	681.636
216.665	17.251	903.320	681.475
217.680	17.331	902.873	681.399
218.694	17.503	901.747	681.177
219.709	17.354	901.435	680.287
220.723	17.313	900.496	679.354
221.738	17.160	900.069	678.361
222.753	17.346	899.322	678.480
223.767	17.494	898.875	678.672
224.782	17.513	898.122	678.119
225.796	17.513	897.676	677.721
226.811	17.421	897.029	676.809
227.826	17.252	896.473	675.656
228.840	17.372	895.199	675.114
229.855	17.292	894.571	674.263
230.869	17.307	893.659	673.576
231.884	17.350	892.981	673.173
232.899	17.277	892.247	672.274
233.913	17.292	891.786	671.925
234.928	17.092	891.547	670.894
235.942	17.170	890.624	670.451
236.957	17.242	889.924	670.148
237.972	17.120	889.817	669.526
238.986	17.095	889.281	668.966
240.001	17.179	888.159	668.391
241.015	17.317	887.466	668.353
242.030	17.422	886.761	668.175
243.045	17.403	886.466	667.819
244.059	17.379	886.228	667.488
245.074	17.444	885.472	667.115
246.088	17.574	884.891	667.127
247.103	17.607	884.372	666.806
248.117	17.660	883.803	666.523
249.132	17.862	883.425	666.970
250.147	17.854	883.091	666.630
251.161	18.010	882.099	666.427
252.176	18.096	881.508	666.258
253.190	18.005	881.126	665.556
254.205	18.138	880.346	665.424
255.220	18.186	879.707	665.069
256.234	18.117	878.884	664.121
257.249	18.099	878.121	663.414
258.263	17.977	878.131	662.891
259.278	18.122	876.641	662.271
260.293	18.238	876.342	662.435
261.307	18.236	875.783	661.947
262.322	18.135	875.325	661.149
263.336	18.231	874.735	661.016
264.351	18.348	873.728	660.651
265.366	18.368	872.974	660.099
266.380	18.292	872.461	659.358
267.395	18.169	872.096	658.550
268.409	18.270	870.976	658.035
269.424	18.180	870.427	657.217
270.439	18.217	869.474	656.581
271.453	18.007	869.084	655.421
272.468	18.018	868.625	655.060
273.482	18.152	867.740	654.849
274.497	18.148	866.987	654.208
275.512	18.145	866.706	653.924
276.526	18.061	866.279	653.225
277.541	18.130	865.776	653.052
278.555	18.249	865.576	653.295
279.570	18.361	864.914	653.168
280.585	18.380	863.812	652.350
281.599	18.245	862.882	651.076
282.614	18.218	862.497	650.626
283.628	18.210	862.026	650.179
284.643	18.234	861.272	649.646
285.657	18.295	860.473	649.217
286.672	18.373	860.116	649.187
287.687	18.306	859.206	648.190
288.701	18.299	858.882	647.861
289.716	18.284	858.402	647.382
290.730	18.375	858.046	647.400
291.745	18.536	857.071	647.217
292.760	18.494	856.630	646.667
293.774	18.555	856.050	646.403
294.789	18.618	854.907	645.720
295.803	18.443	854.438	644.650
296.818	18.337	854.217	644.027
297.833	18.321	853.178	643.127
298.847	18.300	853.176	642.990
299.862	18.452	852.641	643.099
300.876	18.579	852.091	643.105
301.891	18.586	851.208	642.405
302.906	18.785	850.877	642.846
303.920	18.799	850.209	642.339
304.935	18.828	849.702	642.004
305.949	18.748	849.040	641.147
306.964	18.694	848.128	640.204
307.979	18.652	847.959	639.863
308.993	18.659	847.448	639.446
310.008	18.852	846.496	639.388
311.022	18.608	846.406	638.358
312.037	18.578	845.679	637.642
313.052	18.466	845.034	636.680
314.066	18.481	844.284	636.117
315.081	18.512	843.492	635.579
316.095	18.523	843.238	635.372
317.110	18.565	842.771	635.120
318.125	18.463	842.035	634.129
319.139	18.538	841.476	633.931
320.154	18.453	841.295	633.424
321.168	18.667	840.416	633.494
322.183	18.737	839.814	633.242
323.197	18.608	839.750	632.663
324.212	18.724	838.979	632.455
325.227	18.528	838.853	631.582
326.241	18.673	837.750	631.231
327.256	18.761	837.480	631.291
328.270	18.738	836.600	630.490
329.285	18.628	836.050	629.616
330.300	18.570	835.962	629.280
331.314	18.676	835.102	628.965
332.329	18.686	834.965	628.843
333.343	18.859	834.577	629.130
334.358	18.862	833.878	628.557
335.373	18.872	833.662	628.376
336.387	18.912	832.980	627.954
337.402	18.965	833.212	628.264
338.416	19.024	833.072	628.320
339.431	19.124	832.925	628.518
340.446	19.151	832.235	628.041
341.460	19.238	831.566	627.797
342.475	19.231	831.145	627.396
343.489	19.326	830.754	627.391
344.504	19.531	830.195	627.662
345.519	19.316	830.373	626.959
346.533	19.397	829.551	626.577
347.548	19.233	828.671	625.261
348.562	19.136	827.994	624.344
349.577	18.985	827.618	623.458
350.592	19.076	826.922	623.206
351.606	18.812	826.183	621.639
352.621	19.090	825.132	621.798
353.635	19.225	824.430	621.704
354.650	19.094	824.303	621.078
355.665	19.200	823.693	620.945
356.679	19.251	822.915	620.488
357.694	19.236	822.924	620.385
358.708	19.202	822.127	619.609
359.723	19.251	821.250	619.069
360.738	19.206	820.971	618.642
361.752	19.372	819.732	618.248
362.767	19.516	820.040	618.942
363.781	19.469	819.548	618.347
364.796	19.650	818.782	618.363
365.810	19.644	818.694	618.220
366.825	19.827	817.862	618.190
367.840	19.777	817.468	617.661
368.854	19.520	817.105	616.413
369.869	19.452	816.782	615.873
370.883	19.572	816.438	615.988
371.898	19.737	815.860	616.084
372.913	19.756	815.065	615.496
373.927	19.634	815.032	614.983
374.942	19.498	814.955	614.385
375.956	19.870	814.185	615.073
376.971	19.921	813.639	614.790
377.986	19.955	813.248	614.558
379.000	20.040	812.414	614.176
380.015	20.020	812.037	613.768
381.029	19.888	811.598	612.914
382.044	19.958	811.047	612.690
383.059	20.029	810.229	612.270
384.073	19.886	809.703	611.313
385.088	19.688	809.510	610.413
386.102	19.677	808.759	609.755
387.117	19.760	807.775	609.250
388.132	19.566	807.642	608.412
389.146	19.817	806.692	608.527
390.161	19.905	806.509	608.643
391.175	19.804	806.388	608.142
392.190	19.831	805.575	607.573
393.205	19.814	805.149	607.136
394.219	19.718	804.946	606.593
395.234	19.752	804.387	606.236
396.248	19.595	803.892	605.260
397.263	19.433	803.717	604.507
398.278	19.635	803.283	604.834
399.292	19.694	802.404	604.325
400.307	19.539	802.310	603.661
401.321	19.668	801.611	603.532
402.336	19.759	801.153	603.452
403.350	19.781	800.803	603.210
404.365	19.905	800.395	603.281
405.380	20.044	799.599	603.113
406.394	20.171	799.143	603.156
407.409	20.146	799.118	602.998
408.423	20.152	798.907	602.806
409.438	20.296	798.356	602.839
410.453	20.164	798.400	602.358
411.467	20.203	797.593	601.833
412.482	20.310	797.270	601.905
413.496	20.257	797.372	601.744
414.511	20.440	796.629	601.768
415.526	20.471	795.916	601.280
416.540	20.333	795.528	600.457
417.555	20.452	794.761	600.236
418.569	20.512	794.357	600.085
419.584	20.326	794.518	599.512
420.599	20.392	793.879	599.206
421.613	162.144	1372.356	1796.072
422.628	140.557	1456.647	1796.140
