DTS Sentinel unit serial number:	SN413079Multiplexer serial number:	ORYXHardware model number:	OX4-SRSoftware version number:	ORYX F/W v4.00 Oryx Data Collector v3.7.2.0data status	okinstallation	princeton_trtdifferential loss correction	single-endedforward channel	channel 1reverse channel	N/Adate	2019/09/16time	06:50:35forward acquisition time	60.00reverse acquisition time	0.00gamma	496.2192k internal	0.2331k external	0.2331temperature offset calibration	0.9985default loss term (dB/km)	0.3790temperature slope calibration	1.0000multiplexer offset coefficient	1.0000multiplexer slope coefficient	1.0000fibre end	0.00T internal ref (°C)	27.37T ext. ref 1 (°C)	11.45T ext. ref 2 (°C)	21.78length (m)	temperature (°C)	Stokes	anti-Stokes-747.200	-32.706	0.186	-0.104
-746.185	36.460	-0.286	0.254
-745.171	-95.969	0.325	-0.087
-744.156	-200.000	0.002	0.196
-743.142	-139.109	0.468	0.051
-742.127	-25.794	-0.147	0.087
-741.112	-200.000	-0.005	0.369
-740.098	-168.229	0.256	-0.010
-739.083	-123.319	0.282	-0.045
-738.069	-200.000	-0.009	-0.187
-737.054	-70.816	-0.323	-0.122
-736.039	800.000	-0.079	-0.280
-735.025	53.729	-0.159	-0.153
-734.010	-132.912	-0.335	-0.043
-732.996	-200.000	-0.028	0.214
-731.981	800.000	-0.088	0.295
-730.966	-104.162	0.029	-0.007
-729.952	191.236	0.088	0.133
-728.937	133.973	-0.099	-0.129
-727.923	251.740	0.080	-0.137
-726.908	-200.000	0.009	-0.167
-725.894	-200.000	-0.042	-0.296
-724.879	123.242	-0.106	-0.133
-723.864	26.108	0.078	0.065
-722.850	800.000	-0.013	0.039
-721.835	-200.000	0.018	-0.152
-720.821	636.051	-0.026	0.067
-719.806	215.930	-0.071	-0.114
-718.791	-40.810	0.174	-0.090
-717.777	-70.009	0.076	-0.029
-716.762	122.860	-0.149	-0.187
-715.748	-107.315	0.128	-0.028
-714.733	-200.000	-0.030	-0.298
-713.718	139.616	-0.156	-0.206
-712.704	800.000	-0.097	-0.407
-711.689	800.000	0.030	-0.121
-710.675	-200.000	-0.029	0.225
-709.660	35.067	-0.114	-0.100
-708.645	-26.102	-0.611	0.361
-707.631	-200.000	0.001	0.252
-706.616	-153.036	0.176	0.012
-705.602	800.000	-0.064	-0.224
-704.587	133.147	0.211	-0.274
-703.572	-32.890	-0.290	0.162
-702.558	397.638	0.108	-0.227
-701.543	-35.439	-0.111	0.061
-700.529	-50.696	0.187	0.088
-699.514	-119.637	-0.184	0.032
-698.499	198.488	0.139	0.213
-697.485	-200.000	0.040	0.199
-696.470	-200.000	-0.012	0.147
-695.456	456.587	0.156	-0.347
-694.441	-64.735	-0.213	-0.087
-693.426	214.317	0.320	0.509
-692.412	5.250	-0.131	-0.097
-691.397	-25.939	-0.163	0.097
-690.383	158.496	-0.137	-0.190
-689.368	57.252	-0.385	-0.377
-688.354	-12.923	-0.200	0.131
-687.339	800.000	-0.024	-0.095
-686.324	-79.035	-0.158	0.054
-685.310	-7.288	0.249	0.169
-684.295	-12.881	-0.307	-0.201
-683.281	-200.000	0.045	-0.476
-682.266	-200.000	-0.023	-0.211
-681.251	552.378	0.036	-0.088
-680.237	44.903	-0.093	-0.086
-679.222	-46.754	-0.058	-0.028
-678.208	738.228	-0.109	-0.295
-677.193	8.250	0.263	0.199
-676.178	12.693	0.078	0.061
-675.164	766.092	-0.077	0.210
-674.149	284.339	-0.126	0.228
-673.135	796.892	-0.117	-0.323
-672.120	-142.537	0.290	-0.029
-671.105	-182.123	0.339	-0.006
-670.091	-120.878	0.116	-0.020
-669.076	84.795	0.079	-0.087
-668.062	-141.832	-0.322	0.032
-667.047	-40.043	0.317	0.166
-666.032	189.349	-0.140	0.211
-665.018	-200.000	0.042	-0.257
-664.003	-29.228	0.279	-0.160
-662.989	-107.337	-0.037	-0.008
-661.974	278.587	-0.097	0.173
-660.959	316.522	0.101	0.190
-659.945	-150.915	-0.324	0.025
-658.930	-200.000	0.048	-0.461
-657.916	-200.000	0.072	-0.353
-656.901	-14.982	0.136	-0.087
-655.886	-41.426	-0.314	0.162
-654.872	-200.000	-0.027	-0.127
-653.857	403.504	0.197	-0.415
-652.843	458.407	-0.173	-0.385
-651.828	-14.201	0.101	-0.065
-650.814	-162.547	-0.408	-0.020
-649.799	-16.631	0.278	0.176
-648.784	-200.000	-0.051	0.272
-647.770	-51.943	-0.237	-0.111
-646.755	-200.000	-0.275	0.001
-645.741	-1.467	0.267	0.189
-644.726	179.210	0.005	-0.007
-643.711	199.690	-0.040	-0.062
-642.697	-98.498	0.314	0.081
-641.682	26.698	-0.390	-0.328
-640.668	-44.870	-0.129	-0.064
-639.653	800.000	-0.026	-0.091
-638.638	39.338	0.165	-0.148
-637.624	5.274	-0.307	-0.227
-636.609	-200.000	0.034	0.198
-635.595	327.127	-0.188	-0.361
-634.580	304.121	0.062	0.116
-633.565	304.365	0.140	0.261
-632.551	-5.865	0.192	0.132
-631.536	-200.000	0.011	0.275
-630.522	21.404	-0.370	0.302
-629.507	294.182	-0.075	-0.138
-628.492	-83.699	-0.065	-0.021
-627.478	243.276	0.108	-0.182
-626.463	64.664	-0.247	-0.249
-625.449	37.630	0.257	-0.229
-624.434	-164.396	-0.201	0.009
-623.419	-37.201	0.013	-0.007
-622.405	342.850	0.081	-0.158
-621.390	-140.795	-0.356	0.037
-620.376	19.313	-0.122	-0.098
-619.361	63.669	-0.161	0.162
-618.346	19.560	0.251	-0.202
-617.332	715.588	0.092	0.244
-616.317	97.175	0.048	-0.055
-615.303	-134.045	-0.046	-0.006
-614.288	-101.658	-0.244	0.059
-613.273	-83.083	-0.340	0.110
-612.259	-200.000	-0.013	0.249
-611.244	68.428	0.404	0.414
-610.230	800.000	0.007	-0.020
-609.215	-200.000	0.052	-0.295
-608.201	391.510	-0.154	-0.321
-607.186	800.000	-0.026	0.077
-606.171	90.256	0.151	-0.170
-605.157	-32.568	-0.215	-0.120
-604.142	52.690	0.038	0.036
-603.128	-111.486	0.213	0.043
-602.113	53.826	-0.138	0.133
-601.098	-10.083	-0.329	-0.219
-600.084	468.614	-0.121	-0.273
-599.069	-169.434	0.305	-0.011
-598.055	-49.810	0.102	-0.049
-597.040	800.000	-0.089	-0.302
-596.025	800.000	0.091	0.371
-595.011	-92.242	-0.146	0.041
-593.996	235.878	-0.093	-0.154
-592.982	-167.465	0.127	-0.005
-591.967	240.874	-0.121	-0.201
-590.952	-79.237	-0.158	0.054
-589.938	45.095	-0.110	-0.101
-588.923	800.000	0.038	-0.121
-587.909	-157.895	-0.416	0.025
-586.894	-144.020	-0.294	0.028
-585.879	-129.150	0.279	0.039
-584.865	-110.657	-0.147	-0.030
-583.850	44.518	0.090	0.083
-582.836	-149.936	-0.315	0.025
-581.821	-79.291	-0.147	-0.050
-580.806	39.735	-0.356	-0.319
-579.792	152.740	0.039	0.054
-578.777	800.000	-0.141	-0.458
-577.763	-200.000	0.015	-0.373
-576.748	-81.981	-0.090	-0.029
-575.733	800.000	-0.065	0.279
-574.719	-10.416	0.039	-0.026
-573.704	800.000	0.107	-0.332
-572.690	800.000	0.092	-0.379
-571.675	15.528	0.266	-0.209
-570.661	-200.000	0.018	0.136
-569.646	2.047	0.106	-0.077
-568.631	-126.179	0.283	0.042
-567.617	50.217	0.197	0.186
-566.602	-115.710	0.134	-0.025
-565.588	-117.951	0.362	-0.065
-564.573	-74.551	-0.065	-0.023
-563.558	-200.000	0.046	0.236
-562.544	708.135	-0.102	0.268
-561.529	270.451	-0.041	-0.072
-560.515	-191.384	0.106	-0.001
-559.500	-66.776	-0.285	0.113
-558.485	-200.000	0.032	0.183
-557.471	-110.615	-0.158	0.033
-556.456	-30.792	0.093	0.052
-555.442	-156.236	-0.144	-0.009
-554.427	-200.000	0.009	-0.041
-553.412	323.707	0.155	-0.295
-552.398	657.941	-0.108	0.277
-551.383	-1.319	0.097	0.068
-550.369	-91.023	-0.238	0.068
-549.354	-78.414	-0.354	-0.121
-548.339	-200.000	0.021	0.293
-547.325	234.505	-0.039	0.064
-546.310	-12.859	-0.319	-0.207
-545.296	-70.851	-0.113	-0.042
-544.281	-160.686	0.240	0.013
-543.266	-200.000	-0.029	-0.189
-542.252	311.167	0.090	-0.168
-541.237	257.602	0.083	0.142
-540.223	12.216	-0.129	-0.099
-539.208	149.695	0.198	0.267
-538.193	498.532	-0.099	0.229
-537.179	-108.437	-0.427	-0.092
-536.164	800.000	-0.072	-0.225
-535.150	-86.357	0.095	0.029
-534.135	-200.000	-0.022	-0.281
-533.121	71.796	-0.142	-0.148
-532.106	16.586	-0.126	-0.099
-531.091	188.565	-0.142	-0.212
-530.077	-200.000	0.003	0.081
-529.062	476.322	0.067	0.150
-528.048	14.725	-0.222	-0.173
-527.033	503.605	0.060	-0.139
-526.018	-160.363	-0.122	-0.007
-525.004	-170.453	0.349	0.012
-523.989	-26.364	0.307	0.180
-522.975	-200.000	0.014	0.183
-521.960	800.000	-0.095	0.314
-520.945	-200.000	0.014	0.069
-519.931	-200.000	-0.043	0.253
-518.916	-94.631	0.234	-0.064
-517.902	-200.000	-0.035	0.368
-516.887	61.942	-0.121	-0.120
-515.872	-200.000	-0.047	-0.341
-514.858	153.033	0.093	-0.127
-513.843	800.000	0.043	-0.123
-512.829	800.000	0.037	0.154
-511.814	352.545	0.049	-0.098
-510.799	188.487	0.013	0.020
-509.785	-200.000	-0.028	-0.158
-508.770	26.363	0.150	0.125
-507.756	21.351	0.171	0.139
-506.741	63.167	0.164	-0.164
-505.726	-106.669	0.099	-0.022
-504.712	-40.957	0.206	-0.106
-503.697	-79.104	-0.053	0.018
-502.683	-93.246	0.353	-0.098
-501.668	134.586	-0.094	-0.121
-500.653	-200.000	-0.028	-0.210
-499.639	-200.000	0.020	-0.191
-498.624	-13.393	0.355	0.230
-497.610	17.820	0.179	0.142
-496.595	-89.224	0.207	0.061
-495.581	16.703	0.210	0.166
-494.566	178.728	-0.141	0.205
-493.551	367.684	-0.097	0.196
-492.537	-200.000	0.006	-0.264
-491.522	-200.000	0.020	-0.107
-490.508	-200.000	0.000	0.168
-489.493	-160.131	0.123	0.007
-488.478	287.403	0.115	0.206
-487.464	32.035	0.102	-0.088
-486.449	800.000	0.036	-0.140
-485.435	50.929	-0.031	0.030
-484.420	800.000	0.022	0.083
-483.405	-200.000	0.000	-0.190
-482.391	-200.000	0.048	-0.305
-481.376	-200.000	-0.004	-0.187
-480.362	140.224	-0.072	-0.095
-479.347	144.618	-0.123	-0.164
-478.332	-46.240	0.110	-0.054
-477.318	800.000	-0.094	-0.374
-476.303	-83.795	0.229	0.073
-475.289	-17.921	0.268	-0.168
-474.274	103.017	0.180	0.210
-473.259	69.538	0.229	0.235
-472.245	-32.263	0.078	0.043
-471.230	-162.318	-0.056	0.003
-470.216	48.544	0.053	-0.050
-469.201	52.387	0.115	0.109
-468.186	57.852	-0.379	-0.369
-467.172	98.373	0.152	-0.174
-466.157	742.824	-0.076	-0.203
-465.143	800.000	0.107	0.335
-464.128	-94.181	-0.352	-0.096
-463.113	-200.000	-0.008	-0.114
-462.099	425.279	-0.120	0.258
-461.084	0.584	0.222	0.158
-460.070	-90.436	-0.190	-0.055
-459.055	-171.905	-0.118	0.004
-458.040	126.519	-0.052	-0.066
-457.026	-157.233	-0.408	0.025
-456.011	106.164	-0.028	-0.033
-454.997	-200.000	0.015	-0.138
-453.982	1.222	-0.175	-0.125
-452.968	-200.000	0.013	0.215
-451.953	-108.199	-0.326	0.070
-450.938	612.678	0.077	-0.190
-449.924	-99.354	0.098	-0.025
-448.909	-64.345	0.293	0.119
-447.895	259.189	-0.156	0.268
-446.880	68.068	0.130	-0.132
-445.865	-135.170	-0.347	-0.041
-444.851	-57.188	0.246	0.108
-443.836	149.282	-0.305	0.410
-442.822	-200.000	-0.012	-0.180
-441.807	-19.204	0.071	-0.044
-440.792	43.169	0.107	0.097
-439.778	-147.886	0.195	-0.016
-438.763	282.992	-0.134	-0.239
-437.749	-114.032	-0.249	0.048
-436.734	-95.619	0.124	-0.033
-435.719	800.000	-0.034	0.142
-434.705	369.676	0.133	0.268
-433.690	145.656	0.094	-0.125
-432.676	-200.000	0.013	-0.080
-431.661	-60.015	-0.144	-0.061
-430.646	227.904	0.115	0.186
-429.632	295.800	-0.084	0.154
-428.617	82.730	0.218	-0.236
-427.603	318.653	0.078	-0.146
-426.588	-136.017	-0.235	-0.027
-425.573	190.135	-0.113	0.169
-424.559	-3.941	-0.087	0.060
-423.544	140.091	-0.292	-0.383
-422.530	174.831	0.201	-0.289
-421.515	-140.807	-0.043	0.004
-420.500	-19.614	0.152	-0.093
-419.486	33.034	-0.130	-0.112
-418.471	183.871	-0.127	0.187
-417.457	-89.090	0.127	-0.037
-416.442	-200.000	-0.028	0.179
-415.428	-27.279	0.084	-0.049
-414.413	-48.192	0.021	0.010
-413.398	-117.050	0.167	0.030
-412.384	552.761	0.084	-0.200
-411.369	-85.562	0.251	0.077
-410.355	-59.789	0.328	-0.139
-409.340	0.308	0.233	-0.165
-408.325	37.263	-0.267	0.235
-407.311	800.000	0.064	-0.224
-406.296	-163.975	0.121	0.006
-405.282	-200.000	0.014	-0.078
-404.267	52.773	-0.178	0.169
-403.252	-135.519	-0.113	-0.013
-402.238	800.000	-0.079	-0.304
-401.223	-28.739	0.263	-0.151
-400.209	-121.311	-0.074	0.012
-399.194	84.191	0.191	0.208
-398.179	-200.000	0.062	0.349
-397.165	-128.318	0.190	0.027
-396.150	34.147	-0.332	-0.288
-395.136	-148.956	-0.169	0.013
-394.121	414.112	-0.060	-0.128
-393.106	-124.388	-0.143	0.022
-392.092	-173.706	0.076	-0.002
-391.077	-119.237	0.303	-0.052
-390.063	-142.537	0.077	0.008
-389.048	-200.000	-0.036	0.198
-388.033	-200.000	-0.012	0.065
-387.019	-114.637	0.365	-0.069
-386.004	800.000	0.083	0.321
-384.990	-108.171	0.081	-0.017
-383.975	11.401	0.094	0.071
-382.960	82.551	-0.134	-0.145
-381.946	-53.274	-0.197	0.090
-380.931	-155.873	-0.329	-0.021
-379.917	-118.148	-0.233	-0.041
-378.902	-35.906	-0.196	-0.105
-377.888	-68.479	0.113	0.044
-376.873	-26.869	0.102	-0.059
-375.858	-132.871	-0.175	0.022
-374.844	172.826	-0.195	0.279
-373.829	800.000	0.020	0.056
-372.815	223.516	0.160	-0.257
-371.800	-71.962	-0.057	0.021
-370.785	94.757	0.138	0.155
-369.771	617.484	-0.031	-0.078
-368.756	235.215	-0.167	-0.273
-367.742	800.000	-0.036	0.145
-366.727	319.244	-0.161	-0.302
-365.712	-37.108	-0.382	0.203
-364.698	-147.217	0.327	-0.028
-363.683	-200.000	-0.063	0.345
-362.669	11.633	-0.030	-0.023
-361.654	800.000	0.128	-0.350
-360.639	800.000	-0.141	0.426
-359.625	800.000	0.007	0.030
-358.610	480.139	0.117	-0.262
-357.596	800.000	0.052	0.164
-356.581	-200.000	-0.049	-0.219
-355.566	800.000	-0.065	-0.190
-354.552	352.073	0.141	0.277
-353.537	-200.000	0.226	0.001
-352.523	-127.177	0.153	-0.022
-351.508	10.328	-0.177	0.133
-350.493	117.037	0.027	0.033
-349.479	126.702	-0.126	-0.158
-348.464	50.636	-0.066	-0.062
-347.450	-144.360	0.157	-0.014
-346.435	27.157	0.116	-0.096
-345.420	7.244	0.217	-0.161
-344.406	-53.391	0.076	-0.034
-343.391	-200.000	0.016	0.187
-342.377	-68.871	0.101	0.039
-341.362	-103.357	0.082	0.019
-340.348	191.826	0.038	0.056
-339.333	322.771	0.025	0.047
-338.318	-101.683	-0.227	-0.054
-337.304	575.153	0.124	0.299
-336.289	48.352	0.055	-0.051
-335.275	-77.997	-0.298	-0.102
-334.260	32.227	-0.039	-0.033
-333.245	247.663	0.181	0.303
-332.231	123.012	-0.168	-0.208
-331.216	144.899	-0.122	0.162
-330.202	-149.749	0.242	0.019
-329.187	60.062	0.074	0.072
-328.172	-2.339	0.190	0.132
-327.158	69.877	0.185	0.189
-326.143	-200.000	0.052	0.267
-325.129	-28.984	0.228	0.130
-324.114	-200.000	0.009	0.221
-323.099	-200.000	0.083	0.363
-322.085	-155.513	0.348	0.022
-321.070	-50.744	-0.128	0.060
-320.056	-164.693	0.352	-0.016
-319.041	47.179	-0.086	0.080
-318.026	800.000	-0.151	-0.561
-317.012	-200.000	0.004	-0.057
-315.997	-200.000	-0.002	0.119
-314.983	800.000	-0.079	0.224
-313.968	-43.816	-0.127	0.063
-312.953	76.775	0.082	-0.087
-311.939	267.278	-0.152	0.263
-310.924	-108.379	0.583	-0.124
-309.910	-136.616	-0.406	0.046
-308.895	-200.000	-0.063	-0.395
-307.880	800.000	-0.161	0.462
-306.866	113.884	-0.148	-0.178
-305.851	-92.748	-0.158	0.044
-304.837	-111.209	-0.202	0.041
-303.822	13.746	0.087	-0.067
-302.807	80.644	-0.048	0.051
-301.793	680.413	0.121	0.311
-300.778	27.256	-0.150	0.124
-299.764	-155.106	-0.023	-0.001
-298.749	-105.820	0.123	-0.027
-297.735	800.000	-0.072	0.232
-296.720	107.284	0.177	-0.208
-295.705	-176.300	-0.201	0.005
-294.691	-66.727	-0.177	0.069
-293.676	-200.000	0.017	0.297
-292.662	-38.097	-0.246	0.129
-291.647	102.197	0.223	0.258
-290.632	72.282	0.254	0.262
-289.618	187.556	-0.228	-0.336
-288.603	-50.869	0.071	0.033
-287.589	-13.989	-0.182	0.116
-286.574	-69.361	0.230	0.087
-285.559	-200.000	-0.034	0.203
-284.545	154.964	-0.123	0.168
-283.530	-190.282	-0.083	-0.001
-282.516	800.000	-0.050	0.169
-281.501	83.786	0.227	-0.245
-280.486	-32.241	-0.127	-0.070
-279.472	-79.205	-0.255	0.086
-278.457	-113.850	-0.081	-0.016
-277.443	-55.949	0.127	-0.056
-276.428	15.112	-0.176	-0.137
-275.413	-119.753	-0.103	-0.018
-274.399	-200.000	0.044	-0.284
-273.384	77.983	0.119	-0.125
-272.370	86.020	-0.133	0.144
-271.355	800.000	-0.072	0.281
-270.340	599.049	-0.053	0.130
-269.326	-18.701	-0.068	-0.042
-268.311	31.081	-0.153	-0.129
-267.297	-62.453	-0.124	-0.051
-266.282	800.000	0.040	-0.166
-265.267	278.154	-0.206	0.362
-264.253	800.000	0.070	0.223
-263.238	43.906	0.424	-0.384
-262.224	-1.957	-0.094	-0.065
-261.209	-78.737	-0.178	-0.060
-260.195	-200.000	-0.033	-0.308
-259.180	466.820	0.103	0.228
-258.165	187.825	-0.047	0.070
-257.151	-144.670	-0.049	-0.004
-256.136	187.045	0.173	-0.254
-255.122	-200.000	0.005	0.151
-254.107	187.764	-0.347	0.512
-253.092	-200.000	-0.003	0.017
-252.078	167.784	-0.162	0.228
-251.063	235.144	0.106	0.173
-250.049	-130.274	0.618	-0.083
-249.034	-170.542	-0.351	-0.012
-248.019	31.874	0.208	0.176
-247.005	310.580	-0.039	0.072
-245.990	-169.762	-0.301	-0.011
-244.976	-17.024	0.117	0.073
-243.961	-113.106	-0.312	0.061
-242.946	-8.983	0.102	-0.067
-241.932	-196.830	0.074	-0.000
-240.917	-200.000	-0.001	0.196
-239.903	-80.293	0.421	0.139
-238.888	114.679	-0.046	0.055
-237.873	416.372	-0.131	-0.277
-236.859	262.305	0.084	0.145
-235.844	53.928	-0.121	-0.115
-234.830	-13.237	-0.204	-0.131
-233.815	-200.000	0.243	0.000
-232.800	156.851	-0.182	-0.248
-231.786	46.344	0.076	0.069
-230.771	46.180	-0.169	0.154
-229.757	-26.890	-0.300	-0.173
-228.742	-119.624	0.116	0.020
-227.727	15.035	0.238	0.184
-226.713	-55.325	0.079	-0.035
-225.698	-58.082	-0.067	-0.029
-224.684	800.000	0.056	-0.210
-223.669	-83.737	0.436	-0.137
-222.655	18.203	0.230	-0.181
-221.640	8.909	0.449	-0.334
-220.625	-99.217	-0.281	0.070
-219.611	-200.000	0.003	-0.113
-218.596	329.798	0.104	-0.197
-217.582	453.890	-0.027	0.059
-216.567	-200.000	-0.050	-0.267
-215.552	212.707	-0.108	0.168
-214.538	-33.667	0.261	0.142
-213.523	94.059	-0.198	-0.221
-212.509	-200.000	-0.027	0.126
-211.494	-200.000	-0.085	-0.506
-210.479	-200.000	0.034	-0.455
-209.465	223.928	-0.072	0.115
-208.450	-29.841	-0.139	0.078
-207.436	-178.473	0.320	-0.007
-206.421	-90.561	-0.119	0.034
-205.406	-200.000	0.010	-0.235
-204.392	522.061	-0.108	0.249
-203.377	-19.666	-0.393	0.239
-202.363	157.872	-0.104	0.142
-201.348	-84.277	-0.321	0.100
-200.333	-16.604	0.242	-0.151
-199.319	800.000	0.078	0.240
-198.304	54.012	-0.301	0.285
-197.290	-34.833	0.144	-0.078
-196.275	192.613	0.097	0.144
-195.260	35.445	0.026	-0.023
-194.246	485.260	0.111	-0.249
-193.231	-200.000	-0.027	-0.340
-192.217	-36.945	0.066	-0.035
-191.202	20.202	-0.085	-0.068
-190.187	-124.340	-0.231	0.035
-189.173	-200.000	0.002	-0.266
-188.158	3.668	0.173	0.124
-187.144	74.282	-0.238	0.247
-186.129	-120.686	-0.072	0.012
-185.114	-62.446	0.077	-0.032
-184.100	-151.902	0.109	-0.008
-183.085	-43.927	-0.078	-0.039
-182.071	-63.247	-0.093	-0.038
-181.056	-152.284	0.114	0.008
-180.042	-107.076	0.493	-0.107
-179.027	112.206	0.071	0.084
-178.012	-200.000	-0.005	0.096
-176.998	-42.292	-0.277	0.139
-175.983	-54.019	-0.150	0.067
-174.969	5.629	0.162	0.118
-173.954	-140.136	0.257	0.027
-172.939	-114.646	-0.161	0.030
-171.925	-101.783	0.157	0.037
-170.910	-200.000	-0.043	0.312
-169.896	-43.762	0.306	-0.152
-168.881	800.000	0.033	0.116
-167.866	-200.000	-0.009	0.087
-166.852	1.087	0.298	-0.211
-165.837	-200.000	-0.018	-0.143
-164.823	-70.906	0.318	0.118
-163.808	-32.548	-0.182	0.100
-162.793	4.991	0.106	0.077
-161.779	-167.422	-0.203	0.008
-160.764	-200.000	0.028	-0.179
-159.750	-200.000	-0.015	0.409
-158.735	691.693	0.111	0.287
-157.720	356.476	0.063	-0.123
-156.706	188.281	0.142	-0.208
-155.691	-105.069	0.156	-0.035
-154.677	-200.000	0.007	0.033
-153.662	297.211	-0.071	0.128
-152.647	414.830	0.029	-0.060
-151.633	800.000	0.029	-0.093
-150.618	42.332	0.030	-0.026
-149.604	-181.666	-0.352	-0.007
-148.589	-200.000	-0.009	-0.316
-147.574	430.366	0.173	-0.368
-146.560	441.181	0.045	-0.096
-145.545	-150.067	0.175	0.013
-144.531	-200.000	0.055	0.610
-143.516	-50.949	-0.285	0.131
-142.502	800.000	-0.110	-0.392
-141.487	-95.248	-0.153	0.041
-140.472	-200.000	-0.008	-0.042
-139.458	8.813	-0.128	0.095
-138.443	-24.275	-0.210	0.123
-137.429	-162.217	-0.242	-0.012
-136.414	137.632	0.129	0.165
-135.399	150.691	0.151	0.201
-134.385	800.000	-0.100	0.287
-133.370	-90.061	-0.180	-0.052
-132.356	-80.728	-0.231	0.075
-131.341	-146.388	-0.064	-0.006
-130.326	-22.198	0.283	0.169
-129.312	17.305	-0.228	-0.178
-128.297	-200.000	0.059	0.358
-127.283	-56.527	0.182	-0.079
-126.268	283.794	-0.119	0.210
-125.253	-163.980	0.309	-0.014
-124.239	800.000	0.089	0.260
-123.224	-200.000	-0.026	-0.310
-122.210	-147.147	-0.278	0.023
-121.195	-171.557	0.160	-0.005
-120.180	-56.025	0.182	-0.080
-119.166	301.976	0.111	-0.202
-118.151	184.949	-0.165	0.240
-117.137	800.000	0.086	-0.312
-116.122	177.979	0.110	-0.158
-115.107	-200.000	0.007	-0.288
-114.093	81.354	-0.067	-0.071
-113.078	776.552	-0.092	0.246
-112.064	800.000	-0.116	-0.462
-111.049	291.906	-0.116	0.207
-110.034	-31.907	0.465	-0.256
-109.020	-200.000	-0.007	-0.059
-108.005	-200.000	-0.019	-0.213
-106.991	507.313	-0.025	-0.056
-105.976	-48.692	-0.281	0.133
-104.962	-108.612	-0.275	-0.058
-103.947	72.736	0.224	-0.229
-102.932	-43.083	0.428	0.213
-101.918	-94.087	0.063	-0.017
-100.903	-54.131	-0.191	-0.085
-99.889	-190.869	-0.147	-0.002
-98.874	800.000	0.018	-0.056
-97.859	-125.524	0.189	-0.028
-96.845	1.598	-0.281	-0.198
-95.830	429.788	0.197	-0.418
-94.816	-198.100	0.357	0.002
-93.801	313.480	-0.002	-0.003
-92.786	105.481	-0.103	0.119
-91.772	-200.000	0.040	-0.235
-90.757	1.539	-0.120	0.084
-89.743	-84.402	0.416	0.129
-88.728	-179.332	0.342	0.007
-87.713	-200.000	0.032	0.198
-86.699	-77.288	0.368	-0.126
-85.684	800.000	0.009	-0.030
-84.670	11.679	-0.066	-0.050
-83.655	55.779	-0.191	-0.181
-82.640	780.846	0.061	0.164
-81.626	122.745	0.211	-0.258
-80.611	329.454	0.027	-0.052
-79.597	800.000	-0.041	-0.161
-78.582	-68.341	0.255	0.097
-77.567	38.070	-0.194	0.169
-76.553	141.493	0.093	-0.121
-75.538	-112.284	0.115	0.023
-74.524	114.672	-0.140	0.167
-73.509	724.365	0.071	0.184
-72.494	57.328	-0.062	0.059
-71.480	-85.207	0.187	-0.057
-70.465	33.184	-0.238	0.202
-69.451	388.636	0.086	0.175
-68.436	78.788	-0.071	-0.074
-67.422	-50.507	0.092	0.043
-66.407	-200.000	-0.019	-0.096
-65.392	800.000	-0.086	-0.335
-64.378	589.210	0.166	0.401
-63.363	58.029	0.190	0.182
-62.349	111.979	-0.191	0.227
-61.334	58.167	-1.042	-1.000
-60.319	54.323	0.609	0.575
-59.305	369.203	-0.569	-1.129
-58.290	731.296	0.605	1.586
-57.276	800.000	0.551	1.748
-56.261	-200.000	114.394	644.407
-55.246	462.379	1514.797	3311.813
-54.232	146.230	2680.353	3523.813
-53.217	103.152	2157.026	2476.469
-52.203	38.774	1603.064	1401.890
-51.188	30.652	1348.849	1130.418
-50.173	27.698	1311.524	1081.604
-49.159	55.701	1366.791	1297.104
-48.144	53.909	1381.373	1300.101
-47.130	30.910	1336.893	1121.769
-46.115	27.425	1319.334	1086.242
-45.100	27.241	1314.681	1081.277
-44.086	27.254	1311.645	1078.812
-43.071	27.220	1309.814	1077.061
-42.057	27.187	1307.576	1074.987
-41.042	27.246	1306.055	1074.041
-40.027	27.302	1304.511	1073.060
-39.013	27.252	1302.965	1071.449
-37.998	27.341	1300.662	1070.037
-36.984	27.292	1298.753	1068.134
-35.969	27.447	1296.974	1067.541
-34.954	27.349	1295.894	1066.037
-33.940	27.359	1294.308	1064.747
-32.925	27.351	1292.737	1063.368
-31.911	27.475	1291.168	1062.757
-30.896	27.479	1289.867	1061.666
-29.881	27.470	1288.481	1060.430
-28.867	27.560	1286.815	1059.541
-27.852	27.416	1285.837	1057.857
-26.838	27.534	1283.870	1056.881
-25.823	27.436	1282.832	1055.419
-24.809	27.514	1281.109	1054.410
-23.794	27.443	1280.353	1053.337
-22.779	27.360	1279.170	1051.842
-21.765	27.347	1277.808	1050.602
-20.750	27.531	1276.488	1050.535
-19.736	27.419	1275.033	1048.651
-18.721	27.409	1274.061	1047.754
-17.706	27.324	1273.015	1046.364
-16.692	27.268	1272.256	1045.378
-15.677	27.382	1270.388	1044.456
-14.663	27.407	1269.617	1043.920
-13.648	27.339	1268.290	1042.398
-12.633	27.186	1268.272	1041.468
-11.619	27.370	1266.744	1041.221
-10.604	27.368	1265.617	1040.244
-9.590	27.332	1264.574	1039.141
-8.575	27.315	1263.919	1038.465
-7.560	27.233	1262.781	1037.020
-6.546	27.324	1262.258	1037.068
-5.531	27.352	1260.727	1035.927
-4.517	27.287	1259.958	1034.884
-3.502	27.306	1259.650	1034.702
-2.487	27.318	1258.778	1034.008
-1.473	27.339	1254.081	1030.230
-0.458	25.824	1239.100	1009.402
0.556	20.989	1223.103	972.461
1.571	17.380	1229.676	957.323
2.586	16.749	1244.318	965.041
3.600	16.784	1233.080	956.443
4.615	15.679	1166.800	899.043
5.629	13.016	1100.816	834.675
6.644	11.551	1084.502	814.931
7.659	11.569	1081.863	812.965
8.673	11.318	1081.306	811.227
9.688	11.351	1080.022	810.355
10.702	11.590	1077.369	809.475
11.717	13.025	1079.029	817.764
12.731	15.908	1081.896	834.167
13.746	17.568	1084.434	844.286
14.761	17.685	1083.432	844.010
15.775	16.724	1081.562	837.728
16.790	15.650	1079.645	830.865
17.804	14.979	1077.911	826.144
18.819	14.497	1076.855	822.884
19.834	14.158	1075.783	820.318
20.848	13.967	1074.889	818.622
21.863	13.727	1073.852	816.580
22.877	13.578	1073.166	815.253
23.892	13.571	1072.572	814.693
24.907	13.523	1071.799	813.802
25.921	13.573	1070.947	813.324
26.936	13.666	1069.270	812.434
27.950	13.572	1068.300	811.169
28.965	13.750	1066.926	810.924
29.980	13.793	1065.175	809.730
30.994	13.843	1064.137	809.115
32.009	13.876	1062.947	808.299
33.023	13.746	1061.807	806.727
34.038	13.863	1060.605	806.312
35.053	13.652	1060.184	804.894
36.067	13.772	1058.947	804.465
37.082	13.773	1058.096	803.754
38.096	13.876	1057.335	803.602
39.111	13.778	1056.630	802.520
40.126	13.860	1055.146	801.722
41.140	13.630	1053.891	799.585
42.155	13.619	1052.742	798.590
43.169	13.467	1052.568	797.653
44.184	13.572	1051.145	797.013
45.199	13.552	1050.258	796.172
46.213	13.615	1049.478	795.815
47.228	13.630	1048.346	794.957
48.242	13.673	1046.952	794.034
49.257	13.630	1046.082	793.097
50.271	13.764	1044.797	792.697
51.286	13.717	1044.231	791.971
52.301	13.762	1043.055	791.226
53.315	13.623	1042.173	789.821
54.330	13.588	1041.343	788.958
55.344	13.612	1040.046	788.017
56.359	13.606	1039.187	787.271
57.374	13.588	1038.738	786.775
58.388	13.480	1037.435	785.206
59.403	13.634	1036.699	785.310
60.417	13.586	1035.864	784.378
61.432	13.479	1034.947	783.109
62.447	13.422	1034.196	782.203
63.461	13.544	1032.817	781.664
64.476	13.456	1032.066	780.613
65.490	13.389	1031.592	779.869
66.505	13.510	1030.830	779.797
67.520	13.461	1030.185	779.006
68.534	13.600	1029.155	778.814
69.549	13.550	1029.042	778.426
70.563	13.449	1028.336	777.345
71.578	13.445	1027.230	776.424
72.593	13.519	1026.010	775.780
73.607	13.389	1025.989	775.086
74.622	13.405	1025.805	774.951
75.636	13.406	1024.159	773.645
76.651	13.372	1023.837	773.173
77.666	13.454	1023.367	773.134
78.680	13.452	1022.693	772.546
79.695	13.477	1021.877	771.977
80.709	13.555	1021.246	771.797
81.724	13.534	1020.716	771.231
82.739	13.577	1020.076	770.881
83.753	13.743	1019.321	771.015
84.768	13.796	1018.413	770.504
85.782	13.892	1017.032	769.837
86.797	13.818	1016.148	768.757
87.812	13.728	1015.338	767.661
88.826	13.590	1014.582	766.380
89.841	13.769	1013.334	766.196
90.855	13.774	1012.339	765.398
91.870	13.874	1011.932	765.486
92.884	13.852	1011.168	764.740
93.899	13.916	1010.326	764.327
94.914	13.940	1009.299	763.595
95.928	13.836	1008.981	762.810
96.943	13.781	1007.906	761.676
97.957	13.645	1007.239	760.480
98.972	13.871	1005.828	760.383
99.987	13.798	1005.419	759.672
101.001	13.824	1004.054	758.691
102.016	13.797	1003.490	758.078
103.030	13.822	1002.562	757.423
104.045	13.801	1001.786	756.671
105.060	13.797	1000.590	755.682
106.074	13.651	999.734	754.305
107.089	13.506	998.604	752.728
108.103	13.552	997.759	752.231
109.118	13.546	996.553	751.229
110.133	13.631	996.044	751.164
111.147	13.543	995.344	750.172
112.162	13.665	994.168	749.770
113.176	13.639	993.270	748.912
114.191	13.695	992.497	748.515
115.206	13.685	991.636	747.755
116.220	13.749	990.780	747.332
117.235	13.714	990.047	746.553
118.249	13.651	989.002	745.418
119.264	13.796	988.071	745.299
120.279	13.570	987.947	744.128
121.293	13.562	986.950	743.273
122.308	13.643	985.637	742.583
123.322	13.429	984.832	740.950
124.337	13.463	984.160	740.534
125.352	13.697	982.307	740.116
126.366	13.748	980.947	739.256
127.381	13.623	980.380	738.204
128.395	13.666	979.228	737.462
129.410	13.737	978.448	737.125
130.424	13.671	977.749	736.240
131.439	13.772	977.267	736.261
132.454	13.857	976.459	735.966
133.468	13.834	975.004	734.701
134.483	13.675	974.885	733.844
135.497	13.604	974.057	732.840
136.512	13.651	973.663	732.685
137.527	13.649	972.767	731.937
138.541	13.731	971.585	731.345
139.556	13.730	970.552	730.500
140.570	13.845	970.246	730.709
141.585	13.930	969.227	730.252
142.600	13.891	968.649	729.583
143.614	13.990	967.510	729.095
144.629	13.983	967.033	728.638
145.643	13.867	966.166	727.413
146.658	13.894	965.079	726.647
147.673	13.894	963.725	725.564
148.687	13.712	963.088	724.226
149.702	13.792	962.438	724.022
150.716	13.754	961.404	723.015
151.731	13.900	960.541	722.937
152.746	13.821	960.031	722.144
153.760	13.911	959.314	721.934
154.775	14.034	958.652	721.907
155.789	13.995	958.190	721.324
156.804	13.826	957.765	720.209
157.819	14.125	956.562	720.535
158.833	14.118	955.850	719.905
159.848	14.097	955.434	719.435
160.862	14.029	954.279	718.211
161.877	13.908	953.337	716.916
162.892	13.848	952.577	716.021
163.906	13.870	951.403	715.170
164.921	13.930	950.506	714.693
165.935	13.945	950.207	714.469
166.950	14.033	948.760	713.694
167.964	14.101	947.761	713.173
168.979	13.989	947.188	712.197
169.994	14.014	946.202	711.501
171.008	13.928	945.344	710.423
172.023	14.087	944.691	710.549
173.037	14.272	943.678	710.515
174.052	14.126	943.273	709.525
175.067	14.078	942.555	708.719
176.081	14.047	941.815	707.966
177.096	14.079	941.529	707.825
178.110	14.114	940.848	707.397
179.125	14.041	940.294	706.608
180.140	14.097	939.448	706.149
181.154	14.234	938.574	706.008
182.169	14.234	938.733	706.065
183.183	14.254	938.357	705.806
184.198	14.299	937.062	704.960
185.213	14.441	936.263	704.900
186.227	14.345	935.847	704.117
187.242	14.311	935.723	703.815
188.256	14.348	934.678	703.124
189.271	14.484	933.992	703.122
190.286	14.167	932.951	700.941
191.300	14.083	932.587	700.250
192.315	14.070	932.305	699.923
193.329	13.924	931.749	698.829
194.344	14.211	930.897	699.333
195.359	14.140	930.091	698.366
196.373	14.336	929.263	698.507
197.388	14.311	928.910	698.076
198.402	14.508	928.959	698.874
199.417	14.429	928.276	697.967
200.432	14.636	927.443	698.145
201.446	14.604	927.281	697.827
202.461	14.684	926.302	697.366
203.475	14.685	925.425	696.647
204.490	14.560	924.931	695.691
205.504	14.547	924.236	695.055
206.519	14.585	923.343	694.478
207.534	14.476	922.951	693.670
208.548	14.502	922.169	693.126
209.563	14.515	921.319	692.481
210.577	14.492	920.683	691.847
211.592	14.651	920.384	692.221
212.607	14.799	919.252	691.919
213.621	14.734	918.526	691.042
214.636	14.752	917.763	690.484
215.650	14.639	917.433	689.705
216.665	14.872	916.331	689.779
217.680	14.828	915.487	688.900
218.694	14.724	915.337	688.301
219.709	14.805	914.851	688.204
220.723	14.775	914.005	687.385
221.738	14.806	913.187	686.838
222.753	14.758	912.359	685.954
223.767	14.707	912.093	685.485
224.782	14.950	911.667	686.103
225.796	14.887	911.169	685.407
226.811	14.913	910.142	684.680
227.826	14.780	909.744	683.778
228.840	14.858	909.063	683.522
229.855	14.945	907.872	682.922
230.869	14.917	906.970	682.068
231.884	14.905	906.499	681.607
232.899	14.842	905.791	680.756
233.913	14.900	904.964	680.312
234.928	14.789	904.583	679.511
235.942	14.773	904.081	679.012
236.957	14.919	903.262	678.930
237.972	14.787	903.152	678.252
238.986	14.848	902.219	677.737
240.001	14.794	901.541	676.948
241.015	14.942	901.051	677.121
242.030	14.941	900.130	676.366
243.045	15.071	899.374	676.263
244.059	14.810	899.393	675.160
245.074	14.855	898.891	674.908
246.088	15.008	897.576	674.476
247.103	15.074	897.027	674.271
248.117	15.109	896.724	674.122
249.132	15.198	896.175	674.008
250.147	15.366	895.276	673.949
251.161	15.371	894.699	673.476
252.176	15.259	894.499	672.816
253.190	15.413	893.607	672.703
254.205	15.420	892.744	672.019
255.220	15.444	892.033	671.520
256.234	15.350	891.698	670.833
257.249	15.460	890.793	670.535
258.263	15.411	890.125	669.774
259.278	15.422	889.663	669.413
260.293	15.379	889.115	668.769
261.307	15.571	888.276	668.842
262.322	15.654	887.724	668.698
263.336	15.477	887.212	667.550
264.351	15.562	886.322	667.161
265.366	15.670	885.666	667.038
266.380	15.593	885.055	666.213
267.395	15.466	884.146	664.963
268.409	15.522	883.898	664.943
269.424	15.706	882.412	664.490
270.439	15.617	882.247	663.957
271.453	15.564	881.495	663.122
272.468	15.440	881.076	662.259
273.482	15.686	880.076	662.419
274.497	15.623	879.637	661.782
275.512	15.606	879.153	661.292
276.526	15.586	879.013	661.048
277.541	15.710	878.244	660.899
278.555	15.703	877.656	660.372
279.570	15.778	876.949	660.078
280.585	15.778	876.394	659.601
281.599	15.777	875.165	658.615
282.614	15.768	874.710	658.179
283.628	15.720	873.811	657.253
284.643	15.808	873.469	657.283
285.657	15.837	872.835	656.859
286.672	15.866	872.433	656.612
287.687	16.000	871.623	656.469
288.701	15.868	871.198	655.574
289.716	15.919	870.701	655.340
290.730	15.930	869.833	654.674
291.745	15.901	869.596	654.325
292.760	16.007	868.869	654.130
293.774	16.079	868.088	653.764
294.789	16.092	867.258	653.130
295.803	16.096	866.539	652.549
296.818	15.961	865.691	651.331
297.833	15.990	865.323	651.107
298.847	15.990	864.684	650.569
299.862	16.049	864.302	650.453
300.876	15.975	863.968	649.859
301.891	16.052	863.549	649.781
302.906	16.127	862.462	649.195
303.920	16.175	862.298	649.199
304.935	16.270	862.313	649.516
305.949	16.323	861.048	648.712
306.964	16.203	860.264	647.601
307.979	16.213	859.914	647.322
308.993	16.179	859.433	646.771
310.008	16.415	858.504	646.919
311.022	16.316	857.984	646.090
312.037	16.193	857.721	645.363
313.052	16.220	856.659	644.611
314.066	16.126	856.174	643.831
315.081	16.012	855.958	643.178
316.095	16.183	855.351	643.313
317.110	16.175	854.702	642.739
318.125	16.168	854.314	642.363
319.139	16.339	853.573	642.399
320.154	16.170	853.290	641.489
321.168	16.328	852.828	641.686
322.183	16.251	851.769	640.539
323.197	16.251	851.587	640.344
324.212	16.358	850.963	640.225
325.227	16.334	850.181	639.491
326.241	16.312	849.842	639.096
327.256	16.278	849.483	638.639
328.270	16.207	848.770	637.778
329.285	16.248	848.194	637.444
330.300	16.374	847.928	637.665
331.314	16.454	846.675	636.967
332.329	16.451	846.607	636.845
333.343	16.564	846.086	636.826
334.358	16.534	845.524	636.234
335.373	16.571	845.145	636.029
336.387	16.515	845.145	635.762
337.402	16.480	844.588	635.158
338.416	16.593	844.516	635.472
339.431	16.534	844.459	635.150
340.446	16.725	843.396	635.010
341.460	16.819	842.996	635.006
342.475	16.849	842.417	634.627
343.489	16.831	842.487	634.552
344.504	16.874	841.249	633.727
345.519	16.726	841.239	633.109
346.533	16.724	840.875	632.770
347.548	16.772	839.867	632.135
348.562	16.761	839.616	631.852
349.577	16.643	839.232	631.065
350.592	16.774	838.440	630.902
351.606	16.809	837.785	630.483
352.621	16.826	836.717	629.687
353.635	16.852	836.258	629.381
354.650	16.844	835.830	628.976
355.665	16.792	835.416	628.414
356.679	16.964	834.485	628.296
357.694	16.969	833.851	627.784
358.708	17.005	832.957	627.188
359.723	16.894	832.765	626.577
360.738	16.771	832.597	625.942
361.752	16.867	831.426	625.360
362.767	17.168	830.899	626.016
363.781	17.127	830.266	625.333
364.796	17.056	830.025	624.836
365.810	17.141	829.800	624.925
366.825	17.233	829.260	624.802
367.840	17.196	828.724	624.205
368.854	17.124	828.548	623.751
369.869	17.092	828.161	623.287
370.883	17.155	827.216	622.753
371.898	17.039	827.440	622.441
372.913	17.264	826.854	622.770
373.927	17.099	826.380	621.755
374.942	17.231	825.756	621.714
375.956	17.324	825.283	621.640
376.971	17.327	824.852	621.274
377.986	17.433	824.545	621.373
379.000	17.512	823.911	621.128
380.015	17.305	823.851	620.273
381.029	17.382	822.961	619.829
382.044	17.518	822.200	619.696
383.059	17.500	821.581	619.109
384.073	17.444	821.080	618.472
385.088	17.473	820.692	618.232
386.102	17.446	819.785	617.396
387.117	17.351	819.321	616.648
388.132	17.433	818.722	616.437
389.146	17.519	818.274	616.360
390.161	17.398	818.092	615.727
391.175	17.579	817.682	616.021
392.190	17.516	816.828	615.093
393.205	17.351	816.529	614.220
394.219	17.389	816.078	613.963
395.234	17.503	815.545	613.920
396.248	17.348	815.075	612.951
397.263	17.361	814.873	612.794
398.278	17.384	814.324	612.410
399.292	17.347	814.216	612.141
400.307	17.515	813.358	612.043
401.321	17.546	812.688	611.596
402.336	17.506	812.447	611.216
403.350	17.428	812.350	610.810
404.365	17.706	811.470	611.093
405.380	17.654	811.182	610.634
406.394	17.524	810.791	609.821
407.409	17.642	810.264	609.792
408.423	17.748	810.082	609.981
409.438	17.883	809.147	609.703
410.453	17.728	809.202	609.140
411.467	17.908	808.477	609.181
412.482	17.844	808.198	608.690
413.496	17.824	807.902	608.342
414.511	17.770	807.741	607.972
415.526	17.942	806.757	607.793
416.540	17.841	806.454	607.151
417.555	17.949	806.325	607.383
418.569	17.924	805.608	606.700
419.584	17.869	805.601	606.448
420.599	18.024	804.657	606.231
421.613	111.587	1294.626	1476.123
422.628	96.254	1366.016	1476.202
