DTS Sentinel unit serial number:	SN413079Multiplexer serial number:	ORYXHardware model number:	OX4-SRSoftware version number:	ORYX F/W v4.00 Oryx Data Collector v3.7.2.0data status	okinstallation	princeton_trtdifferential loss correction	single-endedforward channel	channel 1reverse channel	N/Adate	2019/09/12time	14:24:11forward acquisition time	60.00reverse acquisition time	0.00gamma	496.2192k internal	0.2294k external	0.2294temperature offset calibration	1.0060default loss term (dB/km)	0.3790temperature slope calibration	1.0000multiplexer offset coefficient	1.0000multiplexer slope coefficient	1.0000fibre end	0.00T internal ref (°C)	40.12T ext. ref 1 (°C)	2.27T ext. ref 2 (°C)	35.00length (m)	temperature (°C)	Stokes	anti-Stokes-747.200	800.000	-0.132	0.436
-746.185	-200.000	0.020	0.151
-745.171	-155.870	0.337	-0.022
-744.156	72.534	-0.108	-0.115
-743.142	68.845	0.049	0.052
-742.127	-160.455	0.179	0.010
-741.112	-18.676	0.072	0.046
-740.098	-200.000	0.004	0.334
-739.083	143.959	0.086	-0.118
-738.069	353.203	-0.209	0.425
-737.054	-200.000	-0.030	0.137
-736.039	65.214	0.161	-0.166
-735.025	-150.203	-0.116	-0.009
-734.010	800.000	0.039	-0.115
-732.996	499.089	-0.123	-0.290
-731.981	44.672	0.296	-0.278
-730.966	-200.000	0.010	0.230
-729.952	128.818	-0.156	0.203
-728.937	-200.000	0.020	-0.112
-727.923	-200.000	-0.005	0.084
-726.908	-110.979	0.190	0.040
-725.894	-63.543	-0.153	0.064
-724.879	-59.100	0.086	0.038
-723.864	-88.072	-0.105	-0.032
-722.850	-0.604	-0.231	0.167
-721.835	223.295	0.194	-0.320
-720.821	-200.000	-0.033	0.212
-719.806	-25.525	0.014	-0.008
-718.791	45.342	-0.169	0.160
-717.777	-164.663	-0.215	-0.010
-716.762	800.000	-0.047	-0.138
-715.748	91.550	-0.100	-0.114
-714.733	-145.120	0.141	0.013
-713.718	-48.289	-0.238	0.117
-712.704	-77.826	-0.279	0.098
-711.689	332.369	-0.076	-0.150
-710.675	-2.829	-0.105	-0.075
-709.660	221.954	0.185	-0.304
-708.645	-42.660	-0.093	0.048
-707.631	47.043	0.049	0.046
-706.616	276.903	-0.149	-0.271
-705.602	-97.545	-0.380	0.101
-704.587	266.369	-0.081	0.144
-703.572	800.000	0.077	0.301
-702.558	390.008	0.087	-0.185
-701.543	-122.222	0.036	-0.006
-700.529	-169.280	0.287	-0.011
-699.514	3.247	-0.009	0.007
-698.499	163.352	0.099	0.142
-697.485	-200.000	-0.093	0.000
-696.470	-189.282	0.048	-0.001
-695.456	-95.044	0.321	-0.089
-694.441	187.251	0.161	-0.245
-693.426	50.958	-0.044	-0.042
-692.412	-200.000	0.007	-0.084
-691.397	-27.501	-0.056	0.033
-690.383	-46.696	0.116	0.058
-689.368	-175.782	-0.136	0.004
-688.354	-35.023	-0.218	-0.121
-687.339	192.958	0.075	0.116
-686.324	237.111	0.117	-0.198
-685.310	588.570	-0.097	0.243
-684.295	-200.000	-0.009	-0.062
-683.281	54.715	-0.052	0.052
-682.266	-21.822	0.212	-0.131
-681.251	-21.818	0.311	0.193
-680.237	800.000	0.032	-0.096
-679.222	252.276	0.159	0.276
-678.208	657.115	-0.077	0.201
-677.193	-200.000	0.013	0.076
-676.178	214.092	0.227	-0.367
-675.164	-129.004	0.313	0.045
-674.149	247.584	-0.139	0.240
-673.135	800.000	-0.019	0.081
-672.120	-100.395	-0.305	-0.077
-671.105	-25.333	0.112	-0.067
-670.091	-95.635	0.202	-0.055
-669.076	-15.523	-0.182	-0.118
-668.062	-129.592	0.103	-0.015
-667.047	232.418	0.120	-0.201
-666.032	-82.846	-0.387	-0.127
-665.018	800.000	-0.094	-0.281
-664.003	61.240	-0.106	-0.108
-662.989	51.891	-0.230	0.224
-661.974	-17.715	-0.226	0.145
-660.959	-179.060	0.389	0.009
-659.945	-113.923	-0.512	-0.101
-658.930	-91.740	-0.413	0.120
-657.916	-200.000	0.012	-0.198
-656.901	-167.609	-0.176	-0.007
-655.886	162.593	-0.114	0.163
-654.872	-172.312	0.210	-0.007
-653.857	24.901	0.150	0.126
-652.843	156.322	-0.098	0.138
-651.828	-106.997	0.211	-0.047
-650.814	27.795	0.067	-0.057
-649.799	-48.073	0.204	-0.100
-648.784	65.364	0.195	-0.201
-647.770	-34.488	-0.532	-0.297
-646.755	39.877	-0.201	0.184
-645.741	416.485	-0.075	0.163
-644.726	61.367	-0.167	-0.170
-643.711	-200.000	-0.045	0.241
-642.697	-153.293	0.132	-0.009
-641.682	-128.907	0.051	-0.007
-640.668	27.382	-0.297	-0.254
-639.653	800.000	-0.089	-0.345
-638.638	-200.000	0.001	0.040
-637.624	-63.317	-0.121	-0.051
-636.609	-63.846	0.185	-0.077
-635.595	20.822	0.155	0.128
-634.580	260.659	0.139	0.245
-633.565	800.000	0.040	-0.178
-632.551	-145.962	0.102	-0.009
-631.536	-29.388	-0.242	0.141
-630.522	2.501	-0.182	-0.134
-629.507	-5.704	0.236	0.165
-628.492	-57.382	-0.183	0.082
-627.478	277.480	-0.062	-0.112
-626.463	800.000	0.050	0.185
-625.449	-105.986	-0.216	-0.050
-624.434	-200.000	0.050	0.366
-623.419	-37.434	-0.251	0.136
-622.405	-37.860	-0.116	-0.063
-621.390	109.610	0.214	-0.261
-620.376	34.840	0.140	0.125
-619.361	-113.573	-0.114	0.023
-618.346	689.132	0.150	0.400
-617.332	-200.000	-0.010	0.247
-616.317	218.471	-0.054	0.087
-615.303	33.002	-0.100	0.088
-614.288	-200.000	-0.017	-0.078
-613.273	-136.575	0.203	0.024
-612.259	-107.568	0.323	0.072
-611.244	-200.000	-0.006	0.222
-610.230	-15.433	-0.182	-0.118
-609.215	339.150	0.192	0.380
-608.201	-200.000	0.097	0.438
-607.186	253.363	-0.127	0.221
-606.171	800.000	0.071	-0.292
-605.157	-136.944	0.110	0.013
-604.142	-47.762	-0.113	0.056
-603.128	-48.628	-0.082	0.040
-602.113	-200.000	-0.014	-0.251
-601.098	-200.000	0.048	0.309
-600.084	209.455	0.036	0.058
-599.069	43.866	-0.129	-0.121
-598.055	-97.197	-0.101	-0.027
-597.040	-169.687	-0.181	-0.007
-596.025	717.642	-0.033	-0.089
-595.011	-200.000	0.014	0.072
-593.996	-200.000	-0.044	-0.318
-592.982	169.352	-0.183	0.266
-591.967	-87.883	-0.126	0.038
-590.952	-22.555	-0.122	-0.075
-589.938	800.000	0.035	0.143
-588.923	51.600	0.077	0.074
-587.909	-107.088	-0.089	0.020
-586.894	-200.000	-0.008	0.082
-585.879	-200.000	0.043	0.276
-584.865	800.000	-0.048	0.182
-583.850	-200.000	0.007	-0.327
-582.836	223.843	0.141	-0.232
-581.821	585.942	-0.098	0.246
-580.806	-90.281	-0.157	0.046
-579.792	-96.137	-0.060	0.016
-578.777	800.000	-0.038	-0.112
-577.763	80.372	0.195	0.213
-576.748	153.003	-0.039	-0.054
-575.733	-200.000	-0.017	-0.092
-574.719	651.186	-0.038	0.099
-573.704	130.662	0.082	-0.107
-572.690	442.690	-0.087	-0.193
-571.675	43.499	-0.114	-0.106
-570.661	5.447	0.155	0.116
-569.646	-200.000	0.002	-0.169
-568.631	-49.175	0.189	-0.092
-567.617	585.724	-0.057	-0.142
-566.602	-200.000	0.031	-0.298
-565.588	-120.472	-0.389	-0.067
-564.573	303.058	-0.104	-0.195
-563.558	23.788	0.178	0.149
-562.544	-75.075	0.221	0.080
-561.529	270.768	-0.096	-0.172
-560.515	-29.606	-0.155	0.090
-559.500	145.512	-0.085	0.115
-558.485	-200.000	-0.000	0.043
-557.471	-113.044	-0.075	-0.015
-556.456	666.271	-0.085	0.222
-555.442	227.513	-0.140	-0.231
-554.427	41.778	0.136	0.126
-553.412	19.993	-0.252	-0.207
-552.398	-200.000	-0.067	-0.320
-551.383	-200.000	0.022	0.126
-550.369	265.010	0.078	0.137
-549.354	230.496	0.058	-0.096
-548.339	639.306	-0.101	-0.262
-547.325	800.000	-0.111	-0.313
-546.310	36.848	-0.173	-0.155
-545.296	286.581	0.084	-0.154
-544.281	327.084	0.087	-0.169
-543.266	-200.000	-0.003	0.055
-542.252	149.356	0.144	0.197
-541.237	-11.901	0.074	0.049
-540.223	-200.000	0.038	-0.313
-539.208	-167.428	-0.354	-0.014
-538.193	-200.000	-0.079	-0.459
-537.179	-133.211	-0.078	-0.010
-536.164	-73.962	-0.401	-0.148
-535.150	-28.865	-0.169	-0.099
-534.135	-109.581	-0.155	-0.033
-533.121	-200.000	0.024	0.172
-532.106	800.000	0.018	-0.062
-531.091	103.465	-0.092	0.109
-530.077	429.727	0.070	-0.153
-529.062	-42.384	-0.260	0.135
-528.048	-22.320	-0.034	-0.021
-527.033	302.060	0.155	-0.290
-526.018	148.403	0.068	0.093
-525.004	130.314	0.105	-0.136
-523.989	280.860	0.237	-0.431
-522.975	60.378	-0.226	0.227
-521.960	190.825	0.123	0.188
-520.945	-99.493	0.106	-0.027
-519.931	-200.000	0.023	-0.180
-518.916	196.977	0.156	-0.241
-517.902	-200.000	0.010	-0.137
-516.887	-200.000	0.005	0.042
-515.872	-87.993	0.196	0.060
-514.858	-110.533	0.158	-0.033
-513.843	-80.778	0.396	-0.133
-512.829	57.898	-0.048	0.048
-511.814	-29.032	0.155	0.090
-510.799	-80.197	-0.252	-0.086
-509.785	-99.618	0.268	0.068
-508.770	800.000	-0.047	0.165
-507.756	-200.000	-0.028	-0.443
-506.741	-122.989	0.315	0.051
-505.726	246.165	0.133	0.227
-504.712	-192.446	0.235	-0.002
-503.697	90.481	-0.179	0.203
-502.683	-8.402	0.332	0.226
-501.668	-17.976	-0.034	0.022
-500.653	-52.406	-0.159	0.074
-499.639	73.247	0.073	-0.078
-498.624	340.561	-0.040	0.080
-497.610	800.000	-0.036	0.107
-496.595	800.000	-0.069	0.283
-495.581	15.212	0.410	-0.326
-494.566	-106.965	-0.237	-0.053
-493.551	-200.000	0.027	-0.275
-492.537	-150.168	0.200	0.016
-491.522	204.638	0.145	-0.228
-490.508	-56.497	0.164	0.074
-489.493	28.329	-0.441	0.377
-488.478	800.000	-0.123	-0.354
-487.464	228.898	-0.078	-0.129
-486.449	-137.445	-0.342	-0.039
-485.435	800.000	0.055	-0.176
-484.420	800.000	-0.099	0.337
-483.405	-155.770	-0.237	0.015
-482.391	800.000	-0.084	-0.371
-481.376	-10.432	0.214	0.144
-480.362	282.515	-0.078	-0.141
-479.347	-99.187	-0.100	0.026
-478.332	154.115	-0.044	-0.061
-477.318	242.089	0.179	0.303
-476.303	-23.239	-0.088	-0.053
-475.289	-147.059	-0.317	-0.027
-474.274	-200.000	-0.031	-0.174
-473.259	235.298	0.196	-0.328
-472.245	-200.000	-0.048	-0.225
-471.230	456.123	0.093	-0.209
-470.216	108.923	0.085	0.103
-469.201	437.488	-0.030	0.065
-468.186	-26.035	0.299	-0.178
-467.172	501.736	-0.064	0.149
-466.157	194.454	-0.147	-0.225
-465.143	-200.000	-0.002	-0.153
-464.128	135.091	-0.133	0.175
-463.113	118.832	-0.117	0.146
-462.099	-70.513	0.324	-0.124
-461.084	126.648	-0.060	-0.077
-460.070	-200.000	0.013	0.057
-459.055	-46.171	-0.223	0.111
-458.040	-134.205	-0.220	0.027
-457.026	-2.382	0.146	-0.103
-456.011	-89.608	-0.054	-0.016
-454.997	-45.571	-0.123	-0.061
-453.982	223.878	-0.049	0.081
-452.968	800.000	0.123	0.345
-451.953	-42.040	-0.036	-0.018
-450.938	800.000	0.033	0.121
-449.924	-24.617	0.140	-0.084
-448.909	-71.847	0.499	0.188
-447.895	741.507	0.035	-0.096
-446.880	-200.000	0.021	0.125
-445.865	-142.774	-0.243	-0.024
-444.851	133.399	-0.054	-0.070
-443.836	-38.496	-0.098	0.052
-442.822	-44.934	0.229	0.115
-441.807	143.638	-0.141	-0.189
-440.792	-200.000	-0.019	-0.086
-439.778	-200.000	0.025	0.156
-438.763	135.712	-0.182	0.240
-437.749	-41.005	-0.131	0.069
-436.734	682.170	-0.082	0.216
-435.719	-200.000	0.000	0.046
-434.705	-23.386	0.293	0.178
-433.690	800.000	0.034	-0.124
-432.676	-96.176	0.100	0.027
-431.661	-10.890	0.073	0.049
-430.646	223.413	0.158	0.257
-429.632	44.848	-0.065	0.060
-428.617	-59.334	-0.167	0.073
-427.603	-56.299	0.250	0.112
-426.588	-200.000	0.034	-0.176
-425.573	230.391	0.116	0.192
-424.559	-200.000	0.030	0.177
-423.544	-22.139	-0.216	0.132
-422.530	-105.744	-0.160	-0.036
-421.515	-200.000	0.000	0.085
-420.500	-200.000	0.009	-0.060
-419.486	-9.286	0.061	-0.041
-418.471	192.451	0.030	0.046
-417.457	226.525	-0.059	-0.096
-416.442	82.089	-0.126	-0.138
-415.428	-200.000	-0.013	0.153
-414.413	-0.478	0.149	0.107
-413.398	-49.743	0.235	0.113
-412.384	235.447	0.124	0.208
-411.369	60.829	0.070	0.070
-410.355	396.905	0.085	0.178
-409.340	540.575	0.044	-0.106
-408.325	-166.793	0.163	-0.007
-407.311	655.899	0.072	-0.186
-406.296	-10.583	-0.140	-0.093
-405.282	-103.666	-0.550	-0.130
-404.267	800.000	0.160	-0.533
-403.252	-97.303	0.291	-0.076
-402.238	-67.370	0.238	0.095
-401.223	58.493	-0.394	0.391
-400.209	-150.436	-0.479	0.037
-399.194	-83.536	-0.154	0.050
-398.179	770.535	-0.085	-0.235
-397.165	-156.493	0.182	-0.011
-396.150	-33.054	-0.255	-0.143
-395.136	140.728	-0.161	0.214
-394.121	-158.539	-0.373	0.022
-393.106	-23.551	0.462	0.280
-392.092	538.655	0.089	0.213
-391.077	800.000	0.086	0.259
-390.063	-118.813	0.038	-0.007
-389.048	-200.000	-0.066	0.296
-388.033	-124.655	0.101	-0.016
-387.019	-143.876	-0.279	-0.027
-386.004	-179.609	-0.046	-0.001
-384.990	199.311	-0.138	-0.213
-383.975	-200.000	0.010	0.084
-382.960	-200.000	0.024	0.165
-381.946	-200.000	0.020	0.180
-380.931	524.059	-0.093	-0.221
-379.917	-89.006	-0.250	0.075
-378.902	502.588	-0.117	0.272
-377.888	-108.951	-0.237	-0.051
-376.873	23.407	-0.206	-0.171
-375.858	800.000	0.088	-0.247
-374.844	800.000	0.074	-0.293
-373.829	95.944	-0.214	0.247
-372.815	-200.000	-0.015	0.149
-371.800	800.000	0.061	0.189
-370.785	678.430	0.165	0.434
-369.771	135.323	0.197	0.258
-368.756	-83.408	0.127	0.041
-367.742	-49.149	0.292	0.141
-366.727	-128.193	0.123	0.018
-365.712	-200.000	-0.011	-0.185
-364.698	-82.251	0.148	0.049
-363.683	800.000	-0.072	-0.222
-362.669	158.799	-0.106	-0.148
-361.654	446.648	-0.025	-0.054
-360.639	-92.229	-0.271	-0.077
-359.625	-102.840	-0.426	-0.102
-358.610	-62.410	0.175	0.073
-357.596	188.027	-0.174	-0.262
-356.581	-200.000	-0.003	0.209
-355.566	797.785	-0.164	0.456
-354.552	800.000	-0.059	-0.184
-353.537	-134.679	0.135	-0.017
-352.523	-200.000	0.009	-0.129
-351.508	-121.373	-0.161	-0.027
-350.493	95.248	-0.133	-0.153
-349.479	-200.000	0.003	-0.084
-348.464	-85.087	0.351	-0.111
-347.450	-1.745	0.073	-0.052
-346.435	-116.755	0.091	-0.017
-345.420	-16.802	0.239	-0.152
-344.406	151.297	0.020	-0.028
-343.391	-32.027	-0.017	-0.009
-342.377	-149.338	0.381	-0.031
-341.362	800.000	-0.061	-0.197
-340.348	-64.738	-0.214	0.087
-339.333	-11.740	0.108	0.071
-338.318	-52.407	0.164	-0.076
-337.304	-129.887	0.141	0.019
-336.289	-41.728	0.304	0.157
-335.275	195.166	-0.122	-0.186
-334.260	800.000	0.038	0.129
-333.245	-200.000	0.002	0.024
-332.231	800.000	-0.069	-0.301
-331.216	-125.449	0.263	0.040
-330.202	-29.395	-0.129	0.074
-329.187	54.977	0.299	-0.290
-328.172	-97.459	-0.109	-0.029
-327.158	-28.614	0.373	-0.216
-326.143	10.349	-0.267	-0.204
-325.129	-73.253	-0.225	-0.083
-324.114	-200.000	0.005	-0.033
-323.099	-24.287	0.245	-0.147
-322.085	666.514	-0.036	0.093
-321.070	-106.333	-0.364	-0.082
-320.056	-54.694	0.065	0.029
-319.041	301.574	0.054	-0.100
-318.026	-52.037	0.248	-0.116
-317.012	-136.400	0.119	0.014
-315.997	625.289	0.060	-0.152
-314.983	-200.000	0.049	-0.266
-313.968	-200.000	-0.020	-0.099
-312.953	88.298	-0.049	-0.054
-311.939	240.716	-0.144	-0.242
-310.924	201.979	0.073	0.114
-309.910	-44.172	0.287	-0.145
-308.895	-116.069	-0.312	-0.058
-307.880	-89.300	-0.163	0.048
-306.866	270.955	0.178	0.316
-305.851	-88.805	-0.416	-0.124
-304.837	49.895	-0.139	0.131
-303.822	-93.227	0.210	0.059
-302.807	-3.965	0.184	0.128
-301.793	273.320	-0.104	0.184
-300.778	250.463	0.149	0.254
-299.764	-200.000	0.045	0.231
-298.749	354.513	-0.145	-0.289
-297.735	800.000	0.069	-0.272
-296.720	800.000	0.009	-0.031
-295.705	-125.517	-0.174	0.027
-294.691	-111.489	0.262	-0.054
-293.676	-49.154	-0.181	0.087
-292.662	-10.767	0.032	0.021
-291.647	290.478	-0.182	-0.333
-290.632	-177.620	-0.220	0.005
-289.618	43.310	-0.326	0.299
-288.603	269.556	0.186	0.329
-287.589	175.980	0.129	-0.188
-286.574	-35.608	0.038	-0.021
-285.559	-200.000	0.003	-0.148
-284.545	-36.556	-0.121	-0.066
-283.530	73.444	0.209	-0.220
-282.516	76.816	-0.071	0.076
-281.501	168.251	0.139	-0.199
-280.486	-25.337	-0.512	0.304
-279.472	-7.438	-0.159	0.108
-278.457	-56.180	0.242	-0.108
-277.443	-200.000	-0.048	-0.292
-276.428	663.746	0.116	0.300
-275.413	-50.430	-0.168	0.080
-274.399	-109.614	-0.177	-0.038
-273.384	-200.000	0.024	0.182
-272.370	418.412	0.029	0.061
-271.355	-200.000	0.033	0.311
-270.340	-46.369	0.467	0.230
-269.326	-150.175	0.309	-0.024
-268.311	262.977	-0.092	-0.161
-267.297	-189.906	0.340	0.004
-266.282	-33.480	-0.123	0.068
-265.267	-200.000	0.023	0.315
-264.253	-200.000	-0.016	-0.241
-263.238	-200.000	0.002	-0.185
-262.224	-134.904	-0.270	-0.033
-261.209	561.469	0.156	-0.379
-260.195	164.998	0.089	0.125
-259.180	800.000	-0.092	-0.370
-258.165	330.654	-0.138	-0.267
-257.151	-200.000	-0.100	0.445
-256.136	27.454	0.241	-0.203
-255.122	93.768	-0.130	-0.148
-254.107	25.720	-0.189	0.158
-253.092	63.997	0.339	-0.342
-252.078	800.000	-0.065	-0.252
-251.063	33.778	-0.085	0.074
-250.049	294.017	0.142	0.260
-249.034	800.000	0.111	0.420
-248.019	-145.668	0.202	0.018
-247.005	345.454	0.121	-0.238
-245.990	-128.793	0.209	0.030
-244.976	269.623	0.102	-0.180
-243.961	99.117	0.071	0.082
-242.946	-116.904	-0.334	0.061
-241.932	466.031	-0.022	0.049
-240.917	568.900	0.117	-0.285
-239.903	-200.000	0.017	0.092
-238.888	166.046	-0.127	-0.181
-237.873	-7.927	-0.052	0.035
-236.859	-138.397	0.278	0.031
-235.844	127.554	0.079	-0.101
-234.830	13.725	0.167	-0.130
-233.815	-200.000	0.006	-0.095
-232.800	-68.410	0.346	-0.135
-231.786	-173.774	-0.354	0.011
-230.771	197.096	-0.047	-0.071
-229.757	1.703	-0.087	0.063
-228.742	-200.000	-0.016	0.288
-227.727	-81.015	0.175	0.058
-226.713	-53.998	-0.227	-0.104
-225.698	30.855	-0.151	-0.129
-224.684	295.517	0.104	0.191
-223.669	-45.691	0.080	-0.040
-222.655	542.301	0.147	-0.352
-221.640	-129.560	-0.311	0.043
-220.625	800.000	0.044	0.132
-219.611	-167.919	-0.166	-0.007
-218.596	44.253	-0.069	0.064
-217.582	-118.238	0.425	0.076
-216.567	-200.000	0.047	0.253
-215.552	-200.000	0.023	0.394
-214.538	-200.000	0.009	-0.065
-213.523	82.545	-0.188	-0.205
-212.509	3.711	0.182	-0.133
-211.494	800.000	0.016	0.053
-210.479	800.000	0.070	0.263
-209.465	-11.014	-0.015	0.010
-208.450	-200.000	0.009	-0.062
-207.436	24.371	0.055	-0.045
-206.421	662.123	-0.171	-0.442
-205.406	179.731	-0.254	-0.373
-204.392	3.965	-0.093	0.068
-203.377	-14.683	0.124	-0.080
-202.363	154.054	0.054	0.073
-201.348	-200.000	-0.061	-0.296
-200.333	79.522	0.141	0.151
-199.319	800.000	-0.156	0.436
-198.304	-66.738	0.720	0.285
-197.290	-134.017	-0.307	0.038
-196.275	800.000	-0.103	0.304
-195.260	-146.851	-0.305	0.026
-194.246	-200.000	-0.059	-0.300
-193.231	800.000	0.064	0.246
-192.217	-200.000	0.072	0.419
-191.202	800.000	-0.045	0.171
-190.187	98.646	0.061	0.071
-189.173	1.159	0.163	-0.117
-188.158	16.922	-0.061	-0.049
-187.144	315.552	-0.073	-0.138
-186.129	92.388	0.201	0.227
-185.114	-146.937	0.326	0.028
-184.100	800.000	0.078	-0.228
-183.085	-67.605	0.454	0.178
-182.071	19.115	0.048	-0.038
-181.056	-200.000	0.012	-0.330
-180.042	-34.137	-0.160	0.088
-179.027	-19.588	0.423	0.262
-178.012	800.000	-0.055	0.161
-176.998	60.197	0.129	0.127
-175.983	77.723	-0.284	0.303
-174.969	-115.284	-0.255	0.048
-173.954	78.141	-0.063	-0.067
-172.939	-59.499	-0.153	-0.066
-171.925	-102.350	-0.108	-0.026
-170.910	-150.123	-0.409	0.032
-169.896	-28.802	0.205	0.118
-168.881	89.085	0.052	0.058
-167.866	-126.373	0.115	-0.017
-166.852	31.416	-0.180	-0.155
-165.837	-200.000	0.003	0.115
-164.823	679.934	-0.023	0.061
-163.808	602.790	-0.059	0.146
-162.793	596.903	0.033	-0.083
-161.779	-200.000	0.001	0.072
-160.764	800.000	0.032	0.103
-159.750	162.764	0.146	0.205
-158.735	-165.794	0.190	0.008
-157.720	-200.000	-0.016	-0.082
-156.706	244.063	0.032	-0.054
-155.691	-124.824	0.272	-0.042
-154.677	279.889	-0.120	-0.214
-153.662	15.317	-0.090	-0.070
-152.647	-9.001	0.228	0.152
-151.633	-200.000	0.027	0.162
-150.618	-200.000	0.038	0.443
-149.604	-200.000	-0.047	-0.371
-148.589	800.000	0.107	0.344
-147.574	700.795	-0.085	0.225
-146.560	-7.366	0.165	-0.111
-145.545	-89.258	-0.111	0.033
-144.531	26.232	0.294	0.245
-143.516	-112.287	0.070	0.014
-142.502	800.000	0.077	0.304
-141.487	-142.152	0.240	0.024
-140.472	-139.411	0.058	0.006
-139.458	-117.490	0.296	0.053
-138.443	-60.668	0.162	0.069
-137.429	204.189	-0.110	-0.170
-136.414	-200.000	-0.006	-0.052
-135.399	195.419	0.209	0.317
-134.385	-95.342	0.032	-0.009
-133.370	-36.444	0.331	-0.178
-132.356	-96.271	0.165	0.044
-131.341	595.841	-0.055	0.136
-130.326	778.853	0.062	-0.169
-129.312	-200.000	0.053	-0.287
-128.297	800.000	-0.036	0.102
-127.283	-200.000	0.024	-0.228
-126.268	-196.207	-0.110	0.001
-125.253	-70.013	-0.044	-0.017
-124.239	64.745	-0.259	0.261
-123.224	-58.300	0.080	-0.035
-122.210	138.644	-0.085	0.112
-121.195	-154.638	-0.373	-0.025
-120.180	-200.000	0.031	-0.138
-119.166	148.511	0.011	0.015
-118.151	-26.099	0.169	-0.099
-117.137	-12.396	0.047	-0.031
-116.122	-200.000	0.027	0.300
-115.107	-109.275	0.258	0.055
-114.093	-79.360	-0.343	-0.116
-113.078	312.427	-0.062	0.117
-112.064	-127.776	0.162	0.023
-111.049	779.625	0.077	0.210
-110.034	170.180	-0.050	0.071
-109.020	-152.715	-0.113	-0.008
-108.005	-200.000	0.431	-0.002
-106.991	-53.809	-0.325	0.148
-105.976	751.994	-0.053	0.142
-104.962	-200.000	0.003	0.198
-103.947	0.860	-0.463	-0.331
-102.932	6.772	-0.028	-0.021
-101.918	387.961	0.071	0.147
-100.903	-62.383	-0.109	-0.045
-99.889	-94.021	0.142	-0.039
-98.874	-200.000	0.002	-0.051
-97.859	-200.000	0.052	-0.437
-96.845	0.169	0.082	-0.059
-95.830	-200.000	0.049	0.281
-94.816	19.665	0.232	0.186
-93.801	48.200	0.138	-0.129
-92.786	63.188	0.251	0.251
-91.772	800.000	-0.020	0.064
-90.757	-29.040	0.211	0.121
-89.743	109.564	0.139	-0.166
-88.728	184.028	0.267	-0.394
-87.713	800.000	-0.021	-0.087
-86.699	100.733	0.240	-0.278
-85.684	-172.276	0.396	0.013
-84.670	-81.243	0.132	-0.043
-83.655	776.920	-0.021	0.058
-82.640	-200.000	-0.013	-0.191
-81.626	-170.467	-0.141	0.005
-80.611	800.000	0.024	0.067
-79.597	-92.359	-0.138	-0.039
-78.582	-51.020	-0.059	-0.027
-77.567	-140.118	-0.221	0.023
-76.553	286.690	-0.126	-0.227
-75.538	348.030	0.110	0.217
-74.524	-95.984	-0.128	0.034
-73.509	-158.739	0.245	0.014
-72.494	-120.801	-0.096	-0.016
-71.480	-96.592	-0.088	-0.023
-70.465	-200.000	0.022	0.181
-69.451	800.000	-0.043	0.143
-68.436	-1.422	-0.115	-0.081
-67.422	-200.000	0.026	-0.169
-66.407	800.000	-0.094	0.303
-65.392	7.156	0.216	0.160
-64.378	69.968	-0.056	-0.058
-63.363	-20.742	0.291	0.178
-62.349	-199.439	0.457	0.002
-61.334	29.333	-0.962	-0.814
-60.319	-200.000	-0.006	0.307
-59.305	-200.000	-0.019	-0.451
-58.290	74.019	0.817	0.854
-57.276	800.000	0.523	1.619
-56.261	-200.000	78.158	510.371
-55.246	510.416	1333.520	3088.164
-54.232	148.235	2557.321	3436.199
-53.217	114.517	2224.314	2697.680
-52.203	51.390	1678.543	1587.009
-51.188	43.676	1407.408	1281.982
-50.173	40.326	1362.158	1220.126
-49.159	58.345	1398.737	1365.412
-48.144	64.717	1417.829	1423.624
-47.130	44.220	1379.340	1259.596
-46.115	40.327	1363.245	1220.910
-45.100	39.991	1358.746	1214.768
-44.086	39.978	1355.825	1212.030
-43.071	40.010	1354.044	1210.580
-42.057	39.943	1351.493	1207.842
-41.042	39.935	1349.756	1206.196
-40.027	40.093	1348.352	1205.860
-39.013	40.101	1346.450	1204.156
-37.998	40.060	1343.999	1201.667
-36.984	40.016	1342.986	1200.445
-35.969	40.050	1341.137	1198.953
-34.954	40.182	1339.104	1197.890
-33.940	40.180	1337.507	1196.399
-32.925	40.252	1336.419	1195.815
-31.911	40.234	1335.301	1194.656
-30.896	40.190	1333.527	1192.756
-29.881	40.229	1332.221	1191.775
-28.867	40.241	1330.389	1190.163
-27.852	40.290	1329.282	1189.419
-26.838	40.190	1327.736	1187.390
-25.823	40.211	1326.227	1186.115
-24.809	40.120	1325.287	1184.686
-23.794	40.295	1323.287	1183.896
-22.779	40.215	1322.119	1182.329
-21.765	40.168	1321.049	1181.043
-20.750	40.224	1319.092	1179.577
-19.736	40.079	1318.127	1177.806
-18.721	40.038	1316.506	1176.067
-17.706	40.077	1315.682	1175.520
-16.692	40.088	1314.421	1174.408
-15.677	40.118	1313.089	1173.352
-14.663	40.097	1312.384	1172.551
-13.648	40.108	1311.247	1171.552
-12.633	40.033	1310.222	1170.146
-11.619	39.961	1309.504	1169.031
-10.604	40.143	1307.902	1168.630
-9.590	40.012	1307.277	1167.250
-8.575	40.084	1306.380	1166.829
-7.560	40.066	1305.177	1165.604
-6.546	40.074	1304.206	1164.737
-5.531	40.077	1304.011	1164.533
-4.517	40.123	1302.885	1163.755
-3.502	40.134	1301.940	1162.925
-2.487	40.147	1300.852	1161.984
-1.473	40.118	1296.873	1158.214
-0.458	38.742	1281.408	1136.392
0.556	35.011	1261.655	1092.583
1.571	30.908	1265.386	1072.167
2.586	29.767	1280.869	1078.538
3.600	28.543	1269.533	1061.820
4.615	20.776	1192.579	954.945
5.629	8.496	1108.268	824.383
6.644	2.763	1084.146	777.385
7.659	2.297	1081.275	772.900
8.673	2.029	1079.486	770.205
9.688	1.974	1078.285	768.997
10.702	2.443	1077.105	770.451
11.717	9.262	1087.452	812.346
12.731	20.363	1103.609	880.983
13.746	25.405	1109.132	910.953
14.761	25.630	1110.012	912.739
15.775	25.599	1109.288	911.905
16.790	25.432	1108.562	910.383
17.804	25.394	1107.509	909.242
18.819	25.418	1107.313	909.123
19.834	25.568	1106.933	909.489
20.848	25.592	1106.215	908.943
21.863	25.631	1105.615	908.564
22.877	25.576	1105.261	907.914
23.892	25.666	1103.941	907.204
24.907	25.469	1104.065	906.232
25.921	25.594	1102.596	905.578
26.936	25.483	1100.877	903.526
27.950	25.441	1099.702	902.271
28.965	25.439	1098.024	900.806
29.980	25.420	1096.565	899.434
30.994	25.705	1095.351	899.782
32.009	25.647	1094.283	898.536
33.023	25.348	1093.473	896.301
34.038	25.429	1092.568	895.883
35.053	25.611	1092.043	896.282
36.067	25.654	1090.760	895.360
37.082	25.686	1090.479	895.213
38.096	25.824	1089.740	895.209
39.111	25.914	1088.784	894.794
40.126	25.779	1087.526	893.010
41.140	25.491	1085.582	889.912
42.155	25.057	1084.459	886.763
43.169	25.082	1083.605	886.111
44.184	25.236	1082.663	886.023
45.199	25.177	1081.311	884.546
46.213	25.161	1080.544	883.762
47.228	25.445	1080.101	884.720
48.242	25.528	1078.801	883.983
49.257	25.557	1078.138	883.505
50.271	25.546	1078.130	883.365
51.286	25.711	1076.639	882.875
52.301	25.604	1075.966	881.723
53.315	25.436	1075.160	880.159
54.330	25.445	1073.864	879.066
55.344	25.441	1073.243	878.458
56.359	25.531	1072.006	877.808
57.374	25.229	1071.575	875.903
58.388	25.234	1070.684	875.122
59.403	25.170	1070.054	874.218
60.417	25.018	1068.943	872.495
61.432	25.261	1068.129	872.936
62.447	25.236	1067.634	872.330
63.461	25.273	1067.208	872.084
64.476	25.327	1065.746	871.078
65.490	25.138	1064.764	869.281
66.505	25.265	1064.326	869.459
67.520	25.467	1063.370	869.580
68.534	25.080	1062.614	867.015
69.549	24.833	1061.361	864.721
70.563	24.781	1060.758	863.902
71.578	24.785	1060.118	863.326
72.593	24.559	1058.895	861.164
73.607	24.822	1058.286	861.859
74.622	25.023	1058.258	862.724
75.636	25.070	1057.603	862.341
76.651	24.891	1056.421	860.440
77.666	24.816	1055.626	859.358
78.680	25.017	1054.841	859.606
79.695	24.960	1054.164	858.705
80.709	25.054	1053.551	858.580
81.724	25.117	1052.886	858.264
82.739	25.103	1052.088	857.474
83.753	25.517	1051.370	858.787
84.768	25.828	1050.853	859.774
85.782	26.005	1049.879	859.748
86.797	25.835	1048.772	857.956
87.812	25.678	1047.761	856.305
88.826	25.687	1046.952	855.608
89.841	25.810	1046.223	855.522
90.855	25.838	1045.287	854.815
91.870	25.772	1044.627	853.885
92.884	25.669	1043.241	852.191
93.899	25.739	1041.989	851.426
94.914	25.682	1041.561	850.731
95.928	25.638	1040.611	849.671
96.943	25.524	1038.772	847.556
97.957	25.013	1038.252	844.647
98.972	25.059	1036.786	843.599
99.987	25.215	1036.395	843.937
101.001	25.529	1035.558	844.659
102.016	25.453	1034.723	843.546
103.030	25.332	1034.080	842.378
104.045	25.413	1032.566	841.453
105.060	25.239	1031.552	839.737
106.074	25.220	1030.961	839.091
107.089	25.623	1030.505	840.529
108.103	25.545	1029.137	838.974
109.118	25.209	1028.210	836.580
110.133	25.235	1027.132	835.749
111.147	25.089	1025.858	833.960
112.162	24.931	1025.282	832.681
113.176	25.262	1024.762	833.722
114.191	25.059	1024.129	832.194
115.206	24.839	1022.339	829.644
116.220	24.804	1021.571	828.787
117.235	24.992	1021.116	829.214
118.249	24.952	1020.032	828.077
119.264	24.815	1019.635	827.048
120.279	24.892	1018.778	826.633
121.293	24.951	1018.071	826.257
122.308	24.888	1017.718	825.609
123.322	24.883	1015.779	823.942
124.337	24.609	1015.133	822.083
125.352	24.263	1013.418	819.032
126.366	24.266	1011.893	817.743
127.381	24.961	1012.327	821.208
128.395	25.498	1011.912	823.260
129.410	25.535	1010.911	822.540
130.424	25.496	1009.822	821.403
131.439	25.449	1008.862	820.335
132.454	25.419	1008.074	819.485
133.468	25.550	1007.059	819.185
134.483	25.456	1007.041	818.668
135.497	25.737	1006.086	819.098
136.512	25.808	1005.183	818.613
137.527	25.883	1004.292	818.157
138.541	25.768	1003.781	817.144
139.556	25.602	1002.827	815.543
140.570	25.828	1002.134	815.934
141.585	25.748	1001.017	814.589
142.600	25.915	999.749	814.241
143.614	26.078	999.124	814.396
144.629	26.198	998.500	814.353
145.643	25.996	997.312	812.402
146.658	25.819	995.725	810.242
147.673	25.741	994.482	808.808
148.687	25.537	993.851	807.308
149.702	25.500	992.954	806.341
150.716	25.432	991.599	804.865
151.731	25.600	991.525	805.489
152.746	25.636	991.098	805.231
153.760	25.890	989.935	805.349
154.775	25.890	989.575	804.984
155.789	25.842	988.451	803.785
156.804	25.851	987.478	802.964
157.819	25.945	986.524	802.538
158.833	25.918	986.143	802.032
159.848	26.088	984.919	801.721
160.862	25.844	983.993	799.818
161.877	25.980	982.548	799.171
162.892	25.831	982.149	798.119
163.906	25.672	981.072	796.466
164.921	25.899	979.761	796.337
165.935	25.867	978.765	795.316
166.950	25.847	978.001	794.537
167.964	25.852	977.086	793.746
168.979	25.709	976.127	792.267
169.994	25.662	974.875	790.975
171.008	25.887	974.575	791.646
172.023	25.883	973.568	790.743
173.037	25.731	972.388	789.049
174.052	25.517	971.551	787.364
175.067	25.669	970.755	787.314
176.081	25.679	970.620	787.176
177.096	25.547	970.124	786.127
178.110	25.403	968.798	784.353
179.125	25.123	968.364	782.713
180.140	25.366	967.735	783.192
181.154	25.324	967.548	782.788
182.169	25.656	967.366	784.020
183.183	25.859	967.189	784.694
184.198	25.720	966.090	783.125
185.213	25.836	964.848	782.555
186.227	25.933	964.364	782.513
187.242	25.835	963.867	781.616
188.256	25.837	963.703	781.423
189.271	25.953	962.986	781.276
190.286	25.738	961.274	778.889
191.300	24.976	960.161	774.621
192.315	24.155	958.237	769.455
193.329	24.117	957.711	768.803
194.344	24.991	958.402	773.061
195.359	25.764	958.114	776.092
196.373	25.839	957.685	776.000
197.388	25.755	956.920	774.952
198.402	25.648	956.741	774.277
199.417	25.637	956.225	773.744
200.432	25.468	955.075	772.018
201.446	25.323	954.176	770.603
202.461	25.424	953.491	770.416
203.475	24.610	951.838	765.523
204.490	23.671	950.819	760.616
205.504	24.641	950.843	764.719
206.519	25.214	950.877	767.130
207.534	25.461	950.036	767.439
208.548	25.896	950.004	769.203
209.563	25.598	948.766	766.864
210.577	25.538	948.376	766.225
211.592	25.956	948.572	768.094
212.607	26.092	946.814	767.181
213.621	25.980	946.436	766.332
214.636	25.975	945.946	765.848
215.650	25.969	945.077	765.050
216.665	25.828	944.838	764.192
217.680	26.031	943.899	764.224
218.694	25.514	942.981	761.225
219.709	25.191	942.788	759.633
220.723	25.560	941.577	760.152
221.738	25.755	941.205	760.605
222.753	25.673	940.702	759.787
223.767	25.795	939.945	759.622
224.782	26.069	939.763	760.565
225.796	25.996	939.461	759.946
226.811	25.417	937.414	755.788
227.826	24.874	935.933	752.244
228.840	24.759	935.989	751.738
229.855	24.941	935.153	751.766
230.869	24.437	934.049	748.697
231.884	24.966	934.257	751.015
232.899	25.725	933.996	753.919
233.913	25.638	933.352	752.971
234.928	25.599	933.008	752.464
235.942	25.595	932.414	751.900
236.957	25.409	931.413	750.248
237.972	25.284	930.719	749.102
238.986	25.372	930.226	749.008
240.001	25.441	929.491	748.637
241.015	25.559	929.531	749.093
242.030	25.731	928.484	748.897
243.045	25.832	928.029	748.885
244.059	26.012	927.907	749.470
245.074	25.585	926.864	746.786
246.088	25.321	926.085	744.999
247.103	25.690	925.449	745.949
248.117	26.180	926.133	748.468
249.132	26.435	925.609	749.032
250.147	26.502	924.882	748.657
251.161	26.464	925.056	748.573
252.176	26.615	923.920	748.213
253.190	26.733	922.919	747.822
254.205	26.802	922.648	747.823
255.220	26.829	921.982	747.328
256.234	26.680	921.395	746.172
257.249	26.571	920.388	744.840
258.263	26.518	919.854	744.124
259.278	26.656	919.246	744.135
260.293	26.687	918.601	743.674
261.307	26.697	917.845	743.037
262.322	26.606	917.029	741.940
263.336	25.702	915.512	736.946
264.351	24.751	913.042	731.008
265.366	24.687	912.891	730.560
266.380	25.844	913.795	735.948
267.395	26.346	913.128	737.395
268.409	26.165	912.820	736.342
269.424	26.318	912.199	736.399
270.439	26.431	911.239	736.018
271.453	26.530	910.842	736.034
272.468	26.667	910.795	736.493
273.482	26.657	910.498	736.144
274.497	26.338	908.838	733.441
275.512	26.039	907.413	731.018
276.526	26.339	907.898	732.558
277.541	26.353	907.734	732.417
278.555	26.228	906.262	730.660
279.570	26.048	906.098	729.736
280.585	26.326	905.240	730.104
281.599	26.197	904.429	728.862
282.614	25.712	902.978	725.675
283.628	25.713	902.697	725.389
284.643	26.089	902.159	726.407
285.657	25.690	901.308	724.051
286.672	25.298	900.775	721.983
287.687	25.972	900.430	724.353
288.701	26.004	900.209	724.238
289.716	25.769	898.539	721.888
290.730	25.655	898.400	721.257
291.745	25.366	897.478	719.294
292.760	25.685	897.458	720.493
293.774	26.652	897.784	724.560
294.789	26.910	897.556	725.344
295.803	26.974	896.948	725.043
296.818	27.126	896.432	725.170
297.833	26.668	894.784	721.947
298.847	26.451	894.481	720.775
299.862	26.728	894.453	721.790
300.876	27.104	894.021	722.874
301.891	27.042	892.731	721.521
302.906	26.537	892.131	718.969
303.920	26.610	891.647	718.803
304.935	27.038	891.623	720.419
305.949	26.877	891.157	719.343
306.964	26.710	890.157	717.807
307.979	26.677	889.575	717.144
308.993	27.068	889.506	718.573
310.008	27.021	889.142	718.030
311.022	26.953	887.456	716.337
312.037	26.783	886.979	715.216
313.052	26.471	886.051	713.178
314.066	25.504	884.588	708.130
315.081	25.250	884.046	706.631
316.095	26.147	884.006	710.067
317.110	26.642	883.921	711.882
318.125	25.815	882.470	707.403
319.139	24.725	880.936	701.837
320.154	24.667	880.400	701.121
321.168	25.621	880.924	705.215
322.183	26.410	880.820	708.163
323.197	26.445	880.975	708.363
324.212	26.767	880.681	709.323
325.227	26.705	880.351	708.751
326.241	26.654	879.570	707.860
327.256	26.380	878.759	706.075
328.270	26.406	878.027	705.525
329.285	26.287	876.803	704.015
330.300	26.113	876.209	702.798
331.314	26.161	876.001	702.759
332.329	26.755	875.570	704.660
333.343	26.895	875.365	704.975
334.358	26.972	875.032	704.946
335.373	26.894	874.765	704.364
336.387	27.258	874.770	705.719
337.402	27.284	874.503	705.541
338.416	27.258	873.877	704.874
339.431	27.327	873.812	705.028
340.446	27.485	873.676	705.465
341.460	27.331	873.283	704.489
342.475	27.128	872.185	702.755
343.489	27.249	872.047	703.051
344.504	27.659	871.654	704.255
345.519	27.704	871.759	704.452
346.533	27.788	870.559	703.744
347.548	27.641	870.218	702.839
348.562	27.624	869.752	702.335
349.577	27.676	868.886	701.774
350.592	27.614	868.210	700.927
351.606	27.470	867.810	699.990
352.621	27.587	866.496	699.317
353.635	27.298	866.091	697.819
354.650	26.694	864.602	694.244
355.665	25.860	862.662	689.435
356.679	26.257	862.648	690.883
357.694	26.636	862.698	692.311
358.708	26.573	861.731	691.233
359.723	26.766	862.626	692.628
360.738	27.224	861.547	693.448
361.752	27.345	860.989	693.398
362.767	27.646	860.581	694.152
363.781	27.919	860.576	695.127
364.796	27.907	860.391	694.871
365.810	28.098	859.811	695.067
366.825	28.102	859.191	694.518
367.840	27.679	858.513	692.305
368.854	27.253	857.313	689.658
369.869	27.463	856.690	689.892
370.883	27.363	856.440	689.251
371.898	27.270	855.824	688.344
372.913	27.458	855.912	689.067
373.927	27.575	855.014	688.724
374.942	27.718	854.639	688.900
375.956	27.885	854.002	688.956
376.971	27.804	854.457	688.956
377.986	27.916	854.402	689.274
379.000	27.959	852.953	688.204
380.015	27.719	852.431	686.821
381.029	27.774	852.056	686.664
382.044	28.034	851.351	687.012
383.059	28.068	850.309	686.240
384.073	27.996	850.214	685.832
385.088	28.010	849.556	685.293
386.102	27.672	848.481	683.098
387.117	27.735	848.102	682.967
388.132	27.279	847.131	680.422
389.146	26.836	845.801	677.637
390.161	27.290	845.938	679.382
391.175	27.699	845.696	680.655
392.190	27.452	844.647	678.830
393.205	25.982	842.727	671.755
394.219	24.596	840.532	664.794
395.234	24.336	840.384	663.649
396.248	25.901	842.205	670.861
397.263	27.498	842.857	677.262
398.278	27.507	842.390	676.862
399.292	27.268	841.588	675.270
400.307	27.196	841.339	674.742
401.321	27.371	841.069	675.115
402.336	27.624	840.999	675.937
403.350	28.113	840.819	677.544
404.365	28.236	840.864	677.976
405.380	28.723	840.101	679.104
406.394	28.877	839.595	679.205
407.409	28.701	839.037	678.042
408.423	28.594	838.975	677.536
409.438	28.615	838.219	676.945
410.453	28.737	837.732	676.942
411.467	28.722	837.040	676.265
412.482	28.598	836.899	675.635
413.496	28.772	836.658	676.023
414.511	28.645	836.418	675.302
415.526	28.704	835.684	674.864
416.540	28.673	834.631	673.841
417.555	28.282	834.276	672.062
418.569	28.391	833.899	672.098
419.584	28.416	833.057	671.450
420.599	28.186	832.650	670.221
421.613	96.708	1271.221	1388.141
422.628	83.710	1335.134	1388.280
