DTS Sentinel unit serial number:	SN413079Multiplexer serial number:	ORYXHardware model number:	OX4-SRSoftware version number:	ORYX F/W v4.00 Oryx Data Collector v3.7.2.0data status	okinstallation	princeton_trtdifferential loss correction	single-endedforward channel	channel 1reverse channel	N/Adate	2019/09/15time	09:14:35forward acquisition time	60.00reverse acquisition time	0.00gamma	496.2192k internal	0.2313k external	0.2313temperature offset calibration	0.9986default loss term (dB/km)	0.3790temperature slope calibration	1.0000multiplexer offset coefficient	1.0000multiplexer slope coefficient	1.0000fibre end	0.00T internal ref (°C)	33.25T ext. ref 1 (°C)	4.97T ext. ref 2 (°C)	30.39length (m)	temperature (°C)	Stokes	anti-Stokes-747.200	-103.204	0.211	0.051
-746.185	-200.000	0.042	0.322
-745.171	-71.445	-0.180	-0.068
-744.156	-126.196	-0.264	0.040
-743.142	-200.000	0.063	0.404
-742.127	-3.404	-0.021	-0.015
-741.112	-118.786	0.134	-0.024
-740.098	-82.740	-0.460	0.151
-739.083	110.043	-0.071	-0.087
-738.069	419.492	0.099	0.214
-737.054	74.154	-0.021	-0.023
-736.039	-120.870	-0.229	-0.039
-735.025	544.925	-0.059	-0.144
-734.010	-200.000	0.014	-0.136
-732.996	-53.896	0.233	-0.108
-731.981	-200.000	0.035	-0.290
-730.966	-122.706	-0.063	0.010
-729.952	800.000	-0.051	0.160
-728.937	800.000	-0.031	0.093
-727.923	415.466	-0.106	-0.228
-726.908	4.159	0.222	0.165
-725.894	-108.743	-0.393	-0.085
-724.879	21.803	-0.194	-0.160
-723.864	-172.816	0.299	-0.009
-722.850	254.211	0.138	-0.239
-721.835	-200.000	0.016	-0.170
-720.821	116.662	-0.254	-0.316
-719.806	-200.000	0.032	-0.173
-718.791	-46.870	-0.054	0.027
-717.777	-195.883	-0.032	-0.000
-716.762	-174.286	0.149	0.004
-715.748	800.000	-0.123	-0.356
-714.733	45.530	-0.149	-0.140
-713.718	429.013	-0.160	-0.350
-712.704	-154.033	0.193	-0.013
-711.689	244.034	0.115	0.196
-710.675	-63.949	0.111	0.046
-709.660	370.969	0.118	0.243
-708.645	-200.000	-0.004	0.312
-707.631	239.877	0.172	-0.291
-706.616	-39.892	0.124	-0.066
-705.602	31.750	-0.325	-0.283
-704.587	-200.000	-0.010	-0.053
-703.572	-200.000	-0.036	0.192
-702.558	800.000	-0.066	-0.258
-701.543	800.000	-0.080	0.268
-700.529	-63.017	-0.352	0.147
-699.514	-156.225	0.125	0.008
-698.499	527.870	0.097	-0.231
-697.485	43.909	-0.180	0.167
-696.470	0.172	0.095	-0.068
-695.456	5.077	-0.364	-0.271
-694.441	180.973	-0.170	-0.253
-693.426	800.000	-0.103	-0.369
-692.412	345.317	-0.141	-0.280
-691.397	538.067	-0.108	0.259
-690.383	47.809	0.128	-0.121
-689.368	-2.111	0.158	0.112
-688.354	-152.636	-0.229	0.017
-687.339	23.097	-0.071	-0.059
-686.324	156.474	-0.051	-0.071
-685.310	484.965	-0.129	0.297
-684.295	232.960	0.053	-0.089
-683.281	-200.000	-0.048	-0.298
-682.266	42.118	-0.384	-0.352
-681.251	260.344	-0.111	0.194
-680.237	40.445	0.127	-0.116
-679.222	-46.422	0.068	-0.034
-678.208	321.969	-0.090	-0.173
-677.193	30.078	-0.249	-0.215
-676.178	-200.000	-0.050	0.224
-675.164	179.454	0.090	0.134
-674.149	-78.669	-0.244	-0.084
-673.135	429.715	0.042	-0.093
-672.120	-58.192	-0.557	-0.245
-671.105	-79.803	-0.016	0.005
-670.091	800.000	0.039	0.156
-669.076	-117.381	-0.226	-0.041
-668.062	-141.606	0.066	-0.007
-667.047	-80.701	0.121	0.041
-666.032	-200.000	-0.037	-0.494
-665.018	-200.000	-0.031	-0.279
-664.003	800.000	-0.085	0.344
-662.989	-88.301	-0.305	0.092
-661.974	-5.608	-0.269	0.186
-660.959	403.731	-0.071	0.151
-659.945	-135.410	-0.095	-0.012
-658.930	253.507	0.089	-0.153
-657.916	-200.000	0.025	-0.138
-656.901	-82.701	-0.062	0.020
-655.886	144.785	0.101	-0.136
-654.872	692.896	0.041	0.109
-653.857	800.000	-0.076	0.234
-652.843	-200.000	-0.007	-0.287
-651.828	-200.000	0.051	0.318
-650.814	328.843	-0.130	0.252
-649.799	590.772	0.102	-0.253
-648.784	96.888	-0.044	-0.051
-647.770	-200.000	-0.019	-0.120
-646.755	198.160	0.147	-0.227
-645.741	800.000	-0.058	-0.217
-644.726	24.127	-0.137	0.115
-643.711	-64.153	-0.366	-0.151
-642.697	800.000	-0.074	-0.251
-641.682	69.767	0.042	-0.044
-640.668	-163.574	-0.039	0.002
-639.653	600.665	0.085	-0.214
-638.638	294.922	0.167	-0.309
-637.624	-31.116	0.124	0.070
-636.609	263.990	-0.080	0.141
-635.595	-38.163	-0.126	0.068
-634.580	-15.688	-0.084	-0.054
-633.565	-200.000	-0.033	0.149
-632.551	-133.815	-0.231	-0.029
-631.536	-182.410	-0.202	0.004
-630.522	-18.180	0.129	-0.081
-629.507	-50.721	0.304	-0.144
-628.492	-25.442	-0.251	-0.150
-627.478	-30.128	-0.157	-0.090
-626.463	53.038	-0.073	-0.070
-625.449	48.786	0.122	0.115
-624.434	153.701	0.148	0.205
-623.419	-20.508	0.247	-0.153
-622.405	9.954	0.141	-0.108
-621.390	318.113	-0.115	-0.220
-620.376	-200.000	-0.015	0.288
-619.361	-12.967	-0.236	-0.155
-618.346	800.000	0.059	-0.196
-617.332	800.000	-0.038	0.114
-616.317	-5.315	-0.217	-0.150
-615.303	-164.460	0.324	-0.015
-614.288	-82.109	0.193	0.064
-613.273	123.594	-0.166	0.210
-612.259	-164.110	0.167	-0.008
-611.244	800.000	-0.061	-0.191
-610.230	-110.961	0.053	0.011
-609.215	91.431	0.022	-0.025
-608.201	800.000	-0.036	-0.121
-607.186	95.099	0.038	0.043
-606.171	316.832	0.207	0.395
-605.157	-9.121	-0.114	-0.077
-604.142	245.907	-0.161	-0.274
-603.128	13.997	-0.133	0.105
-602.113	-25.128	0.308	0.184
-601.098	-90.726	0.482	-0.140
-600.084	-200.000	0.039	0.286
-599.069	345.388	-0.168	0.333
-598.055	-38.629	0.021	-0.011
-597.040	-200.000	0.044	-0.248
-596.025	31.519	-0.114	-0.099
-595.011	111.379	-0.147	-0.178
-593.996	-24.164	0.120	0.072
-592.982	15.652	0.135	-0.107
-591.967	800.000	-0.044	0.146
-590.952	344.965	-0.154	0.304
-589.938	609.376	0.074	0.186
-588.923	-84.113	-0.495	0.158
-587.909	-200.000	-0.042	-0.388
-586.894	297.693	0.019	-0.035
-585.879	34.618	0.102	-0.089
-584.865	124.893	0.275	-0.350
-583.850	149.484	-0.231	0.315
-582.836	136.153	0.156	0.205
-581.821	2.827	-0.242	-0.177
-580.806	-166.745	-0.322	0.013
-579.792	-130.012	-0.230	-0.032
-578.777	-78.505	0.202	-0.070
-577.763	318.539	0.190	-0.363
-576.748	36.328	-0.260	-0.231
-575.733	73.168	-0.170	-0.179
-574.719	22.737	0.105	-0.086
-573.704	-200.000	-0.034	-0.219
-572.690	-44.200	0.140	-0.071
-571.675	216.002	-0.159	-0.254
-570.661	-200.000	0.029	0.243
-569.646	291.950	0.207	0.380
-568.631	480.562	0.056	-0.127
-567.617	-200.000	0.005	-0.219
-566.602	-200.000	-0.083	-0.398
-565.588	-200.000	-0.026	0.286
-564.573	490.615	0.089	0.205
-563.558	-200.000	-0.033	0.333
-562.544	-200.000	-0.050	0.247
-561.529	-200.000	-0.015	0.092
-560.515	-56.070	-0.207	-0.093
-559.500	-80.360	0.116	0.039
-558.485	179.338	0.066	-0.097
-557.471	-122.024	0.032	-0.005
-556.456	528.569	0.026	0.063
-555.442	-107.694	-0.085	0.019
-554.427	800.000	0.029	-0.114
-553.412	-200.000	0.014	-0.244
-552.398	-137.754	-0.365	0.041
-551.383	196.156	0.130	0.199
-550.369	-23.368	-0.159	-0.096
-549.354	-200.000	0.015	0.286
-548.339	800.000	-0.094	-0.328
-547.325	72.855	0.103	-0.108
-546.310	-200.000	0.012	-0.209
-545.296	-200.000	-0.017	0.136
-544.281	-52.756	0.089	0.041
-543.266	154.922	0.040	-0.055
-542.252	800.000	-0.056	-0.165
-541.237	800.000	0.056	-0.224
-540.223	135.976	0.071	0.093
-539.208	800.000	-0.080	-0.316
-538.193	100.002	0.026	-0.030
-537.179	605.694	0.045	-0.113
-536.164	61.918	0.314	0.315
-535.150	-28.246	0.188	0.109
-534.135	-140.138	0.100	-0.011
-533.121	208.630	0.113	0.178
-532.106	-63.777	-0.297	0.123
-531.091	800.000	-0.068	0.234
-530.077	489.500	0.024	0.055
-529.062	-200.000	0.032	-0.508
-528.048	-73.506	0.224	0.082
-527.033	-51.761	-0.213	0.100
-526.018	800.000	-0.041	-0.138
-525.004	-65.785	-0.138	0.056
-523.989	-93.085	-0.067	-0.019
-522.975	-200.000	0.011	0.295
-521.960	-200.000	-0.025	0.144
-520.945	274.987	-0.069	0.123
-519.931	187.640	-0.036	-0.054
-518.916	-137.316	0.199	0.023
-517.902	-63.572	-0.248	0.102
-516.887	70.755	-0.293	0.305
-515.872	-88.807	0.138	-0.041
-514.858	-79.493	0.203	0.069
-513.843	-34.098	0.177	-0.098
-512.829	-21.817	-0.299	0.183
-511.814	800.000	-0.019	-0.077
-510.799	-200.000	-0.026	0.168
-509.785	-62.776	0.107	-0.045
-508.770	283.422	-0.102	-0.184
-507.756	-107.367	-0.116	0.026
-506.741	82.740	-0.263	0.287
-505.726	-32.349	-0.202	0.113
-504.712	-32.703	0.102	-0.057
-503.697	-200.000	0.013	0.389
-502.683	22.605	0.212	0.174
-501.668	390.220	-0.092	-0.192
-500.653	800.000	0.084	0.299
-499.639	46.904	0.111	-0.104
-498.624	290.080	-0.055	0.101
-497.610	713.691	0.021	-0.055
-496.595	273.191	0.049	0.086
-495.581	-90.392	0.098	-0.029
-494.566	-31.713	-0.238	-0.134
-493.551	-121.797	-0.383	0.064
-492.537	220.237	-0.053	-0.086
-491.522	308.947	0.117	-0.219
-490.508	-100.179	-0.158	-0.040
-489.493	-197.830	-0.158	0.001
-488.478	350.959	-0.076	0.150
-487.464	323.351	0.229	-0.439
-486.449	-200.000	0.006	-0.369
-485.435	-194.941	0.356	-0.003
-484.420	20.539	0.283	0.230
-483.405	-200.000	0.004	0.340
-482.391	-200.000	0.024	-0.118
-481.376	-175.260	0.260	0.007
-480.362	-45.536	-0.275	0.137
-479.347	335.621	-0.081	0.158
-478.332	401.128	0.005	0.010
-477.318	-83.499	0.113	0.036
-476.303	-200.000	-0.011	-0.268
-475.289	439.618	-0.058	-0.127
-474.274	800.000	0.090	0.293
-473.259	-113.210	0.226	-0.045
-472.245	202.632	-0.033	0.050
-471.230	71.769	0.074	-0.078
-470.216	800.000	-0.032	-0.088
-469.201	-200.000	-0.014	-0.169
-468.186	670.338	-0.092	0.238
-467.172	544.412	-0.197	-0.472
-466.157	-2.208	-0.231	-0.163
-465.143	-153.228	-0.314	-0.022
-464.128	31.310	-0.192	0.166
-463.113	800.000	-0.077	0.326
-462.099	-74.904	0.114	-0.041
-461.084	-95.668	0.117	0.031
-460.070	1.134	-0.256	-0.184
-459.055	-112.823	0.181	-0.036
-458.040	-66.529	-0.249	0.099
-457.026	800.000	0.070	0.295
-456.011	-149.496	0.191	0.015
-454.997	-110.587	-0.088	-0.018
-453.982	106.641	0.070	0.083
-452.968	800.000	-0.113	0.315
-451.953	36.247	-0.108	0.095
-450.938	800.000	-0.004	-0.014
-449.924	-40.493	0.345	-0.180
-448.909	109.309	-0.082	-0.098
-447.895	555.621	0.127	0.306
-446.880	-58.580	-0.083	-0.036
-445.865	-139.729	0.296	-0.032
-444.851	-88.678	0.350	0.104
-443.836	54.106	0.156	-0.150
-442.822	-105.771	-0.222	0.050
-441.807	800.000	0.036	0.120
-440.792	184.531	-0.328	-0.487
-439.778	201.844	0.129	0.200
-438.763	-149.037	-0.369	-0.030
-437.749	34.552	0.312	0.273
-436.734	-200.000	-0.003	0.065
-435.719	467.535	0.009	-0.021
-434.705	-108.501	-0.500	-0.108
-433.690	-158.345	0.083	-0.005
-432.676	559.686	0.088	-0.213
-431.661	-200.000	0.013	-0.077
-430.646	-70.498	-0.217	-0.082
-429.632	800.000	0.074	0.282
-428.617	759.066	-0.094	-0.254
-427.603	-122.119	-0.274	0.045
-426.588	-47.695	-0.271	0.132
-425.573	800.000	-0.020	0.058
-424.559	800.000	-0.120	-0.395
-423.544	-102.808	-0.193	0.046
-422.530	-200.000	-0.038	0.186
-421.515	-121.897	0.206	-0.034
-420.500	-200.000	-0.039	0.258
-419.486	-71.818	-0.232	-0.086
-418.471	-123.685	0.221	-0.035
-417.457	800.000	-0.080	0.226
-416.442	-200.000	0.046	0.264
-415.428	-15.391	-0.098	0.063
-414.413	-200.000	-0.019	0.323
-413.398	-200.000	-0.077	-0.368
-412.384	94.166	0.148	0.168
-411.369	-200.000	0.009	-0.101
-410.355	-68.900	0.181	-0.070
-409.340	-8.734	-0.235	-0.158
-408.325	-13.960	-0.131	0.085
-407.311	457.393	0.137	-0.304
-406.296	-78.494	0.193	-0.066
-405.282	70.526	0.137	0.141
-404.267	-132.190	0.180	-0.023
-403.252	-131.622	-0.125	-0.016
-402.238	-200.000	0.024	-0.231
-401.223	171.508	-0.098	-0.141
-400.209	-200.000	-0.037	0.178
-399.194	-200.000	0.006	0.103
-398.179	0.364	-0.243	-0.173
-397.165	-24.121	-0.356	0.213
-396.150	560.949	-0.125	0.303
-395.136	800.000	0.078	0.283
-394.121	27.263	0.111	-0.093
-393.106	-194.968	0.163	0.001
-392.092	-125.925	0.335	-0.051
-391.077	226.792	0.036	-0.058
-390.063	-2.930	0.155	0.109
-389.048	-95.081	-0.195	0.053
-388.033	129.967	0.068	-0.087
-387.019	-112.981	-0.438	0.087
-386.004	83.894	0.164	-0.179
-384.990	-200.000	-0.024	0.118
-383.975	800.000	0.032	0.102
-382.960	-86.573	0.219	-0.067
-381.946	527.633	0.052	-0.122
-380.931	-200.000	0.005	0.034
-379.917	-94.350	0.184	0.050
-378.902	-6.610	-0.075	-0.051
-377.888	14.335	-0.108	0.085
-376.873	-118.695	0.295	-0.052
-375.858	784.686	-0.127	0.349
-374.844	5.041	0.211	0.155
-373.829	-16.800	-0.150	0.095
-372.815	-200.000	-0.080	0.448
-371.800	22.607	-0.045	0.037
-370.785	-200.000	-0.007	-0.273
-369.771	-78.777	-0.181	0.062
-368.756	800.000	0.060	0.261
-367.742	-162.912	0.072	0.003
-366.727	800.000	-0.079	0.287
-365.712	-200.000	0.012	0.285
-364.698	479.262	-0.095	-0.214
-363.683	86.189	-0.045	-0.049
-362.669	-2.897	0.200	0.140
-361.654	-200.000	0.046	0.236
-360.639	-101.118	0.156	0.038
-359.625	125.837	-0.069	-0.087
-358.610	800.000	0.047	0.199
-357.596	738.711	-0.078	0.209
-356.581	-100.280	0.269	-0.067
-355.566	-200.000	-0.038	0.248
-354.552	-200.000	-0.003	0.180
-353.537	-200.000	0.030	-0.259
-352.523	-200.000	-0.001	0.014
-351.508	24.439	0.326	-0.269
-350.493	800.000	0.041	0.118
-349.479	676.446	-0.029	0.074
-348.464	-17.968	-0.200	-0.125
-347.450	-160.561	0.193	-0.010
-346.435	-126.799	0.148	0.022
-345.420	126.290	-0.090	0.114
-344.406	-65.056	-0.181	0.073
-343.391	52.561	0.219	-0.209
-342.377	127.411	0.034	-0.043
-341.362	250.732	-0.028	0.048
-340.348	-54.860	-0.440	-0.198
-339.333	188.753	-0.009	0.014
-338.318	-89.598	0.183	-0.054
-337.304	420.717	0.117	-0.250
-336.289	-79.921	-0.146	0.049
-335.275	302.871	0.119	0.219
-334.260	684.611	-0.167	-0.435
-333.245	-105.645	-0.139	0.031
-332.231	-69.257	0.167	0.064
-331.216	-72.521	0.212	0.078
-330.202	-200.000	0.047	-0.243
-329.187	-94.785	-0.319	0.086
-328.172	800.000	0.086	-0.264
-327.158	658.824	-0.045	-0.116
-326.143	13.344	-0.231	-0.179
-325.129	-200.000	0.007	-0.116
-324.114	800.000	-0.096	0.407
-323.099	-100.791	0.111	0.027
-322.085	800.000	0.107	-0.380
-321.070	11.390	-0.110	-0.084
-320.056	338.165	-0.034	0.067
-319.041	82.074	0.080	0.086
-318.026	-57.047	-0.468	0.206
-317.012	339.688	-0.070	0.137
-315.997	-154.062	-0.078	-0.005
-314.983	-103.920	-0.078	-0.018
-313.968	800.000	-0.021	-0.079
-312.953	-47.632	0.195	0.095
-311.939	-200.000	-0.012	0.116
-310.924	-107.786	0.207	0.045
-309.910	-35.960	0.177	-0.096
-308.895	2.208	0.260	0.188
-307.880	-200.000	0.028	0.173
-306.866	-200.000	0.009	-0.043
-305.851	-124.453	-0.275	0.043
-304.837	-77.187	0.091	0.032
-303.822	-145.927	0.144	-0.013
-302.807	226.735	-0.112	0.181
-301.793	134.196	0.202	0.262
-300.778	-36.161	0.188	0.101
-299.764	-62.226	-0.268	0.111
-298.749	-200.000	-0.002	-0.041
-297.735	19.946	-0.150	-0.120
-296.720	380.917	0.052	0.106
-295.705	-15.563	-0.168	-0.107
-294.691	-200.000	0.068	0.327
-293.676	-57.490	-0.153	-0.067
-292.662	141.105	0.025	-0.032
-291.647	40.601	0.120	0.108
-290.632	-4.677	-0.234	0.161
-289.618	-200.000	0.024	0.173
-288.603	368.820	0.066	-0.132
-287.589	244.482	0.172	-0.288
-286.574	-200.000	-0.007	-0.131
-285.559	-33.687	0.251	0.138
-284.545	-200.000	0.058	0.399
-283.530	-26.995	0.190	-0.110
-282.516	-10.806	0.159	0.105
-281.501	350.513	-0.160	-0.315
-280.486	-59.067	0.225	0.097
-279.472	-200.000	0.032	0.285
-278.457	-183.830	0.057	0.001
-277.443	2.587	0.160	-0.115
-276.428	-103.199	0.124	-0.029
-275.413	-28.520	-0.331	0.190
-274.399	-75.618	0.391	-0.139
-273.384	162.957	0.106	0.148
-272.370	683.931	-0.023	0.061
-271.355	800.000	0.063	-0.199
-270.340	6.237	-0.336	-0.248
-269.326	800.000	-0.037	-0.144
-268.311	-200.000	0.021	-0.090
-267.297	-123.284	-0.225	-0.036
-266.282	-103.164	0.123	0.029
-265.267	253.019	-0.087	0.147
-264.253	67.250	-0.139	-0.141
-263.238	-85.354	0.137	-0.043
-262.224	-109.439	-0.243	0.051
-261.209	-200.000	-0.057	0.309
-260.195	90.899	0.189	0.211
-259.180	-86.132	0.266	0.082
-258.165	-176.498	-0.194	-0.005
-257.151	-200.000	0.012	0.079
-256.136	606.775	0.047	0.118
-255.122	640.501	-0.100	0.253
-254.107	-200.000	-0.010	0.053
-253.092	-200.000	0.041	-0.257
-252.078	-13.127	0.048	0.031
-251.063	-99.354	0.237	0.059
-250.049	-200.000	-0.029	0.332
-249.034	800.000	-0.029	-0.123
-248.019	27.280	-0.187	0.156
-247.005	163.889	-0.092	-0.129
-245.990	-117.954	0.227	-0.040
-244.976	-12.924	0.270	0.175
-243.961	800.000	0.092	-0.318
-242.946	-49.117	-0.419	-0.200
-241.932	800.000	-0.069	0.240
-240.917	-14.970	0.127	-0.081
-239.903	250.252	0.071	-0.120
-238.888	-113.283	-0.466	0.091
-237.873	23.097	-0.081	0.066
-236.859	217.129	-0.024	-0.038
-235.844	800.000	0.036	0.126
-234.830	-99.557	-0.269	-0.067
-233.815	-19.651	-0.271	0.167
-232.800	-157.901	-0.165	0.010
-231.786	20.711	-0.124	-0.100
-230.771	-96.371	0.169	0.045
-229.757	-54.666	-0.089	0.040
-228.742	-98.828	-0.134	-0.034
-227.727	174.552	-0.068	-0.097
-226.713	800.000	-0.053	-0.201
-225.698	-111.534	0.301	0.061
-224.684	800.000	-0.018	-0.064
-223.669	284.138	-0.064	-0.114
-222.655	114.610	0.111	0.135
-221.640	250.207	0.119	-0.200
-220.625	-123.496	0.264	0.042
-219.611	31.637	-0.151	-0.129
-218.596	-34.025	-0.196	-0.107
-217.582	-200.000	0.008	0.163
-216.567	-35.208	0.291	0.158
-215.552	252.869	-0.018	-0.031
-214.538	297.627	0.107	-0.196
-213.523	522.521	-0.075	-0.175
-212.509	-51.620	0.163	0.075
-211.494	160.038	0.226	0.313
-210.479	193.440	0.030	-0.045
-209.465	42.107	0.078	-0.070
-208.450	-5.854	0.173	-0.118
-207.436	8.625	-0.255	-0.191
-206.421	104.015	0.407	-0.475
-205.406	-200.000	0.007	0.083
-204.392	457.754	-0.106	-0.235
-203.377	-107.175	0.276	0.060
-202.363	-25.276	0.221	0.130
-201.348	-138.140	0.303	0.033
-200.333	161.162	0.090	-0.125
-199.319	-73.205	-0.155	-0.056
-198.304	-200.000	0.049	-0.312
-197.290	-200.000	-0.047	-0.223
-196.275	24.714	0.228	-0.188
-195.260	417.153	-0.063	0.134
-194.246	800.000	-0.055	-0.227
-193.231	-200.000	0.022	-0.514
-192.217	-80.466	0.120	-0.040
-191.202	-200.000	0.013	-0.258
-190.187	-200.000	-0.071	-0.322
-189.173	89.868	0.184	0.204
-188.158	116.312	0.232	0.282
-187.144	-188.773	0.213	0.003
-186.129	-200.000	-0.005	0.143
-185.114	-200.000	0.015	-0.097
-184.100	5.524	-0.076	0.056
-183.085	-162.754	0.246	-0.012
-182.071	-200.000	0.035	-0.240
-181.056	38.696	-0.243	-0.216
-180.042	173.296	0.147	-0.210
-179.027	-142.871	0.104	0.010
-178.012	141.207	0.149	-0.195
-176.998	-200.000	0.016	0.133
-175.983	114.304	-0.057	0.069
-174.969	800.000	-0.069	0.231
-173.954	-95.970	0.132	-0.035
-172.939	58.817	0.221	0.216
-171.925	-167.530	0.260	0.010
-170.910	-85.766	-0.196	0.060
-169.896	-168.252	-0.149	-0.006
-168.881	770.452	0.088	0.239
-167.866	-200.000	0.029	0.131
-166.852	571.902	-0.030	0.072
-165.837	318.947	0.095	-0.179
-164.823	-119.776	-0.250	0.043
-163.808	-45.392	-0.289	-0.142
-162.793	-2.568	-0.088	0.061
-161.779	-132.376	0.134	0.017
-160.764	-200.000	0.028	0.218
-159.750	389.149	-0.079	0.161
-158.735	4.290	0.065	-0.047
-157.720	-69.707	-0.025	0.010
-156.706	-200.000	-0.062	-0.402
-155.691	-200.000	0.017	-0.318
-154.677	126.909	-0.041	-0.051
-153.662	-200.000	-0.015	0.071
-152.647	-143.870	-0.456	0.043
-151.633	-78.959	0.115	0.039
-150.618	629.817	-0.098	0.244
-149.604	96.858	-0.033	-0.038
-148.589	-200.000	0.064	0.305
-147.574	-200.000	-0.018	0.107
-146.560	142.212	-0.089	-0.117
-145.545	800.000	-0.089	0.254
-144.531	-153.335	0.337	-0.023
-143.516	-200.000	0.011	0.406
-142.502	61.693	0.242	-0.239
-141.487	-78.548	-0.133	0.045
-140.472	33.663	-0.087	-0.075
-139.458	-200.000	0.028	-0.452
-138.443	-121.542	-0.265	0.044
-137.429	319.214	-0.089	-0.168
-136.414	-143.969	0.198	0.018
-135.399	173.232	-0.195	0.278
-134.385	-32.767	-0.358	-0.197
-133.370	-96.872	0.155	0.040
-132.356	800.000	-0.046	-0.165
-131.341	-172.024	-0.151	-0.005
-130.326	397.569	0.178	0.369
-129.312	-137.850	0.179	0.020
-128.297	-59.238	-0.337	0.144
-127.283	449.458	-0.034	-0.075
-126.268	186.026	-0.157	-0.232
-125.253	37.749	0.298	0.262
-124.239	800.000	0.043	0.176
-123.224	117.211	-0.184	-0.224
-122.210	-200.000	0.031	-0.180
-121.195	-57.324	-0.076	0.033
-120.180	-200.000	0.025	-0.187
-119.166	-86.219	-0.370	0.113
-118.151	36.676	0.136	-0.119
-117.137	-200.000	-0.057	0.288
-116.122	800.000	-0.060	0.204
-115.107	800.000	-0.036	0.137
-114.093	625.398	-0.127	0.316
-113.078	105.745	0.121	0.141
-112.064	95.968	0.326	-0.369
-111.049	168.215	-0.108	-0.152
-110.034	-200.000	0.016	0.580
-109.020	192.635	0.087	-0.130
-108.005	-200.000	0.028	0.508
-106.991	21.523	-0.153	-0.123
-105.976	349.136	0.114	0.223
-104.962	22.421	0.087	0.071
-103.947	-21.381	0.144	-0.087
-102.932	-155.377	0.193	-0.012
-101.918	122.169	0.102	0.126
-100.903	568.707	0.067	0.162
-99.889	-200.000	0.008	-0.150
-98.874	-87.326	0.133	0.040
-97.859	-200.000	0.047	0.380
-96.845	-200.000	0.125	-0.630
-95.830	316.389	0.080	-0.149
-94.816	187.177	0.158	0.233
-93.801	239.268	-0.198	0.326
-92.786	-200.000	0.035	0.182
-91.772	-118.942	-0.174	-0.030
-90.757	-200.000	-0.068	-0.374
-89.743	-5.404	0.354	-0.240
-88.728	800.000	0.104	-0.388
-87.713	-82.293	0.160	0.052
-86.699	-123.333	-0.144	0.023
-85.684	58.448	0.125	-0.121
-84.670	-66.286	-0.200	-0.079
-83.655	-200.000	-0.063	-0.298
-82.640	335.524	0.037	0.070
-81.626	-153.242	0.169	0.012
-80.611	27.254	0.115	0.095
-79.597	-106.638	-0.089	0.020
-78.582	-21.243	-0.235	-0.142
-77.567	612.684	-0.061	0.151
-76.553	122.973	0.099	-0.122
-75.538	210.230	0.053	0.082
-74.524	-96.969	-0.113	-0.029
-73.509	-155.881	-0.360	0.023
-72.494	61.028	-0.074	0.072
-71.480	800.000	-0.095	0.288
-70.465	-75.964	0.172	0.060
-69.451	-183.558	0.327	0.006
-68.436	19.485	0.246	0.196
-67.422	78.520	-0.195	0.206
-66.407	-200.000	-0.039	0.238
-65.392	-70.186	0.311	0.117
-64.378	-133.526	0.168	0.021
-63.363	258.199	-0.218	0.371
-62.349	-43.169	0.299	-0.150
-61.334	74.068	-0.931	-0.965
-60.319	43.472	0.685	0.618
-59.305	449.662	-0.268	-0.583
-58.290	101.168	0.708	0.813
-57.276	255.142	0.809	1.369
-56.261	-200.000	97.913	596.097
-55.246	625.434	1426.052	3551.912
-54.232	183.972	2626.414	3837.614
-53.217	119.205	2184.185	2667.770
-52.203	45.016	1630.055	1482.413
-51.188	36.635	1364.553	1189.639
-50.173	33.384	1321.701	1132.826
-49.159	55.728	1370.134	1310.811
-48.144	59.185	1387.551	1348.420
-47.130	37.173	1342.953	1173.875
-46.115	33.437	1325.359	1136.095
-45.100	33.182	1321.072	1130.854
-44.086	33.201	1318.038	1128.323
-43.071	33.083	1315.870	1125.724
-42.057	33.016	1314.082	1123.747
-41.042	33.081	1312.597	1122.818
-40.027	33.111	1310.982	1121.572
-39.013	33.242	1308.934	1120.550
-37.998	33.117	1307.538	1118.571
-36.984	33.121	1305.615	1116.905
-35.969	33.320	1303.607	1116.315
-34.954	33.253	1302.483	1114.917
-33.940	33.267	1300.972	1113.659
-32.925	33.325	1299.539	1112.728
-31.911	33.339	1297.325	1110.874
-30.896	33.292	1296.486	1109.835
-29.881	33.291	1294.924	1108.451
-28.867	33.419	1293.452	1107.895
-27.852	33.373	1291.911	1106.259
-26.838	33.446	1290.476	1105.416
-25.823	33.370	1288.900	1103.579
-24.809	33.328	1287.988	1102.508
-23.794	33.358	1286.484	1101.349
-22.779	33.354	1285.130	1100.123
-21.765	33.346	1284.003	1099.069
-20.750	33.332	1282.765	1097.888
-19.736	33.247	1281.312	1096.106
-18.721	33.205	1280.390	1095.033
-17.706	33.237	1279.122	1094.085
-16.692	33.165	1277.735	1092.440
-15.677	33.236	1276.887	1092.083
-14.663	33.240	1275.806	1091.142
-13.648	33.190	1275.057	1090.166
-12.633	33.167	1273.944	1089.037
-11.619	33.155	1273.254	1088.337
-10.604	33.215	1272.088	1087.641
-9.590	33.153	1271.273	1086.547
-8.575	33.233	1270.227	1086.068
-7.560	33.081	1269.592	1084.613
-6.546	33.121	1268.113	1083.531
-5.531	33.204	1267.449	1083.399
-4.517	33.259	1266.625	1082.967
-3.502	33.075	1266.483	1081.750
-2.487	33.144	1265.154	1080.965
-1.473	33.235	1261.166	1078.035
-0.458	32.312	1246.656	1060.383
0.556	27.920	1229.630	1024.351
1.571	24.508	1236.078	1010.363
2.586	23.505	1251.677	1017.272
3.600	22.621	1240.377	1002.974
4.615	17.410	1167.751	916.177
5.629	9.122	1091.656	814.519
6.644	5.294	1071.197	780.099
7.659	4.935	1068.713	776.430
8.673	4.904	1067.132	775.062
9.688	4.738	1066.409	773.641
10.702	5.136	1064.400	774.090
11.717	10.309	1071.777	805.167
12.731	17.628	1082.261	849.591
13.746	19.584	1083.179	859.990
14.761	18.200	1080.868	851.197
15.775	17.041	1079.185	844.034
16.790	15.972	1076.619	836.647
17.804	15.278	1075.451	832.222
18.819	14.860	1074.163	829.078
19.834	14.633	1073.198	827.133
20.848	14.448	1072.035	825.248
21.863	14.167	1071.167	823.116
22.877	13.954	1070.793	821.703
23.892	14.093	1069.771	821.533
24.907	13.969	1069.556	820.682
25.921	14.106	1068.123	820.186
26.936	14.058	1066.686	818.777
27.950	14.176	1065.201	818.142
28.965	14.266	1063.372	817.108
29.980	14.273	1062.188	816.161
30.994	14.348	1061.039	815.569
32.009	14.357	1059.960	814.712
33.023	14.248	1058.985	813.359
34.038	14.251	1058.041	812.579
35.053	14.181	1056.878	811.272
36.067	14.196	1056.309	810.836
37.082	14.166	1055.528	810.021
38.096	14.215	1054.892	809.697
39.111	14.259	1053.723	808.941
40.126	14.076	1052.568	807.098
41.140	14.077	1051.105	805.907
42.155	13.959	1049.965	804.391
43.169	13.987	1049.183	803.856
44.184	13.952	1048.172	802.839
45.199	14.001	1046.798	801.953
46.213	13.995	1045.869	801.145
47.228	14.155	1044.742	800.979
48.242	14.237	1043.602	800.428
49.257	14.269	1042.582	799.727
50.271	14.261	1041.636	798.896
51.286	14.209	1041.207	798.243
52.301	14.111	1040.378	797.069
53.315	14.039	1039.175	795.734
54.330	14.072	1037.867	794.820
55.344	13.917	1037.067	793.393
56.359	14.121	1035.886	793.393
57.374	14.053	1035.282	792.536
58.388	14.019	1034.006	791.329
59.403	13.909	1033.781	790.563
60.417	13.935	1032.645	789.746
61.432	13.736	1032.215	788.402
62.447	13.808	1031.102	787.824
63.461	13.835	1030.038	787.071
64.476	13.807	1029.119	786.167
65.490	13.947	1027.777	785.733
66.505	13.896	1027.383	785.124
67.520	13.748	1027.492	784.434
68.534	13.901	1026.492	784.325
69.549	13.957	1025.464	783.736
70.563	13.834	1024.601	782.427
71.578	13.787	1023.891	781.592
72.593	13.753	1023.035	780.712
73.607	13.637	1022.588	779.755
74.622	13.809	1022.047	780.084
75.636	13.824	1020.824	779.150
76.651	13.671	1020.240	777.917
77.666	13.766	1019.792	777.951
78.680	13.725	1019.530	777.491
79.695	13.825	1018.511	777.112
80.709	13.887	1018.032	776.968
81.724	13.980	1017.236	776.731
82.739	13.995	1016.586	776.232
83.753	14.109	1015.734	776.045
84.768	14.271	1014.617	775.881
85.782	14.237	1014.181	775.319
86.797	14.268	1013.081	774.555
87.812	14.080	1012.489	773.157
88.826	14.041	1011.646	772.265
89.841	14.265	1010.738	772.545
90.855	14.256	1009.410	771.419
91.870	14.266	1008.632	770.803
92.884	14.294	1007.627	770.093
93.899	14.365	1006.787	769.713
94.914	14.274	1006.627	769.103
95.928	14.335	1005.283	768.288
96.943	14.223	1004.879	767.394
97.957	14.270	1003.714	766.653
98.972	14.311	1002.746	766.035
99.987	14.258	1001.903	765.082
101.001	14.245	1001.082	764.326
102.016	14.297	1000.250	763.863
103.030	14.155	999.901	762.877
104.045	14.196	998.990	762.301
105.060	14.156	997.942	761.251
106.074	14.106	996.946	760.194
107.089	14.150	995.473	759.204
108.103	13.961	994.752	757.728
109.118	14.013	993.974	757.305
110.133	13.992	993.084	756.466
111.147	14.001	992.298	755.841
112.162	13.971	991.195	754.793
113.176	14.098	990.751	754.970
114.191	14.032	990.056	754.074
115.206	14.060	989.082	753.389
116.220	14.058	987.700	752.263
117.235	14.074	986.908	751.665
118.249	14.093	986.227	751.163
119.264	14.003	985.536	750.168
120.279	13.824	985.132	748.984
121.293	14.077	983.596	748.888
122.308	13.921	983.007	747.671
123.322	13.924	981.952	746.818
124.337	13.863	981.429	746.078
125.352	13.945	980.194	745.444
126.366	13.987	979.180	744.794
127.381	13.969	977.935	743.703
128.395	14.053	976.878	743.207
129.410	14.069	976.561	742.972
130.424	14.074	975.479	742.104
131.439	14.143	974.876	741.890
132.454	14.035	974.365	740.952
133.468	14.203	973.244	740.782
134.483	14.177	972.305	739.887
135.497	14.101	971.722	739.039
136.512	14.114	971.013	738.495
137.527	14.209	969.814	737.938
138.541	14.151	968.650	736.727
139.556	14.089	968.777	736.488
140.570	14.199	967.929	736.263
141.585	14.441	966.834	736.434
142.600	14.336	965.980	735.256
143.614	14.425	964.963	734.809
144.629	14.361	964.979	734.472
145.643	14.306	963.526	733.061
146.658	14.198	962.783	731.957
147.673	14.281	961.452	731.244
148.687	14.265	960.441	730.341
149.702	14.095	960.228	729.367
150.716	14.141	958.865	728.468
151.731	14.221	958.346	728.358
152.746	14.286	957.717	728.100
153.760	14.239	957.105	727.367
154.775	14.329	956.578	727.296
155.789	14.332	955.709	726.583
156.804	14.382	955.507	726.581
157.819	14.358	954.381	725.559
158.833	14.449	953.920	725.541
159.848	14.525	953.206	725.264
160.862	14.338	952.446	723.808
161.877	14.384	950.734	722.642
162.892	14.450	949.504	721.930
163.906	14.274	948.857	720.611
164.921	14.242	948.500	720.136
165.935	14.358	947.438	719.769
166.950	14.418	946.690	719.398
167.964	14.289	946.133	718.354
168.979	14.300	944.967	717.451
169.994	14.418	944.301	717.390
171.008	14.374	943.533	716.554
172.023	14.439	942.789	716.203
173.037	14.567	942.111	716.176
174.052	14.525	941.306	715.321
175.067	14.375	940.598	714.079
176.081	14.394	939.954	713.605
177.096	14.341	939.241	712.775
178.110	14.311	939.241	712.583
179.125	14.382	938.042	711.915
180.140	14.431	937.483	711.638
181.154	14.667	937.219	712.380
182.169	14.654	936.644	711.827
183.183	14.570	936.509	711.300
184.198	14.716	935.266	710.917
185.213	14.556	934.488	709.580
186.227	14.755	933.775	709.824
187.242	14.641	933.450	709.029
188.256	14.790	932.382	708.788
189.271	14.697	931.890	707.955
190.286	14.555	931.015	706.626
191.300	14.471	930.054	705.479
192.315	14.400	929.708	704.854
193.329	14.443	929.047	704.472
194.344	14.432	928.929	704.275
195.359	14.525	928.099	703.975
196.373	14.640	927.144	703.673
197.388	14.792	927.078	704.201
198.402	14.835	926.556	703.923
199.417	14.962	925.813	703.832
200.432	14.920	925.407	703.286
201.446	14.873	925.044	702.745
202.461	15.030	924.288	702.772
203.475	14.968	923.700	702.003
204.490	14.909	922.843	701.041
205.504	14.944	922.080	700.545
206.519	14.905	921.350	699.764
207.534	14.880	920.335	698.827
208.548	14.837	920.312	698.569
209.563	14.820	919.295	697.666
210.577	14.951	918.671	697.674
211.592	14.775	918.246	696.557
212.607	14.904	917.354	696.354
213.621	14.973	916.403	695.859
214.636	14.957	916.009	695.431
215.650	15.091	914.896	695.083
216.665	15.093	914.534	694.754
217.680	15.055	914.162	694.252
218.694	15.130	913.476	693.979
219.709	15.080	912.657	693.090
220.723	15.183	911.845	692.840
221.738	15.272	910.684	692.262
222.753	15.141	910.355	691.411
223.767	15.166	910.095	691.253
224.782	15.258	909.960	691.471
225.796	15.219	909.366	690.797
226.811	15.260	908.448	690.207
227.826	15.231	907.744	689.492
228.840	15.247	907.142	689.042
229.855	15.325	905.856	688.322
230.869	15.289	905.357	687.733
231.884	15.131	904.768	686.581
232.899	15.200	903.685	685.977
233.913	15.112	903.127	685.133
234.928	15.068	902.531	684.444
235.942	15.013	902.252	683.946
236.957	15.172	901.409	683.894
237.972	15.102	900.809	683.093
238.986	15.149	900.180	682.749
240.001	15.254	899.549	682.635
241.015	15.363	898.729	682.399
242.030	15.332	898.489	682.026
243.045	15.255	897.597	680.979
244.059	15.235	897.173	680.512
245.074	15.241	896.803	680.199
246.088	15.396	896.015	680.168
247.103	15.461	895.034	679.628
248.117	15.497	894.731	679.483
249.132	15.645	894.157	679.583
250.147	15.864	893.091	679.599
251.161	15.585	893.032	678.369
252.176	15.771	892.218	678.439
253.190	15.803	891.683	678.102
254.205	15.900	890.774	677.740
255.220	15.847	890.283	677.094
256.234	15.846	889.702	676.587
257.249	15.823	889.051	675.940
258.263	15.806	888.244	675.200
259.278	15.886	887.611	674.980
260.293	15.816	887.328	674.424
261.307	15.820	886.781	673.965
262.322	15.980	885.941	673.908
263.336	15.924	885.060	672.953
264.351	15.933	884.532	672.526
265.366	15.959	884.021	672.181
266.380	16.059	883.115	671.834
267.395	15.934	882.807	671.042
268.409	15.972	881.563	670.188
269.424	16.025	881.065	669.959
270.439	15.967	880.452	669.203
271.453	15.992	879.609	668.605
272.468	15.859	879.028	667.575
273.482	15.937	878.323	667.292
274.497	15.995	877.758	667.031
275.512	16.089	877.501	667.149
276.526	15.839	877.061	665.769
277.541	16.018	876.190	665.753
278.555	16.222	875.460	665.947
279.570	16.292	875.061	665.861
280.585	16.178	874.267	664.749
281.599	16.247	873.157	664.114
282.614	16.150	872.844	663.440
283.628	16.091	872.519	662.901
284.643	16.033	871.756	662.032
285.657	16.219	870.866	662.030
286.672	16.034	871.102	661.425
287.687	16.163	869.803	660.884
288.701	16.122	869.441	660.389
289.716	16.189	868.945	660.217
290.730	16.084	868.640	659.518
291.745	16.360	867.562	659.719
292.760	16.407	867.177	659.552
293.774	16.341	866.455	658.685
294.789	16.314	865.644	657.905
295.803	16.254	864.688	656.885
296.818	16.303	864.365	656.774
297.833	16.195	863.789	655.859
298.847	16.343	863.237	655.955
299.862	16.421	862.759	655.839
300.876	16.290	862.339	654.952
301.891	16.428	861.651	654.908
302.906	16.387	861.474	654.555
303.920	16.469	861.093	654.524
304.935	16.738	859.682	654.435
305.949	16.623	859.375	653.697
306.964	16.521	858.770	652.788
307.979	16.679	858.098	652.829
308.993	16.572	857.470	651.881
310.008	16.650	856.906	651.694
311.022	16.778	856.196	651.588
312.037	16.477	855.920	650.162
313.052	16.545	855.094	649.741
314.066	16.536	854.644	649.305
315.081	16.571	853.820	648.755
316.095	16.449	853.476	647.969
317.110	16.423	852.767	647.277
318.125	16.564	852.441	647.511
319.139	16.611	851.789	647.136
320.154	16.505	851.346	646.338
321.168	16.639	850.901	646.455
322.183	16.497	850.685	645.692
323.197	16.743	849.565	645.721
324.212	16.719	848.920	645.082
325.227	16.606	848.316	644.137
326.241	16.619	848.198	644.041
327.256	16.495	847.888	643.275
328.270	16.661	846.863	643.071
329.285	16.485	846.501	642.072
330.300	16.645	845.829	642.113
331.314	16.723	845.263	641.922
332.329	16.801	844.677	641.716
333.343	16.745	844.679	641.449
334.358	16.849	844.033	641.293
335.373	16.880	843.688	641.091
336.387	16.902	843.099	640.673
337.402	16.879	843.188	640.595
338.416	16.923	842.513	640.191
339.431	17.096	842.080	640.459
340.446	17.104	841.434	639.943
341.460	17.060	841.280	639.601
342.475	17.156	841.203	639.847
343.489	17.018	840.615	638.825
344.504	17.251	840.147	639.289
345.519	17.357	839.474	639.118
346.533	17.195	838.825	637.961
347.548	17.140	838.406	637.377
348.562	16.942	838.078	636.331
349.577	17.128	836.974	636.131
350.592	17.066	836.591	635.552
351.606	16.948	835.774	634.434
352.621	16.973	835.473	634.244
353.635	17.005	834.700	633.718
354.650	17.108	833.828	633.384
355.665	17.193	833.488	633.390
356.679	17.234	833.053	633.156
357.694	17.159	832.530	632.422
358.708	17.153	831.659	631.683
359.723	17.278	830.836	631.464
360.738	17.187	830.418	630.754
361.752	17.286	830.019	630.763
362.767	17.385	829.155	630.418
363.781	17.215	828.885	629.527
364.796	17.387	828.267	629.637
365.810	17.465	828.079	629.729
366.825	17.571	827.500	629.625
367.840	17.477	827.263	629.042
368.854	17.447	826.883	628.585
369.869	17.545	826.253	628.412
370.883	17.565	825.614	627.945
371.898	17.700	825.392	628.216
372.913	17.575	825.146	627.512
373.927	17.612	824.544	627.136
374.942	17.648	824.004	626.802
375.956	17.629	823.459	626.261
376.971	17.565	823.264	625.825
377.986	17.679	822.716	625.772
379.000	17.649	822.367	625.340
380.015	17.713	821.679	624.995
381.029	17.711	821.478	624.779
382.044	17.712	820.350	623.869
383.059	17.748	820.096	623.753
384.073	17.771	819.504	623.334
385.088	17.739	818.833	622.651
386.102	17.649	818.356	621.906
387.117	17.642	817.745	621.359
388.132	17.544	817.457	620.728
389.146	17.699	816.932	620.839
390.161	17.745	816.597	620.697
391.175	17.751	815.913	620.143
392.190	17.889	814.825	619.765
393.205	17.735	814.488	618.895
394.219	17.751	814.305	618.758
395.234	17.618	814.246	618.173
396.248	17.739	813.400	617.915
397.263	17.590	813.073	617.074
398.278	17.561	812.702	616.634
399.292	17.699	812.381	616.834
400.307	17.778	811.907	616.705
401.321	17.665	811.343	615.813
402.336	17.739	810.529	615.408
403.350	17.874	810.332	615.691
404.365	17.962	809.893	615.621
405.380	18.095	809.493	615.742
406.394	18.005	808.747	614.798
407.409	18.074	808.579	614.861
408.423	17.981	808.672	614.544
409.438	18.125	807.919	614.433
410.453	18.098	807.710	614.125
411.467	18.262	807.272	614.324
412.482	18.302	806.634	613.931
413.496	18.231	806.152	613.255
414.511	18.194	805.651	612.685
415.526	18.373	805.172	612.909
416.540	18.258	804.699	612.083
417.555	18.207	804.445	611.653
418.569	18.247	803.981	611.390
419.584	18.394	803.604	611.572
420.599	18.349	803.052	610.939
421.613	154.088	1370.436	1790.437
422.628	133.625	1453.095	1790.526
