DTS Sentinel unit serial number:	SN413079Multiplexer serial number:	ORYXHardware model number:	OX4-SRSoftware version number:	ORYX F/W v4.00 Oryx Data Collector v3.7.2.0data status	okinstallation	princeton_trtdifferential loss correction	single-endedforward channel	channel 1reverse channel	N/Adate	2019/09/17time	08:38:35forward acquisition time	60.00reverse acquisition time	0.00gamma	496.2192k internal	0.2328k external	0.2328temperature offset calibration	0.9967default loss term (dB/km)	0.3790temperature slope calibration	1.0000multiplexer offset coefficient	1.0000multiplexer slope coefficient	1.0000fibre end	0.00T internal ref (°C)	27.67T ext. ref 1 (°C)	0.13T ext. ref 2 (°C)	23.23length (m)	temperature (°C)	Stokes	anti-Stokes-747.200	-16.532	-0.057	-0.036
-746.185	64.063	-0.096	0.097
-745.171	620.848	0.076	-0.192
-744.156	521.249	-0.046	0.109
-743.142	-12.167	-0.091	-0.060
-742.127	-200.000	0.011	0.360
-741.112	-63.556	-0.140	0.058
-740.098	-200.000	0.042	0.319
-739.083	295.589	0.073	0.135
-738.069	340.205	-0.209	0.411
-737.054	10.171	-0.143	0.110
-736.039	110.438	-0.210	-0.254
-735.025	57.571	0.251	0.247
-734.010	-200.000	0.029	-0.188
-732.996	204.766	-0.249	-0.390
-731.981	-90.925	0.140	-0.041
-730.966	-138.622	-0.127	0.014
-729.952	-123.634	-0.317	-0.051
-728.937	800.000	-0.023	0.092
-727.923	-85.448	-0.283	-0.089
-726.908	364.096	-0.177	0.358
-725.894	86.689	0.200	-0.222
-724.879	-106.069	-0.194	-0.044
-723.864	-200.000	-0.050	-0.273
-722.850	-200.000	0.012	-0.300
-721.835	800.000	0.044	-0.149
-720.821	390.479	-0.029	0.061
-719.806	-200.000	0.004	0.073
-718.791	-105.227	0.181	-0.042
-717.777	31.966	-0.248	-0.216
-716.762	-137.251	-0.307	-0.035
-715.748	386.710	-0.185	-0.385
-714.733	26.374	-0.120	0.101
-713.718	511.861	-0.102	-0.240
-712.704	-117.974	-0.208	0.038
-711.689	538.254	0.027	0.065
-710.675	-200.000	-0.030	0.211
-709.660	349.233	-0.146	-0.291
-708.645	32.047	0.106	-0.092
-707.631	91.854	-0.108	0.122
-706.616	-133.407	-0.170	-0.021
-705.602	-200.000	-0.005	-0.141
-704.587	-45.984	0.235	0.117
-703.572	54.228	0.057	0.055
-702.558	-94.456	0.115	0.031
-701.543	-124.866	0.187	-0.029
-700.529	86.782	0.186	-0.207
-699.514	34.665	0.057	-0.050
-698.499	142.445	0.082	-0.109
-697.485	-6.877	0.147	0.100
-696.470	-106.108	-0.133	0.030
-695.456	344.079	0.163	-0.321
-694.441	-200.000	-0.008	0.207
-693.426	120.512	0.102	0.128
-692.412	64.305	0.173	0.175
-691.397	-200.000	-0.037	-0.297
-690.383	34.553	-0.128	0.112
-689.368	-93.677	-0.175	0.049
-688.354	-58.746	0.164	0.072
-687.339	-68.804	-0.247	0.096
-686.324	-200.000	-0.007	-0.064
-685.310	-155.272	0.025	-0.002
-684.295	800.000	-0.035	0.130
-683.281	340.472	-0.083	0.163
-682.266	34.739	-0.255	0.224
-681.251	800.000	0.016	0.069
-680.237	42.500	-0.062	-0.057
-679.222	-76.560	-0.238	-0.084
-678.208	47.006	0.268	-0.250
-677.193	800.000	-0.038	0.158
-676.178	90.653	0.128	-0.144
-675.164	-105.468	-0.192	-0.044
-674.149	243.099	-0.148	-0.249
-673.135	-188.840	-0.255	-0.003
-672.120	-110.137	0.120	0.025
-671.105	-134.914	-0.165	0.020
-670.091	74.595	0.083	0.088
-669.076	-166.372	-0.309	0.013
-668.062	-81.900	-0.253	-0.083
-667.047	-122.045	-0.379	0.063
-666.032	-100.430	0.519	-0.129
-665.018	369.587	-0.052	0.106
-664.003	-35.269	-0.126	0.069
-662.989	-51.421	-0.086	0.040
-661.974	9.753	-0.135	-0.102
-660.959	-15.074	-0.195	0.125
-659.945	-9.144	-0.394	0.265
-658.930	800.000	0.031	0.099
-657.916	-200.000	-0.017	0.493
-656.901	-56.277	0.114	-0.051
-655.886	-200.000	-0.016	-0.394
-654.872	-110.314	-0.293	-0.061
-653.857	-200.000	-0.040	0.190
-652.843	414.362	-0.009	0.018
-651.828	99.192	-0.108	-0.125
-650.814	-153.615	-0.326	-0.023
-649.799	148.035	-0.034	-0.045
-648.784	-132.155	-0.219	-0.028
-647.770	249.615	0.224	-0.382
-646.755	190.857	0.113	-0.171
-645.741	-66.198	-0.309	-0.124
-644.726	23.017	-0.130	0.107
-643.711	-137.214	0.151	0.017
-642.697	800.000	0.082	-0.289
-641.682	73.630	0.022	-0.023
-640.668	-94.506	-0.257	0.070
-639.653	-200.000	-0.010	0.179
-638.638	800.000	0.122	-0.503
-637.624	800.000	0.038	-0.165
-636.609	-106.519	0.191	-0.043
-635.595	-19.154	0.212	-0.132
-634.580	-200.000	-0.039	-0.262
-633.565	418.396	0.125	-0.268
-632.551	94.741	0.059	0.067
-631.536	-200.000	0.010	-0.260
-630.522	312.314	0.111	0.209
-629.507	-51.000	0.452	0.213
-628.492	-200.000	0.065	0.354
-627.478	65.013	-0.089	-0.090
-626.463	-200.000	0.007	-0.205
-625.449	-69.414	0.025	-0.010
-624.434	-192.049	0.308	-0.003
-623.419	-53.746	-0.272	0.125
-622.405	-51.987	0.504	-0.235
-621.390	800.000	0.052	-0.201
-620.376	31.098	-0.143	0.123
-619.361	-74.517	-0.220	-0.079
-618.346	56.104	-0.291	-0.284
-617.332	253.204	-0.101	0.173
-616.317	-200.000	-0.001	-0.378
-615.303	-145.122	-0.182	-0.017
-614.288	-94.079	-0.167	0.046
-613.273	-154.674	0.198	0.013
-612.259	-49.298	-0.056	0.027
-611.244	-137.614	-0.268	0.030
-610.230	-125.483	-0.409	-0.062
-609.215	800.000	0.031	-0.113
-608.201	310.670	-0.094	0.177
-607.186	130.103	0.156	0.200
-606.171	-200.000	-0.017	-0.218
-605.157	147.670	0.292	0.395
-604.142	-200.000	0.028	0.159
-603.128	427.134	0.133	-0.288
-602.113	-25.692	0.465	-0.275
-601.098	22.031	0.221	0.181
-600.084	-200.000	0.003	-0.169
-599.069	-63.277	0.298	0.123
-598.055	-112.298	-0.137	0.028
-597.040	51.640	-0.449	-0.428
-596.025	208.737	-0.095	0.149
-595.011	-200.000	-0.049	0.326
-593.996	81.685	0.181	0.196
-592.982	800.000	-0.040	0.170
-591.967	-200.000	-0.045	0.301
-590.952	-94.388	0.035	0.010
-589.938	800.000	0.024	-0.094
-588.923	192.049	-0.163	-0.247
-587.909	800.000	-0.103	-0.353
-586.894	-77.943	0.034	0.012
-585.879	-104.525	-0.035	-0.008
-584.865	-49.278	0.181	0.087
-583.850	-82.808	0.170	0.055
-582.836	-200.000	-0.048	0.234
-581.821	23.718	0.114	0.094
-580.806	-56.324	-0.198	-0.088
-579.792	-137.729	-0.296	-0.033
-578.777	82.243	-0.114	-0.124
-577.763	-180.523	-0.165	-0.003
-576.748	70.601	0.119	-0.123
-575.733	4.613	0.183	-0.135
-574.719	-118.611	-0.248	-0.044
-573.704	-200.000	0.019	0.259
-572.690	-89.349	0.080	-0.024
-571.675	235.355	0.189	-0.313
-570.661	-57.576	0.154	0.068
-569.646	800.000	-0.134	0.515
-568.631	47.780	0.087	-0.081
-567.617	324.808	-0.076	0.146
-566.602	-200.000	-0.090	-0.409
-565.588	-147.423	-0.291	0.025
-564.573	-114.011	0.182	-0.035
-563.558	-46.308	-0.121	0.059
-562.544	800.000	-0.027	-0.118
-561.529	-67.472	0.176	-0.069
-560.515	78.412	-0.126	0.134
-559.500	-47.227	0.298	0.146
-558.485	272.013	-0.085	-0.150
-557.471	-160.622	0.161	0.009
-556.456	-123.475	-0.158	-0.025
-555.442	295.365	-0.052	-0.095
-554.427	-175.438	-0.276	-0.008
-553.412	-39.951	0.051	-0.027
-552.398	102.205	0.195	0.227
-551.383	-127.135	0.143	0.021
-550.369	-200.000	-0.060	-0.284
-549.354	154.663	0.144	0.198
-548.339	-46.572	-0.090	0.044
-547.325	381.667	-0.058	-0.119
-546.310	-23.377	0.175	-0.105
-545.296	25.271	0.380	-0.315
-544.281	-127.668	0.068	0.010
-543.266	138.073	-0.098	-0.129
-542.252	-149.953	-0.321	-0.025
-541.237	-200.000	-0.026	0.361
-540.223	-96.481	0.225	0.059
-539.208	-200.000	-0.014	-0.084
-538.193	381.735	0.041	0.084
-537.179	-200.000	-0.006	-0.133
-536.164	142.102	-0.198	-0.263
-535.150	-92.270	0.169	-0.048
-534.135	-94.122	0.206	-0.057
-533.121	-143.911	-0.217	-0.020
-532.106	265.367	-0.115	0.200
-531.091	88.472	-0.160	-0.178
-530.077	-200.000	-0.102	-0.508
-529.062	392.313	0.167	-0.346
-528.048	-200.000	-0.011	-0.256
-527.033	-200.000	0.011	-0.117
-526.018	-200.000	0.003	0.157
-525.004	-75.995	0.259	0.091
-523.989	60.271	-0.355	0.351
-522.975	82.637	0.163	-0.177
-521.960	-200.000	-0.007	-0.093
-520.945	10.735	0.170	-0.129
-519.931	65.594	-0.157	0.158
-518.916	498.538	-0.161	0.371
-517.902	291.669	-0.108	-0.196
-516.887	-138.318	-0.122	0.013
-515.872	-6.630	0.336	-0.229
-514.858	163.900	0.112	0.158
-513.843	-83.152	0.269	-0.086
-512.829	-200.000	-0.018	0.112
-511.814	411.060	-0.104	-0.220
-510.799	-200.000	-0.026	-0.314
-509.785	171.640	-0.160	0.229
-508.770	8.777	0.118	0.089
-507.756	319.259	0.096	0.182
-506.741	623.529	-0.063	-0.158
-505.726	-176.564	0.070	0.002
-504.712	-135.761	0.301	0.036
-503.697	156.696	-0.040	-0.056
-502.683	-200.000	0.000	-0.028
-501.668	328.175	-0.076	-0.146
-500.653	465.980	0.045	-0.101
-499.639	-35.838	-0.136	0.074
-498.624	64.581	0.047	-0.047
-497.610	-110.499	0.377	0.078
-496.595	-75.083	0.214	0.076
-495.581	-200.000	-0.010	0.240
-494.566	50.146	-0.239	-0.225
-493.551	61.235	0.197	-0.196
-492.537	196.131	-0.142	-0.216
-491.522	-42.504	0.039	-0.020
-490.508	-19.058	-0.154	-0.096
-489.493	182.340	0.209	0.308
-488.478	248.760	-0.099	0.168
-487.464	8.973	0.457	0.344
-486.449	239.199	-0.111	-0.184
-485.435	-133.857	0.135	0.017
-484.420	-200.000	-0.018	0.327
-483.405	39.098	-0.247	0.220
-482.391	659.436	-0.080	-0.204
-481.376	247.976	-0.058	0.097
-480.362	345.990	0.053	-0.104
-479.347	74.375	-0.146	0.153
-478.332	800.000	-0.096	0.285
-477.318	111.719	0.083	0.100
-476.303	-74.247	0.225	0.081
-475.289	15.142	0.225	0.176
-474.274	477.580	0.053	-0.120
-473.259	-87.016	-0.085	0.026
-472.245	-53.248	-0.213	-0.097
-471.230	-97.962	0.265	0.068
-470.216	386.014	-0.090	-0.185
-469.201	-9.173	0.119	-0.079
-468.186	-200.000	0.011	-0.207
-467.172	533.245	-0.138	-0.325
-466.157	-63.535	-0.260	0.106
-465.143	-129.516	-0.384	-0.053
-464.128	-35.175	0.268	-0.146
-463.113	268.612	0.012	-0.021
-462.099	268.874	-0.047	0.082
-461.084	-200.000	-0.005	-0.022
-460.070	-92.690	-0.162	0.045
-459.055	167.116	-0.010	0.014
-458.040	521.490	0.212	-0.497
-457.026	-134.333	-0.233	-0.028
-456.011	-79.830	0.055	-0.019
-454.997	-81.309	0.186	-0.061
-453.982	800.000	0.077	0.214
-452.968	-66.277	0.329	0.131
-451.953	11.958	0.217	-0.166
-450.938	-200.000	-0.001	0.252
-449.924	87.087	0.274	0.302
-448.909	-170.424	0.150	0.005
-447.895	43.991	-0.106	0.097
-446.880	800.000	-0.091	-0.363
-445.865	-200.000	-0.042	0.303
-444.851	-200.000	-0.008	0.218
-443.836	-116.832	-0.208	-0.038
-442.822	-138.404	-0.150	-0.016
-441.807	-150.634	0.086	0.007
-440.792	-184.992	0.049	0.001
-439.778	-113.392	-0.292	0.057
-438.763	337.023	-0.052	-0.100
-437.749	-107.465	-0.201	-0.044
-436.734	220.750	-0.049	0.079
-435.719	124.632	-0.115	0.144
-434.705	91.911	0.120	-0.135
-433.690	33.279	-0.452	0.391
-432.676	209.405	-0.125	-0.195
-431.661	-139.840	0.077	-0.008
-430.646	126.589	0.110	0.139
-429.632	-172.019	-0.092	0.003
-428.617	526.868	0.017	-0.041
-427.603	-128.781	-0.086	-0.012
-426.588	800.000	-0.059	0.242
-425.573	611.154	-0.062	-0.154
-424.559	800.000	-0.058	0.247
-423.544	305.271	0.127	-0.235
-422.530	-86.843	-0.154	-0.047
-421.515	-110.524	-0.158	-0.033
-420.500	384.679	-0.177	0.362
-419.486	-85.924	-0.289	0.089
-418.471	55.990	0.354	-0.341
-417.457	11.576	-0.135	0.103
-416.442	800.000	0.099	-0.359
-415.428	108.805	0.264	-0.314
-414.413	-9.544	-0.097	-0.064
-413.398	-69.438	-0.161	0.061
-412.384	120.930	-0.248	0.306
-411.369	377.063	-0.194	0.395
-410.355	-200.000	-0.016	0.222
-409.340	-9.126	0.196	-0.131
-408.325	-77.408	0.047	-0.016
-407.311	496.388	0.099	-0.227
-406.296	-61.216	0.008	0.003
-405.282	-200.000	-0.008	0.281
-404.267	398.983	0.153	-0.320
-403.252	-10.710	-0.160	-0.105
-402.238	768.844	0.126	0.340
-401.223	99.910	0.082	-0.094
-400.209	80.207	0.205	-0.220
-399.194	244.161	-0.129	-0.216
-398.179	55.282	-0.231	0.222
-397.165	800.000	0.039	-0.120
-396.150	189.093	-0.073	-0.108
-395.136	367.883	0.134	0.270
-394.121	-83.406	0.211	0.067
-393.106	-28.274	-0.147	0.084
-392.092	-29.691	0.119	0.068
-391.077	157.159	0.259	-0.356
-390.063	60.474	0.096	-0.095
-389.048	441.433	0.037	0.081
-388.033	-152.401	0.282	0.020
-387.019	-22.593	0.322	0.193
-386.004	800.000	-0.015	-0.061
-384.990	-67.481	-0.102	0.040
-383.975	-200.000	0.021	-0.099
-382.960	454.390	0.121	0.266
-381.946	78.368	-0.224	0.237
-380.931	-92.353	-0.178	-0.050
-379.917	800.000	-0.081	0.285
-378.902	-200.000	0.012	-0.177
-377.888	-200.000	0.062	0.348
-376.873	211.160	-0.081	0.126
-375.858	-59.733	0.195	-0.083
-374.844	209.248	0.070	0.109
-373.829	-3.550	-0.213	-0.147
-372.815	56.163	-0.117	0.113
-371.800	-41.257	0.355	0.182
-370.785	-62.911	-0.098	0.040
-369.771	-65.990	0.220	-0.087
-368.756	-53.492	-0.111	-0.050
-367.742	-200.000	0.045	-0.218
-366.727	-35.139	-0.134	0.072
-365.712	640.716	-0.141	0.355
-364.698	-64.902	0.204	0.082
-363.683	-200.000	0.030	-0.134
-362.669	179.230	-0.279	-0.405
-361.654	162.181	-0.219	-0.304
-360.639	180.456	0.179	0.261
-359.625	33.201	0.161	0.139
-358.610	-200.000	0.042	0.253
-357.596	23.273	0.051	-0.042
-356.581	238.443	-0.187	0.308
-355.566	76.621	-0.178	0.188
-354.552	175.856	-0.076	0.109
-353.537	52.018	0.060	0.057
-352.523	93.410	0.164	0.184
-351.508	-86.047	0.135	0.041
-350.493	192.103	-0.357	-0.534
-349.479	-94.134	-0.314	0.085
-348.464	-124.219	-0.101	0.016
-347.450	-117.179	-0.066	0.012
-346.435	-18.767	-0.183	0.113
-345.420	-55.804	-0.051	-0.023
-344.406	-23.990	0.144	0.086
-343.391	-43.117	-0.158	-0.079
-342.377	800.000	0.104	0.416
-341.362	43.567	-0.164	0.149
-340.348	-200.000	-0.048	-0.224
-339.333	7.889	-0.081	-0.060
-338.318	-124.276	-0.146	-0.023
-337.304	800.000	-0.091	-0.264
-336.289	156.964	0.155	-0.212
-335.275	358.805	0.249	-0.493
-334.260	82.495	0.137	0.148
-333.245	77.659	-0.172	-0.181
-332.231	213.180	-0.220	-0.345
-331.216	108.677	-0.055	0.065
-330.202	-200.000	0.001	0.088
-329.187	57.933	0.108	-0.105
-328.172	-169.132	0.218	-0.008
-327.158	-163.189	-0.175	0.008
-326.143	-200.000	0.028	0.151
-325.129	-111.978	-0.322	0.064
-324.114	305.005	-0.051	-0.095
-323.099	-76.257	0.506	-0.177
-322.085	-200.000	-0.042	0.223
-321.070	800.000	-0.093	0.290
-320.056	-200.000	0.007	0.066
-319.041	-17.403	-0.234	-0.146
-318.026	-41.328	0.222	-0.113
-317.012	37.347	-0.120	0.106
-315.997	-200.000	-0.035	0.265
-314.983	800.000	0.128	-0.374
-313.968	-200.000	0.028	-0.321
-312.953	99.526	-0.208	-0.239
-311.939	33.404	0.159	0.137
-310.924	61.103	-0.172	0.169
-309.910	125.126	0.051	0.064
-308.895	-31.016	0.287	0.160
-307.880	-200.000	0.021	0.152
-306.866	-200.000	-0.003	0.301
-305.851	800.000	0.165	-0.453
-304.837	-200.000	-0.008	0.384
-303.822	577.882	-0.033	0.079
-302.807	-43.529	0.158	0.079
-301.793	-200.000	-0.016	0.165
-300.778	371.956	-0.100	0.201
-299.764	-108.963	-0.143	-0.030
-298.749	-200.000	-0.039	-0.212
-297.735	-182.951	-0.118	-0.002
-296.720	-111.047	-0.145	0.030
-295.705	-200.000	0.037	-0.220
-294.691	4.895	-0.246	-0.179
-293.676	56.704	0.124	0.119
-292.662	280.281	-0.076	0.134
-291.647	-78.595	-0.474	-0.160
-290.632	-5.689	-0.007	0.005
-289.618	138.967	0.182	-0.237
-288.603	-163.469	-0.116	-0.005
-287.589	59.632	0.127	0.124
-286.574	55.440	0.153	-0.147
-285.559	185.787	-0.164	-0.241
-284.545	-145.498	-0.287	0.026
-283.530	8.075	0.183	0.136
-282.516	642.193	0.089	0.224
-281.501	1.780	0.336	0.240
-280.486	-200.000	0.014	0.345
-279.472	256.082	-0.103	0.174
-278.457	-21.974	-0.063	-0.038
-277.443	-66.760	-0.254	0.100
-276.428	-200.000	-0.074	-0.352
-275.413	-66.090	0.383	0.151
-274.399	-35.558	0.434	-0.233
-273.384	620.213	-0.047	-0.116
-272.370	-200.000	0.024	-0.298
-271.355	-63.028	-0.248	-0.101
-270.340	-200.000	-0.051	-0.234
-269.326	-200.000	-0.001	-0.224
-268.311	-62.878	0.322	-0.132
-267.297	-200.000	0.023	0.310
-266.282	-200.000	-0.027	-0.442
-265.267	381.976	0.050	0.102
-264.253	54.360	-0.136	0.130
-263.238	-84.071	0.240	0.075
-262.224	-190.380	0.153	0.002
-261.209	10.935	-0.110	-0.083
-260.195	212.896	-0.062	0.096
-259.180	-72.420	0.167	0.061
-258.165	-200.000	-0.027	-0.236
-257.151	-175.186	-0.179	-0.005
-256.136	800.000	0.071	0.266
-255.122	-174.887	0.112	0.003
-254.107	-14.428	0.054	0.034
-253.092	-54.608	-0.125	0.056
-252.078	-200.000	-0.024	0.234
-251.063	160.329	-0.078	-0.107
-250.049	-12.512	0.039	0.025
-249.034	-101.502	0.278	0.067
-248.019	800.000	-0.107	0.366
-247.005	-75.799	0.309	0.108
-245.990	-125.991	-0.081	0.012
-244.976	-117.576	0.128	0.023
-243.961	-133.184	0.189	-0.024
-242.946	-200.000	0.044	-0.214
-241.932	88.496	-0.218	0.240
-240.917	-87.045	-0.287	0.086
-239.903	-200.000	0.036	-0.359
-238.888	12.650	0.179	0.136
-237.873	-172.332	0.208	0.007
-236.859	408.749	0.120	0.252
-235.844	-200.000	0.027	-0.287
-234.830	-18.101	-0.265	-0.164
-233.815	-75.165	0.143	0.051
-232.800	-17.579	-0.151	0.094
-231.786	40.450	0.255	0.227
-230.771	-67.648	0.378	-0.146
-229.757	-200.000	-0.023	-0.205
-228.742	-105.028	0.470	-0.106
-227.727	-112.403	0.186	0.037
-226.713	800.000	-0.128	-0.393
-225.698	648.652	-0.050	-0.127
-224.684	-116.018	0.212	-0.039
-223.669	30.031	-0.267	0.224
-222.655	-43.596	-0.236	-0.117
-221.640	800.000	-0.084	0.288
-220.625	800.000	-0.028	-0.086
-219.611	108.199	-0.158	0.186
-218.596	419.263	-0.088	0.186
-217.582	523.664	-0.045	0.104
-216.567	70.080	-0.164	-0.167
-215.552	19.140	-0.189	0.150
-214.538	-200.000	-0.016	0.272
-213.523	-108.653	0.244	-0.052
-212.509	-51.237	-0.299	0.138
-211.494	-200.000	-0.003	0.179
-210.479	328.443	-0.143	0.272
-209.465	22.445	0.172	-0.139
-208.450	43.114	-0.207	-0.187
-207.436	-200.000	-0.018	-0.498
-206.421	-200.000	0.006	-0.073
-205.406	116.576	-0.231	-0.279
-204.392	21.057	-0.085	-0.068
-203.377	-200.000	-0.007	0.146
-202.363	476.920	-0.129	0.288
-201.348	-134.079	-0.303	0.037
-200.333	-46.557	0.148	0.071
-199.319	202.776	0.125	-0.190
-198.304	800.000	-0.096	-0.323
-197.290	13.416	0.081	-0.062
-196.275	-3.830	-0.195	-0.133
-195.260	62.091	-0.134	0.132
-194.246	38.647	-0.124	-0.109
-193.231	-17.470	0.196	0.122
-192.217	63.442	-0.155	0.153
-191.202	23.289	0.124	0.100
-190.187	800.000	0.025	0.094
-189.173	-41.983	0.177	0.089
-188.158	291.821	-0.230	-0.412
-187.144	156.502	-0.048	0.065
-186.129	423.479	0.137	-0.290
-185.114	800.000	-0.083	-0.343
-184.100	-200.000	0.016	0.179
-183.085	-82.044	-0.097	-0.031
-182.071	268.988	-0.195	0.338
-181.056	-147.967	-0.041	-0.003
-180.042	75.864	0.460	0.479
-179.027	-118.011	-0.320	0.056
-178.012	-127.237	-0.281	0.040
-176.998	-164.509	-0.086	-0.004
-175.983	101.741	0.049	0.056
-174.969	98.663	0.149	0.170
-173.954	503.172	0.154	0.351
-172.939	7.621	0.208	-0.154
-171.925	-200.000	-0.043	0.236
-170.910	338.113	-0.098	-0.189
-169.896	268.431	0.105	0.181
-168.881	-55.468	-0.121	0.053
-167.866	8.164	0.253	-0.187
-166.852	127.498	-0.197	0.247
-165.837	98.719	0.044	0.050
-164.823	-91.781	-0.170	0.047
-163.808	5.238	0.136	0.099
-162.793	-121.942	-0.316	-0.051
-161.779	800.000	-0.054	0.165
-160.764	33.991	-0.233	0.200
-159.750	480.754	-0.109	-0.243
-158.735	223.967	0.154	0.246
-157.720	-200.000	0.013	0.142
-156.706	-154.117	0.182	-0.012
-155.691	-200.000	0.006	-0.077
-154.677	44.908	0.102	0.092
-153.662	-55.158	0.200	-0.089
-152.647	-19.519	0.203	0.124
-151.633	-56.267	0.131	0.058
-150.618	-157.947	0.332	0.019
-149.604	-110.172	-0.062	-0.013
-148.589	-23.301	0.250	0.148
-147.574	-12.976	0.080	0.051
-146.560	-200.000	0.025	-0.250
-145.545	117.167	0.302	-0.365
-144.531	-126.516	-0.269	-0.039
-143.516	-200.000	0.015	-0.276
-142.502	-62.484	0.138	0.056
-141.487	574.145	0.068	-0.162
-140.472	-131.633	-0.190	0.025
-139.458	36.829	-0.172	-0.150
-138.443	800.000	0.095	-0.272
-137.429	239.788	0.082	-0.135
-136.414	800.000	-0.034	-0.139
-135.399	692.246	0.142	0.367
-134.385	-200.000	0.032	0.235
-133.370	227.084	0.114	-0.182
-132.356	-200.000	-0.023	0.187
-131.341	-107.459	-0.223	-0.048
-130.326	797.814	-0.067	-0.181
-129.312	209.488	0.077	0.119
-128.297	449.740	-0.094	-0.205
-127.283	-200.000	0.023	-0.194
-126.268	800.000	-0.082	0.225
-125.253	-200.000	-0.039	0.312
-124.239	181.573	0.274	0.396
-123.224	-152.234	0.227	0.016
-122.210	-5.549	-0.158	0.106
-121.195	204.563	-0.048	-0.073
-120.180	800.000	0.058	-0.240
-119.166	800.000	-0.029	0.106
-118.151	8.841	-0.136	0.101
-117.137	-114.727	0.058	-0.011
-116.122	68.021	0.070	0.071
-115.107	-60.605	0.157	-0.065
-114.093	-134.008	0.161	0.020
-113.078	-200.000	-0.007	-0.196
-112.064	-99.633	-0.188	-0.046
-111.049	800.000	0.050	-0.215
-110.034	-196.484	0.175	-0.001
-109.020	-20.345	-0.220	-0.133
-108.005	57.209	0.055	0.052
-106.991	232.513	0.279	0.450
-105.976	87.750	0.128	-0.139
-104.962	-149.279	0.238	0.019
-103.947	-200.000	0.009	-0.220
-102.932	47.793	0.097	-0.089
-101.918	17.041	-0.148	-0.115
-100.903	37.623	0.174	0.152
-99.889	-77.772	-0.069	-0.023
-98.874	-79.195	0.133	-0.044
-97.859	762.641	0.093	-0.249
-96.845	-200.000	0.014	-0.150
-95.830	-108.821	-0.131	0.027
-94.816	229.892	-0.200	-0.321
-93.801	-200.000	0.030	-0.399
-92.786	-200.000	-0.003	-0.148
-91.772	91.337	-0.019	0.021
-90.757	88.067	-0.185	0.202
-89.743	633.063	-0.017	-0.042
-88.728	-21.310	0.274	-0.165
-87.713	156.604	-0.156	0.212
-86.699	-200.000	0.023	0.151
-85.684	514.197	-0.076	-0.174
-84.670	-81.018	-0.415	0.135
-83.655	89.782	0.018	-0.020
-82.640	-200.000	-0.062	0.307
-81.626	-200.000	-0.013	-0.093
-80.611	-6.411	0.063	0.042
-79.597	105.278	-0.165	0.191
-78.582	74.041	-0.142	-0.146
-77.567	45.887	0.167	-0.152
-76.553	-200.000	0.000	0.160
-75.538	-111.602	-0.197	0.039
-74.524	136.412	0.114	0.146
-73.509	-200.000	-0.050	0.530
-72.494	91.884	-0.353	0.390
-71.480	763.182	0.020	-0.053
-70.465	-3.952	0.360	-0.245
-69.451	-200.000	0.020	0.107
-68.436	101.585	-0.325	0.372
-67.422	-200.000	-0.008	0.035
-66.407	346.924	0.116	0.223
-65.392	491.910	0.174	0.391
-64.378	-31.707	0.243	0.134
-63.363	-182.706	0.401	0.007
-62.349	-200.000	-0.011	0.170
-61.334	-20.314	-1.324	-0.800
-60.319	6.367	0.795	0.579
-59.305	258.373	-0.713	-1.205
-58.290	151.864	0.789	1.055
-57.276	800.000	0.518	1.708
-56.261	-200.000	111.240	633.796
-55.246	471.725	1502.408	3317.355
-54.232	147.522	2667.700	3524.944
-53.217	105.147	2155.770	2495.838
-52.203	39.222	1605.169	1408.938
-51.188	30.951	1351.544	1136.106
-50.173	28.058	1313.126	1086.603
-49.159	54.571	1368.349	1293.679
-48.144	53.817	1383.427	1303.326
-47.130	31.233	1339.171	1127.229
-46.115	27.761	1321.700	1091.752
-45.100	27.646	1316.480	1086.709
-44.086	27.558	1314.184	1084.246
-43.071	27.446	1312.157	1081.867
-42.057	27.523	1309.855	1080.380
-41.042	27.494	1308.273	1078.865
-40.027	27.535	1306.695	1077.761
-39.013	27.575	1304.775	1076.373
-37.998	27.636	1302.733	1075.005
-36.984	27.581	1301.673	1073.763
-35.969	27.666	1299.545	1072.462
-34.954	27.728	1297.587	1071.167
-33.940	27.685	1296.454	1069.942
-32.925	27.790	1295.119	1069.409
-31.911	27.812	1293.514	1068.171
-30.896	27.720	1292.266	1066.563
-29.881	27.805	1290.890	1065.878
-28.867	27.742	1289.411	1064.247
-27.852	27.677	1288.682	1063.227
-26.838	27.734	1286.733	1061.907
-25.823	27.782	1285.594	1061.204
-24.809	27.672	1284.373	1059.515
-23.794	27.749	1282.825	1058.644
-22.779	27.763	1281.487	1057.576
-21.765	27.825	1279.942	1056.621
-20.750	27.719	1279.379	1055.497
-19.736	27.629	1277.670	1053.528
-18.721	27.653	1276.286	1052.483
-17.706	27.704	1274.937	1051.623
-16.692	27.657	1274.458	1050.915
-15.677	27.612	1273.388	1049.730
-14.663	27.669	1271.927	1048.815
-13.648	27.618	1270.999	1047.716
-12.633	27.634	1269.649	1046.652
-11.619	27.686	1269.009	1046.380
-10.604	27.588	1268.348	1045.232
-9.590	27.663	1266.953	1044.471
-8.575	27.657	1265.584	1043.266
-7.560	27.573	1265.598	1042.753
-6.546	27.490	1264.763	1041.549
-5.531	27.570	1263.505	1040.931
-4.517	27.633	1262.735	1040.617
-3.502	27.658	1261.765	1039.917
-2.487	27.591	1260.888	1038.771
-1.473	27.662	1256.966	1035.900
-0.458	26.326	1242.004	1016.025
0.556	21.220	1225.880	979.140
1.571	17.835	1231.713	964.610
2.586	16.752	1247.144	970.405
3.600	16.647	1234.979	960.256
4.615	12.338	1161.768	880.210
5.629	4.226	1087.666	783.153
6.644	0.521	1067.829	750.404
7.659	-0.011	1066.237	746.576
8.673	-0.003	1065.319	745.909
9.688	0.025	1064.004	745.063
10.702	0.251	1061.869	744.621
11.717	5.263	1067.491	773.352
12.731	13.016	1078.625	820.007
13.746	16.953	1082.779	842.690
14.761	17.014	1082.081	842.378
15.775	16.099	1080.434	836.482
16.790	15.060	1077.992	829.374
17.804	14.322	1076.615	824.585
18.819	14.038	1075.612	822.339
19.834	13.823	1074.813	820.592
20.848	13.421	1074.268	818.116
21.863	13.303	1072.617	816.206
22.877	13.078	1072.480	814.921
23.892	13.061	1071.371	813.919
24.907	13.028	1070.945	813.364
25.921	13.209	1070.060	813.510
26.936	13.200	1068.923	812.528
27.950	13.227	1068.391	812.183
28.965	13.337	1066.915	811.533
29.980	13.318	1065.250	810.098
30.994	13.402	1064.479	809.852
32.009	13.400	1063.585	809.090
33.023	13.492	1062.093	808.336
34.038	13.336	1061.437	807.001
35.053	13.235	1060.565	805.773
36.067	13.358	1059.331	805.367
37.082	13.212	1059.196	804.480
38.096	13.296	1058.421	804.228
39.111	13.307	1057.904	803.820
40.126	13.235	1056.085	802.015
41.140	13.110	1055.272	800.721
42.155	13.162	1054.096	800.011
43.169	13.031	1053.195	798.623
44.184	13.041	1052.006	797.698
45.199	12.954	1051.424	796.768
46.213	13.194	1049.785	796.612
47.228	13.253	1048.805	796.081
48.242	13.210	1047.609	794.895
49.257	13.116	1046.860	793.808
50.271	13.131	1046.333	793.407
51.286	13.161	1045.180	792.606
52.301	13.090	1044.090	791.368
53.315	13.225	1042.628	790.836
54.330	13.172	1042.020	790.052
55.344	13.129	1041.194	789.150
56.359	13.133	1040.211	788.354
57.374	13.170	1039.230	787.720
58.388	13.155	1038.010	786.652
59.403	13.052	1037.829	785.958
60.417	13.009	1036.871	784.958
61.432	12.996	1036.229	784.340
62.447	13.088	1035.370	784.057
63.461	13.012	1034.249	782.779
64.476	13.102	1033.284	782.404
65.490	12.999	1032.492	781.248
66.505	13.133	1032.139	781.544
67.520	12.998	1031.507	780.359
68.534	12.975	1030.812	779.658
69.549	13.097	1029.682	779.306
70.563	13.043	1028.937	778.422
71.578	12.948	1028.383	777.484
72.593	12.941	1027.450	776.678
73.607	12.931	1026.407	775.776
74.622	12.898	1026.474	775.603
75.636	12.971	1025.002	774.761
76.651	13.066	1024.453	774.726
77.666	13.081	1024.063	774.435
78.680	13.137	1023.178	773.958
79.695	12.984	1022.332	772.532
80.709	13.088	1021.597	772.396
81.724	13.059	1020.914	771.677
82.739	13.114	1020.599	771.623
83.753	13.176	1019.868	771.293
84.768	13.240	1018.783	770.703
85.782	13.224	1017.774	769.799
86.797	13.229	1017.050	769.202
87.812	13.100	1016.410	768.052
88.826	13.114	1015.335	767.239
89.841	13.185	1014.151	766.604
90.855	13.171	1013.177	765.735
91.870	13.213	1012.869	765.631
92.884	13.294	1011.637	765.006
93.899	13.315	1011.092	764.622
94.914	13.445	1010.281	764.542
95.928	13.389	1009.191	763.389
96.943	13.300	1008.083	762.074
97.957	13.199	1007.542	761.136
98.972	13.240	1006.386	760.384
99.987	13.348	1005.514	760.150
101.001	13.303	1004.585	759.176
102.016	13.366	1003.676	758.709
103.030	13.375	1002.797	758.023
104.045	13.327	1002.510	757.518
105.060	13.267	1001.467	756.385
106.074	13.285	1000.201	755.445
107.089	13.225	999.356	754.465
108.103	13.181	998.647	753.667
109.118	13.153	997.598	752.680
110.133	13.149	996.913	752.079
111.147	12.992	996.095	750.681
112.162	13.286	995.156	751.242
113.176	13.335	994.382	750.812
114.191	13.333	993.394	749.992
115.206	13.229	992.897	749.076
116.220	13.252	991.714	748.222
117.235	13.338	990.566	747.681
118.249	13.093	990.729	746.631
119.264	13.284	989.463	746.473
120.279	13.247	988.450	745.475
121.293	13.124	987.912	744.447
122.308	13.203	986.954	744.018
123.322	13.134	985.948	742.883
124.337	13.078	984.935	741.801
125.352	13.202	983.350	741.099
126.366	13.065	983.067	740.203
127.381	13.256	981.370	739.718
128.395	13.166	981.008	738.974
129.410	13.368	979.519	738.692
130.424	13.244	979.067	737.729
131.439	13.233	978.408	737.119
132.454	13.156	977.977	736.389
133.468	13.325	976.657	736.080
134.483	13.229	976.069	735.143
135.497	13.104	975.345	733.980
136.512	13.292	974.092	733.805
137.527	13.084	973.951	732.712
138.541	13.272	972.809	732.622
139.556	13.305	972.058	732.136
140.570	13.353	971.418	731.802
141.585	13.388	970.499	731.198
142.600	13.349	969.682	730.345
143.614	13.390	968.782	729.785
144.629	13.482	967.640	729.265
145.643	13.429	967.120	728.575
146.658	13.469	966.103	727.923
147.673	13.299	965.152	726.394
148.687	13.322	964.718	726.105
149.702	13.401	963.371	725.373
150.716	13.262	963.021	724.433
151.731	13.435	961.859	724.256
152.746	13.331	961.740	723.644
153.760	13.505	960.638	723.511
154.775	13.455	959.958	722.717
155.789	13.432	959.837	722.463
156.804	13.526	959.219	722.342
157.819	13.400	958.499	721.190
158.833	13.445	957.810	720.802
159.848	13.714	956.373	720.827
160.862	13.527	955.939	719.622
161.877	13.408	954.979	718.321
162.892	13.407	954.035	717.543
163.906	13.438	953.168	716.960
164.921	13.447	952.020	716.073
165.935	13.460	951.335	715.549
166.950	13.560	950.232	715.090
167.964	13.513	949.697	714.423
168.979	13.508	949.093	713.883
169.994	13.621	947.982	713.468
171.008	13.611	947.149	712.737
172.023	13.594	946.626	712.208
173.037	13.625	946.071	711.860
174.052	13.667	945.541	711.576
175.067	13.440	944.879	710.044
176.081	13.689	943.864	710.285
177.096	13.610	943.657	709.726
178.110	13.497	943.164	708.809
179.125	13.471	942.718	708.302
180.140	13.641	942.091	708.494
181.154	13.670	941.492	708.103
182.169	13.727	940.764	707.736
183.183	13.833	939.814	707.413
184.198	13.822	939.441	707.020
185.213	13.656	938.585	705.606
186.227	13.937	937.781	706.134
187.242	13.886	937.014	705.278
188.256	13.855	936.582	704.762
189.271	13.701	936.334	703.859
190.286	13.852	935.165	703.555
191.300	13.725	934.384	702.368
192.315	13.626	934.017	701.611
193.329	13.687	933.377	701.327
194.344	13.750	932.777	701.080
195.359	13.758	931.915	700.403
196.373	13.943	931.537	700.840
197.388	13.800	931.339	700.024
198.402	13.912	930.705	699.958
199.417	14.030	929.755	699.680
200.432	14.046	929.274	699.323
201.446	14.046	928.893	698.974
202.461	14.226	928.076	699.052
203.475	14.190	927.778	698.616
204.490	13.931	927.118	696.971
205.504	14.038	926.092	696.584
206.519	14.021	925.173	695.763
207.534	14.054	924.432	695.280
208.548	13.991	923.820	694.497
209.563	13.992	923.419	694.137
210.577	13.978	923.085	693.764
211.592	14.062	922.170	693.367
212.607	14.221	920.893	693.008
213.621	14.034	920.559	691.916
214.636	14.081	919.919	691.572
215.650	14.217	919.067	691.436
216.665	14.301	918.437	691.245
217.680	14.219	917.741	690.323
218.694	14.380	916.651	690.110
219.709	14.248	916.642	689.494
220.723	14.293	915.973	689.117
221.738	14.279	915.196	688.410
222.753	14.357	914.457	688.116
223.767	14.432	913.745	687.830
224.782	14.314	913.285	686.938
225.796	14.457	912.310	686.733
226.811	14.411	911.844	686.132
227.826	14.332	911.143	685.219
228.840	14.461	909.943	684.785
229.855	14.381	909.498	684.059
230.869	14.290	908.941	683.207
231.884	14.332	908.353	682.877
232.899	14.344	907.430	682.172
233.913	14.286	906.951	681.513
234.928	14.243	906.194	680.709
235.942	14.245	905.890	680.429
236.957	14.328	905.002	680.041
237.972	14.406	904.114	679.629
238.986	14.321	903.753	678.955
240.001	14.332	903.150	678.487
241.015	14.385	902.274	677.983
242.030	14.430	901.603	677.601
243.045	14.560	901.494	677.986
244.059	14.470	900.815	677.050
245.074	14.543	899.869	676.578
246.088	14.618	898.796	676.014
247.103	14.463	898.675	675.235
248.117	14.601	897.953	675.194
249.132	14.707	897.461	675.192
250.147	14.852	896.681	675.130
251.161	14.747	895.978	674.116
252.176	14.911	895.069	674.035
253.190	14.849	894.858	673.565
254.205	14.843	894.061	672.884
255.220	14.788	893.911	672.488
256.234	14.838	892.763	671.768
257.249	14.904	892.780	671.983
258.263	14.909	891.499	670.984
259.278	14.936	890.840	670.536
260.293	14.973	890.356	670.260
261.307	15.080	889.750	670.174
262.322	15.011	888.973	669.253
263.336	15.107	888.538	669.250
264.351	15.136	887.881	668.810
265.366	15.039	887.191	667.846
266.380	14.987	886.940	667.387
267.395	15.148	885.822	667.132
268.409	15.127	885.204	666.524
269.424	15.079	884.202	665.517
270.439	15.080	883.768	665.135
271.453	15.171	882.788	664.702
272.468	15.112	882.453	664.157
273.482	15.043	881.938	663.435
274.497	14.992	881.315	662.708
275.512	15.162	880.480	662.693
276.526	15.081	880.372	662.231
277.541	15.151	879.787	662.012
278.555	15.209	879.166	661.713
279.570	15.164	878.503	660.980
280.585	15.351	877.617	660.991
281.599	15.196	876.809	659.713
282.614	15.222	876.096	659.223
283.628	15.149	875.687	658.567
284.643	15.368	875.203	659.004
285.657	15.267	874.249	657.832
286.672	15.319	873.576	657.471
287.687	15.457	872.558	657.186
288.701	15.451	872.644	657.172
289.716	15.332	871.872	656.067
290.730	15.410	871.421	655.973
291.745	15.458	870.626	655.506
292.760	15.395	870.201	654.880
293.774	15.564	869.511	654.964
294.789	15.459	868.783	653.948
295.803	15.645	867.969	654.002
296.818	15.475	867.478	652.912
297.833	15.483	866.775	652.357
298.847	15.439	866.159	651.663
299.862	15.590	865.799	651.921
300.876	15.553	864.950	651.081
301.891	15.560	864.619	650.799
302.906	15.531	864.286	650.379
303.920	15.643	863.925	650.483
304.935	15.621	862.943	649.601
305.949	15.673	862.395	649.335
306.964	15.620	861.696	648.546
307.979	15.638	861.662	648.531
308.993	15.744	860.607	648.088
310.008	15.807	859.602	647.518
311.022	15.742	859.472	647.111
312.037	15.694	858.985	646.504
313.052	15.602	858.348	645.612
314.066	15.694	857.596	645.344
315.081	15.663	857.498	645.092
316.095	15.649	856.317	644.096
317.110	15.759	855.941	644.176
318.125	15.745	855.335	643.609
319.139	15.757	854.998	643.346
320.154	15.839	854.207	643.005
321.168	15.847	853.601	642.525
322.183	15.966	853.232	642.643
323.197	15.956	852.740	642.177
324.212	15.779	852.181	641.026
325.227	15.832	851.497	640.654
326.241	15.851	851.075	640.352
327.256	15.816	850.599	639.806
328.270	15.822	850.087	639.386
329.285	15.808	849.004	638.463
330.300	15.883	848.797	638.536
331.314	15.791	848.523	637.923
332.329	15.936	847.711	637.805
333.343	15.915	847.441	637.467
334.358	15.913	846.823	636.937
335.373	15.944	846.498	636.753
336.387	16.025	846.263	636.827
337.402	15.975	846.170	636.511
338.416	16.169	845.424	636.628
339.431	16.226	844.858	636.359
340.446	16.153	844.771	635.963
341.460	16.141	844.435	635.606
342.475	16.099	843.926	635.008
343.489	16.130	843.276	634.582
344.504	16.309	842.685	634.752
345.519	16.406	842.504	634.924
346.533	16.248	842.127	633.991
347.548	16.232	841.378	633.312
348.562	16.369	840.514	633.120
349.577	16.284	840.269	632.558
350.592	16.088	839.799	631.416
351.606	16.153	839.391	631.295
352.621	16.210	838.419	630.722
353.635	16.365	837.707	630.710
354.650	16.348	837.014	630.067
355.665	16.286	836.378	629.305
356.679	16.320	835.447	628.675
357.694	16.314	835.236	628.439
358.708	16.396	834.752	628.322
359.723	16.539	833.725	628.026
360.738	16.392	833.446	627.213
361.752	16.459	832.620	626.784
362.767	16.495	832.102	626.473
363.781	16.557	831.692	626.340
364.796	16.570	831.409	626.117
365.810	16.585	830.801	625.659
366.825	16.534	830.797	625.411
367.840	16.577	830.045	624.952
368.854	16.396	830.081	624.254
369.869	16.540	829.264	624.115
370.883	16.629	828.430	623.761
371.898	16.557	828.676	623.625
372.913	16.615	828.261	623.470
373.927	16.683	827.792	623.315
374.942	16.689	827.107	622.763
375.956	16.656	826.556	622.173
376.971	16.825	826.156	622.439
377.986	16.798	825.657	621.909
379.000	16.904	825.023	621.765
380.015	16.869	824.273	621.015
381.029	16.811	824.126	620.637
382.044	16.863	823.511	620.311
383.059	16.884	822.840	619.825
384.073	16.854	822.043	619.060
385.088	16.921	821.507	618.846
386.102	16.973	820.900	618.526
387.117	16.803	820.849	617.811
388.132	16.734	820.254	617.058
389.146	16.875	819.677	617.083
390.161	17.083	819.096	617.348
391.175	16.936	818.742	616.491
392.190	17.022	817.963	616.163
393.205	16.787	818.088	615.349
394.219	17.002	817.200	615.405
395.234	16.974	816.827	614.971
396.248	17.026	816.415	614.793
397.263	17.008	815.869	614.263
398.278	16.853	815.671	613.499
399.292	16.901	815.410	613.421
400.307	16.906	814.766	612.902
401.321	17.031	814.170	612.849
402.336	17.009	813.436	612.164
403.350	17.125	813.130	612.298
404.365	17.166	812.600	611.992
405.380	17.190	812.094	611.642
406.394	17.108	811.921	611.164
407.409	17.244	811.512	611.289
408.423	17.164	811.167	610.691
409.438	17.117	811.103	610.419
410.453	17.336	810.278	610.530
411.467	17.274	809.910	609.978
412.482	17.266	809.377	609.490
413.496	17.391	809.003	609.602
414.511	17.412	808.402	609.171
415.526	17.368	807.946	608.618
416.540	17.340	807.719	608.293
417.555	17.439	807.233	608.225
418.569	17.495	806.643	607.928
419.584	17.356	806.327	607.140
420.599	17.463	805.766	607.045
421.613	110.739	1294.998	1477.143
422.628	95.505	1366.252	1477.230
