DTS Sentinel unit serial number:	SN413079Multiplexer serial number:	ORYXHardware model number:	OX4-SRSoftware version number:	ORYX F/W v4.00 Oryx Data Collector v3.7.2.0data status	okinstallation	princeton_trtdifferential loss correction	single-endedforward channel	channel 1reverse channel	N/Adate	2019/09/15time	02:02:35forward acquisition time	60.00reverse acquisition time	0.00gamma	496.2192k internal	0.2322k external	0.2322temperature offset calibration	0.9981default loss term (dB/km)	0.3790temperature slope calibration	1.0000multiplexer offset coefficient	1.0000multiplexer slope coefficient	1.0000fibre end	0.00T internal ref (°C)	31.75T ext. ref 1 (°C)	4.53T ext. ref 2 (°C)	26.44length (m)	temperature (°C)	Stokes	anti-Stokes-747.200	-200.000	-0.034	0.235
-746.185	-101.552	0.343	0.084
-745.171	-159.581	-0.355	-0.020
-744.156	-99.481	0.241	-0.061
-743.142	-111.258	-0.099	0.021
-742.127	-181.890	0.247	-0.005
-741.112	-76.130	-0.254	0.090
-740.098	-96.597	-0.170	0.045
-739.083	468.535	0.043	-0.097
-738.069	666.136	-0.202	0.528
-737.054	322.733	0.106	0.204
-736.039	104.983	0.127	0.151
-735.025	-156.073	0.351	-0.022
-734.010	8.951	0.214	0.163
-732.996	-200.000	-0.050	-0.436
-731.981	589.869	0.025	-0.063
-730.966	-90.157	-0.274	0.081
-729.952	71.747	0.145	-0.152
-728.937	-104.561	-0.078	0.018
-727.923	-48.878	0.180	-0.087
-726.908	-97.419	-0.249	-0.065
-725.894	-33.006	-0.177	0.099
-724.879	-200.000	-0.003	-0.037
-723.864	554.580	-0.064	-0.156
-722.850	-200.000	0.045	-0.290
-721.835	-89.405	-0.226	0.067
-720.821	-99.229	-0.172	-0.044
-719.806	231.085	0.049	0.081
-718.791	79.364	0.127	0.137
-717.777	-89.827	0.412	0.122
-716.762	3.017	-0.055	0.040
-715.748	323.663	0.066	-0.127
-714.733	-200.000	0.019	0.131
-713.718	-34.364	0.099	-0.055
-712.704	52.029	-0.242	-0.233
-711.689	-153.816	-0.230	-0.016
-710.675	800.000	0.079	0.292
-709.660	-164.851	-0.230	-0.010
-708.645	-143.837	0.156	-0.015
-707.631	-146.257	-0.185	0.016
-706.616	-81.975	-0.340	-0.112
-705.602	-105.491	-0.141	0.032
-704.587	-134.060	0.093	-0.012
-703.572	276.982	-0.053	0.094
-702.558	-36.994	-0.509	0.275
-701.543	-50.609	-0.197	0.094
-700.529	-200.000	-0.004	-0.040
-699.514	-123.366	-0.291	-0.047
-698.499	-90.173	-0.304	0.089
-697.485	-2.708	-0.167	-0.118
-696.470	-127.835	0.218	0.032
-695.456	-145.712	0.167	0.015
-694.441	357.260	0.151	0.304
-693.426	186.283	-0.094	-0.141
-692.412	-70.513	0.203	0.078
-691.397	328.054	-0.129	0.249
-690.383	800.000	0.041	-0.144
-689.368	10.323	-0.186	0.143
-688.354	164.935	0.015	-0.021
-687.339	800.000	-0.046	0.177
-686.324	800.000	0.083	-0.343
-685.310	-134.230	0.517	-0.064
-684.295	-22.629	-0.110	0.067
-683.281	-200.000	0.017	0.127
-682.266	-129.705	-0.049	-0.007
-681.251	-6.546	0.134	0.092
-680.237	15.016	-0.199	0.157
-679.222	241.184	0.150	-0.252
-678.208	-200.000	0.012	-0.150
-677.193	-34.485	0.416	0.229
-676.178	-200.000	0.068	0.392
-675.164	-200.000	-0.036	0.266
-674.149	46.276	0.252	-0.235
-673.135	-6.905	-0.135	-0.092
-672.120	36.868	-0.208	-0.185
-671.105	312.354	0.151	-0.285
-670.091	-20.705	-0.208	-0.129
-669.076	-78.936	-0.348	-0.119
-668.062	800.000	0.121	-0.465
-667.047	100.078	-0.134	0.157
-666.032	60.553	0.135	-0.135
-665.018	-28.098	-0.166	0.097
-664.003	-140.161	-0.063	-0.007
-662.989	-81.469	0.197	0.065
-661.974	279.832	0.103	0.186
-660.959	-200.000	-0.013	0.130
-659.945	619.888	-0.091	-0.231
-658.930	800.000	-0.082	-0.345
-657.916	-200.000	-0.049	0.242
-656.901	-15.767	-0.077	0.050
-655.886	46.695	-0.185	0.173
-654.872	-77.638	-0.193	0.067
-653.857	-110.010	-0.275	0.058
-652.843	28.680	0.203	0.173
-651.828	150.626	0.224	0.306
-650.814	318.085	0.107	0.204
-649.799	83.417	0.023	0.026
-648.784	-131.541	-0.062	-0.008
-647.770	105.383	-0.071	0.084
-646.755	-17.650	0.130	0.082
-645.741	-200.000	0.117	0.634
-644.726	26.372	-0.107	-0.090
-643.711	-90.960	-0.307	-0.089
-642.697	4.957	0.091	0.067
-641.682	458.726	-0.082	-0.184
-640.668	-200.000	-0.038	-0.238
-639.653	-110.149	-0.136	0.029
-638.638	800.000	-0.072	-0.287
-637.624	-200.000	-0.025	-0.186
-636.609	-156.117	0.136	0.009
-635.595	-200.000	-0.040	-0.258
-634.580	-71.465	0.043	-0.016
-633.565	800.000	-0.120	0.473
-632.551	35.900	-0.068	-0.060
-631.536	-200.000	-0.034	-0.183
-630.522	40.514	-0.154	-0.140
-629.507	173.814	-0.139	0.202
-628.492	5.347	-0.126	-0.094
-627.478	52.265	-0.150	-0.144
-626.463	800.000	0.068	0.256
-625.449	-161.094	0.183	-0.010
-624.434	147.907	-0.048	-0.065
-623.419	569.149	0.032	-0.079
-622.405	-19.220	-0.386	0.241
-621.390	-37.402	0.342	-0.183
-620.376	372.746	0.007	0.014
-619.361	-2.011	0.135	0.095
-618.346	-189.810	0.117	-0.001
-617.332	569.729	-0.111	0.270
-616.317	-59.895	0.164	-0.070
-615.303	-88.392	-0.131	-0.039
-614.288	800.000	0.041	0.138
-613.273	-120.179	0.317	-0.054
-612.259	-4.005	0.218	-0.152
-611.244	119.436	0.159	-0.197
-610.230	-74.644	-0.094	-0.034
-609.215	-167.541	0.275	0.011
-608.201	-168.088	-0.296	0.012
-607.186	-92.421	0.105	0.030
-606.171	447.185	-0.044	-0.096
-605.157	-200.000	-0.022	0.244
-604.142	246.665	-0.034	0.058
-603.128	-70.967	-0.286	-0.108
-602.113	789.266	0.060	-0.166
-601.098	-93.814	0.129	0.036
-600.084	-200.000	0.010	0.281
-599.069	64.859	0.224	0.227
-598.055	-94.417	-0.285	0.078
-597.040	800.000	-0.162	-0.557
-596.025	-75.561	0.316	0.113
-595.011	505.945	0.067	0.155
-593.996	-80.655	-0.312	0.104
-592.982	-82.895	-0.361	-0.117
-591.967	720.578	-0.057	0.153
-590.952	53.071	-0.134	0.129
-589.938	107.813	0.272	0.326
-588.923	39.684	-0.105	-0.095
-587.909	74.126	0.218	-0.230
-586.894	-73.307	0.078	-0.029
-585.879	-109.898	-0.224	-0.047
-584.865	-118.175	-0.133	-0.024
-583.850	327.724	0.060	0.116
-582.836	155.235	0.040	0.055
-581.821	450.014	0.069	-0.153
-580.806	41.165	0.049	0.045
-579.792	-74.897	-0.304	0.109
-578.777	689.786	0.053	-0.139
-577.763	800.000	-0.084	-0.297
-576.748	-3.365	-0.227	0.159
-575.733	-200.000	-0.025	0.144
-574.719	-173.031	-0.191	-0.006
-573.704	-133.391	0.218	0.027
-572.690	-90.082	-0.095	0.028
-571.675	624.820	0.077	0.196
-570.661	-174.560	-0.213	0.006
-569.646	-149.988	0.072	-0.006
-568.631	-200.000	0.006	0.217
-567.617	39.193	0.390	-0.350
-566.602	-200.000	-0.015	-0.160
-565.588	739.214	0.116	-0.312
-564.573	800.000	0.057	0.163
-563.558	-14.942	-0.094	-0.060
-562.544	-80.804	-0.141	0.047
-561.529	542.272	0.042	0.101
-560.515	-171.639	0.107	-0.004
-559.500	796.335	0.076	-0.209
-558.485	-94.840	0.081	0.022
-557.471	339.158	-0.140	-0.273
-556.456	29.856	0.132	0.113
-555.442	800.000	0.013	-0.048
-554.427	9.443	0.190	-0.144
-553.412	-200.000	-0.084	-0.471
-552.398	-37.658	-0.068	0.036
-551.383	-117.600	-0.113	0.020
-550.369	-200.000	-0.134	0.000
-549.354	-200.000	-0.039	-0.229
-548.339	112.077	0.180	-0.218
-547.325	237.969	-0.156	-0.260
-546.310	115.606	0.252	-0.309
-545.296	-200.000	-0.005	-0.218
-544.281	344.552	0.077	-0.152
-543.266	58.842	0.126	-0.124
-542.252	132.247	-0.230	-0.297
-541.237	-118.720	-0.174	-0.031
-540.223	661.923	-0.058	0.150
-539.208	169.053	0.158	0.226
-538.193	96.931	0.175	-0.202
-537.179	-73.529	0.111	0.041
-536.164	306.998	-0.091	-0.169
-535.150	-34.789	0.171	-0.094
-534.135	-60.542	0.132	-0.056
-533.121	-70.805	-0.227	0.086
-532.106	177.534	-0.068	0.100
-531.091	44.084	-0.083	0.076
-530.077	-200.000	0.070	0.349
-529.062	97.605	0.081	0.093
-528.048	72.214	0.198	-0.207
-527.033	-130.198	0.113	0.015
-526.018	-200.000	-0.363	-0.000
-525.004	-50.892	0.156	0.073
-523.989	32.474	-0.217	-0.187
-522.975	92.532	0.297	0.335
-521.960	186.938	0.042	-0.063
-520.945	397.683	-0.118	-0.247
-519.931	446.530	0.021	-0.047
-518.916	-109.419	0.324	-0.069
-517.902	-20.073	-0.060	0.037
-516.887	266.730	-0.067	-0.117
-515.872	427.311	-0.136	0.294
-514.858	162.196	-0.218	-0.306
-513.843	-15.689	-0.057	-0.037
-512.829	38.406	-0.147	-0.131
-511.814	4.399	0.214	0.157
-510.799	800.000	-0.067	-0.197
-509.785	-65.103	-0.028	0.011
-508.770	527.727	-0.037	0.087
-507.756	-200.000	0.020	0.282
-506.741	-98.520	0.390	0.100
-505.726	-200.000	0.019	0.141
-504.712	-200.000	-0.027	-0.235
-503.697	-6.512	0.312	-0.213
-502.683	40.665	-0.286	0.258
-501.668	109.518	-0.254	0.304
-500.653	-61.166	0.304	-0.128
-499.639	-200.000	-0.014	0.202
-498.624	-139.411	-0.438	0.047
-497.610	-72.344	0.082	-0.030
-496.595	-200.000	0.016	0.141
-495.581	63.859	-0.207	-0.209
-494.566	105.369	0.116	-0.137
-493.551	-200.000	0.049	0.000
-492.537	-59.493	-0.140	0.060
-491.522	521.417	0.164	-0.385
-490.508	-200.000	-0.014	0.348
-489.493	-200.000	0.021	0.303
-488.478	-170.610	-0.390	0.014
-487.464	800.000	-0.049	-0.165
-486.449	-170.691	-0.086	0.003
-485.435	-101.876	-0.197	0.048
-484.420	687.313	-0.030	0.079
-483.405	-200.000	0.032	-0.181
-482.391	800.000	0.058	-0.213
-481.376	-72.777	0.116	-0.043
-480.362	-64.053	-0.147	0.060
-479.347	-44.419	0.188	0.094
-478.332	163.126	0.126	-0.177
-477.318	-200.000	0.011	-0.116
-476.303	-135.537	0.225	-0.027
-475.289	-200.000	0.020	-0.358
-474.274	230.130	0.112	0.183
-473.259	-200.000	-0.041	-0.267
-472.245	512.499	0.074	0.171
-471.230	-200.000	0.065	0.333
-470.216	-64.523	-0.428	-0.174
-469.201	-134.550	0.191	-0.023
-468.186	647.468	0.145	0.370
-467.172	-115.147	-0.174	-0.033
-466.157	-115.170	-0.104	0.020
-465.143	62.937	0.082	0.082
-464.128	800.000	-0.007	0.025
-463.113	-200.000	-0.039	-0.221
-462.099	446.399	0.178	-0.391
-461.084	100.473	-0.001	0.001
-460.070	-189.466	0.089	-0.001
-459.055	313.243	0.121	-0.227
-458.040	212.823	0.140	0.220
-457.026	-48.730	0.068	0.033
-456.011	-165.783	0.321	-0.014
-454.997	80.740	-0.424	0.457
-453.982	800.000	0.104	-0.342
-452.968	800.000	0.071	-0.274
-451.953	330.928	0.063	-0.122
-450.938	800.000	0.120	0.339
-449.924	-200.000	0.010	0.103
-448.909	174.889	0.176	-0.254
-447.895	3.804	0.154	-0.112
-446.880	-200.000	0.005	-0.025
-445.865	414.448	-0.176	0.375
-444.851	188.105	-0.092	0.138
-443.836	-19.609	-0.116	0.072
-442.822	107.232	-0.178	-0.211
-441.807	-61.456	-0.098	-0.041
-440.792	-200.000	-0.008	-0.483
-439.778	-133.489	0.378	0.047
-438.763	-119.620	-0.275	0.048
-437.749	800.000	-0.076	-0.235
-436.734	800.000	-0.153	0.431
-435.719	-31.185	-0.140	-0.079
-434.705	-122.415	0.018	0.003
-433.690	411.340	0.082	-0.173
-432.676	-58.313	0.388	0.168
-431.661	91.406	0.111	0.124
-430.646	-200.000	0.026	0.202
-429.632	36.667	-0.152	0.134
-428.617	276.481	0.080	0.141
-427.603	127.827	-0.125	-0.159
-426.588	40.556	-0.056	-0.050
-425.573	103.852	0.103	0.121
-424.559	-84.659	0.327	0.103
-423.544	102.476	0.263	0.307
-422.530	-15.257	-0.198	-0.126
-421.515	135.952	0.024	-0.031
-420.500	69.706	-0.105	-0.108
-419.486	-76.721	-0.051	0.018
-418.471	184.931	-0.078	-0.115
-417.457	591.440	-0.034	0.085
-416.442	-9.913	-0.135	-0.090
-415.428	205.146	0.184	-0.285
-414.413	427.909	0.110	-0.238
-413.398	162.816	0.152	0.213
-412.384	-200.000	0.034	0.243
-411.369	47.352	-0.114	0.106
-410.355	-200.000	0.030	-0.151
-409.340	-200.000	-0.214	0.000
-408.325	-200.000	-0.012	0.245
-407.311	-146.546	-0.390	-0.034
-406.296	542.856	0.094	0.224
-405.282	-200.000	0.024	0.326
-404.267	800.000	-0.043	0.170
-403.252	-200.000	0.021	-0.169
-402.238	339.340	0.213	0.413
-401.223	548.425	-0.109	0.260
-400.209	12.539	-0.223	-0.172
-399.194	-20.397	-0.300	0.184
-398.179	-90.970	-0.418	-0.120
-397.165	-76.458	0.428	0.150
-396.150	-127.940	0.317	-0.045
-395.136	157.603	-0.078	-0.108
-394.121	-200.000	-0.049	0.247
-393.106	330.973	0.017	0.032
-392.092	92.661	-0.181	-0.203
-391.077	18.485	0.199	0.158
-390.063	-120.890	0.405	-0.068
-389.048	50.174	-0.021	-0.020
-388.033	384.622	-0.108	-0.222
-387.019	800.000	0.048	-0.139
-386.004	-74.282	-0.197	0.071
-384.990	-50.219	0.268	0.126
-383.975	-63.102	-0.056	-0.023
-382.960	723.299	0.024	0.064
-381.946	-58.088	0.091	-0.039
-380.931	-15.701	-0.173	-0.110
-379.917	800.000	0.047	0.143
-378.902	-104.197	-0.103	0.024
-377.888	-35.465	-0.273	-0.148
-376.873	-200.000	-0.008	0.246
-375.858	-14.888	-0.170	0.109
-374.844	-127.161	-0.311	0.045
-373.829	-47.336	-0.008	0.004
-372.815	-18.580	-0.106	0.066
-371.800	236.674	-0.059	-0.097
-370.785	56.611	-0.341	0.330
-369.771	-127.514	0.188	-0.027
-368.756	-200.000	0.044	0.261
-367.742	-121.724	0.196	0.032
-366.727	120.222	0.240	-0.296
-365.712	-155.867	-0.188	0.012
-364.698	70.845	0.263	0.271
-363.683	261.357	0.123	0.212
-362.669	800.000	-0.083	-0.229
-361.654	-98.017	0.174	-0.045
-360.639	-89.793	-0.061	-0.018
-359.625	-65.866	0.378	0.151
-358.610	319.302	0.095	0.179
-357.596	-102.626	0.145	-0.034
-356.581	77.629	0.315	0.334
-355.566	103.937	0.089	-0.104
-354.552	-97.510	-0.319	-0.083
-353.537	326.352	0.139	0.266
-352.523	-200.000	0.021	-0.333
-351.508	-51.185	0.344	0.160
-350.493	32.374	0.131	0.113
-349.479	800.000	-0.066	0.233
-348.464	11.447	0.062	-0.047
-347.450	22.293	0.042	0.034
-346.435	800.000	-0.036	-0.112
-345.420	-54.373	-0.159	0.072
-344.406	225.627	0.229	-0.369
-343.391	-200.000	-0.026	0.162
-342.377	800.000	-0.047	0.160
-341.362	-176.097	0.090	-0.002
-340.348	-128.412	0.093	-0.013
-339.333	-84.175	-0.294	-0.093
-338.318	-35.101	-0.102	0.055
-337.304	800.000	-0.047	0.174
-336.289	-69.773	-0.338	-0.128
-335.275	-200.000	-0.028	0.268
-334.260	39.068	0.189	0.168
-333.245	147.232	-0.139	0.186
-332.231	52.115	0.092	-0.087
-331.216	-131.192	0.455	-0.060
-330.202	800.000	-0.045	-0.137
-329.187	-40.104	0.366	-0.190
-328.172	-126.855	-0.269	0.039
-327.158	296.311	-0.145	-0.264
-326.143	-54.442	0.327	0.147
-325.129	-200.000	-0.033	-0.306
-324.114	-132.839	0.118	-0.015
-323.099	-107.829	-0.062	-0.013
-322.085	-200.000	-0.024	0.263
-321.070	800.000	0.134	-0.394
-320.056	-200.000	0.033	0.156
-319.041	-200.000	-0.031	0.155
-318.026	148.244	-0.120	-0.161
-317.012	213.102	-0.039	0.061
-315.997	180.435	0.031	0.045
-314.983	83.793	-0.156	0.169
-313.968	178.796	0.115	-0.167
-312.953	-144.002	0.278	-0.026
-311.939	29.325	0.104	-0.088
-310.924	-200.000	0.008	0.279
-309.910	-200.000	0.016	-0.091
-308.895	-146.924	-0.325	-0.028
-307.880	-150.033	0.123	-0.010
-306.866	-18.604	-0.110	-0.068
-305.851	-7.129	0.034	-0.023
-304.837	-24.297	0.144	-0.086
-303.822	-74.807	0.106	0.038
-302.807	61.918	0.097	0.096
-301.793	161.723	-0.068	-0.094
-300.778	-33.514	0.236	-0.130
-299.764	-118.749	-0.113	0.020
-298.749	-17.132	-0.266	-0.166
-297.735	-115.565	-0.232	-0.043
-296.720	800.000	-0.015	0.051
-295.705	-200.000	-0.008	-0.417
-294.691	597.000	-0.127	-0.312
-293.676	139.508	-0.094	-0.122
-292.662	-200.000	-0.010	0.141
-291.647	21.626	0.113	-0.091
-290.632	-173.131	0.064	0.002
-289.618	-110.946	-0.054	-0.011
-288.603	800.000	-0.047	-0.170
-287.589	-200.000	0.003	-0.300
-286.574	300.952	0.053	-0.097
-285.559	-193.327	0.154	-0.001
-284.545	13.811	0.090	0.069
-283.530	-200.000	0.003	-0.079
-282.516	64.544	-0.084	0.084
-281.501	254.983	0.134	0.228
-280.486	-57.238	0.153	-0.067
-279.472	-200.000	-0.027	0.379
-278.457	-64.478	-0.096	-0.039
-277.443	-200.000	0.014	0.246
-276.428	-144.393	0.201	-0.019
-275.413	18.124	0.323	0.255
-274.399	-135.342	-0.143	0.017
-273.384	-108.418	-0.142	0.030
-272.370	800.000	0.081	-0.311
-271.355	-9.315	0.194	0.128
-270.340	-137.155	-0.105	-0.012
-269.326	-39.951	0.164	0.085
-268.311	800.000	0.033	-0.143
-267.297	-90.095	-0.295	0.085
-266.282	61.555	0.197	0.194
-265.267	55.572	-0.118	-0.113
-264.253	-47.152	0.190	-0.092
-263.238	243.080	0.146	-0.242
-262.224	507.323	-0.073	0.168
-261.209	-60.994	-0.098	0.041
-260.195	-200.000	0.013	-0.200
-259.180	-30.683	-0.143	-0.080
-258.165	-200.000	-0.039	-0.222
-257.151	35.993	-0.027	-0.024
-256.136	5.773	-0.195	0.143
-255.122	175.831	-0.079	-0.113
-254.107	-162.966	0.161	0.008
-253.092	-67.284	0.209	-0.081
-252.078	-200.000	0.048	-0.334
-251.063	-21.436	-0.221	-0.134
-250.049	-77.881	-0.281	-0.096
-249.034	148.608	-0.107	-0.143
-248.019	800.000	0.128	0.446
-247.005	-200.000	0.038	0.165
-245.990	337.260	0.082	0.157
-244.976	-84.956	-0.260	0.081
-243.961	-83.987	0.245	-0.077
-242.946	-85.901	0.387	-0.119
-241.932	-24.397	0.156	-0.092
-240.917	164.435	-0.188	0.262
-239.903	33.089	-0.055	0.047
-238.888	222.767	0.188	-0.300
-237.873	636.152	0.125	-0.313
-236.859	70.404	0.053	-0.054
-235.844	72.266	-0.075	0.078
-234.830	164.321	-0.256	-0.357
-233.815	-200.000	-0.029	0.259
-232.800	114.740	0.243	0.294
-231.786	-28.977	-0.122	-0.069
-230.771	115.879	0.089	0.108
-229.757	-3.103	-0.323	0.223
-228.742	-200.000	0.006	-0.031
-227.727	0.681	0.230	-0.163
-226.713	-37.924	-0.336	0.177
-225.698	-33.438	-0.261	-0.143
-224.684	-63.760	0.219	0.089
-223.669	23.576	-0.081	-0.066
-222.655	106.628	-0.185	0.218
-221.640	-55.090	-0.304	0.135
-220.625	800.000	0.059	-0.182
-219.611	108.772	0.068	0.080
-218.596	-75.555	-0.081	0.029
-217.582	125.304	0.096	-0.119
-216.567	279.333	-0.046	0.082
-215.552	-30.823	-0.139	-0.078
-214.538	-200.000	0.074	0.000
-213.523	102.961	-0.102	0.118
-212.509	-19.163	0.203	-0.124
-211.494	-200.000	0.005	-0.057
-210.479	800.000	0.081	0.225
-209.465	-45.705	-0.108	0.053
-208.450	-27.752	-0.226	0.130
-207.436	-200.000	0.018	-0.191
-206.421	-58.423	0.331	-0.142
-205.406	44.497	0.264	0.240
-204.392	800.000	-0.022	-0.067
-203.377	438.374	0.053	0.114
-202.363	155.086	-0.090	0.122
-201.348	-161.531	-0.096	-0.005
-200.333	-200.000	0.014	-0.195
-199.319	603.515	-0.023	-0.058
-198.304	-36.291	-0.280	-0.149
-197.290	595.652	-0.164	-0.402
-196.275	7.025	-0.115	0.085
-195.260	-114.819	0.133	-0.025
-194.246	736.579	0.150	0.397
-193.231	-124.048	-0.283	0.044
-192.217	105.243	-0.342	0.399
-191.202	145.342	0.185	0.245
-190.187	-19.116	-0.174	0.107
-189.173	8.980	-0.188	0.140
-188.158	423.954	0.121	0.256
-187.144	-90.969	0.056	0.016
-186.129	-85.711	0.206	0.063
-185.114	-85.060	0.335	-0.104
-184.100	-55.599	-0.167	0.074
-183.085	-163.897	-0.054	-0.003
-182.071	-143.369	0.122	0.012
-181.056	41.713	-0.173	0.155
-180.042	260.458	-0.077	-0.132
-179.027	-86.656	0.385	0.116
-178.012	-2.651	-0.162	0.112
-176.998	222.210	0.161	-0.255
-175.983	158.165	-0.157	-0.215
-174.969	800.000	0.061	-0.198
-173.954	-200.000	-0.004	-0.243
-172.939	-83.050	-0.244	-0.078
-171.925	-200.000	-0.027	0.211
-170.910	390.906	-0.046	-0.095
-169.896	-30.860	0.234	-0.130
-168.881	-146.453	-0.309	0.027
-167.866	11.424	0.062	-0.047
-166.852	-200.000	0.002	0.238
-165.837	446.128	0.100	-0.217
-164.823	92.930	0.200	0.224
-163.808	800.000	-0.058	0.213
-162.793	-26.042	0.112	0.065
-161.779	-200.000	-0.068	-0.360
-160.764	10.533	-0.316	0.238
-159.750	82.874	0.164	-0.176
-158.735	-123.043	0.173	-0.027
-157.720	33.478	-0.282	0.242
-156.706	-64.031	-0.220	-0.089
-155.691	503.805	-0.063	-0.144
-154.677	800.000	-0.126	0.405
-153.662	-7.567	-0.129	-0.086
-152.647	-200.000	0.029	-0.296
-151.633	774.489	0.092	0.249
-150.618	800.000	-0.044	0.189
-149.604	-88.266	-0.220	0.065
-148.589	0.696	0.246	-0.174
-147.574	483.113	0.087	0.195
-146.560	336.224	0.142	0.272
-145.545	87.554	-0.078	0.085
-144.531	-200.000	0.042	0.245
-143.516	120.157	-0.125	0.153
-142.502	-62.656	0.217	-0.089
-141.487	90.482	0.109	0.120
-140.472	33.574	0.061	-0.052
-139.458	3.182	0.250	-0.180
-138.443	-22.647	0.165	0.099
-137.429	-44.675	0.137	-0.068
-136.414	59.958	0.281	-0.274
-135.399	32.852	0.181	-0.154
-134.385	-39.606	0.079	0.041
-133.370	135.829	-0.119	-0.153
-132.356	-128.431	-0.361	-0.051
-131.341	-200.000	-0.015	0.216
-130.326	-200.000	0.005	-0.359
-129.312	-200.000	-0.012	0.068
-128.297	800.000	0.150	0.438
-127.283	-200.000	0.055	0.255
-126.268	65.364	0.072	-0.072
-125.253	69.639	0.116	-0.118
-124.239	-200.000	0.009	-0.129
-123.224	800.000	0.076	-0.267
-122.210	-161.695	0.147	-0.007
-121.195	-117.767	-0.057	-0.010
-120.180	110.274	0.097	-0.115
-119.166	29.274	-0.132	-0.111
-118.151	251.348	-0.264	0.443
-117.137	544.861	-0.035	0.083
-116.122	-2.213	-0.138	0.096
-115.107	605.430	0.057	-0.141
-114.093	-124.480	-0.183	0.028
-113.078	-146.623	-0.125	-0.011
-112.064	493.577	-0.123	0.278
-111.049	-37.686	-0.284	0.149
-110.034	-200.000	0.051	0.278
-109.020	-37.782	0.090	0.047
-108.005	68.884	-0.231	-0.233
-106.991	-17.727	0.113	-0.070
-105.976	-56.686	0.189	-0.082
-104.962	63.165	-0.299	0.295
-103.947	114.591	-0.198	0.237
-102.932	144.840	0.226	0.298
-101.918	-157.062	0.071	-0.004
-100.903	-152.611	0.032	0.002
-99.889	-200.000	-0.022	0.518
-98.874	195.771	0.142	-0.213
-97.859	-200.000	-0.080	-0.355
-96.845	314.265	-0.169	0.313
-95.830	-133.423	0.151	0.019
-94.816	800.000	0.093	0.307
-93.801	-23.099	-0.404	0.240
-92.786	52.288	0.040	0.038
-91.772	174.878	0.071	-0.101
-90.757	800.000	0.047	-0.187
-89.743	-200.000	0.039	-0.215
-88.728	800.000	0.104	0.309
-87.713	335.180	0.154	0.294
-86.699	800.000	0.031	0.135
-85.684	592.509	0.119	-0.290
-84.670	-200.000	-0.011	-0.131
-83.655	128.880	-0.070	0.088
-82.640	-101.383	0.388	0.093
-81.626	314.624	0.044	-0.082
-80.611	-19.794	0.332	0.202
-79.597	-200.000	-0.010	-0.090
-78.582	-81.453	0.226	0.073
-77.567	5.577	-0.345	-0.251
-76.553	-158.320	-0.067	-0.004
-75.538	40.616	0.278	0.247
-74.524	-191.067	0.189	0.002
-73.509	-18.754	-0.234	0.143
-72.494	-183.511	-0.428	-0.007
-71.480	408.852	-0.106	0.220
-70.465	-49.918	0.221	-0.103
-69.451	800.000	0.039	0.112
-68.436	800.000	0.064	0.216
-67.422	259.468	0.090	0.154
-66.407	-200.000	-0.025	0.333
-65.392	-178.396	-0.280	0.006
-64.378	-120.910	-0.286	-0.047
-63.363	58.404	-0.218	-0.210
-62.349	-112.412	0.048	0.010
-61.334	-27.709	-1.256	-0.717
-60.319	131.555	0.578	0.731
-59.305	69.658	-0.691	-0.700
-58.290	314.455	0.539	0.998
-57.276	391.747	0.770	1.574
-56.261	-200.000	96.597	602.460
-55.246	644.022	1378.823	3458.934
-54.232	197.973	2556.044	3841.698
-53.217	121.185	2138.715	2618.279
-52.203	43.955	1599.801	1441.492
-51.188	35.389	1336.697	1153.176
-50.173	32.065	1295.081	1097.828
-49.159	54.539	1342.605	1272.315
-48.144	56.916	1358.951	1301.873
-47.130	35.560	1317.525	1137.465
-46.115	31.997	1300.272	1101.652
-45.100	31.804	1295.573	1096.500
-44.086	31.585	1293.521	1093.439
-43.071	31.568	1290.938	1091.114
-42.057	31.631	1288.599	1089.462
-41.042	31.645	1287.161	1088.282
-40.027	31.816	1285.255	1087.619
-39.013	31.776	1283.135	1085.553
-37.998	31.682	1281.792	1083.830
-36.984	31.773	1280.189	1082.955
-35.969	31.732	1278.636	1081.365
-34.954	31.701	1276.693	1079.498
-33.940	31.723	1275.677	1078.726
-32.925	31.884	1274.123	1078.291
-31.911	31.793	1272.721	1076.542
-30.896	31.931	1270.924	1075.772
-29.881	31.843	1269.863	1074.322
-28.867	31.864	1268.294	1073.075
-27.852	31.897	1267.110	1072.222
-26.838	31.916	1265.743	1071.130
-25.823	31.849	1264.436	1069.600
-24.809	31.916	1262.983	1068.707
-23.794	31.732	1261.991	1066.776
-22.779	31.885	1260.460	1066.314
-21.765	31.871	1258.699	1064.700
-20.750	31.763	1257.825	1063.308
-19.736	31.722	1256.594	1061.991
-18.721	31.659	1255.993	1061.083
-17.706	31.642	1254.214	1059.443
-16.692	31.727	1253.064	1058.912
-15.677	31.791	1251.904	1058.251
-14.663	31.723	1250.237	1056.416
-13.648	31.651	1249.679	1055.493
-12.633	31.671	1248.432	1054.510
-11.619	31.633	1248.278	1054.125
-10.604	31.592	1247.344	1053.065
-9.590	31.746	1245.973	1052.734
-8.575	31.709	1245.461	1052.051
-7.560	31.623	1244.764	1050.935
-6.546	31.641	1243.726	1050.120
-5.531	31.675	1242.493	1049.225
-4.517	31.700	1241.683	1048.640
-3.502	31.655	1241.041	1047.808
-2.487	31.599	1239.949	1046.529
-1.473	31.580	1235.881	1042.948
-0.458	30.319	1220.398	1022.898
0.556	25.377	1203.059	984.757
1.571	21.687	1208.476	968.737
2.586	20.594	1224.066	975.027
3.600	20.136	1212.584	963.248
4.615	15.477	1142.137	882.763
5.629	7.874	1069.571	789.039
6.644	4.720	1050.525	759.544
7.659	4.494	1048.217	756.702
8.673	4.473	1047.146	755.762
9.688	4.453	1045.620	754.499
10.702	4.589	1043.649	753.666
11.717	8.846	1048.968	778.148
12.731	15.771	1059.034	819.387
13.746	18.517	1062.366	835.292
14.761	17.910	1060.732	830.977
15.775	16.847	1058.504	823.991
16.790	15.799	1056.269	817.096
17.804	15.124	1055.220	812.936
18.819	14.748	1053.781	809.929
19.834	14.530	1053.123	808.298
20.848	14.239	1052.173	806.086
21.863	14.115	1051.355	804.789
22.877	13.932	1050.543	803.210
23.892	14.009	1049.670	802.845
24.907	13.924	1049.051	801.892
25.921	14.017	1047.997	801.462
26.936	13.947	1046.613	799.994
27.950	14.050	1045.689	799.712
28.965	14.131	1043.882	798.653
29.980	14.201	1042.607	797.940
30.994	14.271	1041.348	797.244
32.009	14.259	1040.713	796.627
33.023	14.133	1039.600	795.104
34.038	14.076	1038.293	793.763
35.053	14.065	1037.811	793.270
36.067	14.075	1036.683	792.385
37.082	14.157	1035.961	792.152
38.096	14.168	1035.519	791.796
39.111	14.146	1034.496	790.839
40.126	14.094	1032.679	789.135
41.140	13.878	1032.050	787.560
42.155	14.009	1030.503	786.928
43.169	13.864	1029.422	785.351
44.184	13.827	1028.863	784.679
45.199	13.883	1028.125	784.309
46.213	13.920	1026.477	783.159
47.228	14.035	1025.747	783.075
48.242	14.001	1024.453	781.858
49.257	14.051	1023.481	781.281
50.271	14.177	1022.393	780.972
51.286	14.167	1021.887	780.471
52.301	14.028	1021.059	779.119
53.315	14.042	1019.903	778.233
54.330	13.900	1018.865	776.707
55.344	13.915	1017.929	775.995
56.359	13.979	1017.138	775.624
57.374	13.974	1016.296	774.890
58.388	14.009	1015.115	774.083
59.403	13.879	1014.664	773.065
60.417	13.867	1014.010	772.440
61.432	13.716	1013.240	771.085
62.447	13.639	1012.650	770.212
63.461	13.716	1011.334	769.496
64.476	13.772	1010.277	768.883
65.490	13.739	1009.814	768.312
66.505	13.797	1008.856	767.783
67.520	13.721	1008.566	767.143
68.534	13.678	1007.712	766.229
69.549	13.767	1006.919	765.969
70.563	13.673	1006.218	764.931
71.578	13.700	1005.030	764.086
72.593	13.667	1004.823	763.709
73.607	13.518	1004.007	762.338
74.622	13.728	1002.887	762.384
75.636	13.674	1002.313	761.631
76.651	13.691	1001.833	761.279
77.666	13.773	1001.209	761.111
78.680	13.658	1001.099	760.433
79.695	13.819	999.391	759.805
80.709	13.765	999.414	759.510
81.724	13.894	999.015	759.729
82.739	14.005	997.973	759.378
83.753	14.004	997.240	758.745
84.768	14.098	996.813	758.784
85.782	14.275	995.535	758.550
86.797	14.036	994.962	756.959
87.812	14.127	993.827	756.444
88.826	13.960	992.863	754.883
89.841	14.135	991.366	754.471
90.855	14.189	991.180	754.510
91.870	14.173	990.552	753.890
92.884	14.121	989.737	752.969
93.899	14.216	988.854	752.658
94.914	14.382	987.595	752.385
95.928	14.176	987.523	751.331
96.943	14.223	986.286	750.538
97.957	14.199	985.717	749.929
98.972	14.191	984.660	749.021
99.987	14.153	983.710	748.063
101.001	14.123	982.821	747.187
102.016	14.081	982.076	746.364
103.030	14.173	981.246	746.081
104.045	14.237	980.299	745.580
105.060	14.165	979.501	744.584
106.074	13.992	978.699	743.138
107.089	13.982	977.436	742.069
108.103	13.891	976.367	740.784
109.118	13.934	975.771	740.458
110.133	13.908	974.613	739.398
111.147	13.912	973.784	738.722
112.162	13.835	973.643	738.207
113.176	13.976	972.773	738.108
114.191	14.076	971.471	737.497
115.206	13.926	971.542	736.821
116.220	14.028	970.373	736.322
117.235	14.032	969.595	735.683
118.249	14.036	968.483	734.796
119.264	14.076	967.315	734.020
120.279	13.943	967.246	733.313
121.293	13.786	966.427	731.934
122.308	13.856	965.507	731.484
123.322	13.796	964.251	730.203
124.337	13.769	963.258	729.270
125.352	13.781	962.688	728.826
126.366	13.815	961.388	727.927
127.381	13.660	961.053	726.926
128.395	13.879	959.773	726.855
129.410	13.980	959.084	726.710
130.424	13.936	958.011	725.639
131.439	13.998	957.289	725.298
132.454	14.052	956.328	724.744
133.468	13.977	956.014	724.115
134.483	13.886	955.328	723.136
135.497	13.954	954.298	722.585
136.512	13.985	953.673	722.182
137.527	14.018	952.305	721.228
138.541	14.122	951.460	720.973
139.556	14.095	950.982	720.430
140.570	14.046	950.635	719.892
141.585	14.233	949.590	719.844
142.600	14.222	948.790	719.127
143.614	14.099	948.310	718.170
144.629	14.325	947.425	718.410
145.643	14.389	946.119	717.634
146.658	14.164	945.220	715.918
147.673	14.127	944.643	715.259
148.687	14.057	944.104	714.489
149.702	14.171	942.358	713.592
150.716	14.127	941.641	712.798
151.731	14.095	941.386	712.402
152.746	14.075	941.000	711.962
153.760	14.134	940.145	711.505
154.775	14.197	939.571	711.279
155.789	14.229	938.907	710.848
156.804	14.277	938.199	710.456
157.819	14.323	937.516	710.072
158.833	14.375	936.766	709.663
159.848	14.280	936.304	708.845
160.862	14.326	935.067	708.042
161.877	14.194	933.753	706.423
162.892	14.150	933.152	705.718
163.906	14.133	932.334	704.964
164.921	14.226	931.394	704.586
165.935	14.296	930.112	703.848
166.950	14.370	929.463	703.611
167.964	14.230	928.853	702.493
168.979	14.281	927.826	701.869
169.994	14.127	927.431	700.860
171.008	14.332	926.543	700.990
172.023	14.324	925.816	700.345
173.037	14.531	925.107	700.619
174.052	14.341	924.441	699.251
175.067	14.176	923.781	697.998
176.081	14.255	923.510	698.065
177.096	14.426	922.370	697.855
178.110	14.246	922.087	696.829
179.125	14.246	921.556	696.365
180.140	14.378	920.618	696.146
181.154	14.382	920.432	695.961
182.169	14.462	919.842	695.787
183.183	14.510	918.938	695.243
184.198	14.600	918.315	695.083
185.213	14.599	917.263	694.220
186.227	14.418	917.519	693.600
187.242	14.537	916.594	693.333
188.256	14.618	915.963	693.130
189.271	14.717	914.890	692.667
190.286	14.500	914.261	691.231
191.300	14.301	913.641	689.876
192.315	14.313	912.775	689.212
193.329	14.236	912.735	688.804
194.344	14.518	911.661	689.098
195.359	14.390	911.305	688.236
196.373	14.473	911.016	688.301
197.388	14.608	910.531	688.433
198.402	14.803	909.562	688.440
199.417	14.744	909.572	688.143
200.432	14.854	908.775	687.933
201.446	14.978	908.642	688.284
202.461	14.838	908.093	687.231
203.475	14.755	907.535	686.407
204.490	14.834	906.085	685.573
205.504	14.757	905.645	684.863
206.519	14.683	905.358	684.282
207.534	14.672	904.402	683.454
208.548	14.819	903.581	683.374
209.563	14.869	903.244	683.262
210.577	14.778	902.278	682.099
211.592	14.864	902.088	682.249
212.607	14.995	900.657	681.638
213.621	14.963	900.392	681.248
214.636	14.946	899.631	680.542
215.650	14.967	898.683	679.849
216.665	15.068	898.150	679.799
217.680	15.052	897.503	679.183
218.694	14.938	897.207	678.435
219.709	15.029	896.592	678.280
220.723	15.005	895.490	677.289
221.738	14.968	894.621	676.424
222.753	15.142	894.033	676.622
223.767	15.095	893.987	676.335
224.782	15.097	893.155	675.657
225.796	15.185	892.703	675.608
226.811	15.113	891.917	674.664
227.826	15.061	891.007	673.708
228.840	15.134	890.533	673.583
229.855	15.111	889.600	672.726
230.869	15.093	888.984	672.128
231.884	15.035	888.463	671.441
232.899	15.069	887.591	670.858
233.913	15.045	886.976	670.240
234.928	15.005	886.353	669.550
235.942	14.962	885.795	668.897
236.957	15.021	885.203	668.623
237.972	15.062	884.535	668.225
238.986	15.190	883.739	668.075
240.001	15.133	883.171	667.359
241.015	15.087	882.755	666.801
242.030	15.317	881.842	666.968
243.045	15.221	881.132	665.992
244.059	15.174	880.877	665.553
245.074	15.202	880.475	665.300
246.088	15.237	879.898	664.946
247.103	15.332	879.067	664.636
248.117	15.409	878.944	664.789
249.132	15.487	878.254	664.516
250.147	15.633	877.619	664.553
251.161	15.736	877.068	664.485
252.176	15.615	876.293	663.361
253.190	15.679	876.009	663.341
254.205	15.595	875.070	662.241
255.220	15.695	874.497	662.143
256.234	15.805	873.694	661.908
257.249	15.787	873.231	661.427
258.263	15.792	872.247	660.645
259.278	15.689	871.981	659.978
260.293	15.870	871.093	659.957
261.307	15.761	870.908	659.334
262.322	15.834	870.206	659.027
263.336	16.024	868.932	658.748
264.351	15.829	868.658	657.721
265.366	15.887	868.171	657.519
266.380	15.949	867.544	657.228
267.395	15.858	866.720	656.190
268.409	15.844	865.754	655.347
269.424	15.875	865.025	654.859
270.439	15.909	864.048	654.194
271.453	15.872	863.423	653.520
272.468	15.925	863.016	653.358
273.482	15.779	862.979	652.707
274.497	15.756	862.402	652.124
275.512	15.707	861.847	651.454
276.526	15.821	860.930	651.146
277.541	15.891	860.433	650.982
278.555	15.948	859.760	650.637
279.570	16.026	859.464	650.654
280.585	15.956	858.878	649.883
281.599	15.971	857.739	649.024
282.614	16.036	856.710	648.436
283.628	16.039	856.784	648.445
284.643	16.001	855.793	647.495
285.657	16.001	855.142	646.944
286.672	16.143	854.480	646.931
287.687	16.037	853.970	646.082
288.701	15.953	853.825	645.591
289.716	16.060	853.404	645.627
290.730	16.049	852.502	644.845
291.745	16.064	851.985	644.455
292.760	16.091	851.178	643.889
293.774	16.245	850.737	644.085
294.789	16.217	850.208	643.524
295.803	16.206	849.013	642.517
296.818	16.085	848.652	641.729
297.833	16.084	848.250	641.366
298.847	16.240	847.319	641.198
299.862	16.175	847.050	640.688
300.876	16.342	846.535	640.875
301.891	16.440	845.773	640.614
302.906	16.364	845.445	640.022
303.920	16.391	845.351	639.994
304.935	16.587	844.347	639.920
305.949	16.442	843.778	638.884
306.964	16.332	843.289	638.043
307.979	16.474	842.355	637.813
308.993	16.491	842.160	637.675
310.008	16.522	841.547	637.269
311.022	16.553	840.859	636.811
312.037	16.516	840.063	636.012
313.052	16.346	839.470	634.869
314.066	16.285	839.343	634.487
315.081	16.333	838.500	633.974
316.095	16.444	837.668	633.706
317.110	16.373	837.031	632.900
318.125	16.416	836.647	632.713
319.139	16.346	836.495	632.282
320.154	16.469	836.095	632.386
321.168	16.468	835.287	631.715
322.183	16.372	834.851	630.968
323.197	16.496	834.304	630.963
324.212	16.521	833.633	630.491
325.227	16.507	833.012	629.916
326.241	16.384	832.887	629.307
327.256	16.427	832.138	628.845
328.270	16.454	831.739	628.589
329.285	16.444	831.027	627.958
330.300	16.417	830.252	627.217
331.314	16.460	830.045	627.163
332.329	16.696	828.929	627.138
333.343	16.598	828.921	626.713
334.358	16.745	828.545	626.917
335.373	16.709	828.212	626.479
336.387	16.743	827.821	626.255
337.402	16.757	827.876	626.292
338.416	16.814	827.217	625.947
339.431	17.054	826.357	626.129
340.446	16.857	826.366	625.351
341.460	16.781	826.306	624.972
342.475	16.987	825.699	625.213
343.489	16.907	825.654	624.829
344.504	16.988	824.839	624.456
345.519	17.127	824.257	624.472
346.533	16.977	823.745	623.478
347.548	16.923	823.224	622.830
348.562	16.847	822.598	622.024
349.577	16.883	821.896	621.570
350.592	16.885	821.336	621.097
351.606	16.818	820.464	620.136
352.621	16.918	820.235	620.275
353.635	16.810	819.648	619.382
354.650	16.899	818.773	618.990
355.665	17.000	818.152	618.834
356.679	17.062	817.718	618.678
357.694	17.048	816.967	618.004
358.708	16.981	816.563	617.401
359.723	17.108	816.051	617.422
360.738	16.996	815.495	616.538
361.752	17.106	815.034	616.535
362.767	17.062	814.330	615.789
363.781	17.188	813.980	615.927
364.796	17.182	813.752	615.676
365.810	17.238	813.408	615.564
366.825	17.307	812.495	615.071
367.840	17.420	812.098	615.124
368.854	17.353	811.659	614.495
369.869	17.351	811.062	613.982
370.883	17.525	810.628	614.224
371.898	17.383	810.782	613.775
372.913	17.401	810.142	613.300
373.927	17.431	809.347	612.752
374.942	17.400	808.975	612.304
375.956	17.406	808.663	612.038
376.971	17.448	808.509	612.016
377.986	17.623	807.813	612.066
379.000	17.548	807.176	611.259
380.015	17.661	806.791	611.320
381.029	17.506	806.348	610.372
382.044	17.648	805.428	610.133
383.059	17.719	805.267	610.210
384.073	17.728	804.491	609.599
385.088	17.497	803.855	608.237
386.102	17.505	803.308	607.799
387.117	17.629	802.782	607.788
388.132	17.577	802.157	607.079
389.146	17.618	801.482	606.659
390.161	17.728	801.268	606.834
391.175	17.708	800.758	606.323
392.190	17.614	800.586	605.807
393.205	17.524	800.032	605.012
394.219	17.629	799.422	604.872
395.234	17.580	799.226	604.497
396.248	17.514	798.876	603.942
397.263	17.405	798.106	602.920
398.278	17.365	797.800	602.495
399.292	17.399	797.769	602.537
400.307	17.481	796.970	602.173
401.321	17.506	796.422	601.792
402.336	17.627	796.010	601.855
403.350	17.672	795.619	601.664
404.365	17.700	795.132	601.344
405.380	17.847	794.749	601.518
406.394	17.830	794.136	600.941
407.409	17.853	793.920	600.805
408.423	18.075	793.704	601.369
409.438	17.959	793.287	600.595
410.453	18.131	792.684	600.689
411.467	17.935	792.625	599.901
412.482	17.990	791.794	599.414
413.496	18.142	791.508	599.674
414.511	18.301	791.003	599.797
415.526	18.156	790.762	599.054
416.540	18.112	790.110	598.353
417.555	18.173	789.607	598.134
418.569	18.199	789.431	598.036
419.584	18.046	789.341	597.380
420.599	18.160	788.734	597.267
421.613	156.348	1369.880	1794.325
422.628	135.200	1454.573	1794.442
