DTS Sentinel unit serial number:	SN413079Multiplexer serial number:	ORYXHardware model number:	OX4-SRSoftware version number:	ORYX F/W v4.00 Oryx Data Collector v3.7.2.0data status	okinstallation	princeton_trtdifferential loss correction	single-endedforward channel	channel 1reverse channel	N/Adate	2019/09/16time	22:50:35forward acquisition time	60.00reverse acquisition time	0.00gamma	496.2192k internal	0.2325k external	0.2325temperature offset calibration	0.9956default loss term (dB/km)	0.3790temperature slope calibration	1.0000multiplexer offset coefficient	1.0000multiplexer slope coefficient	1.0000fibre end	0.00T internal ref (°C)	30.50T ext. ref 1 (°C)	0.09T ext. ref 2 (°C)	24.13length (m)	temperature (°C)	Stokes	anti-Stokes-747.200	-200.000	0.011	-0.115
-746.185	-82.838	0.238	0.078
-745.171	-54.147	-0.323	-0.148
-744.156	-142.751	-0.337	0.033
-743.142	-46.668	0.321	-0.158
-742.127	-200.000	-0.018	0.087
-741.112	677.705	-0.156	-0.409
-740.098	-73.480	-0.191	0.070
-739.083	-94.527	0.264	0.073
-738.069	-157.103	0.241	-0.015
-737.054	-122.733	0.083	-0.013
-736.039	331.540	0.257	-0.500
-735.025	-130.560	0.424	-0.058
-734.010	800.000	0.033	0.134
-732.996	112.082	-0.237	-0.289
-731.981	-12.245	-0.144	0.095
-730.966	-167.644	-0.088	-0.004
-729.952	196.396	0.110	-0.169
-728.937	80.054	0.282	-0.305
-727.923	800.000	-0.076	-0.257
-726.908	-16.699	-0.499	-0.318
-725.894	-200.000	-0.054	-0.341
-724.879	173.635	0.090	-0.131
-723.864	800.000	-0.044	0.180
-722.850	-200.000	-0.064	-0.322
-721.835	-40.785	0.280	0.146
-720.821	800.000	0.029	-0.119
-719.806	-200.000	-0.033	-0.182
-718.791	800.000	0.120	-0.404
-717.777	-45.767	-0.137	-0.068
-716.762	-111.032	0.419	0.087
-715.748	-36.251	0.284	0.155
-714.733	-126.572	0.225	0.034
-713.718	800.000	0.065	-0.200
-712.704	800.000	-0.133	-0.371
-711.689	597.131	-0.080	0.199
-710.675	-200.000	-0.008	0.173
-709.660	-50.742	0.257	-0.122
-708.645	-187.007	0.136	-0.002
-707.631	12.968	-0.063	-0.049
-706.616	-100.230	0.178	-0.045
-705.602	-52.321	0.272	-0.127
-704.587	-48.535	0.283	-0.137
-703.572	2.185	-0.094	-0.068
-702.558	-162.978	0.503	0.025
-701.543	-111.250	-0.167	-0.034
-700.529	40.249	-0.023	0.021
-699.514	462.653	-0.117	0.263
-698.499	-30.983	-0.192	0.109
-697.485	698.479	0.013	0.034
-696.470	42.290	-0.236	-0.216
-695.456	800.000	0.043	-0.154
-694.441	70.034	0.150	-0.156
-693.426	-200.000	0.027	-0.292
-692.412	-9.462	0.196	-0.132
-691.397	-200.000	0.007	0.043
-690.383	132.195	0.109	0.142
-689.368	173.505	-0.144	-0.209
-688.354	62.862	-0.110	-0.111
-687.339	93.040	0.249	0.283
-686.324	-108.341	0.304	0.066
-685.310	767.797	0.035	-0.096
-684.295	-16.714	0.213	-0.136
-683.281	-200.000	-0.016	-0.207
-682.266	37.209	-0.245	0.218
-681.251	-59.101	0.189	-0.082
-680.237	-200.000	-0.017	-0.387
-679.222	-200.000	0.016	-0.081
-678.208	-200.000	0.015	-0.299
-677.193	137.069	0.157	-0.207
-676.178	-84.766	0.316	0.100
-675.164	332.902	0.217	-0.422
-674.149	-59.787	-0.199	0.086
-673.135	-34.498	-0.314	-0.173
-672.120	-200.000	-0.003	0.137
-671.105	37.639	0.088	0.078
-670.091	-105.721	-0.277	-0.063
-669.076	29.754	0.172	0.147
-668.062	-58.021	-0.129	-0.057
-667.047	-22.946	-0.272	0.165
-666.032	19.522	-0.210	-0.170
-665.018	-23.031	-0.355	0.215
-664.003	728.234	0.032	-0.086
-662.989	-200.000	0.025	-0.488
-661.974	-101.570	0.194	-0.047
-660.959	800.000	0.153	0.444
-659.945	-30.702	-0.215	0.122
-658.930	201.767	0.146	0.227
-657.916	-97.616	0.391	0.102
-656.901	31.893	0.246	-0.213
-655.886	40.460	-0.099	0.089
-654.872	188.005	-0.110	-0.166
-653.857	-200.000	0.011	-0.376
-652.843	110.265	0.099	0.120
-651.828	59.331	-0.115	-0.114
-650.814	596.635	-0.172	-0.429
-649.799	404.602	0.097	0.206
-648.784	13.840	-0.080	0.063
-647.770	-124.497	-0.235	0.037
-646.755	-122.236	0.183	-0.030
-645.741	-200.000	0.001	0.219
-644.726	-200.000	0.006	0.037
-643.711	-61.971	-0.124	0.052
-642.697	170.974	0.221	-0.318
-641.682	-93.332	-0.103	0.029
-640.668	-200.000	0.028	-0.252
-639.653	-200.000	0.043	-0.399
-638.638	-104.246	-0.291	-0.068
-637.624	745.514	0.122	0.329
-636.609	89.551	-0.131	-0.147
-635.595	291.282	-0.110	0.200
-634.580	-127.032	0.200	-0.030
-633.565	114.005	-0.239	0.292
-632.551	-30.795	0.128	0.073
-631.536	-200.000	-0.019	-0.089
-630.522	-76.827	-0.088	-0.031
-629.507	50.227	-0.280	-0.266
-628.492	-83.109	0.312	0.101
-627.478	-79.213	-0.274	0.093
-626.463	157.164	0.180	-0.250
-625.449	-25.987	-0.139	-0.082
-624.434	-70.705	0.047	0.018
-623.419	348.545	0.211	-0.418
-622.405	68.176	0.169	-0.174
-621.390	-97.481	-0.144	-0.038
-620.376	-64.596	-0.240	0.098
-619.361	-191.910	-0.293	0.003
-618.346	261.792	0.034	0.059
-617.332	-53.455	0.106	-0.049
-616.317	2.060	-0.390	-0.283
-615.303	-118.433	-0.193	0.034
-614.288	87.943	-0.212	0.236
-613.273	-200.000	0.019	-0.155
-612.259	20.019	-0.129	0.104
-611.244	-200.000	0.030	0.154
-610.230	99.682	0.116	-0.134
-609.215	-11.138	-0.073	-0.048
-608.201	-67.103	0.239	-0.095
-607.186	800.000	-0.027	0.114
-606.171	-80.231	0.055	0.018
-605.157	46.838	0.038	-0.035
-604.142	-21.240	-0.192	-0.118
-603.128	-54.644	0.067	-0.030
-602.113	389.662	-0.016	-0.032
-601.098	271.983	-0.062	-0.109
-600.084	115.502	0.057	0.070
-599.069	-92.217	0.231	0.065
-598.055	121.040	0.208	-0.259
-597.040	-200.000	-0.018	0.135
-596.025	137.755	0.081	-0.106
-595.011	17.676	0.181	-0.145
-593.996	-200.000	-0.016	-0.411
-592.982	-200.000	0.009	-0.062
-591.967	-147.251	-0.159	0.014
-590.952	-200.000	0.018	-0.101
-589.938	128.807	0.216	-0.276
-588.923	-62.878	-0.036	-0.015
-587.909	800.000	-0.093	0.370
-586.894	162.620	-0.146	0.206
-585.879	249.780	0.033	-0.056
-584.865	620.951	0.116	0.292
-583.850	257.135	0.100	0.173
-582.836	237.695	-0.065	-0.108
-581.821	-147.115	0.427	0.037
-580.806	28.267	-0.190	-0.161
-579.792	-200.000	-0.021	0.309
-578.777	11.803	-0.280	0.216
-577.763	-144.055	-0.312	0.029
-576.748	-161.417	-0.124	0.006
-575.733	-47.389	0.100	0.049
-574.719	-200.000	0.062	0.483
-573.704	7.087	0.240	0.180
-572.690	9.284	-0.280	0.212
-571.675	800.000	-0.014	0.043
-570.661	-200.000	-0.072	-0.492
-569.646	149.664	0.076	0.103
-568.631	-142.745	-0.152	0.015
-567.617	503.421	-0.115	0.267
-566.602	-75.380	0.254	-0.091
-565.588	-85.793	-0.370	0.115
-564.573	-200.000	-0.025	-0.272
-563.558	-26.987	-0.064	-0.038
-562.544	800.000	-0.055	0.163
-561.529	213.170	-0.024	-0.038
-560.515	274.054	0.111	0.197
-559.500	-200.000	-0.001	0.316
-558.485	423.452	-0.126	-0.271
-557.471	9.065	0.129	-0.097
-556.456	800.000	0.064	0.272
-555.442	593.609	0.050	0.123
-554.427	278.024	-0.102	0.183
-553.412	132.833	0.243	0.314
-552.398	11.544	0.257	-0.197
-551.383	-77.232	-0.067	0.023
-550.369	-109.360	0.066	-0.014
-549.354	64.963	-0.118	-0.119
-548.339	34.178	0.144	-0.126
-547.325	800.000	0.036	-0.117
-546.310	45.971	0.067	-0.062
-545.296	-200.000	0.024	0.351
-544.281	-52.524	-0.209	0.097
-543.266	-32.034	-0.353	-0.198
-542.252	-54.955	0.185	-0.084
-541.237	-82.543	-0.405	0.131
-540.223	-138.135	-0.133	-0.015
-539.208	-200.000	0.010	0.297
-538.193	-200.000	-0.045	0.267
-537.179	-116.781	0.376	0.069
-536.164	-173.205	-0.101	-0.003
-535.150	-72.806	0.198	-0.073
-534.135	-128.426	0.359	0.051
-533.121	-54.999	0.165	-0.075
-532.106	97.517	0.084	-0.097
-531.091	-115.974	0.249	0.046
-530.077	14.179	0.388	-0.303
-529.062	800.000	-0.072	-0.307
-528.048	-20.619	0.252	-0.155
-527.033	-200.000	0.006	-0.183
-526.018	118.443	-0.212	-0.262
-525.004	-160.174	-0.224	-0.012
-523.989	-183.016	0.169	0.003
-522.975	29.163	0.240	-0.204
-521.960	276.270	-0.055	-0.097
-520.945	-49.822	0.136	0.065
-519.931	-200.000	0.057	-0.369
-518.916	-58.851	0.503	-0.218
-517.902	199.883	-0.332	0.510
-516.887	22.349	-0.273	0.223
-515.872	-81.128	0.069	-0.023
-514.858	42.858	0.047	-0.042
-513.843	46.262	0.202	0.187
-512.829	-126.150	0.225	-0.034
-511.814	-41.170	-0.327	0.169
-510.799	-62.197	-0.279	-0.116
-509.785	-67.859	0.256	-0.100
-508.770	-144.569	0.110	0.010
-507.756	-200.000	-0.060	-0.324
-506.741	32.239	-0.208	-0.179
-505.726	-200.000	0.043	0.286
-504.712	4.214	0.078	0.057
-503.697	210.801	-0.124	0.194
-502.683	800.000	0.069	0.235
-501.668	-43.770	-0.139	0.070
-500.653	-200.000	-0.002	-0.053
-499.639	175.916	-0.117	-0.170
-498.624	287.989	0.023	0.041
-497.610	-56.166	0.041	0.018
-496.595	-104.678	-0.021	-0.005
-495.581	71.096	-0.034	0.035
-494.566	127.165	0.132	0.167
-493.551	80.829	-0.240	-0.259
-492.537	-8.654	0.215	0.144
-491.522	133.597	0.096	-0.125
-490.508	-31.630	-0.331	-0.185
-489.493	-200.000	0.022	0.174
-488.478	-104.565	0.412	-0.095
-487.464	-200.000	0.004	-0.088
-486.449	-157.030	0.257	-0.016
-485.435	-102.252	0.081	0.019
-484.420	-48.880	-0.031	0.015
-483.405	514.588	-0.127	-0.296
-482.391	337.190	0.099	0.192
-481.376	-124.435	0.122	-0.019
-480.362	326.824	-0.061	-0.118
-479.347	-97.707	0.262	-0.068
-478.332	-79.393	-0.110	-0.037
-477.318	800.000	0.040	0.140
-476.303	45.100	0.268	0.247
-475.289	54.066	-0.233	-0.224
-474.274	209.443	-0.144	-0.225
-473.259	-120.917	-0.194	0.033
-472.245	463.694	-0.055	-0.123
-471.230	-82.931	0.256	0.082
-470.216	-83.636	-0.060	0.019
-469.201	-15.200	-0.160	0.102
-468.186	-53.800	0.239	0.109
-467.172	237.871	0.104	0.171
-466.157	232.256	-0.078	-0.128
-465.143	-200.000	-0.048	-0.244
-464.128	-19.078	0.364	-0.226
-463.113	-39.468	0.420	-0.220
-462.099	800.000	-0.046	0.156
-461.084	-185.412	-0.230	-0.004
-460.070	-21.514	0.587	-0.358
-459.055	-107.951	-0.286	-0.062
-458.040	69.411	0.082	0.085
-457.026	-200.000	-0.000	-0.106
-456.011	-151.628	-0.175	-0.013
-454.997	-200.000	0.008	0.070
-453.982	48.557	0.214	0.200
-452.968	-48.873	-0.341	0.163
-451.953	32.155	0.042	0.036
-450.938	-59.842	-0.165	-0.071
-449.924	-67.662	-0.090	0.035
-448.909	507.848	-0.146	0.338
-447.895	-110.357	-0.082	0.017
-446.880	134.898	0.042	-0.055
-445.865	47.490	-0.183	0.170
-444.851	-38.222	0.240	0.127
-443.836	-200.000	-0.011	-0.304
-442.822	135.950	-0.079	-0.102
-441.807	136.585	-0.131	-0.170
-440.792	-200.000	0.006	-0.234
-439.778	319.284	-0.113	0.213
-438.763	-47.054	0.392	-0.191
-437.749	759.506	-0.139	-0.375
-436.734	-55.657	0.366	-0.163
-435.719	-32.356	0.178	-0.099
-434.705	377.930	-0.077	0.158
-433.690	-24.002	0.115	-0.069
-432.676	-200.000	0.006	-0.467
-431.661	186.195	0.034	-0.051
-430.646	-49.178	-0.356	0.169
-429.632	68.247	-0.163	-0.167
-428.617	342.143	0.043	0.083
-427.603	174.494	0.205	-0.296
-426.588	-169.100	-0.238	0.009
-425.573	800.000	-0.090	-0.334
-424.559	373.676	-0.011	0.022
-423.544	800.000	-0.143	-0.410
-422.530	-97.427	-0.149	0.039
-421.515	-103.209	0.140	0.033
-420.500	-115.177	-0.091	-0.017
-419.486	800.000	0.097	0.297
-418.471	-39.445	0.189	-0.098
-417.457	-83.144	-0.123	-0.039
-416.442	87.771	0.141	-0.156
-415.428	800.000	-0.092	-0.333
-414.413	144.068	-0.186	-0.248
-413.398	526.043	-0.101	-0.236
-412.384	-200.000	-0.037	-0.480
-411.369	-47.261	-0.184	0.089
-410.355	-200.000	0.033	0.158
-409.340	-143.528	-0.075	-0.007
-408.325	9.285	-0.127	-0.096
-407.311	-200.000	0.024	0.107
-406.296	-200.000	0.057	0.311
-405.282	-15.685	0.089	-0.057
-404.267	2.455	0.015	-0.011
-403.252	305.117	0.247	-0.457
-402.238	-189.467	-0.285	0.003
-401.223	173.086	-0.127	0.182
-400.209	800.000	0.035	-0.098
-399.194	800.000	-0.124	-0.524
-398.179	273.725	0.053	0.093
-397.165	-44.486	0.170	0.084
-396.150	5.929	-0.227	-0.167
-395.136	-4.047	0.214	0.147
-394.121	-82.750	0.217	0.070
-393.106	800.000	0.044	0.157
-392.092	-62.852	-0.280	-0.115
-391.077	92.458	0.128	0.143
-390.063	183.758	-0.034	-0.050
-389.048	-123.622	-0.144	0.023
-388.033	-200.000	-0.012	-0.105
-387.019	-63.049	-0.273	0.112
-386.004	800.000	0.124	0.357
-384.990	-200.000	-0.056	0.258
-383.975	111.271	0.121	-0.145
-382.960	-200.000	-0.023	-0.218
-381.946	-108.914	0.286	-0.061
-380.931	-200.000	-0.017	-0.182
-379.917	-200.000	0.005	-0.205
-378.902	-55.850	0.252	-0.112
-377.888	-200.000	0.009	-0.048
-376.873	-136.803	0.191	0.022
-375.858	-151.811	0.396	-0.029
-374.844	800.000	-0.074	0.282
-373.829	800.000	-0.069	-0.263
-372.815	800.000	0.099	0.381
-371.800	-151.854	-0.287	-0.021
-370.785	-200.000	-0.031	0.169
-369.771	73.236	0.126	-0.131
-368.756	227.716	-0.083	-0.135
-367.742	-54.113	0.019	0.009
-366.727	-148.529	-0.127	-0.010
-365.712	14.659	0.350	0.272
-364.698	262.032	0.085	0.146
-363.683	-117.279	-0.075	-0.014
-362.669	800.000	0.065	0.282
-361.654	-90.540	0.141	0.041
-360.639	-106.727	-0.314	-0.069
-359.625	-91.553	-0.351	-0.099
-358.610	152.537	0.130	0.177
-357.596	-182.829	0.305	-0.005
-356.581	-86.359	-0.236	-0.072
-355.566	333.885	0.041	-0.078
-354.552	-14.370	0.322	0.206
-353.537	498.961	0.135	0.309
-352.523	-60.767	-0.176	0.074
-351.508	-25.642	0.227	-0.133
-350.493	-200.000	-0.003	0.203
-349.479	-136.806	-0.012	0.001
-348.464	-200.000	-0.014	-0.072
-347.450	-42.805	-0.215	-0.108
-346.435	228.026	-0.073	0.119
-345.420	800.000	0.052	0.205
-344.406	-200.000	0.042	-0.265
-343.391	800.000	0.043	0.121
-342.377	-77.569	0.106	-0.037
-341.362	-27.885	0.147	0.085
-340.348	800.000	0.011	0.035
-339.333	-200.000	-0.010	-0.211
-338.318	-200.000	-0.039	0.380
-337.304	-200.000	0.003	0.187
-336.289	28.849	-0.046	0.039
-335.275	72.515	-0.155	0.161
-334.260	4.422	-0.238	0.174
-333.245	766.784	0.028	0.075
-332.231	-112.913	0.127	0.025
-331.216	200.319	0.131	-0.200
-330.202	15.992	-0.219	0.171
-329.187	-46.787	0.453	0.220
-328.172	-36.616	-0.510	0.272
-327.158	-3.895	-0.311	-0.214
-326.143	311.791	0.089	-0.165
-325.129	68.323	-0.167	0.170
-324.114	6.642	-0.187	0.138
-323.099	800.000	0.084	0.231
-322.085	-8.057	-0.477	0.319
-321.070	31.021	-0.094	-0.080
-320.056	455.037	0.123	0.271
-319.041	123.188	-0.066	-0.082
-318.026	-132.696	-0.047	-0.006
-317.012	14.438	0.252	-0.195
-315.997	-104.390	-0.182	0.042
-314.983	-176.131	0.331	0.009
-313.968	-115.116	-0.072	0.014
-312.953	-200.000	0.014	0.089
-311.939	-200.000	0.013	-0.090
-310.924	-13.388	-0.378	0.243
-309.910	-200.000	-0.029	0.304
-308.895	800.000	0.061	0.202
-307.880	123.564	-0.103	-0.128
-306.866	-54.147	0.379	0.171
-305.851	-88.604	-0.318	0.094
-304.837	-21.919	-0.140	0.084
-303.822	-73.735	0.016	0.006
-302.807	-200.000	-0.017	0.336
-301.793	37.403	0.237	-0.209
-300.778	-85.937	-0.079	0.024
-299.764	-33.682	-0.101	0.055
-298.749	-200.000	0.022	0.144
-297.735	-200.000	-0.011	-0.353
-296.720	-113.717	0.140	0.027
-295.705	-154.532	0.358	-0.024
-294.691	-200.000	-0.029	-0.128
-293.676	-7.937	0.227	-0.152
-292.662	-200.000	-0.023	-0.214
-291.647	800.000	-0.057	0.206
-290.632	-126.674	0.300	-0.044
-289.618	256.562	-0.050	-0.085
-288.603	-115.746	-0.186	0.035
-287.589	-145.283	-0.193	0.017
-286.574	212.568	-0.155	0.242
-285.559	372.978	-0.131	0.264
-284.545	467.671	-0.140	-0.311
-283.530	74.711	0.167	-0.174
-282.516	-163.782	-0.124	-0.006
-281.501	135.237	-0.344	-0.443
-280.486	-0.647	0.325	-0.228
-279.472	173.817	0.058	-0.083
-278.457	-118.622	-0.183	0.032
-277.443	-126.290	0.134	0.020
-276.428	-200.000	-0.010	-0.194
-275.413	-200.000	0.018	-0.382
-274.399	-200.000	-0.029	-0.188
-273.384	-40.741	0.255	0.131
-272.370	-43.236	0.081	-0.040
-271.355	800.000	-0.056	0.191
-270.340	124.853	0.095	0.119
-269.326	-200.000	-0.043	0.215
-268.311	800.000	-0.024	-0.095
-267.297	-200.000	-0.047	0.262
-266.282	23.554	0.104	-0.084
-265.267	-0.245	0.095	-0.067
-264.253	-78.660	0.566	-0.191
-263.238	39.282	-0.183	-0.162
-262.224	-45.409	-0.171	-0.084
-261.209	800.000	-0.088	0.265
-260.195	-157.736	-0.136	-0.008
-259.180	-74.620	0.349	0.124
-258.165	-100.306	-0.079	0.019
-257.151	-102.518	-0.090	0.021
-256.136	-200.000	0.006	0.077
-255.122	-200.000	0.011	-0.139
-254.107	-73.456	0.053	-0.019
-253.092	-190.666	-0.553	0.006
-252.078	416.135	-0.305	-0.644
-251.063	114.347	0.160	-0.193
-250.049	374.313	0.229	0.462
-249.034	-14.220	0.350	-0.223
-248.019	-200.000	0.025	-0.492
-247.005	160.794	0.237	0.327
-245.990	138.615	-0.018	0.024
-244.976	-59.868	0.050	0.021
-243.961	-200.000	-0.012	0.203
-242.946	156.505	-0.123	-0.168
-241.932	-85.587	-0.324	-0.100
-240.917	112.150	0.009	-0.010
-239.903	800.000	0.099	0.276
-238.888	-97.591	0.007	0.002
-237.873	-200.000	-0.048	0.356
-236.859	800.000	-0.098	0.381
-235.844	-183.633	-0.444	-0.008
-234.830	-200.000	-0.024	0.185
-233.815	-52.992	0.298	-0.136
-232.800	-92.260	-0.133	0.037
-231.786	800.000	0.013	-0.047
-230.771	-138.166	0.022	0.002
-229.757	21.457	0.301	0.242
-228.742	-18.076	0.239	0.148
-227.727	98.606	-0.181	0.206
-226.713	0.547	0.097	-0.069
-225.698	-76.329	-0.076	0.026
-224.684	-200.000	0.001	0.085
-223.669	-29.557	0.130	-0.073
-222.655	679.750	-0.070	0.181
-221.640	-181.644	-0.235	0.004
-220.625	65.170	0.203	0.202
-219.611	-47.513	0.107	0.051
-218.596	31.762	-0.184	-0.157
-217.582	196.590	0.095	-0.144
-216.567	3.088	0.196	-0.141
-215.552	-31.123	0.108	-0.060
-214.538	800.000	-0.050	-0.183
-213.523	33.137	0.126	-0.108
-212.509	26.088	0.219	-0.180
-211.494	59.783	0.125	0.122
-210.479	-200.000	-0.014	-0.221
-209.465	-200.000	0.064	-0.329
-208.450	210.202	0.184	-0.285
-207.436	-200.000	-0.006	-0.139
-206.421	48.192	-0.238	0.220
-205.406	800.000	-0.145	0.420
-204.392	-200.000	-0.035	0.277
-203.377	-200.000	0.016	-0.187
-202.363	800.000	-0.056	-0.154
-201.348	800.000	0.094	0.339
-200.333	-200.000	0.002	-0.127
-199.319	127.243	0.083	-0.104
-198.304	-151.019	-0.667	0.050
-197.290	297.725	-0.080	0.145
-196.275	126.756	0.104	0.130
-195.260	-200.000	0.038	-0.282
-194.246	-10.844	0.204	-0.133
-193.231	-132.534	-0.372	0.047
-192.217	800.000	-0.059	-0.208
-191.202	-200.000	-0.034	0.347
-190.187	-102.169	-0.069	-0.016
-189.173	169.082	0.138	-0.194
-188.158	800.000	0.058	-0.199
-187.144	7.361	-0.250	0.185
-186.129	-66.716	-0.188	-0.074
-185.114	-200.000	0.024	-0.177
-184.100	-78.925	-0.276	0.093
-183.085	-167.628	0.455	0.018
-182.071	26.185	0.029	0.024
-181.056	-80.166	0.200	0.066
-180.042	48.860	-0.044	-0.041
-179.027	187.034	-0.100	0.147
-178.012	-200.000	0.032	0.171
-176.998	-129.999	0.174	-0.023
-175.983	-200.000	0.017	0.260
-174.969	377.131	-0.102	0.206
-173.954	800.000	-0.080	-0.260
-172.939	800.000	0.087	0.303
-171.925	462.505	-0.073	0.162
-170.910	-60.468	0.192	-0.080
-169.896	255.620	-0.036	0.061
-168.881	-120.756	-0.161	0.027
-167.866	-50.596	0.076	0.035
-166.852	-12.066	0.149	-0.096
-165.837	-64.677	-0.135	-0.054
-164.823	-99.630	0.338	0.084
-163.808	-144.334	-0.203	-0.019
-162.793	795.140	-0.174	0.472
-161.779	-16.989	-0.078	0.049
-160.764	117.258	0.115	0.139
-159.750	189.615	-0.053	0.079
-158.735	-200.000	-0.020	0.305
-157.720	-200.000	0.031	-0.157
-156.706	-105.797	-0.188	0.042
-155.691	800.000	0.051	0.174
-154.677	-200.000	0.032	-0.211
-153.662	-82.388	-0.056	0.018
-152.647	-93.725	-0.254	0.069
-151.633	800.000	0.020	-0.067
-150.618	652.081	0.034	0.085
-149.604	-12.383	0.110	-0.071
-148.589	-135.906	-0.397	0.046
-147.574	-200.000	0.009	0.173
-146.560	36.857	-0.279	-0.243
-145.545	-200.000	-0.008	0.105
-144.531	-200.000	0.057	-0.320
-143.516	20.255	0.215	0.171
-142.502	-181.255	-0.147	0.003
-141.487	-65.472	-0.244	-0.097
-140.472	123.809	0.090	0.112
-139.458	-28.718	-0.118	-0.067
-138.443	575.437	-0.048	0.116
-137.429	-135.439	0.291	0.034
-136.414	-176.114	0.093	0.002
-135.399	20.216	-0.142	0.113
-134.385	-200.000	0.006	-0.116
-133.370	123.303	-0.261	-0.323
-132.356	421.383	0.124	0.263
-131.341	-145.668	-0.249	-0.022
-130.326	-200.000	0.041	0.244
-129.312	-200.000	0.013	0.233
-128.297	800.000	-0.054	-0.178
-127.283	-200.000	0.004	-0.176
-126.268	-43.811	0.153	-0.076
-125.253	141.429	-0.217	0.284
-124.239	-106.465	0.393	-0.086
-123.224	274.465	0.143	0.249
-122.210	800.000	-0.041	0.168
-121.195	97.472	0.262	-0.296
-120.180	-69.184	0.221	-0.084
-119.166	79.852	0.156	0.166
-118.151	-175.449	0.090	0.002
-117.137	-27.873	-0.151	-0.086
-116.122	-200.000	-0.011	-0.177
-115.107	-200.000	-0.004	-0.156
-114.093	-117.081	-0.134	0.024
-113.078	800.000	0.116	0.378
-112.064	-158.593	0.195	0.011
-111.049	-126.102	-0.204	0.030
-110.034	-5.437	-0.179	-0.121
-109.020	169.841	-0.104	0.146
-108.005	-200.000	-0.062	-0.454
-106.991	133.167	-0.128	0.163
-105.976	-153.261	-0.364	0.025
-104.962	-200.000	-0.025	0.311
-103.947	233.690	-0.105	-0.171
-102.932	23.323	-0.108	-0.087
-101.918	68.612	-0.128	0.129
-100.903	-90.870	-0.404	0.114
-99.889	18.374	-0.188	-0.147
-98.874	-200.000	-0.013	0.162
-97.859	448.384	-0.089	0.193
-96.845	-187.681	-0.096	0.001
-95.830	-88.479	-0.087	-0.026
-94.816	-135.972	0.185	0.021
-93.801	0.129	0.340	0.238
-92.786	-186.355	0.235	0.003
-91.772	235.900	-0.127	-0.207
-90.757	-186.441	0.175	-0.002
-89.743	-112.421	0.381	-0.075
-88.728	-93.991	0.194	-0.052
-87.713	-6.453	-0.100	0.067
-86.699	-131.317	0.306	-0.040
-85.684	577.170	0.094	0.227
-84.670	394.486	-0.088	0.180
-83.655	800.000	0.034	-0.105
-82.640	-200.000	0.000	0.312
-81.626	178.691	-0.243	0.349
-80.611	124.916	0.267	-0.331
-79.597	85.356	-0.137	0.148
-78.582	227.796	0.286	0.457
-77.567	-200.000	0.011	0.319
-76.553	-200.000	-0.017	-0.209
-75.538	189.913	0.131	0.194
-74.524	146.220	-0.187	0.247
-73.509	250.210	-0.107	-0.179
-72.494	-148.801	-0.331	0.026
-71.480	274.796	0.090	-0.156
-70.465	-144.083	0.231	0.021
-69.451	-129.044	0.198	0.027
-68.436	245.336	-0.232	0.384
-67.422	-21.870	0.192	0.115
-66.407	12.751	0.169	-0.129
-65.392	800.000	-0.037	0.146
-64.378	-146.864	0.241	0.020
-63.363	-74.248	0.176	0.063
-62.349	21.561	0.163	0.130
-61.334	31.084	-0.781	-0.658
-60.319	110.767	0.415	0.490
-59.305	800.000	-0.285	-0.834
-58.290	254.533	0.709	1.192
-57.276	800.000	0.421	1.662
-56.261	-200.000	104.044	588.143
-55.246	486.563	1442.960	3231.846
-54.232	152.575	2619.744	3514.768
-53.217	110.566	2145.329	2533.352
-52.203	42.273	1597.313	1425.523
-51.188	34.161	1335.562	1143.395
-50.173	30.852	1294.368	1088.781
-49.159	54.832	1345.753	1275.438
-48.144	55.928	1362.143	1297.443
-47.130	34.169	1317.646	1127.925
-46.115	30.636	1300.956	1092.879
-45.100	30.422	1295.445	1086.952
-44.086	30.379	1293.229	1084.803
-43.071	30.329	1290.869	1082.486
-42.057	30.368	1288.817	1080.952
-41.042	30.402	1286.983	1079.568
-40.027	30.519	1285.709	1079.131
-39.013	30.454	1283.769	1077.085
-37.998	30.359	1282.605	1075.517
-36.984	30.586	1279.981	1074.582
-35.969	30.474	1278.932	1073.016
-34.954	30.510	1276.881	1071.458
-33.940	30.650	1275.737	1071.262
-32.925	30.646	1274.251	1069.950
-31.911	30.658	1272.701	1068.673
-30.896	30.529	1271.639	1067.000
-29.881	30.626	1270.445	1066.510
-28.867	30.756	1268.087	1065.234
-27.852	30.595	1267.588	1063.851
-26.838	30.663	1265.621	1062.550
-25.823	30.564	1264.325	1060.854
-24.809	30.478	1263.308	1059.469
-23.794	30.574	1261.667	1058.597
-22.779	30.604	1260.666	1057.883
-21.765	30.578	1259.464	1056.688
-20.750	30.490	1258.527	1055.357
-19.736	30.527	1256.464	1053.797
-18.721	30.465	1255.840	1052.879
-17.706	30.606	1254.319	1052.359
-16.692	30.485	1253.187	1050.683
-15.677	30.428	1252.363	1049.629
-14.663	30.473	1251.663	1049.255
-13.648	30.339	1250.313	1047.326
-12.633	30.396	1249.354	1046.802
-11.619	30.374	1248.542	1045.955
-10.604	30.380	1247.846	1045.364
-9.590	30.405	1246.736	1044.537
-8.575	30.364	1245.490	1043.218
-7.560	30.443	1244.537	1042.826
-6.546	30.388	1243.831	1041.883
-5.531	30.366	1243.416	1041.368
-4.517	30.392	1242.428	1040.646
-3.502	30.619	1241.081	1040.746
-2.487	30.525	1240.459	1039.660
-1.473	30.306	1236.399	1034.992
-0.458	28.873	1220.838	1014.032
0.556	23.291	1204.010	975.353
1.571	19.487	1209.503	958.627
2.586	18.411	1224.433	964.323
3.600	18.151	1212.529	953.413
4.615	13.331	1141.066	871.796
5.629	4.514	1065.995	770.784
6.644	0.406	1045.150	735.637
7.659	-0.066	1043.328	731.989
8.673	0.064	1042.267	731.814
9.688	-0.044	1040.995	730.329
10.702	0.272	1039.136	730.494
11.717	5.264	1045.655	759.322
12.731	13.783	1056.712	808.976
13.746	17.439	1060.918	829.992
14.761	17.040	1059.365	826.760
15.775	15.902	1057.410	819.622
16.790	15.131	1055.250	814.129
17.804	14.190	1054.210	808.686
18.819	14.000	1052.819	806.622
19.834	13.582	1052.286	804.116
20.848	13.363	1051.475	802.361
21.863	13.016	1050.526	799.883
22.877	12.989	1049.828	799.151
23.892	13.015	1048.828	798.449
24.907	13.034	1047.862	797.734
25.921	13.042	1047.751	797.614
26.936	13.125	1046.287	796.830
27.950	13.169	1045.301	796.223
28.965	13.212	1044.593	795.819
29.980	13.301	1043.143	795.073
30.994	13.300	1042.117	794.216
32.009	13.285	1041.452	793.565
33.023	13.318	1040.382	792.838
34.038	13.149	1039.664	791.412
35.053	13.179	1038.764	790.799
36.067	13.269	1037.566	790.250
37.082	13.117	1037.024	789.041
38.096	13.171	1036.738	789.011
39.111	13.221	1035.371	788.140
40.126	13.229	1034.434	787.396
41.140	13.116	1033.311	785.929
42.155	12.929	1032.158	784.093
43.169	12.937	1031.068	783.236
44.184	12.919	1030.088	782.340
45.199	12.873	1029.217	781.390
46.213	12.896	1028.126	780.599
47.228	13.076	1026.921	780.465
48.242	13.221	1025.718	780.168
49.257	13.175	1024.959	779.308
50.271	13.067	1024.228	778.171
51.286	13.038	1023.520	777.429
52.301	13.071	1022.414	776.677
53.315	13.191	1021.433	776.423
54.330	12.946	1020.433	774.447
55.344	13.069	1019.968	774.602
56.359	13.099	1018.772	773.764
57.374	13.047	1018.101	772.944
58.388	12.958	1017.217	771.788
59.403	12.948	1016.063	770.799
60.417	13.046	1015.307	770.612
61.432	12.950	1015.049	769.901
62.447	12.916	1014.165	769.001
63.461	12.822	1013.006	767.620
64.476	12.824	1012.357	767.069
65.490	12.801	1011.640	766.350
66.505	12.894	1010.602	765.930
67.520	12.998	1009.956	765.854
68.534	12.941	1009.339	765.054
69.549	13.044	1008.499	764.827
70.563	12.872	1007.983	763.572
71.578	12.872	1007.050	762.798
72.593	12.878	1006.347	762.224
73.607	12.877	1005.761	761.709
74.622	12.799	1005.511	761.092
75.636	12.850	1004.959	760.841
76.651	12.842	1003.531	759.657
77.666	12.764	1003.072	758.884
78.680	13.000	1002.274	759.296
79.695	12.953	1001.222	758.218
80.709	12.997	1001.351	758.451
81.724	13.062	1000.486	758.025
82.739	13.026	999.833	757.300
83.753	13.052	998.907	756.651
84.768	13.136	998.394	756.582
85.782	13.286	996.882	756.051
86.797	13.230	995.892	754.977
87.812	13.023	995.638	753.773
88.826	13.034	994.267	752.721
89.841	13.131	993.334	752.391
90.855	13.309	992.393	752.420
91.870	13.297	991.547	751.659
92.884	13.166	990.848	750.465
93.899	13.273	990.007	750.248
94.914	13.327	989.397	749.962
95.928	13.325	988.478	749.191
96.943	13.175	987.569	747.756
97.957	13.228	986.709	747.280
98.972	13.161	986.168	746.502
99.987	13.254	985.312	746.207
101.001	13.160	984.054	744.766
102.016	13.151	982.973	743.842
103.030	13.166	982.642	743.593
104.045	13.205	981.722	743.006
105.060	13.298	980.353	742.322
106.074	13.152	980.014	741.342
107.089	13.137	978.797	740.289
108.103	13.028	978.206	739.287
109.118	12.997	977.258	738.369
110.133	12.977	976.731	737.817
111.147	12.989	975.736	737.054
112.162	13.079	974.757	736.648
113.176	13.246	973.547	736.414
114.191	13.158	972.948	735.503
115.206	13.101	972.366	734.745
116.220	13.181	971.440	734.335
117.235	13.216	969.880	733.248
118.249	13.046	970.015	732.531
119.264	13.104	968.646	731.689
120.279	13.106	968.133	731.246
121.293	13.140	967.346	730.737
122.308	12.983	966.519	729.351
123.322	13.095	965.489	729.006
124.337	12.946	964.325	727.405
125.352	13.060	963.300	727.070
126.366	13.177	961.987	726.530
127.381	12.948	961.562	725.137
128.395	13.033	960.494	724.641
129.410	13.056	959.535	723.954
130.424	13.127	958.834	723.671
131.439	13.261	958.089	723.635
132.454	13.167	957.222	722.501
133.468	13.168	956.610	721.980
134.483	13.202	955.445	721.187
135.497	13.193	954.760	720.569
136.512	13.202	953.953	719.935
137.527	13.163	953.101	719.055
138.541	13.121	952.139	718.086
139.556	13.249	951.322	717.963
140.570	13.355	950.684	717.877
141.585	13.297	950.115	717.131
142.600	13.411	948.941	716.675
143.614	13.299	948.552	715.833
144.629	13.425	947.595	715.593
145.643	13.370	946.997	714.840
146.658	13.385	945.646	713.821
147.673	13.239	945.016	712.652
148.687	13.240	944.496	712.203
149.702	13.159	943.185	710.802
150.716	13.197	942.700	710.539
151.731	13.135	942.183	709.818
152.746	13.343	940.928	709.704
153.760	13.346	940.182	709.090
154.775	13.369	940.112	709.074
155.789	13.369	939.446	708.507
156.804	13.394	939.176	708.347
157.819	13.401	938.020	707.446
158.833	13.404	937.544	707.035
159.848	13.491	936.345	706.442
160.862	13.510	935.292	705.665
161.877	13.610	934.117	705.139
162.892	13.443	933.741	704.085
163.906	13.302	932.668	702.611
164.921	13.397	931.918	702.391
165.935	13.389	931.189	701.744
166.950	13.506	929.908	701.211
167.964	13.339	929.410	700.067
168.979	13.352	928.704	699.529
169.994	13.526	927.458	699.262
171.008	13.572	926.979	699.036
172.023	13.564	926.240	698.381
173.037	13.534	925.493	697.629
174.052	13.595	924.853	697.341
175.067	13.348	924.638	696.079
176.081	13.440	923.813	695.785
177.096	13.529	923.463	695.831
178.110	13.508	922.608	695.038
179.125	13.506	921.773	694.340
180.140	13.520	921.957	694.476
181.154	13.568	921.048	693.932
182.169	13.596	920.721	693.741
183.183	13.641	920.250	693.512
184.198	13.548	919.475	692.477
185.213	13.694	918.686	692.433
186.227	13.603	917.961	691.445
187.242	13.664	917.252	691.102
188.256	13.659	916.943	690.791
189.271	13.742	915.718	690.148
190.286	13.524	915.097	688.713
191.300	13.566	914.587	688.446
192.315	13.502	913.936	687.627
193.329	13.429	913.719	687.102
194.344	13.670	912.803	687.349
195.359	13.681	911.978	686.716
196.373	13.645	911.782	686.355
197.388	13.837	911.039	686.530
198.402	13.963	910.303	686.435
199.417	13.971	909.728	685.973
200.432	13.948	909.434	685.597
201.446	14.039	909.048	685.621
202.461	14.003	908.357	684.891
203.475	13.957	907.815	684.231
204.490	13.905	906.785	683.181
205.504	13.951	906.467	683.069
206.519	13.936	905.496	682.216
207.534	14.012	904.927	682.040
208.548	13.922	904.209	681.070
209.563	13.959	903.425	680.571
210.577	14.048	903.029	680.577
211.592	14.098	902.084	680.007
212.607	14.186	901.226	679.660
213.621	14.019	900.821	678.612
214.636	14.076	899.917	678.105
215.650	14.091	899.415	677.727
216.665	14.127	898.835	677.378
217.680	14.150	898.252	676.972
218.694	14.343	896.899	676.674
219.709	14.277	896.598	676.123
220.723	14.187	896.174	675.378
221.738	14.119	895.369	674.434
222.753	14.176	894.670	674.077
223.767	14.287	894.453	674.306
224.782	14.339	893.641	673.845
225.796	14.533	893.111	674.167
226.811	14.396	892.776	673.302
227.826	14.229	892.048	672.021
228.840	14.280	891.432	671.702
229.855	14.342	890.229	670.986
230.869	14.375	889.762	670.707
231.884	14.385	888.981	670.101
232.899	14.173	888.345	668.710
233.913	14.357	887.486	668.741
234.928	14.271	887.176	668.104
235.942	14.348	886.291	667.689
236.957	14.265	886.012	667.085
237.972	14.324	885.246	666.686
238.986	14.269	884.689	665.986
240.001	14.330	884.203	665.805
241.015	14.335	883.660	665.358
242.030	14.392	883.035	665.056
243.045	14.319	882.504	664.308
244.059	14.403	882.018	664.216
245.074	14.475	881.300	663.903
246.088	14.529	880.149	663.192
247.103	14.503	879.797	662.766
248.117	14.477	879.704	662.533
249.132	14.574	879.203	662.482
250.147	14.663	878.311	662.106
251.161	14.732	877.451	661.671
252.176	14.800	876.963	661.515
253.190	14.707	876.341	660.620
254.205	14.728	875.676	660.140
255.220	14.811	874.898	659.824
256.234	14.925	874.133	659.641
257.249	14.854	873.405	658.752
258.263	14.879	873.122	658.577
259.278	14.824	872.429	657.780
260.293	14.815	872.044	657.399
261.307	14.931	871.295	657.232
262.322	14.903	870.385	656.374
263.336	14.919	869.617	655.801
264.351	15.103	868.915	655.935
265.366	14.908	868.616	654.888
266.380	14.940	868.424	654.810
267.395	15.032	866.960	654.007
268.409	15.012	866.238	653.325
269.424	14.873	865.788	652.387
270.439	14.935	865.061	652.024
271.453	15.012	864.304	651.695
272.468	15.003	864.088	651.441
273.482	14.965	863.596	650.864
274.497	15.024	863.210	650.742
275.512	14.940	862.505	649.830
276.526	15.080	861.823	649.802
277.541	15.088	861.382	649.443
278.555	15.044	861.266	649.126
279.570	15.333	860.234	649.410
280.585	15.186	859.327	648.100
281.599	15.192	858.807	647.671
282.614	15.111	857.914	646.629
283.628	15.252	857.410	646.737
284.643	15.287	856.942	646.463
285.657	15.217	856.099	645.498
286.672	15.193	855.712	645.058
287.687	15.367	854.956	645.101
288.701	15.289	854.564	644.448
289.716	15.393	854.058	644.409
290.730	15.349	853.346	643.645
291.745	15.395	852.452	643.088
292.760	15.298	852.391	642.614
293.774	15.362	851.678	642.267
294.789	15.339	850.943	641.565
295.803	15.350	850.690	641.360
296.818	15.285	849.723	640.328
297.833	15.315	849.040	639.872
298.847	15.318	848.498	639.417
299.862	15.456	847.465	639.106
300.876	15.425	847.389	638.877
301.891	15.575	846.381	638.628
302.906	15.586	846.126	638.423
303.920	15.578	845.597	637.935
304.935	15.569	845.178	637.530
305.949	15.741	844.341	637.493
306.964	15.568	844.018	636.536
307.979	15.713	842.866	636.162
308.993	15.672	842.705	635.829
310.008	15.587	842.295	635.140
311.022	15.504	841.781	634.383
312.037	15.604	841.009	634.125
313.052	15.538	840.445	633.394
314.066	15.504	840.226	633.042
315.081	15.571	839.498	632.691
316.095	15.647	838.721	632.337
317.110	15.645	837.867	631.630
318.125	15.635	837.709	631.418
319.139	15.666	837.405	631.247
320.154	15.685	836.973	630.939
321.168	15.691	835.990	630.164
322.183	15.690	835.712	629.892
323.197	15.658	835.132	629.280
324.212	15.724	834.740	629.176
325.227	15.715	834.329	628.779
326.241	15.809	833.392	628.368
327.256	15.772	832.947	627.836
328.270	15.836	832.268	627.508
329.285	15.841	831.616	626.982
330.300	15.887	830.957	626.598
331.314	15.873	830.637	626.249
332.329	15.835	830.617	626.040
333.343	15.804	830.172	625.534
334.358	15.840	829.419	625.043
335.373	15.948	829.066	625.125
336.387	15.867	829.127	624.814
337.402	16.103	828.293	625.004
338.416	16.085	828.171	624.792
339.431	16.019	828.203	624.513
340.446	16.084	827.314	624.029
341.460	16.107	827.085	623.888
342.475	16.009	826.849	623.289
343.489	16.086	826.722	623.424
344.504	16.244	825.707	623.189
345.519	16.332	824.756	622.740
346.533	16.249	824.535	622.213
347.548	16.282	823.931	621.822
348.562	16.067	824.035	621.055
349.577	16.140	823.318	620.726
350.592	16.147	822.591	620.149
351.606	16.158	821.774	619.519
352.621	16.161	821.086	618.959
353.635	16.102	820.749	618.432
354.650	16.257	819.819	618.243
355.665	16.340	819.077	617.935
356.679	16.219	819.002	617.378
357.694	16.345	817.892	616.947
358.708	16.301	817.310	616.294
359.723	16.365	816.799	616.086
360.738	16.396	816.018	615.556
361.752	16.418	815.526	615.211
362.767	16.446	815.101	614.939
363.781	16.440	814.732	614.586
364.796	16.555	814.317	614.636
365.810	16.646	813.672	614.424
366.825	16.427	813.989	613.814
367.840	16.626	813.288	613.952
368.854	16.438	812.855	612.891
369.869	16.549	811.921	612.533
370.883	16.575	811.651	612.371
371.898	16.766	811.357	612.783
372.913	16.646	811.016	612.038
373.927	16.706	810.381	611.723
374.942	16.550	810.127	610.912
375.956	16.735	809.442	611.010
376.971	16.768	808.868	610.641
377.986	16.799	808.680	610.556
379.000	16.915	808.288	610.624
380.015	16.689	808.025	609.559
381.029	16.735	807.222	609.064
382.044	16.869	806.949	609.288
383.059	16.761	806.596	608.579
384.073	16.820	805.692	608.052
385.088	16.704	805.157	607.180
386.102	16.736	804.717	606.907
387.117	16.776	803.974	606.438
388.132	16.701	803.872	606.038
389.146	16.789	802.915	605.579
390.161	16.756	802.552	605.133
391.175	16.982	801.656	605.212
392.190	16.953	801.228	604.730
393.205	16.816	801.243	604.201
394.219	16.990	800.479	604.191
395.234	16.893	800.133	603.530
396.248	16.814	800.025	603.113
397.263	16.940	799.283	602.947
398.278	16.795	799.199	602.317
399.292	16.808	798.583	601.846
400.307	16.844	798.133	601.580
401.321	16.945	797.518	601.422
402.336	16.768	797.418	600.667
403.350	16.917	796.856	600.716
404.365	17.006	796.350	600.598
405.380	17.212	795.524	600.652
406.394	17.138	795.000	599.940
407.409	17.116	794.822	599.674
408.423	17.290	794.576	600.052
409.438	17.167	794.538	599.536
410.453	17.233	793.837	599.185
411.467	17.229	793.391	598.783
412.482	17.483	792.505	598.953
413.496	17.361	792.521	598.484
414.511	17.350	792.288	598.217
415.526	17.324	792.029	597.877
416.540	17.181	791.675	597.052
417.555	17.337	790.874	596.945
418.569	17.323	790.461	596.531
419.584	17.302	789.849	595.941
420.599	17.419	789.552	596.074
421.613	108.965	1290.653	1466.822
422.628	93.472	1363.664	1466.913
