DTS Sentinel unit serial number:	SN413079Multiplexer serial number:	ORYXHardware model number:	OX4-SRSoftware version number:	ORYX F/W v4.00 Oryx Data Collector v3.7.2.0data status	okinstallation	princeton_trtdifferential loss correction	single-endedforward channel	channel 1reverse channel	N/Adate	2019/09/16time	02:30:35forward acquisition time	60.00reverse acquisition time	0.00gamma	496.2192k internal	0.2331k external	0.2331temperature offset calibration	0.9977default loss term (dB/km)	0.3790temperature slope calibration	1.0000multiplexer offset coefficient	1.0000multiplexer slope coefficient	1.0000fibre end	0.00T internal ref (°C)	27.66T ext. ref 1 (°C)	10.27T ext. ref 2 (°C)	22.65length (m)	temperature (°C)	Stokes	anti-Stokes-747.200	156.437	0.172	-0.239
-746.185	60.659	-0.193	-0.193
-745.171	403.154	0.065	0.138
-744.156	800.000	0.106	0.340
-743.142	-106.329	-0.208	-0.047
-742.127	59.677	-0.117	0.116
-741.112	-115.033	0.206	0.039
-740.098	-138.908	-0.283	-0.031
-739.083	46.038	-0.043	-0.040
-738.069	43.771	-0.233	0.214
-737.054	800.000	0.019	-0.074
-736.039	430.143	0.052	-0.114
-735.025	-147.723	0.195	-0.016
-734.010	19.172	-0.101	0.082
-732.996	-200.000	0.020	0.159
-731.981	2.572	-0.139	-0.101
-730.966	-116.897	-0.143	0.026
-729.952	-131.435	-0.439	-0.058
-728.937	-168.731	0.144	-0.005
-727.923	624.946	0.084	-0.212
-726.908	333.388	-0.114	-0.222
-725.894	-88.276	0.164	-0.049
-724.879	363.189	-0.039	0.078
-723.864	388.887	0.068	-0.141
-722.850	800.000	0.027	0.100
-721.835	136.555	-0.274	-0.359
-720.821	-96.423	0.220	-0.058
-719.806	-44.759	-0.512	0.257
-718.791	-102.446	-0.320	0.077
-717.777	248.615	-0.216	0.367
-716.762	800.000	0.142	-0.531
-715.748	83.359	-0.071	-0.078
-714.733	40.316	-0.287	-0.260
-713.718	313.407	0.047	-0.088
-712.704	100.385	-0.061	0.071
-711.689	-33.246	0.080	-0.045
-710.675	115.884	0.158	-0.194
-709.660	-3.660	-0.281	0.196
-708.645	84.258	-0.274	0.301
-707.631	-200.000	0.024	-0.119
-706.616	-34.131	0.146	-0.081
-705.602	126.102	-0.246	0.312
-704.587	-200.000	0.004	-0.196
-703.572	186.506	-0.112	0.168
-702.558	-134.642	-0.294	0.036
-701.543	169.686	-0.189	-0.271
-700.529	-200.000	0.037	0.240
-699.514	47.174	0.145	-0.136
-698.499	-200.000	-0.009	-0.180
-697.485	-200.000	-0.027	0.170
-696.470	-98.423	0.117	0.030
-695.456	624.425	-0.118	-0.299
-694.441	800.000	0.136	0.417
-693.426	182.533	-0.084	0.124
-692.412	-30.200	-0.411	-0.234
-691.397	352.784	-0.101	0.201
-690.383	-191.366	0.320	-0.003
-689.368	-4.101	-0.332	-0.231
-688.354	800.000	-0.026	-0.080
-687.339	-200.000	0.045	0.226
-686.324	-49.452	-0.118	0.057
-685.310	183.457	0.042	-0.062
-684.295	211.306	0.084	-0.133
-683.281	-37.474	0.246	0.132
-682.266	-154.024	-0.315	-0.022
-681.251	800.000	-0.034	-0.095
-680.237	283.416	0.082	0.148
-679.222	-106.809	-0.080	0.018
-678.208	15.173	0.202	-0.159
-677.193	800.000	-0.048	-0.142
-676.178	269.661	0.110	-0.194
-675.164	-8.759	-0.310	0.209
-674.149	-92.649	-0.088	0.025
-673.135	273.998	-0.150	0.266
-672.120	-200.000	-0.002	-0.200
-671.105	205.859	-0.095	-0.148
-670.091	-107.102	0.315	-0.070
-669.076	99.533	0.073	0.085
-668.062	62.089	0.161	0.161
-667.047	-200.000	0.003	-0.128
-666.032	65.234	0.080	-0.081
-665.018	109.133	0.106	-0.128
-664.003	516.676	-0.058	0.136
-662.989	-200.000	0.013	0.106
-661.974	-135.543	0.086	-0.010
-660.959	169.276	0.062	-0.089
-659.945	-96.654	0.090	0.024
-658.930	-90.137	-0.199	-0.058
-657.916	111.779	0.075	0.091
-656.901	-78.114	0.121	-0.042
-655.886	-116.858	0.153	0.028
-654.872	-200.000	-0.007	-0.145
-653.857	-77.868	-0.132	-0.046
-652.843	396.206	-0.187	0.392
-651.828	-17.526	-0.286	0.180
-650.814	800.000	-0.029	0.099
-649.799	41.707	0.096	0.087
-648.784	-200.000	0.006	-0.045
-647.770	-65.142	-0.126	-0.051
-646.755	-200.000	-0.022	-0.147
-645.741	-8.449	0.297	-0.200
-644.726	-200.000	0.004	-0.116
-643.711	-200.000	-0.045	0.198
-642.697	215.116	-0.168	-0.267
-641.682	-30.011	0.133	0.076
-640.668	-109.951	-0.226	0.047
-639.653	75.967	-0.141	0.149
-638.638	67.919	-0.203	0.208
-637.624	800.000	0.027	-0.084
-636.609	-93.057	-0.388	0.108
-635.595	-171.788	-0.203	-0.007
-634.580	99.394	-0.381	-0.442
-633.565	-200.000	0.022	-0.379
-632.551	462.123	-0.048	-0.106
-631.536	-102.760	-0.542	0.129
-630.522	800.000	0.029	0.098
-629.507	-200.000	-0.031	-0.142
-628.492	143.913	-0.139	-0.185
-627.478	110.430	0.177	-0.213
-626.463	-82.058	-0.580	-0.190
-625.449	33.637	-0.117	0.102
-624.434	-200.000	-0.049	-0.488
-623.419	-200.000	-0.032	-0.431
-622.405	-41.638	0.221	0.114
-621.390	93.402	0.163	0.185
-620.376	80.926	0.276	0.299
-619.361	-80.231	-0.333	-0.112
-618.346	-71.330	0.268	0.101
-617.332	-86.752	-0.241	0.074
-616.317	-44.758	-0.167	-0.083
-615.303	-57.455	0.346	0.152
-614.288	-24.890	0.374	-0.223
-613.273	319.689	-0.042	0.081
-612.259	-200.000	-0.032	0.182
-611.244	-110.164	-0.288	-0.060
-610.230	231.480	0.178	0.291
-609.215	-91.797	-0.160	-0.046
-608.201	307.420	0.102	0.190
-607.186	614.579	0.063	0.159
-606.171	800.000	-0.111	0.313
-605.157	156.695	-0.179	-0.248
-604.142	-137.950	-0.321	-0.036
-603.128	-170.206	-0.377	0.013
-602.113	784.708	-0.063	0.174
-601.098	-200.000	0.013	-0.117
-600.084	-100.691	-0.333	-0.082
-599.069	614.315	0.096	0.240
-598.055	203.558	-0.161	-0.250
-597.040	-147.332	-0.150	-0.013
-596.025	800.000	-0.038	-0.126
-595.011	181.551	0.140	-0.206
-593.996	-200.000	-0.107	0.479
-592.982	-200.000	-0.012	0.057
-591.967	-200.000	0.016	0.274
-590.952	84.583	0.095	-0.104
-589.938	-70.139	0.252	0.096
-588.923	-52.901	-0.115	0.053
-587.909	-200.000	0.007	-0.278
-586.894	-150.792	-0.262	-0.020
-585.879	499.271	-0.111	0.256
-584.865	433.590	0.134	-0.292
-583.850	800.000	0.062	-0.198
-582.836	800.000	-0.092	0.315
-581.821	496.898	0.133	0.306
-580.806	-1.501	-0.058	-0.041
-579.792	-107.618	0.160	0.035
-578.777	782.424	-0.075	-0.205
-577.763	-112.635	-0.164	0.033
-576.748	-97.151	0.249	-0.065
-575.733	126.213	0.112	0.142
-574.719	300.139	-0.104	0.192
-573.704	105.257	0.151	0.178
-572.690	-114.391	-0.092	-0.018
-571.675	-168.378	0.052	0.002
-570.661	-99.860	0.103	-0.026
-569.646	-2.777	-0.288	-0.202
-568.631	253.890	0.064	-0.110
-567.617	293.623	-0.067	0.123
-566.602	26.780	0.276	0.231
-565.588	143.695	0.033	0.044
-564.573	800.000	0.032	-0.098
-563.558	-80.609	0.265	-0.088
-562.544	38.491	-0.168	-0.150
-561.529	-39.578	-0.346	-0.181
-560.515	800.000	0.038	-0.123
-559.500	406.016	0.050	0.105
-558.485	-114.687	0.061	0.012
-557.471	-53.544	0.221	-0.101
-556.456	-19.863	-0.153	0.094
-555.442	800.000	0.122	0.343
-554.427	-109.600	-0.148	0.031
-553.412	-158.318	0.236	-0.014
-552.398	407.555	0.022	-0.047
-551.383	253.957	-0.229	0.391
-550.369	90.267	0.073	-0.082
-549.354	492.537	-0.149	0.340
-548.339	-24.444	-0.221	-0.131
-547.325	633.709	-0.080	-0.202
-546.310	509.998	-0.066	0.152
-545.296	319.576	0.127	-0.241
-544.281	43.512	0.176	0.161
-543.266	800.000	0.013	-0.055
-542.252	-89.824	0.189	-0.055
-541.237	-200.000	0.009	-0.284
-540.223	108.858	-0.086	-0.103
-539.208	318.590	-0.068	0.128
-538.193	442.262	0.096	0.210
-537.179	160.770	0.127	0.177
-536.164	-82.106	-0.364	0.119
-535.150	800.000	-0.110	-0.412
-534.135	271.466	-0.061	0.108
-533.121	612.684	0.035	-0.087
-532.106	-200.000	0.065	-0.312
-531.091	225.374	0.143	-0.231
-530.077	800.000	0.112	0.387
-529.062	-200.000	-0.002	0.188
-528.048	-44.937	0.109	0.054
-527.033	80.599	-0.125	-0.135
-526.018	533.022	0.119	-0.281
-525.004	-200.000	0.003	-0.383
-523.989	-72.603	0.479	0.176
-522.975	190.380	0.189	-0.284
-521.960	602.097	0.081	-0.201
-520.945	-66.633	0.414	-0.164
-519.931	-104.388	0.227	0.053
-518.916	-200.000	-0.014	-0.147
-517.902	-102.529	0.256	-0.061
-516.887	-72.763	0.049	-0.018
-515.872	-200.000	0.024	-0.224
-514.858	-35.688	-0.230	-0.124
-513.843	-55.663	0.242	-0.108
-512.829	-168.283	-0.187	-0.007
-511.814	-200.000	0.003	-0.195
-510.799	-111.077	0.045	0.009
-509.785	107.235	-0.108	-0.128
-508.770	-174.368	-0.270	0.008
-507.756	75.504	0.182	0.192
-506.741	800.000	-0.048	0.176
-505.726	800.000	0.039	-0.141
-504.712	200.492	0.114	0.174
-503.697	452.937	0.143	0.316
-502.683	99.480	0.054	0.063
-501.668	-148.934	0.415	0.033
-500.653	465.859	0.136	0.303
-499.639	-10.835	-0.097	-0.064
-498.624	180.903	-0.105	-0.154
-497.610	-110.955	0.169	-0.035
-496.595	-200.000	0.006	-0.352
-495.581	72.060	-0.191	0.198
-494.566	669.083	-0.039	0.101
-493.551	-200.000	0.018	0.161
-492.537	800.000	-0.042	-0.167
-491.522	92.909	0.076	0.086
-490.508	-97.237	-0.175	0.046
-489.493	243.380	0.161	-0.268
-488.478	-30.497	-0.167	-0.094
-487.464	82.166	0.092	-0.099
-486.449	256.583	0.271	-0.463
-485.435	124.512	0.065	-0.082
-484.420	46.464	0.200	-0.185
-483.405	215.852	0.056	-0.089
-482.391	4.635	0.133	-0.098
-481.376	-36.822	-0.398	-0.213
-480.362	485.885	-0.066	-0.151
-479.347	-150.946	-0.302	-0.023
-478.332	-129.303	0.168	-0.023
-477.318	215.881	0.123	-0.195
-476.303	0.310	-0.185	-0.132
-475.289	-50.708	-0.331	0.155
-474.274	-39.933	0.320	-0.166
-473.259	-138.421	-0.084	0.009
-472.245	800.000	-0.032	-0.113
-471.230	565.859	0.017	0.040
-470.216	407.732	-0.193	0.405
-469.201	800.000	0.073	0.313
-468.186	66.948	-0.175	-0.177
-467.172	-200.000	0.022	-0.226
-466.157	-107.504	-0.163	0.036
-465.143	14.587	-0.184	-0.143
-464.128	260.496	-0.034	0.058
-463.113	-200.000	-0.067	-0.627
-462.099	700.572	0.065	0.171
-461.084	-117.576	-0.130	0.023
-460.070	-168.856	0.260	-0.010
-459.055	-19.054	0.142	0.088
-458.040	-118.761	0.291	0.051
-457.026	418.539	-0.059	0.127
-456.011	-120.672	0.180	0.030
-454.997	712.057	0.148	-0.389
-453.982	-88.096	0.312	0.093
-452.968	143.615	-0.161	0.214
-451.953	162.561	0.268	0.374
-450.938	-96.446	-0.364	-0.096
-449.924	-59.979	-0.136	0.058
-448.909	226.437	-0.178	-0.288
-447.895	-200.000	-0.020	0.229
-446.880	82.645	0.125	0.135
-445.865	800.000	0.055	-0.223
-444.851	151.113	-0.153	-0.207
-443.836	-52.672	0.193	0.088
-442.822	-105.628	0.246	-0.055
-441.807	573.200	0.046	0.111
-440.792	463.180	0.133	0.296
-439.778	4.012	0.183	0.133
-438.763	-200.000	-0.006	0.165
-437.749	75.560	0.193	0.203
-436.734	-137.927	-0.287	0.032
-435.719	-2.625	-0.216	0.151
-434.705	-155.694	-0.072	-0.005
-433.690	-107.099	-0.081	0.018
-432.676	67.976	-0.174	0.177
-431.661	-42.439	0.144	0.073
-430.646	-93.068	0.185	0.051
-429.632	800.000	0.125	0.380
-428.617	-94.826	0.253	-0.068
-427.603	-158.997	0.328	-0.018
-426.588	192.997	-0.155	-0.232
-425.573	-62.225	0.077	-0.032
-424.559	90.755	0.139	0.155
-423.544	676.177	-0.130	-0.337
-422.530	140.761	-0.241	-0.316
-421.515	-14.512	-0.188	0.120
-420.500	-200.000	0.020	0.334
-419.486	-200.000	-0.007	0.089
-418.471	487.995	-0.137	-0.310
-417.457	-15.070	-0.130	-0.083
-416.442	310.128	0.130	-0.242
-415.428	-61.973	-0.202	0.084
-414.413	-17.282	-0.131	-0.082
-413.398	529.664	0.178	0.418
-412.384	2.796	0.239	0.172
-411.369	-200.000	-0.074	-0.422
-410.355	-44.824	0.068	0.034
-409.340	-97.157	0.262	-0.068
-408.325	0.291	-0.071	-0.050
-407.311	-33.065	-0.111	-0.061
-406.296	-1.773	0.227	0.159
-405.282	35.804	0.327	-0.286
-404.267	-200.000	-0.020	-0.180
-403.252	-200.000	0.019	0.244
-402.238	-116.939	-0.294	-0.053
-401.223	-40.998	0.337	-0.173
-400.209	-200.000	0.002	0.136
-399.194	16.200	0.182	-0.143
-398.179	-3.598	-0.256	-0.177
-397.165	800.000	-0.066	-0.198
-396.150	306.389	-0.075	0.138
-395.136	29.232	-0.120	-0.101
-394.121	-200.000	-0.025	0.166
-393.106	-45.695	-0.308	-0.151
-392.092	293.155	0.203	0.367
-391.077	-71.862	-0.358	-0.132
-390.063	-36.565	0.135	-0.072
-389.048	800.000	-0.142	0.458
-388.033	-169.297	-0.073	-0.003
-387.019	-200.000	-0.031	0.154
-386.004	107.365	0.166	-0.196
-384.990	-32.982	-0.140	-0.077
-383.975	291.225	0.137	0.248
-382.960	-94.656	-0.189	0.051
-381.946	-184.861	-0.367	0.006
-380.931	383.496	-0.030	0.061
-379.917	-39.193	-0.244	-0.127
-378.902	116.380	-0.149	-0.182
-377.888	800.000	-0.010	0.041
-376.873	-169.606	-0.244	0.009
-375.858	-56.462	0.190	0.084
-374.844	-200.000	0.107	-0.508
-373.829	-119.751	-0.186	-0.032
-372.815	244.330	0.008	0.013
-371.800	796.861	0.131	0.357
-370.785	800.000	0.075	0.237
-369.771	0.805	-0.445	-0.316
-368.756	-34.906	0.232	0.126
-367.742	-49.906	-0.124	0.058
-366.727	-151.597	0.319	0.023
-365.712	-200.000	-0.021	0.248
-364.698	-11.807	0.155	0.101
-363.683	630.745	-0.047	0.118
-362.669	119.346	0.107	0.131
-361.654	-67.435	0.333	0.130
-360.639	800.000	0.028	-0.097
-359.625	-55.439	0.251	-0.112
-358.610	25.324	-0.225	-0.186
-357.596	-85.638	0.088	-0.027
-356.581	215.432	0.038	0.060
-355.566	-26.188	-0.070	-0.041
-354.552	-92.591	0.223	-0.062
-353.537	39.329	-0.105	-0.093
-352.523	45.810	-0.161	-0.147
-351.508	-147.250	-0.239	-0.020
-350.493	-200.000	0.045	0.237
-349.479	242.410	-0.042	-0.070
-348.464	-25.307	0.186	0.109
-347.450	-70.899	0.079	0.029
-346.435	-165.307	-0.264	-0.012
-345.420	366.906	0.195	-0.390
-344.406	137.697	-0.093	0.121
-343.391	265.626	-0.065	0.112
-342.377	115.338	-0.124	0.151
-341.362	120.049	-0.082	-0.101
-340.348	1.123	-0.244	0.173
-339.333	800.000	-0.042	-0.121
-338.318	-200.000	-0.004	0.102
-337.304	-117.702	0.331	-0.059
-336.289	375.257	-0.013	-0.027
-335.275	800.000	-0.036	-0.131
-334.260	100.175	-0.096	-0.111
-333.245	800.000	0.042	-0.156
-332.231	-200.000	0.055	-0.274
-331.216	-200.000	0.059	-0.296
-330.202	-200.000	-0.014	0.187
-329.187	-200.000	0.001	-0.148
-328.172	-42.301	0.022	0.011
-327.158	415.467	0.014	-0.030
-326.143	-200.000	0.020	0.175
-325.129	175.599	0.194	0.278
-324.114	-110.096	-0.408	0.084
-323.099	-93.244	0.279	0.077
-322.085	800.000	-0.052	0.169
-321.070	-123.636	0.044	0.007
-320.056	351.153	0.201	-0.394
-319.041	-69.071	-0.134	0.051
-318.026	583.434	0.109	-0.265
-317.012	-62.428	0.103	0.043
-315.997	-200.000	0.009	-0.302
-314.983	800.000	-0.116	0.452
-313.968	-119.093	-0.213	0.037
-312.953	-65.772	-0.076	0.030
-311.939	250.552	0.137	0.230
-310.924	800.000	0.086	0.294
-309.910	-167.863	-0.219	0.009
-308.895	32.009	-0.096	-0.081
-307.880	188.896	-0.223	-0.331
-306.866	125.654	-0.229	-0.286
-305.851	506.216	-0.097	0.223
-304.837	-119.087	0.212	0.037
-303.822	59.712	-0.313	-0.306
-302.807	626.444	0.138	-0.343
-301.793	65.089	0.127	-0.127
-300.778	227.542	-0.049	0.078
-299.764	-116.561	0.319	0.058
-298.749	-121.193	-0.196	-0.032
-297.735	-63.742	0.366	-0.148
-296.720	800.000	-0.082	0.315
-295.705	-131.139	-0.289	0.038
-294.691	-143.557	0.117	-0.011
-293.676	133.770	0.095	0.121
-292.662	381.428	0.116	-0.236
-291.647	-200.000	0.026	-0.178
-290.632	-126.442	0.290	-0.043
-289.618	104.897	-0.115	0.134
-288.603	800.000	0.084	0.260
-287.589	28.256	0.112	-0.093
-286.574	-200.000	0.009	0.261
-285.559	-51.000	-0.110	0.051
-284.545	-200.000	0.003	-0.032
-283.530	-200.000	0.046	-0.221
-282.516	-130.789	-0.212	0.028
-281.501	800.000	0.038	-0.111
-280.486	800.000	-0.037	0.108
-279.472	800.000	-0.065	-0.255
-278.457	106.608	0.169	-0.199
-277.443	118.093	-0.282	0.343
-276.428	33.923	-0.124	0.107
-275.413	52.524	-0.312	0.294
-274.399	-5.599	0.192	0.130
-273.384	-200.000	0.108	0.506
-272.370	-16.383	-0.080	0.050
-271.355	751.125	-0.045	-0.120
-270.340	-107.382	-0.251	-0.054
-269.326	-98.237	0.095	-0.024
-268.311	46.328	-0.165	-0.151
-267.297	-17.313	-0.367	-0.228
-266.282	800.000	-0.120	-0.367
-265.267	712.963	-0.063	-0.165
-264.253	38.512	-0.201	-0.177
-263.238	463.705	0.133	0.293
-262.224	-86.818	0.251	0.076
-261.209	-83.007	-0.134	0.043
-260.195	15.181	0.189	-0.146
-259.180	800.000	0.014	-0.039
-258.165	-200.000	-0.002	0.102
-257.151	-140.825	0.112	-0.011
-256.136	75.189	-0.441	0.459
-255.122	671.967	0.065	-0.167
-254.107	586.653	-0.099	0.240
-253.092	800.000	0.030	0.091
-252.078	800.000	0.113	0.436
-251.063	24.113	0.083	0.068
-250.049	141.591	0.101	-0.132
-249.034	-120.778	-0.292	0.049
-248.019	253.256	0.145	-0.245
-247.005	-41.151	-0.061	0.031
-245.990	59.314	0.055	0.053
-244.976	69.393	0.118	-0.120
-243.961	122.415	0.261	0.322
-242.946	22.029	-0.212	-0.171
-241.932	187.864	0.152	0.224
-240.917	149.182	0.206	-0.276
-239.903	178.889	-0.138	0.198
-238.888	-200.000	-0.006	-0.323
-237.873	-61.504	-0.434	0.180
-236.859	423.985	0.044	0.094
-235.844	-113.746	0.162	0.031
-234.830	-200.000	-0.011	0.160
-233.815	-69.619	-0.341	0.129
-232.800	-46.086	-0.105	-0.051
-231.786	-0.014	0.069	0.049
-230.771	-173.223	0.342	0.010
-229.757	4.039	0.171	-0.123
-228.742	38.925	-0.259	0.229
-227.727	-200.000	0.035	-0.214
-226.713	-113.134	0.125	0.024
-225.698	-200.000	0.015	0.104
-224.684	-26.716	0.090	0.052
-223.669	800.000	-0.074	0.231
-222.655	139.356	0.080	0.104
-221.640	-200.000	0.027	0.158
-220.625	71.948	-0.094	0.097
-219.611	-97.194	-0.094	0.024
-218.596	800.000	0.054	0.179
-217.582	145.852	-0.164	0.217
-216.567	130.203	0.073	-0.092
-215.552	2.043	0.427	0.304
-214.538	-108.039	-0.130	0.028
-213.523	700.514	-0.148	-0.384
-212.509	-17.219	0.171	-0.106
-211.494	106.078	0.043	-0.051
-210.479	-200.000	-0.029	0.263
-209.465	-65.400	0.052	0.021
-208.450	-70.900	-0.346	0.129
-207.436	-58.223	-0.049	0.021
-206.421	800.000	-0.026	0.110
-205.406	105.859	-0.205	0.239
-204.392	800.000	-0.107	0.351
-203.377	-69.008	-0.220	0.084
-202.363	44.161	0.118	0.107
-201.348	-158.482	0.299	-0.017
-200.333	-5.555	0.128	-0.086
-199.319	-116.984	-0.097	-0.018
-198.304	800.000	0.056	0.165
-197.290	-101.153	-0.062	0.015
-196.275	-200.000	-0.008	-0.080
-195.260	-200.000	-0.005	-0.261
-194.246	60.410	0.022	0.021
-193.231	-144.164	0.163	0.015
-192.217	140.670	0.201	0.261
-191.202	71.331	0.100	-0.102
-190.187	-200.000	-0.010	-0.489
-189.173	800.000	-0.073	-0.216
-188.158	162.404	-0.225	0.311
-187.144	10.057	0.261	-0.195
-186.129	-144.016	0.495	0.046
-185.114	693.657	0.035	0.090
-184.100	-200.000	0.041	0.242
-183.085	-137.856	0.199	0.022
-182.071	-75.355	-0.149	0.052
-181.056	166.868	0.165	-0.230
-180.042	14.921	0.144	-0.111
-179.027	332.608	-0.266	0.505
-178.012	-140.576	-0.143	0.015
-176.998	800.000	-0.053	-0.158
-175.983	-128.992	-0.080	0.011
-174.969	-200.000	0.011	0.090
-173.954	19.992	0.177	0.141
-172.939	80.862	-0.222	0.235
-171.925	-200.000	-0.014	0.153
-170.910	-200.000	0.062	0.359
-169.896	-200.000	0.050	0.308
-168.881	-108.667	-0.060	-0.013
-167.866	42.369	0.168	-0.150
-166.852	-200.000	-0.078	0.429
-165.837	-200.000	0.074	-0.368
-164.823	95.032	0.254	-0.285
-163.808	314.858	0.073	-0.135
-162.793	-200.000	0.017	-0.268
-161.779	45.823	0.442	0.402
-160.764	123.893	0.103	0.128
-159.750	406.802	0.047	-0.097
-158.735	800.000	-0.131	-0.360
-157.720	267.268	0.162	-0.278
-156.706	-82.303	0.281	0.090
-155.691	-200.000	-0.019	-0.112
-154.677	65.394	0.186	-0.185
-153.662	51.884	-0.171	-0.160
-152.647	-13.493	0.258	0.164
-151.633	800.000	0.065	-0.178
-150.618	63.290	-0.102	-0.101
-149.604	135.632	0.162	-0.207
-148.589	294.532	-0.042	0.076
-147.574	-200.000	0.018	-0.304
-146.560	629.669	-0.044	0.110
-145.545	-65.940	-0.257	-0.101
-144.531	238.025	0.092	-0.150
-143.516	-124.203	0.339	-0.052
-142.502	-44.932	0.146	0.071
-141.487	-72.466	0.319	-0.116
-140.472	61.977	0.163	-0.159
-139.458	90.088	-0.060	-0.066
-138.443	-122.614	0.290	-0.046
-137.429	459.107	-0.054	0.117
-136.414	-200.000	0.009	-0.266
-135.399	-185.151	-0.188	0.003
-134.385	-1.824	0.109	-0.075
-133.370	800.000	-0.046	-0.145
-132.356	-40.208	0.191	0.098
-131.341	-50.593	-0.264	0.122
-130.326	-38.108	0.315	0.164
-129.312	34.556	0.299	-0.256
-128.297	-67.846	0.058	0.022
-127.283	-200.000	-0.039	0.175
-126.268	-200.000	-0.028	0.140
-125.253	-200.000	0.009	-0.102
-124.239	473.350	-0.086	-0.191
-123.224	-70.092	-0.043	0.016
-122.210	444.694	-0.040	-0.087
-121.195	-35.949	-0.290	-0.154
-120.180	-80.407	0.138	-0.045
-119.166	42.567	-0.290	-0.259
-118.151	-200.000	-0.010	-0.118
-117.137	-2.866	-0.255	-0.175
-116.122	227.894	-0.197	-0.314
-115.107	-200.000	-0.012	-0.092
-114.093	-14.298	0.268	-0.170
-113.078	110.095	0.132	-0.156
-112.064	44.035	0.134	-0.120
-111.049	-135.898	0.417	-0.048
-110.034	39.369	0.337	0.296
-109.020	309.442	-0.079	0.145
-108.005	384.701	-0.150	-0.303
-106.991	92.167	0.041	0.045
-105.976	22.285	-0.284	0.228
-104.962	-35.049	0.257	0.137
-103.947	182.634	-0.078	0.112
-102.932	-12.415	0.301	0.193
-101.918	175.747	-0.195	-0.278
-100.903	8.560	-0.054	-0.040
-99.889	-200.000	0.028	-0.128
-98.874	485.025	-0.163	-0.365
-97.859	37.290	0.199	-0.173
-96.845	-91.101	0.070	0.020
-95.830	256.360	0.067	-0.114
-94.816	800.000	-0.075	0.264
-93.801	-161.527	0.244	-0.012
-92.786	74.341	0.088	0.091
-91.772	-53.920	0.301	-0.135
-90.757	-87.038	0.237	-0.071
-89.743	-88.866	0.066	0.019
-88.728	257.036	-0.057	-0.096
-87.713	-81.648	0.379	0.122
-86.699	-0.887	-0.227	-0.157
-85.684	-200.000	-0.015	0.092
-84.670	57.362	0.258	0.247
-83.655	-100.056	0.308	-0.075
-82.640	433.275	0.050	0.106
-81.626	550.542	0.140	0.329
-80.611	178.990	0.201	-0.288
-79.597	-64.199	-0.087	0.035
-78.582	-183.809	0.184	-0.003
-77.567	69.146	-0.149	0.150
-76.553	-200.000	-0.028	0.318
-75.538	-90.509	-0.387	-0.110
-74.524	520.724	0.062	-0.142
-73.509	800.000	0.032	0.096
-72.494	-16.593	-0.058	0.036
-71.480	-197.095	-0.354	-0.002
-70.465	-128.784	0.363	0.050
-69.451	-78.855	0.199	-0.066
-68.436	-200.000	0.031	-0.167
-67.422	51.988	-0.156	-0.145
-66.407	-155.955	0.180	0.011
-65.392	-200.000	0.035	0.153
-64.378	-33.043	0.337	0.183
-63.363	74.730	-0.039	0.040
-62.349	146.352	-0.150	0.198
-61.334	85.224	-0.991	-1.065
-60.319	39.455	0.551	0.484
-59.305	348.477	-0.536	-1.035
-58.290	294.782	0.737	1.321
-57.276	446.403	0.831	1.791
-56.261	-200.000	111.886	637.597
-55.246	473.997	1499.283	3312.693
-54.232	148.386	2663.911	3523.706
-53.217	104.018	2149.788	2475.815
-52.203	38.815	1601.930	1401.289
-51.188	30.894	1349.411	1132.437
-50.173	28.063	1310.887	1083.318
-49.159	55.280	1367.097	1294.977
-48.144	54.081	1381.516	1301.362
-47.130	31.300	1337.043	1124.324
-46.115	27.803	1319.686	1088.866
-45.100	27.604	1314.769	1083.582
-44.086	27.605	1312.218	1081.444
-43.071	27.404	1310.323	1078.650
-42.057	27.560	1308.226	1077.803
-41.042	27.537	1306.517	1076.215
-40.027	27.567	1305.086	1075.169
-39.013	27.516	1302.972	1073.083
-37.998	27.513	1301.380	1071.716
-36.984	27.561	1299.560	1070.456
-35.969	27.670	1297.627	1069.460
-34.954	27.628	1295.902	1067.750
-33.940	27.717	1294.748	1067.276
-32.925	27.715	1293.443	1066.150
-31.911	27.726	1291.751	1064.772
-30.896	27.670	1290.461	1063.339
-29.881	27.785	1288.971	1062.740
-28.867	27.804	1287.609	1061.686
-27.852	27.826	1286.098	1060.527
-26.838	27.880	1284.424	1059.416
-25.823	27.719	1283.855	1057.975
-24.809	27.762	1282.221	1056.834
-23.794	27.698	1281.014	1055.423
-22.779	27.719	1279.731	1054.447
-21.765	27.665	1278.538	1053.112
-20.750	27.676	1277.169	1052.004
-19.736	27.711	1275.235	1050.570
-18.721	27.697	1274.003	1049.436
-17.706	27.659	1273.564	1048.813
-16.692	27.653	1272.482	1047.845
-15.677	27.671	1271.329	1046.960
-14.663	27.625	1270.219	1045.738
-13.648	27.576	1269.364	1044.716
-12.633	27.553	1268.267	1043.637
-11.619	27.527	1267.439	1042.765
-10.604	27.655	1266.393	1042.594
-9.590	27.574	1265.367	1041.245
-8.575	27.508	1264.783	1040.350
-7.560	27.585	1263.507	1039.698
-6.546	27.711	1262.194	1039.295
-5.531	27.587	1261.867	1038.278
-4.517	27.535	1261.266	1037.443
-3.502	27.507	1260.869	1036.919
-2.487	27.568	1259.216	1035.861
-1.473	27.592	1254.920	1032.427
-0.458	26.233	1240.028	1012.520
0.556	21.434	1223.679	976.295
1.571	18.069	1230.226	962.509
2.586	17.373	1245.658	970.529
3.600	17.488	1234.481	962.386
4.615	15.684	1167.951	900.782
5.629	12.208	1100.297	830.958
6.644	10.416	1083.304	809.110
7.659	10.320	1081.327	807.081
8.673	10.232	1080.028	805.606
9.688	10.102	1078.860	804.016
10.702	10.447	1076.247	803.706
11.717	12.531	1079.264	816.244
12.731	15.994	1083.227	836.385
13.746	17.755	1085.104	846.509
14.761	17.498	1084.734	844.871
15.775	16.514	1082.421	838.122
16.790	15.477	1080.600	831.504
17.804	14.781	1078.809	826.610
18.819	14.366	1077.138	823.205
19.834	14.038	1076.180	820.781
20.848	13.999	1075.205	819.773
21.863	13.720	1074.705	817.941
22.877	13.536	1074.215	816.589
23.892	13.480	1073.154	815.434
24.907	13.507	1072.498	814.996
25.921	13.493	1071.856	814.371
26.936	13.583	1069.858	813.218
27.950	13.577	1068.542	812.121
28.965	13.710	1066.829	811.397
29.980	13.679	1065.507	810.169
30.994	13.622	1064.667	809.176
32.009	13.725	1063.349	808.606
33.023	13.792	1062.284	808.052
34.038	13.656	1061.362	806.619
35.053	13.584	1060.768	805.746
36.067	13.598	1059.581	804.841
37.082	13.528	1058.781	803.820
38.096	13.746	1058.080	804.273
39.111	13.713	1057.160	803.345
40.126	13.610	1055.658	801.634
41.140	13.450	1054.619	799.999
42.155	13.513	1053.595	799.458
43.169	13.482	1052.416	798.344
44.184	13.442	1051.383	797.294
45.199	13.492	1050.377	796.701
46.213	13.471	1049.243	795.670
47.228	13.507	1048.364	795.105
48.242	13.625	1047.011	794.578
49.257	13.612	1046.300	793.905
50.271	13.567	1045.484	792.999
51.286	13.717	1044.147	792.634
52.301	13.630	1043.717	791.818
53.315	13.634	1042.338	790.725
54.330	13.409	1041.596	789.017
55.344	13.546	1041.005	789.153
56.359	13.617	1039.652	788.396
57.374	13.507	1038.924	787.249
58.388	13.413	1038.035	786.062
59.403	13.341	1037.357	785.137
60.417	13.531	1036.229	785.115
61.432	13.364	1035.489	783.690
62.447	13.320	1034.689	782.810
63.461	13.263	1034.364	782.224
64.476	13.428	1032.623	781.617
65.490	13.297	1031.974	780.439
66.505	13.445	1031.274	780.541
67.520	13.373	1030.991	779.915
68.534	13.394	1030.247	779.381
69.549	13.385	1029.511	778.717
70.563	13.364	1028.402	777.707
71.578	13.349	1027.299	776.736
72.593	13.252	1026.930	775.934
73.607	13.308	1026.071	775.475
74.622	13.238	1025.629	774.745
75.636	13.319	1024.882	774.491
76.651	13.296	1024.220	773.819
77.666	13.323	1023.486	773.319
78.680	13.369	1022.679	772.858
79.695	13.358	1021.596	771.917
80.709	13.436	1021.167	771.888
81.724	13.399	1020.637	771.250
82.739	13.404	1020.298	770.949
83.753	13.595	1019.140	770.891
84.768	13.748	1018.122	770.766
85.782	13.795	1017.139	770.169
86.797	13.678	1016.686	769.218
87.812	13.569	1015.307	767.601
88.826	13.605	1014.560	767.136
89.841	13.654	1013.363	766.389
90.855	13.650	1012.774	765.858
91.870	13.662	1011.789	765.102
92.884	13.685	1011.103	764.617
93.899	13.783	1010.139	764.276
94.914	13.822	1009.580	763.963
95.928	13.731	1008.768	762.862
96.943	13.761	1007.932	762.303
97.957	13.769	1006.732	761.362
98.972	13.809	1006.020	760.939
99.987	13.826	1005.110	760.262
101.001	13.688	1004.497	759.098
102.016	13.513	1003.766	757.680
103.030	13.745	1002.806	757.948
104.045	13.787	1002.006	757.469
105.060	13.680	1001.166	756.280
106.074	13.546	1000.270	754.925
107.089	13.501	999.139	753.800
108.103	13.463	998.436	753.030
109.118	13.501	997.144	752.162
110.133	13.463	996.732	751.611
111.147	13.619	995.474	751.301
112.162	13.614	994.589	750.545
113.176	13.569	993.816	749.694
114.191	13.758	993.007	749.867
115.206	13.643	992.326	748.772
116.220	13.563	991.879	748.004
117.235	13.563	990.933	747.224
118.249	13.545	989.868	746.277
119.264	13.592	988.782	745.603
120.279	13.610	988.287	745.245
121.293	13.477	987.513	743.995
122.308	13.536	986.621	743.523
123.322	13.489	985.557	742.444
124.337	13.423	984.629	741.384
125.352	13.519	983.252	740.712
126.366	13.430	982.795	739.902
127.381	13.474	981.505	739.063
128.395	13.447	980.771	738.325
129.410	13.562	979.663	737.938
130.424	13.502	979.071	737.159
131.439	13.647	978.262	737.131
132.454	13.545	977.201	735.810
133.468	13.625	976.324	735.441
134.483	13.565	975.547	734.526
135.497	13.627	974.662	734.070
136.512	13.677	973.446	733.308
137.527	13.706	972.798	732.883
138.541	13.670	972.399	732.359
139.556	13.711	971.646	731.910
140.570	13.657	970.861	731.017
141.585	13.608	970.983	730.827
142.600	13.785	969.582	730.486
143.614	13.774	968.769	729.762
144.629	13.776	968.096	729.197
145.643	13.834	966.936	728.515
146.658	13.835	965.776	727.581
147.673	13.683	965.124	726.361
148.687	13.730	963.820	725.520
149.702	13.606	963.549	724.711
150.716	13.612	962.218	723.672
151.731	13.743	961.549	723.675
152.746	13.724	961.005	723.116
153.760	13.665	960.642	722.525
154.775	13.780	959.759	722.294
155.789	13.887	959.204	722.281
156.804	13.834	958.497	721.454
157.819	14.007	957.384	721.301
158.833	13.981	956.721	720.628
159.848	13.993	956.127	720.168
160.862	13.967	954.859	719.035
161.877	13.927	953.951	718.114
162.892	13.823	952.876	716.794
163.906	13.771	952.001	715.846
164.921	13.901	951.335	715.843
165.935	13.871	950.706	715.177
166.950	13.974	949.513	714.663
167.964	13.896	948.908	713.808
168.979	13.934	947.885	713.139
169.994	13.848	947.414	712.350
171.008	13.844	946.267	711.408
172.023	13.900	946.101	711.462
173.037	14.070	944.464	710.896
174.052	13.859	944.420	709.896
175.067	13.886	943.741	709.436
176.081	13.871	943.150	708.869
177.096	13.880	942.891	708.646
178.110	13.904	942.221	708.185
179.125	13.827	941.593	707.320
180.140	13.907	941.181	707.291
181.154	14.071	940.508	707.419
182.169	14.073	939.642	706.714
183.183	14.148	939.385	706.776
184.198	14.228	938.264	706.211
185.213	14.190	937.628	705.509
186.227	14.194	937.277	705.196
187.242	14.162	936.425	704.360
188.256	14.330	935.599	704.384
189.271	14.175	935.117	703.307
190.286	13.929	934.563	701.788
191.300	13.968	933.575	701.149
192.315	13.827	933.452	700.398
193.329	14.012	932.360	700.297
194.344	14.015	931.770	699.805
195.359	14.093	930.906	699.422
196.373	14.236	930.431	699.602
197.388	14.372	930.141	699.897
198.402	14.350	929.662	699.382
199.417	14.470	928.841	699.204
200.432	14.430	928.250	698.530
201.446	14.507	927.842	698.482
202.461	14.382	927.835	697.895
203.475	14.570	926.743	697.798
204.490	14.451	925.851	696.565
205.504	14.353	925.004	695.457
206.519	14.353	924.817	695.254
207.534	14.341	923.932	694.480
208.548	14.303	923.197	693.705
209.563	14.406	922.614	693.635
210.577	14.548	921.809	693.558
211.592	14.506	920.688	692.480
212.607	14.496	920.341	692.119
213.621	14.521	919.821	691.767
214.636	14.593	918.667	691.139
215.650	14.580	918.120	690.610
216.665	14.733	917.167	690.465
217.680	14.698	916.410	689.691
218.694	14.696	915.747	689.124
219.709	14.731	915.487	689.010
220.723	14.632	914.959	688.143
221.738	14.701	913.942	687.600
222.753	14.703	913.609	687.298
223.767	14.732	912.988	686.890
224.782	14.866	912.230	686.809
225.796	14.851	911.671	686.265
226.811	14.748	911.059	685.322
227.826	14.696	910.532	684.653
228.840	14.695	909.646	683.919
229.855	14.603	909.058	683.041
230.869	14.635	908.129	682.413
231.884	14.662	907.340	681.870
232.899	14.871	906.275	681.865
233.913	14.771	905.639	680.918
234.928	14.597	905.045	679.699
235.942	14.768	904.590	679.994
236.957	14.748	903.742	679.214
237.972	14.579	903.520	678.302
238.986	14.692	902.991	678.303
240.001	14.719	902.102	677.685
241.015	14.801	901.473	677.485
242.030	14.868	900.878	677.249
243.045	14.788	900.839	676.836
244.059	14.861	899.774	676.273
245.074	14.847	899.327	675.820
246.088	14.899	898.366	675.248
247.103	14.886	897.819	674.726
248.117	15.193	896.966	675.263
249.132	14.984	897.077	674.441
250.147	15.188	896.072	674.448
251.161	15.119	895.841	673.937
252.176	15.272	894.623	673.577
253.190	15.359	893.588	673.089
254.205	15.330	893.497	672.843
255.220	15.251	893.081	672.151
256.234	15.167	892.622	671.413
257.249	15.330	891.409	671.092
258.263	15.434	890.755	670.954
259.278	15.295	889.843	669.654
260.293	15.364	889.668	669.737
261.307	15.476	888.812	669.483
262.322	15.431	888.268	668.832
263.336	15.554	887.219	668.473
264.351	15.600	886.505	668.060
265.366	15.454	886.516	667.430
266.380	15.441	885.761	666.749
267.395	15.483	884.861	666.179
268.409	15.530	883.978	665.643
269.424	15.435	883.319	664.711
270.439	15.284	882.846	663.698
271.453	15.384	882.067	663.449
272.468	15.344	881.453	662.769
273.482	15.554	880.874	663.105
274.497	15.429	880.151	662.011
275.512	15.619	879.834	662.460
276.526	15.319	879.498	660.967
277.541	15.500	878.535	660.898
278.555	15.657	878.242	661.239
279.570	15.681	877.246	660.523
280.585	15.674	876.810	660.109
281.599	15.650	875.608	659.050
282.614	15.600	875.283	658.554
283.628	15.618	874.530	657.999
284.643	15.665	874.481	658.088
285.657	15.648	873.264	657.047
286.672	15.647	872.571	656.463
287.687	15.655	872.313	656.241
288.701	15.749	871.621	656.031
289.716	15.639	871.251	655.263
290.730	15.669	870.619	654.850
291.745	15.818	869.705	654.684
292.760	15.807	868.912	653.985
293.774	15.861	868.789	654.046
294.789	15.762	868.288	653.224
295.803	15.851	867.277	652.752
296.818	15.786	866.734	652.032
297.833	15.951	865.976	652.043
298.847	15.838	865.190	650.957
299.862	15.822	864.669	650.448
300.876	15.881	864.100	650.188
301.891	16.046	863.415	650.251
302.906	16.002	863.310	649.945
303.920	16.096	862.533	649.665
304.935	16.142	862.394	649.679
305.949	16.120	861.564	648.914
306.964	16.082	860.937	648.238
307.979	16.085	860.069	647.540
308.993	16.174	859.567	647.445
310.008	16.143	858.682	646.602
311.022	16.071	858.703	646.284
312.037	16.131	857.820	645.794
313.052	16.032	857.362	645.010
314.066	16.084	856.991	644.874
315.081	16.150	856.207	644.478
316.095	16.060	855.459	643.516
317.110	15.954	855.101	642.786
318.125	15.985	854.803	642.621
319.139	15.971	854.685	642.424
320.154	16.069	853.861	642.120
321.168	16.175	853.146	641.927
322.183	16.063	852.686	641.100
323.197	16.151	852.073	640.919
324.212	16.148	851.675	640.550
325.227	16.240	850.587	640.022
326.241	15.974	850.777	639.101
327.256	16.177	849.946	639.188
328.270	16.329	848.789	638.839
329.285	16.290	848.552	638.457
330.300	16.244	847.857	637.703
331.314	16.218	847.965	637.627
332.329	16.285	847.110	637.183
333.343	16.331	846.774	637.048
334.358	16.368	846.051	636.587
335.373	16.429	845.270	636.173
336.387	16.276	845.810	635.947
337.402	16.355	845.638	636.056
338.416	16.492	844.637	635.763
339.431	16.485	844.539	635.606
340.446	16.568	843.980	635.442
341.460	16.623	843.774	635.438
342.475	16.743	843.279	635.457
343.489	16.509	843.236	634.492
344.504	16.756	842.018	634.444
345.519	16.789	841.909	634.431
346.533	16.647	841.451	633.496
347.548	16.601	840.635	632.654
348.562	16.550	840.179	632.066
349.577	16.689	839.416	631.953
350.592	16.584	838.704	630.971
351.606	16.550	838.238	630.436
352.621	16.639	837.379	630.065
353.635	16.740	836.684	629.865
354.650	16.551	836.681	629.103
355.665	16.650	835.950	628.864
356.679	16.721	835.283	628.572
357.694	16.745	834.433	627.966
358.708	16.690	833.894	627.300
359.723	16.745	833.426	627.098
360.738	16.783	832.709	626.641
361.752	16.766	832.219	626.154
362.767	16.930	831.429	626.110
363.781	16.822	831.090	625.403
364.796	16.976	830.817	625.709
365.810	16.881	830.737	625.242
366.825	16.975	829.982	624.965
367.840	16.967	829.312	624.375
368.854	16.970	828.770	623.924
369.869	16.982	828.383	623.622
370.883	17.145	827.929	623.822
371.898	17.098	827.621	623.364
372.913	17.038	827.780	623.207
373.927	17.031	826.852	622.430
374.942	17.033	826.304	621.970
375.956	17.260	825.822	622.383
376.971	17.208	825.726	622.065
377.986	17.269	824.885	621.599
379.000	17.326	824.378	621.371
380.015	17.231	824.086	620.748
381.029	17.147	823.678	620.078
382.044	17.194	823.069	619.738
383.059	17.374	822.137	619.637
384.073	17.281	821.487	618.752
385.088	17.182	821.090	618.039
386.102	17.142	820.615	617.480
387.117	17.211	819.762	617.036
388.132	17.170	819.535	616.661
389.146	17.253	818.879	616.414
390.161	17.313	818.327	616.161
391.175	17.416	817.667	615.983
392.190	17.290	817.305	615.200
393.205	17.351	816.998	615.136
394.219	17.436	816.285	614.849
395.234	17.320	815.831	614.035
396.248	17.104	815.938	613.280
397.263	17.118	815.752	613.138
398.278	17.223	814.910	612.828
399.292	17.248	814.643	612.665
400.307	17.400	813.554	612.338
401.321	17.296	813.390	611.786
402.336	17.367	812.956	611.660
403.350	17.445	812.547	611.581
404.365	17.276	812.433	610.833
405.380	17.508	811.363	610.806
406.394	17.449	811.138	610.373
407.409	17.581	810.753	610.501
408.423	17.577	810.553	610.284
409.438	17.584	810.222	610.003
410.453	17.736	809.741	610.133
411.467	17.636	809.480	609.521
412.482	17.598	808.675	608.727
413.496	17.767	808.340	609.023
414.511	17.834	807.883	608.865
415.526	17.811	807.702	608.595
416.540	17.945	806.646	608.221
417.555	17.833	806.577	607.716
418.569	17.857	806.144	607.422
419.584	17.689	806.322	606.904
420.599	17.823	805.581	606.770
421.613	111.283	1294.623	1475.965
422.628	96.009	1365.846	1476.054
