DTS Sentinel unit serial number:	SN413079Multiplexer serial number:	ORYXHardware model number:	OX4-SRSoftware version number:	ORYX F/W v4.00 Oryx Data Collector v3.7.2.0data status	okinstallation	princeton_trtdifferential loss correction	single-endedforward channel	channel 1reverse channel	N/Adate	2019/09/12time	05:28:11forward acquisition time	60.00reverse acquisition time	0.00gamma	496.2192k internal	0.2322k external	0.2322temperature offset calibration	1.0050default loss term (dB/km)	0.3790temperature slope calibration	1.0000multiplexer offset coefficient	1.0000multiplexer slope coefficient	1.0000fibre end	0.00T internal ref (°C)	31.94T ext. ref 1 (°C)	1.62T ext. ref 2 (°C)	27.41length (m)	temperature (°C)	Stokes	anti-Stokes-747.200	-200.000	-0.025	0.382
-746.185	-116.008	-0.113	0.021
-745.171	-160.406	0.105	0.006
-744.156	325.222	0.087	0.168
-743.142	3.985	0.280	0.207
-742.127	-21.428	-0.256	0.158
-741.112	121.976	0.034	0.043
-740.098	118.008	-0.453	0.564
-739.083	24.591	-0.343	-0.287
-738.069	-18.089	0.236	-0.149
-737.054	-59.355	0.066	-0.029
-736.039	-45.710	-0.268	-0.134
-735.025	11.657	0.107	0.083
-734.010	89.211	-0.236	-0.266
-732.996	-163.712	-0.258	-0.012
-731.981	-29.007	-0.232	0.135
-730.966	-121.085	0.160	-0.027
-729.952	231.624	0.077	-0.127
-728.937	-200.000	0.003	-0.080
-727.923	800.000	-0.041	-0.127
-726.908	-55.567	0.094	0.042
-725.894	98.874	-0.179	-0.208
-724.879	150.549	-0.078	-0.107
-723.864	-153.042	-0.060	-0.004
-722.850	378.660	0.164	0.340
-721.835	11.216	-0.394	0.305
-720.821	-89.522	-0.100	-0.030
-719.806	-200.000	0.032	0.277
-718.791	800.000	0.054	-0.184
-717.777	130.805	0.030	0.039
-716.762	226.027	0.174	0.284
-715.748	151.395	0.178	0.244
-714.733	100.946	0.103	-0.121
-713.718	800.000	-0.081	-0.260
-712.704	347.934	0.184	-0.366
-711.689	-200.000	0.009	-0.359
-710.675	-19.232	-0.337	0.211
-709.660	288.704	0.148	0.271
-708.645	56.518	-0.369	-0.362
-707.631	-33.148	-0.289	0.162
-706.616	-167.225	-0.216	0.009
-705.602	-164.825	0.214	0.010
-704.587	-32.020	-0.317	0.179
-703.572	19.862	-0.124	0.101
-702.558	800.000	0.067	0.192
-701.543	-74.037	0.198	-0.072
-700.529	-59.454	0.133	-0.058
-699.514	450.631	-0.067	0.148
-698.499	123.709	0.114	0.144
-697.485	-84.153	-0.183	0.058
-696.470	95.863	0.135	-0.155
-695.456	-101.133	0.059	-0.015
-694.441	800.000	-0.100	-0.430
-693.426	-200.000	-0.034	0.191
-692.412	-58.828	-0.214	0.094
-691.397	800.000	0.063	0.214
-690.383	-64.107	-0.231	-0.095
-689.368	-24.618	0.048	0.029
-688.354	-200.000	-0.023	-0.265
-687.339	-200.000	0.077	-0.340
-686.324	9.571	-0.321	0.245
-685.310	-22.212	-0.180	-0.110
-684.295	32.657	-0.136	-0.118
-683.281	111.050	-0.199	-0.241
-682.266	-200.000	-0.013	0.129
-681.251	-200.000	0.015	-0.372
-680.237	150.528	-0.259	-0.354
-679.222	-23.395	-0.382	0.231
-678.208	3.958	0.121	-0.089
-677.193	4.929	0.109	0.081
-676.178	-6.640	0.113	-0.078
-675.164	-80.801	0.281	0.094
-674.149	-5.407	-0.142	0.099
-673.135	-200.000	-0.060	0.289
-672.120	-26.423	0.159	0.094
-671.105	-183.838	-0.241	-0.004
-670.091	36.083	-0.137	-0.122
-669.076	143.882	-0.114	0.154
-668.062	-71.896	-0.224	0.084
-667.047	277.841	0.106	-0.190
-666.032	70.945	0.175	0.183
-665.018	-49.774	-0.124	0.059
-664.003	-200.000	0.003	0.163
-662.989	-200.000	-0.009	-0.073
-661.974	-131.729	0.087	-0.012
-660.959	210.906	0.216	-0.342
-659.945	800.000	-0.126	-0.373
-658.930	50.775	0.125	-0.119
-657.916	653.820	0.114	-0.296
-656.901	177.055	0.070	-0.102
-655.886	-200.000	-0.014	0.142
-654.872	-2.356	0.232	0.163
-653.857	42.519	0.005	0.004
-652.843	395.102	-0.089	0.187
-651.828	-200.000	0.077	-0.524
-650.814	-200.000	0.025	0.156
-649.799	-107.649	-0.050	0.011
-648.784	-200.000	0.007	-0.394
-647.770	406.102	0.200	0.424
-646.755	74.160	0.282	0.298
-645.741	-134.099	-0.009	0.001
-644.726	489.001	-0.097	0.223
-643.711	9.527	0.291	0.222
-642.697	106.857	-0.178	-0.213
-641.682	-3.027	-0.188	0.132
-640.668	-77.610	-0.051	0.018
-639.653	-86.443	0.167	-0.051
-638.638	-200.000	-0.016	-0.176
-637.624	58.495	-0.169	-0.167
-636.609	-72.322	-0.088	0.033
-635.595	800.000	0.097	0.408
-634.580	-118.057	0.312	-0.056
-633.565	282.142	0.246	-0.443
-632.551	-104.235	-0.230	-0.054
-631.536	48.483	0.205	-0.193
-630.522	6.683	-0.128	0.095
-629.507	-198.530	-0.353	-0.002
-628.492	-135.809	0.216	-0.026
-627.478	278.118	-0.024	-0.044
-626.463	-71.681	-0.278	0.104
-625.449	800.000	-0.014	-0.050
-624.434	-11.916	0.165	-0.109
-623.419	322.052	-0.200	-0.382
-622.405	-200.000	0.006	0.110
-621.390	692.328	0.053	-0.139
-620.376	800.000	-0.099	-0.405
-619.361	-161.087	0.157	0.008
-618.346	569.430	-0.026	-0.064
-617.332	800.000	-0.067	-0.238
-616.317	-50.034	0.110	0.053
-615.303	-180.848	0.084	-0.002
-614.288	670.106	-0.146	-0.380
-613.273	800.000	0.022	0.091
-612.259	-37.037	0.138	-0.075
-611.244	-26.574	0.078	-0.046
-610.230	-89.240	-0.041	-0.012
-609.215	474.251	0.142	-0.322
-608.201	22.779	0.072	-0.060
-607.186	221.654	0.112	0.181
-606.171	-72.237	-0.104	-0.039
-605.157	-200.000	0.053	0.258
-604.142	281.946	-0.023	-0.042
-603.128	31.397	-0.210	0.181
-602.113	-63.352	-0.197	0.082
-601.098	-134.339	-0.311	-0.038
-600.084	-112.613	-0.232	-0.046
-599.069	-114.552	-0.333	-0.064
-598.055	-189.994	0.219	-0.002
-597.040	62.830	0.274	-0.275
-596.025	522.701	-0.099	-0.233
-595.011	-200.000	-0.314	0.000
-593.996	-36.693	-0.309	0.167
-592.982	800.000	-0.007	-0.029
-591.967	-200.000	-0.017	0.296
-590.952	-115.789	0.076	0.014
-589.938	-200.000	-0.076	-0.352
-588.923	-2.565	-0.134	-0.094
-587.909	-200.000	0.016	0.086
-586.894	116.777	0.120	-0.148
-585.879	-188.829	-0.113	0.001
-584.865	-52.251	-0.227	-0.106
-583.850	-23.823	-0.131	0.079
-582.836	2.172	0.103	0.074
-581.821	-53.502	-0.070	-0.032
-580.806	85.562	0.127	0.140
-579.792	-94.381	-0.173	-0.047
-578.777	-6.166	-0.043	0.030
-577.763	-21.244	0.129	-0.079
-576.748	-109.576	-0.135	0.029
-575.733	-107.243	-0.181	-0.040
-574.719	-200.000	0.010	-0.054
-573.704	-107.555	0.179	-0.039
-572.690	-43.246	0.130	-0.066
-571.675	-200.000	-0.047	0.262
-570.661	9.758	0.286	0.218
-569.646	-63.128	-0.294	0.122
-568.631	-102.367	-0.439	0.106
-567.617	-200.000	0.010	0.155
-566.602	800.000	-0.074	0.250
-565.588	800.000	0.026	0.076
-564.573	171.925	-0.286	-0.412
-563.558	800.000	0.049	-0.184
-562.544	-8.949	0.047	0.032
-561.529	-30.231	0.132	-0.075
-560.515	-64.999	0.197	-0.080
-559.500	482.159	-0.089	0.204
-558.485	-34.870	-0.024	-0.013
-557.471	-55.875	0.159	0.071
-556.456	800.000	0.054	0.185
-555.442	-200.000	0.058	-0.264
-554.427	-18.310	0.157	0.099
-553.412	313.803	-0.093	-0.176
-552.398	-20.810	-0.207	-0.127
-551.383	117.012	0.226	-0.279
-550.369	204.044	0.113	-0.175
-549.354	-127.721	-0.148	0.021
-548.339	173.834	-0.086	-0.124
-547.325	-107.694	-0.269	0.059
-546.310	-200.000	0.013	0.064
-545.296	345.980	0.039	-0.076
-544.281	545.347	0.130	0.310
-543.266	26.504	0.226	-0.190
-542.252	175.472	0.320	0.465
-541.237	-92.696	-0.283	-0.080
-540.223	800.000	-0.121	0.395
-539.208	27.692	0.131	0.110
-538.193	-200.000	0.006	-0.206
-537.179	800.000	-0.082	-0.260
-536.164	-144.225	-0.134	-0.013
-535.150	-67.185	-0.073	0.029
-534.135	3.597	0.126	0.092
-533.121	-19.520	0.334	-0.207
-532.106	-39.773	0.263	-0.138
-531.091	-155.017	0.247	0.016
-530.077	261.663	-0.087	-0.151
-529.062	-13.283	-0.057	-0.037
-528.048	-30.061	0.089	-0.051
-527.033	-36.642	-0.270	0.145
-526.018	-70.611	-0.083	-0.031
-525.004	-103.683	0.228	-0.053
-523.989	-21.486	-0.169	0.103
-522.975	-145.115	-0.422	-0.038
-521.960	-42.994	-0.391	0.199
-520.945	-120.169	0.208	0.036
-519.931	304.080	-0.101	-0.188
-518.916	800.000	-0.133	-0.401
-517.902	-137.743	-0.220	-0.025
-516.887	63.781	-0.168	0.169
-515.872	-50.014	0.174	-0.082
-514.858	40.497	-0.103	0.093
-513.843	800.000	0.045	-0.183
-512.829	800.000	0.062	-0.184
-511.814	-48.640	-0.091	0.044
-510.799	79.161	-0.184	0.197
-509.785	800.000	-0.075	-0.303
-508.770	-66.578	-0.331	-0.132
-507.756	362.444	-0.077	-0.155
-506.741	70.730	0.139	0.144
-505.726	-0.479	-0.190	-0.135
-504.712	-200.000	-0.085	0.393
-503.697	380.377	-0.081	0.167
-502.683	89.523	-0.129	0.144
-501.668	144.748	-0.034	0.045
-500.653	-129.707	0.199	0.027
-499.639	-200.000	-0.020	-0.095
-498.624	258.779	0.028	-0.048
-497.610	800.000	0.151	0.510
-496.595	34.349	-0.070	0.061
-495.581	-200.000	0.050	-0.266
-494.566	-131.672	0.026	0.003
-493.551	-110.574	-0.348	-0.072
-492.537	-200.000	-0.006	0.099
-491.522	-20.933	0.029	0.018
-490.508	800.000	-0.038	-0.160
-489.493	331.115	0.070	-0.135
-488.478	144.417	0.354	-0.472
-487.464	423.921	-0.080	-0.171
-486.449	-133.990	0.204	0.025
-485.435	234.113	-0.128	0.211
-484.420	-200.000	-0.009	-0.141
-483.405	411.620	0.123	-0.262
-482.391	-161.820	-0.154	-0.008
-481.376	-55.205	-0.135	-0.061
-480.362	7.934	0.250	-0.187
-479.347	800.000	0.134	0.378
-478.332	55.484	-0.268	-0.259
-477.318	-100.944	-0.156	-0.038
-476.303	125.888	-0.010	0.012
-475.289	800.000	0.027	-0.117
-474.274	-90.061	0.191	0.056
-473.259	30.090	-0.168	-0.143
-472.245	163.081	0.067	-0.094
-471.230	800.000	-0.071	0.282
-470.216	68.399	0.320	0.327
-469.201	-129.785	0.020	0.003
-468.186	-74.496	-0.137	-0.049
-467.172	-200.000	0.051	-0.330
-466.157	-43.232	-0.450	-0.228
-465.143	-157.946	0.396	0.023
-464.128	97.414	0.162	-0.186
-463.113	124.818	0.103	-0.130
-462.099	-27.673	0.337	-0.195
-461.084	314.433	-0.126	-0.237
-460.070	604.670	-0.022	-0.054
-459.055	80.220	0.078	-0.084
-458.040	346.535	-0.075	0.148
-457.026	-30.579	-0.194	0.110
-456.011	144.902	0.112	0.150
-454.997	-118.406	-0.146	-0.026
-453.982	-70.126	0.163	-0.062
-452.968	-77.923	-0.512	0.176
-451.953	618.232	-0.059	0.149
-450.938	-175.951	-0.261	-0.007
-449.924	-200.000	0.088	-0.444
-448.909	800.000	0.064	-0.254
-447.895	172.665	-0.194	0.279
-446.880	-10.759	-0.285	0.188
-445.865	-75.748	0.150	0.053
-444.851	800.000	-0.039	0.148
-443.836	-88.830	0.136	-0.040
-442.822	286.916	0.176	-0.318
-441.807	496.236	0.171	0.392
-440.792	800.000	0.023	-0.065
-439.778	211.034	-0.150	0.236
-438.763	-200.000	-0.045	-0.254
-437.749	-80.211	0.199	-0.066
-436.734	-200.000	0.050	-0.345
-435.719	331.450	-0.074	-0.142
-434.705	-15.230	0.200	-0.128
-433.690	-200.000	-0.010	-0.308
-432.676	-200.000	-0.045	-0.229
-431.661	800.000	0.032	-0.112
-430.646	-27.727	0.085	-0.049
-429.632	188.732	0.178	-0.265
-428.617	-200.000	-0.001	0.135
-427.603	-200.000	-0.007	-0.245
-426.588	341.770	0.139	0.272
-425.573	207.887	-0.197	0.308
-424.559	-200.000	0.030	0.285
-423.544	800.000	0.070	-0.302
-422.530	-10.296	0.433	-0.287
-421.515	-98.761	-0.184	0.047
-420.500	800.000	-0.055	-0.159
-419.486	-53.853	-0.170	-0.077
-418.471	-110.307	0.126	0.026
-417.457	13.879	0.131	-0.101
-416.442	-200.000	0.060	-0.367
-415.428	129.938	0.165	0.211
-414.413	-190.115	0.342	-0.004
-413.398	800.000	0.038	0.130
-412.384	64.286	0.185	0.186
-411.369	746.907	0.194	-0.520
-410.355	20.307	0.071	-0.057
-409.340	16.910	0.165	-0.131
-408.325	55.797	0.195	0.188
-407.311	-200.000	0.009	-0.148
-406.296	-200.000	0.027	0.246
-405.282	26.058	0.204	0.170
-404.267	-102.492	0.269	-0.064
-403.252	-97.894	-0.321	-0.083
-402.238	463.523	-0.090	0.200
-401.223	-141.985	0.172	0.017
-400.209	-100.365	0.137	0.034
-399.194	-200.000	0.042	-0.394
-398.179	-21.279	0.276	0.168
-397.165	14.549	-0.302	0.235
-396.150	341.186	0.064	0.125
-395.136	265.483	0.154	0.268
-394.121	111.123	-0.092	-0.111
-393.106	800.000	0.064	0.214
-392.092	3.675	0.056	0.041
-391.077	107.028	0.073	0.087
-390.063	9.085	-0.197	-0.148
-389.048	800.000	-0.036	0.150
-388.033	19.023	-0.151	-0.121
-387.019	131.491	0.238	0.305
-386.004	331.940	-0.104	-0.200
-384.990	28.992	0.054	-0.045
-383.975	18.137	0.274	0.218
-382.960	654.900	0.083	-0.213
-381.946	-200.000	-0.021	0.180
-380.931	116.591	0.161	0.196
-379.917	-88.614	0.160	0.047
-378.902	-122.777	0.229	-0.037
-377.888	307.026	-0.039	0.073
-376.873	395.935	0.049	0.102
-375.858	-200.000	-0.012	0.227
-374.844	71.638	-0.051	0.053
-373.829	122.065	-0.041	0.051
-372.815	335.191	0.033	-0.064
-371.800	152.706	-0.131	-0.178
-370.785	366.462	0.090	0.181
-369.771	800.000	0.103	0.449
-368.756	-6.280	-0.201	0.136
-367.742	175.080	-0.139	-0.200
-366.727	702.233	0.088	0.231
-365.712	-200.000	-0.011	0.136
-364.698	41.221	0.095	-0.085
-363.683	800.000	-0.048	-0.162
-362.669	-181.347	0.306	0.006
-361.654	69.459	-0.250	0.256
-360.639	-115.274	0.104	-0.020
-359.625	-200.000	-0.013	-0.348
-358.610	755.452	-0.035	0.095
-357.596	-150.293	-0.117	0.009
-356.581	800.000	0.027	0.107
-355.566	800.000	0.105	-0.299
-354.552	-46.118	0.120	0.059
-353.537	6.474	-0.324	0.240
-352.523	-82.211	0.296	-0.096
-351.508	170.698	-0.057	-0.081
-350.493	75.597	0.220	-0.231
-349.479	100.917	-0.289	-0.335
-348.464	800.000	0.097	-0.326
-347.450	632.202	0.024	-0.061
-346.435	-41.419	-0.234	0.120
-345.420	-96.791	-0.296	-0.077
-344.406	110.158	0.106	-0.127
-343.391	181.448	0.120	0.175
-342.377	-97.239	0.225	0.058
-341.362	357.542	0.074	0.147
-340.348	-14.230	0.119	-0.076
-339.333	38.166	-0.127	-0.113
-338.318	310.258	-0.221	-0.411
-337.304	-70.969	-0.121	0.045
-336.289	5.475	-0.234	-0.172
-335.275	313.495	-0.218	0.409
-334.260	110.322	0.081	0.096
-333.245	227.732	-0.241	0.389
-332.231	800.000	-0.047	0.199
-331.216	220.318	0.187	0.299
-330.202	-156.792	0.339	-0.021
-329.187	-123.449	-0.223	0.035
-328.172	-2.536	0.196	-0.136
-327.158	119.814	-0.153	-0.189
-326.143	300.215	0.065	-0.118
-325.129	800.000	0.031	-0.103
-324.114	-200.000	-0.031	0.207
-323.099	92.002	0.115	-0.129
-322.085	207.337	0.076	-0.118
-321.070	78.310	0.378	-0.401
-320.056	-69.760	-0.187	0.071
-319.041	-170.937	0.147	-0.005
-318.026	212.923	0.109	-0.170
-317.012	-200.000	-0.008	0.305
-315.997	-18.805	0.065	-0.041
-314.983	-53.450	-0.212	-0.096
-313.968	-7.914	-0.190	0.128
-312.953	71.050	0.082	-0.085
-311.939	-88.681	-0.095	0.028
-310.924	-28.288	0.240	-0.138
-309.910	-103.374	0.068	-0.016
-308.895	129.480	0.245	0.311
-307.880	527.267	0.195	0.456
-306.866	9.812	-0.065	0.049
-305.851	-200.000	-0.226	0.000
-304.837	26.606	0.143	0.119
-303.822	-44.004	-0.251	-0.125
-302.807	-170.570	-0.110	-0.004
-301.793	-120.848	0.302	-0.051
-300.778	0.267	-0.184	0.130
-299.764	-134.230	0.104	-0.013
-298.749	-123.921	0.274	-0.043
-297.735	-120.127	-0.211	0.036
-296.720	800.000	0.017	-0.049
-295.705	131.630	0.059	-0.075
-294.691	11.853	-0.115	0.088
-293.676	85.239	0.039	0.043
-292.662	-47.005	-0.253	0.123
-291.647	-200.000	-0.073	0.346
-290.632	403.860	0.042	0.087
-289.618	24.642	-0.134	0.110
-288.603	-200.000	0.009	0.126
-287.589	800.000	0.070	0.294
-286.574	121.447	-0.127	-0.157
-285.559	66.987	0.050	0.051
-284.545	-200.000	0.013	-0.244
-283.530	418.499	0.082	0.174
-282.516	376.308	0.025	0.050
-281.501	-124.349	-0.085	0.013
-280.486	-200.000	-0.013	-0.142
-279.472	-75.445	0.132	0.047
-278.457	-117.724	-0.162	-0.029
-277.443	-28.843	0.131	0.075
-276.428	800.000	-0.059	0.162
-275.413	-200.000	0.018	-0.127
-274.399	-200.000	-0.004	0.117
-273.384	-67.841	-0.297	0.115
-272.370	-64.968	-0.296	-0.118
-271.355	-77.169	0.124	0.043
-270.340	-200.000	0.004	-0.224
-269.326	-200.000	0.010	0.304
-268.311	74.832	-0.201	0.210
-267.297	-61.761	-0.270	0.112
-266.282	118.819	0.113	-0.139
-265.267	-200.000	-0.084	0.519
-264.253	800.000	0.043	-0.166
-263.238	-106.489	0.395	-0.087
-262.224	800.000	-0.024	0.100
-261.209	-121.951	-0.229	-0.037
-260.195	-178.332	0.137	0.003
-259.180	-175.046	0.385	-0.011
-258.165	-200.000	-0.015	0.158
-257.151	800.000	0.086	-0.247
-256.136	659.458	-0.111	-0.284
-255.122	800.000	0.125	-0.355
-254.107	134.409	-0.104	0.134
-253.092	-138.280	0.395	0.043
-252.078	420.424	-0.137	0.290
-251.063	-18.874	-0.219	0.135
-250.049	482.287	-0.052	0.118
-249.034	104.443	-0.306	-0.357
-248.019	800.000	0.057	0.159
-247.005	800.000	0.136	0.392
-245.990	800.000	0.121	-0.348
-244.976	74.865	-0.158	0.164
-243.961	281.970	0.046	-0.082
-242.946	-200.000	0.015	0.207
-241.932	-131.106	0.150	-0.020
-240.917	-200.000	0.015	-0.175
-239.903	57.847	-0.050	0.049
-238.888	26.384	-0.250	0.207
-237.873	168.264	0.197	0.277
-236.859	602.787	-0.023	-0.058
-235.844	32.946	-0.210	-0.181
-234.830	148.069	0.221	-0.295
-233.815	-89.624	0.086	-0.025
-232.800	800.000	-0.042	0.118
-231.786	280.712	0.123	-0.218
-230.771	236.291	0.119	0.194
-229.757	-26.599	0.193	-0.112
-228.742	59.480	0.101	0.099
-227.727	-24.887	0.156	-0.092
-226.713	-4.169	0.137	0.094
-225.698	800.000	0.092	-0.253
-224.684	61.012	-0.263	-0.258
-223.669	780.637	-0.086	0.234
-222.655	-59.893	-0.092	-0.039
-221.640	184.684	0.361	0.530
-220.625	-28.723	-0.290	0.165
-219.611	-200.000	-0.010	0.121
-218.596	-200.000	-0.084	0.433
-217.582	-78.047	0.270	0.092
-216.567	-200.000	-0.042	0.201
-215.552	-106.000	0.203	-0.045
-214.538	-200.000	0.024	0.234
-213.523	51.859	-0.139	-0.131
-212.509	-200.000	-0.016	0.150
-211.494	-200.000	-0.015	0.157
-210.479	-200.000	0.001	-0.142
-209.465	18.147	-0.093	-0.074
-208.450	800.000	-0.031	-0.120
-207.436	-183.173	-0.251	0.004
-206.421	-200.000	0.049	0.283
-205.406	-48.113	-0.258	-0.123
-204.392	366.633	-0.086	0.172
-203.377	486.137	-0.100	0.226
-202.363	-29.386	-0.134	-0.076
-201.348	-99.129	0.342	-0.086
-200.333	91.238	0.073	-0.081
-199.319	477.834	0.119	0.265
-198.304	-200.000	-0.026	-0.183
-197.290	59.362	-0.165	0.160
-196.275	359.549	-0.023	0.046
-195.260	-16.091	0.249	-0.156
-194.246	-143.986	-0.416	0.039
-193.231	-125.658	-0.177	0.027
-192.217	-21.550	-0.209	-0.126
-191.202	-132.979	-0.043	-0.005
-190.187	30.207	-0.107	-0.091
-189.173	218.002	0.160	0.252
-188.158	800.000	0.021	0.077
-187.144	-200.000	0.057	0.271
-186.129	87.160	-0.037	0.040
-185.114	-23.230	0.160	0.095
-184.100	243.813	0.056	0.092
-183.085	-112.435	0.218	0.043
-182.071	-22.446	-0.236	-0.141
-181.056	-200.000	-0.000	-0.353
-180.042	-200.000	-0.095	0.511
-179.027	366.108	0.156	0.312
-178.012	-182.709	-0.334	0.006
-176.998	156.831	-0.223	0.304
-175.983	-124.014	0.230	0.036
-174.969	220.225	0.023	0.037
-173.954	-127.408	0.382	-0.055
-172.939	800.000	-0.101	0.345
-171.925	54.610	0.241	-0.230
-170.910	-76.661	-0.206	0.071
-169.896	800.000	-0.073	0.280
-168.881	498.141	-0.037	-0.083
-167.866	154.606	-0.226	-0.307
-166.852	176.297	-0.038	0.055
-165.837	-200.000	0.020	0.170
-164.823	-44.331	0.177	0.087
-163.808	800.000	-0.056	0.201
-162.793	420.714	-0.061	-0.129
-161.779	-49.034	-0.284	-0.134
-160.764	80.359	0.161	-0.171
-159.750	-48.790	-0.083	-0.039
-158.735	-92.922	-0.057	-0.016
-157.720	276.720	-0.091	-0.160
-156.706	117.240	0.108	-0.131
-155.691	719.393	0.079	0.208
-154.677	22.727	0.396	-0.321
-153.662	-98.954	-0.333	-0.083
-152.647	800.000	0.161	-0.542
-151.633	-200.000	0.021	-0.121
-150.618	307.855	-0.143	0.264
-149.604	-200.000	-0.023	0.238
-148.589	-150.857	-0.219	0.016
-147.574	-200.000	-0.008	0.136
-146.560	-200.000	-0.032	0.260
-145.545	104.813	0.090	-0.105
-144.531	594.567	0.035	0.086
-143.516	269.840	0.162	0.281
-142.502	-178.908	-0.109	0.002
-141.487	-200.000	-0.003	-0.210
-140.472	260.019	0.127	0.216
-139.458	44.374	-0.142	0.129
-138.443	55.686	-0.028	-0.027
-137.429	800.000	-0.097	-0.264
-136.414	-200.000	-0.005	0.118
-135.399	-76.296	-0.357	0.124
-134.385	2.512	-0.086	0.061
-133.370	31.294	0.239	-0.202
-132.356	-135.074	-0.306	-0.036
-131.341	800.000	0.048	0.184
-130.326	-26.641	0.297	0.172
-129.312	-71.404	-0.412	0.152
-128.297	-0.976	0.155	0.108
-127.283	101.768	0.111	0.128
-126.268	-113.076	0.167	0.033
-125.253	-200.000	-0.047	0.341
-124.239	80.923	-0.185	-0.197
-123.224	-200.000	-0.014	-0.255
-122.210	167.917	-0.256	0.359
-121.195	-200.000	-0.076	0.359
-120.180	800.000	0.051	0.192
-119.166	31.604	-0.046	0.039
-118.151	-164.666	0.298	0.013
-117.137	37.265	-0.295	0.257
-116.122	800.000	-0.022	0.070
-115.107	800.000	-0.041	0.155
-114.093	370.403	-0.291	0.582
-113.078	-2.755	0.334	0.230
-112.064	167.378	-0.030	0.042
-111.049	466.745	0.132	0.291
-110.034	47.649	0.016	0.015
-109.020	-200.000	-0.013	0.188
-108.005	-72.240	0.125	-0.046
-106.991	-119.499	-0.244	0.042
-105.976	223.418	0.073	-0.116
-104.962	570.366	-0.087	0.209
-103.947	800.000	-0.055	-0.231
-102.932	-108.365	-0.221	0.047
-101.918	-200.000	0.041	0.302
-100.903	800.000	-0.063	0.254
-99.889	78.603	-0.083	0.087
-98.874	800.000	0.021	0.078
-97.859	88.722	-0.142	0.156
-96.845	-123.076	0.241	-0.038
-95.830	-11.177	0.208	-0.135
-94.816	187.939	-0.041	-0.060
-93.801	31.422	0.344	-0.291
-92.786	800.000	0.026	0.079
-91.772	-21.406	-0.195	0.117
-90.757	-200.000	-0.028	-0.255
-89.743	45.002	0.017	0.016
-88.728	-81.129	0.158	0.051
-87.713	102.173	-0.219	0.252
-86.699	-29.211	-0.113	-0.064
-85.684	274.713	0.196	-0.341
-84.670	225.068	-0.147	-0.234
-83.655	305.685	-0.028	-0.052
-82.640	2.994	-0.184	-0.131
-81.626	-104.277	-0.232	0.053
-80.611	18.734	0.099	-0.078
-79.597	-122.316	-0.160	-0.026
-78.582	-77.773	0.103	0.035
-77.567	372.354	-0.106	0.212
-76.553	64.477	-0.112	0.111
-75.538	-200.000	-0.009	0.092
-74.524	800.000	0.037	-0.135
-73.509	39.179	-0.069	-0.061
-72.494	-20.405	0.268	0.162
-71.480	-38.034	0.297	-0.155
-70.465	14.734	0.371	-0.285
-69.451	-76.077	-0.483	0.168
-68.436	79.428	0.085	0.090
-67.422	238.329	0.131	-0.214
-66.407	-200.000	-0.009	0.075
-65.392	-116.317	0.212	0.039
-64.378	-176.719	-0.150	0.004
-63.363	-127.537	-0.348	0.050
-62.349	-88.731	0.562	0.164
-61.334	-4.648	-1.047	-0.711
-60.319	-58.742	0.340	0.145
-59.305	165.160	-0.484	-0.673
-58.290	319.725	0.665	1.242
-57.276	800.000	0.450	1.396
-56.261	-200.000	95.679	597.639
-55.246	565.728	1367.761	3262.396
-54.232	162.067	2546.819	3509.435
-53.217	113.871	2138.832	2557.023
-52.203	43.992	1600.933	1442.856
-51.188	35.385	1338.996	1155.194
-50.173	32.372	1297.037	1101.344
-49.159	54.833	1344.372	1275.782
-48.144	57.132	1360.774	1304.966
-47.130	35.726	1319.741	1140.422
-46.115	32.146	1302.547	1104.518
-45.100	31.865	1297.978	1098.949
-44.086	31.808	1295.384	1096.381
-43.071	31.894	1292.945	1094.772
-42.057	31.718	1290.570	1091.693
-41.042	31.812	1288.559	1090.493
-40.027	31.931	1287.586	1090.321
-39.013	31.826	1285.432	1087.841
-37.998	31.883	1283.718	1086.683
-36.984	31.849	1282.215	1085.166
-35.969	31.833	1280.246	1083.369
-34.954	31.944	1278.593	1082.562
-33.940	31.921	1277.275	1081.274
-32.925	31.964	1275.910	1080.322
-31.911	32.042	1274.268	1079.336
-30.896	32.069	1272.713	1078.136
-29.881	32.188	1271.408	1077.670
-28.867	32.012	1270.398	1075.758
-27.852	31.990	1269.134	1074.519
-26.838	32.094	1267.291	1073.515
-25.823	32.010	1265.947	1071.854
-24.809	32.015	1264.617	1070.710
-23.794	32.065	1263.390	1069.916
-22.779	32.117	1262.181	1069.147
-21.765	31.974	1260.954	1067.247
-20.750	32.111	1259.247	1066.541
-19.736	31.956	1258.285	1064.806
-18.721	31.922	1256.950	1063.442
-17.706	31.881	1256.272	1062.591
-16.692	31.905	1254.814	1061.453
-15.677	31.931	1253.540	1060.481
-14.663	31.883	1252.429	1059.227
-13.648	31.935	1251.236	1058.468
-12.633	31.985	1250.031	1057.690
-11.619	31.916	1249.592	1056.885
-10.604	31.853	1249.137	1056.104
-9.590	31.867	1247.683	1054.912
-8.575	31.770	1247.006	1053.756
-7.560	31.811	1246.313	1053.357
-6.546	31.787	1245.327	1052.347
-5.531	31.788	1244.729	1051.804
-4.517	31.840	1243.364	1050.901
-3.502	31.718	1243.088	1049.941
-2.487	31.858	1241.576	1049.405
-1.473	31.856	1237.443	1045.859
-0.458	30.623	1223.162	1026.943
0.556	27.203	1206.236	990.642
1.571	23.823	1211.756	976.553
2.586	22.974	1227.273	984.241
3.600	22.314	1216.161	971.602
4.615	15.998	1142.222	879.584
5.629	6.048	1065.580	771.814
6.644	1.953	1045.326	737.312
7.659	1.551	1043.035	733.690
8.673	1.480	1041.957	732.526
9.688	1.506	1040.753	731.740
10.702	1.640	1039.080	731.141
11.717	7.648	1047.045	765.703
12.731	17.770	1062.315	826.062
13.746	23.612	1069.254	859.771
14.761	24.830	1070.554	866.645
15.775	24.967	1069.966	866.754
16.790	24.727	1068.923	864.671
17.804	24.675	1068.542	864.035
18.819	24.955	1067.726	864.650
19.834	25.005	1067.694	864.792
20.848	24.915	1067.628	864.225
21.863	24.934	1067.123	863.833
22.877	24.950	1066.338	863.200
23.892	24.825	1065.533	861.866
24.907	24.937	1064.757	861.705
25.921	24.825	1063.808	860.323
26.936	24.816	1062.802	859.386
27.950	24.668	1061.143	857.261
28.965	24.647	1059.030	855.378
29.980	24.697	1057.667	854.442
30.994	24.964	1056.973	855.077
32.009	24.821	1056.054	853.577
33.023	24.701	1054.301	851.516
34.038	24.824	1054.189	851.935
35.053	24.819	1053.550	851.319
36.067	24.770	1052.491	850.153
37.082	24.972	1051.509	850.247
38.096	25.190	1050.590	850.458
39.111	25.174	1050.399	850.157
40.126	25.015	1049.022	848.210
41.140	24.757	1046.960	845.250
42.155	24.531	1045.621	843.029
43.169	24.437	1045.463	842.380
44.184	24.524	1044.016	841.553
45.199	24.486	1042.727	840.258
46.213	24.469	1042.505	839.928
47.228	24.599	1041.736	839.845
48.242	24.719	1040.910	839.665
49.257	24.965	1040.107	840.098
50.271	25.028	1038.846	839.303
51.286	24.990	1038.472	838.746
52.301	24.939	1037.331	837.513
53.315	24.906	1036.917	836.952
54.330	24.797	1035.770	835.440
55.344	24.822	1035.310	835.111
56.359	24.773	1033.810	833.599
57.374	24.714	1032.895	832.517
58.388	24.743	1032.381	832.161
59.403	24.517	1031.920	830.666
60.417	24.433	1030.640	829.172
61.432	24.474	1030.544	829.211
62.447	24.630	1029.344	828.898
63.461	24.631	1028.683	828.294
64.476	24.526	1027.627	826.885
65.490	24.502	1026.822	826.052
66.505	24.480	1026.483	825.604
67.520	24.633	1025.399	825.365
68.534	24.446	1024.211	823.476
69.549	24.247	1023.001	821.513
70.563	24.067	1022.407	820.132
71.578	24.149	1021.565	819.762
72.593	24.066	1020.752	818.659
73.607	24.179	1020.076	818.562
74.622	24.428	1019.930	819.517
75.636	24.512	1018.958	819.049
76.651	24.425	1018.186	817.957
77.666	24.266	1017.621	816.699
78.680	24.274	1017.253	816.370
79.695	24.337	1016.536	816.012
80.709	24.374	1015.992	815.672
81.724	24.372	1015.092	814.867
82.739	24.633	1014.087	815.178
83.753	24.965	1013.625	816.250
84.768	25.149	1013.046	816.546
85.782	25.105	1012.158	815.558
86.797	25.113	1011.073	814.649
87.812	24.892	1010.181	812.855
88.826	25.200	1009.211	813.400
89.841	25.318	1008.331	813.154
90.855	25.154	1007.724	811.849
91.870	25.234	1006.220	810.927
92.884	24.942	1005.445	808.912
93.899	24.976	1004.691	808.387
94.914	25.106	1003.917	808.280
95.928	25.006	1002.575	806.676
96.943	24.722	1001.641	804.579
97.957	24.508	1000.282	802.454
98.972	24.388	999.075	800.875
99.987	24.551	998.987	801.463
101.001	24.848	997.835	801.801
102.016	24.787	997.317	801.040
103.030	24.753	996.047	799.799
104.045	24.664	995.204	798.651
105.060	24.576	994.151	797.342
106.074	24.497	994.144	796.913
107.089	25.017	993.517	798.660
108.103	24.864	992.038	796.721
109.118	24.569	991.177	794.643
110.133	24.623	989.889	793.785
111.147	24.386	988.704	791.710
112.162	24.281	987.974	790.592
113.176	24.582	987.483	791.461
114.191	24.404	987.075	790.276
115.206	24.132	985.932	788.089
116.220	24.071	984.934	786.950
117.235	24.296	984.201	787.289
118.249	24.375	982.709	786.373
119.264	24.146	982.414	785.060
120.279	24.273	982.002	785.218
121.293	24.374	981.112	784.882
122.308	24.223	980.182	783.405
123.322	24.264	979.079	782.633
124.337	24.243	977.935	781.561
125.352	23.558	976.349	777.222
126.366	23.657	975.448	776.871
127.381	24.491	975.209	780.257
128.395	24.743	975.194	781.278
129.410	24.870	974.001	780.809
130.424	24.781	973.731	780.134
131.439	24.839	972.120	779.028
132.454	24.895	971.381	778.611
133.468	24.870	970.375	777.627
134.483	24.875	969.805	777.118
135.497	24.997	969.276	777.159
136.512	25.244	968.152	777.258
137.527	25.166	966.891	775.837
138.541	25.051	966.665	775.094
139.556	25.042	966.240	774.644
140.570	25.159	965.436	774.434
141.585	25.197	964.457	773.747
142.600	25.079	963.256	772.205
143.614	25.286	962.678	772.564
144.629	25.443	961.607	772.310
145.643	25.182	960.930	770.578
146.658	25.001	959.415	768.520
147.673	25.143	958.208	768.093
148.687	24.859	957.707	766.407
149.702	24.788	956.573	765.127
150.716	24.774	955.549	764.182
151.731	25.000	955.165	764.771
152.746	25.134	954.803	764.986
153.760	25.154	954.329	764.623
154.775	25.353	953.375	764.640
155.789	25.370	952.405	763.868
156.804	25.270	951.687	762.796
157.819	25.251	950.930	762.042
158.833	25.287	949.918	761.317
159.848	25.329	949.354	760.978
160.862	25.278	947.837	759.477
161.877	25.226	946.837	758.391
162.892	25.193	945.946	757.469
163.906	25.316	944.588	756.831
164.921	25.097	944.204	755.536
165.935	25.289	943.435	755.662
166.950	25.272	942.626	754.873
167.964	25.281	941.380	753.847
168.979	25.036	940.374	751.946
169.994	24.942	940.002	751.188
171.008	25.274	939.238	751.904
172.023	25.309	938.160	751.120
173.037	25.098	937.096	749.323
174.052	24.954	936.100	747.855
175.067	25.095	935.390	747.812
176.081	25.080	935.202	747.534
177.096	24.939	934.696	746.473
178.110	24.687	933.777	744.625
179.125	24.545	933.010	743.356
180.140	24.829	931.938	743.615
181.154	24.786	932.116	743.513
182.169	25.070	931.921	744.475
183.183	25.159	931.808	744.685
184.198	25.098	930.889	743.631
185.213	25.121	930.051	742.994
186.227	25.216	929.348	742.761
187.242	25.229	928.796	742.307
188.256	25.299	928.539	742.325
189.271	25.383	927.538	741.807
190.286	25.033	925.884	738.975
191.300	24.297	924.761	734.978
192.315	23.554	923.209	730.620
193.329	23.427	922.975	729.848
194.344	24.408	923.574	734.296
195.359	25.070	922.993	736.493
196.373	25.239	922.599	736.809
197.388	24.939	922.575	735.488
198.402	25.116	921.512	735.304
199.417	25.195	920.844	735.028
200.432	24.857	920.164	733.038
201.446	24.779	919.515	732.138
202.461	24.644	919.059	731.158
203.475	23.936	916.770	726.379
204.490	23.151	915.677	722.249
205.504	23.972	915.933	725.734
206.519	24.574	916.061	728.227
207.534	24.667	915.566	728.149
208.548	25.176	915.526	730.125
209.563	24.906	914.175	727.887
210.577	24.982	913.890	727.903
211.592	25.347	913.299	728.851
212.607	25.300	912.596	728.031
213.621	25.166	912.373	727.246
214.636	25.459	911.320	727.532
215.650	25.106	910.387	725.292
216.665	25.287	910.061	725.704
217.680	25.416	908.746	725.109
218.694	24.993	907.818	722.598
219.709	24.765	907.323	721.222
220.723	24.996	907.035	721.862
221.738	25.307	906.450	722.585
222.753	25.101	905.813	721.181
223.767	25.295	905.500	721.649
224.782	25.524	904.907	722.034
225.796	25.370	904.581	721.091
226.811	24.865	903.116	717.833
227.826	24.086	902.240	713.953
228.840	24.266	901.585	714.091
229.855	24.468	900.354	713.862
230.869	24.141	899.212	711.588
231.884	24.398	899.831	713.039
232.899	25.100	899.887	715.826
233.913	24.992	899.199	714.783
234.928	25.010	898.611	714.324
235.942	24.943	897.747	713.311
236.957	24.615	897.235	711.533
237.972	24.709	896.771	711.475
238.986	24.943	895.662	711.465
240.001	24.727	895.254	710.219
241.015	24.903	894.878	710.555
242.030	25.115	894.172	710.774
243.045	25.179	894.102	710.910
244.059	25.280	893.496	710.764
245.074	25.248	892.388	709.692
246.088	24.730	891.579	706.940
247.103	25.158	891.360	708.394
248.117	25.450	891.621	709.694
249.132	25.811	890.978	710.542
250.147	26.093	890.268	711.022
251.161	26.055	890.215	710.770
252.176	25.964	889.838	710.048
253.190	26.106	888.934	709.819
254.205	26.168	888.490	709.647
255.220	26.249	887.907	709.439
256.234	25.891	887.071	707.303
257.249	25.932	886.358	706.832
258.263	26.019	885.339	706.298
259.278	26.016	885.216	706.124
260.293	26.081	884.476	705.725
261.307	25.998	884.139	705.072
262.322	25.747	883.201	703.278
263.336	25.044	881.356	699.007
264.351	24.062	879.397	693.570
265.366	24.165	879.070	693.649
266.380	25.170	879.827	698.101
267.395	25.494	879.642	699.152
268.409	25.494	879.102	698.662
269.424	25.803	878.377	699.222
270.439	25.844	877.597	698.700
271.453	25.930	877.007	698.502
272.468	26.187	876.879	699.334
273.482	26.139	876.150	698.502
274.497	25.619	875.260	695.721
275.512	25.271	873.973	693.292
276.526	25.731	874.280	695.254
277.541	25.889	873.968	695.551
278.555	25.666	873.208	694.024
279.570	25.603	872.046	692.799
280.585	25.663	871.706	692.696
281.599	25.624	870.921	691.864
282.614	25.109	869.496	688.691
283.628	25.136	869.397	688.655
284.643	25.479	868.626	689.300
285.657	25.132	867.764	687.227
286.672	24.779	867.043	685.240
287.687	25.270	867.191	687.179
288.701	25.519	866.271	687.342
289.716	25.085	865.385	684.920
290.730	25.042	864.375	683.894
291.745	24.651	864.011	682.056
292.760	25.236	863.838	684.089
293.774	26.121	864.615	688.018
294.789	26.312	864.244	688.392
295.803	26.359	863.643	688.031
296.818	26.501	862.627	687.701
297.833	25.925	861.838	684.823
298.847	25.832	861.081	683.809
299.862	26.259	860.979	685.285
300.876	26.469	860.253	685.442
301.891	26.373	859.735	684.605
302.906	25.899	858.934	682.113
303.920	26.116	858.622	682.627
304.935	26.426	858.229	683.424
305.949	26.198	857.917	682.256
306.964	26.064	857.024	680.980
307.979	26.203	856.824	681.283
308.993	26.477	856.524	682.017
310.008	26.447	855.777	681.250
311.022	26.232	854.836	679.633
312.037	26.124	854.307	678.746
313.052	25.806	853.217	676.624
314.066	24.947	852.082	672.442
315.081	24.601	851.188	670.378
316.095	25.530	851.300	673.890
317.110	25.940	851.445	675.482
318.125	25.111	849.748	670.975
319.139	24.215	848.039	666.220
320.154	24.054	848.346	665.797
321.168	24.988	848.587	669.422
322.183	25.581	848.837	671.774
323.197	25.809	848.382	672.205
324.212	26.014	847.799	672.449
325.227	26.110	846.993	672.107
326.241	26.022	846.600	671.408
327.256	25.872	846.036	670.344
328.270	25.857	844.906	669.332
329.285	25.599	844.340	667.869
330.300	25.454	843.337	666.478
331.314	25.608	843.563	667.169
332.329	26.121	843.432	668.907
333.343	26.379	843.007	669.467
334.358	26.101	842.667	668.108
335.373	26.083	842.204	667.614
336.387	26.430	842.541	669.110
337.402	26.712	841.828	669.525
338.416	26.456	841.861	668.547
339.431	26.649	841.588	668.983
340.446	26.780	840.961	668.909
341.460	26.589	840.483	667.763
342.475	26.526	839.869	666.984
343.489	26.634	839.700	667.190
344.504	27.038	839.153	668.183
345.519	27.062	838.880	667.995
346.533	27.035	838.752	667.734
347.548	27.165	837.701	667.316
348.562	27.054	837.501	666.692
349.577	26.878	836.781	665.412
350.592	27.037	835.601	664.996
351.606	26.860	835.325	664.072
352.621	26.901	834.785	663.733
353.635	26.940	833.719	662.971
354.650	26.119	832.084	658.618
355.665	25.192	830.876	654.224
356.679	25.693	830.408	655.624
357.694	25.928	830.382	656.399
358.708	26.044	829.969	656.439
359.723	26.526	829.357	657.646
360.738	26.658	829.225	657.965
361.752	26.768	828.771	657.944
362.767	27.027	828.974	658.989
363.781	27.320	828.561	659.664
364.796	27.354	828.024	659.301
365.810	27.490	827.581	659.383
366.825	27.337	827.087	658.376
367.840	27.064	826.033	656.491
368.854	26.707	825.201	654.486
369.869	26.683	824.995	654.177
370.883	26.849	824.425	654.266
371.898	26.681	823.820	653.122
372.913	26.735	824.027	653.422
373.927	26.889	823.379	653.407
374.942	26.991	823.021	653.430
375.956	27.173	822.773	653.830
376.971	27.291	822.500	653.980
377.986	27.376	821.725	653.612
379.000	27.420	821.278	653.356
380.015	27.258	820.552	652.138
381.029	27.216	820.282	651.715
382.044	27.317	819.657	651.524
383.059	27.441	818.829	651.252
384.073	27.435	818.512	650.919
385.088	27.314	817.680	649.771
386.102	27.134	817.039	648.560
387.117	26.998	816.443	647.544
388.132	26.794	815.406	645.939
389.146	26.185	814.478	642.978
390.161	26.512	814.414	644.037
391.175	27.155	814.201	646.095
392.190	26.712	813.358	643.797
393.205	25.151	811.165	636.469
394.219	23.816	809.555	630.417
395.234	23.684	809.609	629.937
396.248	25.455	810.680	636.997
397.263	26.825	811.677	642.582
398.278	26.829	811.322	642.259
399.292	26.585	810.341	640.562
400.307	26.719	809.511	640.322
401.321	26.843	809.229	640.482
402.336	27.203	809.269	641.728
403.350	27.649	809.188	643.180
404.365	27.857	809.158	643.832
405.380	28.133	808.631	644.329
406.394	28.130	808.431	644.103
407.409	28.048	807.983	643.399
408.423	27.951	807.438	642.565
409.438	28.100	806.921	642.622
410.453	28.182	806.521	642.533
411.467	28.084	806.176	641.859
412.482	27.908	806.099	641.123
413.496	28.062	805.694	641.285
414.511	28.121	805.422	641.219
415.526	28.055	804.421	640.134
416.540	28.090	804.085	639.933
417.555	27.715	803.525	638.117
418.569	27.587	803.191	637.349
419.584	27.788	802.115	637.140
420.599	27.539	801.741	635.918
421.613	111.090	1287.133	1461.489
422.628	95.850	1357.849	1461.574
