DTS Sentinel unit serial number:	SN413079Multiplexer serial number:	ORYXHardware model number:	OX4-SRSoftware version number:	ORYX F/W v4.00 Oryx Data Collector v3.7.2.0data status	okinstallation	princeton_trtdifferential loss correction	single-endedforward channel	channel 1reverse channel	N/Adate	2019/09/17time	07:06:35forward acquisition time	60.00reverse acquisition time	0.00gamma	496.2192k internal	0.2331k external	0.2331temperature offset calibration	0.9972default loss term (dB/km)	0.3790temperature slope calibration	1.0000multiplexer offset coefficient	1.0000multiplexer slope coefficient	1.0000fibre end	0.00T internal ref (°C)	27.42T ext. ref 1 (°C)	0.12T ext. ref 2 (°C)	21.16length (m)	temperature (°C)	Stokes	anti-Stokes-747.200	-131.772	-0.102	-0.013
-746.185	-200.000	-0.094	0.643
-745.171	-200.000	0.011	-0.167
-744.156	72.668	-0.101	-0.106
-743.142	108.342	-0.161	0.194
-742.127	-200.000	-0.034	-0.180
-741.112	81.293	-0.174	0.189
-740.098	-200.000	-0.047	0.446
-739.083	-141.713	0.202	-0.020
-738.069	605.139	0.045	-0.112
-737.054	800.000	0.069	-0.235
-736.039	29.449	-0.130	-0.111
-735.025	72.485	0.299	0.314
-734.010	435.046	-0.101	-0.220
-732.996	-115.142	-0.194	-0.037
-731.981	-200.000	-0.048	-0.264
-730.966	-15.188	-0.022	-0.014
-729.952	-58.864	0.430	0.187
-728.937	-200.000	0.018	0.332
-727.923	-113.972	0.346	-0.068
-726.908	-106.176	-0.295	0.067
-725.894	325.049	0.135	0.259
-724.879	-34.886	-0.272	0.149
-723.864	73.436	-0.175	0.184
-722.850	800.000	0.097	0.320
-721.835	-102.593	-0.220	0.053
-720.821	-57.808	-0.088	-0.039
-719.806	331.601	0.224	0.435
-718.791	-36.908	0.312	0.168
-717.777	-70.282	-0.058	-0.022
-716.762	137.638	0.160	0.210
-715.748	800.000	-0.088	-0.356
-714.733	800.000	-0.116	-0.440
-713.718	800.000	-0.087	-0.261
-712.704	185.220	0.178	-0.266
-711.689	45.854	-0.203	-0.188
-710.675	59.446	-0.206	-0.204
-709.660	-34.602	0.170	-0.094
-708.645	-59.973	0.219	0.094
-707.631	-200.000	-0.039	-0.354
-706.616	-8.717	-0.085	0.057
-705.602	-74.207	0.162	0.059
-704.587	-100.174	-0.282	0.070
-703.572	-36.130	0.136	-0.074
-702.558	-77.169	0.104	-0.037
-701.543	-200.000	0.023	-0.225
-700.529	470.670	0.131	0.296
-699.514	438.778	0.034	0.076
-698.499	54.172	-0.190	0.184
-697.485	-150.925	0.221	0.017
-696.470	-19.225	-0.223	-0.139
-695.456	73.400	0.153	-0.161
-694.441	-139.808	0.377	0.040
-693.426	-183.538	0.094	0.002
-692.412	-116.947	-0.244	-0.045
-691.397	-46.806	0.285	-0.140
-690.383	1.779	-0.129	0.093
-689.368	-200.000	-0.005	0.296
-688.354	800.000	-0.115	-0.438
-687.339	-200.000	0.001	0.024
-686.324	15.222	0.115	-0.090
-685.310	119.840	-0.052	-0.064
-684.295	800.000	0.068	-0.282
-683.281	16.566	0.143	-0.114
-682.266	800.000	-0.098	0.336
-681.251	-11.554	0.052	-0.035
-680.237	-139.232	-0.294	0.032
-679.222	-68.910	-0.100	0.039
-678.208	-92.782	-0.181	0.051
-677.193	-28.519	-0.283	0.164
-676.178	130.008	-0.063	0.081
-675.164	-81.332	0.355	-0.118
-674.149	-200.000	0.034	0.199
-673.135	-32.207	-0.212	0.119
-672.120	-108.339	0.158	0.034
-671.105	60.812	-0.088	-0.088
-670.091	284.322	0.055	0.098
-669.076	-180.787	-0.124	-0.003
-668.062	0.140	0.147	-0.105
-667.047	-166.002	0.118	0.005
-666.032	-129.667	-0.257	-0.036
-665.018	-200.000	-0.020	-0.405
-664.003	-200.000	-0.023	-0.148
-662.989	800.000	-0.129	-0.393
-661.974	-200.000	-0.014	-0.307
-660.959	-148.269	-0.088	0.007
-659.945	-75.777	-0.154	-0.055
-658.930	800.000	0.042	-0.185
-657.916	800.000	-0.055	-0.167
-656.901	-85.680	0.060	0.019
-655.886	481.627	-0.152	0.346
-654.872	-155.741	-0.243	-0.016
-653.857	-33.369	-0.374	0.208
-652.843	73.486	0.302	0.317
-651.828	-125.222	-0.146	-0.022
-650.814	105.585	-0.173	-0.205
-649.799	68.637	0.075	-0.077
-648.784	717.893	0.111	0.295
-647.770	337.511	-0.052	-0.101
-646.755	-200.000	0.001	-0.013
-645.741	72.188	0.126	-0.132
-644.726	17.306	0.062	0.049
-643.711	-200.000	-0.003	0.080
-642.697	-148.626	-0.173	-0.014
-641.682	-78.933	-0.516	-0.176
-640.668	-200.000	-0.012	0.166
-639.653	385.050	-0.085	-0.177
-638.638	3.847	-0.240	-0.175
-637.624	338.876	0.157	0.306
-636.609	-48.041	0.298	0.144
-635.595	-1.158	-0.110	0.078
-634.580	66.390	-0.170	0.173
-633.565	-200.000	0.045	0.267
-632.551	-187.523	0.311	0.004
-631.536	-93.590	-0.151	-0.042
-630.522	580.469	0.089	0.218
-629.507	800.000	0.039	-0.149
-628.492	-102.369	0.159	-0.038
-627.478	-43.410	-0.152	-0.077
-626.463	-114.083	0.428	0.083
-625.449	-49.687	-0.145	-0.069
-624.434	-114.067	0.127	-0.025
-623.419	639.167	-0.096	-0.245
-622.405	800.000	-0.073	0.269
-621.390	-173.513	0.345	0.010
-620.376	-91.408	-0.334	0.095
-619.361	-200.000	0.049	0.224
-618.346	800.000	-0.030	0.126
-617.332	-32.047	0.158	-0.088
-616.317	-149.783	0.291	-0.023
-615.303	800.000	-0.131	-0.475
-614.288	148.326	-0.175	-0.236
-613.273	-200.000	-0.026	0.217
-612.259	-131.564	-0.310	-0.041
-611.244	-185.645	0.208	0.003
-610.230	217.980	-0.110	-0.176
-609.215	-115.721	-0.256	-0.048
-608.201	-51.365	0.241	0.113
-607.186	-21.776	-0.141	-0.086
-606.171	134.318	-0.210	-0.273
-605.157	-146.536	0.101	0.009
-604.142	-37.554	-0.238	-0.127
-603.128	87.835	-0.291	-0.323
-602.113	327.131	0.068	0.131
-601.098	-0.082	0.202	0.144
-600.084	-200.000	-0.002	-0.081
-599.069	800.000	0.033	0.127
-598.055	-89.933	-0.278	0.081
-597.040	-82.099	-0.119	-0.039
-596.025	-48.677	-0.276	-0.133
-595.011	61.597	0.050	-0.050
-593.996	763.180	-0.047	-0.127
-592.982	-61.026	0.084	0.036
-591.967	-54.354	0.277	0.126
-590.952	21.484	-0.197	-0.160
-589.938	246.933	-0.087	0.147
-588.923	-11.916	-0.199	-0.130
-587.909	224.098	-0.025	0.041
-586.894	-116.450	0.118	0.022
-585.879	-84.697	-0.398	-0.125
-584.865	-35.176	0.339	-0.185
-583.850	108.520	-0.223	-0.267
-582.836	28.420	-0.170	0.143
-581.821	296.655	-0.217	-0.398
-580.806	-85.162	-0.310	0.097
-579.792	-110.133	0.235	0.049
-578.777	-15.024	-0.086	0.055
-577.763	-157.313	0.251	-0.015
-576.748	800.000	-0.002	0.007
-575.733	-90.938	0.146	0.042
-574.719	800.000	-0.046	0.129
-573.704	-103.308	-0.121	0.029
-572.690	-200.000	0.017	-0.267
-571.675	-27.200	0.237	0.138
-570.661	8.201	0.243	-0.182
-569.646	800.000	0.067	0.257
-568.631	-15.080	0.047	0.030
-567.617	-42.605	-0.349	-0.178
-566.602	-200.000	-0.015	-0.147
-565.588	117.688	-0.163	-0.201
-564.573	-200.000	0.066	-0.330
-563.558	395.444	0.124	0.258
-562.544	108.236	0.037	0.044
-561.529	800.000	0.025	0.093
-560.515	488.250	0.144	-0.328
-559.500	-86.183	-0.317	-0.098
-558.485	38.476	0.064	-0.057
-557.471	-200.000	0.043	-0.284
-556.456	-67.347	-0.145	-0.057
-555.442	-104.058	0.557	-0.130
-554.427	209.168	-0.113	0.176
-553.412	9.154	-0.254	0.192
-552.398	-200.000	-0.089	0.429
-551.383	77.659	0.086	-0.091
-550.369	270.692	-0.198	-0.348
-549.354	-200.000	-0.024	0.126
-548.339	-121.900	-0.114	0.019
-547.325	483.902	0.017	-0.040
-546.310	-125.329	0.098	-0.015
-545.296	-121.786	0.208	0.034
-544.281	100.743	-0.139	0.161
-543.266	800.000	-0.045	-0.127
-542.252	19.653	0.206	0.165
-541.237	-25.680	-0.182	0.108
-540.223	-50.125	-0.337	0.160
-539.208	82.017	-0.346	0.375
-538.193	800.000	-0.079	0.217
-537.179	-110.797	0.140	0.029
-536.164	71.752	0.255	0.265
-535.150	-128.326	-0.202	0.029
-534.135	20.274	-0.153	0.123
-533.121	-200.000	-0.005	-0.276
-532.106	18.315	0.229	-0.183
-531.091	691.236	-0.145	-0.379
-530.077	-95.239	-0.238	0.064
-529.062	223.918	0.105	0.169
-528.048	-200.000	-0.069	-0.313
-527.033	86.533	-0.146	-0.161
-526.018	-159.418	-0.125	-0.007
-525.004	-48.440	0.237	0.114
-523.989	-200.000	0.028	-0.419
-522.975	-35.509	-0.032	-0.018
-521.960	50.189	-0.228	0.215
-520.945	-200.000	0.008	0.071
-519.931	50.766	0.238	-0.225
-518.916	-200.000	0.021	-0.290
-517.902	781.489	-0.137	0.375
-516.887	-21.736	0.236	0.144
-515.872	107.105	-0.181	0.215
-514.858	-76.560	0.263	0.092
-513.843	129.528	0.058	0.074
-512.829	-200.000	-0.002	-0.044
-511.814	-163.547	0.125	-0.006
-510.799	-200.000	-0.013	-0.447
-509.785	-37.204	-0.121	0.065
-508.770	2.723	0.085	0.062
-507.756	160.408	0.105	0.146
-506.741	415.717	-0.117	0.248
-505.726	-153.038	0.246	0.017
-504.712	-200.000	0.009	0.248
-503.697	-109.950	0.492	-0.103
-502.683	72.991	0.153	-0.159
-501.668	-200.000	-0.082	0.499
-500.653	800.000	-0.123	0.452
-499.639	-154.004	0.278	-0.019
-498.624	800.000	0.031	-0.098
-497.610	121.127	0.051	0.063
-496.595	35.099	-0.113	-0.099
-495.581	-128.372	-0.235	0.033
-494.566	-67.584	-0.074	0.029
-493.551	-47.763	-0.304	-0.147
-492.537	345.802	0.135	0.264
-491.522	-69.401	-0.174	0.067
-490.508	19.418	-0.233	-0.186
-489.493	-200.000	0.023	0.189
-488.478	-200.000	0.021	0.108
-487.464	-119.163	0.103	0.018
-486.449	-52.487	0.096	-0.044
-485.435	392.620	-0.079	-0.164
-484.420	-198.368	0.313	-0.002
-483.405	-66.815	-0.344	0.136
-482.391	-40.448	-0.318	0.165
-481.376	-200.000	-0.025	-0.126
-480.362	-79.216	-0.069	-0.023
-479.347	800.000	0.103	0.295
-478.332	-25.665	-0.250	-0.147
-477.318	-74.317	-0.215	-0.077
-476.303	133.105	-0.151	-0.194
-475.289	47.619	0.292	-0.271
-474.274	-36.306	0.084	-0.045
-473.259	45.020	-0.055	-0.051
-472.245	800.000	-0.040	-0.135
-471.230	-124.948	-0.293	-0.045
-470.216	-78.174	0.115	-0.040
-469.201	800.000	0.007	0.024
-468.186	53.478	0.106	-0.101
-467.172	30.739	-0.203	0.173
-466.157	-200.000	0.001	0.227
-465.143	42.923	-0.183	-0.166
-464.128	-21.105	0.070	0.043
-463.113	-23.878	-0.237	-0.141
-462.099	24.986	0.090	0.075
-461.084	-84.875	-0.455	0.142
-460.070	514.237	0.076	0.177
-459.055	-55.256	-0.219	0.098
-458.040	5.325	0.291	-0.214
-457.026	742.329	-0.045	-0.119
-456.011	281.402	-0.135	-0.240
-454.997	-133.570	0.193	0.024
-453.982	-6.945	-0.081	-0.055
-452.968	800.000	0.121	0.359
-451.953	-25.393	-0.162	-0.095
-450.938	-140.157	0.258	-0.027
-449.924	54.207	0.042	-0.040
-448.909	-154.043	0.116	-0.008
-447.895	125.239	0.100	0.126
-446.880	372.851	-0.056	-0.114
-445.865	85.091	0.212	-0.231
-444.851	-119.658	0.220	0.038
-443.836	-163.665	0.215	0.010
-442.822	-114.146	0.314	0.060
-441.807	378.368	-0.129	-0.262
-440.792	-4.259	-0.426	0.293
-439.778	800.000	-0.075	0.209
-438.763	-200.000	-0.018	-0.085
-437.749	-26.304	-0.117	0.068
-436.734	445.176	0.108	-0.237
-435.719	-136.701	0.046	0.005
-434.705	-20.568	0.187	0.115
-433.690	-97.366	-0.074	0.019
-432.676	78.686	-0.035	-0.038
-431.661	-176.664	-0.222	-0.006
-430.646	-80.996	0.034	-0.011
-429.632	-70.942	0.024	-0.009
-428.617	549.123	0.105	0.251
-427.603	-34.207	-0.229	0.125
-426.588	-141.690	-0.099	-0.010
-425.573	-52.024	-0.358	0.165
-424.559	-7.799	0.151	0.101
-423.544	-112.757	-0.180	-0.036
-422.530	362.134	-0.118	-0.236
-421.515	29.475	-0.220	-0.186
-420.500	-200.000	0.020	0.111
-419.486	800.000	-0.124	-0.341
-418.471	-200.000	-0.009	0.097
-417.457	-200.000	0.032	-0.148
-416.442	800.000	0.071	-0.198
-415.428	134.981	-0.237	0.306
-414.413	-126.436	0.306	0.045
-413.398	93.168	-0.172	0.193
-412.384	233.869	-0.079	0.130
-411.369	-39.993	0.326	-0.169
-410.355	-200.000	0.019	0.266
-409.340	-200.000	0.001	0.028
-408.325	-50.360	-0.265	0.124
-407.311	-139.739	-0.273	-0.029
-406.296	107.448	-0.106	-0.125
-405.282	168.139	0.117	0.166
-404.267	-54.038	0.230	-0.104
-403.252	800.000	0.067	0.192
-402.238	-103.514	-0.130	0.030
-401.223	89.046	0.121	0.133
-400.209	800.000	-0.036	-0.122
-399.194	800.000	0.090	0.261
-398.179	-200.000	-0.039	-0.171
-397.165	134.838	0.045	-0.058
-396.150	128.864	0.187	0.237
-395.136	-74.917	0.299	0.106
-394.121	142.039	0.046	-0.061
-393.106	-40.504	0.231	-0.119
-392.092	-94.163	-0.203	-0.055
-391.077	-50.771	0.034	0.016
-390.063	-200.000	0.034	-0.320
-389.048	-200.000	0.041	-0.210
-388.033	9.006	0.307	0.230
-387.019	-140.189	0.297	-0.031
-386.004	494.317	-0.156	-0.354
-384.990	261.583	-0.054	0.093
-383.975	28.127	-0.211	-0.177
-382.960	263.832	0.107	0.185
-381.946	605.908	-0.051	-0.127
-380.931	-153.340	0.275	0.019
-379.917	296.294	-0.046	-0.084
-378.902	135.372	0.062	0.080
-377.888	-163.221	0.296	-0.014
-376.873	-200.000	-0.009	0.179
-375.858	44.680	-0.100	-0.091
-374.844	800.000	0.073	-0.202
-373.829	800.000	-0.083	-0.261
-372.815	-148.580	-0.200	0.016
-371.800	183.280	0.139	0.203
-370.785	800.000	0.081	-0.271
-369.771	-43.773	0.262	-0.131
-368.756	-200.000	0.001	0.194
-367.742	-200.000	-0.028	0.140
-366.727	-17.244	0.323	0.202
-365.712	-153.431	0.358	0.025
-364.698	-155.554	0.147	-0.009
-363.683	-54.414	0.293	0.132
-362.669	-95.413	-0.186	0.049
-361.654	-45.150	0.198	0.098
-360.639	800.000	-0.059	0.194
-359.625	-200.000	0.012	0.185
-358.610	95.907	-0.292	0.330
-357.596	559.557	-0.105	0.252
-356.581	210.623	0.054	0.084
-355.566	-200.000	0.096	-0.437
-354.552	7.806	-0.228	0.169
-353.537	149.832	0.078	-0.104
-352.523	-200.000	0.003	-0.335
-351.508	50.797	-0.149	0.140
-350.493	-77.304	0.056	0.019
-349.479	624.138	-0.070	-0.175
-348.464	84.825	0.275	-0.299
-347.450	-200.000	0.004	0.144
-346.435	-69.546	0.435	-0.165
-345.420	-4.061	-0.227	-0.156
-344.406	-51.656	0.135	-0.062
-343.391	-23.656	0.086	0.051
-342.377	261.817	0.094	0.161
-341.362	-135.618	-0.135	0.016
-340.348	-10.229	-0.183	-0.120
-339.333	-200.000	-0.020	-0.121
-338.318	-68.419	0.234	-0.090
-337.304	-94.669	0.285	0.077
-336.289	-36.443	0.022	0.012
-335.275	800.000	0.029	0.083
-334.260	-130.157	-0.242	0.033
-333.245	129.273	-0.272	0.344
-332.231	-200.000	-0.035	0.339
-331.216	-200.000	-0.019	-0.409
-330.202	-46.173	-0.220	0.107
-329.187	-56.835	0.194	0.085
-328.172	-110.748	0.206	-0.042
-327.158	48.450	0.377	0.349
-326.143	451.321	-0.126	0.276
-325.129	20.890	0.249	0.200
-324.114	191.058	-0.097	-0.145
-323.099	-25.625	0.271	0.158
-322.085	109.312	0.191	0.227
-321.070	-101.523	-0.205	0.049
-320.056	-102.047	-0.244	-0.058
-319.041	-200.000	-0.021	0.100
-318.026	-63.997	-0.224	-0.091
-317.012	64.588	-0.261	0.260
-315.997	237.657	-0.126	0.207
-314.983	-200.000	-0.009	-0.397
-313.968	-200.000	0.014	-0.079
-312.953	232.575	-0.075	-0.122
-311.939	539.299	0.034	-0.081
-310.924	284.416	-0.141	0.251
-309.910	38.382	-0.371	-0.327
-308.895	318.657	0.025	-0.046
-307.880	128.487	0.262	-0.330
-306.866	111.101	-0.152	-0.181
-305.851	209.543	0.103	0.160
-304.837	169.673	-0.257	-0.364
-303.822	2.006	0.252	-0.180
-302.807	335.737	0.079	0.152
-301.793	45.268	0.208	-0.190
-300.778	-200.000	-0.044	0.459
-299.764	112.853	-0.184	0.221
-298.749	-105.252	-0.210	0.047
-297.735	800.000	-0.017	-0.054
-296.720	-67.414	-0.205	0.080
-295.705	-99.591	-0.062	-0.015
-294.691	475.962	-0.074	-0.165
-293.676	-200.000	-0.006	-0.264
-292.662	-107.312	0.196	-0.043
-291.647	323.067	0.154	-0.290
-290.632	800.000	-0.058	-0.179
-289.618	-200.000	0.020	-0.285
-288.603	-44.270	-0.290	-0.144
-287.589	-200.000	-0.047	-0.408
-286.574	-4.962	0.083	0.056
-285.559	407.610	0.107	0.224
-284.545	39.870	-0.076	0.067
-283.530	-99.611	-0.303	-0.075
-282.516	-48.446	0.261	-0.124
-281.501	-200.000	0.010	-0.109
-280.486	-13.686	0.052	0.033
-279.472	357.357	-0.092	-0.181
-278.457	-182.947	-0.228	0.004
-277.443	365.061	-0.056	-0.111
-276.428	-73.936	0.104	-0.037
-275.413	-49.531	-0.456	-0.215
-274.399	-151.509	-0.087	-0.006
-273.384	-115.111	0.308	0.058
-272.370	-65.071	0.365	0.145
-271.355	800.000	-0.007	0.024
-270.340	-101.785	-0.290	0.069
-269.326	-51.248	0.197	0.091
-268.311	273.942	-0.071	0.124
-267.297	-64.976	0.334	0.133
-266.282	65.743	-0.066	0.066
-265.267	35.015	0.160	0.138
-264.253	518.150	0.082	0.189
-263.238	-30.031	-0.147	0.083
-262.224	340.262	-0.043	0.084
-261.209	-11.802	-0.189	-0.122
-260.195	172.027	-0.188	0.267
-259.180	0.516	-0.109	-0.077
-258.165	-142.758	0.034	0.003
-257.151	-105.896	-0.128	0.029
-256.136	60.015	-0.232	-0.226
-255.122	-101.845	0.289	-0.069
-254.107	34.414	0.114	0.098
-253.092	121.712	0.089	0.109
-252.078	-200.000	0.033	0.276
-251.063	422.917	-0.133	-0.282
-250.049	-149.704	0.069	-0.005
-249.034	68.248	0.091	0.092
-248.019	66.818	-0.245	-0.246
-247.005	259.935	-0.072	0.124
-245.990	111.054	-0.136	0.161
-244.976	-112.649	0.289	0.057
-243.961	-127.047	0.218	-0.032
-242.946	61.361	-0.258	-0.253
-241.932	-200.000	0.003	0.379
-240.917	74.542	0.235	0.244
-239.903	2.616	-0.077	-0.055
-238.888	-125.131	-0.287	-0.043
-237.873	59.936	0.106	0.104
-236.859	354.013	-0.077	0.151
-235.844	-42.043	-0.215	0.109
-234.830	153.970	-0.078	-0.105
-233.815	-132.487	0.210	-0.027
-232.800	-110.580	-0.215	0.044
-231.786	-200.000	-0.001	-0.221
-230.771	145.280	-0.086	-0.113
-229.757	770.498	0.065	0.174
-228.742	-133.091	0.207	0.026
-227.727	199.615	-0.166	0.252
-226.713	800.000	0.070	-0.192
-225.698	-167.739	0.332	0.013
-224.684	353.450	0.060	0.118
-223.669	-146.125	0.183	-0.016
-222.655	-112.511	-0.226	0.044
-221.640	535.240	0.050	0.117
-220.625	-51.385	0.147	-0.068
-219.611	216.275	0.116	-0.182
-218.596	484.491	-0.019	-0.043
-217.582	256.481	0.123	-0.208
-216.567	-9.791	0.491	0.322
-215.552	1.083	0.248	0.176
-214.538	14.592	0.346	0.266
-213.523	153.306	0.147	0.198
-212.509	-101.441	-0.135	0.033
-211.494	-133.290	-0.083	-0.010
-210.479	-200.000	0.043	0.266
-209.465	-200.000	-0.026	-0.436
-208.450	-184.019	-0.116	0.002
-207.436	586.056	-0.065	0.157
-206.421	800.000	0.061	-0.240
-205.406	353.300	-0.139	-0.273
-204.392	-14.667	0.212	0.134
-203.377	689.056	0.044	-0.113
-202.363	-121.822	0.284	0.046
-201.348	-82.534	0.473	-0.151
-200.333	633.995	-0.018	-0.046
-199.319	-200.000	0.015	-0.121
-198.304	-157.258	-0.254	-0.015
-197.290	54.412	-0.052	-0.049
-196.275	-80.337	0.059	-0.019
-195.260	-73.166	-0.350	0.126
-194.246	-200.000	-0.027	-0.235
-193.231	15.809	0.365	-0.283
-192.217	-200.000	-0.046	0.270
-191.202	-91.257	0.171	-0.048
-190.187	-145.719	0.142	0.012
-189.173	115.947	-0.085	-0.103
-188.158	110.193	0.077	-0.091
-187.144	-85.884	0.066	0.020
-186.129	-133.870	-0.215	-0.026
-185.114	117.523	0.043	-0.052
-184.100	-33.037	0.228	-0.124
-183.085	249.763	0.218	-0.364
-182.071	252.483	-0.026	0.044
-181.056	-108.362	-0.421	-0.089
-180.042	-68.377	0.155	-0.059
-179.027	800.000	-0.081	-0.262
-178.012	-200.000	-0.034	-0.307
-176.998	800.000	0.136	0.375
-175.983	-185.418	0.119	-0.002
-174.969	19.238	0.245	-0.194
-173.954	159.651	-0.178	-0.245
-172.939	214.083	0.225	-0.351
-171.925	240.362	-0.095	-0.155
-170.910	76.830	0.128	-0.134
-169.896	-88.079	-0.285	0.084
-168.881	363.825	0.067	-0.133
-167.866	-43.809	-0.311	0.154
-166.852	-94.514	0.235	0.063
-165.837	323.464	-0.194	0.364
-164.823	-200.000	-0.056	0.314
-163.808	-143.236	-0.108	0.010
-162.793	294.191	-0.075	0.135
-161.779	762.374	-0.059	0.158
-160.764	-200.000	-0.070	0.417
-159.750	-87.260	0.123	0.037
-158.735	233.612	-0.030	-0.049
-157.720	170.617	0.073	-0.102
-156.706	-200.000	0.073	-0.360
-155.691	-200.000	0.016	0.337
-154.677	145.305	0.114	0.150
-153.662	294.409	-0.011	-0.019
-152.647	-200.000	0.006	0.141
-151.633	113.217	0.185	0.220
-150.618	757.405	-0.037	0.100
-149.604	-76.205	-0.316	-0.110
-148.589	-0.296	0.339	0.237
-147.574	-200.000	-0.024	-0.278
-146.560	-77.665	-0.239	0.081
-145.545	261.814	0.038	-0.065
-144.531	-200.000	-0.080	0.354
-143.516	268.655	0.174	-0.300
-142.502	-31.006	0.078	-0.043
-141.487	-82.800	-0.180	-0.057
-140.472	-21.321	-0.198	0.119
-139.458	800.000	-0.054	0.173
-138.443	-139.644	0.136	-0.014
-137.429	-155.343	0.163	0.010
-136.414	91.908	-0.045	0.050
-135.399	382.425	0.014	-0.028
-134.385	-200.000	-0.080	-0.351
-133.370	116.763	0.020	0.024
-132.356	-166.182	0.204	0.008
-131.341	277.735	-0.127	0.222
-130.326	158.780	0.192	0.262
-129.312	800.000	-0.103	0.387
-128.297	-169.528	-0.252	-0.009
-127.283	-200.000	-0.010	-0.147
-126.268	-180.123	-0.080	0.002
-125.253	800.000	-0.077	-0.328
-124.239	-3.332	-0.242	-0.166
-123.224	-146.056	-0.199	-0.017
-122.210	70.621	0.236	0.240
-121.195	361.955	0.111	-0.219
-120.180	55.107	-0.117	-0.111
-119.166	-200.000	-0.017	-0.150
-118.151	800.000	-0.059	-0.169
-117.137	-61.829	0.268	0.110
-116.122	-200.000	-0.050	0.238
-115.107	-127.191	0.227	0.033
-114.093	800.000	-0.055	-0.178
-113.078	-134.803	0.163	0.019
-112.064	-25.945	0.187	0.108
-111.049	44.158	-0.110	-0.099
-110.034	153.595	0.113	-0.152
-109.020	79.059	-0.084	0.088
-108.005	214.486	0.089	-0.138
-106.991	-138.714	0.198	0.021
-105.976	-67.257	0.080	0.031
-104.962	-200.000	-0.020	-0.103
-103.947	-143.277	-0.375	-0.035
-102.932	-200.000	0.001	-0.116
-101.918	800.000	-0.020	0.058
-100.903	204.930	-0.101	-0.153
-99.889	-137.562	0.187	0.021
-98.874	39.075	0.210	0.184
-97.859	-107.079	-0.184	-0.040
-96.845	-107.215	0.211	0.046
-95.830	-90.703	0.217	-0.062
-94.816	-112.284	-0.122	-0.024
-93.801	-200.000	-0.016	0.210
-92.786	-200.000	0.031	0.240
-91.772	-88.580	0.241	-0.070
-90.757	37.360	0.279	0.243
-89.743	292.502	0.080	-0.142
-88.728	2.532	-0.103	0.073
-87.713	-149.981	0.145	-0.011
-86.699	-200.000	-0.004	0.076
-85.684	59.914	-0.333	-0.322
-84.670	-2.407	-0.153	-0.105
-83.655	160.453	-0.146	0.200
-82.640	303.328	-0.179	0.326
-81.626	29.622	0.077	-0.064
-80.611	199.627	0.014	-0.022
-79.597	800.000	0.174	0.564
-78.582	-200.000	-0.033	0.215
-77.567	330.974	0.127	0.240
-76.553	-200.000	-0.024	0.169
-75.538	800.000	-0.144	0.418
-74.524	608.615	0.109	-0.266
-73.509	140.422	-0.096	-0.125
-72.494	194.335	-0.255	-0.379
-71.480	212.241	-0.051	-0.080
-70.465	-200.000	0.001	0.132
-69.451	6.351	-0.402	0.293
-68.436	317.342	0.035	-0.064
-67.422	776.023	0.083	-0.221
-66.407	-113.962	-0.285	0.054
-65.392	-200.000	0.016	0.069
-64.378	-170.005	-0.268	-0.009
-63.363	-200.000	0.007	0.129
-62.349	-74.460	-0.168	0.059
-61.334	17.892	-1.167	-0.911
-60.319	15.946	0.815	0.629
-59.305	363.041	-0.550	-1.083
-58.290	265.745	0.746	1.275
-57.276	800.000	0.420	1.482
-56.261	-200.000	114.618	646.711
-55.246	468.364	1509.678	3319.013
-54.232	147.716	2668.711	3523.596
-53.217	103.330	2147.080	2466.861
-52.203	38.721	1595.895	1395.398
-51.188	30.598	1343.005	1125.316
-50.173	27.752	1305.391	1076.989
-49.159	55.217	1360.570	1288.478
-48.144	53.744	1374.638	1292.914
-47.130	30.917	1331.113	1117.088
-46.115	27.551	1313.322	1082.161
-45.100	27.347	1308.468	1076.913
-44.086	27.247	1305.884	1074.155
-43.071	27.231	1303.775	1072.280
-42.057	27.245	1301.652	1070.578
-41.042	27.248	1299.623	1068.885
-40.027	27.158	1298.428	1067.329
-39.013	27.279	1296.309	1066.257
-37.998	27.301	1294.420	1064.788
-36.984	27.471	1292.435	1064.105
-35.969	27.348	1290.740	1061.949
-34.954	27.463	1289.121	1061.244
-33.940	27.422	1287.934	1059.988
-32.925	27.569	1286.464	1059.590
-31.911	27.510	1285.291	1058.242
-30.896	27.554	1283.423	1056.913
-29.881	27.492	1282.570	1055.812
-28.867	27.586	1280.916	1054.951
-27.852	27.463	1279.692	1053.191
-26.838	27.452	1278.298	1051.940
-25.823	27.574	1276.584	1051.189
-24.809	27.464	1275.450	1049.581
-23.794	27.373	1274.700	1048.394
-22.779	27.478	1272.938	1047.511
-21.765	27.569	1271.372	1046.700
-20.750	27.430	1270.599	1045.226
-19.736	27.466	1268.762	1043.883
-18.721	27.387	1268.133	1042.871
-17.706	27.406	1267.295	1042.247
-16.692	27.295	1265.998	1040.504
-15.677	27.344	1264.792	1039.752
-14.663	27.378	1263.829	1039.111
-13.648	27.361	1262.256	1037.682
-12.633	27.295	1261.795	1036.888
-11.619	27.337	1260.730	1036.210
-10.604	27.507	1259.612	1036.213
-9.590	27.260	1259.151	1034.389
-8.575	27.364	1257.725	1033.767
-7.560	27.346	1256.700	1032.782
-6.546	27.542	1255.606	1032.952
-5.531	27.482	1254.785	1031.895
-4.517	27.501	1253.786	1031.140
-3.502	27.385	1253.520	1030.228
-2.487	27.354	1252.782	1029.401
-1.473	27.351	1247.893	1025.327
-0.458	25.731	1232.778	1003.846
0.556	20.095	1216.131	963.312
1.571	16.394	1221.670	946.908
2.586	15.354	1236.588	952.486
3.600	15.238	1224.995	942.821
4.615	11.178	1152.935	865.742
5.629	4.016	1079.295	774.643
6.644	0.449	1060.744	743.697
7.659	0.034	1058.516	740.027
8.673	-0.016	1057.522	739.021
9.688	0.025	1055.931	738.044
10.702	0.368	1053.814	738.180
11.717	4.837	1059.947	764.384
12.731	12.384	1070.403	809.147
13.746	16.649	1074.878	833.501
14.761	17.047	1074.643	835.204
15.775	16.204	1072.811	829.566
16.790	15.003	1070.626	821.909
17.804	14.468	1068.899	817.883
18.819	14.079	1068.237	815.400
19.834	13.730	1067.587	813.118
20.848	13.482	1066.646	811.114
21.863	13.335	1065.524	809.471
22.877	13.200	1064.792	808.184
23.892	13.248	1063.773	807.571
24.907	13.231	1063.343	807.092
25.921	13.228	1061.888	805.902
26.936	13.150	1061.723	805.324
27.950	13.276	1060.603	805.018
28.965	13.328	1059.250	804.171
29.980	13.331	1057.955	803.133
30.994	13.438	1057.042	802.885
32.009	13.486	1055.959	802.229
33.023	13.387	1055.138	801.054
34.038	13.326	1054.267	800.027
35.053	13.290	1053.369	799.098
36.067	13.297	1052.475	798.384
37.082	13.433	1051.462	798.200
38.096	13.353	1051.070	797.448
39.111	13.296	1049.997	796.289
40.126	13.360	1048.745	795.576
41.140	13.264	1047.242	793.905
42.155	13.250	1046.390	793.121
43.169	13.203	1045.607	792.232
44.184	13.128	1044.407	790.894
45.199	13.040	1043.690	789.857
46.213	13.192	1042.525	789.634
47.228	13.280	1041.716	789.371
48.242	13.243	1040.826	788.452
49.257	13.270	1039.666	787.633
50.271	13.342	1038.462	786.992
51.286	13.307	1038.123	786.501
52.301	13.294	1036.704	785.293
53.315	13.261	1035.986	784.522
54.330	13.208	1034.933	783.405
55.344	13.232	1034.089	782.812
56.359	13.225	1033.073	781.938
57.374	13.235	1032.024	781.124
58.388	13.140	1031.530	780.229
59.403	13.249	1030.087	779.586
60.417	13.100	1030.079	778.809
61.432	13.245	1028.754	778.421
62.447	13.147	1028.056	777.363
63.461	13.063	1027.342	776.356
64.476	13.078	1026.029	775.368
65.490	13.089	1025.106	774.652
66.505	13.168	1024.768	774.701
67.520	13.163	1024.111	774.109
68.534	13.216	1023.361	773.724
69.549	13.146	1022.612	772.759
70.563	13.142	1021.871	772.115
71.578	13.046	1021.406	771.243
72.593	13.184	1020.218	770.923
73.607	13.174	1019.635	770.371
74.622	13.084	1019.441	769.734
75.636	13.043	1018.477	768.748
76.651	12.989	1017.799	767.914
77.666	13.037	1017.421	767.785
78.680	13.141	1016.533	767.533
79.695	13.091	1015.980	766.815
80.709	13.268	1014.973	766.808
81.724	13.186	1014.711	766.164
82.739	13.189	1014.157	765.691
83.753	13.319	1012.720	765.139
84.768	13.395	1011.808	764.731
85.782	13.350	1011.514	764.233
86.797	13.422	1010.216	763.518
87.812	13.317	1009.104	762.128
88.826	13.235	1008.419	761.163
89.841	13.290	1007.559	760.698
90.855	13.381	1006.428	760.199
91.870	13.418	1005.713	759.762
92.884	13.395	1004.744	758.856
93.899	13.453	1004.010	758.498
94.914	13.513	1003.239	758.126
95.928	13.418	1002.602	757.140
96.943	13.390	1001.913	756.425
97.957	13.407	1000.771	755.575
98.972	13.348	999.919	754.595
99.987	13.334	998.738	753.576
101.001	13.353	997.981	753.024
102.016	13.369	997.212	752.450
103.030	13.317	996.284	751.447
104.045	13.322	995.701	750.965
105.060	13.292	994.688	749.996
106.074	13.226	993.816	748.973
107.089	13.223	992.576	747.960
108.103	13.262	991.728	747.428
109.118	13.214	990.750	746.411
110.133	13.086	990.080	745.263
111.147	13.221	989.194	745.137
112.162	13.313	987.754	744.399
113.176	13.227	987.497	743.754
114.191	13.356	986.859	743.789
115.206	13.277	985.903	742.648
116.220	13.341	984.657	741.928
117.235	13.233	984.209	741.041
118.249	13.325	983.388	740.771
119.264	13.330	982.273	739.889
120.279	13.296	981.809	739.319
121.293	13.248	980.629	738.150
122.308	13.138	979.848	737.010
123.322	13.191	979.201	736.694
124.337	13.274	978.123	736.188
125.352	13.117	976.940	734.533
126.366	13.050	976.323	733.707
127.381	13.284	974.483	733.297
128.395	13.273	973.736	732.621
129.410	13.268	972.866	731.877
130.424	13.232	972.013	731.013
131.439	13.426	971.047	731.081
132.454	13.326	970.606	730.242
133.468	13.309	969.667	729.396
134.483	13.430	968.613	729.069
135.497	13.354	967.948	728.172
136.512	13.285	967.304	727.319
137.527	13.394	965.901	726.677
138.541	13.291	966.034	726.260
139.556	13.480	964.925	726.192
140.570	13.459	964.258	725.534
141.585	13.417	963.635	724.816
142.600	13.493	962.362	724.130
143.614	13.501	961.863	723.722
144.629	13.530	961.102	723.211
145.643	13.569	959.919	722.428
146.658	13.495	959.004	721.356
147.673	13.382	958.312	720.279
148.687	13.466	957.343	719.853
149.702	13.427	956.716	719.149
150.716	13.441	955.603	718.305
151.731	13.378	955.356	717.784
152.746	13.358	954.257	716.809
153.760	13.557	953.651	717.152
154.775	13.524	953.471	716.812
155.789	13.492	952.666	716.002
156.804	13.599	951.522	715.540
157.819	13.705	950.913	715.480
158.833	13.563	950.368	714.392
159.848	13.665	949.535	714.142
160.862	13.729	948.609	713.659
161.877	13.578	947.566	712.161
162.892	13.624	946.876	711.778
163.906	13.613	945.552	710.671
164.921	13.367	945.320	709.381
165.935	13.590	944.322	709.525
166.950	13.673	942.865	708.719
167.964	13.635	942.231	708.020
168.979	13.639	941.473	707.405
169.994	13.566	940.373	706.204
171.008	13.680	939.875	706.253
172.023	13.700	939.207	705.771
173.037	13.657	938.224	704.790
174.052	13.755	937.977	704.959
175.067	13.664	937.131	703.875
176.081	13.622	936.707	703.316
177.096	13.617	936.095	702.770
178.110	13.598	935.483	702.170
179.125	13.650	935.060	702.010
180.140	13.836	934.236	702.118
181.154	13.674	934.042	701.222
182.169	13.724	933.263	700.789
183.183	13.753	932.381	700.186
184.198	13.840	932.087	700.270
185.213	13.815	931.238	699.464
186.227	13.884	930.484	699.125
187.242	13.779	930.262	698.457
188.256	13.866	929.886	698.479
189.271	13.901	928.548	697.557
190.286	13.793	927.903	696.561
191.300	13.762	926.988	695.682
192.315	13.685	926.322	694.796
193.329	13.663	926.202	694.553
194.344	13.688	925.472	694.049
195.359	13.800	924.477	693.709
196.373	13.952	923.864	693.822
197.388	14.109	923.434	694.096
198.402	14.082	923.009	693.601
199.417	14.103	922.268	693.068
200.432	14.104	922.213	692.971
201.446	14.134	921.313	692.357
202.461	14.081	921.050	691.879
203.475	14.144	920.117	691.380
204.490	14.074	919.333	690.439
205.504	14.127	918.820	690.214
206.519	14.198	917.680	689.590
207.534	14.027	917.444	688.640
208.548	14.141	916.736	688.521
209.563	14.180	916.028	688.088
210.577	14.099	915.542	687.328
211.592	14.210	914.301	686.795
212.607	14.281	913.769	686.628
213.621	14.332	913.114	686.284
214.636	14.176	912.571	685.173
215.650	14.431	911.831	685.604
216.665	14.416	910.856	684.750
217.680	14.273	910.821	684.077
218.694	14.276	909.666	683.159
219.709	14.327	909.028	682.832
220.723	14.370	908.212	682.333
221.738	14.304	907.725	681.636
222.753	14.504	906.955	681.816
223.767	14.348	906.764	680.972
224.782	14.465	906.439	681.149
225.796	14.587	905.294	680.724
226.811	14.544	904.569	679.945
227.826	14.579	903.678	679.356
228.840	14.339	903.375	678.092
229.855	14.371	903.014	677.892
230.869	14.438	901.961	677.312
231.884	14.500	901.133	676.885
232.899	14.383	900.758	676.066
233.913	14.331	900.305	675.458
234.928	14.408	899.694	675.252
235.942	14.387	898.943	674.544
236.957	14.421	898.362	674.182
237.972	14.378	897.779	673.513
238.986	14.399	897.078	673.014
240.001	14.463	896.112	672.487
241.015	14.518	895.486	672.178
242.030	14.327	895.560	671.405
243.045	14.471	894.620	671.219
244.059	14.622	893.735	671.104
245.074	14.596	893.183	670.526
246.088	14.746	892.261	670.378
247.103	14.766	891.610	669.908
248.117	14.770	891.320	669.646
249.132	14.791	890.825	669.299
250.147	14.916	889.992	669.117
251.161	14.815	889.776	668.490
252.176	14.865	888.837	667.926
253.190	14.884	888.232	667.486
254.205	14.970	887.501	667.220
255.220	14.966	886.855	666.660
256.234	15.058	886.264	666.525
257.249	14.942	885.787	665.646
258.263	14.830	885.007	664.556
259.278	15.034	884.039	664.578
260.293	15.052	883.614	664.273
261.307	15.097	883.117	664.019
262.322	15.213	882.032	663.601
263.336	15.311	881.531	663.555
264.351	15.115	880.776	662.151
265.366	15.155	880.497	662.043
266.380	15.096	879.921	661.317
267.395	15.092	879.302	660.777
268.409	15.166	878.472	660.386
269.424	15.023	877.791	659.256
270.439	15.199	876.763	659.115
271.453	15.158	876.203	658.477
272.468	15.073	875.811	657.790
273.482	15.173	875.375	657.797
274.497	15.231	874.099	657.006
275.512	15.217	873.996	656.817
276.526	15.201	873.642	656.431
277.541	15.307	873.052	656.343
278.555	15.373	872.005	655.756
279.570	15.303	871.898	655.345
280.585	15.326	870.664	654.448
281.599	15.421	870.000	654.263
282.614	15.325	869.532	653.477
283.628	15.307	868.832	652.822
284.643	15.351	868.167	652.438
285.657	15.409	867.511	652.113
286.672	15.420	866.997	651.709
287.687	15.374	866.625	651.195
288.701	15.377	865.724	650.472
289.716	15.540	865.126	650.597
290.730	15.424	864.684	649.756
291.745	15.560	864.371	649.992
292.760	15.591	863.433	649.349
293.774	15.543	862.775	648.611
294.789	15.577	862.118	648.188
295.803	15.662	861.212	647.779
296.818	15.600	860.617	647.035
297.833	15.698	859.671	646.642
298.847	15.481	859.793	645.845
299.862	15.693	858.976	645.989
300.876	15.656	858.532	645.454
301.891	15.657	857.761	644.820
302.906	15.642	857.289	644.353
303.920	15.814	856.579	644.418
304.935	15.806	856.329	644.144
305.949	15.812	855.553	643.525
306.964	15.721	855.137	642.810
307.979	15.733	854.799	642.542
308.993	15.754	854.080	642.027
310.008	15.708	853.546	641.394
311.022	15.739	852.921	640.986
312.037	15.883	852.160	640.903
313.052	15.713	851.574	639.760
314.066	15.822	850.765	639.510
315.081	15.812	850.583	639.279
316.095	15.747	850.119	638.628
317.110	15.827	849.508	638.413
318.125	15.858	848.782	637.931
319.139	15.863	848.191	637.448
320.154	15.781	848.050	636.974
321.168	15.844	847.548	636.779
322.183	15.890	846.598	636.183
323.197	15.859	846.263	635.758
324.212	16.105	845.496	636.055
325.227	15.940	845.112	635.089
326.241	15.950	844.361	634.504
327.256	15.951	844.004	634.182
328.270	15.907	843.241	633.390
329.285	15.930	842.875	633.146
330.300	15.903	842.164	632.451
331.314	15.848	841.859	631.961
332.329	16.034	841.363	632.232
333.343	16.048	840.979	631.940
334.358	16.125	840.467	631.786
335.373	16.146	839.973	631.438
336.387	16.190	839.708	631.348
337.402	16.223	839.327	631.129
338.416	16.261	839.011	630.976
339.431	16.172	838.823	630.447
340.446	16.299	838.249	630.434
341.460	16.408	837.499	630.222
342.475	16.445	837.086	629.992
343.489	16.304	837.035	629.372
344.504	16.159	836.869	628.653
345.519	16.273	835.882	628.278
346.533	16.287	835.506	627.994
347.548	16.407	834.807	627.858
348.562	16.269	834.182	626.819
349.577	16.361	833.991	626.962
350.592	16.253	833.398	626.062
351.606	16.293	832.556	625.523
352.621	16.335	831.752	625.019
353.635	16.317	831.498	624.706
354.650	16.404	830.669	624.347
355.665	16.346	829.774	623.405
356.679	16.446	829.341	623.394
357.694	16.477	828.584	622.886
358.708	16.499	828.170	622.598
359.723	16.627	827.451	622.475
360.738	16.401	827.073	621.304
361.752	16.662	826.062	621.448
362.767	16.664	825.384	620.889
363.781	16.708	825.030	620.730
364.796	16.694	824.799	620.451
365.810	16.588	824.809	620.014
366.825	16.724	824.041	619.880
367.840	16.593	823.508	618.945
368.854	16.584	823.275	618.681
369.869	16.698	822.759	618.655
370.883	16.686	822.506	618.368
371.898	16.872	821.931	618.558
372.913	16.926	821.313	618.235
373.927	16.741	820.811	617.131
374.942	16.679	820.750	616.805
375.956	16.970	820.139	617.348
376.971	16.981	819.839	617.107
377.986	16.807	819.373	616.069
379.000	16.829	819.049	615.854
380.015	16.951	818.440	615.782
381.029	17.051	817.859	615.654
382.044	17.058	817.097	615.051
383.059	17.135	816.414	614.761
384.073	16.992	816.042	613.909
385.088	16.963	815.528	613.363
386.102	16.766	815.049	612.239
387.117	17.022	814.116	612.406
388.132	17.015	813.817	612.102
389.146	16.933	813.284	611.349
390.161	16.934	813.290	611.306
391.175	17.084	812.640	611.303
392.190	17.182	811.798	610.967
393.205	17.032	811.246	609.961
394.219	16.953	811.241	609.618
395.234	17.131	810.658	609.765
396.248	16.957	809.978	608.573
397.263	16.845	810.135	608.237
398.278	16.984	809.433	608.156
399.292	17.109	808.835	608.100
400.307	17.031	808.172	607.268
401.321	17.151	807.642	607.244
402.336	17.060	807.329	606.632
403.350	17.233	806.822	606.813
404.365	17.217	806.459	606.429
405.380	17.126	806.008	605.714
406.394	17.254	805.850	605.998
407.409	17.255	805.131	605.405
408.423	17.362	804.911	605.566
409.438	17.384	804.420	605.223
410.453	17.409	804.037	604.971
411.467	17.513	803.551	604.921
412.482	17.361	803.352	604.176
413.496	17.490	802.792	604.160
414.511	17.367	802.570	603.502
415.526	17.544	801.798	603.499
416.540	17.365	801.824	602.830
417.555	17.507	800.973	602.640
418.569	17.556	800.785	602.616
419.584	17.516	800.223	602.001
420.599	17.591	799.533	601.692
421.613	110.986	1295.280	1475.969
422.628	95.538	1367.485	1476.016
