DTS Sentinel unit serial number:	SN413079Multiplexer serial number:	ORYXHardware model number:	OX4-SRSoftware version number:	ORYX F/W v4.00 Oryx Data Collector v3.7.2.0data status	okinstallation	princeton_trtdifferential loss correction	single-endedforward channel	channel 1reverse channel	N/Adate	2019/09/14time	21:26:35forward acquisition time	60.00reverse acquisition time	0.00gamma	496.2192k internal	0.2318k external	0.2318temperature offset calibration	1.0015default loss term (dB/km)	0.3790temperature slope calibration	1.0000multiplexer offset coefficient	1.0000multiplexer slope coefficient	1.0000fibre end	0.00T internal ref (°C)	32.89T ext. ref 1 (°C)	4.76T ext. ref 2 (°C)	27.73length (m)	temperature (°C)	Stokes	anti-Stokes-747.200	234.844	0.192	-0.320
-746.185	-57.376	0.066	-0.029
-745.171	800.000	-0.195	0.615
-744.156	709.723	-0.153	0.409
-743.142	92.710	0.071	0.081
-742.127	183.907	-0.091	0.136
-741.112	321.062	-0.106	0.205
-740.098	-200.000	-0.021	0.222
-739.083	-30.627	0.241	0.138
-738.069	-200.000	-0.020	0.327
-737.054	-7.557	0.098	-0.067
-736.039	-76.584	-0.235	-0.084
-735.025	-2.217	0.356	0.253
-734.010	68.059	-0.150	-0.156
-732.996	92.011	-0.128	-0.146
-731.981	597.469	-0.128	0.322
-730.966	-200.000	-0.016	0.184
-729.952	-200.000	0.015	0.136
-728.937	-186.355	-0.142	0.002
-727.923	-108.937	-0.105	-0.023
-726.908	731.591	0.032	0.087
-725.894	800.000	0.044	-0.130
-724.879	216.823	-0.192	-0.308
-723.864	11.273	0.193	-0.149
-722.850	-200.000	-0.067	-0.382
-721.835	78.323	-0.054	-0.058
-720.821	66.984	-0.161	0.166
-719.806	-158.816	0.163	-0.009
-718.791	29.214	0.253	0.218
-717.777	800.000	-0.119	-0.368
-716.762	116.627	-0.057	0.070
-715.748	433.204	-0.094	-0.207
-714.733	93.195	-0.197	-0.225
-713.718	4.099	-0.154	0.114
-712.704	-19.757	-0.079	0.050
-711.689	-84.464	0.371	-0.118
-710.675	-69.232	0.243	0.094
-709.660	800.000	0.048	0.144
-708.645	109.245	0.088	0.106
-707.631	164.166	-0.113	0.161
-706.616	488.361	-0.096	0.222
-705.602	-87.212	0.294	-0.090
-704.587	-18.876	0.080	0.050
-703.572	-75.538	-0.185	-0.066
-702.558	-93.978	0.283	0.079
-701.543	128.035	0.067	0.087
-700.529	-200.000	0.030	-0.153
-699.514	800.000	-0.056	-0.225
-698.499	-200.000	0.008	-0.188
-697.485	-26.301	-0.114	-0.068
-696.470	-200.000	-0.011	-0.084
-695.456	-106.791	0.416	-0.093
-694.441	-37.577	0.114	0.061
-693.426	-200.000	-0.006	0.101
-692.412	352.580	0.174	-0.348
-691.397	-200.000	0.015	-0.349
-690.383	-200.000	-0.003	-0.258
-689.368	270.632	0.106	0.188
-688.354	-200.000	0.001	-0.324
-687.339	130.331	-0.067	0.087
-686.324	-147.887	-0.245	0.021
-685.310	-49.798	-0.230	-0.110
-684.295	-61.220	0.221	0.094
-683.281	-87.249	0.286	0.088
-682.266	137.410	-0.211	-0.279
-681.251	103.550	-0.212	-0.251
-680.237	446.514	-0.036	0.080
-679.222	57.601	-0.025	-0.025
-678.208	-200.000	-0.004	-0.038
-677.193	243.668	0.089	-0.151
-676.178	54.696	-0.153	-0.149
-675.164	-101.280	-0.382	-0.094
-674.149	-200.000	0.018	-0.242
-673.135	-200.000	0.020	-0.124
-672.120	-200.000	0.008	-0.073
-671.105	-5.806	0.114	0.079
-670.091	-42.302	-0.315	-0.163
-669.076	-116.685	-0.307	0.057
-668.062	172.185	0.050	-0.072
-667.047	217.968	0.218	-0.351
-666.032	800.000	-0.055	0.209
-665.018	-65.873	0.074	0.030
-664.003	39.153	-0.104	0.094
-662.989	-200.000	-0.019	-0.104
-661.974	25.725	-0.285	-0.239
-660.959	-127.813	0.206	-0.030
-659.945	-191.478	0.394	0.004
-658.930	415.404	0.087	0.187
-657.916	-200.000	-0.008	-0.130
-656.901	-200.000	0.012	0.173
-655.886	150.595	0.109	-0.149
-654.872	-50.300	0.309	-0.147
-653.857	-44.713	-0.435	-0.219
-652.843	-200.000	0.001	-0.259
-651.828	-31.623	0.091	0.052
-650.814	78.430	0.195	0.210
-649.799	-200.000	-0.020	0.130
-648.784	314.254	-0.119	-0.227
-647.770	-200.000	-0.055	-0.314
-646.755	308.870	-0.038	-0.071
-645.741	163.420	-0.092	0.130
-644.726	49.191	0.090	0.085
-643.711	-148.126	0.247	0.021
-642.697	-127.892	-0.080	0.012
-641.682	800.000	-0.056	0.200
-640.668	46.995	-0.066	0.062
-639.653	186.114	-0.141	-0.211
-638.638	137.733	-0.138	-0.182
-637.624	160.928	-0.072	-0.102
-636.609	800.000	-0.101	0.400
-635.595	-117.503	0.278	-0.051
-634.580	-200.000	0.048	-0.288
-633.565	173.469	-0.324	-0.471
-632.551	-97.005	0.429	-0.113
-631.536	44.303	0.268	0.248
-630.522	371.987	0.097	0.198
-629.507	107.628	0.141	0.169
-628.492	600.262	0.038	-0.095
-627.478	-200.000	0.036	-0.191
-626.463	-87.323	0.170	-0.052
-625.449	-196.928	-0.088	0.001
-624.434	680.436	0.105	-0.275
-623.419	-200.000	-0.271	-0.000
-622.405	-200.000	-0.031	0.171
-621.390	220.967	0.085	0.137
-620.376	65.216	-0.172	0.176
-619.361	19.365	-0.276	0.224
-618.346	-200.000	0.027	0.200
-617.332	653.506	-0.071	-0.184
-616.317	-58.435	0.051	0.022
-615.303	-200.000	-0.000	-0.470
-614.288	184.488	0.162	0.242
-613.273	-125.334	0.403	-0.062
-612.259	-200.000	-0.021	-0.137
-611.244	-103.258	-0.054	-0.013
-610.230	-11.012	-0.071	-0.047
-609.215	800.000	0.026	-0.083
-608.201	-27.883	-0.146	0.085
-607.186	378.147	-0.119	0.246
-606.171	-89.400	-0.149	-0.044
-605.157	9.627	-0.092	-0.070
-604.142	-200.000	0.008	-0.346
-603.128	-47.852	-0.298	0.145
-602.113	-59.340	0.043	-0.019
-601.098	354.949	0.073	0.145
-600.084	-97.826	-0.072	-0.019
-599.069	-142.793	0.205	-0.020
-598.055	-61.814	-0.239	-0.101
-597.040	-200.000	-0.021	0.163
-596.025	393.778	0.102	-0.215
-595.011	23.910	0.318	-0.264
-593.996	-73.586	-0.143	0.052
-592.982	-22.627	0.219	-0.133
-591.967	-200.000	0.010	-0.077
-590.952	111.316	0.215	0.260
-589.938	6.692	-0.023	0.017
-588.923	5.655	0.144	-0.107
-587.909	800.000	-0.206	0.637
-586.894	-126.616	0.081	0.012
-585.879	-86.316	0.227	0.070
-584.865	506.105	-0.127	0.296
-583.850	-135.898	-0.107	-0.013
-582.836	42.243	0.163	-0.149
-581.821	-2.421	-0.208	0.146
-580.806	-81.785	-0.366	-0.121
-579.792	-200.000	0.059	0.356
-578.777	-18.065	-0.144	-0.091
-577.763	-12.588	0.185	0.121
-576.748	253.811	-0.129	-0.221
-575.733	-144.711	0.078	-0.007
-574.719	694.942	-0.074	-0.196
-573.704	-173.293	-0.178	0.005
-572.690	401.203	-0.072	-0.152
-571.675	-48.739	-0.133	0.064
-570.661	-200.000	0.014	0.109
-569.646	25.763	-0.205	0.172
-568.631	-200.000	-0.017	0.377
-567.617	27.650	-0.242	0.205
-566.602	-76.077	-0.381	-0.135
-565.588	-13.849	0.174	0.113
-564.573	-57.034	0.325	0.144
-563.558	800.000	-0.033	-0.144
-562.544	-10.327	-0.233	0.155
-561.529	345.813	-0.129	-0.256
-560.515	43.273	-0.140	0.128
-559.500	-147.844	0.156	-0.013
-558.485	-200.000	-0.050	0.357
-557.471	-91.944	-0.111	0.032
-556.456	-168.985	0.114	0.004
-555.442	220.823	-0.117	-0.188
-554.427	181.779	0.209	-0.309
-553.412	-200.000	0.034	-0.314
-552.398	800.000	0.042	-0.156
-551.383	-200.000	0.029	0.251
-550.369	37.893	-0.079	-0.071
-549.354	-200.000	-0.005	-0.073
-548.339	509.340	0.051	-0.119
-547.325	800.000	0.086	-0.364
-546.310	342.463	0.091	-0.178
-545.296	-99.139	-0.070	-0.018
-544.281	-43.629	0.234	0.118
-543.266	-98.788	0.435	-0.111
-542.252	40.121	0.111	0.100
-541.237	-43.623	-0.207	0.105
-540.223	-67.706	-0.145	-0.057
-539.208	-158.748	-0.144	0.008
-538.193	438.714	0.086	-0.189
-537.179	-71.927	0.098	-0.037
-536.164	-100.998	-0.278	0.068
-535.150	-98.372	0.198	0.051
-534.135	167.831	0.172	-0.245
-533.121	8.595	-0.108	-0.081
-532.106	444.422	0.113	-0.249
-531.091	-200.000	0.030	0.205
-530.077	-200.000	0.011	-0.058
-529.062	-78.685	-0.076	-0.026
-528.048	-200.000	0.016	0.109
-527.033	156.025	-0.137	0.189
-526.018	110.053	0.135	0.162
-525.004	-117.866	-0.340	-0.061
-523.989	-138.056	-0.381	-0.042
-522.975	143.928	-0.053	0.071
-521.960	-141.439	-0.238	-0.024
-520.945	-112.321	-0.505	-0.101
-519.931	498.647	0.084	0.194
-518.916	-134.892	0.414	0.050
-517.902	-92.836	-0.377	-0.106
-516.887	239.269	-0.118	-0.197
-515.872	-37.774	-0.123	-0.066
-514.858	-200.000	-0.016	0.073
-513.843	-92.692	0.075	-0.021
-512.829	118.658	-0.135	0.167
-511.814	6.799	-0.170	-0.127
-510.799	-94.894	0.197	0.053
-509.785	15.805	-0.195	0.154
-508.770	-40.600	0.185	-0.096
-507.756	-136.916	0.253	0.029
-506.741	23.208	0.162	0.133
-505.726	95.442	-0.066	-0.076
-504.712	385.833	0.114	0.236
-503.697	-122.720	0.235	-0.038
-502.683	-200.000	-0.011	-0.250
-501.668	5.517	-0.438	0.324
-500.653	-36.121	0.251	0.136
-499.639	230.485	-0.168	-0.276
-498.624	264.809	0.124	0.217
-497.610	107.765	-0.139	-0.165
-496.595	193.059	-0.098	0.149
-495.581	800.000	0.043	-0.141
-494.566	-137.986	0.364	0.041
-493.551	-200.000	-0.038	0.419
-492.537	-122.575	0.103	-0.017
-491.522	-75.110	-0.194	-0.069
-490.508	218.409	-0.036	-0.058
-489.493	-46.050	0.154	0.076
-488.478	26.504	-0.010	-0.009
-487.464	60.073	-0.280	0.277
-486.449	321.577	-0.061	-0.117
-485.435	291.212	0.185	0.337
-484.420	-154.465	-0.110	0.007
-483.405	-135.793	0.260	-0.031
-482.391	397.973	-0.076	0.158
-481.376	-120.557	-0.079	0.013
-480.362	-103.393	-0.328	0.077
-479.347	-111.732	-0.146	0.030
-478.332	-35.272	0.109	-0.060
-477.318	-78.762	-0.316	0.108
-476.303	-70.894	-0.233	-0.088
-475.289	-115.552	0.300	-0.056
-474.274	51.856	0.323	0.307
-473.259	18.498	-0.160	-0.128
-472.245	800.000	-0.057	0.238
-471.230	31.276	-0.160	0.138
-470.216	-29.831	0.264	0.151
-469.201	-113.225	-0.384	-0.076
-468.186	292.088	0.227	0.414
-467.172	-63.227	0.135	-0.056
-466.157	-200.000	0.045	-0.455
-465.143	52.662	0.210	-0.201
-464.128	-184.138	-0.190	-0.003
-463.113	119.746	-0.139	0.172
-462.099	800.000	-0.043	0.122
-461.084	-200.000	0.020	0.385
-460.070	-200.000	-0.035	-0.154
-459.055	384.929	-0.058	-0.119
-458.040	270.600	0.336	0.591
-457.026	-200.000	-0.047	0.427
-456.011	-109.161	0.227	0.048
-454.997	758.653	-0.072	-0.195
-453.982	787.908	0.123	-0.338
-452.968	-58.000	0.064	-0.028
-451.953	-71.229	-0.147	-0.055
-450.938	800.000	-0.039	-0.114
-449.924	101.777	0.102	-0.119
-448.909	-200.000	0.089	0.429
-447.895	198.981	-0.087	0.133
-446.880	-98.815	-0.052	0.013
-445.865	347.609	-0.080	-0.158
-444.851	21.291	-0.045	-0.037
-443.836	800.000	-0.090	0.265
-442.822	643.384	-0.036	0.091
-441.807	-30.647	0.277	-0.157
-440.792	759.796	-0.109	-0.296
-439.778	-200.000	-0.008	0.113
-438.763	-200.000	-0.027	-0.124
-437.749	-46.795	-0.223	0.109
-436.734	99.102	0.139	-0.161
-435.719	782.464	0.096	0.262
-434.705	-200.000	0.007	-0.081
-433.690	7.442	-0.181	0.135
-432.676	-33.055	-0.248	-0.137
-431.661	-200.000	0.005	0.037
-430.646	-64.401	0.222	-0.090
-429.632	-55.305	-0.137	-0.061
-428.617	279.211	-0.063	-0.112
-427.603	-200.000	0.010	-0.046
-426.588	117.765	0.194	-0.239
-425.573	106.931	-0.173	0.205
-424.559	800.000	0.103	0.347
-423.544	29.854	0.079	-0.067
-422.530	-110.372	-0.174	0.036
-421.515	127.597	0.130	0.165
-420.500	-93.582	0.211	0.058
-419.486	601.356	-0.107	-0.265
-418.471	216.297	0.085	-0.135
-417.457	591.326	0.045	0.111
-416.442	-17.485	-0.097	0.061
-415.428	-123.419	-0.115	-0.018
-414.413	591.017	0.054	-0.132
-413.398	276.200	-0.220	-0.390
-412.384	207.027	-0.268	-0.418
-411.369	-57.591	0.332	0.145
-410.355	-61.769	-0.245	0.102
-409.340	-33.908	0.164	-0.090
-408.325	800.000	-0.059	0.193
-407.311	60.053	-0.095	-0.093
-406.296	107.494	-0.118	0.140
-405.282	-84.695	0.402	0.126
-404.267	-32.492	-0.124	-0.069
-403.252	-200.000	-0.009	0.120
-402.238	-71.222	0.275	-0.103
-401.223	-121.390	-0.194	-0.032
-400.209	-200.000	0.019	-0.089
-399.194	159.881	0.115	-0.161
-398.179	-99.498	-0.268	0.067
-397.165	-17.163	0.163	0.102
-396.150	-69.077	-0.083	0.032
-395.136	551.716	0.060	-0.144
-394.121	-174.159	-0.311	0.009
-393.106	-108.723	0.103	0.022
-392.092	171.947	0.113	-0.162
-391.077	279.341	0.084	0.149
-390.063	800.000	0.018	-0.072
-389.048	-67.010	-0.221	-0.087
-388.033	37.054	0.288	-0.254
-387.019	318.345	-0.125	-0.237
-386.004	-72.578	-0.261	-0.096
-384.990	267.669	0.101	-0.176
-383.975	-200.000	0.021	-0.130
-382.960	800.000	0.073	-0.219
-381.946	327.657	0.213	-0.408
-380.931	-39.248	-0.143	-0.075
-379.917	-173.161	0.321	-0.010
-378.902	-109.225	0.081	-0.017
-377.888	102.844	-0.095	0.111
-376.873	75.287	-0.099	-0.104
-375.858	-86.911	0.055	0.017
-374.844	800.000	0.017	0.056
-373.829	-200.000	0.012	0.111
-372.815	253.628	-0.181	-0.309
-371.800	-81.589	-0.151	-0.049
-370.785	330.495	0.076	-0.146
-369.771	-23.399	0.134	-0.081
-368.756	-85.969	-0.088	0.027
-367.742	273.998	0.065	0.115
-366.727	800.000	0.124	0.370
-365.712	556.701	0.159	0.382
-364.698	388.672	-0.037	-0.077
-363.683	-90.526	0.103	0.030
-362.669	-200.000	-0.041	-0.393
-361.654	-9.913	-0.121	-0.080
-360.639	19.306	0.235	-0.188
-359.625	-5.501	0.190	-0.130
-358.610	-162.924	0.228	-0.011
-357.596	233.624	-0.085	0.140
-356.581	800.000	-0.070	-0.253
-355.566	137.676	0.172	0.224
-354.552	-96.086	0.347	0.092
-353.537	-200.000	0.009	-0.073
-352.523	-62.450	0.242	-0.100
-351.508	-96.870	-0.564	0.148
-350.493	17.053	-0.006	0.004
-349.479	307.549	0.085	0.158
-348.464	60.122	-0.162	-0.159
-347.450	-62.034	-0.176	0.073
-346.435	-36.954	-0.284	0.152
-345.420	-117.705	-0.178	-0.032
-344.406	-54.616	0.269	-0.121
-343.391	9.712	-0.206	0.156
-342.377	800.000	-0.033	-0.114
-341.362	2.944	0.247	-0.179
-340.348	-17.543	-0.445	-0.279
-339.333	576.401	0.058	0.140
-338.318	82.362	0.124	0.134
-337.304	241.811	0.062	-0.104
-336.289	-200.000	-0.024	0.200
-335.275	-200.000	-0.011	-0.183
-334.260	-199.530	-0.671	-0.003
-333.245	-200.000	0.042	0.190
-332.231	305.020	0.081	0.150
-331.216	523.656	-0.063	0.147
-330.202	-200.000	-0.010	-0.196
-329.187	205.406	-0.089	-0.138
-328.172	800.000	0.101	0.300
-327.158	600.235	0.109	0.269
-326.143	-200.000	-0.021	0.136
-325.129	-70.434	0.094	0.035
-324.114	-149.061	-0.027	0.002
-323.099	800.000	0.045	0.151
-322.085	-114.148	0.094	-0.018
-321.070	-86.746	0.144	0.044
-320.056	-103.101	-0.117	-0.028
-319.041	-102.239	0.217	-0.052
-318.026	800.000	-0.097	0.421
-317.012	65.738	0.184	-0.185
-315.997	215.149	-0.268	-0.423
-314.983	800.000	-0.028	0.091
-313.968	-200.000	0.046	0.407
-312.953	-41.519	0.167	-0.085
-311.939	68.597	-0.041	-0.042
-310.924	-163.501	0.305	0.014
-309.910	-45.684	-0.431	-0.212
-308.895	-155.383	-0.090	0.006
-307.880	-25.776	0.195	0.114
-306.866	82.850	-0.051	-0.055
-305.851	77.238	0.227	-0.240
-304.837	524.047	0.027	0.063
-303.822	32.293	-0.141	-0.121
-302.807	800.000	0.042	-0.170
-301.793	88.571	0.152	-0.168
-300.778	-147.556	0.354	0.030
-299.764	6.120	0.084	-0.062
-298.749	800.000	0.080	-0.221
-297.735	-88.863	-0.073	-0.022
-296.720	228.225	0.192	0.311
-295.705	800.000	0.005	-0.017
-294.691	-200.000	-0.019	0.095
-293.676	-200.000	0.026	-0.192
-292.662	-47.296	-0.091	0.044
-291.647	-68.684	0.111	-0.043
-290.632	22.423	0.187	0.152
-289.618	21.318	0.158	-0.127
-288.603	-118.100	-0.261	0.046
-287.589	-132.288	0.125	-0.016
-286.574	-137.696	-0.263	-0.029
-285.559	-200.000	0.098	-0.442
-284.545	715.932	-0.163	0.429
-283.530	4.023	-0.043	0.032
-282.516	-31.283	0.152	-0.085
-281.501	-200.000	-0.013	-0.144
-280.486	-108.214	0.202	0.044
-279.472	134.719	0.182	0.235
-278.457	800.000	0.136	-0.388
-277.443	-19.063	0.090	-0.055
-276.428	-200.000	0.023	0.147
-275.413	-14.411	-0.132	-0.085
-274.399	-95.909	0.075	0.020
-273.384	-200.000	0.050	-0.385
-272.370	44.802	0.065	-0.059
-271.355	-200.000	0.006	-0.046
-270.340	800.000	0.124	-0.480
-269.326	-89.439	-0.152	0.045
-268.311	-91.088	-0.267	0.076
-267.297	-200.000	0.005	0.126
-266.282	-163.561	0.240	0.011
-265.267	492.550	0.037	-0.085
-264.253	-200.000	0.028	0.414
-263.238	796.414	0.114	0.311
-262.224	800.000	-0.050	-0.180
-261.209	800.000	-0.037	-0.131
-260.195	710.049	-0.082	-0.216
-259.180	-128.752	-0.051	0.007
-258.165	-3.557	0.345	0.238
-257.151	-200.000	-0.017	0.098
-256.136	367.378	-0.068	0.137
-255.122	49.091	0.033	-0.031
-254.107	-200.000	0.019	0.140
-253.092	-0.069	-0.217	0.153
-252.078	271.949	0.123	0.216
-251.063	800.000	-0.049	-0.186
-250.049	572.257	0.124	0.300
-249.034	-3.667	0.152	-0.105
-248.019	-8.997	0.145	-0.096
-247.005	-81.453	0.138	0.045
-245.990	-76.273	-0.072	-0.025
-244.976	-8.811	-0.122	0.081
-243.961	197.226	0.064	-0.097
-242.946	293.435	-0.054	0.098
-241.932	-0.402	0.061	0.043
-240.917	800.000	0.092	0.312
-239.903	-113.618	-0.162	0.031
-238.888	-200.000	-0.023	0.195
-237.873	-60.991	-0.099	-0.041
-236.859	-200.000	-0.016	0.137
-235.844	-200.000	-0.064	-0.304
-234.830	-101.852	-0.132	0.032
-233.815	-184.060	0.098	0.002
-232.800	-72.149	0.199	0.073
-231.786	-103.539	-0.147	0.034
-230.771	526.294	-0.048	-0.112
-229.757	-86.139	-0.253	0.077
-228.742	800.000	0.092	-0.257
-227.727	613.420	0.140	-0.348
-226.713	-200.000	-0.027	-0.231
-225.698	-169.270	0.377	0.014
-224.684	-21.278	-0.201	-0.122
-223.669	-200.000	0.025	-0.384
-222.655	-92.894	0.199	0.055
-221.640	-200.000	-0.027	0.153
-220.625	-200.000	0.029	0.140
-219.611	54.628	0.259	0.247
-218.596	800.000	0.045	0.155
-217.582	800.000	0.172	0.482
-216.567	-39.672	-0.212	-0.110
-215.552	-121.376	0.234	-0.039
-214.538	367.071	-0.091	0.181
-213.523	-148.155	-0.205	0.017
-212.509	125.447	0.096	0.120
-211.494	-18.448	0.126	0.078
-210.479	-200.000	0.012	-0.325
-209.465	-131.513	0.134	-0.018
-208.450	-200.000	-0.023	0.115
-207.436	-200.000	-0.001	0.276
-206.421	-153.725	-0.332	-0.023
-205.406	-151.782	-0.363	0.026
-204.392	-114.315	-0.079	0.015
-203.377	67.232	-0.065	0.066
-202.363	9.089	0.184	0.138
-201.348	150.010	-0.085	-0.114
-200.333	-200.000	-0.077	0.418
-199.319	800.000	-0.011	0.043
-198.304	442.506	0.091	-0.196
-197.290	-200.000	0.039	-0.210
-196.275	-57.290	-0.279	-0.122
-195.260	185.661	-0.171	0.251
-194.246	-22.730	0.187	0.112
-193.231	266.192	-0.163	0.283
-192.217	-77.145	0.339	0.117
-191.202	-69.965	-0.041	0.015
-190.187	-200.000	-0.010	-0.109
-189.173	-29.584	0.108	-0.061
-188.158	-113.785	0.399	-0.077
-187.144	-11.872	-0.043	0.028
-186.129	28.956	-0.090	0.075
-185.114	800.000	-0.030	0.129
-184.100	-67.722	-0.467	-0.181
-183.085	-125.122	0.047	-0.007
-182.071	-34.156	0.250	-0.136
-181.056	-155.601	-0.534	0.034
-180.042	-92.284	-0.335	-0.094
-179.027	800.000	0.038	0.139
-178.012	6.447	-0.162	-0.119
-176.998	-91.150	-0.038	0.011
-175.983	109.857	0.023	-0.027
-174.969	441.476	-0.045	-0.098
-173.954	800.000	0.071	0.306
-172.939	-200.000	0.032	-0.262
-171.925	-200.000	0.070	-0.485
-170.910	210.759	0.111	-0.172
-169.896	-170.492	-0.068	0.002
-168.881	-112.351	-0.137	-0.027
-167.866	-80.151	0.302	-0.100
-166.852	41.595	0.171	0.153
-165.837	-200.000	0.034	0.454
-164.823	94.658	-0.106	-0.119
-163.808	311.077	0.169	0.313
-162.793	-86.363	-0.281	-0.085
-161.779	107.211	-0.334	-0.393
-160.764	800.000	0.039	-0.134
-159.750	-200.000	-0.028	0.129
-158.735	-150.637	0.482	0.036
-157.720	16.497	0.150	0.117
-156.706	-40.049	0.258	0.133
-155.691	8.800	-0.113	-0.084
-154.677	52.387	0.244	-0.230
-153.662	-43.920	0.170	0.084
-152.647	-200.000	-0.019	-0.412
-151.633	129.461	-0.092	0.116
-150.618	123.158	0.133	0.165
-149.604	800.000	0.072	-0.220
-148.589	-33.928	-0.259	0.141
-147.574	115.450	-0.106	-0.128
-146.560	-168.223	-0.059	-0.002
-145.545	800.000	-0.013	-0.041
-144.531	-200.000	0.010	0.225
-143.516	-120.751	0.347	0.058
-142.502	168.968	0.172	0.243
-141.487	386.177	0.088	0.179
-140.472	-179.892	0.350	0.007
-139.458	800.000	0.071	-0.215
-138.443	712.914	0.103	0.271
-137.429	165.504	0.210	0.293
-136.414	-200.000	0.014	-0.072
-135.399	-43.069	0.091	-0.045
-134.385	267.541	0.189	0.327
-133.370	-28.480	-0.019	0.011
-132.356	-19.875	-0.200	0.122
-131.341	38.395	-0.108	0.095
-130.326	-200.000	-0.010	0.088
-129.312	-200.000	0.012	-0.143
-128.297	800.000	0.055	0.181
-127.283	618.211	-0.016	-0.041
-126.268	-113.674	0.361	-0.070
-125.253	450.516	-0.135	-0.295
-124.239	800.000	0.097	0.400
-123.224	-150.933	0.443	0.033
-122.210	90.323	0.112	-0.124
-121.195	-32.098	0.155	0.085
-120.180	98.811	0.082	-0.094
-119.166	-166.268	0.097	-0.004
-118.151	490.492	-0.078	0.176
-117.137	800.000	-0.068	0.250
-116.122	33.024	-0.107	0.092
-115.107	-120.110	0.175	0.030
-114.093	-134.988	-0.284	-0.034
-113.078	54.730	0.203	-0.194
-112.064	27.706	0.308	0.256
-111.049	-9.568	-0.096	0.063
-110.034	-68.026	0.174	0.067
-109.020	513.143	0.077	0.177
-108.005	31.018	0.157	0.133
-106.991	-69.303	0.167	-0.063
-105.976	-200.000	-0.063	0.282
-104.962	800.000	-0.048	-0.168
-103.947	-93.716	-0.134	-0.036
-102.932	68.018	0.300	-0.303
-101.918	38.072	0.207	0.181
-100.903	-26.682	-0.086	0.050
-99.889	-2.542	-0.107	-0.074
-98.874	257.781	0.162	-0.275
-97.859	-200.000	-0.054	0.255
-96.845	116.720	0.044	-0.054
-95.830	94.042	0.287	0.321
-94.816	800.000	-0.122	0.360
-93.801	-200.000	-0.040	0.198
-92.786	120.873	0.085	-0.104
-91.772	594.523	0.030	0.074
-90.757	68.844	-0.185	0.187
-89.743	-160.150	0.302	0.016
-88.728	291.849	0.122	-0.219
-87.713	-91.487	-0.198	-0.056
-86.699	-72.806	0.121	0.044
-85.684	-200.000	-0.001	0.386
-84.670	123.628	0.201	-0.249
-83.655	-200.000	0.010	-0.214
-82.640	-200.000	0.011	-0.125
-81.626	-97.259	-0.242	0.062
-80.611	-106.075	-0.067	-0.015
-79.597	117.468	-0.123	0.149
-78.582	800.000	0.058	-0.205
-77.567	-98.197	-0.278	-0.070
-76.553	9.420	-0.129	-0.097
-75.538	-81.848	0.202	0.065
-74.524	-200.000	-0.096	0.464
-73.509	43.529	-0.204	0.184
-72.494	-1.990	0.102	0.071
-71.480	-28.424	0.121	0.069
-70.465	144.189	-0.211	-0.278
-69.451	800.000	0.105	0.385
-68.436	-200.000	-0.000	-0.143
-67.422	-124.102	-0.266	-0.041
-66.407	-200.000	0.023	-0.343
-65.392	-56.576	0.150	-0.065
-64.378	36.354	-0.124	-0.108
-63.363	-200.000	0.035	-0.345
-62.349	46.143	0.391	0.356
-61.334	94.404	-0.973	-1.089
-60.319	94.673	0.336	0.377
-59.305	765.962	-0.373	-0.999
-58.290	139.596	0.672	0.871
-57.276	356.176	0.808	1.586
-56.261	-200.000	95.727	570.781
-55.246	646.401	1378.803	3469.450
-54.232	197.886	2551.584	3840.578
-53.217	119.535	2144.807	2616.202
-52.203	44.579	1607.758	1455.521
-51.188	36.413	1345.144	1168.578
-50.173	33.189	1303.493	1113.409
-49.159	54.991	1349.689	1283.816
-48.144	57.460	1366.466	1314.481
-47.130	36.526	1325.929	1152.377
-46.115	33.113	1308.280	1116.869
-45.100	32.901	1303.184	1111.228
-44.086	32.739	1301.472	1108.773
-43.071	32.672	1299.146	1106.349
-42.057	32.908	1296.653	1105.570
-41.042	32.886	1295.154	1104.116
-40.027	32.902	1293.573	1102.818
-39.013	32.749	1292.067	1100.597
-37.998	32.793	1289.772	1098.856
-36.984	32.864	1288.587	1098.213
-35.969	32.945	1286.627	1096.972
-34.954	32.912	1285.143	1095.471
-33.940	32.916	1283.821	1094.323
-32.925	33.003	1282.162	1093.367
-31.911	32.876	1281.190	1091.764
-30.896	33.031	1278.960	1090.713
-29.881	32.881	1278.087	1089.062
-28.867	33.025	1276.373	1088.388
-27.852	32.991	1275.075	1087.041
-26.838	32.950	1273.694	1085.588
-25.823	32.996	1272.578	1084.856
-24.809	32.902	1271.263	1083.153
-23.794	33.033	1269.729	1082.554
-22.779	32.973	1268.576	1081.182
-21.765	33.100	1266.538	1080.128
-20.750	32.986	1265.615	1078.648
-19.736	32.954	1264.937	1077.844
-18.721	32.836	1263.855	1076.206
-17.706	32.859	1262.453	1075.100
-16.692	32.879	1261.449	1074.316
-15.677	32.874	1260.162	1073.150
-14.663	32.952	1258.952	1072.520
-13.648	32.900	1258.031	1071.398
-12.633	32.796	1257.154	1070.018
-11.619	32.835	1256.460	1069.609
-10.604	32.696	1255.467	1067.929
-9.590	32.729	1254.052	1066.870
-8.575	32.874	1253.205	1066.929
-7.560	32.711	1252.918	1065.724
-6.546	32.865	1251.786	1065.586
-5.531	32.838	1250.767	1064.524
-4.517	32.823	1250.024	1063.767
-3.502	32.724	1249.525	1062.738
-2.487	32.742	1248.333	1061.784
-1.473	32.910	1243.912	1058.924
-0.458	31.354	1229.314	1037.822
0.556	27.009	1211.949	999.351
1.571	23.417	1216.404	983.054
2.586	22.267	1231.577	988.768
3.600	21.818	1220.489	977.280
4.615	16.587	1149.792	893.048
5.629	8.496	1075.852	795.431
6.644	4.958	1056.160	763.498
7.659	4.605	1053.970	760.117
8.673	4.768	1052.474	759.770
9.688	4.699	1051.391	758.585
10.702	4.880	1049.515	758.043
11.717	9.347	1055.425	784.065
12.731	16.689	1065.874	827.780
13.746	19.351	1068.393	842.691
14.761	18.562	1066.588	837.342
15.775	17.522	1064.710	830.721
16.790	16.364	1062.785	823.506
17.804	15.736	1061.174	819.127
18.819	15.318	1060.270	816.322
19.834	15.261	1058.557	814.652
20.848	14.983	1058.109	812.888
21.863	14.662	1057.769	810.994
22.877	14.529	1056.581	809.365
23.892	14.522	1055.848	808.701
24.907	14.608	1055.375	808.682
25.921	14.713	1053.860	807.955
26.936	14.556	1052.925	806.409
27.950	14.623	1052.004	805.959
28.965	14.874	1049.638	805.283
29.980	14.842	1048.542	804.218
30.994	14.904	1047.954	803.991
32.009	14.998	1046.310	803.110
33.023	14.911	1045.284	801.837
34.038	14.815	1044.227	800.492
35.053	14.660	1043.645	799.233
36.067	14.675	1042.944	798.700
37.082	14.854	1041.466	798.353
38.096	14.680	1041.575	797.533
39.111	14.813	1039.961	796.859
40.126	14.696	1038.859	795.388
41.140	14.503	1038.244	793.930
42.155	14.493	1036.602	792.554
43.169	14.512	1035.615	791.822
44.184	14.442	1034.656	790.688
45.199	14.412	1033.924	789.915
46.213	14.515	1032.631	789.345
47.228	14.605	1031.598	788.909
48.242	14.660	1030.820	788.506
49.257	14.668	1029.781	787.679
50.271	14.644	1029.367	787.178
51.286	14.759	1028.139	786.710
52.301	14.691	1027.097	785.526
53.315	14.712	1025.922	784.657
54.330	14.573	1024.577	782.904
55.344	14.601	1024.022	782.544
56.359	14.583	1023.233	781.787
57.374	14.568	1022.222	780.875
58.388	14.470	1021.248	779.604
59.403	14.443	1020.610	778.919
60.417	14.464	1020.122	778.576
61.432	14.410	1018.914	777.337
62.447	14.330	1018.385	776.491
63.461	14.273	1017.751	775.670
64.476	14.299	1016.570	774.824
65.490	14.264	1016.160	774.279
66.505	14.315	1015.229	773.740
67.520	14.353	1014.651	773.408
68.534	14.490	1013.668	773.225
69.549	14.418	1013.114	772.402
70.563	14.382	1012.160	771.440
71.578	14.260	1011.648	770.414
72.593	14.304	1010.573	769.731
73.607	14.298	1010.277	769.412
74.622	14.181	1009.941	768.547
75.636	14.349	1008.953	768.502
76.651	14.433	1007.739	767.895
77.666	14.262	1007.876	767.145
78.680	14.247	1007.156	766.459
79.695	14.350	1005.950	765.945
80.709	14.532	1005.569	766.427
81.724	14.431	1005.066	765.508
82.739	14.511	1004.093	765.068
83.753	14.614	1003.629	765.121
84.768	14.798	1002.725	765.207
85.782	14.977	1001.463	764.994
86.797	15.063	1000.619	764.673
87.812	14.725	999.823	762.453
88.826	14.799	999.186	762.240
89.841	14.671	998.289	760.905
90.855	14.779	997.395	760.649
91.870	14.912	996.505	760.507
92.884	14.784	995.380	759.001
93.899	14.912	994.237	758.643
94.914	14.997	993.667	758.525
95.928	14.870	993.331	757.625
96.943	14.796	991.825	756.075
97.957	14.861	991.363	755.951
98.972	14.763	990.706	754.940
99.987	14.758	989.863	754.208
101.001	14.869	988.538	753.630
102.016	14.799	987.718	752.623
103.030	14.852	987.234	752.427
104.045	14.852	986.143	751.531
105.060	14.749	985.626	750.605
106.074	14.620	984.607	749.185
107.089	14.572	983.781	748.274
108.103	14.405	982.765	746.687
109.118	14.389	982.100	746.043
110.133	14.522	981.066	745.788
111.147	14.526	980.359	745.203
112.162	14.476	979.331	744.129
113.176	14.707	978.305	744.317
114.191	14.633	977.717	743.474
115.206	14.624	976.925	742.765
116.220	14.600	975.757	741.706
117.235	14.471	975.372	740.775
118.249	14.589	974.502	740.571
119.264	14.531	973.799	739.714
120.279	14.389	973.341	738.673
121.293	14.487	972.189	738.164
122.308	14.493	971.022	737.239
123.322	14.519	969.813	736.370
124.337	14.540	969.112	735.865
125.352	14.334	968.319	734.294
126.366	14.356	967.702	733.855
127.381	14.563	966.631	733.892
128.395	14.474	965.645	732.686
129.410	14.615	964.778	732.582
130.424	14.633	963.789	731.844
131.439	14.718	963.073	731.607
132.454	14.603	962.453	730.571
133.468	14.746	961.717	730.570
134.483	14.698	960.572	729.427
135.497	14.737	959.941	729.053
136.512	14.755	959.011	728.363
137.527	14.650	958.363	727.346
138.541	14.699	957.592	726.911
139.556	14.751	956.889	726.540
140.570	14.759	956.247	726.024
141.585	14.931	955.446	726.098
142.600	15.005	954.403	725.560
143.614	14.958	953.905	724.914
144.629	14.941	953.154	724.204
145.643	14.829	952.307	723.015
146.658	14.790	951.025	721.810
147.673	14.596	950.433	720.457
148.687	14.576	949.310	719.459
149.702	14.684	948.419	719.181
150.716	14.656	947.632	718.402
151.731	14.755	947.005	718.289
152.746	14.767	946.281	717.727
153.760	14.693	945.673	716.885
154.775	14.784	945.274	716.911
155.789	14.803	944.654	716.458
156.804	14.836	944.133	716.138
157.819	14.911	943.131	715.637
158.833	14.987	942.534	715.447
159.848	15.040	941.680	714.962
160.862	14.868	940.841	713.529
161.877	14.920	939.253	712.480
162.892	14.752	938.806	711.364
163.906	14.652	938.237	710.445
164.921	14.783	937.444	710.335
165.935	14.873	936.181	709.698
166.950	14.966	935.152	709.251
167.964	14.911	934.563	708.509
168.979	14.928	933.475	707.692
169.994	14.769	933.276	706.808
171.008	14.842	932.202	706.242
172.023	14.990	932.161	706.773
173.037	15.018	931.290	706.166
174.052	14.957	930.062	704.915
175.067	14.739	929.849	703.774
176.081	14.797	928.860	703.209
177.096	14.816	928.248	702.763
178.110	14.928	927.444	702.562
179.125	14.919	927.057	702.169
180.140	14.969	926.625	701.987
181.154	14.970	926.202	701.609
182.169	15.004	925.921	701.478
183.183	15.107	925.095	701.223
184.198	15.136	924.116	700.540
185.213	15.196	923.537	700.287
186.227	15.091	923.014	699.392
187.242	15.202	922.196	699.173
188.256	15.217	921.580	698.704
189.271	15.265	920.594	698.097
190.286	15.054	920.140	696.813
191.300	14.864	919.114	695.184
192.315	14.799	918.502	694.389
193.329	14.851	917.935	694.116
194.344	15.059	917.209	694.366
195.359	15.057	916.875	694.044
196.373	15.199	916.309	694.142
197.388	15.361	915.727	694.312
198.402	15.377	915.494	694.140
199.417	15.473	914.512	693.731
200.432	15.469	914.389	693.558
201.446	15.549	913.546	693.190
202.461	15.695	912.880	693.226
203.475	15.414	912.954	692.058
204.490	15.324	911.859	690.796
205.504	15.377	910.752	690.115
206.519	15.469	909.965	689.839
207.534	15.387	909.325	688.953
208.548	15.351	908.843	688.380
209.563	15.292	908.281	687.650
210.577	15.446	907.345	687.512
211.592	15.467	907.011	687.286
212.607	15.454	905.956	686.370
213.621	15.536	905.214	686.083
214.636	15.521	904.795	685.646
215.650	15.503	904.124	685.002
216.665	15.655	903.019	684.722
217.680	15.671	902.645	684.443
218.694	15.562	902.189	683.596
219.709	15.501	901.926	683.088
220.723	15.746	900.731	683.117
221.738	15.619	900.188	682.129
222.753	15.537	899.644	681.324
223.767	15.645	898.745	681.018
224.782	15.876	898.487	681.699
225.796	15.864	897.998	681.221
226.811	15.904	897.103	680.642
227.826	15.688	896.654	679.368
228.840	15.794	895.585	678.928
229.855	15.694	894.925	677.964
230.869	15.593	894.467	677.148
231.884	15.604	893.609	676.485
232.899	15.662	892.457	675.784
233.913	15.540	892.089	674.958
234.928	15.613	891.550	674.783
235.942	15.440	891.484	673.979
236.957	15.465	890.432	673.223
237.972	15.536	890.102	673.197
238.986	15.622	889.023	672.666
240.001	15.720	888.631	672.704
241.015	15.690	887.999	672.045
242.030	15.718	887.421	671.659
243.045	15.773	886.799	671.350
244.059	15.805	886.283	671.027
245.074	15.625	885.619	669.746
246.088	15.814	885.062	670.020
247.103	15.957	884.511	670.110
248.117	16.194	883.590	670.296
249.132	16.165	883.934	670.384
250.147	16.210	883.067	669.845
251.161	16.344	881.969	669.484
252.176	16.320	881.135	668.694
253.190	16.402	880.920	668.799
254.205	16.422	880.093	668.193
255.220	16.361	879.476	667.421
256.234	16.235	879.311	666.742
257.249	16.277	878.336	666.109
258.263	16.337	877.537	665.680
259.278	16.327	876.979	665.157
260.293	16.330	876.443	664.702
261.307	16.456	875.962	664.775
262.322	16.411	874.961	663.780
263.336	16.462	874.546	663.607
264.351	16.344	874.175	662.806
265.366	16.595	873.065	662.887
266.380	16.610	872.466	662.432
267.395	16.575	871.420	661.444
268.409	16.381	871.236	660.488
269.424	16.620	870.366	660.702
270.439	16.466	869.609	659.467
271.453	16.422	869.093	658.848
272.468	16.354	868.693	658.219
273.482	16.407	868.099	657.917
274.497	16.371	867.477	657.248
275.512	16.334	867.085	656.750
276.526	16.250	866.915	656.236
277.541	16.563	865.851	656.588
278.555	16.747	865.502	656.978
279.570	16.689	864.784	656.152
280.585	16.762	864.003	655.782
281.599	16.740	862.950	654.839
282.614	16.611	862.733	654.120
283.628	16.537	862.249	653.407
284.643	16.503	861.564	652.700
285.657	16.732	860.712	652.882
286.672	16.663	860.308	652.251
287.687	16.815	859.299	652.014
288.701	16.733	858.784	651.250
289.716	16.835	858.399	651.291
290.730	16.649	858.238	650.397
291.745	16.652	857.703	649.946
292.760	16.857	856.846	650.024
293.774	17.015	856.014	649.942
294.789	16.842	855.866	649.109
295.803	16.778	854.910	648.082
296.818	16.797	854.264	647.607
297.833	16.754	853.564	646.856
298.847	16.821	852.928	646.572
299.862	16.743	852.858	646.164
300.876	16.780	852.338	645.853
301.891	16.949	851.640	645.912
302.906	17.062	850.885	645.711
303.920	17.024	850.719	645.383
304.935	17.218	850.002	645.520
305.949	17.185	849.170	644.706
306.964	16.924	848.888	643.443
307.979	16.911	848.273	642.872
308.993	16.890	847.800	642.377
310.008	17.018	847.440	642.534
311.022	17.148	846.714	642.416
312.037	17.005	845.762	641.099
313.052	16.983	845.086	640.443
314.066	16.964	844.690	640.016
315.081	16.724	844.494	638.907
316.095	16.794	843.874	638.645
317.110	16.981	842.717	638.415
318.125	17.027	842.275	638.199
319.139	16.961	842.326	637.930
320.154	16.978	841.770	637.517
321.168	16.964	841.030	636.847
322.183	16.973	840.552	636.462
323.197	17.096	839.901	636.377
324.212	17.121	839.409	636.041
325.227	17.058	839.174	635.570
326.241	16.851	838.563	634.278
327.256	16.933	837.937	634.055
328.270	17.041	837.131	633.789
329.285	16.985	836.887	633.341
330.300	17.065	835.770	632.736
331.314	16.986	835.955	632.528
332.329	17.124	835.422	632.583
333.343	17.436	834.712	633.149
334.358	17.335	834.216	632.340
335.373	17.384	833.829	632.173
336.387	17.286	833.799	631.731
337.402	17.335	833.412	631.564
338.416	17.367	833.179	631.450
339.431	17.510	832.846	631.673
340.446	17.546	832.311	631.346
341.460	17.607	831.610	630.983
342.475	17.542	831.585	630.667
343.489	17.589	831.140	630.450
344.504	17.596	830.344	629.814
345.519	17.476	830.367	629.334
346.533	17.623	829.844	629.422
347.548	17.520	828.868	628.247
348.562	17.526	828.705	628.090
349.577	17.504	827.960	627.388
350.592	17.615	826.676	626.768
351.606	17.520	826.283	626.067
352.621	17.636	825.551	625.882
353.635	17.505	825.476	625.288
354.650	17.464	824.747	624.532
355.665	17.500	824.009	624.050
356.679	17.658	823.274	624.016
357.694	17.606	823.278	623.774
358.708	17.630	822.300	623.063
359.723	17.661	821.816	622.755
360.738	17.683	821.348	622.427
361.752	17.606	820.737	621.627
362.767	17.728	819.802	621.308
363.781	17.857	819.812	621.731
364.796	18.003	819.236	621.770
365.810	18.101	818.719	621.682
366.825	18.081	818.080	621.069
367.840	18.017	817.759	620.538
368.854	17.800	817.753	619.690
369.869	17.982	816.957	619.690
370.883	17.932	816.470	619.085
371.898	18.004	816.225	619.105
372.913	18.093	815.764	619.026
373.927	18.052	815.305	618.473
374.942	18.075	814.722	618.058
375.956	18.233	814.293	618.248
376.971	18.178	813.749	617.584
377.986	18.209	813.455	617.418
379.000	18.272	812.790	617.086
380.015	18.360	812.533	617.151
381.029	18.205	811.852	616.022
382.044	18.343	811.062	615.866
383.059	18.351	810.395	615.333
384.073	18.130	809.864	614.081
385.088	18.194	809.460	613.950
386.102	18.116	808.874	613.174
387.117	18.132	808.358	612.783
388.132	18.197	807.639	612.419
389.146	18.193	807.409	612.173
390.161	18.438	806.724	612.477
391.175	18.390	806.126	611.798
392.190	18.279	805.786	611.091
393.205	18.230	805.437	610.596
394.219	18.184	804.847	609.929
395.234	18.144	804.668	609.596
396.248	18.095	804.398	609.166
397.263	18.087	803.839	608.659
398.278	18.091	803.402	608.287
399.292	18.186	802.659	608.009
400.307	18.101	802.575	607.592
401.321	18.222	802.030	607.553
402.336	18.201	801.472	607.002
403.350	18.136	801.319	606.601
404.365	18.437	800.436	606.947
405.380	18.459	800.104	606.719
406.394	18.630	799.734	606.991
407.409	18.521	799.351	606.260
408.423	18.556	799.406	606.371
409.438	18.472	798.735	605.513
410.453	18.672	798.224	605.779
411.467	18.488	798.069	604.956
412.482	18.736	797.528	605.370
413.496	18.805	797.427	605.481
414.511	18.617	797.366	604.717
415.526	18.768	796.320	604.402
416.540	18.742	795.795	603.859
417.555	18.762	795.232	603.448
418.569	18.731	794.921	603.053
419.584	18.602	794.818	602.465
420.599	18.656	794.007	601.989
421.613	156.512	1371.088	1793.671
422.628	135.492	1455.206	1793.760
