DTS Sentinel unit serial number:	SN413079Multiplexer serial number:	ORYXHardware model number:	OX4-SRSoftware version number:	ORYX F/W v4.00 Oryx Data Collector v3.7.2.0data status	okinstallation	princeton_trtdifferential loss correction	single-endedforward channel	channel 1reverse channel	N/Adate	2019/09/16time	18:10:35forward acquisition time	60.00reverse acquisition time	0.00gamma	496.2192k internal	0.2302k external	0.2302temperature offset calibration	0.9969default loss term (dB/km)	0.3790temperature slope calibration	1.0000multiplexer offset coefficient	1.0000multiplexer slope coefficient	1.0000fibre end	0.00T internal ref (°C)	37.28T ext. ref 1 (°C)	15.70T ext. ref 2 (°C)	30.87length (m)	temperature (°C)	Stokes	anti-Stokes-747.200	800.000	0.044	-0.180
-746.185	15.543	-0.321	-0.257
-745.171	-64.027	0.127	0.053
-744.156	-200.000	0.013	-0.250
-743.142	-200.000	0.010	0.233
-742.127	-200.000	0.004	0.131
-741.112	29.743	-0.152	0.132
-740.098	285.666	-0.166	0.306
-739.083	329.067	-0.034	0.067
-738.069	64.014	-0.323	0.331
-737.054	9.226	-0.233	-0.179
-736.039	800.000	-0.071	-0.225
-735.025	51.763	-0.066	0.064
-734.010	-54.879	-0.038	0.018
-732.996	-200.000	-0.034	-0.345
-731.981	-53.595	-0.177	-0.083
-730.966	-83.090	-0.331	0.109
-729.952	-112.473	-0.087	0.018
-728.937	-154.150	-0.205	0.014
-727.923	-127.191	-0.442	0.066
-726.908	3.598	-0.283	-0.210
-725.894	573.508	0.205	-0.510
-724.879	222.058	0.167	0.274
-723.864	800.000	0.034	0.099
-722.850	248.315	0.100	0.173
-721.835	800.000	0.046	0.157
-720.821	-111.471	-0.193	0.040
-719.806	-200.000	-0.006	0.053
-718.791	-200.000	-0.003	-0.146
-717.777	-200.000	0.029	0.186
-716.762	267.284	-0.148	-0.264
-715.748	-73.051	-0.125	-0.047
-714.733	-39.319	0.085	-0.046
-713.718	152.202	-0.052	0.072
-712.704	-107.515	-0.198	-0.044
-711.689	168.701	0.062	0.091
-710.675	-200.000	-0.004	0.241
-709.660	-13.102	0.256	-0.169
-708.645	29.230	0.200	-0.173
-707.631	-6.493	-0.022	0.015
-706.616	-200.000	0.018	-0.373
-705.602	-11.690	-0.122	0.081
-704.587	88.580	-0.050	0.057
-703.572	800.000	0.138	-0.512
-702.558	586.640	-0.027	-0.068
-701.543	481.790	-0.188	0.435
-700.529	355.498	-0.036	-0.074
-699.514	-200.000	0.062	-0.293
-698.499	483.680	-0.063	-0.147
-697.485	284.689	0.113	-0.207
-696.470	-7.188	0.207	0.143
-695.456	-200.000	0.040	-0.316
-694.441	769.668	-0.198	-0.547
-693.426	434.591	0.084	-0.186
-692.412	-129.298	-0.090	-0.013
-691.397	-89.378	-0.275	0.082
-690.383	-200.000	0.019	0.355
-689.368	-52.625	-0.053	0.025
-688.354	-21.919	0.156	0.096
-687.339	-87.677	-0.229	0.070
-686.324	-47.454	0.220	0.109
-685.310	-114.483	-0.214	0.042
-684.295	-200.000	-0.001	-0.106
-683.281	-15.599	-0.126	-0.082
-682.266	800.000	0.095	0.339
-681.251	-167.250	-0.100	-0.004
-680.237	115.757	0.091	-0.113
-679.222	-200.000	-0.022	-0.265
-678.208	689.217	-0.137	0.365
-677.193	486.400	-0.109	0.252
-676.178	8.864	-0.182	-0.140
-675.164	800.000	-0.075	0.215
-674.149	-82.706	0.106	0.035
-673.135	-23.792	0.219	-0.133
-672.120	29.293	-0.140	-0.121
-671.105	-200.000	0.053	0.290
-670.091	135.226	0.133	0.175
-669.076	-200.000	-0.017	-0.115
-668.062	-140.862	0.140	-0.015
-667.047	-7.361	-0.124	0.085
-666.032	-26.148	-0.233	0.139
-665.018	48.289	0.176	0.168
-664.003	506.999	0.077	-0.181
-662.989	579.064	-0.098	-0.243
-661.974	66.230	-0.183	-0.189
-660.959	-200.000	0.012	-0.206
-659.945	-200.000	0.063	0.363
-658.930	35.877	0.426	0.380
-657.916	800.000	-0.076	0.226
-656.901	-200.000	-0.001	0.026
-655.886	-83.499	-0.112	-0.036
-654.872	-45.717	0.304	-0.153
-653.857	305.343	-0.088	-0.166
-652.843	-200.000	-0.023	-0.374
-651.828	657.905	-0.091	-0.237
-650.814	-74.320	-0.224	0.082
-649.799	52.459	0.072	0.070
-648.784	-170.112	-0.141	0.005
-647.770	50.330	-0.153	0.146
-646.755	29.677	-0.114	-0.099
-645.741	76.274	-0.143	0.154
-644.726	-80.978	0.189	-0.063
-643.711	-16.323	-0.064	0.041
-642.697	411.007	0.097	0.208
-641.682	-126.430	-0.222	-0.034
-640.668	-200.000	-0.003	-0.235
-639.653	-119.901	0.227	0.040
-638.638	-42.300	-0.065	-0.034
-637.624	-164.839	-0.033	0.002
-636.609	63.674	-0.139	0.141
-635.595	-181.579	-0.202	-0.004
-634.580	618.985	0.123	0.314
-633.565	-200.000	0.034	-0.216
-632.551	72.525	-0.228	-0.241
-631.536	378.667	-0.169	-0.350
-630.522	-128.721	0.160	-0.023
-629.507	-52.678	-0.242	0.113
-628.492	800.000	0.119	-0.468
-627.478	-134.763	0.158	0.019
-626.463	800.000	-0.052	-0.164
-625.449	383.454	0.063	0.131
-624.434	800.000	-0.059	-0.202
-623.419	97.752	0.114	0.133
-622.405	-75.359	-0.029	0.010
-621.390	192.858	-0.073	-0.112
-620.376	39.083	-0.277	-0.251
-619.361	-189.983	-0.192	-0.002
-618.346	102.763	-0.068	0.081
-617.332	-76.437	0.206	-0.074
-616.317	-131.652	0.207	-0.028
-615.303	-17.749	-0.149	-0.095
-614.288	-75.361	-0.156	-0.056
-613.273	285.924	0.074	-0.136
-612.259	-200.000	0.016	0.083
-611.244	-200.000	-0.031	-0.229
-610.230	237.968	0.149	-0.250
-609.215	198.460	-0.071	-0.110
-608.201	439.266	0.159	-0.351
-607.186	-97.677	0.152	0.040
-606.171	-200.000	-0.019	0.468
-605.157	-24.528	0.180	0.109
-604.142	-200.000	-0.058	-0.276
-603.128	203.013	0.206	-0.322
-602.113	9.577	0.033	-0.025
-601.098	86.686	-0.063	0.071
-600.084	-0.314	-0.326	-0.235
-599.069	116.892	-0.054	0.067
-598.055	23.540	-0.029	-0.024
-597.040	-200.000	-0.067	0.308
-596.025	284.929	-0.101	-0.184
-595.011	-200.000	0.005	-0.191
-593.996	509.579	0.088	-0.206
-592.982	800.000	-0.109	-0.483
-591.967	-34.897	-0.249	-0.138
-590.952	128.697	0.065	-0.084
-589.938	66.336	0.072	-0.074
-588.923	697.880	-0.076	0.203
-587.909	-69.762	0.298	-0.115
-586.894	437.801	0.117	0.258
-585.879	800.000	0.031	0.133
-584.865	800.000	-0.043	-0.126
-583.850	-180.986	0.337	0.007
-582.836	51.016	-0.081	0.077
-581.821	394.259	0.097	0.205
-580.806	-94.043	0.222	0.062
-579.792	-6.612	0.250	0.172
-578.777	-171.179	-0.129	-0.004
-577.763	154.754	0.082	-0.115
-576.748	-157.094	-0.227	0.014
-575.733	180.377	0.027	0.041
-574.719	-146.038	-0.051	-0.005
-573.704	-200.000	0.055	-0.298
-572.690	14.737	-0.035	0.028
-571.675	-149.165	0.523	-0.042
-570.661	-200.000	-0.042	-0.265
-569.646	-122.068	-0.197	-0.033
-568.631	-200.000	-0.011	0.214
-567.617	-140.976	-0.134	-0.014
-566.602	228.872	-0.060	0.098
-565.588	-121.209	0.351	-0.059
-564.573	-12.622	-0.099	0.065
-563.558	-25.628	0.060	0.036
-562.544	-119.866	-0.376	0.066
-561.529	-25.651	0.067	0.040
-560.515	1.296	0.287	0.208
-559.500	-5.055	0.100	0.070
-558.485	87.083	0.069	-0.077
-557.471	270.603	0.072	0.127
-556.456	-126.294	-0.185	0.028
-555.442	800.000	-0.075	0.226
-554.427	-25.292	0.165	0.099
-553.412	-73.759	-0.419	-0.154
-552.398	608.755	0.017	0.043
-551.383	42.164	0.089	-0.082
-550.369	69.413	-0.193	0.201
-549.354	229.875	-0.165	0.273
-548.339	-45.460	-0.209	0.105
-547.325	800.000	-0.079	-0.235
-546.310	800.000	0.024	-0.093
-545.296	-200.000	-0.008	-0.109
-544.281	800.000	0.042	-0.139
-543.266	-82.379	-0.166	0.055
-542.252	-183.657	-0.289	-0.005
-541.237	-92.630	-0.214	-0.061
-540.223	-81.613	-0.227	-0.076
-539.208	800.000	-0.029	-0.113
-538.193	617.946	-0.149	-0.379
-537.179	800.000	-0.117	-0.405
-536.164	265.371	-0.169	0.298
-535.150	-116.378	-0.191	0.036
-534.135	800.000	-0.068	-0.192
-533.121	-200.000	-0.011	0.262
-532.106	105.272	0.237	-0.283
-531.091	-73.316	-0.159	-0.059
-530.077	-11.428	0.352	0.234
-529.062	-200.000	0.004	-0.032
-528.048	-49.174	-0.335	-0.162
-527.033	-30.181	0.313	-0.180
-526.018	32.117	0.333	-0.290
-525.004	-69.401	-0.432	0.167
-523.989	-20.059	-0.449	0.280
-522.975	800.000	-0.056	0.162
-521.960	-59.879	-0.379	0.164
-520.945	315.835	-0.082	0.155
-519.931	-178.696	0.300	-0.007
-518.916	143.280	0.250	-0.337
-517.902	-5.322	-0.099	0.069
-516.887	678.091	0.088	-0.230
-515.872	-105.023	-0.172	-0.040
-514.858	-120.541	-0.339	-0.058
-513.843	-18.493	0.195	-0.123
-512.829	-110.950	-0.307	0.064
-511.814	-165.867	-0.199	0.009
-510.799	191.580	-0.169	0.257
-509.785	-200.000	-0.012	0.264
-508.770	-200.000	0.027	0.326
-507.756	-28.612	-0.217	-0.126
-506.741	790.714	-0.092	0.254
-505.726	85.700	0.132	0.147
-504.712	447.244	-0.109	-0.243
-503.697	-64.293	0.261	0.107
-502.683	133.306	-0.086	-0.112
-501.668	-156.616	-0.350	-0.022
-500.653	55.763	-0.214	0.210
-499.639	-83.019	-0.106	0.034
-498.624	488.802	0.103	0.238
-497.610	2.363	-0.176	0.129
-496.595	-106.930	0.258	0.058
-495.581	-119.408	0.146	-0.026
-494.566	800.000	-0.102	-0.339
-493.551	124.327	0.143	-0.182
-492.537	10.727	0.315	0.242
-491.522	-200.000	0.049	0.307
-490.508	-200.000	-0.032	0.240
-489.493	-90.306	-0.165	0.048
-488.478	-200.000	-0.034	0.300
-487.464	-134.172	-0.158	0.020
-486.449	-200.000	0.023	0.224
-485.435	-200.000	0.023	-0.192
-484.420	-18.329	-0.048	0.030
-483.405	281.359	-0.024	-0.043
-482.391	-200.000	0.031	0.346
-481.376	-200.000	-0.041	-0.320
-480.362	-200.000	-0.033	0.274
-479.347	471.784	-0.139	-0.315
-478.332	-200.000	0.035	0.179
-477.318	108.705	0.100	-0.120
-476.303	51.382	-0.076	-0.073
-475.289	-36.757	0.079	-0.043
-474.274	67.430	-0.182	0.187
-473.259	-69.989	-0.298	-0.115
-472.245	800.000	-0.071	0.304
-471.230	292.103	0.145	-0.266
-470.216	-200.000	-0.035	-0.215
-469.201	-98.698	-0.032	0.008
-468.186	-60.688	0.263	-0.112
-467.172	-27.598	-0.280	0.164
-466.157	284.999	0.129	0.234
-465.143	-103.192	0.477	-0.114
-464.128	800.000	0.043	-0.128
-463.113	202.914	0.034	0.052
-462.099	800.000	0.054	0.197
-461.084	230.507	-0.136	0.223
-460.070	463.285	-0.103	-0.233
-459.055	-200.000	-0.068	0.307
-458.040	42.909	0.092	0.085
-457.026	-16.803	0.062	-0.040
-456.011	35.373	-0.276	-0.244
-454.997	-200.000	0.018	0.112
-453.982	-126.944	0.119	0.018
-452.968	-200.000	0.004	0.035
-451.953	-200.000	0.069	-0.342
-450.938	-154.485	0.214	0.014
-449.924	-200.000	-0.013	-0.173
-448.909	14.126	-0.298	0.234
-447.895	-66.509	0.298	0.119
-446.880	342.759	-0.117	-0.231
-445.865	-77.874	-0.339	0.118
-444.851	297.611	-0.091	0.168
-443.836	-28.871	0.164	-0.095
-442.822	285.703	-0.085	-0.154
-441.807	-145.478	-0.543	0.049
-440.792	92.152	-0.120	0.136
-439.778	-94.269	-0.195	-0.054
-438.763	-50.651	0.266	0.126
-437.749	-200.000	0.002	-0.035
-436.734	-47.602	-0.289	0.142
-435.719	394.288	0.127	-0.266
-434.705	-99.071	0.072	0.018
-433.690	342.533	-0.068	0.134
-432.676	-22.522	-0.115	0.070
-431.661	349.089	0.123	-0.244
-430.646	278.784	0.158	-0.284
-429.632	-155.299	0.207	0.014
-428.617	800.000	0.091	0.270
-427.603	745.153	0.028	-0.075
-426.588	-91.351	-0.371	-0.107
-425.573	-107.864	-0.123	-0.027
-424.559	109.855	0.198	0.239
-423.544	-200.000	-0.015	-0.140
-422.530	563.539	-0.020	-0.048
-421.515	-200.000	0.012	0.068
-420.500	-27.382	-0.172	-0.100
-419.486	709.566	-0.091	0.242
-418.471	20.764	-0.029	0.024
-417.457	-200.000	-0.017	0.138
-416.442	-56.325	0.101	-0.045
-415.428	131.822	0.149	0.193
-414.413	25.940	0.248	0.208
-413.398	-143.470	0.262	0.025
-412.384	-48.503	0.101	-0.049
-411.369	189.063	-0.175	0.263
-410.355	-200.000	0.017	-0.306
-409.340	-33.927	-0.116	-0.064
-408.325	-200.000	-0.038	-0.193
-407.311	-19.227	-0.284	-0.177
-406.296	-42.620	-0.145	0.074
-405.282	-0.265	-0.365	0.261
-404.267	-200.000	-0.004	0.065
-403.252	-145.887	0.444	-0.040
-402.238	-93.415	-0.314	-0.087
-401.223	471.079	-0.034	0.076
-400.209	800.000	-0.041	0.144
-399.194	371.901	0.184	-0.376
-398.179	-200.000	0.043	0.331
-397.165	-200.000	-0.036	0.354
-396.150	-12.848	0.083	-0.054
-395.136	195.692	0.066	-0.101
-394.121	11.064	0.242	0.186
-393.106	-138.539	-0.441	-0.049
-392.092	-71.454	0.388	-0.146
-391.077	-114.256	-0.053	-0.010
-390.063	105.745	0.079	0.094
-389.048	-191.918	0.087	-0.001
-388.033	-4.688	-0.182	0.126
-387.019	-200.000	0.028	0.217
-386.004	-200.000	0.072	-0.369
-384.990	-41.186	-0.189	-0.098
-383.975	-5.868	-0.094	0.064
-382.960	-124.676	-0.234	0.036
-381.946	800.000	-0.019	-0.072
-380.931	27.088	-0.110	0.093
-379.917	-157.987	-0.205	-0.012
-378.902	-97.795	0.212	-0.055
-377.888	361.083	-0.113	-0.228
-376.873	15.715	0.104	0.082
-375.858	105.107	-0.140	-0.166
-374.844	-28.607	-0.070	-0.040
-373.829	-54.585	-0.053	-0.024
-372.815	-114.951	0.229	0.044
-371.800	36.493	-0.051	-0.045
-370.785	-200.000	0.000	-0.248
-369.771	-144.191	-0.151	0.014
-368.756	184.565	0.053	0.079
-367.742	800.000	-0.055	-0.206
-366.727	53.328	-0.234	0.225
-365.712	400.797	-0.100	0.212
-364.698	-124.654	0.184	0.029
-363.683	37.424	-0.129	-0.115
-362.669	-35.705	-0.205	0.112
-361.654	146.812	-0.072	-0.097
-360.639	-87.845	-0.131	-0.040
-359.625	800.000	0.017	0.062
-358.610	-110.603	0.203	-0.042
-357.596	800.000	-0.077	-0.274
-356.581	-200.000	-0.016	-0.169
-355.566	18.820	0.140	-0.112
-354.552	-200.000	0.057	-0.366
-353.537	305.550	0.222	0.415
-352.523	-200.000	-0.010	-0.229
-351.508	238.810	-0.179	-0.299
-350.493	-19.979	-0.198	0.123
-349.479	-200.000	-0.024	-0.216
-348.464	-194.701	-0.391	-0.003
-347.450	-135.618	0.083	-0.010
-346.435	-72.270	-0.113	-0.042
-345.420	60.593	0.147	0.146
-344.406	-30.576	0.332	-0.188
-343.391	25.868	0.270	0.226
-342.377	-38.742	-0.086	-0.046
-341.362	-200.000	0.014	-0.076
-340.348	-6.304	-0.078	0.053
-339.333	557.289	-0.064	-0.155
-338.318	-78.106	-0.231	0.080
-337.304	15.690	-0.208	-0.164
-336.289	-24.447	-0.059	0.035
-335.275	45.491	-0.069	0.064
-334.260	-18.777	0.341	0.213
-333.245	-93.532	0.179	-0.050
-332.231	19.251	0.092	-0.074
-331.216	-200.000	0.002	0.032
-330.202	11.355	-0.205	-0.158
-329.187	800.000	0.038	-0.113
-328.172	-200.000	0.072	-0.325
-327.158	-71.751	0.023	-0.009
-326.143	-200.000	0.019	0.130
-325.129	124.565	-0.079	-0.100
-324.114	-0.737	-0.197	-0.140
-323.099	-43.758	0.169	-0.085
-322.085	800.000	-0.022	-0.092
-321.070	-1.548	0.076	0.054
-320.056	800.000	0.110	0.303
-319.041	519.333	-0.044	-0.104
-318.026	-61.956	-0.151	-0.063
-317.012	257.496	-0.236	0.407
-315.997	-167.348	-0.170	0.007
-314.983	31.409	0.120	0.103
-313.968	-200.000	-0.014	0.278
-312.953	-158.742	-0.098	-0.006
-311.939	76.099	-0.066	0.070
-310.924	8.158	0.177	0.133
-309.910	334.450	-0.089	-0.173
-308.895	-53.948	0.410	0.187
-307.880	-17.231	0.231	-0.146
-306.866	-200.000	-0.049	-0.268
-305.851	-200.000	-0.040	-0.389
-304.837	266.489	-0.236	-0.414
-303.822	353.094	0.184	-0.365
-302.807	-155.815	0.147	0.009
-301.793	610.837	0.024	-0.059
-300.778	-53.837	-0.025	-0.011
-299.764	86.864	0.109	0.120
-298.749	106.868	-0.049	0.058
-297.735	-120.335	-0.183	0.031
-296.720	305.147	0.077	-0.144
-295.705	-130.251	0.321	0.044
-294.691	-200.000	0.027	0.152
-293.676	27.888	-0.253	-0.213
-292.662	-156.311	-0.034	0.002
-291.647	-200.000	-0.014	0.091
-290.632	-15.533	0.242	-0.155
-289.618	-64.377	0.252	0.103
-288.603	4.977	-0.105	-0.077
-287.589	-200.000	0.042	0.507
-286.574	49.051	-0.315	0.296
-285.559	540.012	-0.122	-0.290
-284.545	-58.268	0.212	0.092
-283.530	136.536	0.060	0.078
-282.516	24.368	0.326	0.270
-281.501	61.268	-0.327	0.326
-280.486	-92.239	-0.038	0.011
-279.472	-147.633	0.241	-0.020
-278.457	66.710	-0.105	-0.107
-277.443	-95.467	0.062	-0.017
-276.428	-144.075	0.432	0.041
-275.413	-2.240	-0.119	0.083
-274.399	-200.000	-0.037	-0.206
-273.384	511.180	0.070	-0.162
-272.370	-200.000	0.003	0.039
-271.355	110.969	0.160	0.193
-270.340	3.919	0.155	-0.113
-269.326	139.721	0.231	-0.305
-268.311	-47.458	-0.181	0.088
-267.297	124.224	0.269	-0.339
-266.282	-92.328	0.150	0.042
-265.267	57.413	-0.084	0.082
-264.253	56.807	0.131	0.128
-263.238	-50.172	0.322	-0.152
-262.224	-8.918	-0.190	0.127
-261.209	-20.042	0.103	-0.063
-260.195	-20.723	0.362	0.222
-259.180	-139.684	-0.354	-0.038
-258.165	-200.000	-0.000	-0.149
-257.151	440.013	0.098	0.214
-256.136	-200.000	0.038	-0.229
-255.122	800.000	-0.041	-0.147
-254.107	-200.000	-0.004	0.180
-253.092	-178.400	-0.219	0.005
-252.078	-48.586	-0.244	0.117
-251.063	800.000	0.177	-0.492
-250.049	-33.741	0.186	0.102
-249.034	-81.854	-0.165	-0.054
-248.019	353.839	0.134	-0.265
-247.005	800.000	0.096	-0.369
-245.990	444.527	0.138	-0.302
-244.976	-45.338	0.294	0.146
-243.961	-156.457	-0.547	-0.034
-242.946	-108.202	0.326	0.070
-241.932	-68.653	0.227	-0.088
-240.917	-87.055	0.149	-0.045
-239.903	-200.000	0.028	-0.202
-238.888	-47.764	0.015	-0.007
-237.873	-200.000	0.023	0.221
-236.859	6.271	0.223	-0.165
-235.844	-200.000	-0.017	0.254
-234.830	800.000	0.046	0.156
-233.815	-200.000	-0.014	-0.186
-232.800	800.000	-0.072	0.216
-231.786	13.886	0.118	0.091
-230.771	112.432	-0.275	0.333
-229.757	-200.000	0.038	0.190
-228.742	-132.983	-0.060	-0.008
-227.727	-54.965	0.299	-0.135
-226.713	79.184	-0.180	0.192
-225.698	428.831	-0.069	-0.148
-224.684	-37.818	-0.190	0.101
-223.669	-46.128	0.205	-0.101
-222.655	-33.029	-0.254	0.141
-221.640	331.447	-0.142	-0.273
-220.625	584.269	0.111	-0.273
-219.611	-48.672	0.090	0.043
-218.596	6.046	0.130	0.096
-217.582	-89.636	-0.193	-0.056
-216.567	-18.580	0.263	-0.164
-215.552	116.866	0.143	0.175
-214.538	-200.000	-0.003	0.287
-213.523	-61.512	0.311	0.130
-212.509	45.345	0.295	-0.271
-211.494	-145.726	0.474	0.042
-210.479	-177.657	0.143	0.003
-209.465	51.074	0.076	-0.072
-208.450	-80.469	-0.179	0.060
-207.436	-25.403	0.121	0.071
-206.421	49.396	-0.088	0.082
-205.406	795.806	0.051	0.140
-204.392	489.880	-0.136	-0.310
-203.377	-200.000	0.001	0.008
-202.363	-11.579	0.167	0.109
-201.348	800.000	-0.099	0.292
-200.333	-13.211	-0.207	0.134
-199.319	407.738	0.042	0.089
-198.304	388.124	-0.064	0.132
-197.290	800.000	-0.063	0.209
-196.275	800.000	0.061	0.228
-195.260	-78.986	0.136	0.046
-194.246	51.010	0.075	0.071
-193.231	-83.778	0.118	0.038
-192.217	355.321	0.180	0.357
-191.202	-45.913	0.063	-0.031
-190.187	-97.707	-0.258	0.067
-189.173	256.141	0.036	0.061
-188.158	219.136	0.076	-0.122
-187.144	26.945	-0.132	-0.111
-186.129	-200.000	-0.021	0.134
-185.114	-72.897	-0.168	0.061
-184.100	800.000	0.064	-0.243
-183.085	800.000	0.042	0.121
-182.071	118.406	0.126	0.154
-181.056	766.526	0.131	-0.355
-180.042	-110.942	0.225	0.046
-179.027	-200.000	-0.057	0.344
-178.012	-46.538	0.076	-0.037
-176.998	800.000	0.033	0.138
-175.983	45.650	-0.090	0.083
-174.969	-161.017	-0.099	-0.005
-173.954	304.908	0.183	0.339
-172.939	-39.794	0.212	0.110
-171.925	199.455	0.057	0.087
-170.910	318.347	-0.093	-0.176
-169.896	157.699	-0.070	-0.097
-168.881	-110.537	-0.133	-0.027
-167.866	50.907	0.082	-0.078
-166.852	-44.236	0.131	-0.066
-165.837	800.000	-0.042	0.174
-164.823	-183.537	0.201	0.003
-163.808	-57.805	0.208	-0.091
-162.793	127.672	0.128	-0.162
-161.779	-102.202	0.088	-0.021
-160.764	800.000	-0.034	-0.129
-159.750	800.000	0.102	0.367
-158.735	-200.000	-0.003	0.300
-157.720	-107.425	-0.400	0.087
-156.706	-162.753	0.260	0.013
-155.691	-158.314	0.263	-0.015
-154.677	-66.375	0.177	0.070
-153.662	10.456	0.148	0.113
-152.647	387.436	0.040	0.083
-151.633	-106.891	0.161	0.036
-150.618	47.231	0.087	0.081
-149.604	-92.901	-0.289	-0.080
-148.589	118.131	0.133	-0.163
-147.574	445.320	0.042	-0.091
-146.560	-33.359	-0.319	-0.176
-145.545	407.912	-0.107	-0.226
-144.531	-50.560	-0.166	0.078
-143.516	-59.656	-0.124	0.053
-142.502	-200.000	0.173	-0.000
-141.487	-200.000	0.009	0.086
-140.472	-145.404	0.322	0.029
-139.458	296.720	0.016	-0.029
-138.443	-55.669	-0.045	-0.020
-137.429	-188.312	-0.062	0.001
-136.414	800.000	0.072	0.226
-135.399	-51.085	0.134	-0.063
-134.385	-200.000	-0.058	-0.510
-133.370	-19.219	-0.346	0.214
-132.356	-45.357	-0.239	-0.118
-131.341	77.244	0.118	-0.125
-130.326	-200.000	0.037	-0.188
-129.312	7.257	-0.183	-0.136
-128.297	-200.000	-0.013	0.155
-127.283	-65.341	-0.190	-0.076
-126.268	-60.009	0.086	0.036
-125.253	656.218	0.168	-0.430
-124.239	-93.867	-0.172	-0.047
-123.224	260.981	0.031	-0.053
-122.210	-98.825	0.246	0.062
-121.195	18.115	0.128	-0.101
-120.180	-83.012	0.241	0.077
-119.166	-200.000	0.032	0.209
-118.151	278.063	0.064	0.114
-117.137	197.670	0.029	-0.045
-116.122	507.102	0.162	-0.374
-115.107	800.000	-0.158	0.489
-114.093	-78.876	-0.199	0.067
-113.078	-36.951	0.184	0.098
-112.064	800.000	0.027	0.100
-111.049	-200.000	0.011	-0.112
-110.034	57.510	0.155	0.151
-109.020	-127.080	0.176	-0.026
-108.005	-200.000	-0.029	0.246
-106.991	-52.532	0.401	0.184
-105.976	197.699	-0.130	-0.197
-104.962	81.490	-0.205	-0.220
-103.947	-200.000	-0.023	-0.126
-102.932	800.000	-0.047	-0.186
-101.918	800.000	-0.057	-0.173
-100.903	800.000	-0.058	0.221
-99.889	-200.000	0.005	0.347
-98.874	196.364	-0.159	0.240
-97.859	-50.671	0.157	-0.073
-96.845	800.000	0.152	0.457
-95.830	-53.420	0.211	-0.096
-94.816	213.442	-0.071	0.112
-93.801	-57.869	0.123	0.053
-92.786	278.562	0.116	0.206
-91.772	357.123	0.180	0.357
-90.757	320.146	-0.103	-0.194
-89.743	-1.398	0.117	0.082
-88.728	-200.000	0.002	-0.061
-87.713	-56.422	0.280	0.123
-86.699	-3.809	-0.298	0.206
-85.684	-53.810	0.159	0.072
-84.670	-200.000	-0.024	0.234
-83.655	105.071	0.225	0.263
-82.640	-121.060	0.149	-0.025
-81.626	-38.250	0.154	-0.081
-80.611	800.000	0.070	0.194
-79.597	150.085	-0.209	0.281
-78.582	245.048	-0.036	-0.059
-77.567	-200.000	-0.046	0.278
-76.553	317.497	-0.069	0.129
-75.538	464.974	-0.042	0.093
-74.524	7.456	0.317	0.236
-73.509	57.544	0.183	0.178
-72.494	800.000	0.080	-0.302
-71.480	-200.000	0.006	0.108
-70.465	112.123	-0.082	0.098
-69.451	172.877	-0.140	-0.199
-68.436	-118.024	-0.245	0.044
-67.422	-25.898	-0.189	0.110
-66.407	800.000	-0.061	0.186
-65.392	48.649	-0.113	-0.105
-64.378	-134.987	0.199	0.024
-63.363	-98.985	0.336	0.085
-62.349	23.186	-0.090	-0.074
-61.334	3.822	-0.831	-0.603
-60.319	98.009	0.354	0.404
-59.305	-200.000	-0.213	-1.025
-58.290	66.341	0.626	0.631
-57.276	315.224	0.771	1.443
-56.261	-200.000	89.832	519.684
-55.246	482.988	1383.355	3119.710
-54.232	149.939	2580.237	3471.114
-53.217	114.754	2192.469	2651.694
-52.203	48.631	1645.009	1529.603
-51.188	40.732	1378.760	1233.183
-50.173	37.443	1335.833	1174.907
-49.159	56.894	1381.469	1334.954
-48.144	61.876	1399.712	1383.111
-47.130	41.242	1356.470	1216.171
-46.115	37.544	1338.804	1177.945
-45.100	37.103	1334.410	1171.371
-44.086	37.094	1332.255	1169.377
-43.071	37.246	1329.302	1167.650
-42.057	37.057	1327.850	1165.194
-41.042	37.221	1325.685	1164.231
-40.027	37.220	1324.271	1162.938
-39.013	37.196	1322.399	1161.105
-37.998	37.111	1320.719	1159.075
-36.984	37.357	1318.582	1158.622
-35.969	37.261	1316.960	1156.581
-34.954	37.318	1315.124	1155.260
-33.940	37.383	1313.815	1154.451
-32.925	37.366	1312.339	1153.007
-31.911	37.403	1310.838	1151.862
-30.896	37.331	1309.482	1150.198
-29.881	37.406	1307.978	1149.277
-28.867	37.521	1306.603	1148.701
-27.852	37.377	1305.320	1146.676
-26.838	37.416	1303.355	1145.134
-25.823	37.368	1302.011	1143.628
-24.809	37.329	1300.789	1142.279
-23.794	37.389	1299.635	1141.573
-22.779	37.405	1297.956	1140.148
-21.765	37.344	1296.361	1138.346
-20.750	37.303	1295.223	1137.057
-19.736	37.243	1293.938	1135.534
-18.721	37.135	1293.165	1134.181
-17.706	37.214	1291.739	1133.346
-16.692	37.212	1290.534	1132.233
-15.677	37.167	1289.564	1131.071
-14.663	37.290	1287.871	1130.261
-13.648	37.126	1287.018	1128.512
-12.633	37.233	1285.672	1127.911
-11.619	37.205	1285.300	1127.373
-10.604	37.306	1284.035	1126.804
-9.590	37.212	1283.200	1125.481
-8.575	37.185	1282.460	1124.633
-7.560	37.202	1281.251	1123.628
-6.546	37.206	1280.700	1123.124
-5.531	37.278	1279.569	1122.504
-4.517	37.215	1278.560	1121.210
-3.502	37.233	1277.849	1120.642
-2.487	37.208	1276.541	1119.311
-1.473	37.260	1272.535	1116.048
-0.458	35.521	1257.288	1092.752
0.556	29.635	1237.808	1047.532
1.571	25.266	1241.877	1025.962
2.586	24.101	1256.059	1030.847
3.600	23.550	1246.450	1019.708
4.615	21.713	1180.658	955.786
5.629	18.049	1111.190	880.623
6.644	15.866	1091.998	854.272
7.659	15.679	1089.428	851.237
8.673	15.627	1087.954	849.748
9.688	15.639	1086.583	848.662
10.702	15.771	1085.088	848.086
11.717	18.032	1087.366	861.202
12.731	20.510	1090.021	875.731
13.746	19.571	1087.927	869.245
14.761	17.829	1084.683	857.829
15.775	16.582	1082.635	849.870
16.790	15.414	1080.642	842.369
17.804	14.781	1078.242	837.254
18.819	14.236	1077.411	833.803
19.834	13.924	1076.510	831.474
20.848	13.603	1075.807	829.250
21.863	13.373	1074.557	827.063
22.877	13.279	1074.061	826.141
23.892	13.129	1073.515	824.897
24.907	13.301	1072.492	824.897
25.921	13.316	1071.339	824.009
26.936	13.331	1069.756	822.796
27.950	13.378	1068.611	822.073
28.965	13.502	1066.901	821.300
29.980	13.557	1065.298	820.268
30.994	13.518	1064.415	819.322
32.009	13.511	1062.972	818.103
33.023	13.440	1062.284	817.154
34.038	13.428	1061.383	816.327
35.053	13.413	1060.171	815.249
36.067	13.434	1059.316	814.622
37.082	13.439	1058.636	814.052
38.096	13.488	1058.136	813.836
39.111	13.437	1056.771	812.466
40.126	13.450	1055.642	811.587
41.140	13.290	1054.680	809.994
42.155	13.273	1053.490	808.927
43.169	13.223	1052.019	807.482
44.184	13.221	1051.216	806.783
45.199	13.138	1050.135	805.475
46.213	13.257	1049.202	805.268
47.228	13.336	1047.829	804.530
48.242	13.420	1046.474	803.827
49.257	13.306	1045.690	802.597
50.271	13.440	1044.846	802.531
51.286	13.377	1044.270	801.712
52.301	13.301	1043.468	800.657
53.315	13.437	1041.935	800.069
54.330	13.329	1040.566	798.421
55.344	13.253	1040.008	797.557
56.359	13.245	1039.189	796.823
57.374	13.259	1037.958	795.874
58.388	13.162	1037.747	795.174
59.403	13.208	1036.730	794.547
60.417	13.208	1035.948	793.877
61.432	13.296	1034.792	793.341
62.447	13.206	1033.916	792.172
63.461	13.140	1033.566	791.514
64.476	13.097	1032.587	790.491
65.490	13.117	1031.808	789.918
66.505	13.179	1031.165	789.654
67.520	13.214	1030.252	789.049
68.534	13.226	1029.668	788.589
69.549	13.178	1028.841	787.659
70.563	13.162	1028.125	786.963
71.578	13.048	1027.369	785.776
72.593	13.121	1026.593	785.459
73.607	13.052	1026.127	784.704
74.622	13.145	1025.344	784.479
75.636	13.166	1024.200	783.632
76.651	13.201	1023.570	783.247
77.666	13.017	1023.449	782.215
78.680	13.030	1022.169	781.225
79.695	13.051	1021.891	781.046
80.709	13.151	1021.432	781.099
81.724	13.168	1020.982	780.766
82.739	13.244	1019.750	780.115
83.753	13.367	1018.456	779.635
84.768	13.576	1017.632	779.919
85.782	13.603	1016.664	779.233
86.797	13.359	1016.380	777.802
87.812	13.401	1015.267	777.075
88.826	13.329	1014.025	775.719
89.841	13.350	1013.409	775.280
90.855	13.482	1012.493	775.127
91.870	13.435	1011.545	774.114
92.884	13.530	1010.499	773.689
93.899	13.514	1010.076	773.220
94.914	13.434	1009.644	772.448
95.928	13.555	1008.870	772.350
96.943	13.624	1007.277	771.383
97.957	13.556	1006.507	770.411
98.972	13.566	1005.214	769.401
99.987	13.518	1004.081	768.241
101.001	13.463	1003.620	767.566
102.016	13.488	1002.467	766.731
103.030	13.458	1001.910	766.100
104.045	13.484	1000.628	765.173
105.060	13.375	1000.283	764.336
106.074	13.296	999.398	763.229
107.089	13.333	998.437	762.599
108.103	13.307	997.332	761.565
109.118	13.385	996.314	761.082
110.133	13.206	995.926	759.894
111.147	13.161	994.867	758.809
112.162	13.219	993.918	758.284
113.176	13.283	992.957	757.781
114.191	13.462	992.171	757.930
115.206	13.383	991.447	756.952
116.220	13.401	990.587	756.308
117.235	13.357	989.372	755.113
118.249	13.392	989.015	754.934
119.264	13.252	988.591	753.904
120.279	13.267	987.836	753.331
121.293	13.409	986.320	752.755
122.308	13.326	985.280	751.518
123.322	13.189	985.216	750.780
124.337	13.338	983.785	750.298
125.352	13.302	982.587	749.155
126.366	13.348	981.385	748.381
127.381	13.298	980.415	747.347
128.395	13.346	979.474	746.781
129.410	13.282	978.907	745.994
130.424	13.269	978.053	745.219
131.439	13.450	977.159	745.288
132.454	13.382	976.426	744.358
133.468	13.560	975.249	744.194
134.483	13.409	975.108	743.342
135.497	13.507	973.564	742.538
136.512	13.457	972.955	741.785
137.527	13.363	972.250	740.761
138.541	13.555	971.523	741.002
139.556	13.519	970.513	740.003
140.570	13.485	969.967	739.367
141.585	13.634	968.717	739.017
142.600	13.678	968.046	738.636
143.614	13.561	967.455	737.599
144.629	13.608	966.959	737.361
145.643	13.592	965.989	736.488
146.658	13.568	964.640	735.286
147.673	13.500	963.992	734.427
148.687	13.498	962.939	733.549
149.702	13.496	962.131	732.861
150.716	13.456	961.479	732.125
151.731	13.367	960.949	731.259
152.746	13.473	960.178	731.077
153.760	13.519	959.281	730.531
154.775	13.574	958.664	730.241
155.789	13.647	958.029	730.014
156.804	13.651	957.148	729.295
157.819	13.638	956.599	728.754
158.833	13.668	956.257	728.561
159.848	13.679	955.379	727.876
160.862	13.642	954.314	726.841
161.877	13.680	953.479	726.305
162.892	13.619	952.537	725.255
163.906	13.532	951.978	724.387
164.921	13.679	950.498	723.840
165.935	13.607	950.178	723.214
166.950	13.547	949.295	722.219
167.964	13.600	948.149	721.512
168.979	13.542	947.290	720.545
169.994	13.525	946.633	719.907
171.008	13.711	945.562	719.837
172.023	13.733	944.899	719.364
173.037	13.787	944.257	719.044
174.052	13.804	943.384	718.391
175.067	13.636	942.681	717.064
176.081	13.625	942.506	716.819
177.096	13.768	941.721	716.775
178.110	13.672	941.568	716.182
179.125	13.674	940.438	715.268
180.140	13.709	939.910	714.953
181.154	13.803	939.348	714.869
182.169	13.933	939.226	715.273
183.183	13.925	938.464	714.595
184.198	13.922	937.297	713.630
185.213	13.936	936.499	713.020
186.227	13.928	936.211	712.702
187.242	13.893	935.909	712.260
188.256	14.096	934.807	712.225
189.271	14.076	934.153	711.579
190.286	13.831	933.117	709.679
191.300	13.627	932.860	708.549
192.315	13.707	931.946	708.135
193.329	13.881	931.574	708.530
194.344	13.816	930.686	707.515
195.359	13.791	930.037	706.855
196.373	13.944	929.730	707.212
197.388	14.180	928.880	707.505
198.402	14.163	928.883	707.372
199.417	14.229	928.029	706.942
200.432	14.318	927.131	706.571
201.446	14.225	927.018	706.028
202.461	14.034	926.873	705.045
203.475	14.178	926.057	704.970
204.490	14.141	925.140	704.053
205.504	14.037	924.513	703.074
206.519	14.096	923.729	702.665
207.534	14.113	923.152	702.235
208.548	14.219	921.971	701.721
209.563	14.175	921.315	700.977
210.577	14.246	920.981	700.960
211.592	14.294	920.335	700.605
212.607	14.356	919.599	700.247
213.621	14.416	918.583	699.662
214.636	14.359	917.816	698.776
215.650	14.225	917.395	697.834
216.665	14.527	916.435	698.307
217.680	14.285	916.228	697.074
218.694	14.465	915.291	697.051
219.709	14.422	914.528	696.228
220.723	14.287	914.118	695.289
221.738	14.300	913.300	694.660
222.753	14.368	912.832	694.526
223.767	14.422	912.295	694.284
224.782	14.390	911.753	693.677
225.796	14.540	911.149	693.780
226.811	14.681	910.249	693.616
227.826	14.511	909.581	692.340
228.840	14.540	908.646	691.688
229.855	14.404	907.979	690.555
230.869	14.491	907.407	690.419
231.884	14.567	906.411	689.916
232.899	14.526	905.600	689.068
233.913	14.392	905.301	688.227
234.928	14.444	904.631	687.871
235.942	14.536	903.833	687.584
236.957	14.453	903.880	687.213
237.972	14.491	902.743	686.445
238.986	14.458	902.120	685.775
240.001	14.526	901.539	685.554
241.015	14.492	901.205	685.101
242.030	14.585	900.380	684.793
243.045	14.572	899.561	684.056
244.059	14.709	898.694	683.899
245.074	14.643	898.437	683.372
246.088	14.589	897.749	682.568
247.103	14.606	897.268	682.210
248.117	14.530	897.318	681.876
249.132	14.819	896.147	682.108
250.147	14.797	895.710	681.625
251.161	15.001	894.605	681.554
252.176	15.048	893.945	681.181
253.190	15.097	892.946	680.561
254.205	14.915	893.084	679.865
255.220	14.932	892.142	679.158
256.234	14.997	891.201	678.641
257.249	15.069	890.564	678.391
258.263	15.106	889.810	677.904
259.278	15.142	888.711	677.154
260.293	15.131	888.772	677.096
261.307	15.144	888.200	676.651
262.322	15.105	887.525	675.922
263.336	15.191	886.637	675.532
264.351	15.161	886.053	674.908
265.366	15.303	885.545	675.032
266.380	15.131	885.159	673.983
267.395	15.077	884.354	673.095
268.409	15.190	883.521	672.856
269.424	15.241	882.687	672.366
270.439	15.156	882.225	671.613
271.453	15.260	881.613	671.507
272.468	15.104	881.032	670.377
273.482	15.276	880.609	670.685
274.497	15.152	880.137	669.771
275.512	15.275	879.166	669.464
276.526	15.415	878.660	669.576
277.541	15.407	878.153	669.102
278.555	15.377	877.431	668.373
279.570	15.281	877.245	667.788
280.585	15.374	876.188	667.296
281.599	15.459	875.138	666.773
282.614	15.333	874.836	665.984
283.628	15.412	874.333	665.855
284.643	15.298	873.749	664.900
285.657	15.468	873.123	665.038
286.672	15.598	871.866	664.536
287.687	15.408	871.725	663.619
288.701	15.329	871.237	662.877
289.716	15.469	870.677	662.945
290.730	15.487	870.057	662.484
291.745	15.437	869.181	661.563
292.760	15.584	868.764	661.764
293.774	15.505	868.161	660.936
294.789	15.573	867.475	660.622
295.803	15.601	866.534	659.960
296.818	15.589	865.844	659.326
297.833	15.515	865.722	658.887
298.847	15.546	865.044	658.434
299.862	15.641	864.398	658.253
300.876	15.715	863.784	658.020
301.891	15.747	863.271	657.693
302.906	15.737	862.744	657.197
303.920	15.926	862.009	657.316
304.935	15.866	861.411	656.567
305.949	15.792	860.763	655.728
306.964	15.823	860.170	655.339
307.979	15.913	859.499	655.119
308.993	15.931	859.045	654.784
310.008	15.957	858.527	654.434
311.022	15.908	857.857	653.673
312.037	15.893	857.295	653.131
313.052	15.854	856.514	652.326
314.066	15.845	856.008	651.847
315.081	15.769	855.782	651.326
316.095	15.771	854.771	650.503
317.110	15.840	854.322	650.372
318.125	15.941	853.861	650.354
319.139	15.814	853.546	649.568
320.154	15.762	852.783	648.726
321.168	15.896	852.392	648.888
322.183	15.940	851.780	648.536
323.197	15.949	851.406	648.230
324.212	15.842	851.096	647.523
325.227	16.036	849.784	647.214
326.241	15.962	849.628	646.753
327.256	15.852	849.170	645.926
328.270	15.921	848.429	645.567
329.285	15.986	847.707	645.209
330.300	16.022	847.168	644.881
331.314	15.938	846.966	644.348
332.329	16.013	846.178	643.978
333.343	16.029	845.723	643.637
334.358	16.142	845.444	643.796
335.373	16.080	845.126	643.262
336.387	16.218	844.779	643.470
337.402	16.147	844.476	642.909
338.416	16.173	844.082	642.653
339.431	16.211	843.972	642.657
340.446	16.195	843.349	642.063
341.460	16.367	842.516	642.027
342.475	16.370	842.249	641.776
343.489	16.235	842.165	641.146
344.504	16.378	841.518	641.139
345.519	16.608	840.679	641.314
346.533	16.533	840.108	640.539
347.548	16.427	839.974	639.979
348.562	16.305	839.432	639.046
349.577	16.357	838.741	638.661
350.592	16.299	838.227	637.993
351.606	16.260	837.552	637.275
352.621	16.361	836.855	637.068
353.635	16.296	836.140	636.224
354.650	16.409	835.783	636.323
355.665	16.360	835.385	635.777
356.679	16.393	834.279	635.005
357.694	16.337	833.862	634.421
358.708	16.440	833.189	634.238
359.723	16.455	832.352	633.602
360.738	16.516	832.056	633.547
361.752	16.492	831.522	632.996
362.767	16.559	830.686	632.553
363.781	16.590	830.663	632.595
364.796	16.634	829.771	632.025
365.810	16.796	829.269	632.193
366.825	16.771	829.193	631.983
367.840	16.700	828.865	631.415
368.854	16.672	828.076	630.653
369.869	16.772	827.572	630.587
370.883	16.677	827.285	629.957
371.898	16.703	827.204	629.936
372.913	16.802	826.537	629.739
373.927	16.752	825.859	628.982
374.942	16.856	825.314	628.898
375.956	16.980	825.162	629.187
376.971	17.013	824.648	628.862
377.986	17.099	823.793	628.472
379.000	17.111	823.407	628.167
380.015	17.044	823.037	627.580
381.029	17.105	822.271	627.168
382.044	16.977	822.075	626.487
383.059	17.000	821.346	625.961
384.073	17.006	820.647	625.398
385.088	16.926	820.101	624.629
386.102	16.881	819.771	624.159
387.117	16.976	818.871	623.769
388.132	17.011	818.441	623.511
389.146	17.102	817.687	623.219
390.161	17.104	817.754	623.221
391.175	17.080	817.172	622.634
392.190	17.164	816.274	622.203
393.205	17.073	816.051	621.645
394.219	17.084	815.603	621.287
395.234	16.954	815.600	620.757
396.248	16.958	814.845	620.139
397.263	17.109	814.268	620.199
398.278	16.945	814.103	619.418
399.292	17.128	813.443	619.527
400.307	17.076	813.212	619.109
401.321	17.019	812.871	618.586
402.336	17.097	812.027	618.173
403.350	17.210	811.665	618.254
404.365	17.268	811.312	618.141
405.380	17.124	810.863	617.223
406.394	17.337	810.303	617.514
407.409	17.290	809.934	617.009
408.423	17.269	809.632	616.646
409.438	17.350	809.288	616.624
410.453	17.564	808.539	616.772
411.467	17.463	808.167	616.071
412.482	17.446	807.766	615.650
413.496	17.595	807.536	615.957
414.511	17.459	807.313	615.240
415.526	17.463	807.020	614.977
416.540	17.618	805.695	614.471
417.555	17.565	805.235	613.878
418.569	17.515	805.348	613.727
419.584	17.617	804.648	613.507
420.599	17.646	804.249	613.253
421.613	100.278	1279.480	1423.090
422.628	86.078	1348.724	1423.213
