DTS Sentinel unit serial number:	SN413079Multiplexer serial number:	ORYXHardware model number:	OX4-SRSoftware version number:	ORYX F/W v4.00 Oryx Data Collector v3.7.2.0data status	okinstallation	princeton_trtdifferential loss correction	single-endedforward channel	channel 1reverse channel	N/Adate	2019/09/18time	14:14:35forward acquisition time	60.00reverse acquisition time	0.00gamma	496.2192k internal	0.2312k external	0.2312temperature offset calibration	0.9990default loss term (dB/km)	0.3790temperature slope calibration	1.0000multiplexer offset coefficient	1.0000multiplexer slope coefficient	1.0000fibre end	0.00T internal ref (°C)	34.36T ext. ref 1 (°C)	0.67T ext. ref 2 (°C)	29.26length (m)	temperature (°C)	Stokes	anti-Stokes-747.200	114.692	-0.030	-0.037
-746.185	-133.133	0.086	0.011
-745.171	800.000	0.059	-0.204
-744.156	-200.000	-0.029	0.250
-743.142	56.957	0.181	0.179
-742.127	-200.000	0.005	0.634
-741.112	-54.120	-0.200	0.092
-740.098	-42.835	-0.274	0.141
-739.083	-169.978	-0.093	-0.003
-738.069	50.107	0.272	0.260
-737.054	-52.484	-0.090	-0.042
-736.039	20.694	-0.307	-0.252
-735.025	-120.026	-0.083	0.014
-734.010	-87.696	-0.329	-0.101
-732.996	-119.625	-0.141	-0.025
-731.981	335.268	-0.114	0.225
-730.966	73.737	0.112	0.119
-729.952	800.000	-0.058	-0.182
-728.937	-25.402	-0.174	-0.104
-727.923	275.553	-0.252	0.453
-726.908	-39.600	-0.253	0.134
-725.894	-24.442	0.294	-0.178
-724.879	104.985	-0.162	-0.193
-723.864	-129.258	0.201	0.028
-722.850	64.775	0.193	-0.198
-721.835	-128.527	0.217	0.031
-720.821	800.000	-0.028	-0.093
-719.806	16.736	-0.182	-0.146
-718.791	-123.096	-0.171	0.028
-717.777	27.880	0.167	-0.143
-716.762	56.001	-0.118	-0.116
-715.748	-130.712	-0.303	0.041
-714.733	26.452	-0.105	-0.089
-713.718	-130.163	0.043	0.006
-712.704	-186.706	-0.123	-0.002
-711.689	-49.741	-0.113	-0.055
-710.675	-74.018	-0.223	-0.082
-709.660	-180.048	-0.039	0.001
-708.645	-127.855	0.101	-0.015
-707.631	-84.677	0.165	-0.052
-706.616	309.967	-0.107	-0.202
-705.602	-97.723	0.244	-0.064
-704.587	-63.427	-0.119	0.050
-703.572	-142.069	0.157	-0.016
-702.558	495.547	-0.093	-0.215
-701.543	800.000	0.081	0.270
-700.529	147.951	0.171	0.234
-699.514	800.000	-0.115	-0.366
-698.499	-20.533	-0.309	0.192
-697.485	606.542	0.030	-0.075
-696.470	236.999	0.106	-0.178
-695.456	-200.000	0.015	-0.260
-694.441	-105.638	0.454	0.104
-693.426	22.192	-0.117	-0.097
-692.412	36.508	-0.070	-0.063
-691.397	800.000	0.049	0.211
-690.383	-34.058	-0.229	0.127
-689.368	-200.000	0.047	0.222
-688.354	91.905	0.105	0.119
-687.339	-52.586	-0.206	-0.096
-686.324	-200.000	-0.005	0.257
-685.310	-200.000	0.045	0.211
-684.295	-200.000	-0.038	-0.186
-683.281	-200.000	0.006	0.045
-682.266	-85.484	0.064	-0.020
-681.251	236.686	-0.084	0.142
-680.237	-119.651	-0.382	0.067
-679.222	-51.184	0.371	0.176
-678.208	-161.556	-0.417	-0.022
-677.193	9.819	0.117	0.090
-676.178	-2.616	-0.297	-0.211
-675.164	-68.190	0.141	0.055
-674.149	97.846	-0.037	0.043
-673.135	-52.339	0.094	0.044
-672.120	80.715	-0.241	0.263
-671.105	-102.175	-0.080	-0.020
-670.091	101.851	-0.287	-0.338
-669.076	-110.880	0.285	0.059
-668.062	-31.764	-0.100	0.057
-667.047	-65.906	-0.414	0.167
-666.032	-15.107	-0.096	-0.062
-665.018	24.003	-0.174	-0.145
-664.003	187.558	-0.022	-0.033
-662.989	-127.990	-0.370	-0.054
-661.974	781.883	0.050	-0.137
-660.959	152.279	-0.179	-0.247
-659.945	67.828	-0.146	0.151
-658.930	-200.000	0.074	-0.339
-657.916	800.000	-0.108	-0.365
-656.901	45.186	-0.243	0.226
-655.886	153.533	0.203	0.281
-654.872	800.000	-0.086	-0.260
-653.857	504.252	0.086	-0.202
-652.843	4.841	-0.201	-0.149
-651.828	-72.517	0.376	-0.140
-650.814	215.526	-0.247	-0.396
-649.799	-200.000	-0.011	-0.150
-648.784	-50.364	-0.122	-0.058
-647.770	204.201	0.106	0.166
-646.755	-200.000	-0.061	-0.307
-645.741	-51.291	-0.202	0.096
-644.726	-200.000	-0.004	0.196
-643.711	-194.276	-0.413	-0.003
-642.697	800.000	0.054	-0.171
-641.682	-200.000	-0.027	-0.216
-640.668	-145.231	0.254	0.023
-639.653	124.266	-0.195	0.248
-638.638	-4.409	0.315	-0.220
-637.624	-13.779	-0.306	-0.200
-636.609	598.807	-0.204	-0.512
-635.595	301.443	0.133	0.249
-634.580	-29.963	0.241	-0.139
-633.565	-74.233	0.215	0.078
-632.551	-32.083	-0.200	0.113
-631.536	-44.402	0.084	0.042
-630.522	-200.000	0.009	0.089
-629.507	-24.535	0.215	-0.129
-628.492	-200.000	-0.004	-0.159
-627.478	-131.665	0.049	-0.007
-626.463	-66.549	-0.231	-0.093
-625.449	-75.595	0.229	-0.082
-624.434	-163.580	-0.402	-0.019
-623.419	334.695	0.105	-0.205
-622.405	800.000	-0.088	-0.351
-621.390	-185.353	0.046	-0.001
-620.376	-50.439	0.391	0.186
-619.361	128.687	-0.167	-0.215
-618.346	39.502	0.126	-0.114
-617.332	800.000	-0.024	-0.071
-616.317	-158.073	0.155	0.009
-615.303	-200.000	-0.070	-0.318
-614.288	-200.000	-0.072	0.350
-613.273	394.635	0.101	0.212
-612.259	219.634	-0.209	-0.337
-611.244	499.990	0.152	0.353
-610.230	800.000	-0.065	0.278
-609.215	-19.053	0.181	0.113
-608.201	19.312	-0.108	0.088
-607.186	-82.748	0.274	0.089
-606.171	-200.000	0.005	0.095
-605.157	89.607	-0.187	0.210
-604.142	800.000	-0.048	0.157
-603.128	-200.000	-0.039	-0.332
-602.113	151.972	-0.177	0.243
-601.098	71.676	-0.239	-0.251
-600.084	668.424	0.076	-0.198
-599.069	-158.880	-0.210	0.012
-598.055	109.685	0.136	-0.165
-597.040	-200.000	-0.004	-0.238
-596.025	126.830	0.173	-0.221
-595.011	22.411	0.152	0.126
-593.996	684.717	-0.101	0.266
-592.982	51.951	0.022	0.021
-591.967	-200.000	0.012	0.224
-590.952	26.527	-0.342	-0.289
-589.938	83.778	-0.117	0.129
-588.923	-93.953	0.362	0.100
-587.909	63.555	0.164	0.166
-586.894	-180.507	-0.315	0.007
-585.879	-11.342	0.349	-0.232
-584.865	800.000	-0.035	0.137
-583.850	-30.543	-0.130	0.074
-582.836	160.576	0.101	0.142
-581.821	-200.000	-0.020	0.183
-580.806	-22.192	-0.220	0.135
-579.792	82.686	-0.309	0.339
-578.777	-200.000	-0.035	-0.181
-577.763	3.380	0.312	0.229
-576.748	-200.000	0.008	-0.040
-575.733	183.850	-0.070	0.104
-574.719	-85.131	0.140	-0.044
-573.704	16.056	-0.164	-0.130
-572.690	-200.000	-0.000	0.183
-571.675	-90.418	-0.204	-0.060
-570.661	-132.367	0.200	0.026
-569.646	800.000	-0.028	-0.082
-568.631	-108.519	-0.210	-0.045
-567.617	-81.518	-0.242	0.080
-566.602	-200.000	-0.068	0.442
-565.588	800.000	-0.060	0.191
-564.573	339.562	-0.085	0.167
-563.558	-97.033	-0.091	-0.024
-562.544	29.072	0.031	-0.026
-561.529	104.438	-0.133	-0.158
-560.515	-57.503	-0.135	0.060
-559.500	4.609	-0.302	0.223
-558.485	-142.220	0.368	0.037
-557.471	800.000	-0.030	-0.119
-556.456	-200.000	-0.002	-0.030
-555.442	250.541	0.158	-0.271
-554.427	77.699	0.257	-0.276
-553.412	75.996	-0.103	0.109
-552.398	800.000	0.031	0.132
-551.383	172.729	0.143	0.208
-550.369	-2.397	0.161	-0.114
-549.354	-21.630	-0.236	-0.145
-548.339	-43.286	-0.123	0.062
-547.325	79.854	-0.319	0.345
-546.310	276.876	0.211	-0.377
-545.296	-151.778	-0.206	0.015
-544.281	-200.000	0.006	-0.278
-543.266	-200.000	-0.003	-0.210
-542.252	-69.823	-0.143	0.055
-541.237	81.479	-0.135	0.147
-540.223	800.000	0.124	0.405
-539.208	112.798	0.262	-0.319
-538.193	451.103	-0.042	0.092
-537.179	90.421	0.133	0.150
-536.164	-21.943	-0.277	0.169
-535.150	-200.000	-0.016	-0.140
-534.135	193.747	0.225	0.343
-533.121	-5.396	-0.259	0.179
-532.106	800.000	0.104	-0.314
-531.091	800.000	-0.059	0.235
-530.077	13.314	0.097	-0.076
-529.062	-34.070	0.267	0.148
-528.048	-200.000	-0.019	-0.316
-527.033	800.000	-0.071	-0.223
-526.018	586.155	-0.093	0.229
-525.004	252.587	-0.104	0.178
-523.989	-200.000	-0.019	-0.275
-522.975	-200.000	-0.008	-0.114
-521.960	-76.982	-0.351	0.123
-520.945	37.541	0.127	-0.113
-519.931	24.416	0.155	-0.129
-518.916	-200.000	-0.020	-0.106
-517.902	-122.781	0.044	-0.007
-516.887	-16.780	0.142	0.090
-515.872	800.000	0.136	0.394
-514.858	800.000	0.021	-0.060
-513.843	123.171	-0.133	-0.168
-512.829	-200.000	-0.020	-0.088
-511.814	-190.638	0.094	-0.001
-510.799	144.961	-0.241	-0.324
-509.785	-60.607	0.207	0.088
-508.770	-68.582	-0.199	0.078
-507.756	219.988	0.072	-0.116
-506.741	-59.208	-0.275	-0.119
-505.726	-8.191	0.327	-0.221
-504.712	-113.026	-0.214	0.043
-503.697	-200.000	-0.016	-0.211
-502.683	496.539	-0.060	0.140
-501.668	-154.899	0.272	0.018
-500.653	-82.382	0.210	0.069
-499.639	16.287	0.087	0.069
-498.624	91.885	-0.217	0.246
-497.610	396.710	-0.055	0.114
-496.595	-47.835	0.123	0.060
-495.581	-54.112	-0.080	-0.037
-494.566	-50.511	-0.260	0.123
-493.551	-200.000	-0.083	0.371
-492.537	40.435	0.337	0.305
-491.522	-119.145	0.061	-0.011
-490.508	-99.915	-0.220	-0.055
-489.493	318.074	-0.192	-0.364
-488.478	-200.000	-0.002	-0.194
-487.464	169.468	-0.140	-0.200
-486.449	-85.945	0.078	-0.024
-485.435	-50.030	-0.398	0.190
-484.420	487.170	-0.068	-0.157
-483.405	492.886	-0.021	0.048
-482.391	428.860	-0.051	-0.110
-481.376	-200.000	0.030	0.295
-480.362	-16.816	-0.061	0.039
-479.347	800.000	0.027	-0.080
-478.332	800.000	0.062	0.216
-477.318	8.448	-0.028	0.021
-476.303	-86.261	0.225	-0.069
-475.289	67.784	0.239	0.245
-474.274	-5.747	0.133	0.091
-473.259	-122.948	-0.247	-0.040
-472.245	253.379	-0.118	-0.203
-471.230	-116.067	-0.290	-0.054
-470.216	-200.000	0.018	-0.136
-469.201	84.006	-0.047	0.051
-468.186	126.911	-0.025	-0.032
-467.172	-119.794	-0.349	-0.060
-466.157	800.000	-0.037	0.121
-465.143	-200.000	-0.037	-0.166
-464.128	-37.780	0.063	0.034
-463.113	81.551	0.107	0.116
-462.099	-200.000	0.028	-0.301
-461.084	-68.942	0.221	-0.085
-460.070	-112.783	0.143	0.028
-459.055	-9.400	0.165	0.110
-458.040	325.539	0.216	-0.414
-457.026	-126.788	-0.321	-0.048
-456.011	-200.000	0.008	0.047
-454.997	277.959	-0.172	0.308
-453.982	-76.401	0.260	0.092
-452.968	-21.023	0.150	0.092
-451.953	60.102	-0.127	-0.125
-450.938	670.155	0.064	-0.166
-449.924	378.339	0.026	0.053
-448.909	-0.920	-0.160	0.113
-447.895	-200.000	0.233	-0.001
-446.880	-200.000	-0.025	0.128
-445.865	-200.000	0.033	0.369
-444.851	688.056	0.098	-0.258
-443.836	-200.000	-0.007	0.173
-442.822	667.802	0.055	0.142
-441.807	-200.000	0.037	-0.219
-440.792	42.970	0.133	0.122
-439.778	800.000	0.014	-0.047
-438.763	-184.170	-0.181	0.003
-437.749	51.978	0.189	0.181
-436.734	13.368	-0.243	0.189
-435.719	349.469	-0.126	0.250
-434.705	-43.884	0.059	0.030
-433.690	-149.001	-0.223	-0.018
-432.676	800.000	-0.051	-0.174
-431.661	-153.980	0.328	0.022
-430.646	32.504	0.121	0.104
-429.632	35.566	0.133	-0.117
-428.617	-200.000	0.022	-0.226
-427.603	-200.000	-0.052	-0.323
-426.588	-200.000	0.043	-0.301
-425.573	-164.794	-0.473	-0.021
-424.559	360.354	-0.176	-0.352
-423.544	800.000	-0.053	0.228
-422.530	349.546	-0.102	0.202
-421.515	769.223	0.089	-0.242
-420.500	660.816	0.098	0.254
-419.486	134.976	0.133	0.173
-418.471	124.716	-0.162	0.205
-417.457	-155.772	-0.124	-0.008
-416.442	-200.000	0.015	0.168
-415.428	-200.000	-0.046	0.313
-414.413	800.000	0.074	-0.229
-413.398	-28.496	-0.226	-0.130
-412.384	97.551	-0.093	0.107
-411.369	-167.674	0.111	0.004
-410.355	103.682	-0.119	-0.140
-409.340	-200.000	-0.015	-0.332
-408.325	-8.200	-0.221	0.149
-407.311	-200.000	0.020	0.166
-406.296	153.599	0.071	0.097
-405.282	-148.540	0.166	-0.014
-404.267	256.601	-0.213	-0.366
-403.252	-13.937	-0.334	-0.216
-402.238	-200.000	-0.010	0.305
-401.223	775.943	0.053	-0.144
-400.209	-114.128	-0.241	-0.047
-399.194	-105.356	0.115	0.026
-398.179	-105.073	-0.412	-0.094
-397.165	358.781	0.054	0.108
-396.150	-53.410	0.333	-0.153
-395.136	466.812	0.063	0.141
-394.121	-26.592	0.108	0.063
-393.106	800.000	-0.030	-0.086
-392.092	800.000	0.045	0.175
-391.077	107.358	0.130	0.155
-390.063	800.000	-0.057	-0.182
-389.048	8.773	-0.264	-0.199
-388.033	-31.720	0.111	-0.062
-387.019	-146.867	-0.051	0.004
-386.004	45.281	-0.118	-0.108
-384.990	-200.000	0.028	0.153
-383.975	-117.650	-0.186	0.034
-382.960	504.931	0.031	0.072
-381.946	210.434	0.029	0.045
-380.931	-200.000	-0.054	0.300
-379.917	-54.443	0.061	0.028
-378.902	-200.000	0.043	-0.248
-377.888	-200.000	-0.022	-0.137
-376.873	-7.967	-0.238	-0.161
-375.858	98.134	0.210	0.242
-374.844	220.721	0.102	-0.163
-373.829	359.105	0.152	-0.304
-372.815	-133.530	-0.048	-0.006
-371.800	-107.560	0.274	0.060
-370.785	390.003	-0.127	0.264
-369.771	18.173	0.175	0.140
-368.756	-132.797	0.119	-0.015
-367.742	-110.210	0.184	0.038
-366.727	34.388	-0.042	-0.037
-365.712	800.000	-0.018	0.055
-364.698	800.000	0.049	0.171
-363.683	59.364	0.041	-0.041
-362.669	-94.378	-0.357	-0.097
-361.654	187.813	-0.132	0.196
-360.639	-25.380	0.254	0.150
-359.625	134.430	0.103	0.133
-358.610	-157.119	-0.097	0.006
-357.596	-200.000	0.067	-0.414
-356.581	-200.000	-0.016	-0.178
-355.566	-200.000	-0.040	0.278
-354.552	800.000	0.041	-0.146
-353.537	-103.284	0.223	0.053
-352.523	-19.840	0.252	-0.155
-351.508	-28.658	0.082	-0.047
-350.493	-90.677	0.280	0.081
-349.479	-97.956	-0.107	-0.028
-348.464	238.568	-0.214	0.355
-347.450	785.646	0.053	0.147
-346.435	22.989	-0.124	-0.101
-345.420	-137.646	-0.182	-0.020
-344.406	-200.000	-0.073	-0.330
-343.391	-121.363	-0.546	0.091
-342.377	-200.000	-0.010	0.185
-341.362	-77.610	-0.113	0.039
-340.348	172.387	-0.095	-0.137
-339.333	-200.000	-0.015	0.214
-338.318	435.435	0.229	-0.498
-337.304	88.720	-0.290	0.322
-336.289	-92.060	0.166	-0.047
-335.275	-179.638	-0.368	-0.008
-334.260	800.000	-0.009	-0.033
-333.245	-32.268	0.174	0.097
-332.231	800.000	0.027	0.087
-331.216	155.116	-0.158	0.217
-330.202	-90.100	-0.200	0.058
-329.187	-200.000	-0.010	-0.238
-328.172	233.974	-0.139	0.229
-327.158	-6.669	-0.385	0.262
-326.143	800.000	-0.111	0.350
-325.129	-200.000	-0.036	-0.242
-324.114	-73.096	0.095	-0.035
-323.099	-200.000	-0.062	0.373
-322.085	600.749	-0.148	0.368
-321.070	-200.000	-0.031	-0.283
-320.056	-54.432	0.286	-0.129
-319.041	-54.294	0.199	-0.090
-318.026	-200.000	0.034	0.274
-317.012	-75.815	0.055	0.019
-315.997	-89.866	-0.096	0.028
-314.983	-200.000	-0.036	-0.230
-313.968	-40.387	0.318	-0.165
-312.953	-200.000	0.043	0.381
-311.939	134.174	0.091	-0.117
-310.924	-16.495	0.152	-0.096
-309.910	6.294	-0.274	-0.203
-308.895	48.556	-0.287	-0.268
-307.880	34.110	0.116	0.100
-306.866	592.622	0.126	0.310
-305.851	-9.464	-0.144	-0.096
-304.837	800.000	-0.006	0.021
-303.822	323.695	0.085	-0.161
-302.807	-153.271	-0.140	-0.010
-301.793	-200.000	0.059	0.263
-300.778	87.404	0.110	0.121
-299.764	-193.331	0.125	-0.001
-298.749	146.800	-0.194	0.260
-297.735	800.000	0.102	-0.387
-296.720	-200.000	-0.009	-0.187
-295.705	257.718	0.047	0.081
-294.691	-35.678	0.397	0.215
-293.676	-100.904	-0.073	0.018
-292.662	-18.214	0.262	-0.163
-291.647	-200.000	0.023	0.193
-290.632	0.572	0.139	-0.099
-289.618	800.000	0.034	0.125
-288.603	7.266	0.191	0.142
-287.589	-54.484	-0.271	0.122
-286.574	-111.004	0.235	-0.048
-285.559	79.073	-0.205	-0.219
-284.545	-4.201	0.333	0.230
-283.530	748.784	-0.088	0.236
-282.516	175.915	0.081	0.117
-281.501	-200.000	0.003	0.255
-280.486	215.739	-0.112	-0.177
-279.472	800.000	0.062	-0.195
-278.457	588.850	0.155	-0.380
-277.443	367.574	0.081	-0.163
-276.428	55.324	0.229	-0.221
-275.413	-129.669	0.119	0.016
-274.399	800.000	0.084	-0.238
-273.384	248.533	-0.106	-0.178
-272.370	-132.674	-0.063	0.008
-271.355	800.000	0.066	0.217
-270.340	607.066	-0.041	-0.101
-269.326	599.529	-0.086	-0.212
-268.311	800.000	0.051	-0.215
-267.297	60.172	0.338	-0.333
-266.282	-90.223	0.281	0.081
-265.267	-157.637	-0.367	0.022
-264.253	800.000	-0.056	-0.186
-263.238	203.831	0.094	-0.145
-262.224	-127.575	0.180	0.026
-261.209	-90.603	0.364	-0.105
-260.195	9.644	0.118	-0.089
-259.180	-106.353	0.343	-0.076
-258.165	-1.669	0.087	0.061
-257.151	-94.775	0.222	-0.060
-256.136	-200.000	0.002	0.354
-255.122	26.179	0.164	-0.136
-254.107	-26.695	0.071	-0.041
-253.092	-31.018	-0.066	-0.037
-252.078	-100.334	-0.297	-0.073
-251.063	-128.903	-0.346	0.048
-250.049	-62.019	-0.108	-0.045
-249.034	11.485	-0.077	-0.059
-248.019	17.312	-0.084	0.066
-247.005	42.807	0.065	0.059
-245.990	-7.525	0.078	-0.053
-244.976	-44.167	0.280	0.140
-243.961	-12.960	-0.083	-0.054
-242.946	-133.508	-0.495	-0.062
-241.932	-46.882	0.350	-0.170
-240.917	-162.408	-0.171	0.008
-239.903	-134.270	-0.334	-0.041
-238.888	209.928	-0.093	0.145
-237.873	-46.923	0.328	0.160
-236.859	99.512	-0.179	0.206
-235.844	150.896	-0.152	0.205
-234.830	-62.447	0.028	-0.012
-233.815	-200.000	-0.063	0.282
-232.800	-200.000	0.047	0.258
-231.786	-181.804	0.069	-0.001
-230.771	-200.000	0.093	-0.556
-229.757	800.000	0.017	-0.055
-228.742	92.857	-0.106	-0.119
-227.727	-49.809	0.221	-0.104
-226.713	-200.000	-0.054	0.273
-225.698	-140.666	-0.275	-0.028
-224.684	-153.939	0.115	-0.008
-223.669	185.445	-0.033	0.048
-222.655	429.973	0.164	0.352
-221.640	161.398	0.190	-0.264
-220.625	-142.284	-0.467	0.046
-219.611	35.732	-0.160	-0.140
-218.596	-0.300	-0.072	0.051
-217.582	800.000	0.022	0.094
-216.567	283.972	0.187	0.334
-215.552	-200.000	0.020	-0.119
-214.538	800.000	0.081	-0.334
-213.523	-200.000	0.035	-0.360
-212.509	-200.000	-0.005	0.201
-211.494	88.659	0.024	-0.026
-210.479	800.000	0.031	0.132
-209.465	-200.000	0.053	0.248
-208.450	197.269	-0.204	-0.309
-207.436	151.903	0.162	-0.220
-206.421	-124.493	0.230	-0.036
-205.406	301.888	-0.081	-0.149
-204.392	10.406	0.188	-0.142
-203.377	-200.000	-0.040	-0.223
-202.363	37.476	0.066	0.058
-201.348	800.000	0.032	0.109
-200.333	-200.000	-0.006	0.145
-199.319	800.000	-0.086	-0.237
-198.304	-196.960	0.269	0.002
-197.290	11.641	0.072	-0.055
-196.275	-117.803	-0.348	0.062
-195.260	800.000	0.091	-0.315
-194.246	-100.528	-0.220	-0.054
-193.231	569.546	0.057	0.138
-192.217	-81.741	0.263	0.086
-191.202	13.560	-0.115	0.089
-190.187	614.031	0.029	-0.073
-189.173	-91.287	0.298	0.085
-188.158	-80.093	0.212	0.071
-187.144	-84.375	-0.109	-0.034
-186.129	-13.197	0.508	0.328
-185.114	-95.641	0.258	0.069
-184.100	-200.000	-0.013	-0.254
-183.085	800.000	0.073	-0.228
-182.071	159.479	0.126	-0.174
-181.056	118.464	-0.143	-0.176
-180.042	560.561	-0.067	0.162
-179.027	48.447	-0.154	-0.143
-178.012	394.841	0.040	-0.083
-176.998	-77.482	0.234	0.081
-175.983	-144.893	0.308	-0.028
-174.969	800.000	-0.005	-0.013
-173.954	-200.000	-0.016	0.137
-172.939	89.744	0.134	-0.148
-171.925	-76.042	-0.262	-0.092
-170.910	-94.959	-0.256	0.069
-169.896	-200.000	0.001	-0.145
-168.881	-88.648	-0.170	-0.050
-167.866	-73.434	0.348	0.126
-166.852	-122.289	0.244	0.040
-165.837	800.000	0.023	0.064
-164.823	638.960	-0.112	0.284
-163.808	-200.000	-0.002	-0.133
-162.793	158.372	0.062	0.085
-161.779	-28.345	-0.238	-0.136
-160.764	-200.000	0.011	0.064
-159.750	11.384	0.169	0.128
-158.735	-200.000	-0.004	-0.042
-157.720	15.001	0.113	-0.088
-156.706	-111.575	-0.334	0.067
-155.691	-200.000	-0.028	0.281
-154.677	800.000	0.073	0.215
-153.662	-61.854	0.285	0.118
-152.647	-105.580	-0.308	0.069
-151.633	800.000	0.085	-0.297
-150.618	-200.000	0.025	-0.152
-149.604	101.325	0.057	0.066
-148.589	427.695	0.049	0.105
-147.574	-142.788	0.125	-0.012
-146.560	800.000	0.050	-0.188
-145.545	800.000	0.114	-0.355
-144.531	-200.000	-0.007	-0.086
-143.516	325.029	0.088	-0.166
-142.502	-0.773	0.207	0.145
-141.487	358.375	0.059	-0.118
-140.472	90.460	-0.141	-0.157
-139.458	119.234	0.021	-0.026
-138.443	-152.760	-0.041	0.003
-137.429	-40.428	0.365	-0.188
-136.414	-200.000	0.054	-0.314
-135.399	-111.080	0.386	-0.078
-134.385	118.735	-0.130	0.160
-133.370	-194.486	0.325	-0.003
-132.356	236.851	0.047	-0.077
-131.341	-200.000	-0.047	0.303
-130.326	520.258	0.220	0.510
-129.312	-162.774	-0.168	0.008
-128.297	-88.484	-0.259	-0.077
-127.283	800.000	-0.040	-0.131
-126.268	-84.519	-0.280	-0.088
-125.253	-200.000	0.013	-0.248
-124.239	-200.000	-0.007	-0.317
-123.224	50.818	-0.147	-0.137
-122.210	50.727	-0.107	-0.101
-121.195	58.489	0.152	-0.148
-120.180	-200.000	-0.092	0.000
-119.166	-179.292	0.201	0.004
-118.151	-200.000	0.027	0.239
-117.137	98.778	0.136	-0.155
-116.122	249.700	0.209	-0.352
-115.107	-50.439	0.297	-0.139
-114.093	107.459	-0.133	0.157
-113.078	-13.901	-0.368	-0.236
-112.064	588.366	0.075	-0.183
-111.049	14.236	0.113	-0.087
-110.034	-90.854	-0.277	0.079
-109.020	471.435	0.052	0.117
-108.005	-6.731	-0.110	0.074
-106.991	800.000	0.091	0.327
-105.976	-75.083	-0.243	-0.086
-104.962	248.037	0.076	-0.127
-103.947	629.402	0.052	0.130
-102.932	109.483	-0.171	-0.202
-101.918	800.000	0.200	0.561
-100.903	582.111	-0.132	0.321
-99.889	800.000	-0.023	-0.100
-98.874	80.812	-0.115	-0.123
-97.859	-200.000	-0.101	0.553
-96.845	82.127	-0.088	-0.094
-95.830	-42.189	0.060	-0.030
-94.816	-87.977	-0.142	-0.042
-93.801	159.864	-0.261	0.359
-92.786	136.170	0.165	0.212
-91.772	62.997	0.103	0.102
-90.757	-121.873	-0.301	0.049
-89.743	-55.678	-0.346	-0.153
-88.728	800.000	-0.057	-0.201
-87.713	-200.000	-0.061	-0.297
-86.699	-37.887	0.096	-0.051
-85.684	-17.964	0.072	0.045
-84.670	38.496	-0.327	-0.289
-83.655	800.000	0.017	0.060
-82.640	-200.000	0.038	0.191
-81.626	800.000	-0.109	0.337
-80.611	72.337	-0.157	-0.162
-79.597	-200.000	-0.066	-0.357
-78.582	39.902	-0.270	-0.240
-77.567	-200.000	0.008	0.189
-76.553	173.660	0.155	0.221
-75.538	-200.000	-0.011	-0.089
-74.524	-4.380	0.131	0.089
-73.509	-77.483	0.320	0.110
-72.494	-20.081	0.155	0.095
-71.480	-200.000	0.019	0.187
-70.465	-200.000	-0.079	-0.374
-69.451	-63.287	0.358	-0.146
-68.436	151.571	-0.203	-0.273
-67.422	-117.249	-0.189	-0.034
-66.407	56.282	0.217	0.209
-65.392	-174.055	0.186	0.005
-64.378	13.368	0.257	-0.196
-63.363	-169.294	-0.099	0.004
-62.349	-200.000	0.000	-0.038
-61.334	292.453	-0.704	-1.268
-60.319	111.437	0.278	0.331
-59.305	644.313	-0.427	-1.075
-58.290	800.000	0.252	0.824
-57.276	800.000	0.404	1.509
-56.261	-200.000	95.731	548.999
-55.246	500.449	1420.633	3236.665
-54.232	146.462	2637.665	3497.927
-53.217	110.322	2213.449	2625.675
-52.203	45.761	1656.229	1511.842
-51.188	37.675	1388.369	1217.008
-50.173	34.491	1346.045	1160.530
-49.159	54.788	1392.919	1326.967
-48.144	58.332	1410.571	1365.646
-47.130	37.997	1367.102	1200.155
-46.115	34.469	1349.358	1163.065
-45.100	34.417	1344.343	1158.378
-44.086	34.389	1341.852	1156.016
-43.071	34.263	1339.605	1153.276
-42.057	34.131	1337.923	1150.980
-41.042	34.139	1336.110	1149.427
-40.027	34.285	1334.543	1148.913
-39.013	34.357	1332.578	1147.608
-37.998	34.291	1330.725	1145.571
-36.984	34.343	1328.902	1144.266
-35.969	34.352	1327.168	1142.780
-34.954	34.437	1325.458	1141.776
-33.940	34.421	1324.098	1140.463
-32.925	34.406	1322.922	1139.310
-31.911	34.485	1321.430	1138.453
-30.896	34.426	1319.969	1136.798
-29.881	34.547	1318.500	1136.209
-28.867	34.462	1317.519	1134.814
-27.852	34.433	1315.906	1133.204
-26.838	34.512	1313.928	1131.926
-25.823	34.480	1313.048	1130.937
-24.809	34.454	1311.592	1129.482
-23.794	34.448	1310.447	1128.416
-22.779	34.461	1308.860	1127.080
-21.765	34.346	1308.153	1125.749
-20.750	34.400	1306.463	1124.568
-19.736	34.304	1305.474	1123.104
-18.721	34.229	1304.120	1121.456
-17.706	34.318	1302.406	1120.458
-16.692	34.217	1301.800	1119.299
-15.677	34.316	1300.265	1118.514
-14.663	34.372	1299.108	1117.803
-13.648	34.319	1298.059	1116.546
-12.633	34.262	1296.848	1115.125
-11.619	34.269	1295.927	1114.332
-10.604	34.188	1295.378	1113.344
-9.590	34.296	1294.060	1112.795
-8.575	34.434	1292.941	1112.595
-7.560	34.356	1292.168	1111.431
-6.546	34.286	1291.247	1110.188
-5.531	34.230	1290.787	1109.420
-4.517	34.247	1290.005	1108.801
-3.502	34.354	1288.671	1108.239
-2.487	34.199	1288.400	1107.056
-1.473	34.215	1284.191	1103.492
-0.458	32.843	1268.504	1082.105
0.556	27.378	1250.025	1037.970
1.571	22.963	1255.019	1016.686
2.586	21.318	1269.937	1019.095
3.600	20.305	1259.351	1004.651
4.615	15.160	1183.316	915.853
5.629	5.737	1103.636	805.855
6.644	0.968	1081.854	765.800
7.659	0.623	1079.082	762.033
8.673	0.521	1078.349	760.934
9.688	0.579	1077.209	760.352
10.702	0.796	1075.176	759.941
11.717	6.055	1082.724	791.765
12.731	14.482	1093.618	842.406
13.746	17.737	1097.035	861.431
14.761	17.325	1096.253	858.663
15.775	16.480	1094.178	852.701
16.790	15.389	1092.232	845.610
17.804	14.891	1090.169	841.434
18.819	14.421	1089.573	838.536
19.834	14.010	1088.561	835.614
20.848	13.885	1087.388	834.016
21.863	13.680	1086.175	831.982
22.877	13.436	1086.058	830.592
23.892	13.453	1084.979	829.781
24.907	13.396	1084.513	829.065
25.921	13.506	1083.554	828.811
26.936	13.472	1083.023	828.161
27.950	13.440	1081.585	826.829
28.965	13.532	1080.330	826.251
29.980	13.617	1079.294	825.814
30.994	13.682	1077.762	824.891
32.009	13.653	1076.539	823.738
33.023	13.633	1076.168	823.281
34.038	13.618	1074.934	822.187
35.053	13.632	1074.117	821.559
36.067	13.590	1073.109	820.509
37.082	13.639	1072.320	820.077
38.096	13.636	1071.600	819.437
39.111	13.661	1070.630	818.748
40.126	13.614	1069.682	817.717
41.140	13.509	1068.391	816.141
42.155	13.500	1067.174	815.095
43.169	13.505	1066.260	814.350
44.184	13.387	1065.426	813.058
45.199	13.355	1064.588	812.193
46.213	13.498	1062.941	811.563
47.228	13.455	1062.370	810.847
48.242	13.593	1060.388	809.934
49.257	13.473	1059.983	808.970
50.271	13.475	1059.410	808.469
51.286	13.521	1058.393	807.848
52.301	13.566	1057.329	807.181
53.315	13.535	1055.995	805.940
54.330	13.553	1054.864	805.093
55.344	13.522	1054.535	804.619
56.359	13.507	1053.225	803.479
57.374	13.486	1052.670	802.882
58.388	13.420	1051.796	801.825
59.403	13.377	1050.832	800.812
60.417	13.348	1049.961	799.934
61.432	13.479	1048.991	799.759
62.447	13.290	1048.382	798.311
63.461	13.367	1047.632	798.040
64.476	13.445	1046.162	797.224
65.490	13.302	1045.921	796.285
66.505	13.415	1045.290	796.275
67.520	13.360	1044.810	795.576
68.534	13.431	1043.884	795.140
69.549	13.573	1042.519	794.715
70.563	13.432	1042.208	793.730
71.578	13.449	1041.335	793.077
72.593	13.376	1040.552	792.058
73.607	13.525	1039.658	792.023
74.622	13.390	1039.087	790.869
75.636	13.349	1038.755	790.351
76.651	13.357	1037.673	789.497
77.666	13.316	1037.736	789.280
78.680	13.255	1036.752	788.172
79.695	13.345	1036.033	787.984
80.709	13.411	1035.360	787.714
81.724	13.360	1034.717	786.914
82.739	13.341	1034.069	786.260
83.753	13.577	1032.806	786.353
84.768	13.603	1031.781	785.626
85.782	13.646	1030.580	784.846
86.797	13.587	1029.923	783.994
87.812	13.428	1029.719	783.017
88.826	13.616	1027.959	782.499
89.841	13.476	1027.266	781.242
90.855	13.635	1026.372	781.244
91.870	13.729	1025.254	780.766
92.884	13.661	1024.496	779.799
93.899	13.731	1023.649	779.416
94.914	13.675	1023.051	778.629
95.928	13.679	1022.044	777.809
96.943	13.687	1021.199	777.136
97.957	13.682	1020.248	776.318
98.972	13.735	1019.400	775.855
99.987	13.615	1018.602	774.618
101.001	13.760	1017.376	774.292
102.016	13.682	1016.775	773.404
103.030	13.611	1016.086	772.481
104.045	13.727	1014.921	772.066
105.060	13.603	1014.645	771.209
106.074	13.518	1013.734	770.053
107.089	13.506	1012.783	769.209
108.103	13.584	1011.236	768.329
109.118	13.601	1010.229	767.573
110.133	13.691	1009.591	767.437
111.147	13.540	1008.417	765.780
112.162	13.558	1007.825	765.343
113.176	13.530	1007.242	764.703
114.191	13.673	1006.479	764.717
115.206	13.562	1005.908	763.704
116.220	13.571	1004.838	762.864
117.235	13.562	1003.638	761.848
118.249	13.642	1002.949	761.622
119.264	13.630	1001.874	760.682
120.279	13.622	1001.284	760.132
121.293	13.586	1000.841	759.564
122.308	13.561	999.877	758.650
123.322	13.556	998.514	757.525
124.337	13.620	997.874	757.264
125.352	13.566	996.595	755.983
126.366	13.470	995.747	754.835
127.381	13.472	994.788	754.050
128.395	13.626	993.974	754.065
129.410	13.705	992.588	753.308
130.424	13.647	991.822	752.396
131.439	13.677	991.161	751.962
132.454	13.752	990.416	751.673
133.468	13.720	989.470	750.743
134.483	13.655	988.693	749.793
135.497	13.650	987.666	748.925
136.512	13.761	986.487	748.467
137.527	13.695	985.811	747.592
138.541	13.821	984.993	747.472
139.556	13.782	984.151	746.588
140.570	13.764	983.626	746.045
141.585	13.785	982.753	745.411
142.600	13.853	981.852	744.967
143.614	13.855	981.285	744.480
144.629	13.933	980.235	743.966
145.643	13.829	979.379	742.786
146.658	13.805	978.389	741.863
147.673	13.834	977.006	740.878
148.687	13.699	976.589	739.891
149.702	13.739	975.589	739.250
150.716	13.807	974.577	738.717
151.731	13.747	974.314	738.187
152.746	13.751	973.814	737.762
153.760	13.825	972.573	737.086
154.775	13.890	972.084	736.935
155.789	13.885	971.589	736.475
156.804	13.847	970.705	735.570
157.819	13.872	969.994	735.079
158.833	13.890	969.279	734.552
159.848	13.962	968.544	734.246
160.862	13.946	967.753	733.510
161.877	13.867	966.849	732.414
162.892	13.811	965.738	731.259
163.906	13.771	965.111	730.545
164.921	13.924	964.164	730.436
165.935	13.899	963.144	729.487
166.950	13.880	962.506	728.857
167.964	13.971	961.472	728.409
168.979	13.834	960.494	727.003
169.994	13.918	959.508	726.558
171.008	13.953	958.755	726.077
172.023	13.968	958.130	725.607
173.037	14.053	957.423	725.377
174.052	13.983	956.761	724.507
175.067	14.004	955.989	723.949
176.081	14.083	955.381	723.769
177.096	13.909	955.075	722.715
178.110	14.117	954.028	722.762
179.125	13.977	953.681	721.830
180.140	14.106	953.027	721.827
181.154	14.133	952.820	721.726
182.169	14.054	952.242	720.880
183.183	14.051	951.470	720.220
184.198	14.162	950.885	720.195
185.213	14.046	950.217	719.121
186.227	14.249	949.244	719.198
187.242	14.192	948.883	718.616
188.256	14.271	948.146	718.338
189.271	14.165	947.363	717.221
190.286	14.137	946.731	716.559
191.300	14.165	945.628	715.781
192.315	14.114	945.187	715.167
193.329	14.007	945.058	714.546
194.344	14.153	943.925	714.252
195.359	14.226	943.163	713.924
196.373	14.202	942.535	713.285
197.388	14.265	942.264	713.285
198.402	14.255	942.016	712.990
199.417	14.470	940.653	712.814
200.432	14.445	940.400	712.455
201.446	14.603	939.717	712.550
202.461	14.498	939.608	711.953
203.475	14.486	938.534	711.027
204.490	14.350	937.944	709.938
205.504	14.460	937.179	709.765
206.519	14.435	936.345	708.965
207.534	14.405	935.722	708.299
208.548	14.438	935.001	707.832
209.563	14.520	934.395	707.661
210.577	14.470	933.461	706.679
211.592	14.488	933.244	706.527
212.607	14.613	932.291	706.272
213.621	14.645	931.160	705.490
214.636	14.585	930.774	704.880
215.650	14.565	930.154	704.265
216.665	14.678	929.340	704.061
217.680	14.674	928.638	703.449
218.694	14.740	927.992	703.176
219.709	14.705	927.287	702.435
220.723	14.654	926.474	701.539
221.738	14.640	926.162	701.183
222.753	14.779	925.196	700.974
223.767	14.819	924.646	700.663
224.782	14.790	924.325	700.237
225.796	14.829	923.917	700.027
226.811	14.740	923.194	699.047
227.826	14.775	922.312	698.463
228.840	14.768	921.459	697.725
229.855	14.803	920.403	697.008
230.869	14.884	919.733	696.779
231.884	14.764	919.222	695.828
232.899	14.868	918.242	695.460
233.913	14.760	917.640	694.493
234.928	14.782	916.652	693.777
235.942	14.853	916.606	693.974
236.957	14.807	915.942	693.217
237.972	14.720	915.270	692.290
238.986	14.859	914.773	692.424
240.001	14.789	913.904	691.420
241.015	14.827	913.368	691.107
242.030	14.987	912.865	691.329
243.045	14.992	911.977	690.613
244.059	14.923	911.622	690.001
245.074	14.960	910.883	689.533
246.088	14.912	910.292	688.826
247.103	15.065	909.365	688.692
248.117	14.895	909.345	687.919
249.132	15.106	908.471	688.062
250.147	15.013	907.889	687.179
251.161	15.254	906.775	687.264
252.176	15.126	906.601	686.546
253.190	15.263	905.491	686.206
254.205	15.310	905.044	685.998
255.220	15.237	904.799	685.454
256.234	15.268	903.853	684.803
257.249	15.215	903.211	684.042
258.263	15.261	902.309	683.482
259.278	15.418	901.292	683.291
260.293	15.286	901.208	682.632
261.307	15.433	900.406	682.562
262.322	15.301	900.305	681.888
263.336	15.419	898.972	681.296
264.351	15.490	898.419	681.103
265.366	15.458	898.104	680.677
266.380	15.563	897.340	680.464
267.395	15.599	896.657	680.028
268.409	15.471	895.814	678.814
269.424	15.532	894.963	678.354
270.439	15.675	894.043	678.174
271.453	15.429	893.807	676.943
272.468	15.434	893.127	676.387
273.482	15.474	892.547	676.049
274.497	15.486	892.089	675.690
275.512	15.440	891.697	675.149
276.526	15.570	891.259	675.281
277.541	15.688	890.270	674.946
278.555	15.743	889.720	674.690
279.570	15.726	888.837	673.894
280.585	15.649	888.404	673.195
281.599	15.704	887.331	672.545
282.614	15.624	886.796	671.757
283.628	15.725	886.090	671.567
284.643	15.668	885.790	671.051
285.657	15.588	885.368	670.353
286.672	15.715	884.884	670.436
287.687	15.730	883.726	669.558
288.701	15.907	882.911	669.585
289.716	15.882	882.277	668.947
290.730	15.694	882.390	668.227
291.745	15.671	881.417	667.340
292.760	15.870	880.860	667.647
293.774	16.015	880.196	667.660
294.789	15.976	879.588	666.984
295.803	15.921	878.847	666.144
296.818	16.088	878.131	666.203
297.833	15.821	877.633	664.714
298.847	15.805	876.678	663.866
299.862	15.986	876.080	664.069
300.876	15.928	875.677	663.475
301.891	16.000	874.851	663.074
302.906	16.011	874.627	662.891
303.920	16.084	873.997	662.640
304.935	16.036	873.585	662.084
305.949	16.208	872.639	661.982
306.964	16.126	871.978	661.101
307.979	16.148	871.281	660.598
308.993	16.139	870.981	660.278
310.008	16.180	870.254	659.829
311.022	16.166	869.911	659.456
312.037	16.153	869.162	658.779
313.052	16.213	868.643	658.560
314.066	16.199	868.312	658.196
315.081	16.259	867.336	657.632
316.095	16.163	866.607	656.648
317.110	16.187	866.430	656.549
318.125	16.169	866.291	656.317
319.139	16.118	865.245	655.267
320.154	16.199	864.753	655.152
321.168	16.276	864.257	655.015
322.183	16.270	863.497	654.357
323.197	16.421	862.828	654.379
324.212	16.271	862.783	653.705
325.227	16.304	861.953	653.149
326.241	16.285	861.119	652.385
327.256	16.285	860.998	652.236
328.270	16.311	860.327	651.770
329.285	16.325	859.747	651.327
330.300	16.262	859.063	650.506
331.314	16.252	858.562	650.034
332.329	16.343	857.887	649.814
333.343	16.318	857.527	649.387
334.358	16.369	856.932	649.076
335.373	16.411	856.681	648.990
336.387	16.475	856.484	649.026
337.402	16.609	856.143	649.227
338.416	16.579	855.701	648.717
339.431	16.482	855.512	648.148
340.446	16.545	854.509	647.570
341.460	16.461	854.640	647.290
342.475	16.680	854.125	647.679
343.489	16.500	853.917	646.777
344.504	16.784	852.600	646.806
345.519	16.571	852.606	645.941
346.533	16.744	851.711	645.867
347.548	16.509	851.584	644.816
348.562	16.730	850.815	645.017
349.577	16.690	850.451	644.533
350.592	16.573	849.910	643.620
351.606	16.640	848.981	643.116
352.621	16.600	848.548	642.578
353.635	16.700	847.653	642.222
354.650	16.749	847.245	642.044
355.665	16.759	846.299	641.308
356.679	16.622	846.277	640.713
357.694	16.724	845.171	640.206
358.708	16.765	844.497	639.794
359.723	16.861	844.001	639.726
360.738	16.888	843.335	639.264
361.752	16.817	842.932	638.634
362.767	17.096	841.942	638.878
363.781	16.905	841.771	637.974
364.796	16.956	841.194	637.671
365.810	16.952	840.968	637.430
366.825	17.081	840.473	637.483
367.840	16.972	840.192	636.804
368.854	17.021	839.686	636.547
369.869	16.949	839.525	636.098
370.883	16.954	838.830	635.534
371.898	17.196	838.214	635.918
372.913	17.183	837.872	635.554
373.927	17.198	837.506	635.275
374.942	17.156	836.922	634.618
375.956	17.136	836.618	634.257
376.971	17.236	836.213	634.267
377.986	17.180	835.434	633.412
379.000	17.323	834.952	633.524
380.015	17.199	834.547	632.698
381.029	17.292	833.977	632.557
382.044	17.329	833.203	632.050
383.059	17.355	832.779	631.771
384.073	17.314	832.346	631.234
385.088	17.225	831.311	630.063
386.102	17.186	830.959	629.596
387.117	17.327	830.649	629.827
388.132	17.298	830.097	629.244
389.146	17.385	829.201	628.831
390.161	17.404	828.872	628.598
391.175	17.591	828.195	628.718
392.190	17.320	827.760	627.332
393.205	17.285	827.272	626.780
394.219	17.258	827.296	626.643
395.234	17.332	826.615	626.345
396.248	17.339	826.119	625.936
397.263	17.478	825.818	626.164
398.278	17.435	825.615	625.799
399.292	17.597	824.761	625.690
400.307	17.347	824.213	624.302
401.321	17.514	823.894	624.617
402.336	17.493	823.204	623.962
403.350	17.479	822.763	623.521
404.365	17.466	822.993	623.592
405.380	17.593	822.135	623.352
406.394	17.662	821.334	622.940
407.409	17.539	821.017	622.196
408.423	17.579	820.959	622.246
409.438	17.901	820.132	622.735
410.453	17.758	819.887	621.975
411.467	17.695	819.371	621.297
412.482	17.837	818.982	621.466
413.496	17.895	818.779	621.469
414.511	18.053	818.118	621.486
415.526	17.851	817.676	620.362
416.540	17.833	817.430	620.055
417.555	17.815	816.821	619.473
418.569	17.735	816.714	619.044
419.584	17.776	816.281	618.811
420.599	17.872	815.607	618.593
421.613	105.787	1287.205	1449.891
422.628	91.358	1355.926	1450.014
