DTS Sentinel unit serial number:	SN413079Multiplexer serial number:	ORYXHardware model number:	OX4-SRSoftware version number:	ORYX F/W v4.00 Oryx Data Collector v3.7.2.0data status	okinstallation	princeton_trtdifferential loss correction	single-endedforward channel	channel 1reverse channel	N/Adate	2019/09/16time	10:06:35forward acquisition time	60.00reverse acquisition time	0.00gamma	496.2192k internal	0.2315k external	0.2315temperature offset calibration	0.9968default loss term (dB/km)	0.3790temperature slope calibration	1.0000multiplexer offset coefficient	1.0000multiplexer slope coefficient	1.0000fibre end	0.00T internal ref (°C)	33.81T ext. ref 1 (°C)	12.43T ext. ref 2 (°C)	32.52length (m)	temperature (°C)	Stokes	anti-Stokes-747.200	536.404	-0.093	0.224
-746.185	800.000	0.118	0.418
-745.171	-126.333	0.331	-0.050
-744.156	-200.000	-0.078	0.375
-743.142	81.534	-0.063	0.069
-742.127	511.504	0.086	-0.203
-741.112	248.623	-0.065	0.112
-740.098	172.890	-0.037	0.054
-739.083	73.707	0.258	-0.274
-738.069	800.000	0.090	0.290
-737.054	-200.000	-0.008	-0.050
-736.039	156.404	-0.170	-0.237
-735.025	-19.066	0.340	0.214
-734.010	-200.000	0.035	0.253
-732.996	-37.117	-0.201	-0.109
-731.981	-200.000	0.083	-0.502
-730.966	71.823	0.035	-0.036
-729.952	-139.578	-0.062	-0.007
-728.937	800.000	-0.101	-0.299
-727.923	-200.000	0.000	-0.362
-726.908	373.119	0.085	0.175
-725.894	800.000	0.049	0.152
-724.879	800.000	-0.063	-0.192
-723.864	-83.869	0.154	0.050
-722.850	800.000	-0.087	-0.272
-721.835	98.952	-0.390	-0.456
-720.821	-76.724	0.071	0.025
-719.806	63.745	-0.110	0.112
-718.791	44.950	0.069	-0.065
-717.777	511.450	-0.028	0.066
-716.762	392.819	0.044	-0.092
-715.748	123.737	-0.062	-0.079
-714.733	-200.000	0.046	-0.388
-713.718	-200.000	-0.025	0.320
-712.704	56.618	0.124	-0.122
-711.689	-200.000	0.075	-0.389
-710.675	-33.314	0.253	-0.142
-709.660	-12.534	0.075	-0.050
-708.645	-68.562	0.188	0.074
-707.631	-103.682	0.115	0.027
-706.616	-166.475	-0.121	0.005
-705.602	-200.000	0.075	0.358
-704.587	18.803	-0.144	0.117
-703.572	46.434	-0.081	-0.076
-702.558	-84.338	0.452	-0.145
-701.543	-200.000	0.069	0.339
-700.529	-24.689	-0.217	-0.130
-699.514	237.484	-0.037	-0.062
-698.499	800.000	-0.025	0.105
-697.485	-80.976	0.065	0.022
-696.470	-181.208	0.190	-0.004
-695.456	800.000	-0.046	-0.156
-694.441	92.875	-0.213	-0.243
-693.426	409.197	0.175	0.375
-692.412	-69.597	0.075	0.029
-691.397	-111.553	0.280	0.057
-690.383	800.000	-0.006	0.027
-689.368	30.900	0.040	0.034
-688.354	-200.000	0.009	-0.091
-687.339	800.000	-0.037	0.119
-686.324	-200.000	-0.017	0.246
-685.310	800.000	0.058	-0.230
-684.295	-43.073	-0.139	-0.071
-683.281	-8.794	0.355	-0.241
-682.266	800.000	-0.032	0.108
-681.251	800.000	-0.017	0.057
-680.237	254.258	-0.150	-0.259
-679.222	411.292	-0.038	-0.082
-678.208	-131.373	-0.171	-0.023
-677.193	-38.971	0.218	0.116
-676.178	-129.513	0.325	0.046
-675.164	144.118	-0.223	-0.301
-674.149	-21.123	0.031	0.019
-673.135	-104.084	-0.109	-0.026
-672.120	582.703	-0.081	0.201
-671.105	-58.499	0.407	0.179
-670.091	12.602	-0.180	-0.140
-669.076	-115.892	0.235	-0.044
-668.062	23.750	0.098	0.082
-667.047	-7.133	-0.214	-0.146
-666.032	-127.316	-0.273	0.040
-665.018	18.422	0.288	-0.232
-664.003	507.711	-0.064	0.150
-662.989	180.921	0.116	-0.171
-661.974	332.447	0.033	0.065
-660.959	800.000	-0.020	0.081
-659.945	-46.847	-0.154	-0.076
-658.930	800.000	-0.023	0.083
-657.916	800.000	0.157	-0.629
-656.901	-94.784	0.196	-0.054
-655.886	-32.034	-0.164	-0.092
-654.872	51.115	0.175	0.168
-653.857	133.583	-0.095	0.125
-652.843	195.101	0.025	-0.038
-651.828	-1.319	0.027	-0.019
-650.814	0.108	0.046	-0.033
-649.799	800.000	0.028	-0.089
-648.784	-121.026	-0.189	-0.032
-647.770	135.115	-0.026	0.033
-646.755	455.540	0.119	-0.266
-645.741	695.935	0.084	-0.223
-644.726	74.149	0.133	0.141
-643.711	-200.000	0.026	-0.172
-642.697	-128.680	0.195	0.028
-641.682	-151.092	-0.132	0.010
-640.668	-177.993	0.241	-0.006
-639.653	-73.509	-0.319	-0.117
-638.638	121.199	-0.080	0.101
-637.624	47.228	-0.082	-0.077
-636.609	332.184	0.066	-0.129
-635.595	1.462	-0.158	-0.114
-634.580	14.789	0.186	-0.147
-633.565	800.000	-0.028	-0.104
-632.551	-12.054	0.407	-0.269
-631.536	-157.545	0.289	-0.017
-630.522	-126.902	-0.151	-0.022
-629.507	-128.265	-0.137	-0.020
-628.492	598.576	-0.044	-0.111
-627.478	-3.663	-0.169	0.119
-626.463	-18.382	-0.211	-0.133
-625.449	800.000	0.025	-0.091
-624.434	800.000	-0.033	0.115
-623.419	-72.388	-0.252	0.094
-622.405	-105.330	0.373	0.086
-621.390	168.731	0.092	0.132
-620.376	39.738	0.162	-0.146
-619.361	-48.663	0.235	-0.114
-618.346	267.519	0.102	0.180
-617.332	24.895	0.166	0.138
-616.317	-200.000	0.003	0.068
-615.303	-200.000	0.033	0.167
-614.288	209.080	-0.117	0.184
-613.273	49.608	-0.325	0.309
-612.259	-33.040	0.192	0.107
-611.244	-200.000	-0.059	0.493
-610.230	524.335	-0.145	0.344
-609.215	-200.000	0.024	-0.134
-608.201	172.281	-0.095	0.138
-607.186	54.830	0.207	0.201
-606.171	-38.835	0.053	-0.028
-605.157	253.793	0.058	-0.099
-604.142	-109.152	-0.126	-0.027
-603.128	368.700	-0.097	-0.198
-602.113	-91.707	-0.196	-0.056
-601.098	-6.400	-0.112	-0.077
-600.084	757.591	0.070	-0.191
-599.069	-40.308	0.279	0.146
-598.055	-200.000	-0.049	-0.243
-597.040	294.101	-0.261	-0.481
-596.025	-75.354	-0.244	-0.088
-595.011	-200.000	-0.046	-0.471
-593.996	-88.338	-0.216	-0.065
-592.982	141.131	0.053	0.070
-591.967	58.575	0.170	-0.168
-590.952	-101.379	0.125	0.031
-589.938	-200.000	0.002	0.472
-588.923	-106.172	-0.142	0.032
-587.909	492.759	0.100	0.231
-586.894	381.536	0.081	-0.168
-585.879	-143.615	-0.106	-0.010
-584.865	43.520	-0.177	0.163
-583.850	197.195	0.155	-0.238
-582.836	-200.000	-0.087	-0.401
-581.821	800.000	-0.078	-0.220
-580.806	-7.787	0.213	0.145
-579.792	-113.062	-0.112	0.022
-578.777	-66.042	0.149	0.060
-577.763	-78.622	-0.195	0.067
-576.748	1.065	-0.167	-0.121
-575.733	15.966	-0.152	0.120
-574.719	-167.296	-0.196	-0.008
-573.704	273.314	0.084	0.150
-572.690	166.149	-0.096	0.137
-571.675	273.779	-0.038	0.068
-570.661	38.084	-0.209	-0.187
-569.646	-78.276	-0.164	-0.057
-568.631	-200.000	0.065	-0.365
-567.617	276.062	0.054	-0.097
-566.602	800.000	-0.004	0.018
-565.588	-200.000	0.019	-0.156
-564.573	203.026	-0.054	-0.084
-563.558	-126.463	0.383	-0.057
-562.544	-200.000	0.015	-0.424
-561.529	25.066	-0.343	0.287
-560.515	-96.797	-0.218	-0.058
-559.500	800.000	0.060	-0.180
-558.485	-80.220	-0.166	0.056
-557.471	351.227	0.071	0.142
-556.456	241.869	-0.124	0.209
-555.442	329.410	0.103	-0.198
-554.427	-80.728	0.133	0.045
-553.412	35.290	-0.206	0.182
-552.398	11.009	-0.230	0.177
-551.383	29.620	0.232	-0.199
-550.369	48.904	-0.089	0.084
-549.354	-200.000	0.159	0.000
-548.339	800.000	0.042	-0.157
-547.325	-88.711	-0.207	-0.062
-546.310	77.585	-0.071	0.076
-545.296	-64.117	-0.246	-0.101
-544.281	100.516	0.142	0.166
-543.266	-159.276	-0.176	-0.010
-542.252	-65.917	0.298	-0.120
-541.237	-116.455	-0.344	-0.064
-540.223	-139.610	0.322	-0.035
-539.208	61.113	0.219	-0.219
-538.193	-200.000	0.013	0.227
-537.179	-200.000	-0.001	0.146
-536.164	432.313	0.024	-0.053
-535.150	216.469	0.144	0.230
-534.135	13.714	0.277	-0.216
-533.121	-68.132	-0.212	0.083
-532.106	-200.000	0.003	0.294
-531.091	26.453	0.125	-0.105
-530.077	49.453	0.111	-0.105
-529.062	448.340	0.135	-0.298
-528.048	119.344	-0.113	0.141
-527.033	521.646	-0.104	-0.245
-526.018	-91.209	0.291	0.084
-525.004	123.961	-0.084	0.106
-523.989	-200.000	-0.006	-0.029
-522.975	-200.000	-0.009	-0.139
-521.960	-200.000	0.048	0.338
-520.945	110.935	0.046	-0.055
-519.931	176.792	0.026	-0.037
-518.916	-134.545	-0.132	0.016
-517.902	-65.761	-0.184	-0.074
-516.887	446.673	0.117	0.259
-515.872	-82.281	0.304	0.099
-514.858	593.379	0.038	0.094
-513.843	-57.003	-0.246	-0.109
-512.829	-200.000	-0.018	-0.156
-511.814	54.977	-0.199	0.193
-510.799	126.218	0.061	0.077
-509.785	439.791	0.074	0.163
-508.770	-200.000	-0.002	-0.275
-507.756	88.957	0.148	0.165
-506.741	800.000	-0.040	0.138
-505.726	-200.000	0.032	-0.157
-504.712	43.969	-0.147	-0.136
-503.697	-200.000	-0.036	-0.195
-502.683	74.631	-0.102	-0.108
-501.668	800.000	-0.115	-0.456
-500.653	399.331	-0.080	-0.168
-499.639	-200.000	0.028	-0.183
-498.624	-38.928	0.099	0.053
-497.610	800.000	0.020	0.065
-496.595	54.858	-0.154	-0.149
-495.581	252.105	0.099	0.169
-494.566	-200.000	0.028	0.126
-493.551	-85.918	-0.239	-0.074
-492.537	72.958	-0.159	0.166
-491.522	151.801	0.028	0.038
-490.508	398.078	-0.099	-0.208
-489.493	-143.884	0.192	0.018
-488.478	27.608	0.128	-0.108
-487.464	800.000	-0.113	0.350
-486.449	278.107	-0.026	0.047
-485.435	102.723	-0.139	-0.163
-484.420	250.266	-0.272	0.463
-483.405	-117.284	-0.327	0.060
-482.391	-81.551	0.203	-0.067
-481.376	26.443	0.245	-0.205
-480.362	-113.853	0.219	-0.043
-479.347	195.194	0.158	-0.241
-478.332	800.000	-0.044	0.145
-477.318	62.184	-0.237	-0.237
-476.303	-30.194	0.153	-0.087
-475.289	-200.000	-0.039	-0.296
-474.274	-200.000	0.001	-0.059
-473.259	-63.918	0.342	-0.140
-472.245	-116.367	-0.064	-0.012
-471.230	-131.097	-0.254	-0.034
-470.216	800.000	0.063	0.262
-469.201	-153.476	-0.164	-0.011
-468.186	9.472	-0.032	0.025
-467.172	-106.564	0.075	-0.017
-466.157	90.682	0.155	0.174
-465.143	756.381	-0.024	0.064
-464.128	-200.000	-0.038	0.175
-463.113	167.151	-0.046	-0.066
-462.099	471.188	-0.011	0.025
-461.084	-200.000	-0.050	-0.259
-460.070	800.000	-0.073	0.228
-459.055	-66.328	0.183	-0.073
-458.040	-98.194	-0.265	0.068
-457.026	159.894	0.116	-0.162
-456.011	-75.565	-0.322	0.115
-454.997	-125.234	0.088	-0.013
-453.982	76.013	0.083	0.088
-452.968	-134.233	0.114	-0.014
-451.953	107.379	-0.189	-0.225
-450.938	188.335	0.118	-0.177
-449.924	157.828	0.209	-0.290
-448.909	-92.386	0.256	0.072
-447.895	-65.891	0.573	0.229
-446.880	180.978	0.038	-0.056
-445.865	550.680	0.131	-0.315
-444.851	91.377	0.117	-0.132
-443.836	192.583	0.092	0.140
-442.822	-64.593	-0.135	0.055
-441.807	-77.915	0.038	-0.013
-440.792	-85.728	0.418	-0.130
-439.778	150.947	0.060	0.082
-438.763	-121.455	-0.157	0.026
-437.749	-200.000	0.016	0.400
-436.734	800.000	-0.093	-0.288
-435.719	229.022	-0.081	-0.133
-434.705	-108.498	0.150	-0.032
-433.690	60.698	-0.065	-0.065
-432.676	26.133	0.031	0.026
-431.661	-200.000	0.026	0.282
-430.646	112.643	-0.120	-0.146
-429.632	253.454	0.137	-0.234
-428.617	86.962	0.117	-0.130
-427.603	-47.881	0.124	-0.060
-426.588	-3.403	0.094	-0.066
-425.573	-200.000	0.030	0.139
-424.559	-200.000	-0.002	-0.211
-423.544	267.724	0.068	-0.120
-422.530	800.000	-0.030	-0.095
-421.515	-2.195	0.281	0.197
-420.500	-94.142	-0.274	0.075
-419.486	-168.331	0.185	-0.007
-418.471	-127.721	0.265	0.038
-417.457	206.605	-0.199	0.311
-416.442	800.000	0.034	-0.132
-415.428	91.769	-0.126	0.142
-414.413	-134.504	0.065	0.008
-413.398	-76.836	0.325	0.114
-412.384	331.756	-0.068	-0.130
-411.369	677.903	-0.143	-0.372
-410.355	-85.201	0.135	-0.042
-409.340	131.019	0.040	-0.052
-408.325	-200.000	-0.007	-0.109
-407.311	800.000	-0.052	-0.201
-406.296	800.000	0.079	0.266
-405.282	-54.257	-0.208	-0.094
-404.267	-190.565	0.050	-0.001
-403.252	-200.000	0.061	-0.352
-402.238	136.962	-0.119	0.155
-401.223	226.142	0.200	0.324
-400.209	-82.998	0.091	-0.029
-399.194	-200.000	0.005	-0.211
-398.179	-200.000	-0.011	-0.195
-397.165	800.000	0.041	0.164
-396.150	44.467	0.020	0.018
-395.136	-101.644	0.356	0.086
-394.121	800.000	-0.074	0.226
-393.106	-200.000	-0.096	-0.434
-392.092	77.393	-0.300	-0.319
-391.077	800.000	-0.121	0.367
-390.063	-73.515	-0.102	0.037
-389.048	-110.331	0.344	0.072
-388.033	-140.168	-0.193	0.020
-387.019	15.177	-0.063	0.050
-386.004	-16.778	0.134	0.084
-384.990	5.836	-0.168	-0.124
-383.975	719.394	-0.087	-0.231
-382.960	-69.658	0.210	-0.080
-381.946	-86.587	-0.388	0.119
-380.931	65.103	0.084	-0.084
-379.917	-200.000	-0.080	-0.000
-378.902	800.000	0.047	-0.154
-377.888	-33.460	-0.304	0.168
-376.873	-200.000	-0.003	-0.347
-375.858	800.000	0.048	0.157
-374.844	9.685	0.161	0.122
-373.829	-200.000	-0.007	0.077
-372.815	124.660	0.098	-0.124
-371.800	-55.451	0.159	0.071
-370.785	187.253	-0.148	-0.220
-369.771	-90.041	0.226	0.066
-368.756	-141.953	0.112	0.011
-367.742	-82.301	0.156	-0.051
-366.727	13.253	0.182	-0.141
-365.712	-63.152	0.239	-0.099
-364.698	99.973	0.223	0.258
-363.683	800.000	-0.157	-0.437
-362.669	-200.000	-0.052	0.255
-361.654	57.195	0.078	-0.076
-360.639	556.010	0.038	0.092
-359.625	5.004	-0.080	-0.058
-358.610	-177.730	0.080	0.002
-357.596	112.231	0.192	0.231
-356.581	-93.435	-0.225	-0.062
-355.566	435.851	0.065	0.140
-354.552	698.204	-0.071	-0.186
-353.537	-200.000	0.034	0.289
-352.523	-30.093	0.134	0.076
-351.508	-92.540	0.148	0.041
-350.493	317.460	0.037	0.070
-349.479	132.734	0.164	0.212
-348.464	-22.901	-0.212	0.128
-347.450	-200.000	-0.016	0.097
-346.435	-11.227	0.309	0.203
-345.420	-200.000	0.033	0.203
-344.406	-200.000	0.015	-0.097
-343.391	95.534	-0.152	-0.173
-342.377	-86.728	0.072	0.022
-341.362	800.000	0.102	-0.307
-340.348	-16.444	-0.304	0.192
-339.333	548.155	0.108	0.257
-338.318	20.907	0.125	0.101
-337.304	-111.540	-0.154	-0.031
-336.289	11.071	0.125	-0.095
-335.275	76.211	0.118	-0.125
-334.260	-122.007	0.095	-0.016
-333.245	-16.578	-0.342	-0.216
-332.231	-148.107	-0.241	-0.020
-331.216	-144.743	0.162	-0.015
-330.202	800.000	-0.035	-0.116
-329.187	800.000	-0.073	0.282
-328.172	-56.976	0.173	0.076
-327.158	111.680	0.096	0.115
-326.143	-4.640	-0.161	0.111
-325.129	-114.478	-0.277	-0.053
-324.114	-64.705	-0.141	0.057
-323.099	-140.704	0.455	-0.047
-322.085	154.729	-0.177	-0.242
-321.070	-58.553	-0.361	0.156
-320.056	-7.829	-0.349	0.235
-319.041	-200.000	0.024	0.188
-318.026	-28.564	0.117	0.067
-317.012	-39.945	-0.157	-0.082
-315.997	-12.744	-0.152	0.099
-314.983	199.601	0.126	-0.193
-313.968	680.918	0.074	-0.191
-312.953	84.710	0.061	-0.066
-311.939	-92.750	0.166	-0.046
-310.924	591.924	-0.093	0.229
-309.910	800.000	-0.099	0.293
-308.895	259.620	0.184	0.316
-307.880	-36.808	0.014	0.007
-306.866	800.000	0.082	-0.243
-305.851	118.048	-0.102	-0.125
-304.837	-200.000	-0.083	-0.000
-303.822	-62.009	-0.098	-0.041
-302.807	800.000	0.029	-0.115
-301.793	35.067	-0.269	0.235
-300.778	-150.975	0.207	-0.016
-299.764	-105.818	0.473	0.106
-298.749	-55.287	-0.267	-0.120
-297.735	-134.031	-0.046	-0.006
-296.720	-38.049	0.175	0.092
-295.705	-105.945	0.053	-0.012
-294.691	154.717	0.182	0.250
-293.676	-18.759	-0.271	0.168
-292.662	75.806	-0.039	-0.041
-291.647	800.000	-0.056	-0.219
-290.632	-200.000	0.024	0.558
-289.618	78.026	-0.151	-0.160
-288.603	800.000	-0.011	-0.041
-287.589	800.000	0.084	-0.312
-286.574	-64.940	-0.318	0.128
-285.559	50.855	-0.272	0.257
-284.545	125.644	-0.076	-0.096
-283.530	800.000	-0.038	0.121
-282.516	-55.950	0.194	-0.086
-281.501	-65.270	0.188	-0.075
-280.486	-31.792	-0.378	-0.211
-279.472	267.191	-0.153	0.267
-278.457	-142.969	0.189	0.018
-277.443	-184.692	-0.326	0.005
-276.428	93.792	0.209	-0.235
-275.413	457.829	0.103	0.228
-274.399	-134.571	-0.359	0.044
-273.384	800.000	-0.129	-0.404
-272.370	-200.000	-0.049	0.391
-271.355	9.381	-0.203	0.153
-270.340	-200.000	-0.013	0.196
-269.326	27.360	-0.047	-0.039
-268.311	19.107	-0.184	-0.147
-267.297	711.868	0.076	0.201
-266.282	-43.862	-0.361	-0.181
-265.267	-135.139	-0.246	-0.029
-264.253	14.738	0.052	-0.041
-263.238	181.007	0.073	-0.106
-262.224	34.606	-0.136	0.119
-261.209	800.000	-0.102	0.411
-260.195	-200.000	0.008	-0.129
-259.180	-148.524	-0.309	-0.025
-258.165	-139.142	0.249	0.027
-257.151	-58.682	-0.270	-0.116
-256.136	-149.662	-0.442	0.035
-255.122	-152.958	0.197	-0.014
-254.107	101.595	0.078	0.090
-253.092	-22.980	-0.306	-0.183
-252.078	-95.263	0.063	0.017
-251.063	-155.399	0.242	-0.016
-250.049	800.000	0.041	-0.170
-249.034	136.830	-0.043	-0.056
-248.019	217.486	-0.164	-0.259
-247.005	800.000	-0.036	-0.141
-245.990	-14.116	-0.155	0.099
-244.976	-30.406	-0.343	-0.193
-243.961	45.516	-0.175	-0.161
-242.946	10.574	0.405	0.306
-241.932	220.111	-0.100	0.160
-240.917	171.068	0.168	-0.239
-239.903	-141.454	-0.203	0.020
-238.888	249.321	-0.185	-0.311
-237.873	-83.394	0.228	0.073
-236.859	-200.000	-0.036	0.210
-235.844	99.199	0.098	-0.112
-234.830	-78.234	0.027	-0.009
-233.815	438.671	0.095	0.205
-232.800	308.991	-0.102	0.189
-231.786	482.693	0.052	0.117
-230.771	125.357	0.062	0.078
-229.757	-99.652	0.267	-0.067
-228.742	-191.013	0.416	-0.004
-227.727	104.151	-0.187	0.218
-226.713	-61.594	-0.283	0.118
-225.698	3.510	0.091	0.066
-224.684	-40.111	-0.156	-0.081
-223.669	330.223	0.151	-0.289
-222.655	192.523	0.128	-0.192
-221.640	-200.000	0.025	-0.142
-220.625	-200.000	-0.017	-0.098
-219.611	-154.205	-0.083	0.006
-218.596	-142.184	0.051	-0.005
-217.582	166.607	0.086	-0.121
-216.567	800.000	0.109	0.309
-215.552	437.746	0.090	0.196
-214.538	-151.203	-0.112	-0.008
-213.523	7.010	0.111	-0.082
-212.509	73.263	-0.274	-0.285
-211.494	361.333	-0.199	0.395
-210.479	800.000	-0.016	-0.045
-209.465	-102.346	-0.255	0.061
-208.450	-200.000	-0.046	0.203
-207.436	341.685	-0.164	0.318
-206.421	-12.200	0.180	0.117
-205.406	381.667	-0.164	0.335
-204.392	194.794	-0.169	-0.255
-203.377	-137.720	0.158	0.018
-202.363	-112.374	0.092	-0.018
-201.348	-20.121	-0.109	-0.067
-200.333	15.517	0.055	0.043
-199.319	229.772	0.068	0.110
-198.304	-62.372	-0.112	0.046
-197.290	-169.986	-0.190	0.007
-196.275	183.063	-0.133	0.195
-195.260	345.334	0.156	0.303
-194.246	-16.941	0.168	-0.105
-193.231	87.927	-0.142	-0.156
-192.217	-131.423	-0.134	-0.018
-191.202	-24.892	-0.131	0.077
-190.187	-91.103	0.249	-0.071
-189.173	176.354	-0.038	0.055
-188.158	-92.111	0.227	-0.064
-187.144	-200.000	-0.002	-0.034
-186.129	454.995	-0.098	0.215
-185.114	60.338	0.123	-0.120
-184.100	341.629	-0.124	0.241
-183.085	108.470	-0.181	-0.214
-182.071	-14.331	-0.104	0.066
-181.056	3.154	-0.177	-0.128
-180.042	-104.003	0.184	0.042
-179.027	800.000	0.085	0.276
-178.012	603.787	-0.119	-0.294
-176.998	-100.839	0.168	0.041
-175.983	252.494	0.024	0.040
-174.969	79.203	0.228	0.242
-173.954	-42.140	-0.083	0.042
-172.939	-119.006	0.064	0.011
-171.925	-200.000	0.013	-0.171
-170.910	-158.136	0.073	-0.004
-169.896	123.123	-0.080	-0.099
-168.881	-149.573	0.593	0.046
-167.866	-24.192	0.070	0.041
-166.852	189.827	0.013	-0.020
-165.837	800.000	-0.058	-0.213
-164.823	-200.000	0.019	0.384
-163.808	-143.070	0.188	-0.018
-162.793	-200.000	0.001	0.183
-161.779	285.324	0.082	-0.147
-160.764	327.911	0.155	0.294
-159.750	-120.621	0.057	-0.010
-158.735	-200.000	-0.039	0.193
-157.720	-38.980	0.192	-0.100
-156.706	-181.214	-0.033	0.001
-155.691	630.483	0.076	0.191
-154.677	-1.532	0.337	0.235
-153.662	377.728	-0.111	0.224
-152.647	511.005	0.061	-0.141
-151.633	-78.439	0.345	-0.117
-150.618	-200.000	0.002	0.161
-149.604	-200.000	0.013	-0.167
-148.589	-109.435	-0.254	-0.053
-147.574	20.461	0.111	0.089
-146.560	105.485	0.146	0.171
-145.545	-139.448	-0.228	-0.024
-144.531	-63.200	0.255	-0.104
-143.516	-200.000	-0.004	-0.140
-142.502	-82.665	0.356	0.114
-141.487	154.182	0.086	-0.116
-140.472	-200.000	-0.008	0.179
-139.458	800.000	-0.091	-0.310
-138.443	371.420	0.180	0.362
-137.429	219.004	0.370	-0.586
-136.414	-124.643	0.175	-0.027
-135.399	-200.000	-0.250	0.001
-134.385	-112.280	0.116	0.023
-133.370	-106.099	-0.199	-0.044
-132.356	-57.578	0.063	0.028
-131.341	-96.869	0.368	-0.096
-130.326	91.415	0.108	0.120
-129.312	-158.720	0.550	0.031
-128.297	125.997	0.208	0.260
-127.283	800.000	-0.049	-0.206
-126.268	122.650	0.054	-0.067
-125.253	-200.000	0.015	-0.110
-124.239	-132.397	0.401	-0.051
-123.224	-70.113	0.198	-0.074
-122.210	-19.662	0.111	-0.068
-121.195	-75.666	-0.057	-0.020
-120.180	237.128	-0.088	0.144
-119.166	-139.494	0.209	-0.022
-118.151	-56.147	-0.186	-0.082
-117.137	124.771	-0.098	0.122
-116.122	249.540	0.069	0.115
-115.107	-200.000	0.002	0.177
-114.093	800.000	-0.067	0.208
-113.078	522.475	0.092	0.214
-112.064	-15.911	0.387	0.244
-111.049	55.468	0.299	-0.286
-110.034	-200.000	0.021	-0.155
-109.020	381.303	-0.179	-0.362
-108.005	800.000	0.148	0.419
-106.991	-200.000	0.079	-0.399
-105.976	-52.774	-0.177	-0.081
-104.962	91.941	0.109	-0.121
-103.947	-89.830	0.140	0.040
-102.932	-89.156	0.276	0.081
-101.918	-57.301	-0.074	-0.032
-100.903	-200.000	-0.050	0.419
-99.889	14.168	0.194	-0.149
-98.874	-79.379	0.336	-0.112
-97.859	352.575	-0.178	0.349
-96.845	300.538	-0.094	-0.171
-95.830	-3.989	0.071	-0.049
-94.816	-109.455	0.276	-0.058
-93.801	800.000	0.059	-0.193
-92.786	0.794	0.180	-0.127
-91.772	-97.686	0.327	-0.084
-90.757	103.438	-0.092	-0.107
-89.743	471.657	0.154	0.343
-88.728	-67.410	-0.165	0.064
-87.713	344.042	0.130	0.251
-86.699	800.000	0.035	-0.121
-85.684	-152.419	0.472	0.033
-84.670	44.172	-0.144	0.131
-83.655	313.725	-0.084	0.156
-82.640	-200.000	-0.028	-0.121
-81.626	294.821	0.164	0.296
-80.611	-49.839	0.143	0.067
-79.597	-44.731	-0.325	-0.160
-78.582	-3.977	0.148	-0.101
-77.567	131.583	-0.041	0.052
-76.553	517.059	-0.094	0.217
-75.538	-138.552	0.164	0.018
-74.524	-200.000	0.006	-0.303
-73.509	-41.770	0.107	0.054
-72.494	246.969	0.232	0.386
-71.480	-200.000	0.046	0.330
-70.465	-79.680	-0.030	-0.010
-69.451	543.184	0.146	0.343
-68.436	329.406	-0.026	0.049
-67.422	-27.512	-0.102	-0.059
-66.407	-58.826	0.025	0.011
-65.392	-30.186	-0.167	0.094
-64.378	-159.827	0.320	0.017
-63.363	67.972	0.147	-0.148
-62.349	-18.362	0.297	-0.183
-61.334	68.236	-0.702	-0.709
-60.319	800.000	0.148	0.498
-59.305	332.855	-0.477	-0.909
-58.290	285.648	0.443	0.787
-57.276	800.000	0.517	1.907
-56.261	-200.000	95.715	549.160
-55.246	514.224	1411.890	3249.541
-54.232	146.705	2636.011	3494.363
-53.217	110.957	2216.438	2632.019
-52.203	45.364	1655.242	1506.384
-51.188	37.203	1385.115	1209.903
-50.173	33.991	1341.987	1152.751
-49.159	54.275	1390.489	1320.092
-48.144	57.695	1408.479	1358.234
-47.130	37.634	1362.923	1192.977
-46.115	34.037	1345.448	1155.822
-45.100	33.831	1340.179	1149.998
-44.086	33.659	1338.031	1147.073
-43.071	33.698	1335.693	1145.255
-42.057	33.621	1333.530	1142.891
-41.042	33.684	1331.911	1141.838
-40.027	33.705	1330.430	1140.648
-39.013	33.746	1328.267	1138.996
-37.998	33.681	1326.825	1137.324
-36.984	33.900	1324.448	1136.550
-35.969	33.891	1322.674	1134.935
-34.954	33.928	1320.883	1133.569
-33.940	33.888	1319.477	1132.083
-32.925	33.896	1318.295	1131.070
-31.911	33.890	1317.029	1129.903
-30.896	34.034	1314.923	1128.905
-29.881	33.812	1314.232	1126.951
-28.867	34.026	1312.341	1126.553
-27.852	33.967	1310.947	1124.965
-26.838	33.975	1309.528	1123.747
-25.823	33.832	1307.949	1121.502
-24.809	33.950	1306.987	1121.332
-23.794	33.951	1305.055	1119.631
-22.779	33.949	1303.514	1118.254
-21.765	33.837	1303.164	1117.252
-20.750	33.894	1301.575	1116.182
-19.736	33.725	1300.650	1114.352
-18.721	33.792	1299.093	1113.366
-17.706	33.717	1297.995	1111.941
-16.692	33.818	1296.174	1110.930
-15.677	33.682	1296.119	1110.038
-14.663	33.717	1294.940	1109.189
-13.648	33.706	1293.323	1107.698
-12.633	33.684	1292.412	1106.743
-11.619	33.720	1291.784	1106.373
-10.604	33.798	1290.582	1105.758
-9.590	33.764	1289.747	1104.795
-8.575	33.688	1289.308	1103.933
-7.560	33.682	1287.877	1102.630
-6.546	33.625	1287.374	1101.824
-5.531	33.679	1285.955	1100.881
-4.517	33.803	1284.993	1100.735
-3.502	33.713	1284.954	1100.134
-2.487	33.740	1283.217	1098.761
-1.473	33.809	1279.769	1096.162
-0.458	33.294	1265.391	1080.863
0.556	29.015	1248.740	1047.402
1.571	25.763	1255.557	1034.379
2.586	24.724	1271.222	1041.148
3.600	23.864	1260.066	1026.956
4.615	20.748	1190.219	952.912
5.629	15.402	1117.422	867.002
6.644	12.652	1097.936	837.828
7.659	12.481	1095.236	834.827
8.673	12.281	1094.011	832.806
9.688	12.296	1092.811	831.894
10.702	12.868	1090.381	832.860
11.717	16.226	1095.833	853.973
12.731	19.999	1100.559	876.717
13.746	19.581	1098.404	872.810
14.761	17.882	1095.612	861.943
15.775	16.769	1093.604	854.672
16.790	15.524	1091.465	846.652
17.804	14.827	1089.418	841.479
18.819	14.457	1088.060	838.496
19.834	14.078	1087.359	835.977
20.848	13.759	1086.294	833.480
21.863	13.660	1085.213	832.081
22.877	13.459	1084.473	830.433
23.892	13.434	1084.442	830.210
24.907	13.481	1083.148	829.381
25.921	13.611	1082.006	829.085
26.936	13.666	1080.718	828.299
27.950	13.670	1079.385	827.224
28.965	13.715	1078.185	826.457
29.980	13.716	1076.603	825.174
30.994	13.794	1075.030	824.282
32.009	13.768	1074.023	823.308
33.023	13.598	1073.524	822.009
34.038	13.791	1071.629	821.444
35.053	13.737	1070.754	820.435
36.067	13.678	1070.022	819.505
37.082	13.801	1068.669	819.005
38.096	13.703	1068.436	818.272
39.111	13.693	1067.622	817.527
40.126	13.717	1066.503	816.717
41.140	13.466	1065.580	814.702
42.155	13.372	1064.109	813.042
43.169	13.377	1063.197	812.297
44.184	13.406	1062.024	811.473
45.199	13.456	1060.801	810.713
46.213	13.471	1059.469	809.694
47.228	13.552	1058.642	809.386
48.242	13.626	1057.372	808.703
49.257	13.540	1056.516	807.560
50.271	13.711	1055.589	807.614
51.286	13.601	1055.009	806.562
52.301	13.550	1054.127	805.571
53.315	13.531	1052.789	804.385
54.330	13.503	1051.846	803.453
55.344	13.696	1050.393	803.208
56.359	13.577	1049.947	802.222
57.374	13.567	1049.122	801.473
58.388	13.535	1048.306	800.620
59.403	13.503	1047.318	799.641
60.417	13.538	1046.670	799.247
61.432	13.379	1046.203	798.051
62.447	13.412	1045.089	797.291
63.461	13.461	1044.176	796.757
64.476	13.315	1043.672	795.601
65.490	13.277	1043.138	794.941
66.505	13.405	1042.088	794.685
67.520	13.367	1041.426	793.928
68.534	13.523	1040.359	793.790
69.549	13.489	1039.777	793.115
70.563	13.413	1039.010	792.094
71.578	13.382	1038.414	791.423
72.593	13.308	1037.510	790.310
73.607	13.306	1036.828	789.713
74.622	13.345	1036.298	789.426
75.636	13.347	1035.332	788.627
76.651	13.290	1034.601	787.731
77.666	13.212	1034.172	786.962
78.680	13.406	1033.319	787.165
79.695	13.405	1032.355	786.359
80.709	13.474	1032.055	786.388
81.724	13.452	1031.602	785.867
82.739	13.574	1030.657	785.655
83.753	13.655	1030.159	785.593
84.768	13.784	1028.479	784.852
85.782	13.705	1027.934	783.991
86.797	13.664	1027.348	783.282
87.812	13.675	1026.135	782.342
88.826	13.689	1024.856	781.364
89.841	13.526	1024.392	780.171
90.855	13.657	1023.259	779.856
91.870	13.633	1022.396	779.017
92.884	13.757	1021.596	778.918
93.899	13.631	1020.833	777.679
94.914	13.813	1019.780	777.660
95.928	13.965	1018.739	777.509
96.943	13.771	1018.016	775.981
97.957	13.706	1017.684	775.354
98.972	13.741	1016.357	774.439
99.987	13.591	1015.846	773.283
101.001	13.671	1014.434	772.513
102.016	13.691	1013.796	772.052
103.030	13.778	1013.006	771.783
104.045	13.727	1012.220	770.883
105.060	13.659	1011.234	769.748
106.074	13.584	1010.461	768.744
107.089	13.647	1009.055	767.896
108.103	13.609	1008.410	767.160
109.118	13.561	1007.668	766.309
110.133	13.528	1006.752	765.388
111.147	13.450	1006.090	764.458
112.162	13.588	1004.768	764.022
113.176	13.614	1004.267	763.694
114.191	13.805	1003.295	763.768
115.206	13.631	1002.673	762.427
116.220	13.548	1002.150	761.579
117.235	13.695	1001.084	761.374
118.249	13.468	1000.544	759.855
119.264	13.641	999.401	759.714
120.279	13.597	998.244	758.565
121.293	13.525	997.713	757.765
122.308	13.534	996.577	756.876
123.322	13.594	995.640	756.373
124.337	13.547	994.474	755.206
125.352	13.602	993.472	754.628
126.366	13.539	992.202	753.309
127.381	13.553	991.194	752.541
128.395	13.571	990.918	752.346
129.410	13.556	989.846	751.397
130.424	13.755	988.874	751.497
131.439	13.768	987.649	750.558
132.454	13.639	987.314	749.654
133.468	13.754	986.268	749.313
134.483	13.713	985.708	748.634
135.497	13.708	984.588	747.697
136.512	13.811	983.719	747.435
137.527	13.699	982.928	746.262
138.541	13.648	982.155	745.382
139.556	13.736	981.532	745.236
140.570	13.865	980.845	745.227
141.585	13.859	980.006	744.500
142.600	13.880	979.167	743.888
143.614	13.809	978.490	742.993
144.629	13.887	977.830	742.772
145.643	13.883	976.377	741.588
146.658	13.769	975.570	740.400
147.673	13.801	974.497	739.662
148.687	13.644	974.009	738.525
149.702	13.660	973.129	737.867
150.716	13.656	972.291	737.145
151.731	13.751	971.545	736.936
152.746	13.751	971.051	736.497
153.760	13.884	970.026	736.243
154.775	13.797	969.880	735.683
155.789	13.924	969.072	735.566
156.804	13.801	968.145	734.254
157.819	13.941	967.729	734.491
158.833	13.904	966.771	733.538
159.848	13.939	966.312	733.279
160.862	14.093	964.633	732.619
161.877	13.960	963.709	731.268
162.892	13.950	962.938	730.573
163.906	13.836	961.872	729.201
164.921	13.769	961.616	728.647
165.935	13.743	961.086	728.065
166.950	13.946	959.603	727.768
167.964	13.893	959.251	727.205
168.979	13.897	957.698	725.978
169.994	13.908	957.000	725.435
171.008	13.983	956.350	725.203
172.023	14.155	955.144	724.975
173.037	13.940	955.156	723.982
174.052	14.089	954.122	723.785
175.067	14.043	953.762	723.248
176.081	13.911	952.860	721.924
177.096	13.963	952.140	721.543
178.110	13.985	952.126	721.561
179.125	13.999	951.371	720.988
180.140	13.948	950.747	720.230
181.154	14.079	950.340	720.425
182.169	14.077	949.989	720.086
183.183	14.230	948.901	719.862
184.198	14.139	948.226	718.892
185.213	14.163	947.678	718.517
186.227	14.225	946.730	718.003
187.242	14.256	946.326	717.765
188.256	14.223	945.748	717.123
189.271	14.180	945.026	716.328
190.286	14.146	944.413	715.653
191.300	14.047	943.503	714.472
192.315	13.995	942.811	713.664
193.329	13.930	942.680	713.222
194.344	13.981	941.881	712.772
195.359	14.181	941.209	713.057
196.373	14.205	940.352	712.449
197.388	14.288	940.092	712.544
198.402	14.289	939.708	712.191
199.417	14.406	938.723	711.884
200.432	14.429	938.484	711.738
201.446	14.613	937.553	711.755
202.461	14.400	937.659	710.863
203.475	14.498	936.918	710.656
204.490	14.544	935.721	709.882
205.504	14.413	934.940	708.669
206.519	14.537	934.168	708.548
207.534	14.482	933.256	707.560
208.548	14.498	932.853	707.259
209.563	14.515	932.260	706.819
210.577	14.522	931.831	706.460
211.592	14.653	931.025	706.343
212.607	14.638	929.873	705.341
213.621	14.690	929.332	705.090
214.636	14.703	928.536	704.475
215.650	14.560	928.285	703.620
216.665	14.620	927.552	703.258
217.680	14.677	926.681	702.772
218.694	14.749	925.921	702.440
219.709	14.729	925.283	701.806
220.723	14.620	925.053	701.113
221.738	14.697	923.936	700.527
222.753	14.750	923.046	700.012
223.767	14.816	922.372	699.716
224.782	14.931	921.749	699.662
225.796	14.772	921.669	698.873
226.811	14.749	921.148	698.322
227.826	14.760	920.109	697.517
228.840	14.839	919.246	697.133
229.855	14.788	918.260	696.108
230.869	14.826	917.754	695.824
231.884	14.688	917.261	694.812
232.899	14.711	916.469	694.247
233.913	14.731	915.580	693.598
234.928	14.868	914.865	693.563
235.942	14.641	914.534	692.308
236.957	14.723	914.231	692.357
237.972	14.748	913.341	691.724
238.986	14.712	912.703	691.032
240.001	14.709	912.064	690.475
241.015	14.736	911.620	690.190
242.030	14.875	910.699	690.005
243.045	14.934	910.364	689.932
244.059	14.924	909.831	689.427
245.074	14.888	908.929	688.533
246.088	14.887	908.344	688.026
247.103	15.027	907.556	687.941
248.117	15.131	907.543	688.302
249.132	15.203	906.497	687.743
250.147	15.183	906.042	687.251
251.161	15.252	905.606	687.146
252.176	15.190	904.841	686.249
253.190	15.360	903.981	686.233
254.205	15.321	903.410	685.580
255.220	15.438	902.076	684.984
256.234	15.317	901.793	684.213
257.249	15.464	901.066	684.202
258.263	15.329	900.779	683.372
259.278	15.332	900.055	682.777
260.293	15.532	899.195	682.874
261.307	15.453	899.062	682.394
262.322	15.433	898.400	681.748
263.336	15.547	897.269	681.293
264.351	15.427	897.165	680.666
265.366	15.476	896.398	680.224
266.380	15.382	896.056	679.522
267.395	15.466	894.877	678.908
268.409	15.629	893.959	678.810
269.424	15.452	893.544	677.722
270.439	15.560	892.439	677.257
271.453	15.468	892.063	676.540
272.468	15.487	891.540	676.161
273.482	15.547	890.636	675.656
274.497	15.367	890.877	675.058
275.512	15.449	890.013	674.670
276.526	15.550	889.344	674.510
277.541	15.596	888.780	674.208
278.555	15.623	888.527	674.065
279.570	15.538	887.308	672.740
280.585	15.628	886.569	672.478
281.599	15.715	885.908	672.267
282.614	15.684	885.151	671.508
283.628	15.780	884.420	671.276
284.643	15.622	883.980	670.253
285.657	15.713	883.301	670.044
286.672	15.855	882.827	670.191
287.687	15.817	881.763	669.170
288.701	15.689	881.624	668.496
289.716	15.696	881.019	668.006
290.730	15.688	880.849	667.787
291.745	15.885	879.976	667.848
292.760	15.873	879.245	667.187
293.774	15.936	878.431	666.761
294.789	15.875	877.811	665.988
295.803	15.841	877.159	665.300
296.818	15.736	876.613	664.415
297.833	15.869	875.674	664.167
298.847	15.814	875.354	663.650
299.862	15.908	874.756	663.506
300.876	15.975	874.042	663.170
301.891	16.129	873.347	663.191
302.906	16.090	872.980	662.702
303.920	16.100	872.414	662.251
304.935	16.012	872.284	661.748
305.949	16.169	871.078	661.388
306.964	16.128	870.791	660.955
307.979	16.177	870.143	660.595
308.993	16.221	869.467	660.193
310.008	16.103	869.160	659.441
311.022	16.305	868.298	659.519
312.037	16.234	867.675	658.712
313.052	16.135	867.247	657.943
314.066	16.062	866.655	657.150
315.081	16.099	866.133	656.840
316.095	16.241	865.554	656.894
317.110	16.108	864.831	655.770
318.125	16.026	864.367	655.044
319.139	16.136	863.835	655.009
320.154	16.227	863.142	654.780
321.168	16.242	862.612	654.377
322.183	16.242	862.151	653.970
323.197	16.292	861.632	653.709
324.212	16.355	861.123	653.512
325.227	16.249	860.518	652.585
326.241	16.297	859.842	652.200
327.256	16.122	859.864	651.481
328.270	16.220	858.946	651.105
329.285	16.250	858.112	650.533
330.300	16.162	857.588	649.739
331.314	16.163	857.181	649.375
332.329	16.377	856.530	649.648
333.343	16.443	856.110	649.524
334.358	16.453	855.690	649.190
335.373	16.441	855.504	648.944
336.387	16.532	855.243	649.039
337.402	16.430	854.876	648.312
338.416	16.630	854.386	648.648
339.431	16.593	854.273	648.364
340.446	16.660	853.508	647.981
341.460	16.507	853.487	647.324
342.475	16.646	852.594	647.120
343.489	16.560	852.633	646.763
344.504	16.655	852.073	646.646
345.519	16.712	851.212	646.153
346.533	16.658	850.791	645.567
347.548	16.671	850.165	645.087
348.562	16.645	849.866	644.705
349.577	16.544	849.146	643.716
350.592	16.579	848.286	643.140
351.606	16.655	847.440	642.728
352.621	16.612	846.912	642.108
353.635	16.641	846.693	641.996
354.650	16.631	845.821	641.243
355.665	16.753	844.840	640.903
356.679	16.734	844.600	640.592
357.694	16.762	843.988	640.178
358.708	16.673	843.515	639.424
359.723	16.800	842.568	639.131
360.738	16.796	841.913	638.560
361.752	16.761	841.525	638.077
362.767	16.923	840.940	638.187
363.781	16.986	840.446	637.993
364.796	17.008	840.019	637.695
365.810	17.058	839.330	637.303
366.825	17.102	839.193	637.308
367.840	16.941	838.802	636.351
368.854	17.001	838.505	636.296
369.869	16.940	837.923	635.569
370.883	16.980	837.384	635.254
371.898	17.055	837.177	635.322
372.913	17.052	836.804	634.968
373.927	17.111	835.786	634.362
374.942	17.073	835.842	634.206
375.956	17.167	835.128	633.958
376.971	17.220	834.924	633.947
377.986	17.327	834.302	633.815
379.000	17.370	833.658	633.429
380.015	17.322	833.531	633.100
381.029	17.353	832.602	632.453
382.044	17.342	832.095	631.970
383.059	17.240	831.200	630.856
384.073	17.353	830.656	630.807
385.088	17.321	829.986	630.126
386.102	17.181	829.577	629.239
387.117	17.385	828.902	629.428
388.132	17.237	828.474	628.498
389.146	17.344	828.026	628.499
390.161	17.334	827.483	627.994
391.175	17.364	827.191	627.829
392.190	17.349	826.622	627.284
393.205	17.354	826.346	627.037
394.219	17.222	826.138	626.337
395.234	17.369	825.164	626.085
396.248	17.208	824.806	625.165
397.263	17.301	824.540	625.251
398.278	17.223	824.004	624.505
399.292	17.254	823.822	624.425
400.307	17.336	822.989	624.037
401.321	17.219	822.884	623.474
402.336	17.257	822.307	623.121
403.350	17.455	821.729	623.355
404.365	17.487	821.290	623.081
405.380	17.701	820.464	623.183
406.394	17.654	820.100	622.680
407.409	17.531	819.891	622.017
408.423	17.639	819.915	622.374
409.438	17.676	819.490	622.131
410.453	17.774	818.647	621.793
411.467	17.678	818.366	621.176
412.482	17.873	817.955	621.517
413.496	17.902	817.436	621.176
414.511	17.697	817.506	620.426
415.526	17.858	816.737	620.372
416.540	17.816	816.114	619.694
417.555	17.740	815.861	619.169
418.569	17.823	815.269	618.966
419.584	17.832	815.078	618.799
420.599	17.937	814.427	618.632
421.613	104.991	1286.175	1446.373
422.628	90.596	1354.928	1446.453
