DTS Sentinel unit serial number:	SN413079Multiplexer serial number:	ORYXHardware model number:	OX4-SRSoftware version number:	ORYX F/W v4.00 Oryx Data Collector v3.7.2.0data status	okinstallation	princeton_trtdifferential loss correction	single-endedforward channel	channel 1reverse channel	N/Adate	2019/09/12time	22:26:35forward acquisition time	60.00reverse acquisition time	0.00gamma	496.2192k internal	0.2327k external	0.2327temperature offset calibration	1.0146default loss term (dB/km)	0.3790temperature slope calibration	1.0000multiplexer offset coefficient	1.0000multiplexer slope coefficient	1.0000fibre end	0.00T internal ref (°C)	29.75T ext. ref 1 (°C)	3.72T ext. ref 2 (°C)	24.28length (m)	temperature (°C)	Stokes	anti-Stokes-747.200	42.119	0.143	-0.131
-746.185	800.000	-0.096	0.319
-745.171	-15.122	0.403	0.260
-744.156	168.561	-0.097	0.140
-743.142	-96.331	0.415	0.111
-742.127	-200.000	-0.009	0.382
-741.112	-33.587	-0.106	-0.059
-740.098	800.000	-0.026	-0.097
-739.083	-200.000	-0.033	-0.146
-738.069	693.007	-0.088	0.234
-737.054	-106.367	-0.437	0.098
-736.039	-33.334	-0.493	0.275
-735.025	-24.207	0.106	0.064
-734.010	-1.033	-0.082	-0.058
-732.996	126.848	-0.134	-0.171
-731.981	-200.000	0.038	-0.276
-730.966	201.351	-0.145	-0.225
-729.952	-146.232	-0.160	-0.014
-728.937	800.000	0.091	0.321
-727.923	-143.538	-0.325	-0.031
-726.908	800.000	0.100	-0.314
-725.894	136.969	-0.203	0.267
-724.879	174.966	-0.183	-0.267
-723.864	-50.980	-0.227	-0.107
-722.850	777.988	0.147	0.406
-721.835	-200.000	0.006	-0.116
-720.821	349.238	-0.072	0.142
-719.806	-200.000	0.018	0.226
-718.791	-52.976	0.119	0.055
-717.777	30.387	-0.261	-0.224
-716.762	154.654	-0.125	0.173
-715.748	-200.000	-0.031	0.442
-714.733	-200.000	-0.005	0.157
-713.718	58.379	-0.047	0.047
-712.704	-200.000	0.010	0.074
-711.689	-83.099	0.130	-0.042
-710.675	415.869	0.146	-0.313
-709.660	41.398	-0.122	-0.111
-708.645	-125.489	0.182	-0.028
-707.631	603.078	-0.149	0.372
-706.616	-27.371	-0.042	0.025
-705.602	-11.627	-0.043	-0.029
-704.587	-88.804	-0.336	0.101
-703.572	-6.462	-0.131	0.090
-702.558	218.304	-0.158	0.254
-701.543	800.000	-0.064	-0.237
-700.529	320.842	0.145	0.277
-699.514	800.000	0.068	0.198
-698.499	732.409	-0.095	-0.256
-697.485	89.125	0.146	-0.164
-696.470	-105.501	0.228	-0.052
-695.456	403.694	-0.207	-0.438
-694.441	-200.000	0.028	0.194
-693.426	185.172	0.082	0.122
-692.412	57.664	-0.132	0.130
-691.397	-115.982	-0.087	0.016
-690.383	-2.656	0.197	0.139
-689.368	-200.000	0.023	-0.118
-688.354	800.000	0.109	-0.355
-687.339	-200.000	-0.036	0.158
-686.324	5.845	-0.166	-0.123
-685.310	84.272	0.165	-0.182
-684.295	7.994	-0.139	-0.105
-683.281	-43.137	-0.274	-0.140
-682.266	170.109	-0.101	-0.145
-681.251	-200.000	-0.019	0.236
-680.237	800.000	0.093	-0.267
-679.222	570.300	-0.035	-0.087
-678.208	-200.000	-0.053	-0.499
-677.193	522.861	0.128	-0.302
-676.178	-120.740	0.193	-0.033
-675.164	498.757	-0.058	-0.135
-674.149	-5.198	-0.139	0.096
-673.135	83.758	-0.184	0.202
-672.120	79.703	-0.055	-0.059
-671.105	-161.955	-0.396	0.020
-670.091	-99.033	-0.152	-0.039
-669.076	-94.769	0.119	-0.033
-668.062	-200.000	0.003	0.108
-667.047	-172.457	0.216	-0.007
-666.032	-59.127	0.105	0.045
-665.018	210.511	-0.219	0.345
-664.003	746.721	0.093	0.251
-662.989	-54.938	-0.192	-0.087
-661.974	-132.801	0.322	-0.041
-660.959	-200.000	0.011	-0.312
-659.945	-151.850	0.114	0.008
-658.930	-23.318	-0.171	-0.103
-657.916	-72.247	-0.069	-0.026
-656.901	800.000	-0.094	-0.273
-655.886	-5.739	0.118	0.081
-654.872	-119.750	0.094	-0.016
-653.857	-185.116	-0.185	0.003
-652.843	212.634	-0.239	-0.379
-651.828	-200.000	-0.017	0.105
-650.814	800.000	-0.054	-0.183
-649.799	-200.000	0.052	-0.269
-648.784	-91.325	0.252	0.072
-647.770	52.455	-0.106	0.102
-646.755	230.793	-0.136	0.224
-645.741	227.950	0.124	0.203
-644.726	800.000	-0.022	0.089
-643.711	-69.579	0.213	-0.082
-642.697	-200.000	0.014	-0.099
-641.682	800.000	-0.054	0.150
-640.668	336.702	-0.096	0.188
-639.653	261.997	-0.168	-0.292
-638.638	124.982	0.041	0.052
-637.624	800.000	0.118	0.378
-636.609	-117.632	0.196	-0.035
-635.595	-200.000	0.001	0.014
-634.580	139.080	0.097	0.129
-633.565	-70.160	-0.241	0.092
-632.551	290.160	0.085	0.155
-631.536	515.258	0.112	-0.262
-630.522	-12.790	-0.336	-0.220
-629.507	444.200	-0.109	0.240
-628.492	800.000	0.037	-0.120
-627.478	-127.293	0.265	0.039
-626.463	141.266	-0.086	-0.115
-625.449	-89.373	-0.156	0.046
-624.434	800.000	0.038	0.148
-623.419	800.000	0.074	0.304
-622.405	-85.765	-0.082	0.026
-621.390	93.268	-0.216	-0.245
-620.376	168.028	-0.081	0.116
-619.361	261.024	-0.071	0.123
-618.346	-11.456	-0.093	-0.062
-617.332	7.665	-0.186	-0.140
-616.317	-34.189	-0.270	0.149
-615.303	-200.000	-0.041	0.263
-614.288	152.980	0.069	0.095
-613.273	-200.000	-0.080	0.458
-612.259	46.179	-0.218	-0.202
-611.244	800.000	0.032	-0.094
-610.230	-185.304	-0.311	-0.005
-609.215	-48.402	0.289	0.139
-608.201	41.049	0.064	0.058
-607.186	174.256	0.042	0.061
-606.171	-11.104	0.063	-0.041
-605.157	-100.967	-0.417	-0.103
-604.142	-3.275	-0.119	0.083
-603.128	102.069	0.226	0.264
-602.113	-152.807	0.218	-0.015
-601.098	-121.775	-0.197	-0.033
-600.084	4.109	0.164	0.120
-599.069	-4.676	-0.187	-0.129
-598.055	800.000	0.041	-0.142
-597.040	-199.522	-0.013	0.000
-596.025	-35.638	-0.074	-0.040
-595.011	44.689	-0.075	-0.069
-593.996	-200.000	0.046	0.289
-592.982	-37.552	0.090	-0.048
-591.967	-97.775	-0.205	-0.053
-590.952	213.657	-0.106	0.168
-589.938	-102.137	-0.423	0.102
-588.923	-87.066	0.057	-0.017
-587.909	270.033	0.251	-0.443
-586.894	-200.000	-0.001	-0.160
-585.879	-171.702	-0.056	-0.002
-584.865	800.000	0.077	0.232
-583.850	8.959	0.194	0.147
-582.836	-130.957	-0.171	0.023
-581.821	-122.948	-0.156	-0.025
-580.806	-141.376	-0.132	-0.013
-579.792	800.000	0.042	0.125
-578.777	-166.581	0.137	-0.006
-577.763	-200.000	-0.023	0.113
-576.748	800.000	-0.061	-0.181
-575.733	-65.316	0.174	-0.070
-574.719	-200.000	-0.072	-0.381
-573.704	535.397	0.091	0.217
-572.690	200.727	0.064	0.098
-571.675	-200.000	0.027	0.244
-570.661	149.613	0.296	-0.401
-569.646	-124.002	0.164	-0.026
-568.631	800.000	-0.141	0.395
-567.617	200.035	0.061	0.093
-566.602	-170.134	0.232	-0.008
-565.588	154.061	-0.191	0.263
-564.573	-98.728	0.213	-0.054
-563.558	-37.004	-0.121	-0.065
-562.544	1.078	0.095	-0.068
-561.529	-66.201	0.069	-0.027
-560.515	35.357	-0.148	-0.130
-559.500	274.698	-0.179	-0.318
-558.485	-200.000	0.057	-0.293
-557.471	128.322	-0.165	-0.210
-556.456	8.945	0.218	0.164
-555.442	-149.503	-0.094	-0.007
-554.427	16.760	-0.267	-0.211
-553.412	-200.000	0.010	-0.203
-552.398	751.327	-0.146	0.395
-551.383	133.687	-0.164	-0.212
-550.369	548.799	0.018	0.043
-549.354	93.437	0.072	0.081
-548.339	245.968	0.063	0.106
-547.325	-67.735	-0.272	0.107
-546.310	-40.517	-0.349	-0.181
-545.296	111.738	0.115	-0.139
-544.281	-143.704	-0.165	0.016
-543.266	800.000	-0.025	-0.102
-542.252	800.000	-0.057	-0.187
-541.237	-38.670	-0.150	0.079
-540.223	-111.649	-0.236	-0.048
-539.208	522.340	-0.161	0.379
-538.193	189.331	0.164	-0.246
-537.179	8.485	0.238	0.179
-536.164	-200.000	-0.135	-0.000
-535.150	174.376	0.041	-0.059
-534.135	800.000	-0.040	0.156
-533.121	-110.693	0.064	0.013
-532.106	93.448	-0.339	0.383
-531.091	-1.858	-0.085	0.059
-530.077	-115.531	-0.350	-0.066
-529.062	-4.589	0.104	0.071
-528.048	530.344	0.113	-0.267
-527.033	5.564	0.169	-0.124
-526.018	-152.073	0.322	0.023
-525.004	800.000	0.060	0.225
-523.989	-200.000	0.007	0.265
-522.975	-89.466	-0.291	-0.086
-521.960	-48.740	0.503	0.242
-520.945	800.000	0.104	-0.336
-519.931	-134.774	0.073	-0.009
-518.916	94.645	0.177	0.201
-517.902	-18.105	-0.138	0.086
-516.887	-138.502	0.178	0.020
-515.872	-200.000	-0.019	-0.180
-514.858	-115.959	0.278	0.052
-513.843	78.100	0.235	-0.251
-512.829	-51.295	-0.202	0.095
-511.814	-39.508	0.114	-0.060
-510.799	-121.628	-0.240	-0.040
-509.785	135.229	0.032	-0.042
-508.770	309.255	-0.150	-0.280
-507.756	262.468	-0.089	-0.154
-506.741	-100.155	0.239	0.059
-505.726	-78.925	0.196	0.067
-504.712	284.410	0.117	0.210
-503.697	223.036	0.029	-0.047
-502.683	800.000	-0.082	0.290
-501.668	448.592	0.094	-0.206
-500.653	-200.000	-0.051	-0.420
-499.639	127.467	0.099	-0.126
-498.624	1.722	0.468	-0.337
-497.610	-200.000	-0.015	0.145
-496.595	18.519	0.113	-0.090
-495.581	800.000	-0.061	0.195
-494.566	34.243	-0.077	0.067
-493.551	21.141	-0.156	-0.126
-492.537	-68.171	-0.276	-0.107
-491.522	800.000	-0.134	0.393
-490.508	-200.000	-0.023	0.102
-489.493	-134.049	0.128	0.016
-488.478	-72.136	-0.142	-0.053
-487.464	-145.039	-0.065	0.006
-486.449	-34.627	0.136	0.074
-485.435	800.000	0.038	-0.115
-484.420	-36.025	-0.206	-0.111
-483.405	508.809	0.137	0.319
-482.391	-72.005	-0.179	-0.066
-481.376	725.103	0.016	-0.043
-480.362	-1.371	0.131	-0.092
-479.347	-17.962	-0.184	-0.115
-478.332	-200.000	-0.006	-0.181
-477.318	-97.012	-0.276	0.072
-476.303	97.016	-0.150	-0.172
-475.289	-200.000	0.055	-0.332
-474.274	67.696	-0.076	-0.078
-473.259	-164.866	0.128	-0.006
-472.245	-102.854	0.117	0.028
-471.230	130.532	-0.059	-0.076
-470.216	18.877	0.210	-0.168
-469.201	101.400	0.145	0.168
-468.186	-125.394	0.128	-0.020
-467.172	2.300	0.134	0.097
-466.157	8.267	-0.120	0.090
-465.143	-47.418	-0.336	0.163
-464.128	-130.570	-0.163	0.022
-463.113	-72.516	0.323	0.119
-462.099	-151.757	-0.163	-0.012
-461.084	-200.000	-0.066	-0.313
-460.070	294.811	-0.120	-0.218
-459.055	-36.728	0.129	-0.069
-458.040	217.550	0.129	0.205
-457.026	-91.487	0.252	0.072
-456.011	-200.000	0.041	0.196
-454.997	155.938	-0.083	-0.114
-453.982	73.169	0.235	-0.245
-452.968	-12.988	-0.074	0.048
-451.953	-32.126	0.183	-0.102
-450.938	-200.000	-0.028	-0.174
-449.924	103.051	0.228	0.267
-448.909	-82.678	0.295	-0.095
-447.895	-53.555	-0.363	-0.166
-446.880	800.000	-0.021	-0.064
-445.865	173.985	0.124	0.178
-444.851	-200.000	0.002	0.201
-443.836	234.313	-0.114	0.187
-442.822	294.475	0.102	0.185
-441.807	123.818	-0.125	-0.156
-440.792	-200.000	0.025	-0.123
-439.778	-31.709	-0.232	-0.130
-438.763	-200.000	0.020	-0.281
-437.749	-200.000	-0.015	-0.406
-436.734	183.004	-0.137	0.201
-435.719	-200.000	0.027	0.143
-434.705	373.013	0.099	-0.200
-433.690	415.745	0.049	0.103
-432.676	18.873	-0.301	-0.240
-431.661	616.893	0.100	0.250
-430.646	800.000	-0.082	-0.287
-429.632	-95.312	-0.457	0.122
-428.617	81.290	-0.046	-0.049
-427.603	-75.787	-0.235	-0.083
-426.588	-33.992	0.085	0.047
-425.573	-126.402	0.274	-0.041
-424.559	800.000	0.051	-0.218
-423.544	-85.250	-0.359	0.112
-422.530	-200.000	0.023	0.152
-421.515	196.116	0.153	-0.232
-420.500	-30.296	-0.299	-0.169
-419.486	16.329	-0.134	0.105
-418.471	-19.052	-0.273	0.169
-417.457	26.896	-0.030	-0.025
-416.442	430.758	0.062	0.133
-415.428	-87.365	0.376	-0.113
-414.413	-29.967	-0.300	0.170
-413.398	3.268	-0.126	-0.092
-412.384	70.096	-0.176	-0.181
-411.369	164.272	-0.133	0.187
-410.355	42.568	-0.128	-0.116
-409.340	800.000	0.055	0.207
-408.325	-25.707	0.206	0.121
-407.311	-200.000	0.040	-0.410
-406.296	623.515	0.090	-0.227
-405.282	174.188	-0.245	-0.352
-404.267	-85.834	0.454	0.140
-403.252	157.393	-0.112	0.154
-402.238	38.732	-0.059	0.052
-401.223	-200.000	-0.013	-0.323
-400.209	-63.051	0.318	-0.131
-399.194	-19.056	0.232	0.144
-398.179	-200.000	-0.059	-0.269
-397.165	36.594	0.337	-0.296
-396.150	800.000	0.020	0.068
-395.136	-33.909	0.068	-0.037
-394.121	-134.395	-0.130	-0.016
-393.106	-200.000	-0.024	0.128
-392.092	-200.000	0.095	-0.436
-391.077	543.982	0.070	-0.167
-390.063	-1.696	-0.175	0.122
-389.048	-200.000	0.049	-0.335
-388.033	276.964	-0.082	0.145
-387.019	-70.956	0.143	-0.054
-386.004	-200.000	-0.055	-0.375
-384.990	-148.670	-0.333	-0.027
-383.975	800.000	0.049	-0.141
-382.960	582.419	0.105	-0.256
-381.946	225.186	0.103	-0.166
-380.931	-115.243	-0.427	-0.080
-379.917	3.083	0.298	-0.215
-378.902	144.151	-0.204	0.270
-377.888	430.216	0.228	0.491
-376.873	-11.924	0.199	-0.130
-375.858	-25.650	0.128	-0.075
-374.844	-55.772	-0.155	0.069
-373.829	-200.000	0.044	-0.507
-372.815	-28.337	0.268	-0.154
-371.800	10.195	0.089	0.067
-370.785	184.235	-0.058	-0.085
-369.771	-69.088	-0.221	0.084
-368.756	27.589	0.209	0.175
-367.742	-90.825	0.083	-0.024
-366.727	-135.100	-0.168	0.020
-365.712	-200.000	0.009	0.250
-364.698	220.859	-0.201	-0.320
-363.683	-162.127	0.043	0.002
-362.669	-62.382	-0.235	0.097
-361.654	-200.000	-0.034	-0.399
-360.639	-200.000	0.005	0.205
-359.625	-114.415	0.287	0.055
-358.610	39.566	0.249	0.221
-357.596	187.661	-0.118	0.174
-356.581	-153.493	-0.243	-0.017
-355.566	-136.799	0.134	0.015
-354.552	-1.124	0.110	-0.077
-353.537	-100.532	0.081	0.020
-352.523	461.384	0.036	0.081
-351.508	45.352	0.146	-0.133
-350.493	35.183	-0.296	-0.257
-349.479	-160.217	-0.181	0.010
-348.464	266.769	0.196	-0.340
-347.450	-200.000	0.055	-0.246
-346.435	-200.000	-0.038	0.171
-345.420	350.652	0.211	-0.414
-344.406	136.572	-0.238	0.308
-343.391	541.964	0.100	0.238
-342.377	-109.829	-0.171	0.036
-341.362	121.228	0.090	-0.112
-340.348	-36.374	-0.014	-0.007
-339.333	-43.888	0.179	0.090
-338.318	-200.000	0.020	0.146
-337.304	241.958	0.126	0.210
-336.289	800.000	0.087	-0.245
-335.275	120.345	-0.222	-0.273
-334.260	-94.419	-0.339	0.092
-333.245	85.213	0.115	0.125
-332.231	-34.743	-0.119	0.064
-331.216	146.865	0.102	0.136
-330.202	108.844	0.090	0.107
-329.187	114.651	0.103	0.124
-328.172	-42.850	-0.221	0.111
-327.158	4.567	0.206	0.150
-326.143	731.259	-0.064	-0.169
-325.129	74.731	-0.232	-0.242
-324.114	219.217	0.062	-0.099
-323.099	322.101	0.072	0.136
-322.085	472.293	-0.037	0.083
-321.070	-132.187	-0.064	0.008
-320.056	48.938	0.097	0.090
-319.041	326.721	-0.150	0.286
-318.026	-200.000	0.145	0.701
-317.012	291.337	-0.023	-0.042
-315.997	-147.672	0.357	-0.030
-314.983	36.283	0.370	-0.323
-313.968	800.000	0.042	0.120
-312.953	-105.905	-0.152	0.034
-311.939	-200.000	-0.047	0.297
-310.924	-101.212	0.076	0.018
-309.910	32.913	-0.263	-0.226
-308.895	346.383	-0.108	-0.210
-307.880	-19.014	-0.297	-0.183
-306.866	148.317	0.168	-0.225
-305.851	28.769	-0.273	-0.229
-304.837	800.000	-0.093	-0.392
-303.822	104.678	0.248	-0.289
-302.807	-166.217	0.108	0.005
-301.793	-37.513	0.220	0.116
-300.778	13.268	-0.114	-0.088
-299.764	39.970	0.179	-0.160
-298.749	-200.000	-0.029	0.262
-297.735	-169.676	-0.126	0.005
-296.720	-111.934	-0.252	-0.050
-295.705	-83.934	0.162	-0.051
-294.691	800.000	0.012	-0.053
-293.676	572.651	0.055	-0.133
-292.662	329.336	-0.066	0.126
-291.647	-7.927	0.143	0.095
-290.632	-54.447	-0.131	-0.059
-289.618	-196.705	0.486	0.003
-288.603	-73.148	-0.222	-0.081
-287.589	120.702	0.270	0.332
-286.574	-200.000	-0.039	0.235
-285.559	120.387	0.027	-0.033
-284.545	49.110	0.201	0.187
-283.530	620.575	0.028	-0.070
-282.516	291.223	-0.164	-0.295
-281.501	-71.584	-0.522	-0.193
-280.486	774.845	-0.114	0.309
-279.472	-110.546	0.351	0.072
-278.457	29.305	-0.125	0.105
-277.443	-49.762	0.504	-0.237
-276.428	-78.693	0.067	-0.023
-275.413	-102.623	-0.214	0.051
-274.399	800.000	-0.103	0.322
-273.384	-161.063	0.454	0.024
-272.370	-6.317	-0.019	-0.013
-271.355	-106.073	-0.196	0.044
-270.340	3.395	-0.167	0.120
-269.326	87.392	-0.186	-0.204
-268.311	800.000	0.074	0.241
-267.297	36.650	0.169	0.148
-266.282	380.183	0.200	0.406
-265.267	-106.242	-0.388	-0.086
-264.253	-158.133	-0.122	0.007
-263.238	-76.965	0.312	0.108
-262.224	169.969	0.159	-0.225
-261.209	-200.000	0.007	0.167
-260.195	-77.691	-0.263	0.090
-259.180	-200.000	-0.011	-0.184
-258.165	-92.486	0.317	0.088
-257.151	238.325	-0.074	0.121
-256.136	-157.118	-0.364	0.022
-255.122	595.464	-0.059	0.143
-254.107	-91.801	0.158	0.044
-253.092	-151.093	0.121	0.009
-252.078	-86.012	-0.271	-0.083
-251.063	63.198	-0.017	-0.017
-250.049	-18.482	0.320	-0.197
-249.034	600.233	-0.078	0.190
-248.019	-189.073	-0.107	0.001
-247.005	-46.221	0.244	0.119
-245.990	416.920	-0.104	0.219
-244.976	-200.000	-0.016	0.220
-243.961	-15.042	0.148	0.094
-242.946	163.690	-0.117	0.163
-241.932	-200.000	-0.035	-0.251
-240.917	308.362	-0.095	-0.176
-239.903	117.175	-0.167	-0.203
-238.888	-200.000	-0.017	-0.087
-237.873	202.124	-0.079	0.120
-236.859	11.558	0.289	0.219
-235.844	-200.000	-0.042	0.315
-234.830	113.845	0.251	-0.301
-233.815	274.433	-0.010	0.018
-232.800	219.733	-0.013	0.021
-231.786	-200.000	-0.031	-0.273
-230.771	-200.000	0.058	0.433
-229.757	132.601	-0.108	0.137
-228.742	613.874	0.039	0.097
-227.727	800.000	-0.063	0.249
-226.713	-114.216	0.193	-0.037
-225.698	-138.271	-0.173	0.019
-224.684	27.899	-0.123	0.103
-223.669	-200.000	-0.034	0.327
-222.655	-11.148	0.131	-0.085
-221.640	-77.997	0.073	-0.025
-220.625	800.000	-0.016	0.052
-219.611	604.172	0.041	-0.100
-218.596	-74.413	-0.314	0.112
-217.582	-200.000	0.268	-0.001
-216.567	330.204	-0.032	0.061
-215.552	157.277	0.019	-0.026
-214.538	-31.922	0.106	0.058
-213.523	-166.751	-0.333	-0.014
-212.509	42.340	0.251	0.225
-211.494	-32.904	-0.213	-0.117
-210.479	-70.872	0.228	-0.085
-209.465	-105.790	0.160	-0.036
-208.450	-30.231	0.136	-0.076
-207.436	-200.000	-0.077	-0.337
-206.421	248.499	0.237	-0.397
-205.406	96.818	0.150	0.170
-204.392	35.173	-0.134	0.116
-203.377	-200.000	-0.025	0.180
-202.363	112.337	0.233	-0.279
-201.348	125.457	-0.044	-0.055
-200.333	-85.112	-0.077	0.024
-199.319	-17.772	-0.273	0.169
-198.304	42.656	0.235	0.211
-197.290	-115.487	0.476	0.089
-196.275	-52.528	0.220	0.101
-195.260	76.748	0.096	-0.101
-194.246	-32.888	-0.209	0.115
-193.231	800.000	-0.016	-0.066
-192.217	-200.000	0.013	-0.161
-191.202	73.148	0.041	0.042
-190.187	-91.091	0.185	0.052
-189.173	-12.239	-0.240	-0.155
-188.158	-33.123	-0.191	-0.104
-187.144	44.179	-0.174	0.157
-186.129	31.130	0.129	-0.109
-185.114	-126.385	0.323	-0.048
-184.100	475.782	-0.076	-0.170
-183.085	-200.000	-0.016	0.077
-182.071	-200.000	-0.016	-0.103
-181.056	321.572	0.178	0.333
-180.042	-93.600	-0.018	0.005
-179.027	800.000	-0.103	0.390
-178.012	307.881	-0.097	-0.179
-176.998	378.057	0.095	-0.191
-175.983	-173.138	0.111	0.003
-174.969	471.777	0.023	-0.050
-173.954	-16.691	-0.252	-0.157
-172.939	89.941	-0.309	-0.341
-171.925	800.000	0.117	-0.349
-170.910	-33.035	0.103	-0.056
-169.896	-152.837	-0.224	-0.016
-168.881	-200.000	0.004	0.371
-167.866	-200.000	-0.037	0.275
-166.852	-118.802	0.156	-0.027
-165.837	800.000	0.094	0.378
-164.823	148.872	-0.116	-0.154
-163.808	19.862	-0.174	0.138
-162.793	-200.000	0.036	0.313
-161.779	49.200	0.171	0.158
-160.764	213.909	0.058	0.091
-159.750	800.000	0.109	0.409
-158.735	-49.049	0.306	-0.144
-157.720	-83.409	0.113	-0.036
-156.706	-200.000	-0.086	0.000
-155.691	-94.861	-0.237	-0.063
-154.677	800.000	0.021	0.076
-153.662	339.133	-0.065	-0.125
-152.647	-52.476	-0.184	0.084
-151.633	-61.665	0.112	0.046
-150.618	537.484	0.114	-0.266
-149.604	-101.233	0.415	-0.100
-148.589	279.545	-0.048	0.084
-147.574	-131.421	-0.373	0.049
-146.560	-200.000	0.100	0.447
-145.545	96.343	0.186	-0.210
-144.531	86.979	-0.065	-0.071
-143.516	-120.177	-0.077	-0.013
-142.502	144.746	0.090	-0.118
-141.487	-136.198	-0.408	0.047
-140.472	-200.000	0.016	0.194
-139.458	675.813	0.086	-0.219
-138.443	22.483	0.201	-0.162
-137.429	-124.465	-0.489	0.075
-136.414	-39.844	0.156	-0.080
-135.399	-200.000	0.008	-0.264
-134.385	-114.895	0.109	-0.020
-133.370	-105.115	0.517	-0.116
-132.356	65.944	-0.128	0.128
-131.341	-20.491	-0.101	0.061
-130.326	-89.933	0.410	0.118
-129.312	15.678	-0.335	-0.259
-128.297	-26.068	-0.135	-0.078
-127.283	432.359	0.019	-0.041
-126.268	252.825	0.182	0.305
-125.253	-64.954	-0.215	-0.086
-124.239	-95.948	-0.200	0.052
-123.224	-97.284	-0.173	0.044
-122.210	-200.000	-0.003	0.122
-121.195	333.318	-0.073	0.140
-120.180	-200.000	-0.010	0.115
-119.166	-153.585	-0.099	0.007
-118.151	-86.449	0.236	-0.071
-117.137	-106.707	-0.074	0.016
-116.122	800.000	-0.068	0.249
-115.107	14.828	-0.107	0.082
-114.093	-148.951	0.383	-0.030
-113.078	192.937	0.085	-0.126
-112.064	-133.365	-0.271	-0.034
-111.049	602.980	-0.085	0.209
-110.034	163.568	-0.133	0.184
-109.020	-93.276	-0.255	0.070
-108.005	-27.156	-0.035	-0.020
-106.991	-200.000	-0.042	0.263
-105.976	268.582	0.021	-0.037
-104.962	-200.000	0.019	0.097
-103.947	172.983	0.104	0.147
-102.932	162.413	-0.080	-0.110
-101.918	-141.323	0.188	0.019
-100.903	-108.485	-0.254	0.054
-99.889	244.843	-0.165	0.272
-98.874	-75.029	0.223	-0.078
-97.859	38.904	0.342	-0.300
-96.845	52.168	0.056	0.053
-95.830	-200.000	0.002	0.020
-94.816	-200.000	0.022	-0.128
-93.801	800.000	-0.036	-0.108
-92.786	6.930	-0.133	-0.097
-91.772	800.000	-0.049	0.185
-90.757	-43.427	0.229	-0.114
-89.743	463.698	0.026	0.058
-88.728	-200.000	-0.015	0.470
-87.713	71.383	-0.160	-0.163
-86.699	149.373	0.123	0.164
-85.684	98.272	0.139	-0.157
-84.670	-120.770	0.157	0.026
-83.655	149.571	-0.051	0.068
-82.640	-99.165	0.238	-0.059
-81.626	279.761	0.046	0.080
-80.611	244.848	0.053	-0.088
-79.597	152.380	0.132	-0.177
-78.582	300.469	-0.113	-0.205
-77.567	95.906	0.243	-0.273
-76.553	102.954	-0.246	0.283
-75.538	800.000	-0.025	0.078
-74.524	162.003	0.017	-0.023
-73.509	133.129	0.220	0.279
-72.494	-200.000	-0.025	0.199
-71.480	718.453	0.137	-0.357
-70.465	800.000	0.143	-0.494
-69.451	800.000	0.107	-0.305
-68.436	-5.007	-0.267	0.180
-67.422	361.105	-0.044	-0.086
-66.407	41.145	0.049	-0.043
-65.392	49.995	0.156	0.144
-64.378	90.255	-0.109	0.120
-63.363	-124.551	0.232	0.035
-62.349	771.004	-0.063	-0.168
-61.334	37.446	-1.036	-0.902
-60.319	800.000	0.112	0.402
-59.305	426.393	-0.437	-0.926
-58.290	800.000	0.466	1.526
-57.276	800.000	0.429	1.344
-56.261	-200.000	107.300	592.144
-55.246	513.073	1478.596	3382.338
-54.232	181.821	2659.825	3842.702
-53.217	111.100	2145.053	2535.282
-52.203	41.135	1595.450	1414.489
-51.188	33.177	1336.217	1137.011
-50.173	30.115	1295.190	1084.176
-49.159	53.328	1348.822	1268.324
-48.144	53.890	1364.794	1286.644
-47.130	33.244	1319.357	1122.882
-46.115	29.857	1301.733	1087.963
-45.100	29.667	1296.979	1082.832
-44.086	29.669	1294.475	1080.712
-43.071	29.531	1292.580	1078.280
-42.057	29.580	1290.236	1076.567
-41.042	29.627	1288.238	1075.132
-40.027	29.533	1286.974	1073.486
-39.013	29.635	1284.893	1072.303
-37.998	29.664	1283.155	1070.979
-36.984	29.821	1280.916	1069.975
-35.969	29.763	1278.971	1067.970
-34.954	29.705	1278.226	1066.974
-33.940	29.747	1276.502	1065.731
-32.925	29.858	1275.436	1065.443
-31.911	29.890	1273.757	1064.178
-30.896	29.889	1272.636	1063.195
-29.881	29.829	1271.079	1061.507
-28.867	29.896	1270.015	1060.962
-27.852	29.916	1268.472	1059.742
-26.838	29.833	1267.210	1058.172
-25.823	29.777	1265.901	1056.716
-24.809	29.844	1264.602	1055.971
-23.794	29.795	1263.532	1054.759
-22.779	29.808	1261.953	1053.473
-21.765	29.904	1260.449	1052.723
-20.750	29.883	1259.172	1051.493
-19.736	29.719	1258.162	1049.678
-18.721	29.690	1257.281	1048.735
-17.706	29.775	1255.666	1047.831
-16.692	29.681	1254.945	1046.656
-15.677	29.689	1253.662	1045.588
-14.663	29.740	1252.454	1044.826
-13.648	29.655	1251.383	1043.415
-12.633	29.665	1250.549	1042.735
-11.619	29.741	1249.645	1042.363
-10.604	29.650	1249.140	1041.392
-9.590	29.613	1247.984	1040.177
-8.575	29.627	1246.692	1039.139
-7.560	29.569	1246.343	1038.479
-6.546	29.735	1244.891	1038.159
-5.531	29.728	1244.080	1037.402
-4.517	29.720	1242.896	1036.332
-3.502	29.735	1242.392	1035.952
-2.487	29.802	1241.421	1035.477
-1.473	29.664	1237.469	1031.370
-0.458	28.039	1222.646	1010.006
0.556	25.948	1204.590	970.959
1.571	22.262	1208.544	954.103
2.586	21.158	1222.459	958.938
3.600	20.662	1211.552	947.601
4.615	15.784	1140.989	867.247
5.629	7.668	1067.350	771.918
6.644	4.060	1048.929	741.283
7.659	3.752	1045.957	737.652
8.673	3.644	1044.368	735.948
9.688	3.445	1043.744	734.498
10.702	3.880	1042.260	735.453
11.717	9.068	1048.868	764.828
12.731	17.659	1061.076	814.909
13.746	22.601	1066.997	843.080
14.761	23.563	1067.668	848.140
15.775	22.850	1066.354	843.615
16.790	22.307	1064.625	839.580
17.804	21.770	1063.139	835.778
18.819	21.547	1062.812	834.383
19.834	21.641	1062.246	834.311
20.848	21.535	1062.256	833.740
21.863	21.481	1061.065	832.473
22.877	21.304	1060.674	831.254
23.892	21.222	1059.754	830.069
24.907	21.186	1058.685	828.986
25.921	21.053	1057.850	827.630
26.936	21.133	1056.059	826.534
27.950	21.065	1054.915	825.243
28.965	21.171	1053.682	824.708
29.980	21.397	1052.168	824.512
30.994	21.499	1051.366	824.294
32.009	21.513	1050.324	823.471
33.023	21.289	1049.536	821.727
34.038	21.226	1048.561	820.591
35.053	21.179	1047.398	819.391
36.067	21.022	1046.727	818.055
37.082	21.182	1045.866	818.060
38.096	21.311	1045.596	818.382
39.111	21.380	1044.760	817.979
40.126	21.207	1043.044	815.753
41.140	20.775	1041.525	812.478
42.155	20.557	1040.804	810.826
43.169	20.589	1039.040	809.529
44.184	20.574	1037.904	808.502
45.199	20.691	1037.581	808.725
46.213	20.832	1037.012	808.865
47.228	21.161	1036.357	809.807
48.242	21.336	1035.297	809.719
49.257	21.188	1034.848	808.609
50.271	21.416	1033.571	808.593
51.286	21.441	1033.236	808.379
52.301	21.450	1032.248	807.574
53.315	21.209	1031.144	805.529
54.330	21.084	1030.090	804.055
55.344	20.873	1029.235	802.346
56.359	20.922	1028.282	801.760
57.374	20.934	1027.017	800.756
58.388	20.731	1026.840	799.616
59.403	20.398	1026.020	797.375
60.417	20.590	1024.780	797.224
61.432	20.554	1024.216	796.546
62.447	20.504	1023.164	795.432
63.461	20.348	1023.015	794.530
64.476	20.368	1022.040	793.795
65.490	20.449	1020.352	792.783
66.505	20.412	1020.196	792.425
67.520	20.536	1019.603	792.457
68.534	20.331	1018.960	790.953
69.549	20.262	1017.826	789.690
70.563	20.128	1017.137	788.478
71.578	19.984	1015.958	786.836
72.593	19.927	1015.019	785.781
73.607	19.937	1014.649	785.471
74.622	20.031	1014.273	785.539
75.636	20.083	1013.816	785.350
76.651	20.066	1013.266	784.779
77.666	20.182	1012.564	784.690
78.680	20.106	1012.034	783.866
79.695	20.218	1010.958	783.467
80.709	20.456	1010.589	784.188
81.724	20.461	1010.374	783.974
82.739	20.666	1009.635	784.256
83.753	21.130	1009.342	786.047
84.768	21.544	1009.292	787.805
85.782	21.722	1008.496	787.912
86.797	21.587	1007.655	786.581
87.812	21.485	1006.028	784.785
88.826	21.437	1005.346	783.965
89.841	21.628	1004.431	784.037
90.855	21.645	1003.653	783.437
91.870	21.688	1002.760	782.864
92.884	21.622	1001.834	781.778
93.899	21.507	1000.789	780.381
94.914	21.709	999.989	780.587
95.928	21.618	998.890	779.255
96.943	21.537	997.592	777.812
97.957	21.212	997.225	776.013
98.972	21.447	996.618	776.517
99.987	21.477	995.952	776.061
101.001	21.429	994.845	774.918
102.016	21.282	993.744	773.341
103.030	21.413	993.479	773.648
104.045	21.593	992.130	773.322
105.060	21.394	991.297	771.725
106.074	20.939	990.238	768.829
107.089	20.799	988.753	766.991
108.103	20.621	987.765	765.375
109.118	20.526	986.498	763.906
110.133	20.287	985.565	762.068
111.147	20.345	984.765	761.632
112.162	20.436	983.966	761.350
113.176	20.562	983.497	761.471
114.191	20.525	983.394	761.160
115.206	20.548	982.300	760.347
116.220	20.445	981.233	759.003
117.235	20.416	980.499	758.243
118.249	20.352	979.295	756.966
119.264	20.322	978.539	756.183
120.279	20.115	977.992	754.794
121.293	20.131	977.021	754.048
122.308	19.949	975.993	752.395
123.322	19.926	974.648	751.191
124.337	19.882	973.926	750.378
125.352	20.096	972.624	750.235
126.366	20.060	971.819	749.390
127.381	20.074	971.214	748.920
128.395	20.062	970.844	748.515
129.410	20.134	969.496	747.723
130.424	20.193	969.505	747.917
131.439	20.599	968.278	748.650
132.454	20.687	967.968	748.724
133.468	20.553	966.980	747.317
134.483	20.597	965.994	746.680
135.497	20.673	965.356	746.445
136.512	20.743	964.396	745.937
137.527	20.744	963.290	745.019
138.541	20.651	963.163	744.459
139.556	20.774	962.468	744.380
140.570	20.977	962.101	744.898
141.585	21.396	961.082	745.834
142.600	21.311	960.389	744.864
143.614	21.588	959.620	745.384
144.629	21.659	959.039	745.166
145.643	21.553	958.080	743.907
146.658	21.149	956.604	740.979
147.673	20.986	955.431	739.316
148.687	20.713	954.591	737.442
149.702	20.596	953.434	735.990
150.716	20.687	952.762	735.790
151.731	20.810	951.650	735.387
152.746	20.770	951.740	735.220
153.760	20.852	951.295	735.158
154.775	21.010	950.506	735.149
155.789	21.177	949.515	735.022
156.804	21.110	948.809	734.125
157.819	21.143	948.513	733.971
158.833	21.377	947.935	734.443
159.848	21.425	946.797	733.698
160.862	21.174	946.142	732.075
161.877	20.892	944.385	729.469
162.892	20.535	943.319	727.089
163.906	20.622	942.077	726.427
164.921	20.461	941.581	725.311
165.935	20.749	940.700	725.770
166.950	20.887	940.024	725.758
167.964	20.818	939.211	724.778
168.979	20.797	937.938	723.643
169.994	20.702	937.091	722.534
171.008	20.829	936.792	722.764
172.023	21.333	936.144	724.292
173.037	21.510	935.341	724.338
174.052	21.076	934.472	721.806
175.067	20.795	933.110	719.531
176.081	20.436	932.663	717.640
177.096	20.338	932.170	716.790
178.110	20.434	931.593	716.680
179.125	20.531	931.512	716.954
180.140	20.674	931.200	717.239
181.154	21.061	930.838	718.494
182.169	21.287	930.593	719.168
183.183	21.442	929.413	718.830
184.198	21.239	928.871	717.515
185.213	21.042	928.296	716.197
186.227	21.298	927.535	716.596
187.242	21.479	926.694	716.624
188.256	21.538	926.490	716.645
189.271	21.618	925.916	716.468
190.286	21.191	924.592	713.634
191.300	20.632	923.417	710.381
192.315	20.379	922.729	708.758
193.329	20.406	922.418	708.563
194.344	20.708	921.666	709.156
195.359	20.821	921.296	709.270
196.373	20.895	921.310	709.516
197.388	21.350	920.829	710.937
198.402	21.537	920.684	711.520
199.417	21.640	920.324	711.597
200.432	21.852	919.751	711.951
201.446	21.871	919.454	711.737
202.461	21.917	919.074	711.565
203.475	21.728	918.056	709.951
204.490	21.352	916.919	707.488
205.504	21.290	915.923	706.407
206.519	21.319	914.886	705.659
207.534	21.292	914.370	705.089
208.548	21.241	914.147	704.650
209.563	21.306	913.405	704.277
210.577	21.317	912.730	703.740
211.592	21.696	912.274	704.850
212.607	21.917	911.587	705.147
213.621	21.624	910.900	703.377
214.636	21.606	910.277	702.758
215.650	21.523	909.647	701.878
216.665	21.717	908.738	701.893
217.680	21.865	908.591	702.310
218.694	21.820	907.904	701.534
219.709	21.837	907.167	700.972
220.723	21.690	906.346	699.688
221.738	21.508	905.551	698.288
222.753	21.652	904.831	698.244
223.767	21.563	904.801	697.802
224.782	21.838	904.512	698.614
225.796	22.041	903.488	698.570
226.811	21.667	903.072	696.698
227.826	21.310	902.005	694.396
228.840	21.427	901.021	694.043
229.855	21.365	900.500	693.334
230.869	21.534	899.188	692.929
231.884	21.342	898.795	691.805
232.899	21.300	898.010	690.973
233.913	20.984	897.241	689.076
234.928	20.902	897.074	688.560
235.942	20.810	896.155	687.429
236.957	20.876	895.718	687.297
237.972	20.943	895.124	687.044
238.986	20.864	894.712	686.355
240.001	21.021	893.841	686.241
241.015	21.205	893.285	686.478
242.030	21.308	892.890	686.520
243.045	21.365	892.224	686.171
244.059	21.267	892.049	685.591
245.074	21.390	891.499	685.591
246.088	21.630	891.152	686.204
247.103	21.723	890.662	686.128
248.117	22.125	890.628	687.614
249.132	22.424	890.683	688.769
250.147	22.656	890.584	689.536
251.161	22.767	889.496	689.065
252.176	22.800	888.872	688.652
253.190	22.840	888.580	688.521
254.205	22.847	887.790	687.876
255.220	22.673	887.126	686.622
256.234	22.669	886.313	685.915
257.249	22.547	885.356	684.640
258.263	22.615	884.231	683.972
259.278	22.668	884.069	683.993
260.293	22.700	883.828	683.873
261.307	22.852	883.510	684.153
262.322	22.620	882.951	682.763
263.336	22.705	881.999	682.293
264.351	22.744	881.057	681.654
265.366	22.715	880.642	681.160
266.380	22.709	880.224	680.755
267.395	22.653	879.060	679.577
268.409	22.525	878.274	678.418
269.424	22.532	877.481	677.773
270.439	22.329	877.148	676.676
271.453	22.439	876.244	676.339
272.468	22.343	875.697	675.488
273.482	22.321	875.514	675.205
274.497	22.343	874.446	674.407
275.512	22.164	874.261	673.517
276.526	22.367	873.657	673.771
277.541	22.411	873.721	673.929
278.555	22.757	872.984	674.621
279.570	22.926	872.658	674.956
280.585	22.935	871.164	673.778
281.599	22.508	870.208	671.348
282.614	22.241	869.630	669.826
283.628	22.319	869.258	669.777
284.643	22.286	868.802	669.242
285.657	22.215	867.895	668.217
286.672	22.303	867.403	668.112
287.687	22.497	866.828	668.344
288.701	22.541	866.469	668.176
289.716	22.563	865.578	667.512
290.730	22.613	864.840	667.075
291.745	22.547	864.543	666.536
292.760	22.679	864.106	666.642
293.774	23.030	863.724	667.611
294.789	22.729	863.401	666.167
295.803	22.631	862.144	664.767
296.818	22.382	861.423	663.216
297.833	22.384	861.000	662.838
298.847	22.363	860.521	662.333
299.862	22.600	859.695	662.530
300.876	22.837	859.231	663.002
301.891	22.984	859.091	663.389
302.906	23.014	858.735	663.165
303.920	23.290	858.492	663.955
304.935	23.401	857.763	663.748
305.949	23.139	857.112	662.205
306.964	22.840	856.138	660.276
307.979	22.806	855.765	659.802
308.993	22.859	855.330	659.606
310.008	23.016	854.683	659.636
311.022	22.859	853.995	658.460
312.037	22.802	852.903	657.349
313.052	22.478	852.421	655.713
314.066	22.316	851.479	654.328
315.081	22.352	850.902	653.961
316.095	22.309	850.476	653.414
317.110	22.197	850.073	652.634
318.125	22.181	849.599	652.152
319.139	22.041	848.771	650.940
320.154	22.178	848.382	651.091
321.168	22.356	847.799	651.244
322.183	22.376	847.512	651.041
323.197	22.495	847.258	651.229
324.212	22.408	846.782	650.482
325.227	22.326	845.702	649.294
326.241	22.287	845.271	648.761
327.256	22.280	844.864	648.365
328.270	22.166	844.054	647.266
329.285	22.105	843.474	646.538
330.300	22.130	842.829	646.079
331.314	22.384	842.159	646.443
332.329	22.588	842.122	647.105
333.343	22.693	842.097	647.414
334.358	22.782	841.792	647.450
335.373	22.690	841.647	646.942
336.387	22.829	841.065	646.949
337.402	23.113	840.607	647.578
338.416	23.209	840.518	647.805
339.431	23.490	840.396	648.681
340.446	23.620	840.065	648.843
341.460	23.702	839.603	648.730
342.475	23.521	839.699	648.085
343.489	23.677	838.848	647.940
344.504	23.809	838.340	647.969
345.519	23.900	838.141	648.092
346.533	23.671	837.772	646.916
347.548	23.493	836.277	645.054
348.562	23.114	835.355	642.908
349.577	22.905	835.087	641.888
350.592	22.754	834.364	640.725
351.606	22.705	833.212	639.607
352.621	22.762	832.711	639.374
353.635	22.900	832.278	639.485
354.650	23.079	831.504	639.479
355.665	22.946	831.320	638.802
356.679	23.040	830.721	638.625
357.694	23.091	829.972	638.176
358.708	23.010	829.191	637.227
359.723	23.095	828.522	636.963
360.738	23.058	828.047	636.407
361.752	23.341	827.537	636.976
362.767	23.511	827.263	637.321
363.781	23.690	827.296	637.933
364.796	23.840	826.816	638.043
365.810	23.959	826.566	638.221
366.825	24.011	826.093	637.985
367.840	23.875	825.471	636.962
368.854	23.667	825.009	635.804
369.869	23.453	824.386	634.502
370.883	23.513	823.910	634.294
371.898	23.643	823.616	634.477
372.913	23.885	823.143	634.922
373.927	23.586	822.662	633.426
374.942	23.594	822.591	633.343
375.956	23.902	821.945	633.889
376.971	23.992	821.552	633.852
377.986	23.943	821.585	633.645
379.000	24.087	820.864	633.543
380.015	24.076	819.744	632.585
381.029	23.997	819.551	632.100
382.044	24.108	818.635	631.732
383.059	24.207	818.244	631.724
384.073	23.840	817.780	630.010
385.088	23.458	816.461	627.586
386.102	23.357	816.054	626.862
387.117	23.337	815.246	626.116
388.132	23.396	814.653	625.811
389.146	23.533	814.100	625.816
390.161	23.824	814.111	626.794
391.175	23.957	813.526	626.758
392.190	23.743	813.017	625.558
393.205	23.528	812.366	624.243
394.219	23.324	811.667	622.934
395.234	23.130	811.268	621.892
396.248	23.139	811.149	621.776
397.263	23.081	810.559	621.066
398.278	23.026	809.887	620.300
399.292	22.963	809.185	619.486
400.307	22.892	809.088	619.111
401.321	23.004	808.316	618.857
402.336	23.366	807.984	619.813
403.350	23.534	807.715	620.139
404.365	23.919	807.535	621.292
405.380	24.019	807.910	621.874
406.394	24.267	807.424	622.312
407.409	24.388	807.032	622.377
408.423	24.415	806.613	622.093
409.438	24.289	806.229	621.305
410.453	24.358	805.679	621.066
411.467	24.476	805.448	621.241
412.482	24.480	804.985	620.844
413.496	24.521	805.005	620.947
414.511	24.625	804.032	620.504
415.526	24.555	803.537	619.825
416.540	24.428	802.821	618.774
417.555	24.306	802.452	618.013
418.569	24.478	801.898	618.129
419.584	24.330	801.606	617.337
420.599	24.310	801.352	617.016
421.613	163.426	1371.557	1796.835
422.628	142.004	1454.598	1796.915
