DTS Sentinel unit serial number:	SN413079Multiplexer serial number:	ORYXHardware model number:	OX4-SRSoftware version number:	ORYX F/W v4.00 Oryx Data Collector v3.7.2.0data status	okinstallation	princeton_trtdifferential loss correction	single-endedforward channel	channel 1reverse channel	N/Adate	2019/09/13time	20:34:35forward acquisition time	60.00reverse acquisition time	0.00gamma	496.2192k internal	0.2331k external	0.2331temperature offset calibration	1.0093default loss term (dB/km)	0.3790temperature slope calibration	1.0000multiplexer offset coefficient	1.0000multiplexer slope coefficient	1.0000fibre end	0.00T internal ref (°C)	29.05T ext. ref 1 (°C)	3.26T ext. ref 2 (°C)	23.46length (m)	temperature (°C)	Stokes	anti-Stokes-747.200	181.457	0.134	0.198
-746.185	-200.000	-0.054	0.421
-745.171	455.606	0.051	0.114
-744.156	-131.021	-0.310	0.042
-743.142	-88.259	-0.070	-0.021
-742.127	800.000	0.032	0.092
-741.112	303.612	0.168	-0.313
-740.098	469.774	-0.126	0.284
-739.083	191.971	-0.016	-0.024
-738.069	-200.000	0.002	0.116
-737.054	17.891	-0.106	-0.085
-736.039	80.445	-0.273	-0.296
-735.025	36.686	0.330	-0.293
-734.010	-171.390	-0.388	-0.013
-732.996	-200.000	0.042	-0.314
-731.981	-21.530	-0.201	-0.123
-730.966	-61.825	0.026	0.011
-729.952	-77.844	-0.090	0.031
-728.937	-55.408	-0.338	-0.152
-727.923	-166.708	-0.120	-0.005
-726.908	311.641	0.137	0.259
-725.894	-8.691	-0.218	0.147
-724.879	105.052	-0.098	-0.116
-723.864	800.000	-0.012	-0.043
-722.850	-141.806	-0.112	-0.011
-721.835	-200.000	-0.029	-0.220
-720.821	-92.130	-0.128	0.036
-719.806	26.615	0.166	-0.140
-718.791	-74.157	0.075	-0.027
-717.777	800.000	0.066	-0.222
-716.762	57.471	-0.074	0.073
-715.748	-90.289	-0.222	0.065
-714.733	-22.252	-0.286	0.174
-713.718	732.200	-0.100	-0.268
-712.704	800.000	-0.044	0.133
-711.689	-0.354	0.089	0.064
-710.675	800.000	0.026	-0.098
-709.660	-162.609	0.346	0.017
-708.645	-84.981	0.148	-0.047
-707.631	84.367	-0.076	-0.083
-706.616	-200.000	-0.017	-0.142
-705.602	46.518	0.254	-0.236
-704.587	708.611	0.136	-0.361
-703.572	277.586	0.091	-0.162
-702.558	279.847	0.126	0.226
-701.543	-84.944	-0.260	-0.082
-700.529	-88.179	-0.289	-0.087
-699.514	-198.465	0.292	0.002
-698.499	226.084	0.091	-0.148
-697.485	800.000	-0.052	-0.185
-696.470	315.496	-0.082	0.155
-695.456	-200.000	0.028	-0.294
-694.441	745.309	-0.050	0.136
-693.426	-83.563	0.208	-0.067
-692.412	518.462	-0.155	0.364
-691.397	326.868	-0.147	0.282
-690.383	185.216	-0.292	-0.435
-689.368	-200.000	0.023	-0.205
-688.354	800.000	0.009	0.036
-687.339	-113.464	0.272	0.054
-686.324	440.516	0.119	-0.262
-685.310	676.682	-0.089	-0.231
-684.295	399.274	-0.114	-0.241
-683.281	-200.000	0.021	0.203
-682.266	-94.834	-0.260	-0.071
-681.251	105.047	0.181	-0.214
-680.237	-45.445	0.153	0.076
-679.222	-34.095	-0.128	-0.071
-678.208	-151.685	0.115	0.008
-677.193	392.039	0.134	0.279
-676.178	-178.572	0.110	0.003
-675.164	287.190	0.081	-0.147
-674.149	-200.000	-0.069	-0.310
-673.135	800.000	0.089	-0.277
-672.120	65.282	0.249	0.252
-671.105	-200.000	0.028	0.162
-670.091	-64.810	-0.168	0.068
-669.076	5.538	-0.233	-0.173
-668.062	-90.283	-0.181	0.053
-667.047	-191.144	0.233	0.002
-666.032	-71.162	-0.281	0.106
-665.018	33.000	0.050	0.043
-664.003	-200.000	-0.028	-0.301
-662.989	21.519	0.109	-0.089
-661.974	-78.671	-0.428	0.147
-660.959	-200.000	-0.008	-0.301
-659.945	800.000	-0.037	-0.149
-658.930	85.966	-0.092	0.101
-657.916	-64.915	-0.516	-0.209
-656.901	-72.580	0.285	0.106
-655.886	151.852	-0.208	0.284
-654.872	350.519	-0.108	0.214
-653.857	-200.000	0.004	-0.149
-652.843	679.153	0.115	-0.300
-651.828	-200.000	-0.053	0.366
-650.814	719.118	-0.120	-0.320
-649.799	-39.921	-0.232	0.121
-648.784	289.439	-0.262	0.476
-647.770	10.012	-0.071	0.054
-646.755	-200.000	0.011	0.123
-645.741	-49.466	0.085	-0.041
-644.726	157.540	0.066	-0.091
-643.711	232.359	-0.194	-0.319
-642.697	13.960	0.306	0.239
-641.682	-200.000	-0.011	-0.188
-640.668	800.000	-0.011	0.036
-639.653	48.021	0.092	0.086
-638.638	-160.229	-0.186	-0.010
-637.624	193.898	-0.061	-0.092
-636.609	108.977	-0.186	0.223
-635.595	800.000	0.042	0.123
-634.580	47.752	-0.126	0.118
-633.565	800.000	0.066	0.264
-632.551	262.692	-0.151	-0.262
-631.536	-200.000	-0.016	0.117
-630.522	800.000	0.008	-0.024
-629.507	-88.232	-0.154	0.046
-628.492	337.974	0.126	-0.246
-627.478	2.082	-0.159	0.115
-626.463	-138.566	-0.350	-0.038
-625.449	-24.198	0.086	0.051
-624.434	-78.070	-0.329	-0.113
-623.419	-87.149	0.099	-0.030
-622.405	62.627	-0.172	-0.173
-621.390	-200.000	-0.003	-0.052
-620.376	-200.000	-0.003	0.068
-619.361	-200.000	0.053	-0.289
-618.346	-200.000	-0.013	-0.285
-617.332	-114.294	-0.148	0.029
-616.317	-200.000	-0.059	-0.268
-615.303	70.827	0.149	0.155
-614.288	9.374	0.123	0.093
-613.273	20.942	0.062	-0.050
-612.259	-127.483	-0.405	-0.059
-611.244	147.635	0.203	-0.273
-610.230	800.000	0.068	0.253
-609.215	-135.007	0.071	0.009
-608.201	247.259	-0.094	-0.159
-607.186	-155.058	-0.267	0.018
-606.171	42.367	0.092	0.084
-605.157	-23.771	0.248	0.148
-604.142	800.000	-0.102	-0.311
-603.128	-200.000	-0.051	0.597
-602.113	-87.013	-0.111	0.034
-601.098	-200.000	0.023	-0.167
-600.084	16.269	-0.049	0.039
-599.069	-200.000	-0.041	-0.192
-598.055	-200.000	0.005	-0.208
-597.040	-200.000	-0.028	-0.144
-596.025	-21.662	-0.295	-0.180
-595.011	-109.651	-0.367	-0.077
-593.996	1.215	-0.177	-0.127
-592.982	-111.878	-0.105	0.021
-591.967	-59.041	-0.322	0.139
-590.952	346.357	0.042	-0.082
-589.938	-200.000	0.006	0.407
-588.923	181.568	-0.055	0.082
-587.909	800.000	0.046	-0.163
-586.894	21.769	-0.175	0.143
-585.879	-59.747	-0.058	-0.025
-584.865	800.000	-0.031	0.098
-583.850	-22.462	-0.143	-0.086
-582.836	-114.286	0.313	0.060
-581.821	147.469	-0.064	-0.086
-580.806	208.634	0.175	-0.273
-579.792	-200.000	-0.004	-0.270
-578.777	212.639	0.089	-0.140
-577.763	-200.000	-0.066	0.373
-576.748	-171.779	0.176	-0.006
-575.733	-84.033	0.239	0.076
-574.719	-140.245	-0.197	-0.021
-573.704	-70.002	-0.176	-0.067
-572.690	56.440	0.251	-0.244
-571.675	-200.000	0.039	-0.471
-570.661	276.568	-0.211	-0.375
-569.646	-200.000	0.027	-0.259
-568.631	783.089	-0.126	-0.344
-567.617	-41.656	-0.123	-0.063
-566.602	-200.000	-0.002	-0.196
-565.588	-137.074	-0.295	-0.034
-564.573	-52.571	-0.157	0.073
-563.558	-37.834	0.173	0.092
-562.544	-110.462	0.071	0.015
-561.529	-16.399	-0.163	-0.104
-560.515	448.756	-0.015	-0.032
-559.500	800.000	0.140	-0.409
-558.485	-92.594	0.083	-0.023
-557.471	-200.000	-0.030	0.221
-556.456	-109.929	-0.248	0.052
-555.442	175.097	0.100	0.144
-554.427	24.833	0.248	0.205
-553.412	-200.000	0.004	0.213
-552.398	19.106	-0.201	-0.161
-551.383	-65.480	0.113	-0.045
-550.369	-200.000	0.031	0.304
-549.354	162.240	-0.099	-0.139
-548.339	484.051	-0.149	-0.339
-547.325	28.713	0.231	0.195
-546.310	-200.000	0.055	0.333
-545.296	-200.000	0.002	0.035
-544.281	189.447	0.102	-0.153
-543.266	-111.356	0.157	-0.032
-542.252	203.541	-0.137	0.211
-541.237	23.093	-0.029	-0.024
-540.223	10.640	-0.138	0.105
-539.208	-15.970	-0.085	0.054
-538.193	-200.000	-0.042	-0.277
-537.179	-160.490	0.255	-0.014
-536.164	-62.870	-0.399	-0.165
-535.150	-200.000	-0.006	0.220
-534.135	-22.876	-0.210	0.126
-533.121	89.816	-0.152	0.169
-532.106	7.340	0.184	-0.137
-531.091	87.636	0.207	-0.229
-530.077	-43.723	-0.119	-0.060
-529.062	200.938	0.081	0.125
-528.048	113.719	-0.082	-0.100
-527.033	-200.000	-0.014	-0.092
-526.018	-200.000	-0.056	0.339
-525.004	-200.000	-0.062	-0.332
-523.989	-200.000	0.077	-0.343
-522.975	-125.548	-0.100	-0.015
-521.960	370.886	-0.183	-0.370
-520.945	-20.060	0.314	-0.193
-519.931	69.197	0.330	-0.339
-518.916	80.472	0.089	-0.096
-517.902	-165.949	0.062	-0.003
-516.887	-64.578	-0.485	-0.196
-515.872	-163.959	-0.208	-0.010
-514.858	-130.713	0.220	0.029
-513.843	506.572	0.147	0.341
-512.829	-22.165	-0.161	-0.098
-511.814	800.000	0.013	0.055
-510.799	-145.982	0.123	0.011
-509.785	-109.566	-0.076	0.016
-508.770	-200.000	-0.005	0.231
-507.756	-39.348	0.245	-0.128
-506.741	-13.871	-0.112	-0.072
-505.726	-55.631	-0.223	0.099
-504.712	800.000	-0.013	0.051
-503.697	800.000	-0.015	-0.062
-502.683	-116.850	0.251	0.046
-501.668	-200.000	-0.039	0.196
-500.653	-80.930	-0.271	0.089
-499.639	-18.955	-0.093	-0.058
-498.624	-200.000	0.015	-0.084
-497.610	-12.395	0.342	0.223
-496.595	-6.893	-0.030	0.020
-495.581	2.112	0.141	0.101
-494.566	-82.406	-0.099	-0.032
-493.551	-152.684	-0.136	0.010
-492.537	65.952	0.115	0.116
-491.522	-99.831	-0.418	-0.104
-490.508	-96.659	0.345	0.091
-489.493	-200.000	0.098	0.486
-488.478	800.000	0.035	0.099
-487.464	-200.000	-0.025	0.229
-486.449	-129.952	-0.205	0.028
-485.435	414.851	-0.095	0.201
-484.420	69.911	-0.132	-0.135
-483.405	-0.768	0.230	-0.162
-482.391	-200.000	-0.006	0.092
-481.376	-200.000	0.010	0.098
-480.362	392.515	-0.031	0.065
-479.347	-200.000	0.014	0.094
-478.332	116.571	0.189	0.230
-477.318	49.755	0.206	-0.194
-476.303	37.159	0.267	-0.235
-475.289	-200.000	0.002	-0.056
-474.274	342.403	0.020	-0.040
-473.259	160.991	-0.083	0.115
-472.245	-200.000	0.052	-0.311
-471.230	-176.010	0.192	0.005
-470.216	-64.910	0.241	0.097
-469.201	-83.181	-0.191	0.061
-468.186	-200.000	0.004	0.276
-467.172	158.197	0.344	0.475
-466.157	-34.273	-0.223	-0.122
-465.143	-22.798	0.181	-0.109
-464.128	13.862	-0.163	-0.127
-463.113	47.619	-0.200	-0.186
-462.099	-76.389	0.150	-0.053
-461.084	-128.420	0.140	0.020
-460.070	-200.000	-0.026	0.252
-459.055	-200.000	-0.029	-0.403
-458.040	800.000	-0.043	0.147
-457.026	166.267	0.253	0.357
-456.011	800.000	-0.078	-0.247
-454.997	26.924	-0.282	0.235
-453.982	-200.000	-0.008	-0.360
-452.968	161.677	0.160	-0.223
-451.953	-87.860	-0.095	-0.028
-450.938	229.496	-0.019	-0.032
-449.924	-61.918	-0.085	0.035
-448.909	-200.000	-0.048	-0.265
-447.895	800.000	0.140	0.427
-446.880	730.392	-0.025	0.066
-445.865	-200.000	0.032	0.152
-444.851	561.625	0.152	0.367
-443.836	-23.230	0.159	-0.095
-442.822	-130.484	0.090	0.012
-441.807	-65.248	-0.137	0.055
-440.792	141.210	0.172	0.227
-439.778	774.194	0.110	0.297
-438.763	-200.000	0.061	-0.307
-437.749	-200.000	0.012	0.138
-436.734	77.852	0.020	0.021
-435.719	800.000	-0.021	-0.079
-434.705	91.713	-0.129	0.145
-433.690	-130.893	0.536	-0.071
-432.676	17.041	-0.128	0.101
-431.661	274.732	0.096	0.168
-430.646	800.000	0.045	-0.183
-429.632	-67.288	0.284	-0.111
-428.617	17.706	0.170	-0.134
-427.603	763.192	0.135	-0.364
-426.588	19.993	-0.178	-0.143
-425.573	42.775	0.044	-0.040
-424.559	133.572	0.087	-0.112
-423.544	204.892	0.148	-0.229
-422.530	-70.106	0.268	-0.101
-421.515	61.211	-0.016	-0.016
-420.500	-29.041	0.213	-0.122
-419.486	225.641	-0.057	-0.091
-418.471	4.056	0.256	0.186
-417.457	-56.867	0.189	-0.083
-416.442	-33.557	-0.359	0.197
-415.428	-200.000	-0.003	-0.033
-414.413	608.279	-0.133	-0.329
-413.398	100.776	-0.097	-0.113
-412.384	-69.561	-0.142	0.054
-411.369	-5.391	-0.199	-0.136
-410.355	147.630	0.233	-0.312
-409.340	-200.000	0.078	-0.415
-408.325	25.229	-0.283	-0.234
-407.311	-200.000	0.002	-0.044
-406.296	-32.281	0.220	0.122
-405.282	800.000	-0.044	-0.160
-404.267	800.000	-0.099	0.278
-403.252	800.000	-0.038	0.106
-402.238	63.799	-0.066	0.065
-401.223	494.933	0.154	0.351
-400.209	-79.847	-0.260	-0.087
-399.194	-107.328	-0.245	-0.053
-398.179	-53.978	0.213	-0.096
-397.165	278.210	0.102	-0.180
-396.150	-157.174	-0.323	0.019
-395.136	-162.107	0.203	0.010
-394.121	266.034	-0.079	0.137
-393.106	327.416	0.070	-0.133
-392.092	15.928	-0.166	0.130
-391.077	83.603	0.224	0.243
-390.063	-141.386	0.130	-0.013
-389.048	-200.000	0.047	-0.256
-388.033	-89.721	0.391	-0.114
-387.019	-20.983	0.162	0.098
-386.004	-120.644	0.237	0.040
-384.990	-156.003	0.200	-0.013
-383.975	-135.232	-0.448	0.053
-382.960	-185.577	-0.151	0.002
-381.946	-200.000	-0.056	-0.248
-380.931	-97.430	0.396	-0.102
-379.917	319.838	-0.022	0.041
-378.902	-147.373	0.288	0.024
-377.888	-58.444	-0.326	-0.140
-376.873	273.651	0.060	0.104
-375.858	220.793	-0.087	0.139
-374.844	63.606	0.171	0.170
-373.829	-49.164	0.147	0.070
-372.815	476.414	0.145	0.325
-371.800	-0.259	0.377	-0.266
-370.785	350.352	0.164	-0.322
-369.771	-42.003	0.219	0.111
-368.756	-81.333	0.213	0.070
-367.742	-34.118	0.044	-0.024
-366.727	-10.605	-0.178	0.117
-365.712	-158.519	-0.234	0.013
-364.698	-200.000	-0.006	0.064
-363.683	727.905	0.021	0.055
-362.669	-110.818	0.168	-0.034
-361.654	-41.136	0.131	-0.067
-360.639	765.777	-0.104	-0.280
-359.625	-31.379	0.223	0.125
-358.610	-91.767	-0.193	0.054
-357.596	47.983	-0.081	-0.075
-356.581	169.421	0.056	0.079
-355.566	32.968	0.187	-0.161
-354.552	-71.373	0.312	-0.116
-353.537	-97.023	0.247	-0.064
-352.523	303.613	0.062	-0.114
-351.508	-93.400	0.280	0.077
-350.493	-74.077	0.301	0.108
-349.479	111.638	0.178	-0.213
-348.464	73.692	-0.133	-0.139
-347.450	-129.790	0.041	-0.006
-346.435	30.769	-0.222	0.189
-345.420	800.000	-0.059	-0.162
-344.406	-121.216	-0.140	0.023
-343.391	800.000	0.023	0.084
-342.377	800.000	0.092	-0.390
-341.362	800.000	-0.011	-0.040
-340.348	-200.000	0.002	-0.013
-339.333	367.649	-0.128	0.256
-338.318	214.454	0.187	0.294
-337.304	-12.657	-0.134	0.086
-336.289	609.529	0.108	0.267
-335.275	628.632	0.072	0.180
-334.260	50.931	-0.180	-0.169
-333.245	-200.000	-0.024	-0.236
-332.231	620.253	-0.178	0.444
-331.216	-197.663	-0.193	-0.001
-330.202	711.531	0.058	-0.152
-329.187	-127.853	-0.402	0.057
-328.172	65.185	-0.229	-0.230
-327.158	-200.000	0.020	-0.163
-326.143	133.242	0.068	-0.088
-325.129	-49.738	-0.273	0.129
-324.114	-152.091	0.243	-0.017
-323.099	-172.381	0.161	0.005
-322.085	217.247	-0.080	0.126
-321.070	-112.714	0.097	0.019
-320.056	-200.000	-0.022	0.267
-319.041	800.000	-0.098	0.323
-318.026	-80.950	-0.395	-0.130
-317.012	532.989	-0.044	0.102
-315.997	800.000	-0.050	-0.180
-314.983	-200.000	0.006	-0.338
-313.968	-36.980	0.382	0.203
-312.953	-186.330	0.113	-0.002
-311.939	378.949	0.060	0.122
-310.924	-157.015	-0.320	0.019
-309.910	-3.344	-0.250	-0.172
-308.895	293.351	-0.098	-0.177
-307.880	27.610	0.173	-0.144
-306.866	-46.595	-0.193	0.094
-305.851	-200.000	-0.048	0.224
-304.837	-85.094	-0.353	0.109
-303.822	-78.729	-0.369	0.125
-302.807	-200.000	-0.005	0.253
-301.793	800.000	-0.032	0.133
-300.778	81.733	-0.015	0.016
-299.764	66.345	0.162	0.163
-298.749	209.118	-0.100	-0.154
-297.735	108.443	0.114	0.134
-296.720	47.517	-0.103	0.095
-295.705	-200.000	0.055	-0.249
-294.691	762.813	-0.080	-0.215
-293.676	-123.895	0.075	0.012
-292.662	130.310	-0.054	0.069
-291.647	45.807	0.215	0.196
-290.632	-48.602	0.081	0.038
-289.618	-180.246	0.209	0.004
-288.603	-200.000	0.000	-0.198
-287.589	800.000	0.026	0.089
-286.574	-200.000	0.063	0.295
-285.559	800.000	-0.027	-0.109
-284.545	61.959	0.223	-0.220
-283.530	-200.000	0.026	-0.355
-282.516	12.132	0.397	-0.302
-281.501	-200.000	0.018	-0.181
-280.486	-200.000	-0.037	0.188
-279.472	-200.000	-0.024	0.118
-278.457	800.000	-0.129	0.388
-277.443	18.960	0.065	0.051
-276.428	-59.717	-0.213	0.090
-275.413	-200.000	0.033	0.266
-274.399	-200.000	-0.028	0.294
-273.384	-46.249	-0.377	0.183
-272.370	242.367	-0.074	-0.122
-271.355	85.615	-0.121	0.132
-270.340	35.776	-0.201	-0.175
-269.326	256.767	0.122	0.208
-268.311	82.798	0.157	0.169
-267.297	-200.000	0.029	0.150
-266.282	262.040	-0.125	-0.215
-265.267	-200.000	-0.001	0.235
-264.253	-23.476	0.093	0.055
-263.238	139.886	-0.252	-0.328
-262.224	-17.119	0.235	-0.146
-261.209	64.937	-0.441	0.440
-260.195	42.795	-0.262	0.236
-259.180	800.000	-0.069	0.211
-258.165	75.062	-0.311	0.323
-257.151	176.133	0.020	0.029
-256.136	800.000	-0.066	-0.279
-255.122	78.172	0.172	0.182
-254.107	40.177	0.077	0.068
-253.092	-112.362	0.276	-0.055
-252.078	-200.000	0.013	0.186
-251.063	202.854	0.149	-0.228
-250.049	20.507	-0.105	-0.084
-249.034	-162.083	0.182	-0.009
-248.019	-48.762	-0.319	-0.151
-247.005	-163.987	0.171	-0.008
-245.990	15.449	0.275	0.213
-244.976	-111.460	-0.096	0.019
-243.961	800.000	0.070	0.240
-242.946	-200.000	-0.007	0.112
-241.932	-17.460	-0.280	-0.174
-240.917	162.325	0.054	0.075
-239.903	-200.000	0.036	-0.456
-238.888	54.967	0.103	0.098
-237.873	-69.289	0.227	0.086
-236.859	411.733	-0.058	0.121
-235.844	-200.000	0.079	0.463
-234.830	-95.112	-0.284	-0.076
-233.815	26.211	0.104	0.085
-232.800	-54.313	-0.152	-0.068
-231.786	-74.759	0.090	0.032
-230.771	432.023	-0.116	-0.249
-229.757	-114.149	0.328	-0.063
-228.742	-200.000	-0.002	0.242
-227.727	-83.598	0.150	0.047
-226.713	-179.806	0.044	0.001
-225.698	99.820	-0.127	-0.145
-224.684	-143.700	0.038	-0.004
-223.669	-33.118	0.239	0.130
-222.655	-96.243	-0.310	0.081
-221.640	-200.000	0.042	0.246
-220.625	22.175	-0.231	0.186
-219.611	552.172	0.023	0.056
-218.596	-67.720	0.140	0.054
-217.582	75.150	0.230	0.240
-216.567	10.373	0.394	0.295
-215.552	109.769	0.141	-0.167
-214.538	-200.000	-0.004	0.132
-213.523	573.217	-0.026	-0.062
-212.509	129.695	0.182	0.230
-211.494	-84.188	-0.237	-0.074
-210.479	800.000	0.014	-0.057
-209.465	586.574	-0.051	-0.124
-208.450	-97.752	0.124	-0.032
-207.436	93.890	0.237	0.265
-206.421	-29.280	-0.244	0.137
-205.406	-23.042	0.292	-0.173
-204.392	-200.000	-0.041	-0.213
-203.377	79.075	-0.067	0.071
-202.363	91.979	-0.236	-0.262
-201.348	-200.000	-0.002	-0.234
-200.333	-121.370	0.095	-0.016
-199.319	-84.104	-0.084	0.026
-198.304	-21.803	0.203	0.122
-197.290	17.373	-0.082	-0.064
-196.275	-200.000	0.002	-0.245
-195.260	800.000	-0.047	-0.182
-194.246	-19.509	0.076	-0.046
-193.231	141.979	0.263	-0.343
-192.217	-29.390	-0.271	-0.153
-191.202	221.940	-0.060	-0.095
-190.187	-129.050	0.127	-0.017
-189.173	113.397	0.191	0.228
-188.158	239.299	0.213	0.349
-187.144	2.067	0.229	-0.163
-186.129	-87.311	-0.413	0.124
-185.114	-101.102	0.238	-0.057
-184.100	43.911	-0.366	-0.331
-183.085	-200.000	0.016	0.091
-182.071	-116.741	-0.078	-0.014
-181.056	-84.028	0.302	0.095
-180.042	154.340	0.019	-0.025
-179.027	319.668	-0.187	0.349
-178.012	624.444	0.089	-0.221
-176.998	-200.000	0.009	-0.142
-175.983	344.872	-0.129	-0.249
-174.969	-131.097	-0.317	0.042
-173.954	-38.208	-0.291	-0.152
-172.939	-54.619	-0.260	-0.116
-171.925	-200.000	-0.047	0.264
-170.910	59.384	0.231	-0.224
-169.896	800.000	-0.054	0.176
-168.881	-53.369	-0.159	0.072
-167.866	-72.802	0.115	0.041
-166.852	-47.013	0.163	0.078
-165.837	800.000	0.036	-0.120
-164.823	800.000	-0.041	-0.162
-163.808	800.000	-0.083	-0.337
-162.793	76.110	-0.238	0.248
-161.779	-200.000	-0.060	0.372
-160.764	800.000	0.049	0.148
-159.750	112.586	0.054	-0.064
-158.735	5.397	-0.153	0.111
-157.720	5.196	-0.376	0.273
-156.706	-200.000	0.000	0.362
-155.691	174.352	0.184	0.262
-154.677	800.000	0.089	-0.291
-153.662	115.604	-0.093	-0.112
-152.647	32.565	0.105	-0.089
-151.633	336.662	0.198	-0.378
-150.618	39.632	0.044	0.039
-149.604	305.601	-0.105	0.191
-148.589	207.158	0.114	0.175
-147.574	-164.912	-0.215	-0.009
-146.560	27.829	-0.108	-0.089
-145.545	-113.785	-0.154	-0.030
-144.531	-43.586	-0.090	0.045
-143.516	-200.000	0.003	0.138
-142.502	-60.586	-0.133	-0.056
-141.487	-200.000	-0.068	0.410
-140.472	-200.000	0.027	0.273
-139.458	-200.000	0.025	-0.122
-138.443	172.664	-0.189	-0.268
-137.429	-123.812	-0.353	0.055
-136.414	314.142	0.119	-0.220
-135.399	111.301	0.220	0.261
-134.385	27.776	-0.357	0.296
-133.370	-94.633	-0.131	-0.035
-132.356	29.871	-0.088	-0.074
-131.341	266.761	0.029	0.049
-130.326	-86.566	0.238	0.072
-129.312	-9.767	0.291	-0.191
-128.297	97.051	0.014	-0.016
-127.283	52.476	-0.164	-0.154
-126.268	172.285	-0.187	-0.264
-125.253	21.322	-0.238	0.190
-124.239	783.926	-0.065	0.174
-123.224	800.000	-0.049	-0.194
-122.210	-85.442	-0.293	-0.090
-121.195	0.841	0.210	0.148
-120.180	197.637	-0.093	0.140
-119.166	479.440	-0.097	0.217
-118.151	180.252	-0.062	-0.089
-117.137	38.052	0.165	-0.144
-116.122	-25.255	0.053	0.031
-115.107	-174.733	-0.255	-0.007
-114.093	56.030	0.192	0.183
-113.078	-133.021	-0.315	-0.039
-112.064	-71.431	0.266	0.098
-111.049	634.310	0.052	0.129
-110.034	-11.319	-0.193	-0.125
-109.020	-200.000	-0.053	0.236
-108.005	-151.069	-0.077	0.006
-106.991	740.550	0.076	0.201
-105.976	800.000	0.076	-0.214
-104.962	206.579	0.092	-0.141
-103.947	800.000	0.110	0.394
-102.932	-143.029	0.074	0.007
-101.918	97.507	0.017	-0.020
-100.903	800.000	0.055	-0.179
-99.889	-28.256	-0.143	0.081
-98.874	800.000	0.020	0.076
-97.859	-200.000	-0.040	0.224
-96.845	37.903	0.123	-0.108
-95.830	212.228	0.152	-0.235
-94.816	800.000	-0.105	0.416
-93.801	98.497	-0.035	-0.040
-92.786	200.839	0.226	0.341
-91.772	-44.820	0.209	-0.102
-90.757	-31.134	-0.045	0.025
-89.743	474.245	-0.138	0.305
-88.728	-82.357	-0.446	-0.142
-87.713	105.693	0.172	0.199
-86.699	32.674	-0.080	-0.068
-85.684	-138.668	0.202	-0.022
-84.670	-53.144	-0.106	-0.048
-83.655	-15.865	0.318	0.199
-82.640	-100.395	0.091	-0.022
-81.626	800.000	0.135	-0.373
-80.611	260.036	0.045	0.077
-79.597	9.015	-0.199	0.147
-78.582	512.173	-0.089	-0.202
-77.567	-112.520	0.189	-0.037
-76.553	50.948	0.123	0.115
-75.538	-200.000	-0.022	-0.394
-74.524	97.743	-0.262	0.295
-73.509	249.854	0.133	0.222
-72.494	-36.614	-0.129	0.068
-71.480	408.595	-0.082	0.170
-70.465	618.824	0.074	-0.181
-69.451	-118.935	0.059	0.010
-68.436	-8.569	0.236	-0.156
-67.422	72.486	0.316	-0.323
-66.407	-200.000	-0.031	-0.228
-65.392	800.000	0.107	-0.300
-64.378	169.361	-0.117	0.163
-63.363	-15.210	0.168	0.105
-62.349	-151.717	0.096	-0.007
-61.334	110.924	-0.844	-0.996
-60.319	-49.142	0.758	0.355
-59.305	582.668	-0.428	-1.030
-58.290	305.440	0.528	0.962
-57.276	800.000	0.696	1.958
-56.261	-200.000	111.911	640.072
-55.246	525.868	1516.188	3497.922
-54.232	177.508	2692.162	3842.837
-53.217	112.268	2151.025	2548.199
-52.203	40.646	1598.138	1411.119
-51.188	32.600	1340.655	1135.472
-50.173	29.552	1300.826	1083.835
-49.159	55.408	1357.430	1286.680
-48.144	55.027	1371.955	1298.121
-47.130	32.666	1325.986	1123.263
-46.115	29.249	1307.987	1087.842
-45.100	28.966	1303.324	1082.255
-44.086	28.914	1301.168	1080.119
-43.071	28.836	1298.718	1077.583
-42.057	28.893	1296.570	1076.094
-41.042	28.901	1294.644	1074.495
-40.027	28.875	1293.363	1073.238
-39.013	29.043	1290.985	1072.203
-37.998	28.952	1289.507	1070.404
-36.984	29.039	1287.411	1069.127
-35.969	29.052	1285.900	1067.906
-34.954	29.044	1284.403	1066.574
-33.940	29.078	1282.810	1065.404
-32.925	29.167	1281.755	1065.000
-31.911	29.135	1280.229	1063.506
-30.896	29.106	1279.144	1062.396
-29.881	29.155	1277.543	1061.307
-28.867	29.181	1275.768	1059.938
-27.852	29.157	1274.221	1058.471
-26.838	29.100	1273.021	1057.109
-25.823	29.170	1272.050	1056.660
-24.809	29.105	1270.666	1055.097
-23.794	29.093	1269.099	1053.686
-22.779	29.163	1267.500	1052.714
-21.765	29.113	1266.794	1051.801
-20.750	29.048	1265.661	1050.446
-19.736	29.124	1263.937	1049.409
-18.721	28.970	1262.742	1047.497
-17.706	29.012	1262.013	1047.088
-16.692	29.026	1260.626	1045.977
-15.677	29.099	1259.553	1045.462
-14.663	29.103	1257.904	1044.073
-13.648	28.984	1257.440	1042.973
-12.633	28.987	1256.593	1042.245
-11.619	28.984	1256.003	1041.696
-10.604	28.972	1255.459	1041.137
-9.590	28.929	1253.963	1039.614
-8.575	28.956	1253.072	1038.986
-7.560	29.010	1252.435	1038.717
-6.546	28.892	1251.944	1037.604
-5.531	28.865	1250.786	1036.451
-4.517	28.988	1249.997	1036.450
-3.502	29.052	1248.920	1035.875
-2.487	29.084	1248.228	1035.443
-1.473	28.959	1244.012	1031.204
-0.458	27.317	1228.343	1009.075
0.556	24.258	1209.954	969.668
1.571	20.229	1215.117	951.660
2.586	19.138	1229.379	956.688
3.600	18.682	1217.179	944.604
4.615	14.093	1146.318	865.692
5.629	6.608	1074.717	774.889
6.644	3.486	1056.273	746.432
7.659	3.136	1053.944	743.030
8.673	3.234	1052.671	742.541
9.688	3.184	1051.491	741.403
10.702	3.471	1049.207	741.103
11.717	7.514	1055.109	764.716
12.731	15.296	1065.374	809.807
13.746	19.610	1071.271	835.124
14.761	20.142	1071.143	837.520
15.775	19.346	1068.986	831.918
16.790	18.270	1067.257	825.313
17.804	17.650	1065.628	820.996
18.819	17.261	1064.912	818.499
19.834	17.111	1064.050	817.043
20.848	17.118	1063.134	816.301
21.863	16.821	1062.370	814.213
22.877	16.661	1061.677	812.844
23.892	16.763	1060.772	812.567
24.907	16.655	1060.337	811.642
25.921	16.682	1059.284	810.896
26.936	16.620	1057.730	809.336
27.950	16.695	1056.372	808.583
28.965	16.881	1054.806	808.200
29.980	16.914	1053.677	807.422
30.994	16.970	1052.484	806.702
32.009	17.054	1051.561	806.325
33.023	16.953	1050.772	805.168
34.038	16.893	1049.873	804.125
35.053	16.778	1049.017	802.851
36.067	16.739	1047.984	801.807
37.082	16.861	1047.039	801.588
38.096	16.960	1046.876	801.861
39.111	17.035	1045.714	801.252
40.126	16.736	1044.443	798.800
41.140	16.540	1043.043	796.736
42.155	16.398	1041.733	794.996
43.169	16.476	1040.577	794.409
44.184	16.225	1040.019	792.735
45.199	16.475	1038.263	792.498
46.213	16.552	1037.598	792.281
47.228	16.638	1037.048	792.191
48.242	16.834	1035.662	791.982
49.257	16.745	1035.018	791.003
50.271	16.847	1034.031	790.655
51.286	16.838	1033.394	790.056
52.301	16.825	1032.320	789.105
53.315	16.607	1031.433	787.339
54.330	16.693	1030.028	786.596
55.344	16.706	1029.011	785.812
56.359	16.692	1028.431	785.235
57.374	16.586	1027.769	784.171
58.388	16.397	1026.629	782.355
59.403	16.368	1026.120	781.764
60.417	16.405	1025.026	781.031
61.432	16.281	1024.619	780.079
62.447	16.308	1023.498	779.281
63.461	16.277	1022.659	778.432
64.476	16.315	1021.658	777.776
65.490	16.216	1020.897	776.671
66.505	16.250	1020.975	776.817
67.520	16.266	1019.907	776.012
68.534	16.406	1019.094	775.968
69.549	16.278	1018.330	774.728
70.563	16.116	1017.259	773.103
71.578	16.148	1016.539	772.635
72.593	16.294	1015.504	772.446
73.607	16.135	1015.077	771.326
74.622	16.195	1014.283	770.929
75.636	16.133	1013.587	770.046
76.651	16.181	1013.228	769.926
77.666	16.248	1012.236	769.409
78.680	16.185	1011.717	768.659
79.695	16.172	1011.369	768.270
80.709	16.407	1010.526	768.631
81.724	16.491	1010.145	768.655
82.739	16.548	1009.437	768.308
83.753	16.753	1008.362	768.348
84.768	17.071	1007.380	768.975
85.782	17.076	1006.852	768.527
86.797	16.998	1006.371	767.740
87.812	16.860	1004.907	765.931
88.826	16.870	1004.227	765.388
89.841	16.880	1003.925	765.134
90.855	16.970	1002.763	764.589
91.870	17.002	1001.961	764.056
92.884	16.933	1001.002	762.946
93.899	17.065	999.954	762.670
94.914	17.110	999.487	762.449
95.928	17.018	998.633	761.320
96.943	16.965	997.975	760.511
97.957	16.904	996.703	759.201
98.972	16.925	996.099	758.766
99.987	16.867	995.107	757.687
101.001	16.816	994.382	756.840
102.016	16.953	993.087	756.397
103.030	16.956	992.648	756.008
104.045	16.898	992.119	755.280
105.060	16.905	990.851	754.282
106.074	16.626	989.886	752.238
107.089	16.376	988.777	750.220
108.103	16.392	987.731	749.429
109.118	16.469	986.581	748.833
110.133	16.226	986.062	747.297
111.147	16.267	985.049	746.645
112.162	16.398	984.199	746.512
113.176	16.518	983.824	746.692
114.191	16.695	982.692	746.550
115.206	16.652	981.851	745.651
116.220	16.520	981.264	744.560
117.235	16.492	980.365	743.691
118.249	16.538	979.131	742.889
119.264	16.433	978.395	741.806
120.279	16.277	977.708	740.534
121.293	16.282	976.869	739.853
122.308	16.285	975.685	738.904
123.322	16.194	974.845	737.807
124.337	16.137	973.637	736.576
125.352	16.207	972.769	736.162
126.366	16.197	971.859	735.366
127.381	16.312	970.355	734.662
128.395	16.338	969.447	734.023
129.410	16.410	968.991	733.926
130.424	16.371	968.524	733.338
131.439	16.430	967.762	732.949
132.454	16.548	967.198	732.971
133.468	16.589	966.104	732.252
134.483	16.544	965.305	731.389
135.497	16.544	964.682	730.850
136.512	16.570	963.608	730.088
137.527	16.584	962.535	729.270
138.541	16.572	961.913	728.682
139.556	16.862	961.181	729.308
140.570	16.670	960.980	728.266
141.585	16.929	960.084	728.636
142.600	16.884	959.342	727.816
143.614	16.901	958.957	727.532
144.629	16.980	957.957	727.046
145.643	16.971	956.768	726.043
146.658	16.830	955.406	724.342
147.673	16.580	954.936	722.853
148.687	16.604	953.865	722.081
149.702	16.523	953.121	721.110
150.716	16.418	952.470	720.107
151.731	16.619	951.616	720.253
152.746	16.630	950.777	719.599
153.760	16.663	950.558	719.509
154.775	16.934	949.954	720.141
155.789	16.831	949.292	719.139
156.804	16.834	948.336	718.365
157.819	17.096	947.272	718.604
158.833	16.981	947.299	718.073
159.848	17.249	946.213	718.320
160.862	16.946	945.481	716.420
161.877	16.843	944.033	714.827
162.892	16.576	943.357	713.125
163.906	16.619	942.077	712.273
164.921	16.626	941.390	711.721
165.935	16.750	940.487	711.497
166.950	16.670	940.093	710.799
167.964	16.916	938.861	710.837
168.979	16.792	938.307	709.837
169.994	16.686	937.523	708.736
171.008	16.873	936.540	708.712
172.023	17.045	935.794	708.801
173.037	17.131	935.713	709.037
174.052	16.868	934.524	706.976
175.067	16.691	933.850	705.667
176.081	16.720	932.969	705.060
177.096	16.762	932.590	704.887
178.110	16.790	931.856	704.387
179.125	16.653	931.783	703.697
180.140	16.951	931.042	704.312
181.154	16.895	930.865	703.885
182.169	16.971	930.387	703.777
183.183	17.079	929.564	703.540
184.198	17.065	929.018	703.005
185.213	17.109	927.837	702.233
186.227	17.180	927.558	702.250
187.242	17.261	926.938	702.055
188.256	17.405	925.967	701.851
189.271	17.345	925.500	701.187
190.286	16.968	924.537	698.844
191.300	16.600	923.748	696.672
192.315	16.526	923.334	695.992
193.329	16.666	922.584	695.942
194.344	16.780	922.070	695.960
195.359	16.903	921.616	696.061
196.373	17.086	920.659	696.028
197.388	17.259	920.487	696.544
198.402	17.317	920.499	696.730
199.417	17.503	919.748	696.861
200.432	17.614	918.848	696.573
201.446	17.610	918.824	696.474
202.461	17.627	918.105	695.935
203.475	17.481	917.693	694.970
204.490	17.397	916.667	693.786
205.504	17.380	915.699	692.924
206.519	17.219	915.328	691.926
207.534	17.305	914.319	691.454
208.548	17.339	913.721	691.075
209.563	17.235	913.437	690.379
210.577	17.485	912.380	690.532
211.592	17.512	912.090	690.359
212.607	17.592	911.060	689.846
213.621	17.420	910.444	688.620
214.636	17.496	909.535	688.180
215.650	17.497	909.088	687.783
216.665	17.643	908.552	687.909
217.680	17.652	908.003	687.469
218.694	17.780	907.027	687.184
219.709	17.717	906.577	686.526
220.723	17.568	905.899	685.355
221.738	17.474	905.431	684.563
222.753	17.542	904.846	684.330
223.767	17.838	904.069	684.871
224.782	17.812	903.525	684.294
225.796	17.820	902.937	683.819
226.811	17.773	902.251	683.053
227.826	17.737	901.284	682.117
228.840	17.633	900.954	681.390
229.855	17.641	899.727	680.434
230.869	17.567	899.407	679.837
231.884	17.496	898.515	678.820
232.899	17.575	897.885	678.596
233.913	17.480	896.801	677.340
234.928	17.384	896.594	676.743
235.942	17.304	895.951	675.879
236.957	17.443	895.006	675.658
237.972	17.452	894.498	675.249
238.986	17.457	894.094	674.906
240.001	17.448	893.587	674.427
241.015	17.495	893.139	674.218
242.030	17.671	892.406	674.299
243.045	17.569	891.779	673.365
244.059	17.663	891.342	673.346
245.074	17.595	891.090	672.826
246.088	17.715	890.080	672.479
247.103	17.943	889.421	672.819
248.117	18.072	889.097	673.023
249.132	18.215	888.699	673.225
250.147	18.323	888.071	673.115
251.161	18.261	887.722	672.547
252.176	18.424	886.727	672.374
253.190	18.505	886.141	672.186
254.205	18.362	885.330	670.952
255.220	18.287	885.173	670.478
256.234	18.381	884.380	670.188
257.249	18.372	883.814	669.664
258.263	18.436	882.715	669.020
259.278	18.351	882.275	668.296
260.293	18.493	881.580	668.265
261.307	18.407	881.474	667.791
262.322	18.572	880.657	667.755
263.336	18.546	879.701	666.870
264.351	18.551	878.986	666.289
265.366	18.618	878.294	665.966
266.380	18.561	877.989	665.455
267.395	18.520	877.376	664.771
268.409	18.443	876.473	663.728
269.424	18.326	875.857	662.750
270.439	18.401	874.811	662.192
271.453	18.414	873.824	661.434
272.468	18.289	874.046	661.062
273.482	18.339	873.183	660.546
274.497	18.482	872.453	660.484
275.512	18.243	872.224	659.332
276.526	18.458	871.460	659.522
277.541	18.492	871.381	659.536
278.555	18.565	870.757	659.287
279.570	18.856	870.118	659.863
280.585	18.823	869.119	658.921
281.599	18.508	868.356	657.077
282.614	18.452	867.938	656.485
283.628	18.605	867.097	656.377
284.643	18.449	866.899	655.572
285.657	18.527	866.099	655.207
286.672	18.615	865.361	654.929
287.687	18.592	864.845	654.390
288.701	18.636	863.976	653.844
289.716	18.574	863.710	653.348
290.730	18.538	863.200	652.769
291.745	18.677	862.546	652.742
292.760	18.785	861.949	652.643
293.774	19.028	861.288	653.008
294.789	18.780	860.518	651.427
295.803	18.816	859.876	651.019
296.818	18.702	858.999	649.866
297.833	18.658	858.685	649.407
298.847	18.686	858.074	648.992
299.862	18.739	857.681	648.837
300.876	18.967	856.681	648.884
301.891	19.034	856.347	648.824
302.906	19.009	856.252	648.603
303.920	19.225	855.265	648.610
304.935	19.273	854.645	648.265
305.949	19.063	854.445	647.266
306.964	18.956	853.653	646.204
307.979	18.972	853.374	645.996
308.993	19.156	852.537	645.998
310.008	19.109	852.366	645.635
311.022	19.132	851.511	645.015
312.037	18.922	850.527	643.428
313.052	18.863	849.972	642.730
314.066	18.765	849.592	642.020
315.081	18.686	848.978	641.203
316.095	18.894	848.172	641.313
317.110	18.702	847.950	640.374
318.125	18.764	847.148	639.943
319.139	18.923	846.779	640.199
320.154	18.812	846.319	639.381
321.168	18.829	845.941	639.102
322.183	18.967	845.277	639.057
323.197	18.895	844.699	638.295
324.212	18.918	844.208	637.955
325.227	18.900	843.799	637.520
326.241	18.857	843.442	637.035
327.256	18.896	842.567	636.463
328.270	18.853	841.920	635.758
329.285	18.788	841.367	635.046
330.300	18.824	840.875	634.750
331.314	18.867	840.589	634.637
332.329	19.088	840.152	635.066
333.343	18.838	839.936	633.925
334.358	19.179	838.915	634.352
335.373	19.110	838.948	634.068
336.387	19.101	838.686	633.782
337.402	19.257	838.277	633.989
338.416	19.299	838.236	634.060
339.431	19.393	837.336	633.666
340.446	19.406	837.405	633.710
341.460	19.504	837.155	633.826
342.475	19.711	836.331	633.904
343.489	19.537	835.647	632.692
344.504	19.705	835.467	633.114
345.519	19.770	834.933	632.893
346.533	19.733	833.988	631.986
347.548	19.482	833.911	630.952
348.562	19.373	833.158	629.928
349.577	19.208	832.464	628.746
350.592	19.220	831.993	628.381
351.606	19.214	831.373	627.834
352.621	19.045	830.846	626.764
353.635	19.325	829.915	627.023
354.650	19.389	829.245	626.694
355.665	19.444	829.129	626.753
356.679	19.497	828.123	626.130
357.694	19.527	827.263	625.532
358.708	19.643	826.512	625.327
359.723	19.568	825.902	624.541
360.738	19.509	825.884	624.257
361.752	19.525	825.499	623.970
362.767	19.698	824.860	624.058
363.781	19.733	824.293	623.699
364.796	19.859	824.022	623.892
365.810	19.937	823.650	623.836
366.825	19.867	823.658	623.536
367.840	19.989	822.516	623.056
368.854	19.843	822.067	622.134
369.869	19.819	822.126	622.038
370.883	19.777	821.362	621.255
371.898	19.919	821.276	621.645
372.913	20.027	820.500	621.390
373.927	19.934	819.728	620.416
374.942	19.921	819.277	619.975
375.956	20.089	818.858	620.201
376.971	20.059	819.045	620.181
377.986	20.159	818.297	619.918
379.000	20.312	817.508	619.812
380.015	20.144	817.604	619.231
381.029	20.224	816.802	618.853
382.044	20.189	816.071	618.119
383.059	20.244	815.730	618.002
384.073	20.033	814.571	616.321
385.088	20.072	814.119	616.061
386.102	19.855	813.701	614.919
387.117	19.906	813.005	614.521
388.132	19.861	812.699	614.076
389.146	20.073	812.012	614.254
390.161	20.299	811.581	614.673
391.175	20.278	811.086	614.169
392.190	20.060	810.713	613.062
393.205	20.027	810.037	612.379
394.219	20.041	809.577	612.027
395.234	19.985	809.028	611.361
396.248	19.992	808.504	610.934
397.263	19.782	808.285	609.974
398.278	19.812	807.748	609.621
399.292	19.965	807.338	609.795
400.307	19.849	807.047	609.115
401.321	19.947	806.558	609.037
402.336	19.828	806.717	608.683
403.350	20.085	805.854	608.882
404.365	20.085	805.517	608.573
405.380	20.467	804.855	609.358
406.394	20.237	804.717	608.393
407.409	20.336	804.509	608.532
408.423	20.563	803.952	608.851
409.438	20.549	803.570	608.459
410.453	20.588	802.647	607.841
411.467	20.541	802.771	607.719
412.482	20.641	802.137	607.534
413.496	20.849	801.637	607.826
414.511	20.761	801.415	607.298
415.526	20.621	801.083	606.503
416.540	20.489	800.626	605.645
417.555	20.524	800.089	605.308
418.569	20.583	799.906	605.319
419.584	20.637	799.278	604.980
420.599	20.694	798.685	604.673
421.613	161.602	1372.605	1796.206
422.628	140.232	1456.217	1796.279
