DTS Sentinel unit serial number:	SN413079Multiplexer serial number:	ORYXHardware model number:	OX4-SRSoftware version number:	ORYX F/W v4.00 Oryx Data Collector v3.7.2.0data status	okinstallation	princeton_trtdifferential loss correction	single-endedforward channel	channel 1reverse channel	N/Adate	2019/09/19time	13:46:35forward acquisition time	60.00reverse acquisition time	0.00gamma	496.2192k internal	0.2325k external	0.2325temperature offset calibration	1.0017default loss term (dB/km)	0.3790temperature slope calibration	1.0000multiplexer offset coefficient	1.0000multiplexer slope coefficient	1.0000fibre end	0.00T internal ref (°C)	30.61T ext. ref 1 (°C)	1.00T ext. ref 2 (°C)	27.94length (m)	temperature (°C)	Stokes	anti-Stokes-747.200	-200.000	0.081	-0.358
-746.185	135.025	-0.243	0.319
-745.171	762.843	-0.089	0.245
-744.156	-30.441	0.180	0.103
-743.142	339.909	0.123	-0.243
-742.127	-39.898	-0.180	0.095
-741.112	63.287	-0.139	-0.141
-740.098	-200.000	-0.040	0.289
-739.083	469.307	0.100	0.227
-738.069	164.911	-0.069	0.098
-737.054	-200.000	-0.017	-0.141
-736.039	-146.847	0.161	0.014
-735.025	-92.554	0.490	0.139
-734.010	-151.119	-0.346	-0.026
-732.996	-7.941	-0.251	-0.171
-731.981	29.168	0.253	-0.216
-730.966	-200.000	-0.016	0.253
-729.952	188.828	0.106	-0.159
-728.937	117.711	-0.188	0.233
-727.923	-37.738	0.151	-0.081
-726.908	277.688	0.239	-0.429
-725.894	800.000	0.045	-0.133
-724.879	-175.743	-0.214	-0.006
-723.864	-200.000	-0.000	-0.497
-722.850	575.089	-0.046	-0.113
-721.835	-12.560	0.182	-0.120
-720.821	-93.227	-0.297	-0.083
-719.806	64.887	-0.250	-0.254
-718.791	800.000	-0.128	-0.467
-717.777	-138.712	0.095	0.010
-716.762	510.345	0.020	0.046
-715.748	-200.000	0.218	0.001
-714.733	209.343	-0.064	-0.101
-713.718	32.404	0.099	-0.086
-712.704	78.213	-0.226	-0.243
-711.689	220.525	0.150	0.243
-710.675	800.000	-0.019	-0.074
-709.660	538.288	0.046	-0.109
-708.645	-132.558	0.106	0.014
-707.631	211.823	0.109	0.173
-706.616	-43.358	-0.228	-0.116
-705.602	-42.222	0.184	-0.095
-704.587	-200.000	0.019	-0.155
-703.572	108.293	0.145	0.174
-702.558	-200.000	-0.016	-0.113
-701.543	800.000	-0.039	-0.154
-700.529	359.162	-0.067	0.135
-699.514	-161.526	0.325	0.017
-698.499	-154.571	0.363	-0.024
-697.485	12.072	0.202	-0.157
-696.470	-117.210	0.449	0.082
-695.456	151.628	0.112	-0.153
-694.441	-137.201	-0.377	0.043
-693.426	-200.000	0.019	0.391
-692.412	800.000	-0.033	0.096
-691.397	19.130	0.216	0.174
-690.383	-139.318	-0.176	0.019
-689.368	-146.437	-0.134	0.012
-688.354	-9.761	-0.253	0.170
-687.339	-200.000	-0.019	0.269
-686.324	278.247	-0.133	-0.238
-685.310	-101.066	-0.188	0.046
-684.295	101.604	-0.222	-0.260
-683.281	-200.000	-0.011	-0.232
-682.266	-144.395	-0.191	0.018
-681.251	-200.000	0.030	-0.168
-680.237	84.068	-0.267	-0.294
-679.222	-200.000	-0.016	0.137
-678.208	-55.616	-0.029	0.013
-677.193	-200.000	-0.013	-0.080
-676.178	-155.141	-0.167	-0.011
-675.164	-49.224	-0.065	-0.031
-674.149	-73.646	-0.059	-0.022
-673.135	103.695	-0.223	0.263
-672.120	301.298	0.093	-0.173
-671.105	-143.839	-0.059	-0.006
-670.091	-38.300	0.166	0.089
-669.076	-154.670	-0.252	-0.017
-668.062	-200.000	-0.063	-0.440
-667.047	394.591	0.085	-0.179
-666.032	-200.000	-0.013	0.308
-665.018	-200.000	0.037	-0.177
-664.003	-164.438	-0.130	-0.006
-662.989	800.000	0.027	0.095
-661.974	-43.076	0.246	0.125
-660.959	-165.665	-0.329	0.014
-659.945	-108.501	0.189	0.041
-658.930	26.987	0.135	0.114
-657.916	-18.640	-0.234	-0.147
-656.901	52.373	0.084	-0.081
-655.886	-91.403	0.108	0.031
-654.872	-89.666	-0.108	-0.032
-653.857	-200.000	-0.037	-0.363
-652.843	323.652	-0.186	0.358
-651.828	-127.708	0.178	0.026
-650.814	432.185	0.090	-0.195
-649.799	-30.420	0.143	0.082
-648.784	-125.910	-0.122	0.018
-647.770	-129.144	0.110	0.015
-646.755	12.365	-0.261	-0.202
-645.741	137.310	-0.133	-0.175
-644.726	106.527	-0.069	-0.083
-643.711	47.825	-0.242	0.227
-642.697	-66.944	0.253	0.100
-641.682	-115.878	0.373	0.070
-640.668	327.796	-0.115	-0.222
-639.653	-56.801	-0.227	0.101
-638.638	-150.030	0.388	0.030
-637.624	800.000	-0.026	-0.090
-636.609	-45.042	0.018	0.009
-635.595	266.705	0.123	-0.215
-634.580	800.000	-0.106	0.406
-633.565	-200.000	-0.015	-0.194
-632.551	86.209	0.213	0.236
-631.536	800.000	0.078	0.262
-630.522	-139.605	-0.082	0.009
-629.507	-200.000	0.010	0.119
-628.492	-173.406	-0.031	0.001
-627.478	-111.132	-0.363	0.075
-626.463	-200.000	-0.020	0.134
-625.449	226.335	0.148	0.241
-624.434	334.144	-0.123	-0.239
-623.419	230.764	0.104	0.170
-622.405	84.924	0.053	0.058
-621.390	49.313	-0.014	-0.014
-620.376	262.783	-0.048	0.084
-619.361	-8.797	0.113	0.076
-618.346	-200.000	0.014	-0.134
-617.332	51.968	0.116	-0.111
-616.317	32.930	-0.081	-0.071
-615.303	1.760	-0.119	-0.086
-614.288	-200.000	0.006	-0.189
-613.273	-200.000	0.008	-0.098
-612.259	217.913	-0.059	0.094
-611.244	-112.574	0.188	0.038
-610.230	7.878	-0.215	-0.162
-609.215	-200.000	-0.032	0.236
-608.201	800.000	-0.041	0.140
-607.186	152.957	0.134	0.184
-606.171	42.749	0.394	-0.360
-605.157	195.148	0.083	-0.126
-604.142	-200.000	0.024	0.132
-603.128	36.129	0.178	-0.157
-602.113	-81.595	-0.298	-0.098
-601.098	121.881	-0.084	-0.105
-600.084	800.000	-0.071	-0.217
-599.069	-131.824	0.122	0.016
-598.055	179.120	-0.040	-0.058
-597.040	8.087	-0.247	-0.186
-596.025	437.083	-0.115	0.252
-595.011	29.482	-0.317	-0.270
-593.996	-48.126	0.202	-0.098
-592.982	22.082	-0.010	-0.008
-591.967	84.680	-0.282	0.310
-590.952	643.094	-0.077	0.196
-589.938	-200.000	-0.014	-0.150
-588.923	202.641	-0.107	-0.165
-587.909	800.000	-0.096	-0.291
-586.894	-190.175	0.268	-0.003
-585.879	-51.453	-0.113	-0.053
-584.865	142.722	-0.075	-0.100
-583.850	-200.000	-0.007	0.069
-582.836	59.324	-0.124	-0.122
-581.821	3.754	0.167	-0.122
-580.806	-81.261	0.543	-0.180
-579.792	-96.675	0.361	0.095
-578.777	261.506	0.021	0.036
-577.763	-8.840	0.109	-0.073
-576.748	-0.797	0.158	0.112
-575.733	96.468	0.070	-0.080
-574.719	68.254	0.148	0.152
-573.704	-200.000	-0.004	-0.106
-572.690	-76.152	0.230	0.081
-571.675	167.811	0.106	0.152
-570.661	-200.000	0.017	0.087
-569.646	782.590	0.120	-0.329
-568.631	13.563	0.147	-0.114
-567.617	236.736	0.164	-0.271
-566.602	113.485	0.245	0.298
-565.588	652.781	-0.066	-0.170
-564.573	-29.702	0.258	0.148
-563.558	-16.084	0.199	0.126
-562.544	-91.968	0.332	-0.094
-561.529	23.657	0.036	0.030
-560.515	-200.000	-0.034	0.183
-559.500	49.943	-0.168	-0.159
-558.485	800.000	-0.042	0.145
-557.471	-157.905	0.142	-0.008
-556.456	800.000	-0.115	-0.338
-555.442	-135.010	-0.158	0.019
-554.427	568.545	0.111	0.270
-553.412	-115.302	-0.333	-0.063
-552.398	-200.000	0.018	-0.301
-551.383	800.000	0.012	0.037
-550.369	-84.386	-0.188	0.060
-549.354	-111.999	0.219	0.044
-548.339	261.140	-0.201	-0.348
-547.325	146.923	0.235	-0.316
-546.310	571.451	-0.065	-0.157
-545.296	187.065	-0.071	-0.106
-544.281	-200.000	-0.028	-0.269
-543.266	681.240	0.127	-0.330
-542.252	800.000	0.049	-0.178
-541.237	-78.919	-0.324	0.111
-540.223	-57.603	0.119	0.052
-539.208	-36.511	0.074	-0.040
-538.193	-200.000	-0.008	0.190
-537.179	67.525	-0.239	0.244
-536.164	168.448	0.042	0.060
-535.150	-42.743	-0.143	-0.073
-534.135	-11.608	-0.228	0.150
-533.121	-196.213	0.051	0.000
-532.106	710.753	0.052	-0.137
-531.091	-118.551	-0.471	0.083
-530.077	-200.000	0.020	0.219
-529.062	800.000	0.044	-0.130
-528.048	-200.000	0.001	0.174
-527.033	10.709	-0.087	0.066
-526.018	125.507	0.131	-0.165
-525.004	-200.000	-0.002	0.039
-523.989	-145.375	-0.240	0.022
-522.975	-156.647	-0.246	-0.015
-521.960	260.068	-0.194	0.336
-520.945	525.983	0.043	0.101
-519.931	382.426	0.339	0.698
-518.916	311.141	0.201	0.376
-517.902	117.267	-0.156	-0.192
-516.887	-136.045	-0.094	0.011
-515.872	54.874	0.079	-0.076
-514.858	800.000	0.068	-0.278
-513.843	731.236	0.135	-0.360
-512.829	612.041	-0.098	-0.245
-511.814	-200.000	0.050	0.249
-510.799	139.237	-0.154	-0.202
-509.785	607.024	0.173	-0.432
-508.770	-196.323	0.122	-0.001
-507.756	-29.662	-0.126	-0.072
-506.741	-94.020	-0.230	-0.063
-505.726	-90.492	0.259	0.075
-504.712	449.464	0.092	0.202
-503.697	-45.730	0.194	0.096
-502.683	-104.034	0.111	-0.026
-501.668	-55.231	0.224	-0.101
-500.653	338.499	-0.150	0.291
-499.639	-79.043	0.247	-0.084
-498.624	362.498	-0.075	0.150
-497.610	-200.000	-0.054	0.270
-496.595	131.247	-0.079	-0.102
-495.581	797.995	-0.087	0.239
-494.566	-200.000	-0.008	-0.124
-493.551	-200.000	-0.018	-0.170
-492.537	-22.788	-0.190	0.115
-491.522	-120.334	-0.114	0.019
-490.508	-104.609	-0.223	0.051
-489.493	-80.909	0.360	-0.119
-488.478	-200.000	-0.034	-0.319
-487.464	-13.089	-0.310	-0.201
-486.449	260.188	0.275	-0.475
-485.435	-52.289	0.043	-0.020
-484.420	-80.405	0.131	-0.044
-483.405	126.732	0.228	-0.289
-482.391	-67.762	-0.075	0.029
-481.376	0.659	-0.282	0.202
-480.362	671.626	0.058	-0.151
-479.347	-137.637	-0.208	-0.023
-478.332	800.000	-0.082	0.285
-477.318	-200.000	-0.062	0.281
-476.303	318.470	0.099	0.188
-475.289	31.631	-0.219	-0.188
-474.274	-48.720	0.063	-0.030
-473.259	520.539	0.146	-0.341
-472.245	241.452	0.072	-0.120
-471.230	-66.045	0.166	0.066
-470.216	-200.000	-0.007	0.138
-469.201	800.000	0.051	-0.155
-468.186	10.650	-0.103	0.078
-467.172	-108.814	-0.254	0.054
-466.157	-200.000	0.021	0.179
-465.143	-200.000	0.027	-0.172
-464.128	-149.881	0.146	-0.011
-463.113	-59.067	0.140	0.060
-462.099	-200.000	-0.052	0.270
-461.084	623.168	-0.076	0.192
-460.070	-179.897	-0.211	0.005
-459.055	-12.154	-0.210	0.137
-458.040	-24.681	0.089	-0.053
-457.026	-72.066	-0.180	-0.067
-456.011	-32.608	-0.167	0.093
-454.997	36.726	-0.152	-0.134
-453.982	-200.000	-0.019	-0.331
-452.968	72.284	-0.150	0.156
-451.953	800.000	-0.035	0.128
-450.938	238.480	0.089	0.147
-449.924	139.218	0.177	0.232
-448.909	-137.093	-0.036	0.004
-447.895	79.955	0.194	-0.208
-446.880	-200.000	0.019	0.205
-445.865	800.000	0.038	-0.154
-444.851	90.668	0.077	-0.086
-443.836	-106.583	-0.170	0.038
-442.822	232.105	-0.058	0.094
-441.807	-21.115	-0.186	0.114
-440.792	-43.680	0.158	0.080
-439.778	18.645	0.098	0.078
-438.763	-47.951	-0.450	-0.217
-437.749	-136.958	-0.259	-0.030
-436.734	10.656	0.294	0.223
-435.719	-114.597	-0.046	-0.009
-434.705	-90.655	-0.240	-0.069
-433.690	464.087	0.072	0.161
-432.676	44.609	0.243	-0.223
-431.661	-46.694	-0.134	0.066
-430.646	643.677	-0.111	-0.281
-429.632	311.564	0.146	-0.272
-428.617	-23.482	-0.057	-0.034
-427.603	-46.015	0.508	0.250
-426.588	-145.634	-0.395	0.035
-425.573	8.137	-0.283	-0.212
-424.559	-11.477	-0.130	-0.085
-423.544	-200.000	-0.021	-0.431
-422.530	-39.120	-0.111	-0.058
-421.515	90.388	-0.142	-0.158
-420.500	-112.658	0.264	0.052
-419.486	-42.860	0.248	0.125
-418.471	-200.000	0.045	0.276
-417.457	-91.217	-0.232	0.066
-416.442	-200.000	0.042	-0.214
-415.428	27.702	-0.129	-0.109
-414.413	51.617	0.289	-0.274
-413.398	77.788	-0.394	0.418
-412.384	800.000	0.121	-0.368
-411.369	45.320	0.080	-0.074
-410.355	-92.688	0.265	-0.074
-409.340	-51.551	-0.214	0.100
-408.325	-79.918	-0.336	0.112
-407.311	-165.995	-0.502	-0.021
-406.296	-85.173	0.166	0.052
-405.282	800.000	-0.051	-0.190
-404.267	800.000	-0.066	-0.195
-403.252	3.638	-0.143	0.104
-402.238	-40.419	-0.149	-0.077
-401.223	106.291	-0.138	0.163
-400.209	55.992	-0.202	0.195
-399.194	-104.824	0.243	0.056
-398.179	142.963	-0.244	0.322
-397.165	-31.365	-0.100	-0.056
-396.150	287.742	-0.114	-0.206
-395.136	-81.210	0.092	0.030
-394.121	227.434	0.049	0.079
-393.106	105.561	-0.164	0.193
-392.092	95.348	-0.054	0.061
-391.077	68.770	-0.070	0.072
-390.063	296.406	-0.285	0.521
-389.048	103.018	-0.234	0.273
-388.033	508.550	0.043	0.099
-387.019	69.092	-0.270	0.276
-386.004	800.000	0.091	0.308
-384.990	-200.000	0.012	-0.229
-383.975	800.000	-0.075	0.259
-382.960	-180.250	0.131	0.003
-381.946	752.737	0.041	0.110
-380.931	800.000	0.029	-0.120
-379.917	83.248	-0.169	0.183
-378.902	-52.439	0.100	0.046
-377.888	-66.905	-0.226	-0.089
-376.873	-9.550	0.208	0.138
-375.858	-62.494	0.126	-0.052
-374.844	-120.742	-0.108	-0.018
-373.829	-71.132	0.131	0.049
-372.815	-25.714	-0.270	-0.158
-371.800	-174.306	0.067	0.002
-370.785	800.000	-0.091	0.375
-369.771	65.891	0.047	-0.047
-368.756	-200.000	-0.014	-0.080
-367.742	-200.000	-0.015	0.163
-366.727	369.296	0.177	-0.356
-365.712	-200.000	-0.037	-0.214
-364.698	223.828	0.302	-0.484
-363.683	465.961	0.178	-0.396
-362.669	-130.870	0.107	0.014
-361.654	168.771	-0.139	0.197
-360.639	-200.000	-0.000	-0.104
-359.625	800.000	0.077	-0.266
-358.610	-124.668	0.211	-0.032
-357.596	-200.000	-0.026	0.152
-356.581	-200.000	-0.002	-0.339
-355.566	551.863	0.032	-0.075
-354.552	-47.214	0.040	-0.019
-353.537	-83.340	-0.033	0.010
-352.523	-158.348	-0.173	0.010
-351.508	-114.767	0.103	0.020
-350.493	89.331	0.144	-0.159
-349.479	-200.000	-0.013	-0.102
-348.464	54.714	-0.039	0.037
-347.450	800.000	-0.105	0.441
-346.435	-200.000	-0.007	0.053
-345.420	159.860	-0.054	-0.075
-344.406	800.000	0.075	-0.211
-343.391	361.522	0.017	-0.033
-342.377	-101.339	-0.586	0.142
-341.362	1.119	-0.164	0.117
-340.348	114.636	0.111	0.135
-339.333	800.000	0.059	-0.177
-338.318	356.133	0.060	0.119
-337.304	2.261	-0.123	-0.088
-336.289	-141.276	0.157	-0.016
-335.275	486.060	-0.088	0.199
-334.260	-200.000	0.032	-0.319
-333.245	365.572	-0.057	-0.113
-332.231	194.540	-0.034	-0.051
-331.216	210.968	-0.140	0.219
-330.202	51.467	0.189	0.178
-329.187	148.889	-0.160	-0.214
-328.172	-17.301	0.271	0.169
-327.158	101.568	0.084	-0.097
-326.143	-115.735	0.153	-0.028
-325.129	73.222	0.084	0.087
-324.114	-200.000	0.033	0.189
-323.099	42.493	-0.050	-0.045
-322.085	46.237	-0.044	-0.040
-321.070	-200.000	0.016	-0.372
-320.056	-139.605	0.352	-0.037
-319.041	-200.000	0.031	0.228
-318.026	-200.000	0.004	0.160
-317.012	169.273	-0.239	-0.339
-315.997	215.494	0.063	0.100
-314.983	189.343	0.081	0.121
-313.968	-200.000	-0.011	-0.106
-312.953	33.729	0.150	0.129
-311.939	-0.021	-0.062	0.044
-310.924	32.877	0.053	-0.046
-309.910	-200.000	0.042	-0.220
-308.895	-88.543	-0.225	0.067
-307.880	580.726	0.058	-0.141
-306.866	800.000	0.104	0.334
-305.851	138.647	-0.049	0.064
-304.837	-102.509	0.276	-0.065
-303.822	-22.329	0.101	-0.061
-302.807	-4.750	0.160	-0.110
-301.793	-126.830	-0.258	-0.038
-300.778	-9.008	-0.316	0.210
-299.764	43.232	0.207	0.188
-298.749	800.000	0.042	-0.164
-297.735	82.135	0.137	-0.147
-296.720	-7.475	0.255	-0.171
-295.705	800.000	-0.056	-0.228
-294.691	800.000	-0.088	-0.315
-293.676	-200.000	0.030	-0.271
-292.662	-13.490	-0.151	0.097
-291.647	119.246	-0.171	0.210
-290.632	-9.864	-0.193	-0.127
-289.618	-41.366	-0.185	-0.094
-288.603	-82.232	-0.317	-0.102
-287.589	-31.947	-0.212	0.117
-286.574	66.009	0.239	0.240
-285.559	213.005	-0.050	-0.078
-284.545	14.628	-0.079	0.061
-283.530	-107.740	0.310	-0.067
-282.516	-10.617	-0.155	0.101
-281.501	-42.704	0.111	0.056
-280.486	51.402	0.107	-0.101
-279.472	800.000	0.066	-0.228
-278.457	-65.726	-0.290	0.115
-277.443	-200.000	0.018	0.379
-276.428	-146.943	0.098	0.008
-275.413	372.002	0.144	0.290
-274.399	-200.000	0.033	-0.192
-273.384	-200.000	0.016	0.233
-272.370	-107.922	0.148	0.032
-271.355	-102.612	-0.172	-0.041
-270.340	-44.368	-0.231	0.114
-269.326	-200.000	-0.007	0.236
-268.311	-112.465	-0.184	0.036
-267.297	87.309	0.104	0.114
-266.282	309.020	0.090	-0.167
-265.267	324.657	-0.085	0.161
-264.253	800.000	-0.030	0.118
-263.238	-95.315	0.456	-0.121
-262.224	800.000	0.039	-0.154
-261.209	-5.814	0.220	0.149
-260.195	184.948	0.263	-0.386
-259.180	60.508	-0.207	-0.203
-258.165	-125.782	0.236	-0.035
-257.151	800.000	0.045	-0.170
-256.136	-141.097	0.122	-0.012
-255.122	-140.950	0.179	-0.018
-254.107	55.627	-0.059	-0.057
-253.092	-200.000	0.007	0.123
-252.078	27.852	0.310	-0.258
-251.063	552.416	0.105	0.250
-250.049	800.000	0.154	0.426
-249.034	304.823	0.047	-0.087
-248.019	-200.000	-0.025	0.182
-247.005	-200.000	0.053	-0.280
-245.990	-29.170	0.161	0.091
-244.976	46.522	-0.320	-0.294
-243.961	-190.901	0.242	0.003
-242.946	-150.082	0.129	-0.010
-241.932	311.927	0.144	-0.268
-240.917	635.534	-0.053	0.134
-239.903	800.000	-0.094	-0.379
-238.888	-65.327	-0.335	-0.133
-237.873	204.843	-0.012	-0.019
-236.859	188.556	0.207	0.306
-235.844	550.544	-0.103	0.245
-234.830	55.855	0.138	-0.132
-233.815	-148.305	-0.217	-0.018
-232.800	288.267	0.069	-0.123
-231.786	-6.054	-0.038	-0.026
-230.771	-38.098	0.295	0.155
-229.757	4.779	0.077	0.056
-228.742	-136.744	-0.216	-0.025
-227.727	-87.270	-0.250	0.075
-226.713	148.595	-0.041	-0.055
-225.698	100.761	0.112	-0.129
-224.684	800.000	-0.044	0.137
-223.669	219.180	0.236	-0.372
-222.655	81.058	0.199	-0.212
-221.640	800.000	0.069	0.262
-220.625	97.629	0.257	0.292
-219.611	-72.323	-0.413	0.151
-218.596	800.000	0.049	-0.155
-217.582	800.000	0.085	-0.263
-216.567	-117.406	-0.078	0.014
-215.552	-19.450	-0.181	0.111
-214.538	514.268	0.020	0.046
-213.523	-117.397	-0.178	-0.032
-212.509	-200.000	0.054	0.421
-211.494	-28.489	-0.294	0.167
-210.479	-116.472	0.338	0.062
-209.465	-200.000	0.001	0.117
-208.450	-24.925	0.153	-0.089
-207.436	309.901	0.248	0.459
-206.421	800.000	0.028	0.096
-205.406	413.071	0.200	-0.420
-204.392	81.826	0.179	-0.192
-203.377	-65.889	-0.383	-0.151
-202.363	505.509	0.109	0.249
-201.348	61.546	0.260	0.255
-200.333	101.391	-0.216	0.249
-199.319	-41.284	0.200	0.102
-198.304	-200.000	0.089	0.410
-197.290	77.131	-0.248	0.260
-196.275	800.000	-0.060	0.245
-195.260	81.259	-0.086	0.091
-194.246	-200.000	0.050	-0.259
-193.231	-103.926	-0.299	-0.069
-192.217	336.799	0.110	-0.210
-191.202	370.649	-0.110	0.221
-190.187	213.473	0.130	0.203
-189.173	-20.272	-0.307	0.186
-188.158	30.732	-0.091	-0.077
-187.144	39.587	0.194	-0.172
-186.129	800.000	-0.090	0.276
-185.114	-116.130	-0.030	0.005
-184.100	-119.238	-0.217	-0.037
-183.085	124.673	-0.055	0.069
-182.071	417.118	0.138	0.292
-181.056	195.843	-0.109	0.163
-180.042	12.796	0.069	-0.053
-179.027	800.000	0.045	-0.176
-178.012	44.231	0.132	0.120
-176.998	-125.330	0.201	-0.030
-175.983	-200.000	0.029	-0.181
-174.969	-103.859	0.062	0.014
-173.954	-92.963	0.100	-0.027
-172.939	9.083	-0.107	-0.080
-171.925	800.000	0.029	-0.112
-170.910	760.882	0.066	-0.177
-169.896	-88.087	-0.089	-0.026
-168.881	409.728	0.089	-0.187
-167.866	-34.071	-0.180	0.097
-166.852	-178.471	0.072	-0.002
-165.837	-135.816	0.122	-0.014
-164.823	-200.000	0.047	-0.319
-163.808	-91.158	0.145	-0.041
-162.793	-125.986	-0.104	-0.015
-161.779	-200.000	-0.053	0.256
-160.764	546.507	0.109	0.257
-159.750	-200.000	-0.021	-0.269
-158.735	-200.000	0.033	0.235
-157.720	800.000	-0.064	0.232
-156.706	-152.788	0.170	0.012
-155.691	-200.000	0.006	-0.154
-154.677	161.148	-0.098	0.135
-153.662	-112.011	-0.139	0.028
-152.647	-200.000	-0.009	-0.392
-151.633	380.993	-0.182	0.368
-150.618	183.391	0.061	-0.088
-149.604	-200.000	0.023	0.330
-148.589	74.633	0.135	-0.140
-147.574	22.486	0.182	-0.147
-146.560	295.086	-0.109	-0.197
-145.545	-200.000	0.127	0.000
-144.531	800.000	-0.030	-0.095
-143.516	-158.634	-0.179	0.010
-142.502	26.119	-0.154	0.127
-141.487	800.000	-0.040	0.146
-140.472	225.112	0.025	0.039
-139.458	109.785	-0.046	0.054
-138.443	800.000	-0.163	0.612
-137.429	-200.000	-0.003	0.175
-136.414	243.910	0.043	0.072
-135.399	-85.555	0.342	-0.105
-134.385	3.708	-0.190	-0.137
-133.370	318.433	-0.046	-0.086
-132.356	14.300	-0.103	-0.079
-131.341	428.022	0.083	-0.177
-130.326	16.972	-0.204	0.159
-129.312	57.731	-0.123	-0.119
-128.297	-45.382	-0.286	-0.140
-127.283	529.550	-0.117	0.272
-126.268	-127.944	0.108	0.015
-125.253	39.872	0.117	-0.103
-124.239	-28.060	-0.489	0.278
-123.224	-200.000	0.055	0.341
-122.210	-200.000	-0.055	0.308
-121.195	-16.322	-0.042	0.026
-120.180	-188.277	0.227	-0.003
-119.166	110.992	0.013	-0.015
-118.151	800.000	0.138	0.467
-117.137	-3.505	-0.124	-0.085
-116.122	-103.974	0.078	0.018
-115.107	800.000	-0.024	0.076
-114.093	431.885	-0.095	-0.202
-113.078	60.881	-0.066	-0.065
-112.064	68.149	0.087	0.087
-111.049	-184.739	0.251	-0.004
-110.034	-64.492	0.469	-0.187
-109.020	-200.000	-0.036	-0.274
-108.005	57.329	0.111	0.107
-106.991	-47.522	-0.154	0.074
-105.976	800.000	-0.019	0.056
-104.962	-58.015	0.107	-0.046
-103.947	646.438	0.025	-0.063
-102.932	-50.877	-0.177	0.082
-101.918	65.592	-0.216	0.216
-100.903	-57.144	-0.114	0.050
-99.889	800.000	0.012	-0.046
-98.874	18.400	0.178	-0.140
-97.859	-10.743	-0.247	0.161
-96.845	0.562	0.316	0.222
-95.830	106.890	0.193	0.226
-94.816	48.536	0.271	0.250
-93.801	62.401	0.096	0.094
-92.786	-200.000	-0.078	-0.350
-91.772	-81.037	0.142	-0.046
-90.757	56.699	-0.252	-0.241
-89.743	-148.775	-0.464	0.037
-88.728	-24.667	0.124	0.073
-87.713	288.916	-0.035	-0.062
-86.699	-200.000	0.008	0.062
-85.684	-200.000	-0.030	0.196
-84.670	-134.128	-0.118	-0.014
-83.655	87.493	0.061	0.067
-82.640	-200.000	0.052	0.310
-81.626	-200.000	0.020	-0.382
-80.611	-200.000	-0.001	0.089
-79.597	62.160	0.065	-0.063
-78.582	99.357	0.056	0.064
-77.567	-200.000	0.000	-0.214
-76.553	166.357	-0.035	0.049
-75.538	-200.000	0.001	-0.105
-74.524	-200.000	0.000	0.192
-73.509	-33.275	0.093	0.051
-72.494	-57.654	0.166	0.071
-71.480	-62.478	-0.492	-0.201
-70.465	-132.471	0.273	0.035
-69.451	-83.873	-0.135	0.042
-68.436	403.997	-0.054	0.111
-67.422	-155.805	0.128	-0.008
-66.407	-97.543	0.346	0.088
-65.392	-200.000	-0.002	0.326
-64.378	-43.090	0.125	-0.062
-63.363	800.000	0.113	0.373
-62.349	-146.227	0.166	0.014
-61.334	77.699	-0.796	-0.833
-60.319	80.639	0.572	0.606
-59.305	157.011	-0.776	-1.053
-58.290	167.190	0.594	0.828
-57.276	647.438	0.627	1.575
-56.261	-200.000	98.723	583.430
-55.246	478.970	1434.350	3190.627
-54.232	148.488	2649.529	3513.889
-53.217	109.990	2196.993	2588.652
-52.203	43.065	1632.764	1462.537
-51.188	34.203	1362.259	1166.212
-50.173	30.981	1320.118	1110.924
-49.159	54.341	1368.288	1293.528
-48.144	55.262	1386.003	1315.799
-47.130	34.372	1343.460	1150.953
-46.115	30.818	1325.624	1114.402
-45.100	30.593	1320.684	1108.863
-44.086	30.547	1318.121	1106.398
-43.071	30.591	1315.976	1104.812
-42.057	30.541	1314.038	1102.847
-41.042	30.573	1311.866	1101.169
-40.027	30.611	1310.862	1100.506
-39.013	30.522	1308.707	1098.128
-37.998	30.586	1306.954	1096.994
-36.984	30.629	1305.285	1095.802
-35.969	30.682	1303.342	1094.437
-34.954	30.641	1302.082	1093.096
-33.940	30.647	1300.708	1091.937
-32.925	30.702	1299.102	1090.866
-31.911	30.692	1297.933	1089.783
-30.896	30.739	1296.421	1088.741
-29.881	30.805	1294.913	1087.819
-28.867	30.706	1293.609	1086.103
-27.852	30.716	1292.291	1085.008
-26.838	30.843	1290.303	1084.038
-25.823	30.717	1289.326	1082.439
-24.809	30.634	1288.159	1080.938
-23.794	30.635	1286.866	1079.812
-22.779	30.660	1285.153	1078.478
-21.765	30.705	1284.048	1077.767
-20.750	30.593	1282.870	1076.088
-19.736	30.642	1281.175	1074.909
-18.721	30.464	1280.473	1073.252
-17.706	30.553	1279.212	1072.662
-16.692	30.557	1278.198	1071.793
-15.677	30.489	1277.428	1070.713
-14.663	30.594	1275.566	1069.714
-13.648	30.541	1274.574	1068.537
-12.633	30.552	1273.478	1067.636
-11.619	30.596	1272.623	1067.128
-10.604	30.514	1271.966	1066.066
-9.590	30.582	1270.930	1065.547
-8.575	30.429	1270.261	1064.066
-7.560	30.554	1268.858	1063.563
-6.546	30.494	1268.198	1062.625
-5.531	30.535	1267.452	1062.191
-4.517	30.575	1266.310	1061.421
-3.502	30.669	1265.180	1060.971
-2.487	30.635	1264.564	1060.218
-1.473	30.580	1260.670	1056.597
-0.458	29.672	1246.389	1039.481
0.556	25.876	1229.571	1004.194
1.571	21.673	1236.614	986.247
2.586	20.221	1250.547	988.993
3.600	18.984	1238.415	972.324
4.615	13.825	1164.236	886.516
5.629	5.362	1088.175	786.119
6.644	1.216	1067.741	750.799
7.659	1.017	1065.692	748.305
8.673	0.904	1064.779	747.044
9.688	0.873	1063.615	746.009
10.702	1.073	1061.865	745.699
11.717	5.710	1067.814	772.715
12.731	13.390	1077.532	817.765
13.746	17.013	1081.281	838.474
14.761	17.533	1081.697	841.290
15.775	16.731	1079.933	835.885
16.790	15.711	1078.551	829.713
17.804	14.983	1076.658	824.596
18.819	14.692	1075.767	822.410
19.834	14.494	1073.855	819.899
20.848	14.234	1073.004	817.900
21.863	13.899	1072.710	815.960
22.877	13.720	1071.929	814.415
23.892	13.626	1071.355	813.444
24.907	13.763	1070.360	813.287
25.921	13.780	1069.812	812.883
26.936	13.893	1068.494	812.364
27.950	13.877	1067.736	811.638
28.965	13.917	1066.405	810.746
29.980	13.968	1064.846	809.741
30.994	13.987	1064.068	809.167
32.009	13.947	1063.393	808.388
33.023	13.936	1062.046	807.241
34.038	13.923	1061.062	806.356
35.053	13.959	1060.327	805.903
36.067	13.800	1059.663	804.556
37.082	13.898	1058.997	804.451
38.096	13.864	1057.773	803.286
39.111	14.007	1057.208	803.477
40.126	13.957	1056.026	802.268
41.140	13.871	1054.998	801.002
42.155	13.740	1054.031	799.567
43.169	13.755	1052.723	798.575
44.184	13.726	1051.759	797.631
45.199	13.767	1050.763	797.002
46.213	13.684	1049.775	795.786
47.228	13.797	1048.712	795.452
48.242	13.945	1047.203	794.945
49.257	13.813	1046.397	793.630
50.271	13.738	1045.852	792.788
51.286	13.812	1044.767	792.252
52.301	13.910	1044.005	792.071
53.315	13.801	1043.019	790.734
54.330	13.774	1042.305	789.993
55.344	13.727	1041.581	789.148
56.359	13.837	1039.819	788.266
57.374	13.832	1039.581	787.992
58.388	13.808	1037.987	786.601
59.403	13.696	1037.628	785.728
60.417	13.682	1036.886	785.032
61.432	13.738	1036.178	784.691
62.447	13.739	1035.178	783.869
63.461	13.647	1034.603	782.929
64.476	13.764	1033.287	782.414
65.490	13.787	1032.219	781.648
66.505	13.650	1032.107	780.849
67.520	13.662	1031.444	780.332
68.534	13.808	1030.100	779.935
69.549	13.673	1030.123	779.247
70.563	13.844	1028.447	778.711
71.578	13.668	1028.199	777.630
72.593	13.679	1027.315	776.947
73.607	13.720	1026.589	776.520
74.622	13.619	1025.932	775.482
75.636	13.623	1025.640	775.212
76.651	13.692	1024.431	774.549
77.666	13.583	1024.162	773.772
78.680	13.639	1023.260	773.282
79.695	13.724	1022.580	773.097
80.709	13.686	1021.637	772.135
81.724	13.683	1021.268	771.776
82.739	13.800	1020.433	771.622
83.753	13.862	1019.699	771.284
84.768	13.837	1018.708	770.352
85.782	13.971	1017.494	769.985
86.797	13.798	1017.052	768.783
87.812	13.815	1016.086	768.062
88.826	13.716	1015.277	766.925
89.841	13.888	1014.241	766.867
90.855	13.854	1013.396	766.006
91.870	13.775	1013.127	765.372
92.884	13.844	1012.006	764.771
93.899	14.037	1010.858	764.727
94.914	13.952	1010.005	763.624
95.928	13.965	1009.367	763.133
96.943	13.827	1008.453	761.738
97.957	13.986	1007.605	761.764
98.972	13.917	1006.797	760.765
99.987	13.915	1006.042	760.119
101.001	13.936	1005.022	759.379
102.016	13.880	1004.306	758.513
103.030	13.980	1003.602	758.370
104.045	13.832	1002.767	756.998
105.060	13.957	1001.594	756.616
106.074	13.776	1001.123	755.371
107.089	13.932	999.667	754.912
108.103	13.795	998.930	753.669
109.118	13.733	997.829	752.488
110.133	13.937	996.985	752.710
111.147	13.871	995.974	751.584
112.162	13.863	995.135	750.847
113.176	13.846	994.251	750.037
114.191	13.830	993.723	749.500
115.206	13.889	993.055	749.196
116.220	13.859	991.953	748.162
117.235	13.949	991.103	747.858
118.249	14.012	990.178	747.378
119.264	13.933	989.254	746.262
120.279	13.980	988.523	745.856
121.293	13.832	987.860	744.622
122.308	13.825	987.227	744.051
123.322	13.984	985.849	743.655
124.337	13.869	985.126	742.531
125.352	13.891	984.087	741.781
126.366	13.869	982.827	740.667
127.381	13.926	982.156	740.351
128.395	13.798	981.231	739.018
129.410	13.885	980.473	738.769
130.424	13.919	979.650	738.234
131.439	14.069	978.364	737.865
132.454	13.976	977.798	736.962
133.468	13.987	977.239	736.524
134.483	14.101	976.277	736.236
135.497	13.966	975.481	734.977
136.512	13.949	974.611	734.181
137.527	13.874	974.359	733.592
138.541	13.891	973.125	732.676
139.556	13.989	972.484	732.561
140.570	14.049	971.468	731.994
141.585	13.973	970.720	731.031
142.600	14.175	969.177	730.690
143.614	13.975	969.231	729.789
144.629	14.066	968.463	729.546
145.643	14.166	967.201	728.970
146.658	13.991	966.432	727.558
147.673	14.030	965.394	726.885
148.687	13.922	964.690	725.818
149.702	14.113	963.271	725.520
150.716	14.144	962.769	725.212
151.731	14.016	962.574	724.443
152.746	13.977	961.351	723.286
153.760	14.082	960.847	723.300
154.775	13.981	960.248	722.349
155.789	14.087	959.833	722.432
156.804	14.137	958.750	721.771
157.819	14.109	958.168	721.147
158.833	14.139	957.727	720.880
159.848	14.308	956.462	720.595
160.862	14.257	955.867	719.861
161.877	14.169	954.986	718.755
162.892	14.165	953.971	717.912
163.906	14.109	953.088	716.942
164.921	14.085	952.252	716.147
165.935	14.178	951.396	715.840
166.950	14.232	950.267	715.159
167.964	14.145	949.776	714.352
168.979	14.268	948.667	713.983
169.994	14.191	947.808	712.942
171.008	14.269	947.217	712.771
172.023	14.211	946.509	711.924
173.037	14.229	946.222	711.724
174.052	14.117	945.243	710.447
175.067	14.255	944.395	710.336
176.081	14.223	944.365	710.114
177.096	14.324	943.197	709.603
178.110	14.216	942.679	708.690
179.125	14.173	941.924	707.877
180.140	14.345	941.390	708.145
181.154	14.306	941.272	707.824
182.169	14.392	940.545	707.580
183.183	14.452	939.726	707.156
184.198	14.350	939.092	706.187
185.213	14.414	938.314	705.809
186.227	14.358	937.663	705.018
187.242	14.553	937.045	705.318
188.256	14.608	936.441	705.030
189.271	14.483	935.432	703.684
190.286	14.477	934.638	702.997
191.300	14.414	934.104	702.270
192.315	14.261	933.389	701.026
193.329	14.319	933.167	701.040
194.344	14.445	932.269	700.835
195.359	14.586	931.585	700.849
196.373	14.594	931.032	700.403
197.388	14.547	930.536	699.772
198.402	14.581	930.086	699.516
199.417	14.622	929.106	698.890
200.432	14.608	928.794	698.531
201.446	14.660	928.333	698.340
202.461	14.777	927.698	698.290
203.475	14.776	927.143	697.807
204.490	14.724	926.131	696.765
205.504	14.723	925.652	696.341
206.519	14.684	924.556	695.292
207.534	14.740	923.983	695.034
208.548	14.665	923.894	694.591
209.563	14.759	922.668	694.001
210.577	14.808	921.795	693.487
211.592	14.901	920.934	693.162
212.607	14.887	920.748	692.902
213.621	14.828	919.757	691.853
214.636	14.819	919.258	691.378
215.650	14.780	918.529	690.608
216.665	14.880	917.911	690.494
217.680	14.899	917.278	690.034
218.694	14.890	916.573	689.408
219.709	15.063	915.710	689.411
220.723	14.802	915.357	688.009
221.738	14.877	914.684	687.750
222.753	15.022	913.718	687.556
223.767	15.055	912.876	686.998
224.782	15.179	912.323	687.032
225.796	15.105	911.744	686.232
226.811	15.056	911.646	685.894
227.826	14.963	911.049	685.007
228.840	14.925	910.062	684.046
229.855	15.083	909.036	683.861
230.869	15.042	908.446	683.189
231.884	14.990	907.667	682.330
232.899	15.104	906.983	682.221
233.913	15.115	906.174	681.594
234.928	15.086	905.356	680.803
235.942	15.095	905.008	680.518
236.957	15.147	904.312	680.146
237.972	15.144	903.877	679.744
238.986	15.049	903.493	679.012
240.001	14.966	903.101	678.321
241.015	15.119	902.340	678.307
242.030	15.237	901.327	677.963
243.045	15.152	900.885	677.228
244.059	15.324	899.943	677.155
245.074	15.227	899.512	676.377
246.088	15.292	899.095	676.266
247.103	15.204	898.362	675.303
248.117	15.463	897.514	675.649
249.132	15.466	897.012	675.223
250.147	15.302	896.403	674.044
251.161	15.444	895.599	673.950
252.176	15.403	895.017	673.288
253.190	15.473	894.485	673.107
254.205	15.389	893.830	672.220
255.220	15.486	893.153	672.042
256.234	15.606	892.463	671.942
257.249	15.604	892.124	671.617
258.263	15.523	891.404	670.693
259.278	15.693	890.577	670.689
260.293	15.424	890.210	669.283
261.307	15.596	889.289	669.214
262.322	15.749	888.415	669.107
263.336	15.767	887.626	668.523
264.351	15.802	887.326	668.380
265.366	15.746	886.124	667.190
266.380	15.680	886.382	667.067
267.395	15.753	885.270	666.460
268.409	15.886	884.570	666.401
269.424	15.814	883.666	665.375
270.439	15.797	882.887	664.662
271.453	15.912	882.041	664.419
272.468	15.834	882.029	664.043
273.482	15.837	881.733	663.774
274.497	15.863	880.941	663.221
275.512	15.775	880.615	662.574
276.526	15.797	879.718	661.924
277.541	15.973	879.048	662.053
278.555	15.838	878.772	661.257
279.570	15.927	878.141	661.072
280.585	16.014	877.185	660.637
281.599	15.928	876.160	659.470
282.614	15.979	875.638	659.219
283.628	15.893	875.083	658.404
284.643	16.077	874.286	658.466
285.657	16.109	873.834	658.193
286.672	15.972	873.498	657.346
287.687	16.112	872.887	657.375
288.701	16.088	872.102	656.632
289.716	15.989	871.615	655.821
290.730	16.079	870.861	655.546
291.745	16.113	870.480	655.334
292.760	16.045	869.905	654.578
293.774	16.227	869.237	654.722
294.789	16.287	868.480	654.328
295.803	16.033	867.794	652.769
296.818	16.131	867.215	652.656
297.833	16.136	866.252	651.893
298.847	16.226	865.809	651.847
299.862	16.197	865.474	651.425
300.876	16.174	864.954	650.890
301.891	16.147	864.351	650.273
302.906	16.117	863.741	649.642
303.920	16.350	862.721	649.714
304.935	16.334	862.639	649.533
305.949	16.317	862.054	648.970
306.964	16.339	861.481	648.565
307.979	16.550	860.818	648.819
308.993	16.524	859.773	647.874
310.008	16.456	859.627	647.447
311.022	16.408	859.105	646.813
312.037	16.429	858.443	646.337
313.052	16.478	857.845	646.018
314.066	16.380	857.319	645.189
315.081	16.502	856.821	645.221
316.095	16.511	855.933	644.530
317.110	16.443	855.343	643.772
318.125	16.605	854.690	643.840
319.139	16.553	854.580	643.500
320.154	16.360	854.066	642.325
321.168	16.481	853.787	642.517
322.183	16.417	852.926	641.566
323.197	16.499	852.615	641.589
324.212	16.520	852.179	641.284
325.227	16.610	851.032	640.706
326.241	16.581	850.548	640.172
327.256	16.626	850.112	639.961
328.270	16.522	849.227	638.842
329.285	16.674	848.812	639.047
330.300	16.620	848.579	638.613
331.314	16.607	847.888	637.989
332.329	16.645	847.456	637.748
333.343	16.594	846.905	637.087
334.358	16.644	846.455	636.880
335.373	16.708	846.112	636.805
336.387	16.714	845.823	636.555
337.402	16.700	845.621	636.293
338.416	16.704	845.255	635.975
339.431	16.796	845.064	636.123
340.446	16.754	844.414	635.418
341.460	16.871	844.112	635.573
342.475	16.844	843.691	635.100
343.489	16.840	843.069	634.561
344.504	16.839	842.722	634.239
345.519	17.008	841.944	634.231
346.533	16.923	842.220	634.063
347.548	16.948	841.057	633.226
348.562	16.921	840.493	632.646
349.577	16.963	839.975	632.352
350.592	16.920	839.423	631.724
351.606	16.987	838.340	631.103
352.621	17.011	837.904	630.805
353.635	17.040	837.201	630.327
354.650	17.022	836.780	629.889
355.665	16.969	836.269	629.251
356.679	17.053	835.433	628.879
357.694	17.093	834.580	628.329
358.708	17.084	834.343	628.060
359.723	17.181	833.474	627.710
360.738	17.034	833.057	626.797
361.752	17.100	832.586	626.633
362.767	17.180	831.873	626.335
363.781	17.168	831.433	625.904
364.796	17.278	830.676	625.682
365.810	17.228	830.625	625.406
366.825	17.229	830.129	624.979
367.840	17.306	829.894	625.032
368.854	17.400	829.426	624.971
369.869	17.365	828.880	624.373
370.883	17.443	828.185	624.080
371.898	17.346	827.942	623.489
372.913	17.324	827.608	623.101
373.927	17.419	826.952	622.897
374.942	17.470	826.585	622.752
375.956	17.311	826.579	622.111
376.971	17.533	825.482	622.043
377.986	17.517	825.224	621.734
379.000	17.479	824.655	621.114
380.015	17.540	824.122	620.879
381.029	17.651	823.800	620.984
382.044	17.579	823.325	620.312
383.059	17.543	822.599	619.577
384.073	17.617	822.039	619.368
385.088	17.524	821.520	618.587
386.102	17.714	821.004	618.834
387.117	17.527	820.452	617.684
388.132	17.627	819.908	617.582
389.146	17.512	819.524	616.822
390.161	17.680	818.793	616.826
391.175	17.748	818.324	616.661
392.190	17.549	817.892	615.564
393.205	17.717	817.140	615.551
394.219	17.679	817.053	615.292
395.234	17.497	816.802	614.392
396.248	17.556	816.536	614.350
397.263	17.850	815.583	614.636
398.278	17.660	815.401	613.763
399.292	17.597	815.028	613.201
400.307	17.683	814.709	613.213
401.321	17.683	814.045	612.660
402.336	17.787	813.336	612.448
403.350	17.712	813.221	612.035
404.365	17.698	812.791	611.608
405.380	17.920	811.920	611.694
406.394	17.914	811.505	611.308
407.409	17.881	811.136	610.856
408.423	18.019	810.926	611.137
409.438	17.955	810.332	610.407
410.453	18.013	810.181	610.446
411.467	17.880	809.650	609.518
412.482	18.039	808.985	609.530
413.496	18.108	808.667	609.483
414.511	18.001	808.309	608.776
415.526	18.218	807.824	609.133
416.540	18.222	807.099	608.546
417.555	18.106	806.998	608.002
418.569	18.119	806.909	607.926
419.584	18.143	806.151	607.387
420.599	18.170	805.625	607.035
421.613	110.505	1291.281	1465.888
422.628	95.353	1362.031	1465.991
