DTS Sentinel unit serial number:	SN413079Multiplexer serial number:	ORYXHardware model number:	OX4-SRSoftware version number:	ORYX F/W v4.00 Oryx Data Collector v3.7.2.0data status	okinstallation	princeton_trtdifferential loss correction	single-endedforward channel	channel 1reverse channel	N/Adate	2019/09/12time	07:32:11forward acquisition time	60.00reverse acquisition time	0.00gamma	496.2192k internal	0.2317k external	0.2317temperature offset calibration	1.0044default loss term (dB/km)	0.3790temperature slope calibration	1.0000multiplexer offset coefficient	1.0000multiplexer slope coefficient	1.0000fibre end	0.00T internal ref (°C)	32.53T ext. ref 1 (°C)	1.62T ext. ref 2 (°C)	29.11length (m)	temperature (°C)	Stokes	anti-Stokes-747.200	391.433	-0.127	0.268
-746.185	800.000	-0.023	0.079
-745.171	272.792	0.078	0.139
-744.156	-45.075	-0.159	0.080
-743.142	-200.000	-0.037	0.194
-742.127	295.170	-0.238	0.442
-741.112	800.000	-0.147	0.477
-740.098	-37.701	-0.264	0.142
-739.083	-33.350	-0.194	-0.109
-738.069	800.000	0.086	0.252
-737.054	-7.473	0.202	-0.139
-736.039	800.000	0.074	0.245
-735.025	162.956	0.169	0.240
-734.010	8.114	-0.145	0.110
-732.996	800.000	-0.063	-0.210
-731.981	149.802	-0.256	-0.351
-730.966	223.539	-0.284	-0.464
-729.952	40.970	-0.129	-0.118
-728.937	-55.330	0.341	-0.155
-727.923	-118.476	0.400	0.072
-726.908	800.000	0.104	0.413
-725.894	-76.329	0.029	-0.010
-724.879	42.487	-0.111	0.102
-723.864	420.757	0.126	-0.273
-722.850	-105.527	-0.057	-0.013
-721.835	-200.000	0.003	-0.252
-720.821	-17.351	0.172	-0.109
-719.806	-74.479	0.095	0.035
-718.791	99.976	-0.156	-0.182
-717.777	74.501	0.095	0.101
-716.762	-114.871	0.284	0.055
-715.748	800.000	-0.052	0.159
-714.733	0.522	-0.230	-0.166
-713.718	-200.000	-0.024	-0.199
-712.704	-191.825	0.233	-0.002
-711.689	-35.149	0.154	-0.085
-710.675	92.850	0.141	0.161
-709.660	-160.973	-0.152	-0.008
-708.645	155.642	0.113	-0.158
-707.631	-109.861	0.278	0.059
-706.616	86.579	-0.117	-0.130
-705.602	-126.387	0.299	-0.045
-704.587	-145.833	-0.214	-0.019
-703.572	393.216	0.171	0.361
-702.558	361.578	-0.095	0.193
-701.543	32.401	-0.276	0.241
-700.529	155.672	0.052	-0.072
-699.514	-88.981	-0.329	0.099
-698.499	45.210	0.194	-0.181
-697.485	-200.000	-0.011	-0.275
-696.470	-200.000	0.008	-0.195
-695.456	291.621	-0.073	-0.134
-694.441	800.000	0.067	0.265
-693.426	800.000	0.116	0.442
-692.412	36.287	-0.266	-0.237
-691.397	-71.021	-0.115	0.044
-690.383	-200.000	-0.033	-0.169
-689.368	-37.354	-0.305	-0.165
-688.354	158.409	0.226	-0.317
-687.339	-120.768	-0.302	-0.051
-686.324	-200.000	0.040	-0.215
-685.310	800.000	-0.120	-0.341
-684.295	-200.000	-0.020	0.146
-683.281	800.000	0.028	0.098
-682.266	-169.851	-0.407	-0.015
-681.251	-9.429	0.236	0.159
-680.237	124.243	0.165	0.209
-679.222	116.507	-0.271	-0.335
-678.208	675.613	0.047	0.123
-677.193	-200.000	-0.001	-0.057
-676.178	-129.129	-0.215	0.030
-675.164	-69.573	-0.199	-0.077
-674.149	6.019	0.043	0.032
-673.135	-118.463	0.136	-0.024
-672.120	30.776	0.230	-0.199
-671.105	-200.000	-0.079	0.397
-670.091	0.280	0.295	-0.212
-669.076	13.462	-0.322	-0.252
-668.062	-31.474	-0.267	-0.152
-667.047	-200.000	-0.044	0.290
-666.032	-40.692	-0.263	-0.138
-665.018	74.772	-0.031	0.033
-664.003	80.466	-0.081	-0.088
-662.989	-181.503	0.183	-0.004
-661.974	-162.204	-0.278	0.014
-660.959	84.579	-0.307	-0.339
-659.945	41.326	0.142	0.129
-658.930	-200.000	-0.004	-0.383
-657.916	48.155	-0.015	-0.014
-656.901	-62.779	-0.224	-0.093
-655.886	85.596	-0.186	-0.207
-654.872	26.405	-0.195	0.165
-653.857	69.230	-0.132	-0.137
-652.843	307.671	-0.040	0.075
-651.828	-200.000	0.008	-0.036
-650.814	-83.092	0.087	0.028
-649.799	448.507	-0.100	-0.222
-648.784	-41.399	-0.199	-0.103
-647.770	352.768	-0.126	-0.252
-646.755	-200.000	-0.017	-0.408
-645.741	45.933	0.347	0.324
-644.726	-74.948	-0.162	-0.059
-643.711	-134.088	-0.121	0.015
-642.697	171.764	-0.021	-0.030
-641.682	-179.750	0.072	-0.002
-640.668	-68.253	0.152	-0.060
-639.653	-200.000	-0.002	0.020
-638.638	2.449	0.307	-0.224
-637.624	466.891	0.017	-0.039
-636.609	800.000	-0.121	0.338
-635.595	10.525	-0.122	-0.093
-634.580	800.000	0.146	-0.434
-633.565	250.065	-0.159	0.272
-632.551	373.085	0.050	-0.103
-631.536	-146.663	-0.222	-0.019
-630.522	492.394	-0.109	-0.252
-629.507	-200.000	0.023	-0.151
-628.492	310.216	0.057	0.108
-627.478	329.344	0.057	-0.111
-626.463	21.268	-0.149	0.122
-625.449	-173.912	-0.207	0.006
-624.434	176.880	0.244	-0.358
-623.419	18.478	-0.144	-0.116
-622.405	-72.570	0.196	0.073
-621.390	-57.300	-0.192	0.085
-620.376	-200.000	0.009	0.198
-619.361	74.461	0.153	-0.162
-618.346	-40.858	0.172	-0.089
-617.332	169.165	0.182	0.262
-616.317	12.220	0.041	0.032
-615.303	773.844	-0.071	-0.196
-614.288	-200.000	0.039	0.350
-613.273	-41.046	-0.167	-0.087
-612.259	16.611	0.246	-0.196
-611.244	800.000	-0.015	-0.050
-610.230	-73.110	-0.181	0.067
-609.215	-103.819	0.161	0.038
-608.201	-129.816	-0.185	-0.026
-607.186	-83.292	-0.132	0.043
-606.171	46.693	-0.129	-0.121
-605.157	-50.002	-0.073	0.035
-604.142	-44.827	0.115	0.058
-603.128	212.191	-0.272	0.431
-602.113	-33.261	-0.181	0.101
-601.098	800.000	0.051	-0.183
-600.084	-196.876	-0.412	-0.003
-599.069	195.079	-0.087	-0.133
-598.055	558.860	-0.049	0.118
-597.040	-37.790	-0.262	0.140
-596.025	-109.847	-0.074	0.016
-595.011	-200.000	-0.014	0.255
-593.996	456.720	0.183	0.408
-592.982	235.940	-0.166	-0.276
-591.967	800.000	-0.050	0.196
-590.952	25.006	-0.228	0.190
-589.938	199.741	-0.114	-0.176
-588.923	-61.984	-0.372	-0.156
-587.909	-200.000	-0.013	-0.186
-586.894	800.000	-0.067	0.200
-585.879	463.900	-0.120	0.270
-584.865	348.166	0.126	-0.249
-583.850	-200.000	0.012	-0.126
-582.836	34.098	0.027	0.024
-581.821	672.185	-0.034	-0.090
-580.806	800.000	-0.064	0.247
-579.792	-200.000	-0.057	0.264
-578.777	530.581	-0.078	-0.185
-577.763	-79.114	-0.206	0.071
-576.748	272.118	-0.061	0.108
-575.733	-105.640	-0.091	-0.021
-574.719	141.728	0.154	0.205
-573.704	800.000	0.126	0.432
-572.690	-200.000	-0.017	-0.116
-571.675	-200.000	-0.023	0.103
-570.661	686.288	0.120	-0.314
-569.646	-200.000	-0.003	-0.083
-568.631	360.243	-0.106	0.213
-567.617	-26.679	0.148	0.087
-566.602	800.000	-0.028	0.088
-565.588	19.998	0.161	0.131
-564.573	-122.967	0.025	0.004
-563.558	-112.151	-0.087	0.018
-562.544	-96.715	-0.212	-0.056
-561.529	190.039	-0.275	-0.415
-560.515	-29.262	0.084	0.049
-559.500	-200.000	0.009	0.198
-558.485	-14.332	0.265	0.172
-557.471	-34.434	-0.194	-0.107
-556.456	-113.596	-0.260	-0.051
-555.442	-200.000	-0.009	-0.118
-554.427	-200.000	-0.012	-0.088
-553.412	-200.000	0.025	-0.252
-552.398	-6.193	-0.109	-0.075
-551.383	396.109	0.044	0.093
-550.369	539.843	-0.109	-0.260
-549.354	-85.434	-0.229	0.072
-548.339	-48.044	-0.383	-0.186
-547.325	227.589	0.139	-0.227
-546.310	72.362	0.085	0.089
-545.296	-200.000	-0.012	-0.163
-544.281	800.000	-0.043	0.119
-543.266	800.000	-0.028	0.109
-542.252	115.528	0.105	0.129
-541.237	40.429	-0.112	-0.102
-540.223	-30.109	-0.291	0.166
-539.208	51.253	0.114	-0.109
-538.193	-131.594	0.197	0.026
-537.179	-200.000	0.004	0.161
-536.164	-200.000	0.063	0.287
-535.150	-97.991	0.150	-0.039
-534.135	388.062	0.083	-0.172
-533.121	-58.555	-0.256	-0.112
-532.106	-75.384	-0.249	-0.089
-531.091	88.429	-0.239	-0.267
-530.077	-14.399	-0.122	0.079
-529.062	107.717	-0.120	0.144
-528.048	-112.779	-0.167	0.033
-527.033	-168.507	-0.437	0.017
-526.018	14.342	0.129	-0.101
-525.004	-137.744	-0.095	0.011
-523.989	-200.000	0.032	-0.368
-522.975	-68.205	-0.063	-0.025
-521.960	-200.000	0.023	-0.268
-520.945	-123.443	0.507	0.081
-519.931	-92.184	-0.270	0.077
-518.916	-200.000	0.016	0.098
-517.902	-200.000	-0.025	0.438
-516.887	-200.000	-0.042	-0.281
-515.872	-113.465	0.166	-0.033
-514.858	-40.539	-0.085	0.044
-513.843	800.000	-0.039	-0.166
-512.829	113.259	-0.170	0.207
-511.814	-159.300	-0.215	0.012
-510.799	-200.000	-0.041	0.296
-509.785	51.264	-0.244	-0.233
-508.770	86.669	0.294	-0.325
-507.756	21.454	-0.150	0.122
-506.741	-200.000	0.032	-0.196
-505.726	323.083	0.032	-0.061
-504.712	344.140	0.139	0.273
-503.697	-38.005	0.433	0.231
-502.683	149.630	0.097	0.132
-501.668	-109.535	0.221	-0.047
-500.653	-50.362	0.435	-0.206
-499.639	-65.877	-0.220	-0.088
-498.624	67.028	-0.219	0.224
-497.610	131.312	0.111	-0.143
-496.595	-116.992	0.191	0.035
-495.581	588.393	0.119	0.294
-494.566	-18.131	-0.375	-0.235
-493.551	800.000	0.054	-0.197
-492.537	-5.959	-0.368	0.252
-491.522	154.724	-0.127	-0.175
-490.508	-7.464	-0.073	-0.049
-489.493	-166.040	0.214	0.009
-488.478	47.851	0.041	0.038
-487.464	-200.000	0.104	0.543
-486.449	-125.643	0.374	-0.057
-485.435	68.733	0.160	-0.165
-484.420	-200.000	-0.037	0.338
-483.405	23.863	-0.339	0.280
-482.391	-33.626	0.195	0.108
-481.376	-200.000	-0.003	-0.149
-480.362	96.052	0.119	0.137
-479.347	-85.092	-0.156	-0.049
-478.332	-200.000	-0.049	-0.275
-477.318	-98.880	-0.129	-0.033
-476.303	-18.674	-0.078	0.049
-475.289	44.463	0.081	0.074
-474.274	-53.306	0.078	-0.036
-473.259	175.630	-0.183	-0.266
-472.245	-86.995	-0.149	0.046
-471.230	-51.751	0.073	-0.034
-470.216	265.254	0.102	-0.178
-469.201	331.690	-0.127	0.245
-468.186	-79.432	-0.268	-0.091
-467.172	-44.073	0.109	-0.055
-466.157	123.044	-0.096	-0.120
-465.143	-200.000	-0.071	-0.498
-464.128	-161.798	0.171	0.009
-463.113	-142.082	-0.404	0.040
-462.099	-87.231	-0.168	-0.051
-461.084	-85.594	-0.128	0.040
-460.070	-135.563	-0.343	-0.041
-459.055	-200.000	0.001	-0.074
-458.040	-200.000	-0.025	0.132
-457.026	800.000	-0.014	0.043
-456.011	112.677	-0.113	-0.137
-454.997	356.711	0.204	-0.406
-453.982	-196.412	0.190	0.001
-452.968	101.926	-0.185	-0.216
-451.953	299.742	-0.115	0.213
-450.938	64.115	0.121	0.122
-449.924	-200.000	0.033	-0.155
-448.909	-7.451	0.225	-0.153
-447.895	800.000	-0.056	-0.199
-446.880	-101.783	-0.248	0.060
-445.865	252.693	-0.156	-0.266
-444.851	-200.000	0.042	-0.190
-443.836	-200.000	0.027	0.247
-442.822	-59.322	-0.022	-0.009
-441.807	16.744	-0.082	-0.065
-440.792	136.313	0.131	-0.170
-439.778	44.495	-0.156	0.143
-438.763	-200.000	-0.025	-0.221
-437.749	286.936	-0.095	0.172
-436.734	800.000	0.110	-0.356
-435.719	-77.107	-0.412	-0.144
-434.705	31.540	-0.080	-0.069
-433.690	36.484	0.146	0.129
-432.676	457.533	0.131	-0.291
-431.661	-200.000	0.023	-0.107
-430.646	172.447	-0.189	0.272
-429.632	54.214	-0.049	-0.047
-428.617	-84.814	0.321	0.101
-427.603	-200.000	0.063	-0.294
-426.588	121.846	-0.185	-0.231
-425.573	-200.000	-0.059	-0.332
-424.559	-200.000	-0.065	0.323
-423.544	800.000	0.081	0.224
-422.530	194.851	-0.257	-0.389
-421.515	-44.512	-0.348	-0.174
-420.500	800.000	-0.066	0.190
-419.486	-124.823	-0.091	-0.014
-418.471	800.000	0.054	-0.228
-417.457	-81.247	0.547	-0.180
-416.442	189.133	-0.095	0.143
-415.428	-32.597	0.083	-0.046
-414.413	-159.155	-0.209	0.012
-413.398	26.682	-0.216	-0.181
-412.384	34.051	0.280	-0.244
-411.369	800.000	-0.108	0.315
-410.355	800.000	-0.084	-0.277
-409.340	-200.000	-0.005	0.156
-408.325	-38.163	0.078	-0.041
-407.311	111.610	0.196	0.236
-406.296	-104.062	0.349	0.081
-405.282	-140.949	-0.459	-0.047
-404.267	-32.616	-0.048	0.027
-403.252	186.016	0.236	-0.350
-402.238	-200.000	-0.009	0.276
-401.223	-200.000	0.010	-0.042
-400.209	-68.137	-0.132	-0.051
-399.194	-167.093	-0.229	0.009
-398.179	-18.758	0.308	-0.191
-397.165	74.232	0.281	0.295
-396.150	14.977	0.325	0.254
-395.136	800.000	-0.068	-0.210
-394.121	-163.841	0.304	-0.014
-393.106	-111.449	0.259	0.053
-392.092	246.218	-0.119	0.201
-391.077	-74.493	-0.025	0.009
-390.063	335.211	-0.032	-0.062
-389.048	37.950	-0.173	0.154
-388.033	29.000	0.329	-0.278
-387.019	800.000	-0.025	-0.100
-386.004	408.271	0.101	0.213
-384.990	-138.487	0.259	-0.028
-383.975	194.861	0.128	-0.194
-382.960	-28.722	-0.219	-0.126
-381.946	435.054	-0.061	-0.133
-380.931	89.371	0.041	0.046
-379.917	7.937	0.167	0.125
-378.902	800.000	-0.060	0.236
-377.888	-68.398	0.132	-0.051
-376.873	-133.728	-0.225	-0.028
-375.858	-71.972	0.139	-0.051
-374.844	-78.929	-0.399	0.136
-373.829	-75.013	0.045	-0.016
-372.815	569.349	0.125	0.304
-371.800	800.000	0.115	0.396
-370.785	65.152	0.079	0.080
-369.771	148.094	0.206	0.277
-368.756	-96.271	0.105	0.028
-367.742	-105.697	-0.259	-0.058
-366.727	-200.000	0.061	0.348
-365.712	800.000	-0.038	0.147
-364.698	-79.879	-0.158	0.053
-363.683	-200.000	-0.020	0.100
-362.669	-200.000	0.026	0.435
-361.654	324.774	0.020	-0.039
-360.639	279.087	-0.080	0.142
-359.625	156.359	-0.060	0.083
-358.610	-87.072	-0.157	0.048
-357.596	-42.901	-0.418	0.212
-356.581	254.501	0.039	0.066
-355.566	-80.625	-0.272	0.090
-354.552	-134.949	0.273	-0.033
-353.537	-200.000	-0.026	-0.252
-352.523	800.000	0.048	0.156
-351.508	2.145	0.154	0.111
-350.493	-200.000	0.027	-0.206
-349.479	-104.467	0.331	-0.076
-348.464	-28.587	0.029	-0.017
-347.450	-111.345	0.244	-0.050
-346.435	-119.170	-0.372	-0.065
-345.420	30.601	0.138	-0.118
-344.406	-65.690	-0.053	-0.021
-343.391	-19.030	0.197	0.122
-342.377	130.269	0.328	-0.419
-341.362	-141.688	0.299	0.030
-340.348	135.658	-0.092	0.120
-339.333	-127.289	0.120	0.017
-338.318	-16.198	-0.104	-0.066
-337.304	-80.556	0.232	0.077
-336.289	724.692	0.061	-0.163
-335.275	-6.619	-0.250	-0.169
-334.260	195.178	-0.206	0.312
-333.245	-12.487	-0.220	-0.143
-332.231	-110.318	0.279	-0.058
-331.216	81.218	-0.106	0.114
-330.202	800.000	-0.109	-0.354
-329.187	-59.876	0.161	0.068
-328.172	178.433	-0.189	0.274
-327.158	-89.363	-0.087	-0.026
-326.143	-79.637	0.068	-0.023
-325.129	116.060	0.063	-0.077
-324.114	479.370	0.019	0.043
-323.099	-51.492	0.106	-0.049
-322.085	275.580	-0.111	-0.197
-321.070	593.369	-0.065	-0.159
-320.056	-53.177	0.039	-0.018
-319.041	305.896	-0.082	0.152
-318.026	-93.834	0.050	0.014
-317.012	63.269	-0.058	0.058
-315.997	3.304	0.160	0.116
-314.983	-200.000	-0.028	0.134
-313.968	-200.000	-0.016	-0.111
-312.953	-200.000	0.021	0.426
-311.939	800.000	0.020	-0.079
-310.924	-88.871	-0.257	-0.076
-309.910	800.000	-0.111	0.471
-308.895	-200.000	0.035	-0.192
-307.880	800.000	-0.084	0.289
-306.866	800.000	-0.062	-0.246
-305.851	-48.030	-0.044	-0.021
-304.837	-200.000	0.021	0.184
-303.822	-67.432	0.329	-0.129
-302.807	161.313	-0.097	-0.135
-301.793	-146.416	0.206	0.018
-300.778	-56.977	0.379	-0.166
-299.764	800.000	0.035	-0.109
-298.749	49.112	-0.366	0.342
-297.735	37.851	0.229	0.202
-296.720	-92.478	0.048	-0.013
-295.705	111.725	0.175	0.210
-294.691	124.516	0.110	-0.137
-293.676	-180.496	0.128	0.003
-292.662	-183.539	0.229	0.004
-291.647	-64.766	0.316	0.127
-290.632	73.406	0.246	0.256
-289.618	304.250	0.123	0.226
-288.603	-200.000	-0.019	0.254
-287.589	166.128	0.113	0.159
-286.574	-200.000	-0.062	0.364
-285.559	-146.770	-0.341	-0.029
-284.545	274.705	0.154	0.272
-283.530	-200.000	-0.031	-0.176
-282.516	-200.000	-0.076	0.477
-281.501	-109.320	0.275	0.058
-280.486	-200.000	0.004	-0.281
-279.472	25.302	0.162	-0.134
-278.457	-0.774	-0.271	-0.191
-277.443	44.885	0.192	0.175
-276.428	85.852	0.113	0.123
-275.413	800.000	0.091	-0.260
-274.399	254.639	0.077	0.132
-273.384	7.996	0.180	-0.134
-272.370	85.023	0.256	0.279
-271.355	242.219	0.063	0.105
-270.340	-200.000	0.023	0.235
-269.326	-200.000	0.026	-0.173
-268.311	-92.400	0.339	-0.095
-267.297	213.592	-0.209	0.328
-266.282	800.000	0.032	-0.120
-265.267	-174.804	-0.089	0.002
-264.253	323.971	0.109	0.207
-263.238	-69.969	0.070	-0.026
-262.224	800.000	0.040	-0.167
-261.209	-13.581	-0.503	-0.324
-260.195	113.913	0.226	-0.273
-259.180	800.000	0.040	-0.142
-258.165	-108.147	0.132	-0.028
-257.151	-200.000	0.003	0.466
-256.136	-200.000	0.001	-0.088
-255.122	169.803	0.253	0.360
-254.107	727.853	-0.051	-0.134
-253.092	1.292	-0.068	0.049
-252.078	41.933	0.066	0.060
-251.063	-94.632	-0.241	0.065
-250.049	-143.241	-0.158	0.015
-249.034	1.346	-0.346	-0.247
-248.019	384.738	-0.125	0.256
-247.005	-200.000	0.004	0.067
-245.990	50.328	0.157	-0.147
-244.976	-200.000	0.088	-0.390
-243.961	44.995	0.148	-0.135
-242.946	-128.969	-0.086	0.012
-241.932	32.151	0.140	0.120
-240.917	-96.465	-0.292	0.076
-239.903	399.229	0.182	0.378
-238.888	28.411	0.189	-0.159
-237.873	-69.281	-0.286	-0.109
-236.859	800.000	0.075	0.291
-235.844	469.249	0.073	0.163
-234.830	168.649	0.124	0.176
-233.815	-200.000	0.081	0.446
-232.800	-33.119	0.191	0.105
-231.786	-113.679	0.293	-0.057
-230.771	302.501	0.232	-0.426
-229.757	218.910	-0.125	-0.198
-228.742	51.814	0.145	0.137
-227.727	81.930	0.147	0.158
-226.713	-60.283	0.017	-0.007
-225.698	506.750	0.043	-0.100
-224.684	-200.000	0.033	-0.148
-223.669	800.000	-0.034	0.094
-222.655	47.573	-0.090	-0.083
-221.640	98.099	-0.239	-0.273
-220.625	-129.390	0.179	0.025
-219.611	-86.734	-0.181	-0.055
-218.596	800.000	0.071	-0.261
-217.582	800.000	-0.014	-0.051
-216.567	473.920	0.146	-0.326
-215.552	-200.000	-0.451	-0.001
-214.538	510.639	0.109	-0.251
-213.523	-73.576	0.353	-0.128
-212.509	-13.778	-0.182	0.117
-211.494	2.676	0.173	-0.124
-210.479	57.720	-0.132	0.128
-209.465	-47.866	-0.038	-0.018
-208.450	-108.604	-0.179	-0.038
-207.436	190.437	0.036	-0.054
-206.421	-27.527	-0.051	-0.029
-205.406	144.673	-0.231	-0.306
-204.392	-112.571	0.232	-0.046
-203.377	800.000	0.042	0.138
-202.363	257.528	0.093	-0.158
-201.348	-135.845	0.157	-0.018
-200.333	-190.938	0.282	0.003
-199.319	-11.041	0.327	0.214
-198.304	96.271	-0.069	-0.078
-197.290	-89.758	-0.206	0.060
-196.275	56.794	0.231	0.223
-195.260	497.988	0.077	0.176
-194.246	-187.843	-0.199	-0.003
-193.231	-100.511	0.239	-0.059
-192.217	-17.747	0.254	0.158
-191.202	593.490	0.073	0.180
-190.187	-43.137	0.165	-0.083
-189.173	9.887	0.155	-0.117
-188.158	-200.000	0.009	0.226
-187.144	-134.211	0.053	-0.006
-186.129	-72.458	0.063	0.023
-185.114	-0.662	0.073	-0.052
-184.100	800.000	-0.071	-0.239
-183.085	-113.847	0.106	0.020
-182.071	247.968	-0.073	0.122
-181.056	-200.000	0.059	-0.348
-180.042	236.160	-0.045	0.074
-179.027	368.949	0.087	0.174
-178.012	445.923	-0.157	-0.341
-176.998	800.000	-0.072	0.198
-175.983	-200.000	0.018	-0.146
-174.969	387.424	0.149	0.305
-173.954	415.218	0.115	-0.242
-172.939	-82.894	-0.312	-0.100
-171.925	-104.490	0.285	0.065
-170.910	-25.122	-0.308	0.180
-169.896	-179.909	0.240	-0.005
-168.881	-200.000	0.006	-0.156
-167.866	116.764	-0.085	0.103
-166.852	-62.787	-0.277	0.114
-165.837	800.000	0.033	-0.096
-164.823	82.735	0.167	0.179
-163.808	305.383	0.010	0.018
-162.793	147.671	0.105	0.139
-161.779	93.944	0.180	-0.202
-160.764	-200.000	0.005	-0.165
-159.750	89.356	0.156	0.173
-158.735	91.678	0.295	-0.328
-157.720	8.119	-0.133	-0.099
-156.706	-103.564	-0.425	0.099
-155.691	-190.725	0.194	0.002
-154.677	181.357	0.033	-0.048
-153.662	53.634	-0.100	0.095
-152.647	95.402	-0.241	-0.272
-151.633	195.646	-0.120	0.180
-150.618	800.000	-0.050	-0.209
-149.604	800.000	0.101	0.278
-148.589	66.489	0.293	0.295
-147.574	-200.000	0.048	0.791
-146.560	-200.000	-0.020	0.265
-145.545	106.617	-0.089	0.105
-144.531	775.459	-0.031	-0.084
-143.516	800.000	-0.038	-0.146
-142.502	60.441	-0.034	0.033
-141.487	28.796	-0.269	-0.226
-140.472	-171.950	-0.261	0.008
-139.458	151.790	0.139	0.187
-138.443	70.066	0.107	-0.110
-137.429	39.421	0.221	-0.195
-136.414	-62.156	-0.258	-0.106
-135.399	-26.982	-0.050	0.029
-134.385	800.000	-0.081	0.241
-133.370	353.003	0.043	-0.084
-132.356	-3.887	-0.181	-0.124
-131.341	276.866	0.039	-0.068
-130.326	-120.865	0.226	-0.038
-129.312	-34.585	0.232	0.126
-128.297	-149.470	0.321	0.025
-127.283	220.921	-0.139	-0.221
-126.268	167.289	-0.119	0.167
-125.253	21.229	-0.092	-0.074
-124.239	800.000	-0.030	0.117
-123.224	-200.000	-0.007	0.286
-122.210	-200.000	-0.001	0.037
-121.195	800.000	0.077	0.325
-120.180	-200.000	-0.051	-0.304
-119.166	196.688	-0.221	-0.333
-118.151	251.983	0.136	0.229
-117.137	-200.000	-0.067	0.379
-116.122	-200.000	0.003	0.092
-115.107	21.232	-0.232	-0.186
-114.093	73.029	0.142	0.146
-113.078	-3.292	-0.156	0.107
-112.064	-3.701	0.140	-0.096
-111.049	800.000	-0.018	-0.055
-110.034	61.828	-0.107	0.106
-109.020	-190.295	-0.209	-0.002
-108.005	-92.981	-0.091	0.025
-106.991	-118.130	-0.353	-0.062
-105.976	125.032	0.084	0.104
-104.962	800.000	-0.013	0.038
-103.947	-144.122	0.150	-0.014
-102.932	-114.305	0.116	-0.022
-101.918	800.000	0.077	-0.229
-100.903	800.000	0.015	0.054
-99.889	-200.000	0.056	-0.406
-98.874	162.878	-0.159	-0.220
-97.859	-51.973	-0.161	0.074
-96.845	49.189	-0.053	0.050
-95.830	-0.264	0.229	0.161
-94.816	-71.830	-0.326	0.120
-93.801	-115.323	0.263	0.049
-92.786	-28.702	0.147	0.083
-91.772	264.077	-0.168	-0.288
-90.757	-79.450	-0.068	0.023
-89.743	-198.498	0.120	-0.001
-88.728	800.000	-0.028	0.098
-87.713	478.864	-0.173	0.386
-86.699	-1.425	0.167	-0.116
-85.684	247.088	-0.077	0.128
-84.670	-25.335	0.148	0.086
-83.655	639.588	-0.225	-0.565
-82.640	-200.000	0.007	0.158
-81.626	-53.990	0.365	0.164
-80.611	-40.469	0.212	0.109
-79.597	27.828	-0.173	0.144
-78.582	-46.107	-0.180	0.087
-77.567	155.126	0.203	0.275
-76.553	-200.000	-0.084	0.673
-75.538	272.908	0.078	0.135
-74.524	-200.000	0.052	0.236
-73.509	254.864	0.073	-0.123
-72.494	-142.683	0.176	-0.017
-71.480	242.338	0.117	0.193
-70.465	800.000	0.021	0.062
-69.451	-75.683	0.127	-0.044
-68.436	185.571	0.085	0.124
-67.422	-200.000	0.012	0.103
-66.407	800.000	0.065	0.201
-65.392	-97.286	0.185	0.047
-64.378	307.418	0.116	-0.214
-63.363	740.738	0.150	-0.396
-62.349	91.656	-0.151	0.167
-61.334	-27.542	-0.803	-0.460
-60.319	-64.660	0.640	0.256
-59.305	800.000	-0.359	-1.054
-58.290	273.118	0.679	1.182
-57.276	541.577	0.642	1.508
-56.261	-200.000	97.596	586.521
-55.246	542.847	1396.191	3281.841
-54.232	156.101	2579.183	3505.003
-53.217	112.368	2156.270	2570.038
-52.203	44.176	1612.561	1457.499
-51.188	36.183	1348.204	1170.258
-50.173	32.859	1306.447	1114.381
-49.159	55.513	1353.333	1290.837
-48.144	57.523	1369.881	1318.617
-47.130	36.380	1327.997	1153.717
-46.115	32.707	1311.151	1117.314
-45.100	32.487	1306.056	1111.631
-44.086	32.440	1303.654	1109.264
-43.071	32.453	1301.513	1107.474
-42.057	32.382	1299.273	1105.111
-41.042	32.443	1297.542	1103.952
-40.027	32.489	1296.029	1102.891
-39.013	32.326	1294.793	1100.839
-37.998	32.454	1292.358	1099.471
-36.984	32.504	1290.855	1098.444
-35.969	32.533	1288.952	1096.951
-34.954	32.605	1287.009	1095.669
-33.940	32.479	1286.255	1094.255
-32.925	32.666	1284.937	1094.174
-31.911	32.613	1282.968	1092.149
-30.896	32.731	1281.130	1091.222
-29.881	32.608	1280.302	1089.761
-28.867	32.681	1278.536	1088.635
-27.852	32.612	1277.233	1087.084
-26.838	32.782	1275.655	1086.678
-25.823	32.608	1274.619	1084.752
-24.809	32.597	1273.473	1083.672
-23.794	32.560	1272.383	1082.490
-22.779	32.601	1270.948	1081.458
-21.765	32.643	1269.325	1080.273
-20.750	32.603	1268.051	1078.922
-19.736	32.531	1266.609	1077.237
-18.721	32.543	1265.851	1076.619
-17.706	32.471	1264.735	1075.218
-16.692	32.502	1263.241	1074.078
-15.677	32.405	1262.565	1072.909
-14.663	32.550	1261.130	1072.472
-13.648	32.455	1260.029	1070.954
-12.633	32.424	1259.731	1070.480
-11.619	32.424	1258.800	1069.646
-10.604	32.468	1257.454	1068.710
-9.590	32.462	1256.412	1067.750
-8.575	32.428	1255.156	1066.445
-7.560	32.430	1254.829	1066.137
-6.546	32.478	1253.880	1065.562
-5.531	32.519	1252.899	1064.918
-4.517	32.541	1252.433	1064.601
-3.502	32.442	1251.175	1062.932
-2.487	32.446	1250.243	1062.121
-1.473	32.490	1246.670	1059.290
-0.458	31.330	1231.995	1040.328
0.556	28.095	1213.813	1004.316
1.571	24.509	1219.541	989.139
2.586	23.891	1234.387	997.627
3.600	23.060	1222.870	983.612
4.615	16.279	1149.010	888.552
5.629	6.019	1072.279	778.506
6.644	2.041	1051.934	744.295
7.659	1.596	1049.330	740.224
8.673	1.491	1048.181	738.836
9.688	1.374	1047.152	737.479
10.702	1.568	1045.523	737.207
11.717	7.677	1053.789	772.745
12.731	18.095	1068.579	834.643
13.746	23.792	1075.676	868.024
14.761	24.998	1076.692	874.662
15.775	24.998	1076.583	874.495
16.790	24.661	1075.868	872.195
17.804	24.724	1075.141	871.832
18.819	24.808	1074.835	871.919
19.834	25.072	1073.943	872.403
20.848	24.925	1074.436	872.012
21.863	24.907	1073.491	871.078
22.877	25.040	1072.230	870.626
23.892	24.840	1071.989	869.378
24.907	24.893	1071.101	868.840
25.921	24.874	1070.422	868.118
26.936	24.779	1068.866	866.323
27.950	24.792	1067.358	865.086
28.965	24.727	1065.486	863.177
29.980	24.833	1064.026	862.429
30.994	24.853	1063.454	861.986
32.009	24.879	1062.272	861.079
33.023	24.706	1060.770	858.952
34.038	24.707	1060.228	858.441
35.053	25.038	1059.244	859.155
36.067	24.879	1059.036	858.148
37.082	24.901	1057.965	857.312
38.096	25.098	1057.425	857.743
39.111	25.138	1057.347	857.793
40.126	24.999	1055.088	855.221
41.140	24.727	1053.422	852.498
42.155	24.601	1052.004	850.674
43.169	24.470	1051.460	849.539
44.184	24.666	1050.204	849.380
45.199	24.477	1049.477	847.817
46.213	24.625	1048.807	847.903
47.228	24.823	1047.471	847.688
48.242	24.810	1047.124	847.270
49.257	25.050	1046.010	847.427
50.271	25.056	1045.238	846.757
51.286	24.965	1045.041	846.094
52.301	24.987	1043.870	845.172
53.315	24.864	1042.948	843.771
54.330	24.745	1042.059	842.420
55.344	25.025	1041.015	842.817
56.359	24.833	1040.464	841.392
57.374	24.667	1038.867	839.247
58.388	24.718	1038.729	839.302
59.403	24.667	1037.888	838.308
60.417	24.464	1036.936	836.513
61.432	24.594	1036.233	836.480
62.447	24.632	1035.859	836.283
63.461	24.695	1034.603	835.488
64.476	24.582	1033.555	834.042
65.490	24.469	1033.199	833.153
66.505	24.651	1032.558	833.411
67.520	24.594	1032.046	832.657
68.534	24.353	1030.718	830.392
69.549	24.115	1029.764	828.443
70.563	24.120	1028.939	827.729
71.578	24.095	1028.117	826.878
72.593	23.991	1027.207	825.593
73.607	24.135	1026.780	825.845
74.622	24.531	1026.357	827.264
75.636	24.404	1025.311	825.762
76.651	24.382	1024.218	824.706
77.666	24.336	1023.341	823.715
78.680	24.288	1023.321	823.403
79.695	24.391	1022.708	823.311
80.709	24.434	1021.861	822.754
81.724	24.453	1020.986	822.064
82.739	24.583	1020.322	822.058
83.753	24.932	1019.600	823.006
84.768	25.231	1018.933	823.770
85.782	25.299	1018.115	823.348
86.797	25.160	1017.146	821.855
87.812	25.048	1016.150	820.461
88.826	25.118	1015.490	820.179
89.841	25.302	1014.221	819.923
90.855	25.268	1013.316	818.962
91.870	25.060	1012.969	817.658
92.884	25.040	1011.900	816.633
93.899	25.100	1010.685	815.854
94.914	24.983	1010.134	814.803
95.928	24.936	1008.981	813.589
96.943	24.632	1007.906	811.271
97.957	24.468	1006.633	809.429
98.972	24.482	1005.131	808.212
99.987	24.694	1004.625	808.696
101.001	24.894	1003.648	808.741
102.016	24.898	1003.400	808.489
103.030	24.831	1001.896	806.903
104.045	24.683	1001.213	805.612
105.060	24.552	1000.159	804.106
106.074	24.656	999.705	804.134
107.089	24.947	999.331	805.073
108.103	24.847	997.868	803.375
109.118	24.477	997.190	801.098
110.133	24.558	996.180	800.579
111.147	24.518	994.665	799.111
112.162	24.336	994.214	797.864
113.176	24.580	993.430	798.253
114.191	24.389	992.955	796.947
115.206	24.171	991.318	794.590
116.220	24.188	990.849	794.222
117.235	24.329	989.983	794.086
118.249	24.302	989.092	793.182
119.264	24.201	988.225	791.964
120.279	24.232	987.511	791.463
121.293	24.243	987.022	791.046
122.308	24.354	986.075	790.710
123.322	24.173	984.983	788.965
124.337	24.131	983.772	787.739
125.352	23.583	982.129	783.933
126.366	23.661	980.738	783.097
127.381	24.418	980.852	786.459
128.395	24.713	980.938	787.756
129.410	24.922	979.796	787.689
130.424	24.765	979.211	786.458
131.439	24.782	978.187	785.641
132.454	24.743	977.237	784.637
133.468	24.946	975.744	784.260
134.483	24.888	975.532	783.766
135.497	25.008	974.865	783.684
136.512	25.097	973.757	783.114
137.527	25.041	973.061	782.241
138.541	25.010	972.501	781.585
139.556	25.102	971.393	781.026
140.570	25.161	970.810	780.745
141.585	25.205	969.699	779.973
142.600	25.089	968.822	778.696
143.614	25.443	967.913	779.433
144.629	25.498	967.319	779.122
145.643	25.358	965.683	777.132
146.658	25.117	964.448	775.025
147.673	25.047	963.709	774.063
148.687	24.805	963.029	772.403
149.702	24.745	961.758	771.057
150.716	24.839	961.053	770.826
151.731	24.912	960.537	770.662
152.746	25.191	959.541	770.993
153.760	25.195	959.201	770.671
154.775	25.279	958.554	770.441
155.789	25.149	957.648	769.088
156.804	25.140	957.046	768.496
157.819	25.257	955.997	768.088
158.833	25.449	955.000	768.040
159.848	25.478	953.872	767.190
160.862	25.280	952.534	765.199
161.877	25.212	951.775	764.233
162.892	25.250	951.195	763.863
163.906	25.202	949.835	762.497
164.921	25.302	948.722	761.963
165.935	25.236	947.797	760.869
166.950	25.268	947.603	760.782
167.964	25.321	946.237	759.842
168.979	25.022	945.311	757.766
169.994	24.976	944.678	757.002
171.008	25.177	944.334	757.508
172.023	25.397	943.054	757.340
173.037	25.068	942.195	755.199
174.052	25.054	941.196	754.269
175.067	24.992	940.352	753.267
176.081	25.045	940.292	753.373
177.096	25.198	939.224	753.094
178.110	24.691	938.377	750.224
179.125	24.488	938.064	749.052
180.140	24.546	937.673	748.920
181.154	24.906	936.918	749.757
182.169	25.154	936.838	750.666
183.183	25.192	936.586	750.556
184.198	25.094	935.692	749.364
185.213	25.116	935.075	748.895
186.227	25.243	934.552	748.941
187.242	25.198	934.095	748.318
188.256	25.329	933.329	748.185
189.271	25.439	932.460	747.881
190.286	24.970	931.438	745.047
191.300	24.419	929.779	741.363
192.315	23.569	928.048	736.393
193.329	23.560	927.933	736.196
194.344	24.389	928.356	739.909
195.359	25.024	928.328	742.452
196.373	25.090	927.875	742.296
197.388	25.052	927.356	741.661
198.402	25.026	926.968	741.177
199.417	25.061	925.960	740.448
200.432	24.890	924.816	738.764
201.446	24.797	924.164	737.794
202.461	24.768	923.981	737.461
203.475	23.821	922.126	732.019
204.490	23.270	920.515	728.408
205.504	24.177	920.978	732.442
206.519	24.858	920.700	734.953
207.534	24.879	920.037	734.445
208.548	25.174	920.312	735.809
209.563	24.817	919.440	733.584
210.577	24.875	918.727	733.186
211.592	25.336	918.503	734.831
212.607	25.293	917.635	733.894
213.621	25.360	916.944	733.553
214.636	25.273	916.622	732.874
215.650	25.340	915.321	732.042
216.665	25.436	914.951	732.074
217.680	25.353	914.031	730.933
218.694	24.802	912.961	727.772
219.709	24.861	912.168	727.318
220.723	25.039	912.167	727.975
221.738	25.094	911.311	727.451
222.753	25.054	910.887	726.886
223.767	25.231	910.696	727.385
224.782	25.492	909.933	727.770
225.796	25.448	909.103	726.863
226.811	24.749	907.605	722.778
227.826	24.163	906.512	719.475
228.840	24.197	906.243	719.335
229.855	24.270	905.403	718.900
230.869	23.864	904.720	716.659
231.884	24.514	904.303	718.882
232.899	25.149	904.464	721.504
233.913	25.121	903.796	720.793
234.928	25.112	903.252	720.259
235.942	24.938	902.631	719.002
236.957	24.725	901.640	717.296
237.972	24.740	901.248	716.981
238.986	24.988	900.493	717.310
240.001	24.718	900.370	716.065
241.015	24.982	899.613	716.456
242.030	25.006	899.307	716.245
243.045	25.021	898.909	715.926
244.059	25.215	898.344	716.189
245.074	25.018	897.325	714.527
246.088	24.936	896.044	713.117
247.103	25.071	895.762	713.365
248.117	25.485	896.117	715.234
249.132	25.857	895.888	716.467
250.147	26.067	894.986	716.517
251.161	26.054	894.645	716.129
252.176	26.030	894.316	715.706
253.190	26.106	893.714	715.463
254.205	26.183	893.143	715.247
255.220	26.131	892.565	714.516
256.234	25.989	892.050	713.479
257.249	25.842	891.359	712.280
258.263	26.027	890.431	712.207
259.278	26.033	889.664	711.555
260.293	26.183	889.142	711.664
261.307	25.977	888.331	710.141
262.322	25.725	887.547	708.459
263.336	25.131	885.490	704.424
264.351	23.980	883.768	698.475
265.366	24.285	883.209	699.170
266.380	25.209	884.578	703.817
267.395	25.551	884.052	704.675
268.409	25.587	883.516	704.327
269.424	25.855	882.829	704.766
270.439	25.858	882.083	704.121
271.453	25.808	881.629	703.499
272.468	26.052	881.131	703.993
273.482	25.970	881.041	703.540
274.497	25.790	879.201	701.306
275.512	25.213	878.836	698.708
276.526	25.687	878.841	700.493
277.541	25.846	878.326	700.639
278.555	25.655	877.577	699.240
279.570	25.533	876.379	697.749
280.585	25.745	875.996	698.206
281.599	25.613	875.333	697.102
282.614	25.013	874.126	693.758
283.628	24.986	873.699	693.254
284.643	25.488	873.161	694.706
285.657	25.044	872.164	692.135
286.672	24.584	871.758	689.977
287.687	25.305	871.073	692.153
288.701	25.433	870.601	692.209
289.716	25.097	869.822	690.236
290.730	24.969	869.418	689.364
291.745	24.788	868.359	687.765
292.760	25.099	868.555	689.057
293.774	26.088	868.504	692.752
294.789	26.435	868.458	693.988
295.803	26.350	867.700	692.995
296.818	26.457	867.115	692.873
297.833	25.911	865.983	689.820
298.847	25.774	865.524	688.869
299.862	26.100	865.508	690.045
300.876	26.348	865.254	690.726
301.891	26.385	863.631	689.511
302.906	25.764	863.255	686.783
303.920	26.184	862.885	688.029
304.935	26.443	862.668	688.779
305.949	26.344	862.132	687.917
306.964	26.094	861.208	686.167
307.979	26.133	860.777	685.909
308.993	26.484	860.917	687.293
310.008	26.595	860.061	686.971
311.022	26.240	859.297	684.955
312.037	26.022	858.629	683.538
313.052	25.813	857.717	681.960
314.066	24.938	855.855	677.109
315.081	24.708	855.229	675.684
316.095	25.552	855.843	679.302
317.110	26.157	855.204	681.019
318.125	25.242	853.656	676.277
319.139	24.065	852.468	670.843
320.154	23.937	852.376	670.231
321.168	25.065	852.660	674.642
322.183	25.628	852.636	676.684
323.197	25.807	852.853	677.469
324.212	26.007	852.361	677.770
325.227	26.098	851.622	677.463
326.241	25.854	851.240	676.183
327.256	25.902	850.192	675.470
328.270	25.850	849.737	674.857
329.285	25.815	848.900	674.001
330.300	25.391	848.004	671.642
331.314	25.604	847.949	672.339
332.329	25.951	848.068	673.667
333.343	26.284	847.197	674.158
334.358	26.297	846.640	673.707
335.373	26.349	846.752	673.928
336.387	26.499	846.647	674.345
337.402	26.556	846.682	674.527
338.416	26.598	846.114	674.171
339.431	26.793	845.542	674.379
340.446	26.875	845.176	674.333
341.460	26.586	844.684	672.805
342.475	26.523	844.062	672.018
343.489	26.610	844.202	672.391
344.504	26.896	843.734	673.023
345.519	27.156	843.160	673.468
346.533	27.133	843.133	673.303
347.548	27.068	842.330	672.360
348.562	27.031	841.603	671.583
349.577	26.824	841.292	670.511
350.592	26.941	840.326	670.113
351.606	26.958	839.778	669.680
352.621	26.809	838.981	668.436
353.635	26.784	837.997	667.499
354.650	26.138	836.224	663.656
355.665	25.125	834.858	658.791
356.679	25.625	834.838	660.555
357.694	26.088	834.255	661.734
358.708	26.074	833.835	661.290
359.723	26.374	834.177	662.603
360.738	26.650	833.769	663.231
361.752	26.607	833.636	662.907
362.767	27.027	833.111	663.969
363.781	27.303	832.483	664.416
364.796	27.395	832.058	664.356
365.810	27.346	831.873	663.971
366.825	27.427	831.115	663.602
367.840	27.026	830.625	661.693
368.854	26.778	829.298	659.673
369.869	26.755	829.231	659.479
370.883	26.886	828.718	659.489
371.898	26.701	828.255	658.388
372.913	26.937	827.367	658.481
373.927	27.072	827.167	658.753
374.942	27.066	827.200	658.700
375.956	27.058	826.952	658.413
376.971	27.346	826.185	658.790
377.986	27.456	825.763	658.793
379.000	27.384	825.478	658.244
380.015	27.191	824.857	656.995
381.029	27.270	824.342	656.813
382.044	27.237	823.924	656.301
383.059	27.351	823.378	656.218
384.073	27.393	822.736	655.802
385.088	27.252	821.976	654.628
386.102	27.090	821.368	653.505
387.117	26.973	820.671	652.474
388.132	26.693	819.496	650.477
389.146	26.325	818.380	648.213
390.161	26.707	818.483	649.605
391.175	26.948	818.930	650.766
392.190	26.675	817.456	648.563
393.205	25.311	815.376	641.980
394.219	23.926	813.340	635.375
395.234	23.810	813.256	634.840
396.248	25.330	815.149	641.700
397.263	26.769	815.685	647.205
398.278	26.731	815.311	646.715
399.292	26.543	814.691	645.497
400.307	26.586	814.120	645.141
401.321	26.622	813.757	644.924
402.336	27.147	813.501	646.531
403.350	27.402	813.816	647.632
404.365	27.727	813.341	648.354
405.380	28.091	813.090	649.388
406.394	28.132	812.503	649.006
407.409	27.905	812.384	648.050
408.423	27.981	811.912	647.884
409.438	27.931	811.784	647.547
410.453	28.109	810.957	647.463
411.467	28.144	810.209	646.931
412.482	27.990	810.213	646.332
413.496	28.104	809.670	646.245
414.511	28.032	809.501	645.800
415.526	28.110	808.596	645.293
416.540	27.875	807.997	643.931
417.555	27.758	807.505	643.069
418.569	27.725	806.966	642.468
419.584	27.639	806.570	641.792
420.599	27.482	805.974	640.708
421.613	109.640	1286.242	1457.067
422.628	94.658	1356.199	1457.166
