DTS Sentinel unit serial number:	SN413079Multiplexer serial number:	ORYXHardware model number:	OX4-SRSoftware version number:	ORYX F/W v4.00 Oryx Data Collector v3.7.2.0data status	okinstallation	princeton_trtdifferential loss correction	single-endedforward channel	channel 1reverse channel	N/Adate	2019/09/14time	07:10:35forward acquisition time	60.00reverse acquisition time	0.00gamma	496.2192k internal	0.2337k external	0.2337temperature offset calibration	1.0078default loss term (dB/km)	0.3790temperature slope calibration	1.0000multiplexer offset coefficient	1.0000multiplexer slope coefficient	1.0000fibre end	0.00T internal ref (°C)	26.19T ext. ref 1 (°C)	3.42T ext. ref 2 (°C)	20.92length (m)	temperature (°C)	Stokes	anti-Stokes-747.200	-123.687	0.180	0.029
-746.185	-57.565	-0.212	0.093
-745.171	69.087	-0.096	-0.099
-744.156	-142.855	0.065	-0.006
-743.142	-47.834	-0.140	-0.068
-742.127	39.138	-0.155	0.139
-741.112	-81.709	-0.262	-0.086
-740.098	-65.902	-0.176	-0.071
-739.083	-158.143	-0.463	0.027
-738.069	800.000	0.034	-0.104
-737.054	-98.898	-0.114	-0.029
-736.039	35.589	-0.165	-0.146
-735.025	330.349	-0.148	0.287
-734.010	12.628	-0.188	-0.146
-732.996	-200.000	-0.089	-0.399
-731.981	652.479	-0.078	0.200
-730.966	76.999	-0.076	-0.081
-729.952	-98.766	-0.275	-0.070
-728.937	-0.846	-0.165	-0.117
-727.923	143.102	0.288	0.385
-726.908	-200.000	0.034	-0.448
-725.894	-85.167	-0.425	-0.133
-724.879	-110.314	0.040	-0.008
-723.864	301.624	0.025	0.047
-722.850	800.000	-0.056	0.197
-721.835	-200.000	-0.004	-0.211
-720.821	-18.124	0.194	0.122
-719.806	-94.799	-0.185	0.050
-718.791	-200.000	0.029	0.228
-717.777	10.230	-0.106	0.081
-716.762	800.000	-0.117	0.478
-715.748	15.474	-0.160	-0.126
-714.733	21.222	-0.123	-0.100
-713.718	30.583	0.248	0.213
-712.704	-200.000	-0.005	0.068
-711.689	312.580	-0.063	0.119
-710.675	800.000	-0.069	-0.215
-709.660	800.000	0.136	0.397
-708.645	-53.231	0.446	-0.205
-707.631	65.263	0.214	0.216
-706.616	800.000	0.087	-0.257
-705.602	1.359	-0.213	-0.153
-704.587	-46.571	0.148	-0.073
-703.572	-54.298	0.278	0.126
-702.558	34.858	0.103	0.091
-701.543	231.446	-0.192	-0.315
-700.529	-200.000	0.019	-0.295
-699.514	354.870	0.023	-0.045
-698.499	800.000	0.052	0.143
-697.485	-9.862	0.249	0.166
-696.470	-177.286	-0.493	0.012
-695.456	13.993	0.184	-0.144
-694.441	76.598	-0.238	0.253
-693.426	-15.482	-0.321	-0.205
-692.412	-31.515	-0.243	0.137
-691.397	800.000	-0.059	0.226
-690.383	607.676	-0.053	-0.134
-689.368	281.435	0.125	-0.224
-688.354	800.000	0.080	-0.235
-687.339	-36.842	0.306	-0.165
-686.324	800.000	-0.078	-0.224
-685.310	-96.531	0.247	0.065
-684.295	390.503	0.083	0.171
-683.281	-144.753	-0.272	-0.025
-682.266	-200.000	0.020	-0.154
-681.251	632.080	-0.020	-0.050
-680.237	407.183	-0.060	0.126
-679.222	62.765	-0.195	-0.196
-678.208	196.629	-0.060	0.092
-677.193	800.000	0.034	0.094
-676.178	103.538	-0.211	0.248
-675.164	-111.644	-0.259	0.053
-674.149	128.339	-0.130	0.166
-673.135	-69.427	-0.274	0.105
-672.120	-141.913	0.291	0.029
-671.105	-142.091	0.293	0.029
-670.091	-99.379	-0.092	0.023
-669.076	-12.698	-0.413	-0.270
-668.062	-200.000	-0.030	-0.160
-667.047	-200.000	-0.256	-0.001
-666.032	406.343	-0.136	-0.288
-665.018	153.186	0.200	0.273
-664.003	518.577	-0.068	0.160
-662.989	425.097	-0.179	-0.385
-661.974	-109.202	0.187	0.040
-660.959	-200.000	0.031	-0.328
-659.945	1.141	0.225	0.161
-658.930	447.824	0.064	0.142
-657.916	88.423	-0.086	-0.096
-656.901	-69.105	-0.283	0.109
-655.886	614.890	0.088	0.221
-654.872	-4.043	-0.071	0.049
-653.857	33.775	-0.076	-0.066
-652.843	96.998	-0.100	-0.115
-651.828	-60.677	0.208	0.088
-650.814	-108.011	0.028	-0.006
-649.799	68.240	0.045	0.046
-648.784	8.662	-0.223	0.168
-647.770	-52.405	0.290	0.134
-646.755	19.564	-0.281	0.226
-645.741	-154.065	0.414	-0.028
-644.726	-123.481	-0.308	-0.049
-643.711	800.000	-0.135	-0.401
-642.697	107.076	0.109	-0.129
-641.682	124.701	-0.116	-0.146
-640.668	12.810	-0.074	-0.057
-639.653	7.624	0.231	-0.173
-638.638	-51.367	-0.207	-0.097
-637.624	-167.643	-0.345	0.014
-636.609	-107.944	-0.586	-0.127
-635.595	-55.198	0.281	0.126
-634.580	-200.000	0.029	-0.180
-633.565	-44.287	0.203	0.102
-632.551	-175.575	-0.118	0.003
-631.536	-137.834	-0.246	0.028
-630.522	23.892	0.253	0.209
-629.507	-200.000	-0.033	0.252
-628.492	-200.000	0.043	-0.308
-627.478	-200.000	-0.003	-0.185
-626.463	800.000	-0.142	-0.514
-625.449	-200.000	0.089	-0.488
-624.434	-118.773	0.042	0.007
-623.419	-139.900	-0.352	-0.037
-622.405	56.574	0.065	0.063
-621.390	9.573	-0.058	0.044
-620.376	-18.478	-0.154	-0.096
-619.361	181.054	-0.159	0.233
-618.346	32.686	0.107	0.093
-617.332	28.929	-0.164	-0.139
-616.317	-200.000	-0.015	0.145
-615.303	-60.735	0.233	-0.099
-614.288	-200.000	0.021	0.102
-613.273	-98.221	-0.100	0.026
-612.259	-70.050	0.316	-0.120
-611.244	-26.154	0.153	0.090
-610.230	6.123	0.200	0.148
-609.215	4.943	-0.121	-0.089
-608.201	-200.000	0.030	0.242
-607.186	133.042	0.221	-0.284
-606.171	98.250	-0.110	-0.126
-605.157	-200.000	-0.043	-0.249
-604.142	130.968	-0.182	-0.233
-603.128	-153.786	-0.168	-0.012
-602.113	39.260	0.144	0.129
-601.098	-47.359	0.183	-0.089
-600.084	-93.802	0.098	-0.027
-599.069	-50.308	0.304	0.143
-598.055	-62.979	-0.242	-0.100
-597.040	-135.464	0.158	0.019
-596.025	-99.004	0.165	-0.042
-595.011	-17.548	-0.252	-0.158
-593.996	126.687	-0.086	0.109
-592.982	-200.000	-0.004	-0.026
-591.967	-73.874	0.241	0.087
-590.952	-200.000	-0.025	-0.352
-589.938	-38.927	0.030	0.016
-588.923	51.224	-0.250	-0.237
-587.909	13.713	0.070	-0.054
-586.894	198.488	0.082	0.126
-585.879	548.149	-0.050	0.120
-584.865	40.214	0.173	0.155
-583.850	-19.676	-0.209	-0.129
-582.836	-200.000	0.071	0.400
-581.821	392.577	-0.173	-0.360
-580.806	-200.000	0.051	0.227
-579.792	-150.916	0.276	-0.021
-578.777	58.677	-0.312	0.305
-577.763	0.895	0.234	-0.167
-576.748	-63.900	0.185	-0.076
-575.733	-74.216	0.235	-0.085
-574.719	612.443	0.050	-0.125
-573.704	-45.438	0.207	0.102
-572.690	-158.389	0.114	-0.007
-571.675	-68.120	-0.232	-0.090
-570.661	-200.000	-0.019	0.139
-569.646	-200.000	-0.025	0.125
-568.631	-168.150	0.328	-0.013
-567.617	-200.000	0.001	0.138
-566.602	295.641	-0.199	-0.363
-565.588	800.000	0.082	-0.274
-564.573	200.724	0.024	0.037
-563.558	32.654	-0.142	-0.122
-562.544	569.571	0.138	0.335
-561.529	-200.000	0.033	-0.274
-560.515	595.874	-0.171	0.423
-559.500	188.641	-0.144	-0.214
-558.485	91.969	0.072	-0.081
-557.471	-117.843	0.070	0.013
-556.456	800.000	0.044	0.185
-555.442	-200.000	-0.027	-0.473
-554.427	800.000	-0.084	-0.359
-553.412	5.503	-0.077	0.056
-552.398	-200.000	0.007	0.358
-551.383	191.812	-0.227	0.341
-550.369	800.000	0.103	0.306
-549.354	-200.000	0.044	0.303
-548.339	-101.525	-0.365	-0.088
-547.325	46.079	0.066	-0.061
-546.310	163.008	0.052	0.072
-545.296	285.179	0.142	0.254
-544.281	-173.712	0.157	0.005
-543.266	-85.913	0.380	0.117
-542.252	88.611	-0.117	0.129
-541.237	-25.481	0.193	0.114
-540.223	-166.735	0.128	0.005
-539.208	123.046	-0.106	0.133
-538.193	-30.203	0.177	-0.100
-537.179	362.864	-0.119	-0.238
-536.164	-145.770	-0.150	0.013
-535.150	-95.158	0.210	-0.056
-534.135	30.953	-0.156	0.133
-533.121	16.342	0.103	0.081
-532.106	13.970	-0.104	0.081
-531.091	-200.000	-0.002	0.142
-530.077	800.000	0.024	0.086
-529.062	498.559	0.030	0.070
-528.048	-48.699	0.376	-0.180
-527.033	0.778	-0.243	0.173
-526.018	404.262	0.057	0.120
-525.004	-169.921	-0.015	0.001
-523.989	-60.288	0.122	-0.052
-522.975	-200.000	-0.030	-0.145
-521.960	-80.302	-0.224	0.075
-520.945	-18.272	0.221	0.138
-519.931	-200.000	0.008	0.224
-518.916	70.583	0.161	0.165
-517.902	-59.193	0.234	-0.101
-516.887	503.968	-0.067	0.155
-515.872	-113.785	0.266	-0.052
-514.858	2.314	0.311	-0.224
-513.843	-60.399	-0.164	0.070
-512.829	101.852	0.156	0.181
-511.814	28.020	0.195	-0.164
-510.799	-10.509	-0.278	-0.183
-509.785	-200.000	0.028	-0.133
-508.770	-147.424	-0.214	-0.018
-507.756	-95.274	0.308	0.082
-506.741	-7.407	-0.242	-0.163
-505.726	-38.512	0.158	-0.083
-504.712	800.000	-0.057	-0.176
-503.697	119.373	-0.112	-0.138
-502.683	-83.141	-0.194	0.062
-501.668	800.000	-0.053	-0.184
-500.653	-41.036	0.194	-0.100
-499.639	-111.660	-0.142	0.029
-498.624	-113.644	0.091	0.018
-497.610	-28.019	0.150	0.086
-496.595	-99.164	-0.150	0.038
-495.581	-157.848	-0.218	-0.013
-494.566	-81.648	-0.293	-0.096
-493.551	157.438	0.089	0.123
-492.537	800.000	-0.088	0.320
-491.522	-68.002	-0.172	0.067
-490.508	23.877	0.063	-0.051
-489.493	-16.799	0.088	0.055
-488.478	800.000	-0.100	-0.313
-487.464	321.287	0.234	-0.443
-486.449	49.822	0.168	0.157
-485.435	-200.000	0.039	0.330
-484.420	-97.412	-0.122	-0.032
-483.405	-181.074	0.154	-0.003
-482.391	263.120	-0.180	-0.311
-481.376	53.624	0.149	0.143
-480.362	-62.610	0.210	-0.087
-479.347	157.232	0.033	-0.045
-478.332	800.000	0.038	-0.109
-477.318	-122.478	0.106	-0.017
-476.303	113.827	-0.154	0.186
-475.289	800.000	0.163	-0.459
-474.274	12.729	-0.006	0.004
-473.259	800.000	0.070	-0.256
-472.245	-130.470	-0.463	0.062
-471.230	800.000	-0.022	-0.063
-470.216	260.609	-0.135	-0.231
-469.201	-96.361	-0.169	-0.044
-468.186	-200.000	0.047	0.250
-467.172	-22.669	0.110	-0.066
-466.157	-23.753	-0.101	0.060
-465.143	-1.155	-0.197	-0.139
-464.128	-68.401	0.401	-0.155
-463.113	-85.908	-0.114	0.035
-462.099	-96.422	-0.211	0.055
-461.084	-127.288	0.164	0.024
-460.070	129.003	-0.158	0.200
-459.055	358.582	0.050	0.100
-458.040	333.134	0.119	-0.229
-457.026	72.942	0.186	-0.193
-456.011	800.000	0.092	0.386
-454.997	-182.996	-0.407	-0.007
-453.982	-200.000	0.045	-0.346
-452.968	217.685	0.049	-0.077
-451.953	24.907	-0.159	0.131
-450.938	-200.000	-0.031	0.137
-449.924	800.000	-0.024	-0.100
-448.909	-75.551	-0.162	0.057
-447.895	117.373	0.056	0.068
-446.880	88.156	0.059	0.065
-445.865	-24.993	-0.175	-0.103
-444.851	-200.000	-0.001	0.240
-443.836	-21.088	0.065	0.039
-442.822	800.000	0.027	0.086
-441.807	520.579	-0.025	-0.058
-440.792	-88.851	-0.466	0.137
-439.778	-11.903	0.141	0.092
-438.763	87.945	-0.317	0.349
-437.749	-136.701	-0.325	-0.037
-436.734	-200.000	0.044	0.448
-435.719	51.219	-0.156	0.147
-434.705	-5.619	0.313	0.213
-433.690	-200.000	-0.009	-0.313
-432.676	56.653	0.280	-0.270
-431.661	-200.000	0.020	0.171
-430.646	2.710	0.082	-0.059
-429.632	222.499	-0.218	0.348
-428.617	178.807	-0.167	-0.242
-427.603	24.723	-0.302	0.248
-426.588	-45.387	0.225	-0.111
-425.573	138.217	-0.167	0.217
-424.559	167.448	-0.124	0.175
-423.544	-136.043	0.263	-0.031
-422.530	-157.622	0.264	0.016
-421.515	-13.708	-0.279	0.179
-420.500	-63.714	0.150	0.061
-419.486	-200.000	0.040	0.209
-418.471	-135.946	0.200	-0.023
-417.457	89.308	-0.189	0.209
-416.442	-98.548	0.133	0.034
-415.428	312.041	0.119	0.221
-414.413	-129.132	-0.247	0.034
-413.398	180.597	0.061	0.089
-412.384	-200.000	-0.010	0.067
-411.369	800.000	-0.013	-0.036
-410.355	144.637	-0.174	-0.231
-409.340	800.000	-0.076	-0.291
-408.325	800.000	-0.056	-0.190
-407.311	-129.822	0.259	0.035
-406.296	-103.086	-0.213	0.050
-405.282	-200.000	0.080	0.476
-404.267	282.851	-0.136	-0.242
-403.252	34.066	-0.160	0.138
-402.238	-200.000	-0.036	0.256
-401.223	-102.610	0.161	0.038
-400.209	293.683	0.064	-0.116
-399.194	-60.500	0.249	-0.105
-398.179	800.000	0.059	0.240
-397.165	338.726	0.104	-0.201
-396.150	389.714	0.105	-0.216
-395.136	68.582	0.205	0.208
-394.121	800.000	-0.145	-0.431
-393.106	-200.000	-0.002	-0.198
-392.092	-200.000	0.049	-0.228
-391.077	48.663	0.321	0.298
-390.063	-200.000	0.074	-0.405
-389.048	-21.602	-0.097	0.058
-388.033	796.688	0.201	0.548
-387.019	132.036	0.159	-0.202
-386.004	-200.000	-0.023	0.181
-384.990	-56.884	-0.280	-0.122
-383.975	-98.492	0.203	-0.051
-382.960	-101.935	0.267	0.064
-381.946	-47.782	-0.204	-0.098
-380.931	800.000	-0.084	0.273
-379.917	0.732	0.100	0.071
-378.902	-45.122	0.128	0.063
-377.888	17.156	0.262	-0.205
-376.873	-200.000	0.053	0.326
-375.858	321.020	-0.064	0.121
-374.844	-103.015	0.045	0.010
-373.829	-142.311	0.142	0.014
-372.815	276.601	-0.199	0.349
-371.800	13.446	-0.100	-0.077
-370.785	-200.000	0.023	0.111
-369.771	-83.435	0.101	-0.032
-368.756	307.138	0.311	-0.573
-367.742	287.017	-0.123	0.219
-366.727	382.777	-0.017	-0.035
-365.712	-92.040	0.062	-0.017
-364.698	-83.358	-0.077	-0.024
-363.683	65.482	-0.208	-0.208
-362.669	800.000	-0.093	0.306
-361.654	-200.000	-0.021	-0.210
-360.639	-40.630	-0.199	-0.102
-359.625	-67.901	-0.075	0.029
-358.610	-74.640	-0.135	0.048
-357.596	506.728	-0.044	0.100
-356.581	-89.732	-0.258	0.075
-355.566	497.898	0.048	0.109
-354.552	263.268	-0.065	0.112
-353.537	-200.000	-0.061	0.274
-352.523	-68.205	0.306	-0.118
-351.508	-200.000	0.076	-0.344
-350.493	35.752	0.095	0.083
-349.479	139.019	0.103	-0.134
-348.464	17.389	0.070	0.055
-347.450	-26.779	-0.205	0.118
-346.435	-40.745	0.443	-0.227
-345.420	-99.154	-0.267	-0.067
-344.406	-200.000	-0.038	0.384
-343.391	-200.000	0.061	-0.314
-342.377	-200.000	-0.011	0.387
-341.362	-200.000	0.034	0.260
-340.348	400.067	-0.126	-0.260
-339.333	-66.089	0.184	0.072
-338.318	196.668	0.126	0.189
-337.304	-200.000	0.010	0.125
-336.289	-146.544	-0.182	0.016
-335.275	800.000	0.022	0.089
-334.260	-1.448	-0.173	0.121
-333.245	558.952	-0.098	0.234
-332.231	-166.062	0.146	-0.006
-331.216	-67.747	0.277	0.107
-330.202	-9.536	0.359	-0.237
-329.187	-200.000	-0.022	-0.125
-328.172	498.154	0.069	0.156
-327.158	-151.236	0.447	0.033
-326.143	167.091	-0.181	0.253
-325.129	20.274	-0.261	-0.208
-324.114	-123.276	0.167	0.026
-323.099	190.382	-0.023	0.033
-322.085	800.000	-0.058	-0.244
-321.070	-42.283	-0.158	-0.079
-320.056	573.542	-0.103	-0.247
-319.041	-200.000	-0.050	-0.364
-318.026	135.683	-0.007	0.010
-317.012	742.701	0.037	0.098
-315.997	89.232	0.230	0.253
-314.983	-2.572	0.240	0.166
-313.968	6.672	0.128	0.094
-312.953	-58.488	0.434	0.186
-311.939	179.825	-0.181	-0.262
-310.924	-51.214	0.280	-0.129
-309.910	800.000	-0.073	-0.271
-308.895	-40.409	0.344	0.177
-307.880	-200.000	-0.009	0.163
-306.866	-14.389	-0.081	-0.052
-305.851	-104.764	-0.187	0.043
-304.837	43.162	-0.024	-0.022
-303.822	47.708	0.100	0.092
-302.807	460.075	0.231	0.507
-301.793	42.964	0.033	-0.030
-300.778	537.949	-0.020	0.046
-299.764	-116.793	0.126	0.023
-298.749	-40.490	0.234	0.120
-297.735	-103.055	-0.321	-0.075
-296.720	-200.000	0.025	-0.118
-295.705	-200.000	0.031	0.295
-294.691	800.000	-0.006	-0.019
-293.676	-63.088	-0.209	-0.085
-292.662	-101.585	-0.056	-0.013
-291.647	-200.000	0.003	0.131
-290.632	-200.000	-0.003	-0.098
-289.618	211.768	0.146	-0.227
-288.603	293.655	-0.066	-0.118
-287.589	106.079	-0.065	0.076
-286.574	-200.000	-0.002	0.412
-285.559	-23.637	0.304	-0.180
-284.545	122.281	-0.075	-0.092
-283.530	34.608	0.059	-0.051
-282.516	-118.462	-0.214	0.037
-281.501	-200.000	0.011	-0.361
-280.486	800.000	-0.097	0.390
-279.472	192.218	0.270	-0.402
-278.457	33.159	-0.305	0.261
-277.443	306.369	-0.032	0.059
-276.428	-36.616	0.126	-0.067
-275.413	150.910	0.175	0.234
-274.399	-95.277	0.117	-0.031
-273.384	9.137	0.249	0.185
-272.370	554.843	0.013	-0.032
-271.355	-200.000	-0.000	-0.063
-270.340	-63.266	-0.209	0.085
-269.326	361.979	0.135	0.266
-268.311	-45.825	0.318	-0.155
-267.297	39.893	-0.043	0.038
-266.282	-200.000	0.016	-0.168
-265.267	800.000	0.038	-0.141
-264.253	-22.092	-0.243	-0.145
-263.238	-200.000	-0.047	0.265
-262.224	1.621	0.018	-0.013
-261.209	344.826	0.059	-0.113
-260.195	314.439	-0.079	0.147
-259.180	-200.000	0.054	0.240
-258.165	-180.077	0.302	0.006
-257.151	-200.000	0.000	-0.353
-256.136	18.205	0.138	0.108
-255.122	-42.924	0.221	-0.111
-254.107	800.000	-0.113	-0.308
-253.092	219.508	0.093	-0.147
-252.078	-122.345	0.184	-0.030
-251.063	-103.002	0.221	-0.052
-250.049	-200.000	-0.016	-0.195
-249.034	-200.000	-0.016	-0.173
-248.019	210.336	-0.259	-0.400
-247.005	14.401	0.122	0.094
-245.990	-121.478	-0.078	0.013
-244.976	-65.612	-0.208	0.082
-243.961	800.000	-0.137	0.423
-242.946	800.000	0.074	0.282
-241.932	364.587	-0.136	-0.270
-240.917	2.126	-0.122	-0.087
-239.903	10.136	-0.241	0.180
-238.888	-107.687	-0.212	0.045
-237.873	-89.881	-0.471	0.135
-236.859	9.294	-0.397	-0.295
-235.844	73.591	-0.142	-0.147
-234.830	-176.802	0.336	0.008
-233.815	3.662	-0.175	0.125
-232.800	-45.045	-0.154	-0.075
-231.786	-100.114	-0.458	0.112
-230.771	-200.000	0.023	-0.366
-229.757	-200.000	-0.027	-0.339
-228.742	-200.000	0.039	-0.293
-227.727	-50.973	-0.228	-0.105
-226.713	-200.000	0.004	0.201
-225.698	800.000	0.021	-0.088
-224.684	800.000	-0.049	-0.207
-223.669	104.477	0.306	0.354
-222.655	-200.000	0.011	-0.174
-221.640	-24.922	0.083	-0.049
-220.625	9.051	-0.168	-0.125
-219.611	53.245	-0.138	0.130
-218.596	-108.445	-0.297	0.063
-217.582	-120.015	-0.200	-0.034
-216.567	220.621	-0.068	-0.108
-215.552	800.000	-0.041	0.173
-214.538	-80.926	0.332	0.108
-213.523	-84.645	-0.175	-0.054
-212.509	269.248	-0.051	0.089
-211.494	34.875	0.097	-0.084
-210.479	68.395	0.032	-0.032
-209.465	-91.489	0.115	0.032
-208.450	-200.000	-0.011	-0.280
-207.436	630.629	-0.118	-0.294
-206.421	-200.000	-0.013	0.232
-205.406	116.767	-0.358	-0.432
-204.392	159.932	-0.065	0.089
-203.377	-200.000	0.007	-0.100
-202.363	-200.000	0.028	-0.349
-201.348	-8.498	-0.141	0.093
-200.333	800.000	0.060	0.214
-199.319	-19.950	0.131	-0.080
-198.304	87.816	0.123	-0.134
-197.290	112.246	0.210	-0.250
-196.275	-174.345	-0.134	0.004
-195.260	-81.734	0.294	0.095
-194.246	-200.000	0.075	0.332
-193.231	-200.000	0.001	0.105
-192.217	108.701	0.048	0.057
-191.202	-54.578	0.053	0.023
-190.187	-118.056	-0.120	-0.021
-189.173	17.424	-0.139	-0.108
-188.158	-132.582	-0.187	0.024
-187.144	127.522	-0.418	0.521
-186.129	29.730	-0.302	0.252
-185.114	800.000	0.136	0.439
-184.100	800.000	0.082	-0.245
-183.085	-80.536	-0.307	-0.100
-182.071	-161.846	0.251	-0.013
-181.056	-200.000	-0.015	-0.120
-180.042	171.621	0.087	0.122
-179.027	-68.133	-0.279	0.107
-178.012	-200.000	-0.022	-0.123
-176.998	800.000	-0.078	0.312
-175.983	268.098	0.142	-0.244
-174.969	-200.000	0.068	0.338
-173.954	-83.956	0.213	-0.067
-172.939	-13.856	-0.182	0.115
-171.925	-87.669	-0.111	-0.033
-170.910	192.001	-0.145	-0.215
-169.896	-200.000	-0.015	-0.076
-168.881	92.723	0.155	-0.171
-167.866	-136.691	-0.079	-0.009
-166.852	26.379	0.244	-0.200
-165.837	159.897	-0.061	-0.084
-164.823	409.348	-0.082	0.171
-163.808	-33.406	-0.286	0.155
-162.793	-28.894	-0.278	-0.157
-161.779	270.618	-0.134	0.232
-160.764	-200.000	-0.038	-0.273
-159.750	-101.322	-0.267	0.064
-158.735	-155.115	0.163	-0.010
-157.720	-66.221	0.334	-0.130
-156.706	2.817	-0.201	-0.143
-155.691	800.000	0.069	-0.269
-154.677	-68.876	-0.170	0.064
-153.662	-33.624	0.179	0.097
-152.647	800.000	0.027	0.097
-151.633	6.710	0.298	-0.217
-150.618	-162.871	0.334	0.016
-149.604	800.000	0.026	0.105
-148.589	800.000	0.054	-0.230
-147.574	-55.201	-0.053	-0.024
-146.560	-200.000	0.094	0.410
-145.545	-200.000	0.032	0.483
-144.531	-38.499	-0.165	-0.086
-143.516	-100.671	0.359	-0.087
-142.502	-68.100	0.166	0.063
-141.487	800.000	-0.033	-0.106
-140.472	-80.579	0.068	-0.022
-139.458	-39.723	0.493	0.253
-138.443	-46.654	-0.211	-0.101
-137.429	668.372	0.042	0.106
-136.414	800.000	-0.066	0.225
-135.399	389.920	0.105	-0.213
-134.385	150.529	0.068	-0.090
-133.370	437.160	-0.097	-0.207
-132.356	320.695	-0.083	-0.155
-131.341	-200.000	-0.066	0.308
-130.326	145.917	0.166	0.218
-129.312	-200.000	-0.003	0.153
-128.297	177.556	-0.106	-0.151
-127.283	-113.242	0.364	0.070
-126.268	-49.784	-0.224	-0.104
-125.253	-158.836	0.299	0.017
-124.239	-20.228	-0.198	0.120
-123.224	415.037	-0.085	0.177
-122.210	-91.576	0.284	-0.079
-121.195	-200.000	-0.002	-0.026
-120.180	590.602	-0.108	-0.260
-119.166	1.902	0.128	-0.091
-118.151	-104.798	-0.240	0.054
-117.137	254.372	-0.055	-0.093
-116.122	-60.799	-0.177	0.073
-115.107	-200.000	-0.018	0.287
-114.093	327.700	-0.018	0.033
-113.078	-134.148	-0.277	-0.033
-112.064	187.374	-0.038	0.056
-111.049	-102.408	-0.278	0.065
-110.034	-79.667	0.028	0.009
-109.020	509.216	0.100	0.228
-108.005	-200.000	-0.058	-0.278
-106.991	-200.000	-0.006	-0.129
-105.976	-132.633	-0.219	-0.028
-104.962	217.225	-0.167	0.261
-103.947	164.048	-0.219	-0.302
-102.932	800.000	-0.081	0.236
-101.918	-86.730	0.278	0.083
-100.903	-50.410	-0.078	-0.036
-99.889	218.787	-0.101	-0.157
-98.874	83.353	0.154	-0.164
-97.859	75.801	0.165	-0.171
-96.845	6.353	0.219	0.159
-95.830	612.659	-0.079	0.194
-94.816	96.080	-0.196	0.219
-93.801	128.016	0.155	0.193
-92.786	-112.775	-0.048	-0.009
-91.772	-200.000	-0.014	0.067
-90.757	-22.792	-0.394	-0.233
-89.743	419.633	-0.018	-0.038
-88.728	800.000	0.032	-0.126
-87.713	-92.984	0.271	-0.074
-86.699	-200.000	0.036	0.420
-85.684	-173.761	-0.232	0.007
-84.670	-87.967	0.266	0.078
-83.655	-109.282	0.135	0.028
-82.640	158.046	-0.078	-0.106
-81.626	92.536	0.164	-0.181
-80.611	-200.000	-0.039	0.346
-79.597	800.000	0.091	-0.295
-78.582	84.864	0.192	-0.205
-77.567	176.947	0.025	-0.036
-76.553	-32.023	0.435	0.238
-75.538	-200.000	0.013	-0.167
-74.524	210.738	-0.065	-0.099
-73.509	146.633	0.168	-0.220
-72.494	-148.877	0.198	0.016
-71.480	267.256	-0.055	0.093
-70.465	11.384	-0.376	0.282
-69.451	-116.002	0.292	-0.053
-68.436	-200.000	0.009	-0.062
-67.422	-178.392	-0.212	-0.005
-66.407	-37.918	0.155	-0.081
-65.392	180.312	0.078	0.112
-64.378	-99.627	0.113	-0.028
-63.363	108.475	0.133	-0.155
-62.349	-200.000	-0.005	0.098
-61.334	106.993	-0.827	-0.960
-60.319	17.066	0.743	0.575
-59.305	800.000	-0.262	-1.116
-58.290	214.093	0.803	1.242
-57.276	800.000	0.513	1.457
-56.261	-200.000	117.958	640.521
-55.246	479.654	1555.337	3445.202
-54.232	173.555	2724.485	3841.443
-53.217	105.129	2159.682	2490.674
-52.203	38.091	1590.051	1382.337
-51.188	29.575	1332.681	1107.729
-50.173	26.778	1293.698	1058.970
-49.159	52.169	1353.553	1260.632
-48.144	50.695	1366.016	1263.392
-47.130	29.677	1319.667	1097.339
-46.115	26.365	1301.433	1062.707
-45.100	26.137	1296.572	1057.360
-44.086	26.150	1293.811	1055.144
-43.071	26.029	1291.924	1052.856
-42.057	25.980	1290.192	1051.115
-41.042	26.043	1287.980	1049.637
-40.027	26.127	1286.624	1048.979
-39.013	26.050	1284.435	1046.706
-37.998	26.165	1282.121	1045.443
-36.984	26.205	1280.929	1044.665
-35.969	26.145	1279.081	1042.768
-34.954	26.209	1277.637	1041.917
-33.940	26.274	1275.744	1040.708
-32.925	26.269	1274.585	1039.694
-31.911	26.258	1273.412	1038.633
-30.896	26.290	1271.940	1037.575
-29.881	26.315	1270.247	1036.297
-28.867	26.297	1268.991	1035.125
-27.852	26.304	1267.397	1033.823
-26.838	26.208	1266.886	1032.815
-25.823	26.236	1264.896	1031.314
-24.809	26.150	1264.051	1030.093
-23.794	26.307	1262.382	1029.585
-22.779	26.325	1260.859	1028.404
-21.765	26.287	1260.154	1027.574
-20.750	26.329	1258.668	1026.559
-19.736	26.135	1257.437	1024.412
-18.721	26.204	1256.288	1023.830
-17.706	26.224	1254.979	1022.837
-16.692	26.130	1254.048	1021.503
-15.677	26.260	1252.748	1021.140
-14.663	26.168	1251.392	1019.476
-13.648	26.072	1250.751	1018.369
-12.633	26.134	1249.896	1017.983
-11.619	26.082	1248.636	1016.623
-10.604	26.098	1248.133	1016.260
-9.590	26.046	1247.216	1015.183
-8.575	26.142	1246.123	1014.791
-7.560	26.078	1245.570	1013.942
-6.546	26.077	1244.329	1012.886
-5.531	26.115	1243.702	1012.549
-4.517	26.076	1242.459	1011.279
-3.502	26.165	1241.507	1010.965
-2.487	26.147	1240.258	1009.803
-1.473	26.077	1236.738	1006.509
-0.458	24.649	1221.693	986.349
0.556	21.424	1205.532	949.693
1.571	17.848	1211.715	934.923
2.586	17.050	1226.098	941.511
3.600	16.658	1214.024	930.005
4.615	12.599	1142.799	854.334
5.629	6.297	1072.724	771.080
6.644	3.550	1055.484	745.362
7.659	3.303	1053.224	742.509
8.673	3.484	1052.151	742.559
9.688	3.364	1051.343	741.345
10.702	3.488	1048.908	740.161
11.717	7.102	1053.882	761.002
12.731	14.235	1063.504	802.385
13.746	18.658	1069.119	827.938
14.761	19.433	1069.525	831.915
15.775	18.589	1067.582	826.265
16.790	17.741	1065.279	820.332
17.804	16.950	1064.190	815.618
18.819	16.778	1063.072	813.866
19.834	16.575	1062.473	812.358
20.848	16.405	1061.497	810.726
21.863	16.151	1060.841	808.933
22.877	16.041	1060.137	807.801
23.892	15.882	1059.806	806.712
24.907	15.995	1058.363	806.083
25.921	16.022	1057.637	805.590
26.936	15.922	1056.607	804.254
27.950	15.896	1055.236	803.018
28.965	16.177	1053.636	803.067
29.980	16.280	1052.065	802.287
30.994	16.258	1051.277	801.510
32.009	16.319	1050.161	800.881
33.023	16.218	1049.163	799.570
34.038	16.056	1048.188	797.986
35.053	16.121	1047.010	797.327
36.067	16.026	1046.382	796.331
37.082	16.171	1045.137	795.995
38.096	16.246	1044.973	796.153
39.111	16.285	1043.746	795.333
40.126	15.967	1043.173	793.328
41.140	15.866	1041.206	791.287
42.155	15.898	1039.749	790.260
43.169	15.713	1039.289	788.975
44.184	15.845	1037.768	788.366
45.199	15.675	1036.969	786.895
46.213	15.924	1035.876	787.162
47.228	15.962	1035.370	786.881
48.242	16.152	1033.737	786.459
49.257	16.169	1032.847	785.792
50.271	16.194	1032.024	785.212
51.286	16.171	1031.383	784.547
52.301	16.131	1030.707	783.778
53.315	16.020	1029.336	782.149
54.330	15.923	1028.372	780.901
55.344	15.843	1027.202	779.573
56.359	16.021	1026.748	779.985
57.374	15.934	1025.448	778.523
58.388	15.758	1025.129	777.401
59.403	15.770	1023.861	776.425
60.417	15.878	1023.100	776.277
61.432	15.785	1022.391	775.239
62.447	15.697	1021.905	774.396
63.461	15.748	1020.664	773.626
64.476	15.631	1020.132	772.614
65.490	15.651	1019.308	772.012
66.505	15.713	1018.501	771.620
67.520	15.784	1017.694	771.264
68.534	15.743	1017.097	770.555
69.549	15.814	1016.043	770.014
70.563	15.752	1015.345	769.134
71.578	15.635	1014.252	767.703
72.593	15.572	1013.874	767.060
73.607	15.619	1012.809	766.404
74.622	15.587	1012.923	766.274
75.636	15.630	1011.937	765.658
76.651	15.610	1011.565	765.219
77.666	15.649	1010.438	764.472
78.680	15.706	1009.648	764.069
79.695	15.612	1009.217	763.246
80.709	15.794	1008.862	763.738
81.724	15.791	1008.192	763.150
82.739	15.908	1007.395	763.008
83.753	16.147	1006.300	763.194
84.768	16.212	1006.001	763.191
85.782	16.193	1005.146	762.390
86.797	16.207	1004.177	761.652
87.812	16.017	1003.067	759.885
88.826	16.115	1002.521	759.847
89.841	16.291	1001.090	759.489
90.855	16.305	1000.502	759.038
91.870	16.334	999.491	758.333
92.884	16.197	998.843	757.161
93.899	16.401	997.925	757.312
94.914	16.381	996.894	756.371
95.928	16.414	996.151	755.887
96.943	16.195	995.481	754.332
97.957	16.069	994.966	753.312
98.972	16.335	993.412	753.258
99.987	16.277	992.974	752.601
101.001	16.319	991.690	751.746
102.016	16.134	991.454	750.678
103.030	16.254	990.526	750.443
104.045	16.279	989.341	749.591
105.060	16.125	988.492	748.200
106.074	16.053	987.524	747.077
107.089	15.858	986.627	745.471
108.103	15.768	985.484	744.145
109.118	15.684	984.891	743.259
110.133	15.689	983.784	742.378
111.147	15.780	983.159	742.246
112.162	15.903	982.375	742.130
113.176	16.159	981.407	742.458
114.191	15.956	980.807	741.045
115.206	15.914	980.613	740.647
116.220	15.941	979.198	739.635
117.235	15.956	978.397	739.026
118.249	15.912	977.182	737.851
119.264	15.863	977.158	737.554
120.279	15.882	976.019	736.711
121.293	15.771	975.224	735.562
122.308	15.711	974.247	734.500
123.322	15.767	973.058	733.780
124.337	15.842	971.775	733.074
125.352	15.714	971.184	732.008
126.366	15.629	969.821	730.546
127.381	15.751	968.845	730.274
128.395	15.778	967.930	729.637
129.410	15.760	967.220	728.962
130.424	15.860	966.123	728.504
131.439	16.065	965.544	728.886
132.454	15.911	965.088	727.814
133.468	15.912	964.275	727.140
134.483	15.940	963.437	726.564
135.497	15.940	962.261	725.614
136.512	16.085	961.378	725.507
137.527	16.127	960.781	725.172
138.541	15.906	960.401	723.871
139.556	15.932	959.451	723.202
140.570	16.193	958.947	723.882
141.585	16.310	958.128	723.699
142.600	16.256	957.468	722.906
143.614	16.361	956.474	722.542
144.629	16.433	956.009	722.432
145.643	16.295	954.634	720.740
146.658	16.267	953.713	719.862
147.673	16.223	952.698	718.847
148.687	16.120	952.140	717.923
149.702	16.060	951.106	716.822
150.716	16.096	950.329	716.328
151.731	16.096	949.640	715.745
152.746	16.106	948.790	715.083
153.760	16.137	948.576	714.992
154.775	16.290	947.851	715.028
155.789	16.398	946.937	714.732
156.804	16.262	946.345	713.649
157.819	16.235	945.957	713.180
158.833	16.323	945.483	713.131
159.848	16.310	944.653	712.383
160.862	16.330	943.187	711.300
161.877	16.272	942.096	710.173
162.892	16.142	941.195	708.882
163.906	16.182	939.963	708.061
164.921	16.024	939.672	707.115
165.935	16.204	938.488	706.917
166.950	16.276	937.638	706.513
167.964	16.175	937.123	705.642
168.979	16.136	936.409	704.879
169.994	16.267	935.027	704.322
171.008	16.342	934.412	704.111
172.023	16.366	934.321	704.081
173.037	16.380	933.546	703.491
174.052	16.318	932.550	702.419
175.067	16.221	931.713	701.325
176.081	16.021	931.228	700.066
177.096	16.173	930.695	700.235
178.110	16.293	930.254	700.341
179.125	16.235	929.738	699.647
180.140	16.248	929.278	699.292
181.154	16.413	928.688	699.470
182.169	16.465	928.480	699.466
183.183	16.527	927.518	698.937
184.198	16.566	926.700	698.421
185.213	16.456	926.302	697.605
186.227	16.518	925.340	697.074
187.242	16.657	924.671	697.083
188.256	16.695	924.091	696.738
189.271	16.648	923.372	695.941
190.286	16.513	922.142	694.397
191.300	16.141	921.526	692.347
192.315	16.171	920.989	692.004
193.329	16.154	920.549	691.543
194.344	16.379	920.213	692.151
195.359	16.495	919.152	691.764
196.373	16.463	918.718	691.249
197.388	16.736	918.036	691.789
198.402	16.791	917.736	691.724
199.417	16.713	917.727	691.341
200.432	16.878	916.802	691.254
201.446	16.917	916.355	691.017
202.461	16.930	915.703	690.514
203.475	16.853	915.306	689.841
204.490	16.862	914.277	689.041
205.504	16.711	913.541	687.811
206.519	16.741	912.732	687.265
207.534	16.603	912.275	686.298
208.548	16.634	911.620	685.872
209.563	16.701	910.689	685.381
210.577	16.748	910.319	685.232
211.592	16.934	909.747	685.494
212.607	16.939	908.588	684.581
213.621	16.999	907.814	684.179
214.636	16.809	907.579	683.174
215.650	16.924	906.775	682.974
216.665	17.092	905.797	682.853
217.680	17.098	905.178	682.347
218.694	16.945	905.000	681.538
219.709	17.057	903.858	681.068
220.723	16.945	903.619	680.377
221.738	16.913	902.514	679.357
222.753	16.961	902.304	679.332
223.767	17.115	901.769	679.484
224.782	17.145	901.018	678.978
225.796	17.239	900.814	679.142
226.811	17.235	899.843	678.333
227.826	17.062	899.343	677.205
228.840	17.032	898.581	676.455
229.855	16.976	897.601	675.433
230.869	17.007	897.010	675.052
231.884	17.103	895.851	674.502
232.899	16.973	895.383	673.572
233.913	16.978	894.307	672.722
234.928	16.934	893.707	672.040
235.942	16.871	893.303	671.425
236.957	16.932	892.770	671.205
237.972	17.056	892.122	671.149
238.986	16.995	891.521	670.399
240.001	16.878	890.979	669.470
241.015	17.136	890.328	669.939
242.030	17.136	889.825	669.499
243.045	17.138	889.074	668.885
244.059	17.217	888.759	668.898
245.074	17.156	887.915	667.964
246.088	17.208	887.432	667.747
247.103	17.344	886.792	667.741
248.117	17.476	886.391	667.897
249.132	17.618	885.953	668.066
250.147	17.655	885.647	667.919
251.161	17.712	884.795	667.442
252.176	17.681	884.251	666.851
253.190	17.787	883.485	666.628
254.205	17.748	883.125	666.146
255.220	17.947	881.917	665.952
256.234	17.730	881.390	664.647
257.249	17.741	881.206	664.492
258.263	17.795	880.432	664.060
259.278	17.716	879.705	663.148
260.293	17.840	878.913	662.972
261.307	18.020	878.722	663.471
262.322	17.852	878.079	662.274
263.336	18.000	877.126	662.072
264.351	17.971	876.456	661.393
265.366	17.987	875.824	660.921
266.380	18.084	875.005	660.617
267.395	17.881	874.609	659.475
268.409	17.947	873.566	658.888
269.424	17.951	872.914	658.350
270.439	17.951	871.982	657.592
271.453	17.701	871.793	656.430
272.468	17.631	871.517	655.892
273.482	17.837	871.014	656.246
274.497	17.855	870.181	655.633
275.512	17.809	869.674	655.013
276.526	17.825	869.189	654.654
277.541	17.853	868.691	654.328
278.555	17.943	868.322	654.338
279.570	18.053	867.456	654.048
280.585	18.138	866.520	653.610
281.599	18.085	865.677	652.710
282.614	17.916	864.844	651.383
283.628	18.001	864.545	651.421
284.643	17.910	864.000	650.607
285.657	17.923	863.502	650.224
286.672	18.025	862.643	649.908
287.687	17.890	862.372	649.132
288.701	18.010	861.753	649.067
289.716	17.957	861.243	648.425
290.730	18.047	860.457	648.115
291.745	18.112	859.898	647.883
292.760	18.335	859.173	648.123
293.774	18.153	859.108	647.327
294.789	18.282	858.159	647.044
295.803	18.224	857.323	646.138
296.818	18.086	856.670	645.065
297.833	18.208	855.935	644.916
298.847	18.182	855.373	644.337
299.862	18.389	854.793	644.624
300.876	18.369	854.253	644.083
301.891	18.295	854.167	643.682
302.906	18.480	852.941	643.398
303.920	18.526	852.924	643.499
304.935	18.495	852.522	643.024
305.949	18.473	851.670	642.241
306.964	18.511	850.663	641.569
307.979	18.467	850.523	641.242
308.993	18.492	850.163	641.008
310.008	18.687	848.895	640.721
311.022	18.464	848.668	639.661
312.037	18.320	847.826	638.435
313.052	18.301	847.426	638.005
314.066	18.279	846.712	637.329
315.081	18.274	845.922	636.658
316.095	18.229	845.616	636.206
317.110	18.291	844.960	635.885
318.125	18.348	844.587	635.762
319.139	18.185	844.545	635.066
320.154	18.257	844.432	635.194
321.168	18.609	842.621	635.077
322.183	18.435	842.270	634.115
323.197	18.484	842.044	634.067
324.212	18.352	841.554	633.156
325.227	18.416	840.559	632.587
326.241	18.484	840.047	632.396
327.256	18.334	839.811	631.610
328.270	18.409	839.090	631.288
329.285	18.284	838.697	630.475
330.300	18.301	838.217	630.121
331.314	18.381	837.274	629.652
332.329	18.478	837.333	629.998
333.343	18.609	836.966	630.146
334.358	18.560	836.463	629.534
335.373	18.705	836.071	629.713
336.387	18.651	835.611	629.114
337.402	18.669	835.289	628.880
338.416	18.917	834.988	629.508
339.431	19.042	834.469	629.516
340.446	18.781	834.549	628.568
341.460	18.942	833.729	628.483
342.475	18.916	833.656	628.278
343.489	18.914	833.422	628.035
344.504	19.095	832.694	628.093
345.519	19.207	831.960	627.894
346.533	18.995	831.531	626.741
347.548	18.773	830.969	625.452
348.562	18.738	830.439	624.870
349.577	18.732	829.633	624.190
350.592	18.845	828.851	623.955
351.606	18.729	828.054	622.877
352.621	18.730	827.905	622.715
353.635	18.825	827.257	622.519
354.650	18.821	826.850	622.141
355.665	18.742	825.937	621.112
356.679	19.135	825.255	621.968
357.694	18.917	825.221	621.097
358.708	19.104	823.960	620.767
359.723	18.904	823.635	619.747
360.738	18.986	823.176	619.645
361.752	18.976	822.526	619.062
362.767	19.163	821.760	619.104
363.781	19.315	821.704	619.553
364.796	19.345	821.020	619.090
365.810	19.474	820.856	619.376
366.825	19.462	820.568	619.061
367.840	19.266	819.988	617.863
368.854	19.391	819.134	617.613
369.869	19.239	818.735	616.716
370.883	19.216	818.864	616.674
371.898	19.379	818.393	616.847
372.913	19.491	817.824	616.766
373.927	19.477	817.116	616.126
374.942	19.455	816.937	615.861
375.956	19.463	816.462	615.476
376.971	19.620	815.959	615.601
377.986	19.615	815.263	615.002
379.000	19.663	815.083	614.985
380.015	19.703	814.547	614.666
381.029	19.669	813.804	613.932
382.044	19.679	813.257	613.501
383.059	19.631	812.646	612.813
384.073	19.558	812.089	612.080
385.088	19.460	811.326	611.105
386.102	19.455	810.967	610.764
387.117	19.397	810.542	610.184
388.132	19.520	809.621	609.871
389.146	19.357	809.225	608.943
390.161	19.700	809.154	610.045
391.175	19.714	808.348	609.436
392.190	19.523	808.008	608.450
393.205	19.522	807.506	608.016
394.219	19.488	807.172	607.591
395.234	19.431	806.517	606.843
396.248	19.366	806.183	606.309
397.263	19.359	805.737	605.895
398.278	19.382	805.476	605.727
399.292	19.404	804.847	605.279
400.307	19.311	804.419	604.575
401.321	19.438	803.742	604.457
402.336	19.422	803.479	604.151
403.350	19.599	803.090	604.425
404.365	19.684	802.558	604.268
405.380	19.759	802.363	604.329
406.394	19.746	801.827	603.827
407.409	19.918	801.526	604.148
408.423	19.929	801.209	603.894
409.438	20.132	800.508	604.019
410.453	20.170	800.089	603.781
411.467	20.072	799.976	603.304
412.482	20.226	799.095	603.119
413.496	20.100	799.312	602.791
414.511	19.949	798.723	601.769
415.526	20.117	798.193	601.902
416.540	20.021	797.707	601.149
417.555	20.106	797.086	600.923
418.569	20.119	796.646	600.580
419.584	20.201	796.275	600.534
420.599	20.284	795.797	600.406
421.613	162.358	1371.530	1796.379
422.628	140.846	1455.390	1796.475
