DTS Sentinel unit serial number:	SN413079Multiplexer serial number:	ORYXHardware model number:	OX4-SRSoftware version number:	ORYX F/W v4.00 Oryx Data Collector v3.7.2.0data status	okinstallation	princeton_trtdifferential loss correction	single-endedforward channel	channel 1reverse channel	N/Adate	2019/09/11time	17:56:11forward acquisition time	60.00reverse acquisition time	0.00gamma	496.2192k internal	0.2290k external	0.2290temperature offset calibration	0.9996default loss term (dB/km)	0.3790temperature slope calibration	1.0000multiplexer offset coefficient	1.0000multiplexer slope coefficient	1.0000fibre end	0.00T internal ref (°C)	44.00T ext. ref 1 (°C)	1.12T ext. ref 2 (°C)	39.24length (m)	temperature (°C)	Stokes	anti-Stokes-747.200	72.401	0.116	0.124
-746.185	-200.000	-0.009	0.666
-745.171	-181.820	-0.296	-0.006
-744.156	-70.620	-0.496	0.192
-743.142	14.366	0.068	-0.055
-742.127	-184.427	0.395	0.007
-741.112	-83.957	-0.151	-0.049
-740.098	28.542	-0.129	-0.112
-739.083	50.391	0.204	-0.197
-738.069	46.089	-0.194	-0.184
-737.054	198.676	-0.091	0.142
-736.039	46.012	-0.050	0.047
-735.025	98.885	-0.109	0.129
-734.010	-96.042	-0.291	-0.079
-732.996	800.000	-0.133	-0.586
-731.981	245.162	0.111	-0.192
-730.966	178.691	-0.200	0.300
-729.952	124.706	0.084	-0.108
-728.937	627.912	-0.144	0.373
-727.923	-83.509	-0.310	-0.101
-726.908	203.271	-0.156	-0.248
-725.894	-144.234	-0.061	0.006
-724.879	61.875	0.068	0.069
-723.864	-85.755	-0.185	-0.059
-722.850	219.289	-0.036	0.058
-721.835	-61.586	0.100	-0.043
-720.821	-200.000	-0.018	-0.190
-719.806	230.927	-0.112	-0.187
-718.791	91.647	-0.120	-0.138
-717.777	800.000	0.045	-0.154
-716.762	-93.072	0.318	0.091
-715.748	204.192	0.157	-0.249
-714.733	-190.799	-0.180	-0.002
-713.718	-200.000	0.005	-0.090
-712.704	222.316	-0.131	-0.215
-711.689	242.507	-0.133	-0.227
-710.675	145.017	0.085	0.117
-709.660	-29.821	-0.104	-0.061
-708.645	104.062	-0.120	-0.144
-707.631	-138.797	0.176	-0.020
-706.616	-108.009	-0.134	0.030
-705.602	-76.905	-0.248	0.089
-704.587	-173.333	0.209	0.007
-703.572	-200.000	0.041	-0.205
-702.558	-200.000	0.008	-0.293
-701.543	-33.167	-0.176	-0.100
-700.529	800.000	-0.095	0.333
-699.514	-200.000	0.066	-0.316
-698.499	2.701	-0.094	-0.069
-697.485	8.665	0.196	0.151
-696.470	-0.080	-0.178	-0.130
-695.456	-78.485	-0.348	0.122
-694.441	420.865	-0.103	-0.227
-693.426	-148.902	-0.333	0.028
-692.412	185.754	0.280	-0.425
-691.397	-200.000	0.030	-0.189
-690.383	164.333	-0.077	0.111
-689.368	102.049	0.088	0.105
-688.354	550.416	0.060	0.148
-687.339	-144.366	-0.320	-0.030
-686.324	-200.000	-0.016	-0.186
-685.310	-28.762	-0.178	0.105
-684.295	146.076	-0.102	-0.140
-683.281	-200.000	-0.000	-0.026
-682.266	441.368	0.075	0.168
-681.251	31.751	0.149	0.131
-680.237	37.839	-0.232	0.210
-679.222	162.712	0.085	-0.122
-678.208	58.085	-0.229	0.229
-677.193	800.000	-0.088	-0.291
-676.178	-200.000	-0.006	-0.330
-675.164	-200.000	-0.097	-0.534
-674.149	11.325	-0.145	0.113
-673.135	-119.273	-0.283	0.050
-672.120	-26.636	0.074	0.044
-671.105	90.425	0.136	-0.155
-670.091	447.522	0.069	0.155
-669.076	209.751	0.116	-0.185
-668.062	-200.000	0.001	-0.360
-667.047	348.638	0.210	-0.423
-666.032	-42.481	-0.043	-0.022
-665.018	-200.000	0.048	0.237
-664.003	-93.951	-0.159	0.045
-662.989	113.520	-0.153	-0.189
-661.974	800.000	0.044	0.129
-660.959	99.431	-0.076	-0.090
-659.945	-159.209	-0.158	-0.009
-658.930	349.970	0.076	-0.154
-657.916	-43.498	-0.186	-0.096
-656.901	-139.560	0.152	0.017
-655.886	486.885	0.027	-0.062
-654.872	231.941	0.167	-0.279
-653.857	-90.230	-0.207	-0.061
-652.843	555.706	0.021	-0.052
-651.828	227.508	0.039	-0.064
-650.814	-57.865	-0.368	-0.164
-649.799	107.433	-0.126	0.153
-648.784	-200.000	0.040	-0.178
-647.770	-195.544	0.235	0.002
-646.755	239.841	0.130	0.221
-645.741	-94.081	0.136	-0.038
-644.726	-29.485	0.378	-0.220
-643.711	171.566	-0.052	-0.077
-642.697	-40.389	-0.367	0.195
-641.682	123.052	0.232	-0.296
-640.668	111.348	0.201	0.248
-639.653	-25.020	0.162	0.098
-638.638	173.567	-0.097	0.143
-637.624	-62.976	0.422	-0.178
-636.609	-189.731	0.069	0.001
-635.595	-106.050	-0.084	-0.019
-634.580	800.000	-0.065	0.252
-633.565	800.000	-0.069	-0.194
-632.551	122.226	-0.214	-0.273
-631.536	-84.330	0.128	-0.041
-630.522	28.169	0.178	0.153
-629.507	-29.316	0.252	0.147
-628.492	-84.350	-0.035	0.011
-627.478	-64.753	0.281	-0.116
-626.463	-26.498	0.061	-0.036
-625.449	-87.370	-0.149	-0.046
-624.434	53.654	-0.058	-0.056
-623.419	27.978	-0.109	-0.094
-622.405	-88.571	-0.173	0.053
-621.390	-200.000	0.021	-0.388
-620.376	-38.643	-0.286	0.154
-619.361	-162.475	-0.208	0.011
-618.346	-89.516	-0.125	-0.037
-617.332	-52.093	0.025	0.012
-616.317	-55.487	0.082	0.037
-615.303	-200.000	0.104	-0.598
-614.288	126.093	0.029	0.038
-613.273	-200.000	-0.025	0.267
-612.259	-200.000	-0.006	0.239
-611.244	1.796	0.256	0.188
-610.230	-46.576	-0.263	0.132
-609.215	-65.375	-0.050	0.020
-608.201	-148.131	-0.274	0.023
-607.186	-200.000	-0.053	0.296
-606.171	-200.000	0.049	-0.300
-605.157	-12.615	-0.411	-0.273
-604.142	333.010	0.129	-0.254
-603.128	-132.887	0.070	0.009
-602.113	-175.191	-0.193	-0.005
-601.098	-200.000	0.042	0.324
-600.084	-200.000	-0.058	-0.314
-599.069	-43.979	-0.086	-0.044
-598.055	-52.069	0.198	-0.094
-597.040	-200.000	0.023	0.436
-596.025	-164.082	0.055	-0.003
-595.011	-155.302	-0.145	0.010
-593.996	-121.990	-0.333	0.056
-592.982	234.643	-0.077	0.129
-591.967	229.287	0.112	-0.187
-590.952	254.202	-0.085	0.149
-589.938	-135.380	0.088	-0.011
-588.923	19.808	-0.368	0.302
-587.909	112.218	0.379	-0.466
-586.894	-117.441	0.071	0.013
-585.879	-86.841	-0.167	0.052
-584.865	-122.824	0.105	0.017
-583.850	-117.338	-0.151	-0.028
-582.836	-200.000	-0.063	0.342
-581.821	-23.198	0.249	-0.153
-580.806	-71.461	-0.183	0.070
-579.792	75.806	-0.126	0.136
-578.777	69.376	-0.078	-0.081
-577.763	-158.476	0.286	0.017
-576.748	-12.872	0.112	0.074
-575.733	-72.410	0.323	-0.121
-574.719	17.893	0.033	-0.027
-573.704	-200.000	-0.073	-0.330
-572.690	-80.272	-0.199	0.068
-571.675	-19.535	0.296	-0.186
-570.661	-88.268	0.199	-0.061
-569.646	-81.058	-0.123	0.041
-568.631	-112.794	0.371	0.075
-567.617	18.153	-0.147	-0.119
-566.602	84.387	-0.164	-0.183
-565.588	88.183	-0.088	-0.100
-564.573	-200.000	0.053	-0.454
-563.558	-97.341	0.294	-0.078
-562.544	-19.315	-0.086	0.054
-561.529	184.905	-0.167	0.253
-560.515	240.627	-0.211	0.358
-559.500	-175.701	0.106	-0.003
-558.485	-79.269	0.286	0.099
-557.471	-200.000	-0.042	0.261
-556.456	-200.000	-0.056	0.301
-555.442	176.267	0.024	-0.036
-554.427	164.509	-0.137	0.197
-553.412	-150.885	0.126	0.010
-552.398	381.246	0.030	0.062
-551.383	-50.867	0.149	0.071
-550.369	-200.000	0.053	-0.379
-549.354	-200.000	-0.020	-0.105
-548.339	-200.000	0.073	-0.329
-547.325	-69.916	-0.078	0.030
-546.310	721.678	-0.022	-0.060
-545.296	-200.000	-0.007	-0.235
-544.281	103.208	-0.150	-0.179
-543.266	-200.000	-0.042	-0.228
-542.252	298.201	-0.081	-0.151
-541.237	-87.975	0.074	-0.022
-540.223	-200.000	-0.011	0.349
-539.208	-200.000	-0.068	0.407
-538.193	-200.000	-0.025	0.191
-537.179	-98.346	-0.346	0.090
-536.164	-87.340	0.234	0.072
-535.150	0.530	0.257	-0.187
-534.135	505.261	-0.057	-0.134
-533.121	-66.525	-0.196	0.079
-532.106	464.293	0.165	-0.376
-531.091	97.650	0.229	0.268
-530.077	73.438	-0.170	-0.181
-529.062	-200.000	0.028	0.197
-528.048	-86.428	-0.151	0.047
-527.033	-200.000	-0.026	-0.161
-526.018	612.081	0.074	-0.187
-525.004	92.571	-0.139	-0.159
-523.989	-63.800	-0.191	0.080
-522.975	-200.000	0.018	0.132
-521.960	149.209	0.114	0.156
-520.945	-95.223	0.201	-0.055
-519.931	-25.766	0.251	0.150
-518.916	678.258	-0.158	0.419
-517.902	239.440	0.210	0.354
-516.887	178.782	0.100	-0.149
-515.872	-54.340	-0.234	-0.108
-514.858	-200.000	0.023	-0.255
-513.843	40.720	-0.264	-0.241
-512.829	-33.619	0.094	-0.053
-511.814	-122.811	-0.113	-0.019
-510.799	-200.000	0.004	-0.121
-509.785	-104.486	-0.331	-0.078
-508.770	-78.126	-0.048	0.017
-507.756	140.398	-0.102	-0.136
-506.741	-41.694	0.177	0.092
-505.726	493.725	0.025	0.058
-504.712	800.000	0.072	-0.265
-503.697	98.149	-0.277	-0.324
-502.683	-200.000	0.007	0.225
-501.668	308.466	0.074	0.140
-500.653	400.997	0.061	-0.129
-499.639	800.000	-0.040	-0.114
-498.624	55.536	-0.156	0.153
-497.610	-200.000	-0.018	-0.141
-496.595	380.522	-0.108	-0.225
-495.581	-62.402	0.167	0.070
-494.566	-51.107	-0.082	-0.039
-493.551	-101.367	-0.109	-0.027
-492.537	-19.240	-0.104	-0.066
-491.522	324.824	-0.054	-0.105
-490.508	13.143	0.210	-0.165
-489.493	-108.813	0.218	-0.047
-488.478	-100.551	0.177	0.044
-487.464	-94.774	-0.162	-0.045
-486.449	499.365	0.112	-0.261
-485.435	-17.351	-0.320	0.205
-484.420	-138.960	-0.389	0.043
-483.405	-51.267	-0.061	0.029
-482.391	-166.611	0.227	-0.010
-481.376	-93.017	0.229	0.065
-480.362	52.779	0.091	0.088
-479.347	-65.688	0.093	0.038
-478.332	14.608	0.390	0.309
-477.318	800.000	0.050	0.159
-476.303	300.908	0.160	-0.300
-475.289	-22.936	0.165	0.101
-474.274	-108.440	-0.178	-0.039
-473.259	-142.727	-0.240	-0.024
-472.245	-52.880	0.269	-0.126
-471.230	-179.524	0.175	-0.004
-470.216	-200.000	-0.020	0.154
-469.201	347.631	-0.114	-0.229
-468.186	800.000	0.098	-0.311
-467.172	-153.814	-0.162	0.011
-466.157	133.169	0.166	0.218
-465.143	-109.684	-0.232	-0.050
-464.128	98.175	0.192	-0.223
-463.113	88.422	0.096	-0.108
-462.099	-200.000	-0.050	-0.227
-461.084	800.000	0.091	-0.332
-460.070	-143.364	-0.116	-0.011
-459.055	529.767	0.074	-0.176
-458.040	800.000	-0.086	0.262
-457.026	800.000	-0.089	0.301
-456.011	65.805	-0.098	0.100
-454.997	505.906	0.051	0.119
-453.982	-107.615	0.327	0.072
-452.968	-136.925	0.242	-0.028
-451.953	88.221	0.266	-0.299
-450.938	54.264	0.112	0.109
-449.924	-114.178	-0.121	0.024
-448.909	0.632	0.193	0.140
-447.895	-185.072	0.445	-0.007
-446.880	-22.559	-0.189	-0.116
-445.865	135.067	0.172	-0.227
-444.851	-92.519	0.194	0.055
-443.836	-200.000	0.069	-0.330
-442.822	800.000	0.013	0.054
-441.807	-31.668	-0.234	0.133
-440.792	-74.433	-0.315	-0.115
-439.778	800.000	-0.128	0.413
-438.763	-200.000	0.007	0.050
-437.749	341.514	0.159	0.315
-436.734	-184.342	-0.127	-0.002
-435.719	98.125	0.134	0.156
-434.705	330.140	-0.214	-0.418
-433.690	-20.880	-0.169	0.105
-432.676	800.000	-0.031	0.111
-431.661	75.489	-0.138	0.148
-430.646	-200.000	-0.040	0.374
-429.632	-200.000	0.006	0.066
-428.617	-4.185	-0.145	0.102
-427.603	102.043	0.061	0.072
-426.588	64.283	-0.133	-0.135
-425.573	435.464	-0.086	-0.188
-424.559	-106.136	0.157	0.036
-423.544	246.100	0.071	-0.121
-422.530	-89.731	-0.272	0.081
-421.515	-132.850	-0.197	0.025
-420.500	-200.000	-0.048	-0.338
-419.486	65.132	-0.064	0.066
-418.471	800.000	-0.106	0.327
-417.457	-123.613	-0.166	-0.027
-416.442	0.882	0.198	0.143
-415.428	-200.000	-0.018	0.189
-414.413	220.546	0.076	0.124
-413.398	-38.223	-0.254	-0.136
-412.384	101.758	-0.139	0.163
-411.369	-114.947	-0.187	0.036
-410.355	-166.594	-0.363	0.015
-409.340	95.699	0.215	-0.248
-408.325	147.493	0.060	-0.082
-407.311	-105.094	0.351	0.081
-406.296	-76.098	0.070	-0.025
-405.282	356.564	0.134	-0.270
-404.267	273.589	0.114	0.203
-403.252	159.379	-0.026	0.036
-402.238	39.514	0.083	-0.075
-401.223	-74.678	0.215	0.078
-400.209	-110.709	0.513	0.107
-399.194	144.435	-0.131	0.176
-398.179	-128.113	0.095	0.014
-397.165	-64.259	-0.252	0.104
-396.150	19.307	0.095	0.077
-395.136	-200.000	-0.035	0.453
-394.121	12.129	-0.112	-0.087
-393.106	219.791	-0.149	0.240
-392.092	186.285	0.033	0.050
-391.077	-59.907	-0.427	-0.184
-390.063	-200.000	0.035	0.273
-389.048	-200.000	0.018	-0.089
-388.033	-86.642	-0.120	-0.037
-387.019	-40.512	-0.303	0.159
-386.004	-3.713	0.045	-0.032
-384.990	78.248	0.245	0.264
-383.975	4.333	0.114	0.084
-382.960	-90.185	0.248	0.073
-381.946	589.475	0.134	-0.334
-380.931	-200.000	-0.051	0.510
-379.917	-200.000	0.017	-0.103
-378.902	800.000	-0.047	0.134
-377.888	800.000	-0.015	0.058
-376.873	95.065	-0.102	0.117
-375.858	208.994	0.173	-0.274
-374.844	-200.000	-0.020	-0.223
-373.829	-109.923	-0.132	0.028
-372.815	-104.693	0.146	0.034
-371.800	-87.378	-0.244	0.075
-370.785	676.256	-0.065	-0.169
-369.771	-200.000	0.008	-0.046
-368.756	-200.000	-0.046	0.206
-367.742	123.325	-0.145	0.183
-366.727	615.358	-0.163	-0.413
-365.712	455.541	0.069	0.154
-364.698	688.593	0.042	0.110
-363.683	-168.680	-0.279	0.011
-362.669	404.805	0.110	-0.234
-361.654	-139.873	0.058	0.006
-360.639	-138.106	0.076	-0.009
-359.625	-185.023	-0.395	-0.006
-358.610	453.303	-0.108	0.241
-357.596	-141.825	-0.198	0.020
-356.581	8.493	-0.253	0.192
-355.566	-4.486	0.328	-0.229
-354.552	-200.000	0.021	0.155
-353.537	-200.000	-0.024	0.183
-352.523	800.000	-0.059	0.182
-351.508	-17.040	-0.144	0.092
-350.493	-69.138	-0.288	-0.112
-349.479	-74.159	-0.237	-0.086
-348.464	-173.547	0.271	0.008
-347.450	-200.000	-0.001	0.065
-346.435	158.941	0.031	0.043
-345.420	-155.693	-0.276	-0.018
-344.406	-200.000	-0.046	0.232
-343.391	-32.969	0.099	-0.055
-342.377	-91.866	-0.177	0.051
-341.362	79.030	0.102	0.111
-340.348	31.476	-0.110	0.095
-339.333	800.000	0.037	-0.122
-338.318	-45.587	-0.061	-0.030
-337.304	118.737	0.213	-0.265
-336.289	340.975	-0.092	-0.181
-335.275	19.255	-0.050	0.041
-334.260	-200.000	0.007	-0.205
-333.245	189.983	-0.050	0.076
-332.231	467.243	0.108	0.244
-331.216	-50.947	-0.130	0.062
-330.202	186.995	-0.207	-0.311
-329.187	-51.054	-0.162	-0.076
-328.172	-200.000	0.004	-0.167
-327.158	-140.021	-0.074	-0.008
-326.143	800.000	-0.072	-0.317
-325.129	17.933	0.201	-0.161
-324.114	-155.902	0.337	0.022
-323.099	-80.782	0.168	0.056
-322.085	84.407	-0.230	-0.254
-321.070	-121.094	-0.160	-0.027
-320.056	-200.000	-0.016	0.189
-319.041	-91.616	-0.160	0.046
-318.026	179.342	0.080	-0.118
-317.012	-76.444	0.283	0.100
-315.997	-0.751	0.118	-0.084
-314.983	168.431	0.149	0.214
-313.968	-66.771	-0.154	-0.061
-312.953	-89.191	0.376	0.112
-311.939	-95.771	-0.194	0.052
-310.924	-133.238	-0.189	0.024
-309.910	-158.660	-0.232	-0.013
-308.895	224.172	-0.050	0.081
-307.880	-20.385	0.319	-0.197
-306.866	147.019	-0.094	0.127
-305.851	13.181	-0.086	0.067
-304.837	61.893	0.223	0.224
-303.822	-200.000	0.041	0.197
-302.807	800.000	-0.085	-0.284
-301.793	800.000	0.048	-0.174
-300.778	32.428	0.223	0.194
-299.764	149.361	0.177	-0.241
-298.749	-26.756	-0.342	-0.201
-297.735	448.083	-0.070	0.156
-296.720	153.869	0.166	0.229
-295.705	304.879	-0.075	0.141
-294.691	-133.471	-0.080	-0.010
-293.676	205.070	-0.314	0.491
-292.662	25.762	0.220	-0.185
-291.647	800.000	0.046	0.177
-290.632	482.884	0.069	0.157
-289.618	3.171	0.220	-0.161
-288.603	-200.000	0.078	-0.403
-287.589	800.000	0.037	-0.135
-286.574	-200.000	0.010	-0.082
-285.559	69.555	-0.162	-0.168
-284.545	-129.400	0.173	0.024
-283.530	800.000	-0.082	-0.342
-282.516	800.000	0.071	-0.309
-281.501	59.048	0.171	-0.169
-280.486	-81.287	0.187	-0.062
-279.472	-59.765	-0.220	0.095
-278.457	-200.000	-0.041	-0.256
-277.443	-25.576	0.290	-0.172
-276.428	52.822	0.046	0.044
-275.413	-200.000	0.004	-0.053
-274.399	-110.546	0.264	0.055
-273.384	-200.000	0.019	-0.141
-272.370	-5.406	-0.266	0.184
-271.355	218.464	0.128	-0.205
-270.340	106.658	0.189	-0.226
-269.326	-76.740	-0.148	0.052
-268.311	-110.971	0.038	0.008
-267.297	-23.247	-0.141	-0.085
-266.282	-56.189	-0.285	-0.128
-265.267	-200.000	-0.059	0.638
-264.253	800.000	-0.105	0.346
-263.238	-100.513	-0.115	0.029
-262.224	43.333	0.256	-0.235
-261.209	-194.729	-0.124	-0.001
-260.195	307.565	-0.058	-0.109
-259.180	267.538	-0.036	0.064
-258.165	188.178	-0.141	-0.211
-257.151	6.522	0.358	0.267
-256.136	7.979	0.165	0.125
-255.122	800.000	0.053	0.210
-254.107	-151.266	0.099	-0.007
-253.092	156.613	-0.173	0.240
-252.078	306.035	-0.162	-0.303
-251.063	800.000	0.072	0.289
-250.049	37.644	0.143	0.127
-249.034	-46.927	0.144	0.071
-248.019	96.744	-0.107	0.123
-247.005	-200.000	-0.041	-0.290
-245.990	-200.000	0.004	-0.155
-244.976	-33.691	-0.076	-0.042
-243.961	-200.000	-0.005	-0.068
-242.946	-200.000	-0.027	-0.417
-241.932	103.308	-0.143	0.168
-240.917	800.000	-0.054	-0.164
-239.903	581.254	-0.044	-0.108
-238.888	800.000	-0.065	0.242
-237.873	671.388	0.065	-0.169
-236.859	-22.865	-0.130	-0.079
-235.844	313.338	-0.042	0.080
-234.830	-200.000	-0.005	0.134
-233.815	800.000	0.070	-0.251
-232.800	-58.804	0.192	-0.083
-231.786	-138.733	0.281	0.031
-230.771	58.199	-0.125	0.123
-229.757	-46.195	0.153	0.076
-228.742	-170.364	0.091	-0.003
-227.727	-104.366	0.333	0.077
-226.713	169.969	0.082	0.117
-225.698	-12.134	0.262	-0.172
-224.684	87.023	-0.273	0.303
-223.669	89.094	0.215	-0.240
-222.655	-42.943	-0.252	-0.128
-221.640	-200.000	-0.026	0.160
-220.625	22.814	0.127	-0.104
-219.611	-200.000	0.059	-0.325
-218.596	141.958	-0.129	0.172
-217.582	101.536	0.042	-0.049
-216.567	-192.102	-0.132	-0.001
-215.552	-200.000	-0.013	-0.106
-214.538	-10.322	-0.200	0.133
-213.523	88.592	0.166	0.185
-212.509	-94.134	-0.382	-0.105
-211.494	528.545	-0.113	-0.268
-210.479	92.832	0.038	-0.043
-209.465	546.834	0.082	0.196
-208.450	-49.208	-0.230	-0.110
-207.436	800.000	-0.036	0.159
-206.421	615.931	0.114	0.286
-205.406	-53.736	-0.098	0.045
-204.392	-200.000	0.017	-0.077
-203.377	-200.000	0.040	0.223
-202.363	800.000	-0.011	-0.046
-201.348	800.000	0.137	0.408
-200.333	53.841	-0.148	-0.142
-199.319	-48.777	-0.250	-0.120
-198.304	-160.787	0.054	0.003
-197.290	-114.170	-0.365	-0.071
-196.275	120.703	-0.113	-0.141
-195.260	-3.334	-0.224	0.157
-194.246	-200.000	0.004	0.341
-193.231	-30.315	0.349	0.199
-192.217	28.440	-0.348	0.295
-191.202	3.672	-0.265	0.194
-190.187	16.034	0.139	0.110
-189.173	-200.000	0.016	0.158
-188.158	-128.454	0.178	-0.025
-187.144	3.798	-0.264	0.193
-186.129	-54.341	0.200	-0.091
-185.114	86.563	-0.122	0.135
-184.100	-90.122	0.178	0.052
-183.085	80.303	-0.062	-0.067
-182.071	-140.315	0.526	-0.055
-181.056	800.000	0.110	-0.360
-180.042	-128.596	0.167	0.024
-179.027	-68.617	0.048	0.019
-178.012	34.135	-0.119	-0.104
-176.998	-60.841	0.157	-0.067
-175.983	-17.041	0.068	0.043
-174.969	-125.623	-0.148	0.023
-173.954	-200.000	0.007	-0.081
-172.939	112.523	-0.108	0.131
-171.925	-200.000	-0.024	-0.501
-170.910	-200.000	-0.027	-0.186
-169.896	-68.329	-0.165	-0.064
-168.881	303.741	0.016	-0.029
-167.866	-165.844	0.250	-0.011
-166.852	-200.000	-0.002	-0.059
-165.837	-15.366	-0.126	0.081
-164.823	-200.000	-0.010	0.110
-163.808	-200.000	0.015	-0.435
-162.793	-112.125	-0.262	0.053
-161.779	184.735	-0.069	-0.102
-160.764	-121.593	-0.135	0.022
-159.750	-127.440	0.137	0.020
-158.735	-158.936	0.339	0.019
-157.720	-29.389	0.225	-0.129
-156.706	92.038	0.094	-0.106
-155.691	-200.000	-0.096	0.587
-154.677	-159.216	0.189	0.011
-153.662	-47.863	0.342	-0.166
-152.647	-200.000	0.027	0.119
-151.633	66.715	-0.061	0.062
-150.618	145.739	0.136	-0.183
-149.604	-4.061	-0.305	-0.212
-148.589	-200.000	-0.009	-0.046
-147.574	23.331	-0.232	0.191
-146.560	134.467	0.100	0.130
-145.545	-85.713	-0.278	0.086
-144.531	-105.695	0.248	-0.056
-143.516	-84.891	0.232	-0.073
-142.502	56.928	0.124	0.121
-141.487	-143.079	-0.098	-0.009
-140.472	40.643	-0.159	0.144
-139.458	-76.081	-0.264	0.093
-138.443	800.000	-0.046	-0.199
-137.429	100.658	-0.080	0.093
-136.414	-60.439	0.339	0.144
-135.399	-200.000	-0.061	0.539
-134.385	383.206	-0.085	0.175
-133.370	-200.000	0.020	-0.098
-132.356	-76.811	0.251	-0.088
-131.341	89.659	-0.122	-0.136
-130.326	191.071	-0.128	-0.192
-129.312	85.509	-0.034	-0.038
-128.297	-79.575	-0.257	-0.087
-127.283	74.365	-0.238	0.250
-126.268	305.571	-0.048	-0.089
-125.253	115.594	0.118	0.144
-124.239	800.000	0.149	0.564
-123.224	131.928	0.113	0.145
-122.210	-118.833	-0.129	0.023
-121.195	0.857	0.202	0.145
-120.180	263.536	-0.032	-0.056
-119.166	800.000	0.077	0.294
-118.151	-111.672	0.384	0.078
-117.137	800.000	0.075	-0.231
-116.122	800.000	-0.055	0.218
-115.107	140.126	0.140	0.185
-114.093	-200.000	-0.006	0.191
-113.078	150.194	-0.028	0.038
-112.064	77.037	0.080	-0.085
-111.049	-70.272	-0.204	0.078
-110.034	-200.000	-0.063	0.289
-109.020	-52.413	0.113	-0.052
-108.005	9.597	-0.134	-0.101
-106.991	346.786	0.049	0.096
-105.976	-57.095	-0.338	0.149
-104.962	-200.000	0.010	0.143
-103.947	231.424	-0.205	-0.336
-102.932	-101.789	0.089	0.022
-101.918	8.987	0.159	-0.120
-100.903	800.000	0.034	0.132
-99.889	126.202	-0.132	0.166
-98.874	-153.693	0.025	-0.002
-97.859	-70.168	0.306	-0.116
-96.845	-97.189	-0.240	-0.063
-95.830	-131.755	-0.365	0.048
-94.816	-200.000	0.005	0.026
-93.801	800.000	-0.105	0.324
-92.786	64.446	-0.158	-0.159
-91.772	-59.836	0.054	-0.023
-90.757	-21.962	-0.244	0.148
-89.743	-97.065	0.134	-0.035
-88.728	-87.023	-0.422	0.128
-87.713	7.733	-0.088	-0.066
-86.699	169.173	0.133	-0.189
-85.684	-55.639	-0.273	0.122
-84.670	-6.253	0.373	-0.254
-83.655	-169.729	0.222	0.008
-82.640	402.930	-0.238	-0.500
-81.626	143.665	0.112	-0.149
-80.611	-79.965	0.289	0.097
-79.597	67.263	0.370	0.376
-78.582	-187.183	0.223	0.003
-77.567	233.410	-0.058	0.096
-76.553	-38.289	0.196	-0.104
-75.538	220.574	0.173	-0.276
-74.524	422.311	-0.151	0.323
-73.509	203.218	0.110	0.169
-72.494	589.405	-0.019	0.046
-71.480	339.222	-0.080	0.155
-70.465	368.294	0.069	0.140
-69.451	220.330	-0.102	-0.164
-68.436	221.331	-0.059	-0.095
-67.422	-76.082	-0.513	0.181
-66.407	64.020	0.102	-0.102
-65.392	-117.281	0.262	0.047
-64.378	-16.305	0.251	-0.159
-63.363	263.924	-0.147	0.255
-62.349	458.572	-0.031	-0.068
-61.334	30.260	-0.680	-0.579
-60.319	-94.108	0.468	0.128
-59.305	-200.000	-0.144	-0.718
-58.290	-43.491	0.663	0.334
-57.276	-200.000	0.256	1.954
-56.261	-200.000	71.093	525.329
-55.246	610.174	1266.833	3156.502
-54.232	147.821	2486.527	3342.788
-53.217	123.410	2224.737	2781.411
-52.203	57.245	1670.212	1625.222
-51.188	48.575	1385.646	1294.788
-50.173	44.405	1337.482	1224.674
-49.159	61.807	1369.205	1359.691
-48.144	70.740	1388.486	1432.877
-47.130	48.471	1352.070	1262.579
-46.115	44.208	1335.992	1221.927
-45.100	43.965	1331.523	1216.337
-44.086	43.821	1328.668	1212.813
-43.071	43.830	1326.409	1210.757
-42.057	43.734	1324.350	1208.260
-41.042	43.818	1322.432	1206.964
-40.027	43.875	1320.775	1205.742
-39.013	43.845	1318.998	1203.890
-37.998	43.880	1317.009	1202.236
-36.984	43.958	1315.255	1201.053
-35.969	43.992	1313.426	1199.537
-34.954	44.056	1311.873	1198.445
-33.940	44.086	1310.526	1197.344
-32.925	44.101	1309.112	1196.096
-31.911	44.159	1307.163	1194.607
-30.896	44.113	1305.992	1193.217
-29.881	44.130	1304.431	1191.846
-28.867	44.152	1302.711	1190.358
-27.852	44.122	1301.378	1188.914
-26.838	44.129	1299.720	1187.394
-25.823	44.177	1298.437	1186.455
-24.809	43.994	1297.642	1184.614
-23.794	43.999	1296.119	1183.206
-22.779	43.978	1294.767	1181.803
-21.765	44.145	1293.351	1181.437
-20.750	44.105	1291.946	1179.869
-19.736	43.990	1290.863	1178.165
-18.721	43.916	1289.405	1176.360
-17.706	43.966	1288.287	1175.583
-16.692	44.053	1286.736	1174.623
-15.677	43.981	1285.919	1173.413
-14.663	43.913	1285.055	1172.188
-13.648	43.915	1283.720	1170.935
-12.633	43.855	1282.809	1169.709
-11.619	43.985	1282.102	1169.769
-10.604	43.935	1281.058	1168.485
-9.590	43.954	1279.465	1167.093
-8.575	43.882	1279.106	1166.303
-7.560	43.872	1278.053	1165.242
-6.546	43.899	1277.163	1164.535
-5.531	44.023	1275.969	1164.118
-4.517	43.939	1275.046	1162.747
-3.502	43.950	1274.509	1162.270
-2.487	43.917	1273.531	1161.144
-1.473	43.948	1270.178	1158.218
-0.458	43.049	1254.995	1139.247
0.556	38.279	1234.130	1095.810
1.571	33.747	1236.199	1072.031
2.586	32.308	1250.495	1076.102
3.600	30.450	1239.808	1056.258
4.615	21.620	1160.886	941.678
5.629	7.999	1075.410	803.950
6.644	1.641	1050.281	753.681
7.659	1.053	1047.527	748.733
8.673	0.898	1045.990	746.802
9.688	0.911	1044.466	745.712
10.702	1.282	1043.810	747.007
11.717	8.926	1055.422	793.174
12.731	19.808	1070.747	858.956
13.746	23.642	1074.518	880.974
14.761	23.644	1074.071	880.535
15.775	23.528	1073.766	879.633
16.790	23.302	1072.976	877.787
17.804	23.303	1072.189	877.075
18.819	23.324	1071.686	876.688
19.834	23.366	1071.569	876.722
20.848	23.368	1071.335	876.462
21.863	23.456	1070.022	875.746
22.877	23.287	1069.545	874.446
23.892	23.329	1068.706	873.889
24.907	23.373	1068.068	873.505
25.921	23.261	1066.892	871.914
26.936	23.426	1065.488	871.500
27.950	23.376	1064.001	869.963
28.965	23.167	1062.157	867.355
29.980	23.200	1061.151	866.619
30.994	23.381	1060.069	866.541
32.009	23.473	1058.968	866.015
33.023	23.269	1057.871	864.048
34.038	23.322	1057.222	863.699
35.053	23.483	1056.201	863.574
36.067	23.430	1055.533	862.689
37.082	23.484	1054.613	862.127
38.096	23.673	1053.834	862.332
39.111	23.736	1053.184	862.029
40.126	23.543	1051.955	860.012
41.140	23.237	1050.117	856.952
42.155	23.057	1048.458	854.653
43.169	23.052	1047.927	854.118
44.184	23.085	1047.132	853.553
45.199	23.071	1045.657	852.209
46.213	23.131	1044.890	851.797
47.228	23.096	1044.806	851.484
48.242	23.269	1043.538	851.208
49.257	23.372	1042.436	850.728
50.271	23.667	1041.553	851.346
51.286	23.557	1040.875	850.190
52.301	23.505	1040.079	849.218
53.315	23.329	1039.308	847.668
54.330	23.312	1038.211	846.618
55.344	23.438	1037.366	846.455
56.359	23.335	1036.557	845.230
57.374	23.166	1035.677	843.633
58.388	23.198	1034.855	843.039
59.403	23.106	1034.244	842.030
60.417	23.005	1033.167	840.596
61.432	22.958	1032.288	839.586
62.447	23.265	1031.396	840.242
63.461	23.072	1031.447	839.295
64.476	23.153	1029.867	838.316
65.490	23.089	1029.112	837.327
66.505	23.055	1028.412	836.523
67.520	23.189	1027.397	836.258
68.534	22.926	1026.496	834.208
69.549	22.777	1025.072	832.271
70.563	22.704	1024.502	831.394
71.578	22.644	1023.672	830.362
72.593	22.567	1022.974	829.361
73.607	22.639	1022.698	829.404
74.622	22.898	1022.119	830.077
75.636	23.032	1021.210	829.893
76.651	23.018	1019.833	828.635
77.666	22.807	1019.246	827.096
78.680	23.054	1018.774	827.799
79.695	22.924	1018.226	826.672
80.709	22.972	1017.909	826.565
81.724	23.060	1016.496	825.755
82.739	23.274	1015.391	825.781
83.753	23.407	1015.355	826.301
84.768	23.663	1014.799	826.966
85.782	23.758	1013.981	826.667
86.797	23.764	1012.788	825.650
87.812	23.525	1011.773	823.640
88.826	23.520	1011.135	823.028
89.841	23.634	1010.079	822.621
90.855	23.664	1008.763	821.618
91.870	23.823	1007.888	821.564
92.884	23.499	1006.879	819.176
93.899	23.580	1005.759	818.565
94.914	23.689	1005.313	818.630
95.928	23.505	1004.409	816.976
96.943	23.322	1002.596	814.590
97.957	23.065	1001.709	812.612
98.972	22.915	1000.522	810.892
99.987	23.015	1000.283	811.082
101.001	23.475	999.110	812.166
102.016	23.503	998.085	811.393
103.030	23.302	997.496	809.919
104.045	23.164	996.534	808.440
105.060	22.934	995.833	806.747
106.074	23.122	994.660	806.584
107.089	23.536	993.998	807.861
108.103	23.486	993.170	806.888
109.118	23.229	991.863	804.587
110.133	23.146	990.909	803.369
111.147	23.029	989.255	801.423
112.162	22.907	988.419	800.125
113.176	23.183	988.105	801.047
114.191	23.050	987.291	799.715
115.206	22.759	986.154	797.411
116.220	22.768	985.145	796.563
117.235	22.834	984.673	796.408
118.249	22.925	983.621	795.897
119.264	22.819	982.814	794.697
120.279	22.806	982.014	793.920
121.293	22.932	981.208	793.765
122.308	22.969	980.234	793.074
123.322	22.829	979.425	791.719
124.337	22.728	977.964	790.018
125.352	22.197	976.568	786.444
126.366	22.258	975.406	785.714
127.381	22.999	975.432	788.974
128.395	23.372	975.237	790.410
129.410	23.374	974.510	789.760
130.424	23.443	973.528	789.203
131.439	23.444	972.563	788.351
132.454	23.446	971.545	787.469
133.468	23.348	970.809	786.366
134.483	23.539	969.754	786.290
135.497	23.760	969.205	786.755
136.512	23.830	968.505	786.427
137.527	23.818	967.533	785.514
138.541	23.685	967.073	784.483
139.556	23.741	966.255	783.998
140.570	23.889	965.347	783.845
141.585	23.973	964.363	783.345
142.600	23.746	963.562	781.624
143.614	24.045	963.134	782.524
144.629	24.041	961.980	781.502
145.643	23.869	960.971	779.856
146.658	23.806	959.274	778.135
147.673	23.686	958.399	776.830
148.687	23.679	957.131	775.705
149.702	23.420	956.533	774.019
150.716	23.356	955.858	773.127
151.731	23.521	954.671	772.819
152.746	23.753	954.081	773.281
153.760	23.784	953.684	773.026
154.775	23.891	952.884	772.775
155.789	23.899	952.131	772.132
156.804	23.854	951.132	771.054
157.819	23.946	950.553	770.915
158.833	23.966	949.947	770.443
159.848	24.033	948.783	769.721
160.862	23.717	947.728	767.431
161.877	23.789	946.674	766.823
162.892	23.890	946.043	766.677
163.906	23.883	944.393	765.244
164.921	23.743	944.011	764.264
165.935	23.816	942.990	763.682
166.950	23.785	942.133	762.790
167.964	23.750	941.482	762.042
168.979	23.505	940.314	759.981
169.994	23.553	939.281	759.284
171.008	23.631	939.154	759.449
172.023	23.928	937.801	759.556
173.037	23.606	936.826	757.323
174.052	23.463	936.043	756.014
175.067	23.525	935.192	755.524
176.081	23.547	934.522	755.011
177.096	23.561	934.088	754.651
178.110	23.410	932.697	752.823
179.125	23.225	932.219	751.584
180.140	23.323	931.835	751.621
181.154	23.365	931.975	751.850
182.169	23.722	931.311	752.758
183.183	23.977	930.797	753.355
184.198	23.776	930.018	751.810
185.213	23.777	929.464	751.301
186.227	23.807	928.791	750.813
187.242	23.802	927.984	750.075
188.256	23.777	927.694	749.669
189.271	23.971	926.728	749.639
190.286	23.714	925.449	747.456
191.300	23.078	924.143	743.661
192.315	22.261	922.865	739.135
193.329	22.202	922.152	738.253
194.344	23.031	922.704	742.111
195.359	23.746	922.151	744.596
196.373	23.801	921.953	744.600
197.388	23.638	921.493	743.483
198.402	23.662	921.027	743.142
199.417	23.705	920.466	742.804
200.432	23.435	919.143	740.543
201.446	23.369	918.521	739.697
202.461	23.451	917.803	739.396
203.475	22.449	916.686	734.256
204.490	21.696	915.010	729.713
205.504	22.665	915.166	733.808
206.519	23.339	914.908	736.340
207.534	23.344	914.506	735.972
208.548	23.707	914.405	737.334
209.563	23.481	913.568	735.656
210.577	23.528	912.737	735.114
211.592	23.880	912.419	736.253
212.607	23.989	911.150	735.615
213.621	23.899	910.769	734.869
214.636	23.878	910.424	734.438
215.650	23.748	909.740	733.286
216.665	23.958	909.038	733.522
217.680	23.923	908.346	732.751
218.694	23.462	906.671	729.440
219.709	23.265	906.117	728.120
220.723	23.497	906.020	728.933
221.738	23.709	905.185	729.065
222.753	23.698	904.910	728.737
223.767	23.715	904.383	728.317
224.782	24.008	904.020	729.161
225.796	23.966	903.536	728.534
226.811	23.359	901.851	724.629
227.826	22.723	900.318	720.737
228.840	22.944	900.079	721.380
229.855	22.913	899.593	720.802
230.869	22.584	898.449	718.481
231.884	22.869	898.605	719.703
232.899	23.744	898.943	723.477
233.913	23.668	898.047	722.383
234.928	23.652	897.141	721.524
235.942	23.696	896.341	720.997
236.957	23.272	895.935	718.883
237.972	23.200	895.240	717.973
238.986	23.363	894.677	718.117
240.001	23.579	893.970	718.359
241.015	23.510	893.710	717.809
242.030	23.619	893.301	717.858
243.045	23.753	892.619	717.786
244.059	23.861	892.493	718.060
245.074	23.792	891.162	716.645
246.088	23.330	890.396	714.104
247.103	23.549	889.876	714.507
248.117	24.119	889.582	716.501
249.132	24.355	889.741	717.515
250.147	24.502	889.279	717.670
251.161	24.663	888.638	717.736
252.176	24.590	887.841	716.734
253.190	24.540	887.749	716.397
254.205	24.823	886.710	716.629
255.220	24.643	886.618	715.773
256.234	24.661	885.354	714.760
257.249	24.483	884.998	713.697
258.263	24.558	883.970	713.103
259.278	24.586	883.315	712.625
260.293	24.696	882.591	712.417
261.307	24.513	882.328	711.411
262.322	24.437	881.151	710.095
263.336	23.671	879.814	705.913
264.351	22.632	877.688	700.024
265.366	22.642	877.329	699.714
266.380	23.768	877.943	704.610
267.395	24.130	877.979	706.011
268.409	24.169	877.053	705.358
269.424	24.343	876.684	705.687
270.439	24.254	876.416	705.059
271.453	24.468	875.606	705.189
272.468	24.552	875.236	705.160
273.482	24.736	874.562	705.282
274.497	24.332	873.367	702.664
275.512	23.896	872.571	700.246
276.526	24.388	872.330	701.926
277.541	24.676	871.971	702.708
278.555	24.321	871.345	700.743
279.570	24.287	870.459	699.836
280.585	24.287	870.127	699.506
281.599	24.304	869.042	698.639
282.614	23.663	867.631	694.935
283.628	23.652	867.017	694.341
284.643	24.096	867.032	696.027
285.657	23.541	866.262	693.177
286.672	23.378	865.193	691.627
287.687	23.941	865.185	693.755
288.701	24.038	864.652	693.643
289.716	23.560	864.025	691.218
290.730	23.692	863.255	691.055
291.745	23.365	862.066	688.769
292.760	23.619	862.431	689.990
293.774	24.660	862.431	693.972
294.789	25.025	862.446	695.340
295.803	24.965	861.447	694.240
296.818	24.989	861.090	693.986
297.833	24.564	860.119	691.494
298.847	24.380	859.009	689.829
299.862	24.724	858.913	691.023
300.876	25.113	858.377	692.029
301.891	24.819	858.090	690.605
302.906	24.469	856.711	688.084
303.920	24.559	856.554	688.245
304.935	24.813	856.334	688.985
305.949	24.846	855.499	688.379
306.964	24.776	854.803	687.489
307.979	24.750	854.197	686.839
308.993	25.086	854.271	688.130
310.008	25.155	853.893	688.028
311.022	24.818	853.068	686.011
312.037	24.741	852.079	684.861
313.052	24.528	850.935	683.065
314.066	23.707	849.675	678.857
315.081	23.298	848.740	676.489
316.095	24.131	849.266	680.030
317.110	24.701	849.415	682.264
318.125	23.835	847.878	677.670
319.139	22.870	846.051	672.475
320.154	22.660	846.231	671.761
321.168	23.527	846.181	674.963
322.183	24.456	846.285	678.518
323.197	24.522	846.212	678.651
324.212	24.819	845.465	679.120
325.227	24.686	845.312	678.433
326.241	24.561	844.281	677.068
327.256	24.389	843.656	675.857
328.270	24.434	843.226	675.622
329.285	24.197	842.434	674.034
330.300	24.082	841.319	672.645
331.314	24.297	841.003	673.147
332.329	24.562	841.091	674.158
333.343	24.766	841.232	674.979
334.358	24.726	840.393	674.095
335.373	24.922	839.994	674.455
336.387	25.130	839.880	675.086
337.402	25.124	839.786	674.931
338.416	25.346	839.156	675.198
339.431	25.486	838.654	675.261
340.446	25.465	838.662	675.128
341.460	25.263	838.116	673.870
342.475	25.128	837.499	672.809
343.489	25.227	837.130	672.826
344.504	25.554	837.141	674.001
345.519	25.634	836.601	673.805
346.533	25.646	836.278	673.528
347.548	25.766	835.611	673.382
348.562	25.492	835.230	671.989
349.577	25.408	834.887	671.343
350.592	25.569	833.866	671.062
351.606	25.576	832.825	670.192
352.621	25.428	832.338	669.187
353.635	25.425	831.571	668.501
354.650	24.847	829.872	664.931
355.665	23.776	828.550	659.838
356.679	24.285	828.185	661.376
357.694	24.702	827.709	662.484
358.708	24.659	827.501	662.099
359.723	24.964	827.408	663.094
360.738	25.299	827.011	663.957
361.752	25.277	826.703	663.571
362.767	25.687	825.952	664.421
363.781	25.918	825.770	665.071
364.796	26.059	825.186	665.061
365.810	25.975	825.090	664.615
366.825	25.991	824.728	664.325
367.840	25.678	823.968	662.501
368.854	25.271	823.119	660.263
369.869	25.261	822.556	659.716
370.883	25.266	822.347	659.507
371.898	25.250	821.695	658.866
372.913	25.393	821.563	659.229
373.927	25.395	820.848	658.603
374.942	25.719	820.385	659.363
375.956	25.524	820.324	658.540
376.971	25.842	819.833	659.249
377.986	26.048	819.328	659.541
379.000	25.960	818.731	658.681
380.015	25.716	818.290	657.374
381.029	25.830	817.879	657.403
382.044	26.058	816.960	657.436
383.059	25.996	816.672	656.919
384.073	25.913	816.273	656.239
385.088	25.965	815.529	655.771
386.102	25.647	815.125	654.232
387.117	25.638	814.065	653.293
388.132	25.385	812.927	651.406
389.146	24.874	812.115	648.846
390.161	25.233	812.112	650.083
391.175	25.841	811.434	651.686
392.190	25.333	810.931	649.385
393.205	24.067	809.017	643.224
394.219	22.753	807.042	636.859
395.234	22.410	807.012	635.542
396.248	23.932	808.616	642.248
397.263	25.514	809.240	648.398
398.278	25.515	808.820	648.006
399.292	25.290	807.813	646.335
400.307	25.253	807.505	645.896
401.321	25.286	807.296	645.792
402.336	25.680	807.142	647.028
403.350	26.113	806.844	648.287
404.365	26.370	807.066	649.333
405.380	26.615	806.439	649.647
406.394	26.662	805.774	649.224
407.409	26.559	805.488	648.566
408.423	26.576	805.150	648.300
409.438	26.649	804.756	648.185
410.453	26.657	804.465	647.924
411.467	26.523	803.856	646.894
412.482	26.478	803.527	646.413
413.496	26.642	803.097	646.595
414.511	26.497	802.807	645.788
415.526	26.713	802.299	646.090
416.540	26.644	801.468	645.120
417.555	26.422	800.438	643.442
418.569	26.275	800.538	642.942
419.584	26.356	799.624	642.440
420.599	26.109	799.206	641.169
421.613	82.939	1238.677	1294.682
422.628	70.546	1302.747	1294.807
