DTS Sentinel unit serial number:	SN413079Multiplexer serial number:	ORYXHardware model number:	OX4-SRSoftware version number:	ORYX F/W v4.00 Oryx Data Collector v3.7.2.0data status	okinstallation	princeton_trtdifferential loss correction	single-endedforward channel	channel 1reverse channel	N/Adate	2019/09/16time	06:14:36forward acquisition time	60.00reverse acquisition time	0.00gamma	496.2192k internal	0.2331k external	0.2331temperature offset calibration	0.9981default loss term (dB/km)	0.3790temperature slope calibration	1.0000multiplexer offset coefficient	1.0000multiplexer slope coefficient	1.0000fibre end	0.00T internal ref (°C)	27.44T ext. ref 1 (°C)	11.31T ext. ref 2 (°C)	21.69length (m)	temperature (°C)	Stokes	anti-Stokes-747.200	-73.757	0.376	-0.138
-746.185	-34.297	-0.156	0.086
-745.171	-200.000	-0.019	-0.136
-744.156	-130.134	-0.338	0.046
-743.142	-17.456	-0.209	0.132
-742.127	14.120	0.118	-0.093
-741.112	-97.449	0.410	-0.107
-740.098	47.349	-0.071	-0.067
-739.083	-129.878	-0.198	-0.027
-738.069	41.741	0.072	-0.065
-737.054	800.000	0.069	-0.289
-736.039	85.031	-0.118	-0.130
-735.025	100.002	0.050	0.059
-734.010	-16.898	-0.442	-0.281
-732.996	41.273	-0.091	0.083
-731.981	-73.939	-0.291	0.106
-730.966	-82.059	-0.112	-0.037
-729.952	-76.014	0.072	0.026
-728.937	-46.534	-0.166	-0.082
-727.923	1.841	0.195	-0.141
-726.908	-105.517	-0.244	0.056
-725.894	-63.149	-0.189	0.079
-724.879	-123.286	-0.603	0.097
-723.864	-39.872	-0.150	-0.079
-722.850	214.068	0.176	0.280
-721.835	21.702	0.199	0.163
-720.821	-200.000	0.019	-0.208
-719.806	-151.012	-0.155	0.012
-718.791	800.000	-0.030	0.112
-717.777	-83.456	-0.136	0.044
-716.762	63.053	-0.014	-0.014
-715.748	-200.000	-0.003	0.043
-714.733	-190.704	-0.410	-0.004
-713.718	800.000	-0.017	-0.059
-712.704	459.740	0.092	-0.206
-711.689	800.000	-0.112	-0.373
-710.675	132.952	0.269	-0.349
-709.660	800.000	-0.073	0.208
-708.645	800.000	0.063	0.175
-707.631	-130.120	-0.353	-0.048
-706.616	-101.622	0.239	-0.058
-705.602	54.012	0.270	-0.261
-704.587	49.139	0.204	-0.192
-703.572	-1.534	0.184	-0.130
-702.558	-200.000	0.019	0.166
-701.543	-200.000	-0.004	-0.252
-700.529	106.058	-0.105	0.125
-699.514	800.000	0.074	0.207
-698.499	171.641	0.107	-0.155
-697.485	132.610	-0.194	-0.252
-696.470	-64.938	-0.163	-0.066
-695.456	-200.000	-0.016	-0.252
-694.441	-142.631	0.110	-0.011
-693.426	197.247	0.083	0.127
-692.412	-200.000	0.011	0.093
-691.397	-200.000	0.019	0.218
-690.383	360.510	-0.167	0.335
-689.368	-52.303	0.352	-0.164
-688.354	-58.217	-0.173	0.076
-687.339	-200.000	-0.015	-0.135
-686.324	-53.151	-0.130	0.060
-685.310	-112.847	0.168	0.033
-684.295	249.506	-0.254	0.433
-683.281	-102.169	-0.288	0.070
-682.266	-128.450	-0.274	-0.039
-681.251	-80.740	0.198	0.066
-680.237	-37.112	0.125	-0.067
-679.222	800.000	-0.058	0.178
-678.208	-18.198	-0.161	0.101
-677.193	255.422	-0.143	-0.246
-676.178	-143.404	-0.246	0.024
-675.164	-200.000	-0.026	-0.280
-674.149	-200.000	-0.000	0.076
-673.135	-181.838	0.238	-0.005
-672.120	-84.017	-0.193	-0.062
-671.105	27.460	0.352	-0.297
-670.091	-158.628	-0.297	-0.017
-669.076	17.228	-0.081	0.065
-668.062	-130.110	-0.210	-0.029
-667.047	-200.000	-0.020	0.147
-666.032	262.903	-0.072	0.126
-665.018	-91.186	-0.215	-0.062
-664.003	-83.412	-0.190	-0.061
-662.989	70.776	-0.044	0.046
-661.974	-71.830	0.255	0.095
-660.959	-200.000	-0.022	-0.150
-659.945	247.363	-0.192	-0.325
-658.930	-135.792	-0.161	-0.019
-657.916	50.397	0.171	0.162
-656.901	391.598	-0.041	0.085
-655.886	62.762	0.201	0.202
-654.872	43.474	-0.123	-0.113
-653.857	207.565	-0.052	0.082
-652.843	124.083	0.090	-0.114
-651.828	200.575	0.106	-0.163
-650.814	735.687	0.066	-0.176
-649.799	800.000	0.015	0.054
-648.784	260.803	-0.050	-0.087
-647.770	74.515	0.187	0.197
-646.755	553.772	-0.018	-0.044
-645.741	-75.386	0.336	-0.120
-644.726	-89.032	-0.225	0.067
-643.711	-200.000	0.035	0.319
-642.697	410.896	-0.055	0.117
-641.682	-66.724	0.186	0.074
-640.668	142.733	0.093	0.123
-639.653	-96.719	-0.279	0.074
-638.638	-26.307	0.124	0.073
-637.624	185.492	-0.182	0.271
-636.609	-111.075	0.120	-0.025
-635.595	-115.378	-0.082	0.015
-634.580	-200.000	0.019	-0.156
-633.565	23.099	0.169	-0.139
-632.551	135.196	0.166	-0.216
-631.536	486.144	0.166	-0.379
-630.522	-200.000	0.005	-0.138
-629.507	-200.000	0.005	-0.052
-628.492	-180.388	-0.415	0.009
-627.478	800.000	0.023	0.100
-626.463	800.000	0.085	0.310
-625.449	-115.379	-0.302	-0.057
-624.434	-200.000	-0.014	-0.065
-623.419	202.009	-0.166	0.256
-622.405	800.000	0.074	0.222
-621.390	79.087	-0.111	0.119
-620.376	-31.369	-0.112	0.063
-619.361	-155.809	0.303	0.019
-618.346	-60.565	-0.273	-0.116
-617.332	-111.333	-0.244	-0.050
-616.317	-6.943	-0.273	0.186
-615.303	-110.629	-0.188	-0.039
-614.288	800.000	-0.033	-0.134
-613.273	111.972	0.099	-0.120
-612.259	90.348	-0.119	-0.133
-611.244	331.925	-0.110	0.213
-610.230	800.000	-0.093	-0.398
-609.215	-174.507	-0.640	-0.018
-608.201	194.207	0.198	-0.300
-607.186	34.716	-0.200	-0.175
-606.171	-69.905	-0.173	-0.066
-605.157	35.976	0.074	0.066
-604.142	-35.615	-0.158	-0.086
-603.128	91.075	-0.078	-0.088
-602.113	-35.995	0.121	-0.066
-601.098	135.969	0.132	-0.172
-600.084	61.796	-0.317	-0.316
-599.069	800.000	-0.094	0.356
-598.055	-200.000	-0.031	0.152
-597.040	144.715	0.088	0.118
-596.025	186.268	-0.096	-0.143
-595.011	175.560	0.046	0.067
-593.996	-153.198	-0.100	0.007
-592.982	-25.459	0.045	0.027
-591.967	9.172	-0.402	-0.304
-590.952	-200.000	0.015	-0.098
-589.938	177.615	-0.066	-0.096
-588.923	195.343	0.243	-0.370
-587.909	578.050	0.101	-0.246
-586.894	-115.852	0.252	-0.047
-585.879	-51.231	-0.224	0.105
-584.865	-200.000	0.034	-0.216
-583.850	-200.000	0.012	-0.100
-582.836	138.630	-0.222	-0.291
-581.821	-104.762	-0.605	0.139
-580.806	153.729	-0.078	-0.106
-579.792	770.435	0.124	0.339
-578.777	-200.000	0.017	0.164
-577.763	-173.769	-0.191	0.006
-576.748	149.699	0.139	-0.188
-575.733	800.000	-0.124	-0.413
-574.719	164.723	-0.174	0.246
-573.704	-10.288	-0.214	0.142
-572.690	-200.000	0.062	-0.275
-571.675	-81.480	-0.118	-0.039
-570.661	-200.000	0.004	0.089
-569.646	-17.976	0.127	-0.080
-568.631	-31.290	0.114	-0.064
-567.617	-123.728	-0.193	-0.031
-566.602	-68.704	0.240	-0.093
-565.588	0.247	-0.110	-0.078
-564.573	-200.000	-0.020	-0.230
-563.558	48.989	-0.154	-0.145
-562.544	56.275	-0.161	0.156
-561.529	800.000	-0.079	-0.245
-560.515	197.858	-0.085	0.131
-559.500	-0.700	0.280	0.198
-558.485	59.525	-0.116	0.114
-557.471	800.000	0.248	0.693
-556.456	-152.839	-0.423	-0.030
-555.442	37.762	-0.236	0.210
-554.427	204.890	0.122	0.189
-553.412	-114.016	-0.209	-0.040
-552.398	-64.338	0.340	-0.138
-551.383	-200.000	-0.017	-0.201
-550.369	-56.959	0.216	0.095
-549.354	243.593	0.217	-0.363
-548.339	225.841	-0.182	0.295
-547.325	8.832	-0.072	-0.054
-546.310	-122.770	0.143	-0.023
-545.296	-200.000	0.044	-0.198
-544.281	11.356	-0.342	-0.261
-543.266	-200.000	-0.011	-0.054
-542.252	611.176	-0.084	0.209
-541.237	97.798	-0.112	0.128
-540.223	-84.443	-0.219	-0.069
-539.208	-200.000	-0.001	0.174
-538.193	800.000	0.054	-0.182
-537.179	-200.000	-0.005	0.070
-536.164	90.300	-0.256	0.286
-535.150	318.093	-0.139	0.262
-534.135	-46.796	-0.046	0.023
-533.121	75.781	0.133	-0.141
-532.106	-200.000	0.009	0.161
-531.091	-54.213	0.087	-0.040
-530.077	78.462	-0.178	-0.190
-529.062	0.142	0.113	-0.080
-528.048	-39.522	-0.321	0.168
-527.033	88.535	-0.164	0.182
-526.018	452.497	-0.188	-0.415
-525.004	-187.670	-0.183	0.002
-523.989	-200.000	0.000	-0.162
-522.975	-84.284	-0.122	0.039
-521.960	-200.000	0.040	0.285
-520.945	-155.917	-0.239	0.015
-519.931	-139.509	-0.150	-0.016
-518.916	63.460	-0.095	0.095
-517.902	-70.211	-0.296	-0.112
-516.887	-33.759	0.425	0.234
-515.872	458.730	0.172	0.381
-514.858	97.800	-0.163	0.187
-513.843	-185.452	-0.347	-0.005
-512.829	615.962	0.061	-0.153
-511.814	-100.068	0.216	0.054
-510.799	-82.488	-0.206	0.067
-509.785	-36.697	-0.160	-0.086
-508.770	59.561	0.175	-0.172
-507.756	-146.890	0.395	0.034
-506.741	10.957	0.125	0.095
-505.726	231.851	-0.111	0.181
-504.712	-110.774	-0.147	-0.030
-503.697	-195.498	0.296	-0.002
-502.683	68.556	-0.291	-0.297
-501.668	-103.220	-0.091	-0.021
-500.653	-200.000	0.006	-0.162
-499.639	221.725	0.135	0.216
-498.624	-155.767	0.042	0.003
-497.610	-200.000	-0.054	0.493
-496.595	-144.318	0.072	-0.007
-495.581	-89.505	-0.332	-0.097
-494.566	-76.718	0.089	0.031
-493.551	-34.674	-0.162	-0.088
-492.537	219.864	0.078	0.124
-491.522	135.727	0.136	0.177
-490.508	48.777	0.159	0.149
-489.493	-132.320	0.510	-0.066
-488.478	95.404	0.242	0.275
-487.464	-195.927	-0.176	0.001
-486.449	800.000	-0.116	-0.382
-485.435	800.000	-0.064	0.186
-484.420	-192.940	0.360	-0.003
-483.405	-200.000	0.001	0.096
-482.391	87.369	0.154	0.170
-481.376	32.247	0.165	0.142
-480.362	-200.000	-0.030	0.167
-479.347	222.536	0.035	0.056
-478.332	19.745	-0.154	-0.123
-477.318	800.000	-0.034	-0.123
-476.303	800.000	-0.085	0.295
-475.289	12.177	-0.115	-0.088
-474.274	180.694	0.131	-0.191
-473.259	134.931	-0.283	-0.366
-472.245	-88.554	0.175	0.052
-471.230	177.995	0.129	-0.188
-470.216	60.542	-0.123	0.121
-469.201	209.573	-0.127	0.198
-468.186	-45.227	0.121	-0.060
-467.172	74.001	-0.228	0.238
-466.157	-149.393	-0.223	-0.018
-465.143	-200.000	0.034	-0.196
-464.128	-61.785	0.229	0.095
-463.113	-80.135	0.264	0.088
-462.099	129.051	0.086	0.109
-461.084	93.026	0.171	-0.192
-460.070	800.000	-0.090	-0.312
-459.055	800.000	0.050	-0.145
-458.040	-96.603	-0.184	0.048
-457.026	98.920	0.158	0.181
-456.011	-107.319	-0.244	0.053
-454.997	39.314	-0.235	0.209
-453.982	-200.000	0.014	-0.323
-452.968	67.443	0.148	-0.150
-451.953	-157.212	-0.149	-0.009
-450.938	2.380	0.058	0.041
-449.924	-200.000	-0.004	0.042
-448.909	-46.630	0.073	0.036
-447.895	-41.257	0.311	0.159
-446.880	676.584	0.116	-0.300
-445.865	-200.000	0.013	0.175
-444.851	-10.172	0.008	0.005
-443.836	67.829	0.126	-0.128
-442.822	18.191	0.411	0.326
-441.807	531.066	-0.085	0.200
-440.792	-172.747	0.523	-0.016
-439.778	800.000	0.101	-0.333
-438.763	-200.000	-0.026	-0.113
-437.749	253.129	0.135	0.228
-436.734	-128.006	0.344	0.049
-435.719	566.261	0.060	0.145
-434.705	-86.296	-0.726	0.222
-433.690	-140.134	-0.185	0.019
-432.676	-85.912	0.187	0.058
-431.661	162.114	0.098	-0.137
-430.646	235.009	0.029	-0.048
-429.632	252.785	-0.126	-0.214
-428.617	584.972	0.042	0.103
-427.603	42.754	-0.175	0.158
-426.588	32.997	0.122	0.105
-425.573	-52.049	-0.103	0.048
-424.559	-200.000	0.006	0.078
-423.544	-200.000	-0.038	0.482
-422.530	233.363	-0.042	-0.069
-421.515	21.515	0.251	-0.203
-420.500	42.516	0.263	0.238
-419.486	474.163	-0.106	0.237
-418.471	800.000	0.096	0.331
-417.457	12.787	0.299	-0.230
-416.442	-86.684	0.146	-0.044
-415.428	-200.000	0.021	0.202
-414.413	-200.000	0.025	-0.112
-413.398	800.000	0.086	-0.263
-412.384	-2.124	0.140	-0.098
-411.369	277.857	0.017	-0.031
-410.355	-42.773	0.121	-0.061
-409.340	524.263	-0.045	-0.106
-408.325	210.199	-0.169	-0.263
-407.311	-200.000	0.018	-0.349
-406.296	28.117	0.538	-0.451
-405.282	181.706	-0.166	-0.243
-404.267	-179.550	0.133	0.003
-403.252	179.492	-0.118	-0.172
-402.238	-200.000	-0.012	-0.442
-401.223	-57.628	-0.289	-0.126
-400.209	-200.000	-0.005	-0.136
-399.194	161.944	0.028	-0.038
-398.179	800.000	0.087	-0.240
-397.165	102.820	-0.122	0.142
-396.150	276.571	0.054	-0.095
-395.136	24.337	-0.125	0.103
-394.121	52.204	-0.092	-0.088
-393.106	800.000	0.131	0.395
-392.092	254.343	-0.026	0.044
-391.077	800.000	-0.108	-0.337
-390.063	774.998	-0.055	0.150
-389.048	70.526	-0.216	0.222
-388.033	9.346	-0.354	-0.266
-387.019	-24.129	0.122	-0.072
-386.004	247.331	-0.221	-0.370
-384.990	115.709	0.306	-0.371
-383.975	-105.644	-0.324	0.073
-382.960	-200.000	-0.035	0.232
-381.946	-32.497	-0.123	0.068
-380.931	-67.128	-0.175	-0.068
-379.917	-86.663	-0.446	-0.136
-378.902	501.766	0.100	0.229
-377.888	-181.530	0.256	0.005
-376.873	-85.875	0.246	0.075
-375.858	26.770	0.284	0.236
-374.844	334.683	0.067	0.128
-373.829	104.703	0.172	0.201
-372.815	142.922	-0.100	-0.132
-371.800	-80.723	-0.235	-0.078
-370.785	3.589	0.311	0.225
-369.771	-200.000	0.016	0.097
-368.756	-80.096	-0.140	-0.047
-367.742	-188.641	-0.344	0.004
-366.727	-100.170	-0.199	0.049
-365.712	-105.844	0.249	0.056
-364.698	-200.000	-0.067	0.301
-363.683	182.362	0.091	-0.133
-362.669	-200.000	0.035	0.229
-361.654	-42.876	-0.275	-0.139
-360.639	-109.102	-0.387	-0.082
-359.625	-52.699	-0.149	-0.068
-358.610	217.145	0.092	0.145
-357.596	36.934	0.178	-0.156
-356.581	32.807	0.342	0.293
-355.566	-200.000	-0.002	-0.083
-354.552	169.791	0.106	0.151
-353.537	-15.579	0.183	-0.116
-352.523	47.766	-0.115	-0.106
-351.508	-157.945	0.397	0.023
-350.493	104.814	0.077	0.090
-349.479	-50.877	-0.103	-0.048
-348.464	-109.409	-0.121	0.025
-347.450	0.174	-0.183	-0.129
-346.435	32.587	0.205	-0.175
-345.420	-200.000	0.015	-0.262
-344.406	-108.721	-0.095	0.020
-343.391	-38.397	0.255	0.134
-342.377	54.890	0.254	-0.243
-341.362	205.406	-0.205	0.315
-340.348	-200.000	0.002	-0.217
-339.333	-170.759	-0.071	0.002
-338.318	148.788	-0.018	0.024
-337.304	-112.521	0.226	-0.045
-336.289	84.219	-0.323	0.349
-335.275	800.000	0.038	-0.117
-334.260	-200.000	-0.018	-0.099
-333.245	-85.417	0.299	-0.092
-332.231	86.217	-0.139	-0.152
-331.216	312.198	0.048	-0.089
-330.202	-112.922	0.235	0.046
-329.187	266.607	0.161	-0.279
-328.172	29.707	0.118	0.100
-327.158	86.905	-0.070	0.077
-326.143	-18.035	0.270	-0.168
-325.129	-11.257	-0.172	-0.112
-324.114	-80.111	0.101	-0.034
-323.099	-200.000	-0.016	-0.117
-322.085	-102.255	0.305	0.073
-321.070	473.775	-0.090	0.200
-320.056	99.905	0.209	-0.240
-319.041	-200.000	-0.093	-0.454
-318.026	-139.744	-0.175	0.018
-317.012	68.514	0.036	-0.036
-315.997	783.937	0.084	-0.227
-314.983	50.928	-0.192	-0.180
-313.968	-200.000	0.020	0.347
-312.953	-26.688	0.288	0.167
-311.939	-200.000	0.006	-0.305
-310.924	24.765	-0.189	0.155
-309.910	-129.075	0.229	0.032
-308.895	107.867	-0.211	0.249
-307.880	800.000	0.150	-0.424
-306.866	22.863	0.127	0.103
-305.851	50.119	-0.267	-0.250
-304.837	-200.000	-0.061	0.383
-303.822	800.000	-0.070	0.212
-302.807	-3.079	-0.190	0.131
-301.793	-26.334	0.386	0.224
-300.778	172.802	0.087	0.124
-299.764	800.000	0.095	-0.364
-298.749	151.406	0.184	-0.248
-297.735	13.229	0.305	-0.234
-296.720	-200.000	-0.031	0.321
-295.705	-91.340	0.221	-0.063
-294.691	-11.460	0.108	-0.070
-293.676	800.000	0.085	-0.255
-292.662	14.744	0.173	-0.134
-291.647	-112.561	0.198	0.039
-290.632	-170.470	-0.354	0.012
-289.618	-135.912	-0.118	0.014
-288.603	-85.096	-0.210	0.065
-287.589	-130.454	-0.298	-0.040
-286.574	-80.731	-0.093	0.030
-285.559	-184.642	0.585	-0.009
-284.545	-200.000	-0.059	0.310
-283.530	-114.326	0.307	0.059
-282.516	-123.434	-0.178	-0.028
-281.501	344.098	0.138	0.268
-280.486	-200.000	0.016	-0.176
-279.472	162.488	0.119	0.165
-278.457	-20.100	0.253	-0.154
-277.443	-30.954	-0.122	0.068
-276.428	-168.568	0.239	-0.009
-275.413	-164.979	-0.324	0.014
-274.399	132.900	-0.162	0.206
-273.384	-200.000	-0.007	-0.096
-272.370	-200.000	-0.003	0.125
-271.355	-200.000	-0.025	0.285
-270.340	294.996	-0.256	-0.463
-269.326	800.000	0.008	-0.032
-268.311	303.878	-0.061	-0.112
-267.297	682.100	-0.036	0.092
-266.282	63.093	-0.107	0.106
-265.267	328.422	0.028	0.053
-264.253	-200.000	0.041	-0.206
-263.238	-200.000	-0.007	0.081
-262.224	-200.000	-0.005	0.186
-261.209	-200.000	-0.073	-0.354
-260.195	-104.398	0.161	-0.037
-259.180	800.000	-0.096	0.294
-258.165	800.000	0.072	0.258
-257.151	294.886	0.078	0.140
-256.136	480.996	0.023	-0.052
-255.122	800.000	0.039	0.128
-254.107	-200.000	-0.017	0.258
-253.092	-97.460	-0.405	-0.104
-252.078	-141.925	0.350	0.034
-251.063	-70.801	0.245	0.091
-250.049	-134.214	0.300	-0.036
-249.034	-61.647	-0.199	-0.082
-248.019	800.000	-0.046	-0.125
-247.005	38.679	-0.199	0.175
-245.990	-164.200	0.194	0.009
-244.976	-134.385	-0.195	0.024
-243.961	-179.843	-0.214	-0.005
-242.946	-23.420	0.059	-0.035
-241.932	-131.458	0.129	-0.017
-240.917	-200.000	0.049	0.246
-239.903	-173.386	-0.379	0.011
-238.888	-164.765	0.200	-0.009
-237.873	71.436	-0.143	0.146
-236.859	-200.000	-0.023	0.195
-235.844	-4.224	-0.236	0.161
-234.830	114.213	-0.194	-0.233
-233.815	22.926	0.066	0.053
-232.800	-9.582	-0.285	-0.188
-231.786	-92.324	0.438	0.122
-230.771	734.763	0.145	0.383
-229.757	42.777	-0.046	-0.041
-228.742	-98.494	0.361	0.091
-227.727	524.764	-0.095	0.220
-226.713	25.605	-0.171	0.140
-225.698	229.551	0.096	0.154
-224.684	209.075	0.080	-0.123
-223.669	32.517	0.103	-0.088
-222.655	-200.000	0.011	0.135
-221.640	39.550	0.018	-0.016
-220.625	210.383	0.108	-0.168
-219.611	-200.000	0.001	-0.007
-218.596	-47.088	0.211	-0.101
-217.582	-200.000	-0.012	0.119
-216.567	105.352	0.217	-0.253
-215.552	457.858	0.091	0.200
-214.538	-200.000	-0.011	0.115
-213.523	-66.355	-0.282	-0.110
-212.509	-200.000	-0.022	0.312
-211.494	-200.000	0.034	0.405
-210.479	199.933	-0.140	0.212
-209.465	800.000	-0.031	0.114
-208.450	-14.638	0.232	0.147
-207.436	-16.962	0.140	-0.087
-206.421	667.499	0.028	-0.070
-205.406	53.800	0.073	-0.069
-204.392	101.075	0.010	-0.011
-203.377	308.943	-0.024	-0.043
-202.363	800.000	-0.020	-0.073
-201.348	800.000	-0.066	-0.179
-200.333	198.543	0.121	-0.182
-199.319	-200.000	-0.042	-0.262
-198.304	-200.000	-0.023	-0.166
-197.290	-200.000	-0.007	-0.206
-196.275	800.000	0.093	-0.304
-195.260	-200.000	-0.040	-0.298
-194.246	-128.274	0.502	0.071
-193.231	800.000	-0.081	-0.296
-192.217	131.414	0.034	-0.043
-191.202	39.337	-0.082	-0.072
-190.187	800.000	-0.090	0.387
-189.173	-200.000	0.031	0.373
-188.158	-18.202	0.192	-0.119
-187.144	-23.608	0.205	0.121
-186.129	-200.000	0.021	-0.129
-185.114	-200.000	-0.015	0.080
-184.100	2.245	0.173	0.123
-183.085	145.713	0.129	-0.171
-182.071	9.116	-0.265	0.197
-181.056	-200.000	0.033	0.262
-180.042	-200.000	-0.049	-0.322
-179.027	-87.533	0.276	0.082
-178.012	-200.000	-0.027	-0.134
-176.998	800.000	-0.026	-0.076
-175.983	57.497	0.186	0.179
-174.969	-30.981	-0.265	-0.147
-173.954	-56.188	0.222	0.097
-172.939	-94.748	-0.237	-0.063
-171.925	800.000	0.018	-0.065
-170.910	231.858	0.058	0.093
-169.896	-143.454	-0.178	-0.017
-168.881	-13.331	-0.172	0.110
-167.866	-200.000	-0.058	-0.324
-166.852	-200.000	0.038	-0.166
-165.837	581.602	0.159	0.383
-164.823	139.436	0.080	-0.104
-163.808	-137.547	-0.288	-0.032
-162.793	-140.028	0.188	0.019
-161.779	27.576	0.157	0.130
-160.764	170.870	0.069	-0.097
-159.750	-17.382	-0.286	0.177
-158.735	200.090	0.118	0.178
-157.720	-200.000	0.018	0.091
-156.706	358.702	-0.129	-0.253
-155.691	220.963	-0.137	-0.217
-154.677	-200.000	-0.030	0.191
-153.662	-117.088	0.132	0.024
-152.647	27.943	0.014	-0.012
-151.633	20.779	0.178	0.142
-150.618	330.178	0.079	0.149
-149.604	-78.706	0.439	0.147
-148.589	-141.301	0.131	0.013
-147.574	-82.661	-0.213	-0.068
-146.560	800.000	0.068	-0.189
-145.545	-41.460	0.152	-0.077
-144.531	-200.000	0.061	0.311
-143.516	19.871	-0.077	0.061
-142.502	438.135	-0.039	0.083
-141.487	-124.688	0.281	-0.043
-140.472	-200.000	-0.023	0.330
-139.458	103.487	0.253	-0.292
-138.443	599.586	-0.077	-0.189
-137.429	785.617	0.044	0.118
-136.414	-47.335	-0.291	-0.139
-135.399	207.622	-0.215	-0.329
-134.385	567.662	0.137	-0.328
-133.370	87.013	0.194	0.211
-132.356	-9.216	-0.238	0.156
-131.341	-200.000	-0.021	0.191
-130.326	-174.333	0.258	0.007
-129.312	-76.897	0.141	-0.048
-128.297	800.000	0.106	0.355
-127.283	-87.469	-0.237	0.070
-126.268	12.690	0.235	0.178
-125.253	138.864	0.080	-0.104
-124.239	-200.000	0.040	0.232
-123.224	-174.314	-0.166	-0.005
-122.210	800.000	-0.055	-0.166
-121.195	576.392	0.179	-0.430
-120.180	25.401	-0.216	-0.176
-119.166	318.166	-0.086	0.159
-118.151	39.725	-0.157	0.138
-117.137	234.054	0.104	-0.169
-116.122	-57.621	0.224	-0.096
-115.107	-200.000	0.015	-0.346
-114.093	5.593	0.024	0.017
-113.078	325.536	-0.080	-0.150
-112.064	-200.000	-0.000	0.162
-111.049	-200.000	0.010	-0.096
-110.034	552.746	0.034	0.081
-109.020	395.685	-0.067	0.137
-108.005	303.309	-0.152	0.276
-106.991	-40.750	0.185	0.094
-105.976	-114.816	0.183	0.034
-104.962	137.347	-0.236	0.303
-103.947	800.000	-0.068	-0.204
-102.932	716.005	0.064	0.167
-101.918	-200.000	0.091	0.455
-100.903	-200.000	0.001	-0.157
-99.889	67.156	0.099	0.099
-98.874	-138.872	0.138	0.015
-97.859	-9.794	0.175	0.114
-96.845	-200.000	-0.025	-0.144
-95.830	553.501	-0.072	0.170
-94.816	4.151	-0.116	0.083
-93.801	-200.000	-0.006	-0.164
-92.786	-200.000	-0.063	0.331
-91.772	291.689	-0.077	0.137
-90.757	-71.457	0.251	0.092
-89.743	-89.391	0.274	0.079
-88.728	246.481	-0.089	0.148
-87.713	-18.933	-0.306	-0.187
-86.699	38.283	0.092	-0.081
-85.684	800.000	-0.043	0.179
-84.670	-17.087	-0.074	0.046
-83.655	-200.000	-0.022	-0.580
-82.640	-103.793	0.228	-0.052
-81.626	217.313	-0.087	0.135
-80.611	800.000	0.111	0.342
-79.597	800.000	-0.068	0.214
-78.582	53.706	-0.063	-0.059
-77.567	-200.000	0.013	-0.158
-76.553	68.190	0.145	0.146
-75.538	6.730	0.079	-0.058
-74.524	202.667	-0.055	0.084
-73.509	-200.000	-0.024	-0.288
-72.494	43.655	-0.115	-0.103
-71.480	-200.000	-0.027	0.318
-70.465	-114.448	-0.103	0.019
-69.451	-37.964	-0.315	-0.164
-68.436	344.467	0.066	-0.126
-67.422	800.000	0.037	0.155
-66.407	126.237	0.140	-0.173
-65.392	-124.501	0.606	-0.092
-64.378	-74.968	0.247	-0.087
-63.363	-28.950	0.189	0.106
-62.349	629.182	-0.059	0.146
-61.334	50.240	-1.162	-1.076
-60.319	94.113	0.524	0.583
-59.305	800.000	-0.364	-1.034
-58.290	800.000	0.473	1.348
-57.276	800.000	0.629	1.741
-56.261	-200.000	114.051	642.285
-55.246	464.095	1511.413	3309.784
-54.232	146.428	2678.465	3523.485
-53.217	103.464	2157.326	2479.657
-52.203	38.836	1603.658	1402.928
-51.188	30.712	1350.130	1131.916
-50.173	27.879	1311.971	1083.105
-49.159	55.785	1367.999	1298.825
-48.144	54.103	1382.846	1302.728
-47.130	31.059	1337.909	1123.583
-46.115	27.621	1320.439	1088.381
-45.100	27.263	1316.190	1082.710
-44.086	27.356	1313.171	1080.733
-43.071	27.266	1310.750	1078.164
-42.057	27.246	1308.478	1076.133
-41.042	27.254	1307.398	1075.253
-40.027	27.258	1305.621	1073.769
-39.013	27.311	1303.411	1072.221
-37.998	27.289	1301.837	1070.757
-36.984	27.473	1299.476	1069.853
-35.969	27.474	1297.769	1068.411
-34.954	27.424	1296.624	1067.132
-33.940	27.447	1295.172	1066.030
-32.925	27.518	1293.854	1065.315
-31.911	27.431	1292.461	1063.620
-30.896	27.608	1290.466	1062.971
-29.881	27.487	1289.678	1061.569
-28.867	27.590	1287.597	1060.419
-27.852	27.620	1286.655	1059.770
-26.838	27.513	1285.179	1057.892
-25.823	27.406	1284.385	1056.580
-24.809	27.456	1282.927	1055.624
-23.794	27.543	1281.254	1054.712
-22.779	27.500	1280.121	1053.485
-21.765	27.502	1278.630	1052.230
-20.750	27.555	1277.389	1051.471
-19.736	27.407	1276.557	1049.893
-18.721	27.392	1275.061	1048.536
-17.706	27.398	1273.903	1047.577
-16.692	27.412	1272.969	1046.843
-15.677	27.445	1271.580	1045.852
-14.663	27.411	1270.214	1044.489
-13.648	27.330	1269.408	1043.322
-12.633	27.405	1268.605	1043.050
-11.619	27.398	1267.246	1041.854
-10.604	27.378	1266.991	1041.489
-9.590	27.418	1265.350	1040.324
-8.575	27.414	1264.523	1039.580
-7.560	27.405	1263.593	1038.727
-6.546	27.424	1263.039	1038.333
-5.531	27.309	1262.090	1036.861
-4.517	27.452	1260.897	1036.652
-3.502	27.339	1260.603	1035.728
-2.487	27.441	1259.255	1035.157
-1.473	27.351	1254.937	1031.056
-0.458	25.850	1240.361	1010.630
0.556	21.025	1223.496	973.402
1.571	17.415	1230.539	958.615
2.586	16.669	1245.416	965.862
3.600	16.893	1234.449	958.542
4.615	15.406	1168.549	899.327
5.629	12.749	1102.321	834.833
6.644	11.443	1085.305	815.352
7.659	11.361	1083.203	813.293
8.673	11.229	1081.997	811.657
9.688	11.217	1080.823	810.643
10.702	11.429	1078.387	809.796
11.717	13.007	1079.499	818.392
12.731	15.740	1083.980	835.306
13.746	17.587	1085.476	845.565
14.761	17.583	1085.165	845.227
15.775	16.617	1083.413	839.002
16.790	15.581	1081.036	831.960
17.804	14.749	1079.583	826.649
18.819	14.348	1077.947	823.342
19.834	14.237	1076.902	821.924
20.848	14.078	1075.844	820.259
21.863	13.611	1075.637	817.723
22.877	13.579	1074.525	816.647
23.892	13.553	1073.574	815.725
24.907	13.505	1073.025	814.999
25.921	13.578	1072.017	814.520
26.936	13.699	1070.582	813.955
27.950	13.682	1069.368	812.877
28.965	13.710	1067.920	811.841
29.980	13.735	1066.333	810.683
30.994	13.779	1065.685	810.334
32.009	13.847	1064.099	809.387
33.023	13.857	1063.013	808.539
34.038	13.675	1062.312	807.049
35.053	13.588	1061.503	805.939
36.067	13.689	1060.599	805.673
37.082	13.810	1059.421	805.295
38.096	13.669	1059.055	804.259
39.111	13.581	1058.492	803.335
40.126	13.662	1056.677	802.279
41.140	13.597	1055.258	800.814
42.155	13.579	1054.192	799.851
43.169	13.478	1053.007	798.390
44.184	13.460	1052.391	797.769
45.199	13.478	1051.670	797.238
46.213	13.447	1050.204	795.906
47.228	13.667	1049.240	796.162
48.242	13.664	1047.821	794.998
49.257	13.666	1047.208	794.477
50.271	13.682	1046.429	793.888
51.286	13.678	1045.521	793.110
52.301	13.668	1044.568	792.271
53.315	13.759	1043.095	791.518
54.330	13.653	1042.199	790.263
55.344	13.627	1041.539	789.566
56.359	13.708	1040.720	789.264
57.374	13.533	1039.741	787.620
58.388	13.576	1038.683	786.951
59.403	13.361	1038.546	785.755
60.417	13.435	1037.298	785.094
61.432	13.408	1036.612	784.378
62.447	13.314	1035.825	783.269
63.461	13.416	1034.702	782.831
64.476	13.386	1034.065	782.141
65.490	13.319	1033.095	781.022
66.505	13.438	1032.479	781.044
67.520	13.448	1031.787	780.501
68.534	13.503	1030.893	780.015
69.549	13.485	1030.088	779.251
70.563	13.353	1029.760	778.314
71.578	13.362	1028.958	777.682
72.593	13.346	1028.268	777.016
73.607	13.273	1027.434	775.972
74.622	13.405	1026.593	775.890
75.636	13.460	1025.372	775.156
76.651	13.429	1025.350	774.926
77.666	13.334	1024.970	774.125
78.680	13.471	1024.049	774.003
79.695	13.378	1023.147	772.817
80.709	13.411	1022.997	772.788
81.724	13.544	1021.927	772.533
82.739	13.550	1021.068	771.845
83.753	13.688	1020.527	772.006
84.768	13.696	1019.698	771.348
85.782	13.739	1018.892	770.872
86.797	13.756	1017.727	770.002
87.812	13.646	1016.638	768.598
88.826	13.655	1015.928	768.036
89.841	13.635	1015.254	767.368
90.855	13.659	1014.123	766.554
91.870	13.754	1013.267	766.276
92.884	13.743	1012.458	765.546
93.899	13.737	1011.519	764.742
94.914	13.931	1010.463	764.771
95.928	13.791	1009.909	763.639
96.943	13.704	1009.542	762.895
97.957	13.740	1008.127	761.920
98.972	13.719	1007.012	760.915
99.987	13.691	1006.851	760.598
101.001	13.775	1005.504	759.898
102.016	13.835	1004.469	759.322
103.030	13.689	1003.917	758.170
104.045	13.780	1002.863	757.722
105.060	13.749	1002.145	756.971
106.074	13.566	1001.416	755.522
107.089	13.478	1000.287	754.200
108.103	13.593	999.194	753.836
109.118	13.548	998.157	752.778
110.133	13.568	997.538	752.339
111.147	13.468	996.298	750.881
112.162	13.656	995.511	751.074
113.176	13.759	994.688	750.851
114.191	13.631	993.790	749.530
115.206	13.699	993.180	749.311
116.220	13.721	992.288	748.672
117.235	13.736	991.156	747.819
118.249	13.512	991.034	746.648
119.264	13.434	990.182	745.589
120.279	13.381	989.472	744.750
121.293	13.560	987.925	744.324
122.308	13.568	987.102	743.677
123.322	13.558	986.086	742.799
124.337	13.596	984.720	741.874
125.352	13.574	984.094	741.241
126.366	13.553	982.668	740.006
127.381	13.634	981.844	739.684
128.395	13.569	980.912	738.626
129.410	13.682	980.095	738.446
130.424	13.659	979.382	737.740
131.439	13.687	978.606	737.217
132.454	13.612	977.802	736.214
133.468	13.642	977.281	735.888
134.483	13.695	976.185	735.235
135.497	13.751	975.150	734.635
136.512	13.684	974.396	733.709
137.527	13.604	973.921	732.929
138.541	13.720	972.832	732.558
139.556	13.702	972.103	731.865
140.570	13.716	971.569	731.460
141.585	13.809	970.628	731.096
142.600	13.818	969.999	730.596
143.614	13.941	968.764	730.144
144.629	13.841	968.563	729.487
145.643	13.933	967.327	728.897
146.658	13.835	966.359	727.676
147.673	13.560	966.037	726.161
148.687	13.726	964.562	725.713
149.702	13.631	963.850	724.698
150.716	13.784	962.639	724.393
151.731	13.841	962.392	724.390
152.746	13.861	961.453	723.706
153.760	13.810	960.683	722.841
154.775	13.914	960.173	722.848
155.789	13.995	959.454	722.594
156.804	14.013	958.727	722.060
157.819	13.879	958.464	721.217
158.833	13.982	957.719	721.038
159.848	14.041	956.577	720.374
160.862	14.088	955.100	719.400
161.877	13.905	954.707	718.249
162.892	13.808	953.781	717.070
163.906	13.850	952.761	716.419
164.921	13.970	952.240	716.482
165.935	13.976	951.180	715.647
166.950	13.988	950.373	715.028
167.964	13.905	949.578	714.008
168.979	13.820	948.797	712.994
169.994	13.878	947.912	712.515
171.008	14.056	946.872	712.435
172.023	14.115	946.264	712.167
173.037	14.099	945.828	711.707
174.052	14.200	944.599	711.151
175.067	13.976	943.874	709.585
176.081	13.991	943.711	709.464
177.096	13.973	942.822	708.657
178.110	14.009	942.302	708.357
179.125	13.963	941.852	707.758
180.140	13.994	940.867	707.087
181.154	14.155	940.741	707.617
182.169	14.177	940.185	707.228
183.183	14.135	940.030	706.869
184.198	14.122	938.897	705.903
185.213	14.094	938.437	705.375
186.227	14.247	937.448	705.215
187.242	14.295	936.832	704.892
188.256	14.294	937.017	704.967
189.271	14.307	935.703	703.969
190.286	14.097	934.980	702.477
191.300	14.097	933.824	701.547
192.315	14.074	933.237	700.945
193.329	13.957	932.991	700.208
194.344	14.171	932.118	700.388
195.359	14.199	931.552	700.022
196.373	14.195	931.029	699.547
197.388	14.266	930.645	699.497
198.402	14.442	929.976	699.671
199.417	14.521	929.549	699.617
200.432	14.460	928.712	698.670
201.446	14.560	928.285	698.707
202.461	14.553	927.614	698.111
203.475	14.549	927.162	697.692
204.490	14.418	926.822	696.825
205.504	14.478	925.809	696.254
206.519	14.429	925.374	695.663
207.534	14.478	924.313	695.006
208.548	14.590	923.504	694.802
209.563	14.500	923.004	693.992
210.577	14.575	922.253	693.675
211.592	14.549	921.537	692.969
212.607	14.666	920.726	692.783
213.621	14.687	919.909	692.194
214.636	14.590	919.372	691.327
215.650	14.699	918.388	690.976
216.665	14.834	918.001	691.183
217.680	14.802	917.091	690.305
218.694	14.711	916.232	689.219
219.709	14.642	916.327	688.947
220.723	14.702	915.597	688.583
221.738	14.674	915.094	688.031
222.753	14.666	913.948	687.073
223.767	14.871	913.236	687.322
224.782	14.695	913.272	686.562
225.796	14.806	912.562	686.427
226.811	14.876	911.290	685.696
227.826	14.747	911.092	684.957
228.840	14.773	910.409	684.491
229.855	14.840	909.350	683.906
230.869	14.820	908.780	683.336
231.884	14.689	907.974	682.135
232.899	14.817	906.809	681.719
233.913	14.735	906.555	681.136
234.928	14.894	905.706	681.083
235.942	14.664	905.505	679.937
236.957	14.749	905.159	679.961
237.972	14.749	904.158	679.152
238.986	14.730	903.223	678.309
240.001	14.709	903.146	678.106
241.015	14.942	902.251	678.320
242.030	15.042	901.483	678.088
243.045	14.919	900.994	677.162
244.059	14.907	900.705	676.836
245.074	14.972	899.891	676.427
246.088	14.889	898.928	675.311
247.103	15.034	898.398	675.437
248.117	15.083	898.092	675.346
249.132	15.140	897.647	675.179
250.147	15.237	896.595	674.718
251.161	15.310	896.097	674.578
252.176	15.400	895.246	674.238
253.190	15.397	894.783	673.820
254.205	15.328	894.301	673.118
255.220	15.359	893.676	672.713
256.234	15.429	892.744	672.232
257.249	15.517	892.056	672.007
258.263	15.383	891.296	670.841
259.278	15.455	890.765	670.667
260.293	15.507	890.290	670.457
261.307	15.528	889.895	670.187
262.322	15.524	889.224	669.604
263.336	15.535	888.485	669.034
264.351	15.734	887.200	668.796
265.366	15.559	887.159	668.013
266.380	15.563	886.316	667.335
267.395	15.454	886.024	666.624
268.409	15.423	885.102	665.747
269.424	15.641	884.187	665.865
270.439	15.475	883.774	664.838
271.453	15.539	882.821	664.312
272.468	15.542	882.374	663.930
273.482	15.571	881.814	663.564
274.497	15.552	881.023	662.836
275.512	15.507	880.552	662.245
276.526	15.539	880.181	662.034
277.541	15.577	879.317	661.476
278.555	15.748	878.865	661.751
279.570	15.734	878.320	661.225
280.585	15.883	877.251	660.946
281.599	15.758	876.571	659.888
282.614	15.546	876.420	658.882
283.628	15.847	875.264	659.133
284.643	15.787	874.779	658.476
285.657	15.838	873.932	657.981
286.672	15.886	873.586	657.848
287.687	15.890	872.799	657.213
288.701	15.778	872.500	656.493
289.716	15.817	871.913	656.146
290.730	15.754	871.437	655.485
291.745	15.846	870.971	655.431
292.760	15.855	870.365	654.953
293.774	15.792	869.890	654.294
294.789	15.938	868.865	654.032
295.803	15.944	868.098	653.419
296.818	15.979	867.521	653.064
297.833	15.942	866.930	652.419
298.847	15.803	866.720	651.665
299.862	15.980	865.792	651.594
300.876	15.980	865.165	651.064
301.891	16.013	864.431	650.579
302.906	16.114	863.927	650.534
303.920	16.083	863.423	649.978
304.935	16.099	863.474	650.019
305.949	16.155	862.160	649.189
306.964	16.103	861.839	648.690
307.979	16.059	861.103	647.908
308.993	16.228	860.850	648.311
310.008	16.245	860.112	647.762
311.022	16.172	859.278	646.796
312.037	16.104	859.105	646.350
313.052	16.206	858.436	646.181
314.066	16.177	857.685	645.447
315.081	16.161	857.116	644.899
316.095	16.186	856.284	644.313
317.110	16.115	855.882	643.680
318.125	16.168	855.600	643.615
319.139	16.107	855.104	642.952
320.154	16.314	854.022	642.868
321.168	16.158	853.894	642.123
322.183	16.118	853.613	641.703
323.197	16.308	853.173	642.038
324.212	16.242	852.439	641.177
325.227	16.184	851.758	640.389
326.241	16.324	850.570	639.967
327.256	16.192	850.366	639.259
328.270	16.359	849.973	639.538
329.285	16.239	849.559	638.718
330.300	16.164	848.806	637.809
331.314	16.288	848.329	637.865
332.329	16.327	848.086	637.771
333.343	16.390	847.637	637.616
334.358	16.410	846.711	636.940
335.373	16.455	846.282	636.729
336.387	16.457	846.391	636.761
337.402	16.450	846.243	636.569
338.416	16.606	845.709	636.698
339.431	16.609	845.419	636.433
340.446	16.583	844.987	635.956
341.460	16.583	844.691	635.676
342.475	16.754	844.032	635.765
343.489	16.672	843.596	635.071
344.504	16.788	842.777	634.837
345.519	16.713	843.000	634.666
346.533	16.944	841.705	634.498
347.548	16.812	841.252	633.607
348.562	16.622	840.916	632.590
349.577	16.651	840.297	632.176
350.592	16.680	839.786	631.843
351.606	16.644	839.055	631.101
352.621	16.548	838.205	630.051
353.635	16.547	837.707	629.614
354.650	16.841	836.834	629.998
355.665	16.796	836.386	629.436
356.679	16.810	835.593	628.835
357.694	16.809	835.170	628.460
358.708	16.692	834.728	627.638
359.723	16.852	833.769	627.453
360.738	16.938	833.197	627.284
361.752	16.811	832.456	626.202
362.767	16.875	832.444	626.375
363.781	17.019	831.806	626.372
364.796	17.082	831.460	626.287
365.810	17.120	830.737	625.827
366.825	17.035	830.368	625.182
367.840	17.094	830.298	625.291
368.854	17.152	829.569	624.898
369.869	17.063	829.089	624.153
370.883	17.043	828.736	623.758
371.898	17.042	828.478	623.507
372.913	17.174	827.972	623.555
373.927	17.041	827.395	622.577
374.942	17.156	826.702	622.424
375.956	17.129	826.710	622.275
376.971	17.140	826.053	621.765
377.986	17.415	825.428	622.246
379.000	17.464	824.957	622.015
380.015	17.285	824.667	621.087
381.029	17.349	824.125	620.857
382.044	17.369	823.263	620.226
383.059	17.282	823.025	619.676
384.073	17.236	822.751	619.248
385.088	17.342	821.679	618.769
386.102	17.171	821.016	617.596
387.117	17.249	820.570	617.487
388.132	17.288	820.227	617.318
389.146	17.343	819.550	616.953
390.161	17.387	819.282	616.856
391.175	17.466	818.616	616.585
392.190	17.458	818.243	616.221
393.205	17.330	817.672	615.273
394.219	17.304	817.370	614.897
395.234	17.508	816.495	614.920
396.248	17.270	816.131	613.735
397.263	17.230	816.187	613.577
398.278	17.339	815.581	613.461
399.292	17.400	814.870	613.090
400.307	17.312	814.552	612.481
401.321	17.311	814.133	612.108
402.336	17.343	813.625	611.789
403.350	17.311	813.530	611.545
404.365	17.515	812.838	611.704
405.380	17.670	812.410	611.884
406.394	17.455	811.801	610.600
407.409	17.702	811.217	610.995
408.423	17.644	811.300	610.794
409.438	17.701	810.759	610.536
410.453	17.692	810.354	610.146
411.467	17.700	810.005	609.856
412.482	17.755	809.521	609.635
413.496	17.937	808.935	609.792
414.511	17.809	808.689	609.095
415.526	17.877	808.053	608.805
416.540	17.781	807.656	608.107
417.555	17.902	807.260	608.186
418.569	17.998	806.741	608.085
419.584	17.985	806.045	607.460
420.599	17.997	805.717	607.203
421.613	111.280	1295.072	1475.762
422.628	95.997	1366.352	1475.833
