DTS Sentinel unit serial number:	SN413079Multiplexer serial number:	ORYXHardware model number:	OX4-SRSoftware version number:	ORYX F/W v4.00 Oryx Data Collector v3.7.2.0data status	okinstallation	princeton_trtdifferential loss correction	single-endedforward channel	channel 1reverse channel	N/Adate	2019/09/13time	09:02:35forward acquisition time	60.00reverse acquisition time	0.00gamma	496.2192k internal	0.2326k external	0.2326temperature offset calibration	1.0156default loss term (dB/km)	0.3790temperature slope calibration	1.0000multiplexer offset coefficient	1.0000multiplexer slope coefficient	1.0000fibre end	0.00T internal ref (°C)	28.50T ext. ref 1 (°C)	4.36T ext. ref 2 (°C)	25.85length (m)	temperature (°C)	Stokes	anti-Stokes-747.200	-73.314	-0.278	0.102
-746.185	136.060	0.255	0.335
-745.171	59.327	0.069	-0.069
-744.156	25.863	-0.196	-0.164
-743.142	278.529	-0.187	-0.337
-742.127	77.194	0.244	0.261
-741.112	-67.056	0.264	0.105
-740.098	-200.000	-0.094	0.441
-739.083	800.000	-0.066	-0.256
-738.069	-52.879	-0.083	0.038
-737.054	-127.293	0.044	-0.006
-736.039	-90.920	-0.418	0.121
-735.025	10.607	-0.152	-0.117
-734.010	-111.323	-0.370	-0.076
-732.996	-112.830	-0.275	0.055
-731.981	780.753	-0.064	-0.176
-730.966	-111.082	-0.145	-0.030
-729.952	-62.260	-0.373	-0.157
-728.937	435.415	0.130	-0.286
-727.923	347.454	0.155	0.307
-726.908	-89.841	0.065	-0.019
-725.894	456.927	0.100	-0.224
-724.879	-16.791	-0.209	0.133
-723.864	800.000	-0.015	0.053
-722.850	-133.483	-0.280	0.035
-721.835	-79.211	-0.153	-0.052
-720.821	-86.009	-0.234	-0.073
-719.806	-127.207	-0.169	0.025
-718.791	-4.669	-0.071	0.049
-717.777	65.777	0.086	-0.087
-716.762	-23.905	0.112	0.067
-715.748	800.000	-0.070	-0.230
-714.733	-142.369	0.205	0.020
-713.718	103.459	-0.168	-0.199
-712.704	-116.083	-0.206	0.039
-711.689	-142.923	0.329	-0.032
-710.675	-200.000	0.002	-0.077
-709.660	97.375	0.171	-0.198
-708.645	12.865	0.117	-0.091
-707.631	-116.949	-0.236	0.043
-706.616	95.318	0.175	0.200
-705.602	-200.000	-0.042	0.464
-704.587	1.563	-0.181	0.131
-703.572	175.480	0.341	-0.498
-702.558	143.802	0.096	0.129
-701.543	-200.000	-0.048	-0.312
-700.529	-147.527	0.490	-0.042
-699.514	419.674	0.160	-0.345
-698.499	-139.146	-0.191	-0.021
-697.485	113.264	-0.217	0.265
-696.470	-46.208	0.262	0.130
-695.456	-200.000	0.005	0.084
-694.441	-163.748	-0.267	-0.013
-693.426	-73.111	-0.167	0.062
-692.412	111.508	-0.091	-0.111
-691.397	417.659	-0.034	-0.073
-690.383	95.657	-0.055	-0.064
-689.368	-30.325	-0.327	-0.187
-688.354	800.000	0.056	0.248
-687.339	42.286	0.185	-0.170
-686.324	197.630	-0.131	-0.202
-685.310	800.000	-0.020	-0.086
-684.295	501.106	-0.074	0.172
-683.281	-200.000	-0.032	-0.171
-682.266	101.926	-0.091	0.107
-681.251	-200.000	0.002	-0.070
-680.237	-33.433	-0.129	-0.072
-679.222	-200.000	0.028	-0.327
-678.208	58.791	0.246	-0.243
-677.193	55.032	-0.184	0.179
-676.178	125.612	0.138	-0.175
-675.164	-149.601	-0.051	0.004
-674.149	-84.878	0.288	0.091
-673.135	10.648	-0.048	0.037
-672.120	-129.917	-0.366	0.050
-671.105	354.359	-0.131	-0.262
-670.091	309.321	-0.158	0.296
-669.076	-200.000	0.034	-0.279
-668.062	317.318	-0.109	-0.207
-667.047	186.225	-0.170	-0.254
-666.032	336.161	0.062	0.122
-665.018	80.966	0.288	0.313
-664.003	118.553	0.217	0.270
-662.989	-45.450	0.025	0.013
-661.974	-14.247	-0.022	-0.014
-660.959	108.353	0.172	0.206
-659.945	-142.370	-0.216	0.021
-658.930	-125.317	0.436	0.067
-657.916	187.066	0.097	-0.145
-656.901	-81.429	0.107	0.036
-655.886	-200.000	-0.018	0.399
-654.872	-95.087	-0.214	0.058
-653.857	71.050	-0.043	0.045
-652.843	34.715	-0.087	0.076
-651.828	72.743	0.200	-0.210
-650.814	-8.815	0.334	0.225
-649.799	-200.000	-0.004	-0.063
-648.784	-200.000	0.025	-0.174
-647.770	31.197	0.311	-0.268
-646.755	118.316	0.223	0.276
-645.741	271.774	-0.205	0.362
-644.726	1.946	-0.141	-0.102
-643.711	-118.671	0.256	-0.045
-642.697	-109.820	0.067	0.014
-641.682	124.617	0.201	0.254
-640.668	-61.480	-0.196	0.083
-639.653	-131.774	0.149	-0.020
-638.638	-200.000	-0.046	-0.279
-637.624	-106.694	0.076	-0.017
-636.609	76.862	-0.056	-0.060
-635.595	91.803	0.154	0.174
-634.580	530.067	0.122	-0.288
-633.565	116.850	-0.068	-0.084
-632.551	-106.121	-0.299	-0.067
-631.536	-160.933	-0.134	0.007
-630.522	-1.646	0.213	-0.150
-629.507	-106.179	-0.239	0.054
-628.492	25.432	-0.027	-0.023
-627.478	-32.454	0.286	0.160
-626.463	800.000	0.044	0.149
-625.449	-200.000	0.009	0.086
-624.434	-10.670	-0.152	0.101
-623.419	800.000	-0.047	0.170
-622.405	728.435	-0.102	0.274
-621.390	297.179	0.127	0.233
-620.376	-104.478	-0.096	-0.022
-619.361	191.400	-0.045	-0.069
-618.346	90.383	0.310	-0.349
-617.332	-8.774	-0.288	0.194
-616.317	-55.929	0.086	-0.038
-615.303	350.087	-0.101	-0.201
-614.288	-200.000	-0.015	0.306
-613.273	-134.716	-0.104	-0.013
-612.259	64.992	-0.143	0.145
-611.244	-143.449	0.379	0.036
-610.230	-113.330	-0.440	0.087
-609.215	352.985	-0.096	-0.192
-608.201	372.973	-0.107	0.218
-607.186	76.603	0.084	-0.089
-606.171	-69.366	0.162	0.062
-605.157	-10.903	-0.158	-0.105
-604.142	595.467	0.021	-0.053
-603.128	-200.000	0.098	-0.496
-602.113	0.736	-0.124	-0.089
-601.098	-159.389	-0.182	0.010
-600.084	163.578	0.089	0.126
-599.069	-155.807	0.079	-0.005
-598.055	-23.809	0.136	-0.081
-597.040	-148.457	-0.116	-0.010
-596.025	-200.000	0.022	-0.178
-595.011	-116.663	0.241	0.044
-593.996	-95.188	-0.195	-0.053
-592.982	24.876	-0.087	0.072
-591.967	-151.979	0.064	-0.005
-590.952	-8.645	0.380	-0.255
-589.938	99.736	0.109	-0.127
-588.923	-106.672	0.502	-0.112
-587.909	489.534	0.033	0.075
-586.894	-110.974	0.350	-0.072
-585.879	-45.722	-0.094	0.047
-584.865	-140.787	0.141	-0.015
-583.850	277.806	-0.154	0.275
-582.836	-25.408	0.095	-0.056
-581.821	30.729	-0.188	0.161
-580.806	81.532	-0.242	-0.262
-579.792	182.582	-0.107	0.158
-578.777	149.455	0.207	-0.280
-577.763	56.077	-0.130	0.127
-576.748	-58.826	-0.080	0.035
-575.733	-14.515	-0.084	-0.054
-574.719	68.430	-0.265	0.272
-573.704	800.000	-0.093	0.279
-572.690	123.968	0.212	-0.267
-571.675	106.956	0.040	-0.048
-570.661	-200.000	0.031	-0.181
-569.646	800.000	-0.025	0.085
-568.631	329.866	0.093	0.179
-567.617	-53.508	-0.346	-0.159
-566.602	-200.000	-0.002	0.210
-565.588	-200.000	-0.038	0.278
-564.573	378.443	-0.089	0.182
-563.558	-143.297	0.262	0.025
-562.544	-38.941	0.264	-0.139
-561.529	-200.000	0.059	-0.436
-560.515	304.123	0.075	-0.140
-559.500	-96.067	0.158	-0.042
-558.485	800.000	-0.122	-0.368
-557.471	426.389	-0.086	0.185
-556.456	-165.076	-0.288	-0.013
-555.442	800.000	-0.012	-0.037
-554.427	-9.913	0.264	-0.176
-553.412	476.234	0.084	-0.189
-552.398	-79.425	-0.204	-0.069
-551.383	-109.658	0.185	-0.039
-550.369	800.000	-0.064	0.229
-549.354	23.045	0.177	-0.145
-548.339	800.000	0.063	0.175
-547.325	-139.790	-0.185	-0.020
-546.310	443.645	0.051	0.111
-545.296	600.092	0.084	-0.209
-544.281	-78.374	-0.275	-0.094
-543.266	-133.941	0.041	-0.005
-542.252	800.000	0.037	-0.155
-541.237	-57.702	-0.061	-0.027
-540.223	-190.889	0.143	-0.002
-539.208	469.616	-0.144	-0.324
-538.193	244.456	0.055	-0.092
-537.179	143.902	-0.060	-0.080
-536.164	63.054	-0.085	0.085
-535.150	-200.000	-0.032	0.191
-534.135	800.000	-0.045	-0.133
-533.121	-129.244	-0.443	-0.062
-532.106	-31.146	0.160	-0.090
-531.091	286.115	0.214	-0.387
-530.077	28.111	-0.192	-0.162
-529.062	380.772	0.114	-0.234
-528.048	-200.000	-0.024	-0.140
-527.033	-99.318	-0.287	-0.072
-526.018	800.000	-0.050	-0.188
-525.004	-200.000	0.007	0.316
-523.989	-35.873	-0.244	-0.132
-522.975	228.256	-0.073	0.119
-521.960	23.552	0.175	0.144
-520.945	-79.683	0.066	0.022
-519.931	-156.909	-0.514	-0.031
-518.916	-159.149	0.357	-0.020
-517.902	-31.909	-0.345	-0.193
-516.887	-105.999	-0.511	-0.115
-515.872	365.575	0.094	-0.188
-514.858	-55.023	0.097	-0.044
-513.843	-70.867	0.185	0.070
-512.829	44.061	0.097	-0.089
-511.814	-70.118	0.435	0.165
-510.799	-134.405	0.326	-0.040
-509.785	14.204	0.159	-0.124
-508.770	-200.000	0.028	-0.402
-507.756	189.169	-0.074	-0.111
-506.741	543.641	-0.105	-0.250
-505.726	-111.919	0.169	-0.034
-504.712	-200.000	-0.016	-0.314
-503.697	800.000	0.010	0.041
-502.683	73.275	-0.148	0.155
-501.668	499.588	0.155	0.357
-500.653	-52.737	0.043	0.020
-499.639	-24.704	-0.069	0.041
-498.624	-200.000	-0.020	-0.168
-497.610	-40.969	0.061	0.032
-496.595	-200.000	-0.018	-0.111
-495.581	-160.216	-0.546	0.030
-494.566	106.139	0.119	-0.140
-493.551	800.000	0.056	0.189
-492.537	11.082	-0.219	0.167
-491.522	-200.000	0.049	-0.266
-490.508	-34.111	0.341	0.187
-489.493	-200.000	-0.026	0.148
-488.478	-200.000	0.049	-0.270
-487.464	-104.551	-0.338	-0.078
-486.449	77.916	-0.355	-0.378
-485.435	-200.000	0.007	0.083
-484.420	-200.000	0.010	-0.068
-483.405	57.108	-0.116	-0.113
-482.391	73.640	0.120	-0.126
-481.376	-82.733	0.256	-0.083
-480.362	-28.841	-0.088	-0.051
-479.347	145.707	-0.168	0.224
-478.332	164.509	0.024	0.034
-477.318	-102.783	0.101	-0.024
-476.303	-87.672	-0.280	-0.084
-475.289	-100.988	-0.308	-0.075
-474.274	-200.000	0.007	0.083
-473.259	219.231	-0.241	0.384
-472.245	245.086	-0.051	-0.086
-471.230	405.361	0.140	0.296
-470.216	-98.567	0.420	-0.107
-469.201	-183.284	0.160	0.003
-468.186	-160.533	0.180	-0.010
-467.172	-200.000	0.061	0.307
-466.157	61.058	-0.124	0.123
-465.143	-200.000	0.033	-0.173
-464.128	800.000	-0.089	-0.334
-463.113	20.318	-0.067	0.054
-462.099	-35.074	-0.109	0.059
-461.084	262.590	-0.053	-0.091
-460.070	-93.253	0.024	-0.007
-459.055	800.000	-0.057	0.179
-458.040	-90.358	0.064	0.019
-457.026	98.644	0.213	0.245
-456.011	-200.000	0.030	0.137
-454.997	12.603	0.173	-0.133
-453.982	392.464	0.019	0.040
-452.968	392.337	-0.019	0.039
-451.953	800.000	-0.104	0.326
-450.938	-200.000	-0.018	-0.113
-449.924	-200.000	-0.003	0.072
-448.909	-51.577	0.030	-0.014
-447.895	800.000	0.070	0.219
-446.880	45.348	-0.214	0.197
-445.865	800.000	-0.147	0.442
-444.851	-131.863	-0.260	0.034
-443.836	800.000	-0.040	0.116
-442.822	224.937	-0.145	0.234
-441.807	-19.443	-0.071	0.044
-440.792	-30.988	-0.027	0.015
-439.778	-109.019	-0.160	0.034
-438.763	286.882	-0.040	-0.072
-437.749	269.520	0.192	-0.336
-436.734	-169.266	0.189	0.007
-435.719	-54.606	-0.197	-0.089
-434.705	172.208	0.031	-0.045
-433.690	183.677	0.134	-0.198
-432.676	-139.361	-0.261	-0.028
-431.661	-200.000	0.041	0.281
-430.646	-200.000	0.026	0.136
-429.632	-77.592	-0.168	-0.058
-428.617	-88.570	0.272	-0.081
-427.603	800.000	0.068	0.294
-426.588	-200.000	0.012	-0.103
-425.573	-200.000	0.016	0.145
-424.559	780.937	-0.084	-0.229
-423.544	-200.000	0.017	0.399
-422.530	-58.963	0.261	-0.112
-421.515	-85.185	-0.183	0.057
-420.500	27.052	-0.280	-0.234
-419.486	-44.606	0.132	-0.066
-418.471	-37.704	-0.082	-0.044
-417.457	-77.755	0.049	0.017
-416.442	-44.242	-0.247	-0.124
-415.428	800.000	-0.067	0.197
-414.413	-175.520	-0.248	-0.007
-413.398	800.000	0.105	0.404
-412.384	-129.396	-0.173	-0.024
-411.369	284.330	-0.215	-0.385
-410.355	-88.447	-0.265	-0.079
-409.340	88.557	0.069	-0.076
-408.325	447.391	-0.067	0.147
-407.311	17.348	0.445	0.352
-406.296	800.000	0.061	0.225
-405.282	-164.098	-0.372	-0.017
-404.267	-200.000	0.017	0.203
-403.252	-78.248	0.094	-0.032
-402.238	800.000	0.090	0.264
-401.223	-157.663	0.364	0.022
-400.209	-28.127	-0.058	0.033
-399.194	-92.115	0.019	-0.005
-398.179	-36.069	0.183	0.098
-397.165	486.675	-0.069	0.156
-396.150	-112.751	0.136	0.027
-395.136	63.926	0.132	-0.133
-394.121	607.634	-0.107	-0.266
-393.106	500.044	0.082	-0.187
-392.092	163.165	0.021	-0.029
-391.077	103.031	-0.064	-0.074
-390.063	-59.797	0.312	-0.133
-389.048	-39.623	0.165	-0.086
-388.033	-167.047	-0.110	-0.004
-387.019	786.417	0.053	0.144
-386.004	391.093	-0.068	-0.140
-384.990	-200.000	0.009	0.055
-383.975	800.000	0.175	0.528
-382.960	-200.000	0.044	0.445
-381.946	-23.792	0.108	0.065
-380.931	-53.491	0.069	0.031
-379.917	-16.640	-0.140	0.088
-378.902	800.000	0.039	-0.113
-377.888	4.881	-0.197	0.144
-376.873	-122.153	-0.171	-0.028
-375.858	775.817	0.118	0.321
-374.844	-112.109	0.222	-0.044
-373.829	101.974	0.144	-0.167
-372.815	71.766	0.255	-0.263
-371.800	-198.947	-0.168	-0.001
-370.785	-129.463	-0.123	-0.017
-369.771	800.000	-0.021	-0.074
-368.756	-200.000	-0.009	-0.171
-367.742	800.000	-0.037	0.115
-366.727	118.621	-0.052	-0.064
-365.712	-200.000	-0.005	-0.196
-364.698	726.863	-0.089	-0.237
-363.683	174.259	0.035	0.050
-362.669	-134.708	-0.187	-0.023
-361.654	-101.484	-0.214	0.052
-360.639	-12.774	0.293	-0.189
-359.625	370.719	0.082	-0.165
-358.610	-123.018	0.118	-0.019
-357.596	348.131	0.123	0.240
-356.581	-161.665	-0.206	-0.010
-355.566	-25.951	0.085	-0.050
-354.552	800.000	-0.031	0.097
-353.537	-200.000	0.036	0.266
-352.523	-136.865	0.222	0.025
-351.508	737.266	0.107	-0.286
-350.493	248.216	0.177	-0.298
-349.479	224.809	-0.275	0.442
-348.464	86.784	0.205	0.225
-347.450	-145.960	0.363	-0.032
-346.435	-98.869	0.201	-0.051
-345.420	459.797	-0.062	0.137
-344.406	-131.386	0.056	0.007
-343.391	-63.330	-0.290	-0.118
-342.377	800.000	-0.085	-0.263
-341.362	73.431	0.098	-0.102
-340.348	-35.297	0.103	-0.056
-339.333	800.000	0.124	-0.486
-338.318	36.141	0.120	0.105
-337.304	-200.000	-0.004	0.093
-336.289	140.256	0.235	-0.307
-335.275	791.363	-0.063	-0.172
-334.260	53.030	0.180	-0.171
-333.245	-200.000	0.008	-0.115
-332.231	-123.957	-0.110	-0.017
-331.216	598.276	-0.123	-0.303
-330.202	142.754	0.182	-0.240
-329.187	-123.716	-0.193	0.030
-328.172	166.390	0.164	-0.231
-327.158	-200.000	0.018	-0.096
-326.143	686.835	0.080	-0.208
-325.129	346.711	0.075	-0.147
-324.114	-52.215	-0.309	0.142
-323.099	-148.862	-0.132	-0.011
-322.085	225.764	-0.079	-0.127
-321.070	540.476	-0.100	-0.236
-320.056	144.593	-0.093	-0.123
-319.041	-86.839	0.170	0.052
-318.026	-200.000	-0.012	-0.081
-317.012	-85.655	-0.216	-0.067
-315.997	-200.000	0.037	0.257
-314.983	-67.139	-0.182	0.071
-313.968	-200.000	-0.003	0.144
-312.953	-62.254	0.200	0.083
-311.939	77.033	-0.158	0.167
-310.924	-200.000	-0.012	0.158
-309.910	-122.716	-0.188	-0.030
-308.895	767.618	-0.116	0.314
-307.880	-37.850	-0.042	-0.022
-306.866	-200.000	-0.061	-0.490
-305.851	-71.414	0.068	0.025
-304.837	800.000	-0.045	-0.154
-303.822	97.471	0.143	-0.162
-302.807	-194.107	-0.034	0.000
-301.793	111.538	-0.159	-0.191
-300.778	-21.029	-0.058	-0.035
-299.764	-160.619	-0.316	-0.017
-298.749	-200.000	-0.005	0.144
-297.735	499.241	0.029	0.066
-296.720	-157.477	-0.295	-0.018
-295.705	187.393	-0.074	0.110
-294.691	219.856	-0.093	-0.147
-293.676	800.000	-0.092	0.320
-292.662	486.310	0.087	0.198
-291.647	-120.557	-0.130	0.022
-290.632	281.900	0.131	0.232
-289.618	-25.120	-0.086	0.051
-288.603	-19.289	0.079	-0.049
-287.589	800.000	-0.067	0.255
-286.574	-200.000	0.018	-0.188
-285.559	20.497	-0.178	0.142
-284.545	-200.000	-0.025	0.176
-283.530	-200.000	-0.009	-0.098
-282.516	-117.327	0.162	0.029
-281.501	56.438	-0.073	0.070
-280.486	-129.407	-0.259	-0.036
-279.472	552.572	-0.115	0.273
-278.457	-59.763	-0.102	0.043
-277.443	-200.000	-0.040	0.237
-276.428	-200.000	-0.022	0.249
-275.413	-200.000	0.020	-0.288
-274.399	-54.206	-0.030	-0.014
-273.384	-200.000	0.067	-0.305
-272.370	-31.274	-0.198	0.111
-271.355	-77.726	-0.110	-0.038
-270.340	-28.238	-0.156	-0.089
-269.326	-200.000	-0.007	0.260
-268.311	-82.574	0.058	0.019
-267.297	-95.554	0.222	-0.059
-266.282	800.000	0.047	0.190
-265.267	-79.642	-0.182	0.061
-264.253	-18.889	0.233	0.144
-263.238	-200.000	0.012	-0.099
-262.224	-107.518	-0.180	-0.039
-261.209	26.192	0.245	-0.203
-260.195	-36.705	-0.166	0.088
-259.180	-200.000	0.008	-0.128
-258.165	2.412	0.194	-0.139
-257.151	-36.454	-0.166	0.088
-256.136	-33.097	0.078	-0.043
-255.122	80.781	-0.080	0.085
-254.107	82.605	-0.030	0.032
-253.092	-122.315	0.509	0.082
-252.078	800.000	0.050	-0.193
-251.063	-200.000	0.025	0.145
-250.049	24.376	-0.196	0.160
-249.034	97.296	0.113	0.128
-248.019	-200.000	-0.024	-0.302
-247.005	-14.925	-0.057	-0.036
-245.990	81.438	-0.071	-0.076
-244.976	800.000	0.133	0.374
-243.961	72.189	-0.181	-0.186
-242.946	-31.420	-0.119	0.066
-241.932	61.051	-0.242	0.238
-240.917	26.678	-0.029	-0.024
-239.903	758.200	0.106	0.285
-238.888	127.891	0.209	-0.263
-237.873	13.742	0.203	-0.156
-236.859	49.037	-0.102	0.095
-235.844	273.049	0.170	0.297
-234.830	798.640	-0.171	0.465
-233.815	28.160	0.127	-0.106
-232.800	-200.000	-0.012	-0.093
-231.786	112.662	-0.125	-0.149
-230.771	-200.000	0.016	0.282
-229.757	-200.000	0.030	0.213
-228.742	4.290	-0.163	-0.118
-227.727	365.362	0.068	-0.136
-226.713	-200.000	0.031	-0.154
-225.698	-22.403	0.096	-0.057
-224.684	103.460	0.048	-0.055
-223.669	13.212	0.130	-0.099
-222.655	800.000	-0.093	-0.384
-221.640	-200.000	0.004	-0.140
-220.625	-200.000	0.008	-0.098
-219.611	-200.000	-0.050	-0.222
-218.596	18.650	-0.176	0.139
-217.582	-160.267	0.195	-0.010
-216.567	760.825	0.204	0.546
-215.552	-119.861	-0.181	0.031
-214.538	-141.362	0.368	-0.037
-213.523	105.306	-0.186	0.216
-212.509	-49.712	-0.303	0.142
-211.494	-160.659	0.325	0.017
-210.479	-100.694	0.148	0.036
-209.465	-60.070	0.140	0.059
-208.450	664.437	0.136	-0.347
-207.436	-200.000	-0.013	0.138
-206.421	220.152	-0.016	0.025
-205.406	-82.754	-0.189	-0.060
-204.392	-200.000	-0.022	0.206
-203.377	259.016	-0.133	-0.227
-202.363	-31.780	-0.034	0.019
-201.348	-200.000	-0.009	0.053
-200.333	-42.767	0.169	0.085
-199.319	67.986	0.203	0.205
-198.304	-200.000	-0.039	0.207
-197.290	72.507	-0.147	0.151
-196.275	118.466	0.233	0.283
-195.260	-167.178	0.034	-0.001
-194.246	136.212	-0.110	-0.142
-193.231	234.207	-0.148	0.240
-192.217	-31.742	-0.171	-0.095
-191.202	-37.789	0.070	0.037
-190.187	788.900	0.038	0.104
-189.173	-6.653	-0.172	-0.115
-188.158	-169.056	0.288	0.011
-187.144	-180.813	0.520	-0.010
-186.129	93.733	0.171	-0.191
-185.114	-27.996	-0.098	0.056
-184.100	800.000	-0.044	0.141
-183.085	-10.704	-0.253	0.165
-182.071	54.541	0.079	0.075
-181.056	-114.786	-0.130	-0.025
-180.042	178.777	0.240	0.346
-179.027	-200.000	-0.013	-0.144
-178.012	241.361	-0.087	0.143
-176.998	-5.052	0.291	0.197
-175.983	800.000	-0.058	0.199
-174.969	-22.022	0.204	0.122
-173.954	-110.519	0.137	-0.028
-172.939	-11.164	0.144	-0.094
-171.925	-81.160	-0.086	-0.028
-170.910	206.112	-0.021	-0.033
-169.896	45.540	-0.249	0.227
-168.881	-93.372	0.137	-0.037
-167.866	-137.079	-0.272	-0.031
-166.852	-34.519	0.171	-0.092
-165.837	392.290	0.167	-0.342
-164.823	602.099	-0.122	0.299
-163.808	-130.402	0.175	-0.023
-162.793	-83.553	0.275	-0.087
-161.779	-113.314	-0.159	-0.031
-160.764	-125.405	0.244	0.037
-159.750	800.000	-0.147	0.538
-158.735	134.366	0.041	-0.052
-157.720	-167.232	-0.170	-0.007
-156.706	-66.844	-0.395	-0.154
-155.691	-200.000	-0.008	-0.192
-154.677	-128.220	0.199	0.028
-153.662	109.327	0.116	-0.137
-152.647	800.000	0.016	-0.046
-151.633	800.000	0.097	-0.296
-150.618	19.987	0.114	0.091
-149.604	7.808	-0.289	0.214
-148.589	-65.240	-0.299	0.119
-147.574	-160.028	-0.289	-0.016
-146.560	-200.000	-0.012	-0.175
-145.545	-70.465	0.029	-0.011
-144.531	48.543	-0.174	0.160
-143.516	800.000	0.062	0.223
-142.502	107.848	0.040	0.047
-141.487	-11.368	0.216	0.140
-140.472	-38.488	-0.205	-0.107
-139.458	748.197	-0.025	0.068
-138.443	80.269	0.237	0.251
-137.429	-31.740	0.173	0.096
-136.414	239.380	-0.116	0.190
-135.399	191.112	-0.076	-0.112
-134.385	-2.559	0.339	0.234
-133.370	11.447	-0.264	-0.199
-132.356	-172.769	0.314	-0.010
-131.341	800.000	0.091	-0.358
-130.326	294.657	-0.026	-0.048
-129.312	704.249	0.085	-0.220
-128.297	251.574	-0.215	0.360
-127.283	-38.047	-0.250	0.131
-126.268	-135.383	0.525	0.062
-125.253	-200.000	-0.017	-0.326
-124.239	-59.585	0.265	0.112
-123.224	-200.000	-0.025	0.222
-122.210	137.730	-0.069	0.089
-121.195	-9.926	0.195	-0.127
-120.180	124.951	0.170	-0.211
-119.166	-200.000	-0.029	0.144
-118.151	-68.417	0.370	0.141
-117.137	-175.936	-0.253	-0.007
-116.122	-49.451	-0.483	0.227
-115.107	27.248	-0.094	0.078
-114.093	-174.254	-0.077	0.002
-113.078	-200.000	-0.008	0.054
-112.064	-116.803	0.328	0.059
-111.049	349.701	-0.127	-0.247
-110.034	-92.691	-0.084	-0.023
-109.020	800.000	0.052	0.183
-108.005	-200.000	0.060	0.269
-106.991	-53.241	0.289	0.131
-105.976	800.000	0.082	0.264
-104.962	769.809	-0.090	0.242
-103.947	9.900	-0.065	0.049
-102.932	265.495	-0.178	-0.305
-101.918	527.562	0.074	-0.173
-100.903	-48.029	0.216	-0.103
-99.889	-200.000	0.038	-0.237
-98.874	-102.626	-0.244	-0.057
-97.859	800.000	0.086	-0.314
-96.845	146.734	-0.094	-0.124
-95.830	176.012	-0.234	-0.334
-94.816	-200.000	0.041	0.197
-93.801	576.559	0.188	0.452
-92.786	89.574	0.233	0.256
-91.772	-96.181	0.181	0.047
-90.757	800.000	-0.051	-0.186
-89.743	59.668	-0.180	-0.175
-88.728	-103.462	-0.187	-0.043
-87.713	-114.117	-0.462	0.088
-86.699	-103.984	0.081	-0.018
-85.684	-146.882	0.481	-0.041
-84.670	16.991	-0.152	-0.119
-83.655	601.776	0.104	0.255
-82.640	21.801	0.094	-0.076
-81.626	-124.706	-0.213	0.032
-80.611	-200.000	0.030	-0.235
-79.597	800.000	0.070	-0.297
-78.582	481.149	0.102	-0.227
-77.567	349.667	0.078	-0.152
-76.553	158.065	0.052	0.071
-75.538	-98.046	0.368	-0.093
-74.524	396.327	-0.059	-0.121
-73.509	-102.022	-0.078	0.018
-72.494	405.286	-0.009	-0.019
-71.480	-200.000	0.008	0.184
-70.465	800.000	-0.012	0.047
-69.451	-153.472	-0.056	0.004
-68.436	-123.405	0.145	-0.023
-67.422	51.883	-0.180	-0.168
-66.407	370.270	-0.083	-0.164
-65.392	455.010	-0.093	-0.202
-64.378	196.818	0.030	-0.045
-63.363	-43.681	-0.076	0.037
-62.349	-75.674	0.288	-0.100
-61.334	319.903	-0.540	-1.006
-60.319	581.436	0.244	0.588
-59.305	800.000	-0.250	-1.066
-58.290	236.439	0.851	1.382
-57.276	425.701	0.787	1.664
-56.261	-200.000	108.259	595.411
-55.246	491.148	1515.431	3405.521
-54.232	173.701	2710.315	3840.074
-53.217	108.161	2173.489	2544.281
-52.203	39.840	1612.621	1420.877
-51.188	31.769	1350.401	1140.893
-50.173	28.743	1309.597	1088.471
-49.159	52.593	1364.849	1279.417
-48.144	52.409	1380.637	1293.052
-47.130	32.042	1333.929	1128.433
-46.115	28.616	1316.638	1093.395
-45.100	28.482	1311.290	1088.114
-44.086	28.400	1309.472	1086.075
-43.071	28.304	1306.899	1083.330
-42.057	28.363	1304.873	1081.958
-41.042	28.333	1303.361	1080.486
-40.027	28.314	1301.546	1078.826
-39.013	28.377	1299.439	1077.403
-37.998	28.439	1297.795	1076.362
-36.984	28.457	1295.840	1074.807
-35.969	28.546	1294.078	1073.823
-34.954	28.439	1292.424	1071.780
-33.940	28.628	1291.106	1071.750
-32.925	28.592	1289.918	1070.508
-31.911	28.514	1288.584	1068.907
-30.896	28.696	1286.654	1068.324
-29.881	28.547	1285.809	1066.713
-28.867	28.616	1284.182	1065.718
-27.852	28.598	1282.531	1064.201
-26.838	28.636	1281.514	1063.538
-25.823	28.607	1280.240	1062.271
-24.809	28.634	1278.498	1060.937
-23.794	28.582	1277.354	1059.649
-22.779	28.608	1276.292	1058.877
-21.765	28.650	1274.541	1057.621
-20.750	28.512	1273.599	1056.004
-19.736	28.617	1272.012	1055.246
-18.721	28.540	1270.621	1053.611
-17.706	28.561	1269.566	1052.812
-16.692	28.483	1269.016	1051.869
-15.677	28.468	1267.596	1050.565
-14.663	28.374	1266.687	1049.231
-13.648	28.327	1266.211	1048.527
-12.633	28.494	1264.504	1048.023
-11.619	28.361	1263.893	1046.718
-10.604	28.417	1262.956	1046.223
-9.590	28.346	1262.213	1045.159
-8.575	28.421	1260.922	1044.475
-7.560	28.393	1260.274	1043.739
-6.546	28.442	1259.348	1043.208
-5.531	28.311	1258.802	1041.968
-4.517	28.403	1258.062	1041.839
-3.502	28.400	1256.722	1040.668
-2.487	28.493	1255.420	1040.077
-1.473	28.439	1251.834	1036.762
-0.458	27.392	1237.301	1018.827
0.556	26.022	1220.598	983.649
1.571	22.504	1226.007	968.616
2.586	21.520	1240.766	974.710
3.600	20.660	1228.401	960.168
4.615	15.634	1156.195	877.475
5.629	8.028	1083.373	784.793
6.644	4.732	1064.195	754.865
7.659	4.368	1061.765	751.316
8.673	4.183	1060.518	749.473
9.688	4.148	1059.565	748.562
10.702	4.579	1057.963	749.443
11.717	9.721	1064.704	779.048
12.731	17.561	1076.308	825.617
13.746	21.554	1080.568	848.205
14.761	21.992	1080.266	850.014
15.775	21.152	1078.809	844.727
16.790	20.278	1076.646	838.734
17.804	19.624	1075.506	834.616
18.819	19.266	1074.553	832.072
19.834	19.253	1073.796	831.352
20.848	19.124	1073.020	830.054
21.863	18.937	1072.356	828.566
22.877	18.795	1071.870	827.431
23.892	18.793	1070.929	826.622
24.907	18.772	1069.989	825.724
25.921	18.791	1069.243	825.169
26.936	18.818	1067.723	824.052
27.950	18.819	1066.436	822.990
28.965	18.915	1065.030	822.292
29.980	19.126	1063.595	822.115
30.994	19.230	1062.678	821.832
32.009	19.256	1061.476	820.955
33.023	18.989	1060.831	819.110
34.038	18.924	1059.689	817.847
35.053	18.874	1058.775	816.834
36.067	18.790	1058.011	815.772
37.082	19.026	1057.087	816.106
38.096	19.042	1056.625	815.753
39.111	19.017	1055.368	814.594
40.126	18.793	1054.598	812.865
41.140	18.517	1053.097	810.333
42.155	18.481	1051.754	809.057
43.169	18.351	1050.569	807.459
44.184	18.429	1049.686	807.077
45.199	18.364	1048.717	805.956
46.213	18.543	1047.962	806.146
47.228	18.794	1047.079	806.573
48.242	18.954	1045.954	806.387
49.257	18.819	1044.907	804.876
50.271	19.019	1044.106	805.126
51.286	18.943	1043.616	804.322
52.301	18.882	1042.556	803.144
53.315	18.835	1040.936	801.608
54.330	18.637	1040.423	800.220
55.344	18.591	1039.576	799.283
56.359	18.586	1038.925	798.690
57.374	18.485	1038.249	797.625
58.388	18.572	1036.512	796.627
59.403	18.377	1036.274	795.466
60.417	18.393	1035.445	794.836
61.432	18.310	1034.431	793.601
62.447	18.225	1033.848	792.691
63.461	18.240	1032.529	791.680
64.476	18.252	1031.654	790.992
65.490	18.135	1031.394	790.182
66.505	18.153	1030.640	789.617
67.520	18.301	1029.958	789.711
68.534	18.373	1028.926	789.181
69.549	18.187	1028.690	788.071
70.563	18.101	1027.808	786.931
71.578	18.096	1026.301	785.682
72.593	18.047	1025.534	784.801
73.607	17.986	1025.088	784.112
74.622	18.030	1024.618	783.885
75.636	17.965	1024.365	783.325
76.651	18.100	1023.196	782.979
77.666	18.192	1022.742	782.981
78.680	18.189	1022.071	782.388
79.695	18.192	1021.579	781.955
80.709	18.290	1021.146	782.002
81.724	18.552	1019.891	782.165
82.739	18.599	1019.442	781.967
83.753	18.792	1018.745	782.243
84.768	19.196	1018.375	783.728
85.782	19.226	1017.645	783.234
86.797	19.165	1016.623	782.099
87.812	18.946	1015.586	780.241
88.826	19.042	1014.632	779.874
89.841	18.991	1013.755	778.900
90.855	19.070	1012.737	778.406
91.870	19.159	1012.009	778.180
92.884	19.128	1010.979	777.178
93.899	19.106	1009.957	776.225
94.914	19.185	1009.176	775.914
95.928	19.133	1008.683	775.231
96.943	18.971	1007.751	773.714
97.957	19.189	1006.200	773.435
98.972	19.164	1005.592	772.789
99.987	19.089	1004.899	771.850
101.001	19.073	1003.743	770.821
102.016	18.963	1003.235	769.871
103.030	18.986	1002.639	769.450
104.045	19.121	1001.252	768.921
105.060	18.862	1000.511	767.129
106.074	18.715	999.039	765.273
107.089	18.515	997.579	763.198
108.103	18.416	996.977	762.229
109.118	18.344	996.289	761.316
110.133	18.290	995.009	760.031
111.147	18.241	994.299	759.206
112.162	18.259	993.762	758.808
113.176	18.567	992.852	759.411
114.191	18.560	992.301	758.890
115.206	18.517	991.160	757.758
116.220	18.386	990.318	756.470
117.235	18.361	989.346	755.549
118.249	18.402	988.840	755.279
119.264	18.270	987.846	753.870
120.279	18.091	987.298	752.600
121.293	18.212	985.869	751.974
122.308	18.170	984.951	751.021
123.322	18.173	983.987	750.236
124.337	18.007	983.120	748.778
125.352	17.910	982.465	747.791
126.366	18.031	980.884	747.051
127.381	18.066	979.833	746.334
128.395	18.093	979.304	745.983
129.410	18.251	978.306	745.848
130.424	18.286	977.549	745.354
131.439	18.433	976.974	745.492
132.454	18.480	976.193	745.034
133.468	18.458	975.399	744.266
134.483	18.361	975.053	743.517
135.497	18.439	973.380	742.512
136.512	18.565	972.736	742.500
137.527	18.460	972.238	741.599
138.541	18.692	971.432	741.922
139.556	18.523	971.026	740.816
140.570	18.797	970.583	741.598
141.585	18.929	969.462	741.246
142.600	19.047	968.468	740.926
143.614	19.058	967.975	740.529
144.629	19.092	967.700	740.403
145.643	19.006	966.413	738.983
146.658	18.822	965.095	737.120
147.673	18.729	964.065	735.868
148.687	18.596	963.115	734.508
149.702	18.554	961.942	733.368
150.716	18.536	961.374	732.795
151.731	18.533	960.816	732.293
152.746	18.574	960.269	731.986
153.760	18.640	959.573	731.673
154.775	18.758	959.273	731.882
155.789	18.921	958.304	731.773
156.804	18.811	957.509	730.630
157.819	18.975	957.079	730.938
158.833	18.967	956.408	730.326
159.848	19.226	955.215	730.447
160.862	19.042	954.370	728.958
161.877	18.839	953.309	727.222
162.892	18.576	952.410	725.359
163.906	18.624	951.287	724.646
164.921	18.556	950.210	723.472
165.935	18.603	949.962	723.419
166.950	18.823	948.679	723.305
167.964	18.693	948.278	722.387
168.979	18.662	947.066	721.269
169.994	18.643	946.242	720.498
171.008	18.708	945.786	720.358
172.023	18.883	945.476	720.794
173.037	19.041	944.449	720.607
174.052	18.979	943.520	719.577
175.067	18.546	942.947	717.267
176.081	18.496	942.091	716.343
177.096	18.473	941.760	715.930
178.110	18.649	941.110	716.107
179.125	18.712	940.265	715.663
180.140	18.802	939.691	715.539
181.154	18.873	939.798	715.853
182.169	19.057	939.439	716.281
183.183	19.098	938.895	715.975
184.198	19.163	937.688	715.260
185.213	19.016	937.348	714.329
186.227	19.102	936.498	713.975
187.242	19.146	936.135	713.817
188.256	19.330	935.651	714.147
189.271	19.364	934.560	713.393
190.286	18.940	933.053	710.427
191.300	18.471	932.450	707.966
192.315	18.503	931.597	707.387
193.329	18.470	931.279	706.950
194.344	18.635	930.944	707.313
195.359	18.921	930.309	707.944
196.373	19.065	929.458	707.826
197.388	19.137	929.709	708.249
198.402	19.266	929.354	708.448
199.417	19.304	928.741	708.077
200.432	19.768	927.635	709.071
201.446	19.617	927.525	708.307
202.461	19.771	926.878	708.381
203.475	19.505	926.466	706.914
204.490	19.290	925.288	705.075
205.504	19.237	924.618	704.283
206.519	19.309	923.790	703.885
207.534	19.156	923.153	702.711
208.548	19.054	922.264	701.558
209.563	19.176	921.819	701.654
210.577	19.283	921.282	701.618
211.592	19.452	920.725	701.821
212.607	19.495	920.313	701.617
213.621	19.374	919.414	700.378
214.636	19.458	918.732	700.138
215.650	19.490	917.822	699.514
216.665	19.458	917.371	698.978
217.680	19.682	916.878	699.449
218.694	19.792	915.912	699.092
219.709	19.517	915.445	697.564
220.723	19.578	914.815	697.270
221.738	19.407	914.034	695.923
222.753	19.467	913.692	695.844
223.767	19.677	913.384	696.391
224.782	19.775	912.588	696.119
225.796	19.898	912.034	696.128
226.811	19.736	911.194	694.775
227.826	19.444	910.595	693.085
228.840	19.438	909.911	692.479
229.855	19.481	908.964	691.869
230.869	19.369	908.286	690.843
231.884	19.387	907.622	690.347
232.899	19.349	906.781	689.496
233.913	19.283	905.911	688.510
234.928	19.241	905.407	687.896
235.942	19.099	904.892	686.880
236.957	19.082	904.231	686.249
237.972	19.182	903.933	686.359
238.986	19.174	903.385	685.850
240.001	19.177	902.630	685.231
241.015	19.401	901.780	685.413
242.030	19.410	901.231	684.973
243.045	19.498	900.882	684.994
244.059	19.400	900.557	684.299
245.074	19.472	899.904	684.027
246.088	19.696	899.026	684.184
247.103	19.760	898.289	683.818
248.117	20.090	897.870	684.744
249.132	20.274	897.836	685.385
250.147	20.482	897.354	685.777
251.161	20.482	896.880	685.353
252.176	20.415	896.663	684.863
253.190	20.508	895.877	684.568
254.205	20.619	895.017	684.285
255.220	20.519	894.161	683.179
256.234	20.438	893.405	682.224
257.249	20.407	892.788	681.571
258.263	20.372	892.362	681.046
259.278	20.511	891.656	680.992
260.293	20.545	891.049	680.599
261.307	20.665	890.614	680.676
262.322	20.679	890.117	680.292
263.336	20.706	888.911	679.417
264.351	20.572	888.245	678.325
265.366	20.684	887.699	678.284
266.380	20.655	887.063	677.625
267.395	20.402	886.525	676.171
268.409	20.322	885.468	674.993
269.424	20.527	884.785	675.209
270.439	20.299	884.699	674.197
271.453	20.167	883.494	672.706
272.468	20.335	882.969	672.898
273.482	20.296	882.179	672.088
274.497	20.253	881.679	671.480
275.512	20.365	881.036	671.365
276.526	20.290	880.801	670.837
277.541	20.340	880.308	670.593
278.555	20.478	880.298	671.058
279.570	20.680	879.374	671.076
280.585	20.667	878.616	670.388
281.599	20.565	878.009	669.473
282.614	20.338	876.906	667.699
283.628	20.417	876.396	667.556
284.643	20.415	876.040	667.218
285.657	20.459	874.786	666.373
286.672	20.450	874.743	666.244
287.687	20.490	873.961	665.744
288.701	20.422	873.197	664.843
289.716	20.442	872.878	664.619
290.730	20.561	872.423	664.669
291.745	20.428	872.039	663.809
292.760	20.623	871.285	663.920
293.774	20.908	870.670	664.480
294.789	20.868	869.467	663.349
295.803	20.596	869.061	661.947
296.818	20.449	868.401	660.824
297.833	20.529	867.595	660.458
298.847	20.476	867.449	660.086
299.862	20.516	867.123	659.934
300.876	20.561	866.586	659.636
301.891	20.899	865.749	660.222
302.906	20.894	865.608	660.036
303.920	21.196	865.145	660.770
304.935	21.148	864.767	660.240
305.949	21.015	863.878	658.998
306.964	20.900	862.871	657.738
307.979	20.885	862.435	657.291
308.993	21.051	862.167	657.655
310.008	21.202	861.155	657.393
311.022	20.912	860.654	655.861
312.037	20.673	860.438	654.740
313.052	20.646	859.213	653.649
314.066	20.436	858.410	652.191
315.081	20.396	858.123	651.764
316.095	20.509	857.468	651.633
317.110	20.467	856.871	650.966
318.125	20.557	856.300	650.811
319.139	20.404	855.996	649.951
320.154	20.553	855.368	649.972
321.168	20.646	854.913	649.916
322.183	20.825	854.588	650.280
323.197	20.630	854.244	649.233
324.212	20.700	853.755	649.066
325.227	20.769	852.499	648.313
326.241	20.579	852.573	647.601
327.256	20.720	851.518	647.268
328.270	20.651	850.821	646.426
329.285	20.508	850.596	645.665
330.300	20.726	849.353	645.471
331.314	20.670	849.611	645.404
332.329	20.859	849.356	645.852
333.343	20.889	848.695	645.404
334.358	21.010	848.088	645.333
335.373	21.007	847.964	645.170
336.387	20.995	847.722	644.887
337.402	21.018	847.706	644.904
338.416	21.256	847.422	645.508
339.431	21.394	847.159	645.759
340.446	21.471	846.569	645.537
341.460	21.436	846.338	645.175
342.475	21.627	845.779	645.395
343.489	21.510	845.488	644.686
344.504	21.653	845.119	644.875
345.519	21.636	844.688	644.428
346.533	21.551	844.088	643.600
347.548	21.435	842.950	642.246
348.562	21.156	842.040	640.476
349.577	20.988	841.829	639.641
350.592	20.964	841.203	639.020
351.606	20.938	840.349	638.220
352.621	21.105	839.406	638.060
353.635	21.149	839.007	637.861
354.650	21.143	838.248	637.205
355.665	21.210	837.947	637.165
356.679	21.318	837.541	637.191
357.694	21.309	836.637	636.415
358.708	21.267	835.840	635.600
359.723	21.245	835.516	635.216
360.738	21.434	834.756	635.272
361.752	21.391	834.307	634.717
362.767	21.561	833.809	634.899
363.781	21.611	833.627	634.884
364.796	21.777	833.517	635.346
365.810	21.722	833.548	635.115
366.825	21.821	832.716	634.783
367.840	21.702	832.057	633.793
368.854	21.869	831.118	633.624
369.869	21.557	830.900	632.275
370.883	21.768	830.622	632.768
371.898	21.811	830.697	632.925
372.913	21.921	830.033	632.761
373.927	21.805	829.153	631.616
374.942	21.903	828.565	631.465
375.956	21.928	828.234	631.246
376.971	21.986	828.153	631.339
377.986	22.269	827.372	631.703
379.000	22.167	826.918	630.936
380.015	22.199	826.480	630.659
381.029	22.096	825.755	629.682
382.044	22.114	825.235	629.293
383.059	22.260	824.610	629.284
384.073	22.098	823.819	628.045
385.088	21.809	823.355	626.605
386.102	21.689	822.806	625.701
387.117	21.650	822.008	624.902
388.132	21.710	821.576	624.729
389.146	21.767	820.797	624.284
390.161	22.057	820.766	625.241
391.175	22.019	820.311	624.703
392.190	21.804	819.714	623.427
393.205	21.887	818.658	622.866
394.219	21.677	818.749	622.133
395.234	21.556	818.427	621.402
396.248	21.455	818.012	620.676
397.263	21.610	816.763	620.221
398.278	21.515	816.529	619.653
399.292	21.595	816.189	619.624
400.307	21.439	816.017	618.886
401.321	21.610	815.270	618.870
402.336	21.702	814.740	618.738
403.350	21.815	814.820	619.142
404.365	21.980	814.465	619.401
405.380	22.232	814.031	619.904
406.394	22.162	813.749	619.388
407.409	22.321	813.049	619.359
408.423	22.426	812.930	619.584
409.438	22.622	812.335	619.765
410.453	22.456	812.219	619.037
411.467	22.531	811.594	618.770
412.482	22.603	811.450	618.856
413.496	22.738	811.067	618.985
414.511	22.639	810.551	618.188
415.526	22.448	809.980	617.029
416.540	22.429	809.306	616.394
417.555	22.389	808.958	615.937
418.569	22.498	808.409	615.844
419.584	22.555	808.117	615.766
420.599	22.603	807.783	615.625
421.613	163.378	1370.652	1794.308
422.628	142.199	1452.654	1794.402
