DTS Sentinel unit serial number:	SN413079Multiplexer serial number:	ORYXHardware model number:	OX4-SRSoftware version number:	ORYX F/W v4.00 Oryx Data Collector v3.7.2.0data status	okinstallation	princeton_trtdifferential loss correction	single-endedforward channel	channel 1reverse channel	N/Adate	2019/09/13time	16:18:35forward acquisition time	60.00reverse acquisition time	0.00gamma	496.2192k internal	0.2304k external	0.2304temperature offset calibration	1.0161default loss term (dB/km)	0.3790temperature slope calibration	1.0000multiplexer offset coefficient	1.0000multiplexer slope coefficient	1.0000fibre end	0.00T internal ref (°C)	34.94T ext. ref 1 (°C)	4.84T ext. ref 2 (°C)	31.38length (m)	temperature (°C)	Stokes	anti-Stokes-747.200	241.508	-0.084	-0.142
-746.185	800.000	0.111	0.313
-745.171	9.106	0.332	0.256
-744.156	-18.565	-0.157	0.100
-743.142	-27.946	0.085	0.050
-742.127	21.960	-0.067	0.055
-741.112	-167.488	-0.198	0.008
-740.098	-25.325	-0.235	0.142
-739.083	-96.664	-0.369	0.099
-738.069	154.347	-0.059	-0.083
-737.054	-51.561	-0.144	-0.068
-736.039	123.367	-0.098	-0.125
-735.025	123.266	-0.042	-0.053
-734.010	-84.377	0.103	-0.033
-732.996	-137.317	0.137	0.016
-731.981	678.741	-0.072	-0.190
-730.966	800.000	-0.069	0.290
-729.952	-88.791	0.296	-0.089
-728.937	-29.569	0.218	0.127
-727.923	-200.000	0.027	-0.196
-726.908	635.228	-0.050	-0.129
-725.894	26.086	-0.231	0.196
-724.879	147.965	-0.109	0.150
-723.864	54.457	-0.238	-0.233
-722.850	12.056	-0.090	0.070
-721.835	260.194	0.214	0.377
-720.821	-88.858	0.088	0.026
-719.806	800.000	0.013	0.049
-718.791	777.041	-0.074	-0.206
-717.777	-188.245	-0.419	-0.005
-716.762	513.166	-0.061	0.144
-715.748	-200.000	-0.009	0.129
-714.733	64.715	0.123	0.126
-713.718	62.114	0.363	0.368
-712.704	-28.220	0.092	-0.054
-711.689	-200.000	0.005	0.111
-710.675	167.073	0.107	0.154
-709.660	800.000	-0.012	0.051
-708.645	-79.264	0.088	0.030
-707.631	-200.000	-0.048	0.256
-706.616	-107.854	0.272	-0.060
-705.602	800.000	0.020	-0.062
-704.587	-22.360	-0.209	-0.129
-703.572	800.000	-0.073	-0.246
-702.558	116.192	-0.174	-0.216
-701.543	128.619	-0.087	-0.112
-700.529	-200.000	-0.017	-0.177
-699.514	-33.939	-0.400	0.224
-698.499	100.240	-0.039	0.046
-697.485	800.000	-0.017	0.074
-696.470	562.362	-0.079	0.195
-695.456	243.039	-0.210	0.357
-694.441	33.456	-0.120	0.106
-693.426	-114.264	0.317	0.062
-692.412	710.242	-0.049	0.131
-691.397	61.846	0.243	-0.246
-690.383	-62.350	0.030	0.013
-689.368	-79.282	-0.358	0.123
-688.354	-90.684	0.202	0.059
-687.339	144.347	-0.310	-0.420
-686.324	463.531	0.086	0.196
-685.310	-81.179	0.170	-0.057
-684.295	383.062	0.066	0.138
-683.281	508.092	-0.087	0.205
-682.266	-200.000	-0.024	0.182
-681.251	10.709	0.181	0.140
-680.237	-154.915	-0.433	0.029
-679.222	37.821	-0.040	0.036
-678.208	89.221	-0.247	-0.280
-677.193	545.860	0.064	-0.155
-676.178	-163.290	-0.439	-0.021
-675.164	-23.698	-0.289	-0.176
-674.149	-200.000	0.018	-0.269
-673.135	-200.000	0.004	0.300
-672.120	17.142	0.207	0.167
-671.105	-176.213	-0.304	-0.008
-670.091	-56.749	-0.066	-0.030
-669.076	795.129	-0.103	0.287
-668.062	-35.082	-0.035	0.019
-667.047	78.240	-0.035	0.038
-666.032	151.963	-0.074	0.102
-665.018	800.000	-0.103	-0.386
-664.003	18.009	-0.119	0.096
-662.989	128.984	0.059	0.077
-661.974	-77.794	-0.181	-0.063
-660.959	446.760	-0.013	-0.029
-659.945	-3.528	-0.126	-0.089
-658.930	-44.242	-0.191	-0.097
-657.916	289.514	0.161	-0.297
-656.901	-122.459	-0.191	0.032
-655.886	-12.673	0.101	-0.067
-654.872	-106.666	0.290	-0.065
-653.857	-200.000	0.009	0.211
-652.843	433.344	-0.122	-0.269
-651.828	800.000	0.049	-0.172
-650.814	-200.000	-0.006	0.034
-649.799	263.654	-0.115	0.203
-648.784	-200.000	0.019	-0.315
-647.770	159.772	0.163	0.230
-646.755	213.599	-0.053	0.084
-645.741	-200.000	-0.048	-0.355
-644.726	-118.331	-0.251	-0.045
-643.711	215.945	-0.194	0.313
-642.697	-82.481	0.470	0.155
-641.682	160.775	-0.188	0.266
-640.668	-98.667	-0.360	-0.093
-639.653	479.592	-0.094	-0.216
-638.638	356.373	0.089	-0.179
-637.624	800.000	0.026	-0.089
-636.609	54.285	-0.077	0.075
-635.595	-200.000	-0.000	-0.327
-634.580	402.081	-0.053	0.113
-633.565	197.896	0.135	0.209
-632.551	-200.000	0.024	-0.233
-631.536	193.756	-0.218	0.334
-630.522	-35.860	0.288	-0.158
-629.507	-111.839	-0.162	0.033
-628.492	-42.685	-0.072	0.037
-627.478	-114.884	0.014	0.003
-626.463	-16.596	-0.283	0.182
-625.449	147.974	0.163	0.223
-624.434	794.446	-0.103	0.289
-623.419	-123.438	-0.252	-0.041
-622.405	147.539	-0.058	0.079
-621.390	-28.802	-0.103	0.060
-620.376	800.000	-0.116	0.365
-619.361	-151.342	0.383	-0.029
-618.346	-200.000	-0.034	0.395
-617.332	55.755	-0.143	0.140
-616.317	-64.463	0.125	0.051
-615.303	-141.453	0.160	-0.016
-614.288	800.000	0.141	0.438
-613.273	-128.652	-0.170	-0.024
-612.259	-56.564	0.234	-0.105
-611.244	-4.871	0.356	-0.248
-610.230	-142.064	-0.322	-0.032
-609.215	119.026	-0.014	-0.017
-608.201	31.125	0.013	0.011
-607.186	-20.490	-0.088	0.055
-606.171	-200.000	-0.029	-0.199
-605.157	-40.581	-0.207	0.109
-604.142	800.000	0.007	0.026
-603.128	-110.632	-0.198	-0.042
-602.113	208.749	-0.092	0.145
-601.098	-200.000	-0.035	-0.156
-600.084	-93.699	0.135	-0.038
-599.069	349.397	0.145	-0.290
-598.055	340.844	0.136	-0.270
-597.040	365.335	-0.009	0.019
-596.025	44.938	0.159	-0.149
-595.011	-87.509	0.172	0.053
-593.996	-183.181	0.129	0.002
-592.982	-14.969	-0.219	0.142
-591.967	12.290	0.117	0.091
-590.952	-173.639	0.227	0.007
-589.938	-129.883	0.269	-0.037
-588.923	-2.407	0.265	-0.188
-587.909	-200.000	-0.039	0.292
-586.894	-133.655	-0.283	-0.036
-585.879	189.318	-0.296	-0.448
-584.865	-58.102	-0.293	-0.129
-583.850	60.430	0.198	0.198
-582.836	-153.080	0.356	-0.025
-581.821	111.106	-0.083	-0.101
-580.806	800.000	-0.040	0.138
-579.792	800.000	0.115	0.461
-578.777	-171.973	0.313	0.010
-577.763	-200.000	-0.026	-0.225
-576.748	-3.416	-0.145	0.102
-575.733	598.313	-0.013	-0.032
-574.719	-87.160	0.351	0.108
-573.704	8.650	-0.227	-0.173
-572.690	745.009	0.040	-0.109
-571.675	120.155	0.138	-0.173
-570.661	289.510	0.116	0.213
-569.646	32.707	0.324	-0.283
-568.631	222.098	0.047	0.076
-567.617	-142.881	0.250	-0.025
-566.602	5.572	0.124	-0.093
-565.588	-125.133	0.243	-0.038
-564.573	-200.000	0.058	-0.272
-563.558	17.921	0.036	-0.029
-562.544	-23.518	-0.321	-0.195
-561.529	-126.771	-0.160	-0.024
-560.515	-130.171	-0.085	-0.012
-559.500	-45.870	-0.089	-0.044
-558.485	-200.000	-0.026	0.238
-557.471	95.740	0.199	-0.230
-556.456	58.710	0.062	-0.061
-555.442	309.100	0.022	0.042
-554.427	-200.000	-0.010	0.082
-553.412	77.017	-0.177	0.190
-552.398	-12.091	-0.260	0.172
-551.383	151.244	0.072	0.099
-550.369	-56.730	-0.077	0.034
-549.354	399.999	-0.107	0.227
-548.339	508.006	-0.085	0.200
-547.325	127.851	-0.101	-0.130
-546.310	800.000	-0.079	-0.243
-545.296	631.535	0.099	-0.255
-544.281	800.000	-0.077	0.298
-543.266	57.585	-0.266	0.262
-542.252	-74.623	0.097	-0.035
-541.237	-200.000	0.051	-0.520
-540.223	234.312	-0.085	-0.142
-539.208	-110.238	-0.088	-0.019
-538.193	540.815	0.006	0.014
-537.179	4.538	0.327	0.243
-536.164	-67.502	0.039	0.016
-535.150	-114.925	-0.288	-0.055
-534.135	14.980	0.108	-0.086
-533.121	-200.000	0.068	-0.410
-532.106	434.019	0.043	-0.095
-531.091	64.199	-0.068	-0.069
-530.077	-85.790	0.116	-0.036
-529.062	-101.593	-0.140	0.034
-528.048	21.403	0.100	-0.082
-527.033	135.783	0.323	0.425
-526.018	-78.211	-0.147	-0.051
-525.004	-158.529	-0.528	-0.031
-523.989	85.816	0.232	-0.257
-522.975	402.941	-0.104	-0.221
-521.960	99.626	0.116	-0.136
-520.945	22.628	0.047	0.039
-519.931	-114.906	-0.141	-0.027
-518.916	92.663	0.100	0.113
-517.902	54.265	-0.072	-0.070
-516.887	-53.554	-0.122	-0.056
-515.872	-42.251	0.127	-0.066
-514.858	-182.291	-0.226	0.004
-513.843	-138.793	-0.205	0.023
-512.829	-92.282	-0.334	-0.095
-511.814	-91.329	-0.046	-0.013
-510.799	98.933	0.192	-0.223
-509.785	706.953	0.058	0.154
-508.770	-200.000	-0.030	-0.176
-507.756	-198.397	-0.161	0.001
-506.741	527.064	-0.017	0.041
-505.726	-200.000	0.007	-0.043
-504.712	-92.072	-0.557	0.159
-503.697	800.000	-0.053	-0.188
-502.683	800.000	-0.164	-0.470
-501.668	96.985	-0.067	0.078
-500.653	-89.114	0.165	0.049
-499.639	-66.531	-0.272	-0.109
-498.624	162.110	-0.102	-0.144
-497.610	-75.258	0.092	-0.033
-496.595	-200.000	-0.015	0.282
-495.581	-49.606	0.264	0.127
-494.566	158.151	0.174	0.244
-493.551	-35.045	-0.157	0.086
-492.537	-200.000	-0.010	0.118
-491.522	-86.399	0.354	-0.110
-490.508	-86.586	0.202	-0.062
-489.493	-11.700	-0.230	0.152
-488.478	-36.516	0.353	-0.192
-487.464	32.704	0.074	-0.065
-486.449	219.374	-0.236	-0.381
-485.435	-70.876	-0.198	0.075
-484.420	-166.867	0.181	0.008
-483.405	-175.263	-0.263	0.007
-482.391	401.357	-0.140	0.296
-481.376	90.168	0.099	0.112
-480.362	-200.000	0.004	0.175
-479.347	-154.570	-0.315	-0.021
-478.332	-161.773	0.317	-0.016
-477.318	-200.000	0.009	0.148
-476.303	800.000	-0.099	0.326
-475.289	497.130	-0.143	-0.331
-474.274	-190.069	-0.113	0.001
-473.259	800.000	0.016	-0.057
-472.245	-200.000	0.007	-0.146
-471.230	64.032	0.300	-0.304
-470.216	100.929	-0.169	0.198
-469.201	-61.612	0.135	-0.057
-468.186	-156.000	-0.122	-0.008
-467.172	292.056	-0.040	0.073
-466.157	605.929	0.100	0.251
-465.143	800.000	-0.024	0.105
-464.128	353.852	0.102	-0.204
-463.113	-135.416	-0.112	-0.013
-462.099	-38.505	0.321	-0.171
-461.084	-61.167	-0.118	0.050
-460.070	-108.845	0.350	0.075
-459.055	139.783	-0.067	0.089
-458.040	42.451	0.134	-0.122
-457.026	66.870	0.221	0.226
-456.011	-135.733	-0.065	0.008
-454.997	-102.903	0.171	-0.041
-453.982	63.580	-0.049	-0.050
-452.968	-200.000	0.008	-0.201
-451.953	-200.000	0.003	-0.037
-450.938	-200.000	-0.020	-0.437
-449.924	-67.249	-0.429	0.170
-448.909	-89.436	-0.088	-0.026
-447.895	-36.205	0.249	0.135
-446.880	-42.812	-0.116	0.060
-445.865	595.522	-0.030	-0.074
-444.851	-180.619	-0.343	-0.007
-443.836	800.000	-0.085	-0.359
-442.822	-200.000	-0.051	-0.350
-441.807	800.000	-0.129	0.370
-440.792	-123.937	0.244	-0.039
-439.778	38.403	0.063	-0.056
-438.763	-15.730	0.199	0.128
-437.749	-171.959	-0.125	0.004
-436.734	161.326	-0.167	-0.235
-435.719	-85.335	-0.275	-0.086
-434.705	-90.013	-0.219	0.064
-433.690	-107.738	-0.222	0.049
-432.676	-145.545	0.236	0.021
-431.661	800.000	-0.053	-0.181
-430.646	107.823	0.276	-0.330
-429.632	481.172	-0.081	0.185
-428.617	34.839	0.190	0.167
-427.603	-23.048	0.228	0.138
-426.588	-103.269	0.182	0.043
-425.573	248.832	0.074	-0.126
-424.559	-200.000	-0.005	0.227
-423.544	31.340	0.212	-0.183
-422.530	338.341	-0.084	-0.164
-421.515	800.000	-0.147	-0.602
-420.500	-11.063	-0.238	-0.158
-419.486	14.866	0.238	0.187
-418.471	393.365	-0.069	-0.144
-417.457	209.698	-0.174	-0.274
-416.442	-200.000	0.025	-0.150
-415.428	-103.896	-0.540	-0.127
-414.413	308.880	0.089	0.167
-413.398	32.831	-0.193	0.168
-412.384	744.436	0.157	-0.426
-411.369	-200.000	-0.013	-0.297
-410.355	242.278	0.068	0.114
-409.340	342.577	0.113	-0.221
-408.325	569.173	-0.040	0.098
-407.311	-156.700	0.247	-0.015
-406.296	411.235	0.064	-0.137
-405.282	-96.624	-0.282	-0.075
-404.267	409.235	-0.120	0.255
-403.252	-144.173	0.247	-0.023
-402.238	-69.483	0.357	-0.137
-401.223	36.564	0.136	0.121
-400.209	-91.701	-0.104	-0.030
-399.194	-75.067	-0.269	-0.097
-398.179	3.049	0.127	0.093
-397.165	368.098	-0.058	0.117
-396.150	-200.000	-0.030	-0.265
-395.136	-87.047	-0.157	0.048
-394.121	493.942	-0.054	-0.123
-393.106	-184.799	-0.366	-0.006
-392.092	367.574	-0.023	0.047
-391.077	-200.000	0.032	-0.169
-390.063	151.510	0.101	0.138
-389.048	-70.807	-0.081	-0.031
-388.033	-75.308	0.472	0.169
-387.019	66.278	-0.035	0.036
-386.004	25.511	0.115	0.096
-384.990	800.000	0.091	-0.301
-383.975	-71.344	-0.254	0.095
-382.960	296.698	-0.090	-0.166
-381.946	118.431	-0.117	0.145
-380.931	-200.000	0.009	0.114
-379.917	-200.000	-0.040	-0.357
-378.902	-66.895	-0.206	-0.082
-377.888	87.402	-0.071	-0.079
-376.873	-200.000	0.066	-0.426
-375.858	57.312	0.209	0.205
-374.844	-83.857	0.356	-0.114
-373.829	-76.910	0.290	-0.102
-372.815	-130.344	-0.089	-0.012
-371.800	383.324	0.114	0.236
-370.785	800.000	0.084	0.282
-369.771	51.948	0.148	0.142
-368.756	800.000	0.009	0.026
-367.742	-153.347	-0.097	-0.007
-366.727	87.919	0.144	0.161
-365.712	-200.000	0.008	0.102
-364.698	-142.354	-0.217	0.021
-363.683	-111.116	0.173	0.036
-362.669	-57.080	-0.276	0.122
-361.654	800.000	-0.055	0.163
-360.639	800.000	0.064	0.250
-359.625	68.170	0.105	-0.107
-358.610	322.180	-0.086	-0.165
-357.596	-49.195	0.365	0.175
-356.581	631.722	-0.053	-0.135
-355.566	2.975	0.236	-0.172
-354.552	-148.468	0.297	-0.024
-353.537	46.591	0.220	0.205
-352.523	-200.000	0.010	0.223
-351.508	-200.000	-0.039	0.435
-350.493	41.937	-0.062	-0.056
-349.479	-38.293	0.178	0.095
-348.464	-200.000	0.022	0.328
-347.450	-125.262	0.277	-0.042
-346.435	-78.080	0.256	-0.088
-345.420	-200.000	-0.014	0.190
-344.406	-108.516	0.028	0.006
-343.391	200.920	-0.190	0.293
-342.377	127.678	-0.126	-0.160
-341.362	-200.000	-0.049	-0.309
-340.348	-164.956	0.025	0.001
-339.333	800.000	-0.054	0.227
-338.318	629.396	-0.079	-0.199
-337.304	169.436	0.095	-0.137
-336.289	-6.497	0.216	0.148
-335.275	381.875	0.172	0.354
-334.260	95.742	-0.159	0.181
-333.245	-200.000	0.031	0.174
-332.231	-200.000	0.026	-0.163
-331.216	-64.954	0.265	-0.107
-330.202	303.843	-0.070	-0.131
-329.187	184.534	-0.168	0.250
-328.172	595.288	0.067	-0.167
-327.158	-200.000	0.025	-0.203
-326.143	800.000	0.066	0.262
-325.129	-200.000	-0.028	0.193
-324.114	178.424	-0.177	0.258
-323.099	-200.000	0.005	0.168
-322.085	-76.620	-0.357	-0.125
-321.070	-85.447	-0.378	0.118
-320.056	195.953	-0.078	-0.119
-319.041	84.780	-0.072	-0.079
-318.026	672.448	-0.103	0.267
-317.012	-146.548	-0.207	-0.018
-315.997	55.074	-0.212	0.205
-314.983	1.595	0.042	-0.030
-313.968	122.534	-0.127	0.159
-312.953	-200.000	-0.004	-0.277
-311.939	76.270	0.057	-0.061
-310.924	-111.086	0.266	0.055
-309.910	367.889	0.093	0.187
-308.895	71.747	-0.098	0.102
-307.880	150.674	-0.154	0.209
-306.866	-99.251	0.069	-0.017
-305.851	-200.000	0.008	-0.325
-304.837	-97.219	-0.413	0.108
-303.822	-200.000	-0.042	-0.364
-302.807	-87.667	-0.070	-0.021
-301.793	800.000	0.014	0.059
-300.778	167.507	0.020	0.029
-299.764	197.755	0.089	-0.136
-298.749	84.875	0.221	-0.243
-297.735	216.282	0.086	0.136
-296.720	-147.927	0.269	0.022
-295.705	22.659	-0.319	-0.261
-294.691	-27.404	0.191	-0.111
-293.676	-32.807	0.157	-0.087
-292.662	197.741	-0.152	-0.233
-291.647	-200.000	0.001	0.277
-290.632	-200.000	0.002	-0.279
-289.618	-120.224	-0.105	-0.018
-288.603	570.301	0.117	0.286
-287.589	7.295	0.266	0.199
-286.574	-167.320	0.270	0.011
-285.559	-99.029	0.360	-0.091
-284.545	800.000	0.049	0.170
-283.530	-16.952	-0.345	-0.218
-282.516	-200.000	0.024	-0.197
-281.501	15.266	0.162	0.127
-280.486	-113.296	-0.250	-0.049
-279.472	-153.030	0.197	-0.014
-278.457	-27.525	-0.213	-0.124
-277.443	800.000	-0.036	0.155
-276.428	-147.707	-0.279	-0.023
-275.413	138.514	0.261	-0.343
-274.399	-21.269	-0.291	0.178
-273.384	-200.000	0.020	0.127
-272.370	-150.913	-0.172	-0.013
-271.355	184.191	-0.133	0.197
-270.340	-99.163	-0.059	-0.015
-269.326	-47.073	0.251	-0.123
-268.311	-169.626	0.259	0.009
-267.297	-200.000	0.022	-0.127
-266.282	120.091	-0.151	0.188
-265.267	-35.141	-0.157	-0.085
-264.253	335.763	0.078	-0.152
-263.238	578.818	0.145	0.354
-262.224	-200.000	0.061	0.348
-261.209	-200.000	0.001	-0.017
-260.195	-14.484	-0.113	0.072
-259.180	-33.792	0.168	-0.092
-258.165	-109.059	-0.200	-0.043
-257.151	71.607	0.240	0.249
-256.136	-123.164	0.128	0.021
-255.122	-95.598	-0.446	0.119
-254.107	-200.000	-0.007	-0.121
-253.092	-69.374	-0.104	0.040
-252.078	24.402	-0.325	-0.269
-251.063	-62.324	-0.153	0.064
-250.049	-40.921	0.281	0.145
-249.034	611.277	0.068	0.170
-248.019	-52.167	-0.107	-0.050
-247.005	-108.788	0.048	-0.010
-245.990	-99.516	-0.150	0.038
-244.976	-92.334	-0.178	0.050
-243.961	19.429	0.107	-0.086
-242.946	-200.000	0.012	0.071
-241.932	-70.328	-0.273	0.104
-240.917	-102.029	0.582	-0.140
-239.903	-41.136	-0.150	-0.077
-238.888	38.928	-0.214	-0.191
-237.873	-102.876	-0.303	-0.072
-236.859	-114.148	-0.096	-0.019
-235.844	-200.000	0.018	-0.252
-234.830	113.784	-0.152	0.184
-233.815	558.495	0.105	0.253
-232.800	625.526	-0.109	-0.274
-231.786	73.753	-0.147	0.154
-230.771	-129.761	-0.046	-0.006
-229.757	-73.231	-0.040	-0.015
-228.742	206.162	0.168	0.260
-227.727	800.000	-0.094	0.329
-226.713	757.024	-0.080	0.215
-225.698	-23.288	0.187	-0.112
-224.684	212.671	-0.078	0.123
-223.669	141.518	0.068	0.090
-222.655	292.245	0.035	0.063
-221.640	59.949	0.112	-0.111
-220.625	-150.340	0.186	-0.014
-219.611	-146.244	-0.458	0.040
-218.596	497.897	-0.059	0.135
-217.582	479.087	-0.123	-0.277
-216.567	800.000	0.087	-0.295
-215.552	-49.611	0.286	0.136
-214.538	-200.000	-0.019	0.105
-213.523	41.675	-0.150	0.135
-212.509	-138.321	0.216	0.024
-211.494	200.277	-0.278	0.426
-210.479	765.568	-0.036	0.097
-209.465	339.942	-0.096	0.187
-208.450	800.000	-0.025	-0.108
-207.436	-200.000	0.007	0.123
-206.421	65.390	0.122	-0.123
-205.406	-165.398	-0.331	0.014
-204.392	-7.350	0.211	0.142
-203.377	-17.964	-0.150	-0.094
-202.363	800.000	-0.061	0.203
-201.348	-107.183	0.247	-0.054
-200.333	39.746	0.147	-0.132
-199.319	118.046	0.152	0.187
-198.304	-160.034	0.151	-0.008
-197.290	-200.000	-0.004	-0.220
-196.275	-162.246	-0.180	-0.009
-195.260	-200.000	-0.022	-0.109
-194.246	-200.000	-0.020	0.186
-193.231	-95.183	0.261	-0.070
-192.217	800.000	0.090	0.310
-191.202	-151.130	0.321	-0.024
-190.187	-23.253	0.196	0.118
-189.173	16.393	-0.159	0.125
-188.158	55.966	0.249	-0.240
-187.144	-50.385	-0.248	-0.116
-186.129	-139.695	0.415	0.044
-185.114	-27.494	-0.297	0.172
-184.100	-40.778	-0.164	0.085
-183.085	-200.000	-0.011	-0.215
-182.071	110.346	-0.119	0.142
-181.056	-21.487	-0.303	0.184
-180.042	-37.124	-0.328	-0.175
-179.027	34.712	0.116	0.101
-178.012	-102.871	0.377	-0.089
-176.998	-200.000	0.041	-0.320
-175.983	78.656	0.106	0.113
-174.969	-151.731	-0.348	-0.025
-173.954	18.438	-0.075	0.060
-172.939	-111.319	0.186	0.038
-171.925	-127.735	0.129	0.018
-170.910	3.699	-0.507	-0.368
-169.896	70.060	0.366	0.376
-168.881	153.027	0.095	0.129
-167.866	-200.000	0.007	0.240
-166.852	-78.735	0.314	0.107
-165.837	-70.821	-0.142	-0.054
-164.823	-23.232	0.331	0.198
-163.808	530.307	-0.126	-0.297
-162.793	-26.110	0.258	-0.151
-161.779	-200.000	-0.001	-0.159
-160.764	-19.097	0.227	0.140
-159.750	-66.379	-0.249	0.099
-158.735	-8.133	-0.145	-0.097
-157.720	-164.174	0.163	-0.007
-156.706	-200.000	0.044	-0.426
-155.691	-157.724	0.395	-0.023
-154.677	-200.000	-0.007	-0.152
-153.662	16.880	0.023	-0.018
-152.647	-37.519	0.337	-0.179
-151.633	-102.872	-0.263	0.062
-150.618	800.000	0.054	0.180
-149.604	-36.108	-0.183	0.098
-148.589	51.786	0.069	-0.066
-147.574	-115.124	0.052	-0.010
-146.560	-169.492	-0.093	-0.003
-145.545	-42.442	0.048	-0.024
-144.531	134.917	-0.021	0.028
-143.516	73.454	0.375	-0.390
-142.502	68.908	-0.057	-0.058
-141.487	-200.000	0.011	-0.123
-140.472	-160.515	-0.303	-0.016
-139.458	-28.967	0.168	0.096
-138.443	194.459	-0.198	0.299
-137.429	117.431	0.083	0.102
-136.414	-100.531	0.132	0.032
-135.399	800.000	-0.033	0.134
-134.385	-29.159	0.150	0.086
-133.370	-84.362	0.117	0.037
-132.356	-150.797	0.096	-0.007
-131.341	800.000	0.035	-0.141
-130.326	34.032	0.152	0.132
-129.312	543.294	-0.081	0.192
-128.297	74.064	0.151	-0.158
-127.283	51.598	0.056	0.052
-126.268	33.695	0.167	-0.145
-125.253	-200.000	-0.005	0.057
-124.239	-158.831	-0.066	0.004
-123.224	71.588	-0.185	-0.191
-122.210	800.000	-0.050	0.175
-121.195	-65.117	0.085	0.034
-120.180	-200.000	0.043	0.374
-119.166	800.000	-0.087	-0.321
-118.151	-38.141	-0.134	-0.071
-117.137	-42.406	0.255	-0.129
-116.122	183.122	-0.116	0.170
-115.107	800.000	0.031	0.090
-114.093	393.685	-0.096	0.199
-113.078	12.823	0.181	0.139
-112.064	104.267	0.267	-0.312
-111.049	22.610	0.300	0.244
-110.034	275.894	-0.072	0.127
-109.020	-45.246	-0.045	-0.022
-108.005	800.000	0.074	-0.314
-106.991	-200.000	0.034	0.213
-105.976	-158.910	-0.030	0.002
-104.962	125.754	0.248	0.311
-103.947	80.461	0.195	0.209
-102.932	-200.000	0.007	-0.268
-101.918	-24.868	-0.225	0.133
-100.903	-95.023	0.217	-0.058
-99.889	400.572	-0.085	0.176
-98.874	11.072	-0.079	0.060
-97.859	-87.454	-0.245	0.074
-96.845	48.768	0.151	-0.140
-95.830	-60.403	0.322	0.136
-94.816	6.651	-0.029	-0.021
-93.801	-200.000	0.039	0.229
-92.786	1.954	0.158	0.113
-91.772	-111.468	0.293	0.059
-90.757	-200.000	0.003	-0.121
-89.743	105.361	-0.213	-0.250
-88.728	800.000	0.147	0.464
-87.713	-61.794	-0.111	0.046
-86.699	307.810	0.101	-0.186
-85.684	-155.948	0.271	0.017
-84.670	-200.000	0.030	0.306
-83.655	800.000	-0.057	0.164
-82.640	-45.664	-0.220	-0.108
-81.626	-43.710	-0.157	0.079
-80.611	56.841	-0.095	-0.092
-79.597	-103.596	-0.123	0.029
-78.582	-200.000	-0.008	0.242
-77.567	800.000	0.005	0.015
-76.553	800.000	0.125	0.454
-75.538	-200.000	-0.027	0.271
-74.524	-56.364	0.288	0.127
-73.509	524.243	0.042	0.098
-72.494	-200.000	0.065	0.319
-71.480	-68.650	0.152	0.058
-70.465	28.635	-0.371	0.312
-69.451	-35.673	-0.293	0.158
-68.436	64.652	0.186	-0.186
-67.422	44.069	0.145	-0.132
-66.407	-83.807	0.057	-0.018
-65.392	392.002	-0.168	-0.347
-64.378	110.134	0.116	0.138
-63.363	112.817	0.167	-0.200
-62.349	-85.910	0.162	0.050
-61.334	62.372	-0.785	-0.777
-60.319	101.100	0.314	0.363
-59.305	800.000	-0.178	-0.616
-58.290	100.034	0.800	0.919
-57.276	239.831	0.959	1.583
-56.261	-200.000	95.165	564.092
-55.246	638.421	1379.872	3477.574
-54.232	187.030	2596.391	3836.141
-53.217	123.281	2185.918	2715.401
-52.203	46.807	1639.110	1509.593
-51.188	38.375	1373.775	1213.161
-50.173	35.103	1331.037	1155.671
-49.159	55.952	1379.740	1326.521
-48.144	60.498	1397.789	1371.711
-47.130	38.671	1352.656	1196.129
-46.115	35.075	1334.419	1158.255
-45.100	34.916	1329.421	1152.912
-44.086	34.754	1327.277	1150.034
-43.071	34.830	1324.573	1148.096
-42.057	34.775	1322.588	1146.003
-41.042	34.874	1320.881	1145.072
-40.027	34.809	1319.432	1143.379
-39.013	34.823	1317.432	1141.687
-37.998	34.843	1315.349	1139.952
-36.984	34.988	1313.355	1139.043
-35.969	34.867	1312.002	1137.104
-34.954	35.080	1310.135	1136.709
-33.940	35.005	1308.842	1135.094
-32.925	34.966	1307.634	1133.770
-31.911	35.078	1305.850	1132.842
-30.896	35.038	1304.825	1131.674
-29.881	35.071	1303.355	1130.546
-28.867	35.064	1301.974	1129.262
-27.852	35.031	1300.327	1127.598
-26.838	35.089	1299.090	1126.819
-25.823	34.999	1297.693	1125.033
-24.809	35.120	1295.924	1124.167
-23.794	34.977	1294.690	1122.212
-22.779	35.028	1293.527	1121.461
-21.765	34.951	1292.550	1120.117
-20.750	35.004	1291.168	1119.185
-19.736	34.972	1289.392	1117.414
-18.721	34.819	1288.755	1115.925
-17.706	34.875	1286.939	1114.635
-16.692	35.029	1285.472	1114.217
-15.677	34.946	1285.105	1113.372
-14.663	34.919	1283.553	1111.823
-13.648	34.849	1282.758	1110.687
-12.633	34.953	1281.422	1110.085
-11.619	34.767	1281.272	1108.832
-10.604	34.749	1280.202	1107.759
-9.590	34.856	1279.089	1107.373
-8.575	34.797	1278.367	1106.361
-7.560	34.861	1277.483	1105.922
-6.546	34.924	1276.078	1105.028
-5.531	34.764	1275.766	1103.791
-4.517	34.822	1274.795	1103.242
-3.502	34.800	1273.508	1101.954
-2.487	34.927	1272.848	1102.074
-1.473	34.966	1269.048	1098.961
-0.458	33.860	1254.350	1079.911
0.556	32.057	1235.240	1038.194
1.571	27.626	1238.674	1016.351
2.586	25.868	1252.092	1017.356
3.600	23.969	1239.611	996.501
4.615	18.153	1166.625	906.990
5.629	9.335	1090.406	803.766
6.644	5.238	1069.015	767.817
7.659	4.901	1065.862	763.835
8.673	4.620	1065.075	761.827
9.688	4.622	1063.621	760.730
10.702	5.384	1062.278	763.423
11.717	10.925	1070.336	796.343
12.731	19.013	1081.630	844.542
13.746	22.132	1084.616	862.127
14.761	21.715	1084.115	859.608
15.775	20.926	1081.823	853.852
16.790	19.806	1080.165	846.985
17.804	19.159	1078.236	842.233
18.819	18.846	1077.479	840.036
19.834	18.684	1076.713	838.573
20.848	18.486	1076.342	837.242
21.863	18.344	1075.070	835.489
22.877	18.112	1074.972	834.207
23.892	18.183	1073.712	833.502
24.907	18.182	1072.532	832.503
25.921	18.196	1071.758	831.898
26.936	18.190	1070.518	830.834
27.950	18.137	1069.297	829.556
28.965	18.306	1067.761	829.110
29.980	18.426	1066.495	828.634
30.994	18.512	1065.078	827.872
32.009	18.505	1064.278	827.145
33.023	18.550	1063.268	826.506
34.038	18.393	1061.756	824.501
35.053	18.245	1061.258	823.327
36.067	18.253	1060.095	822.389
37.082	18.314	1059.390	822.066
38.096	18.392	1058.926	822.005
39.111	18.438	1058.270	821.644
40.126	18.268	1056.350	819.269
41.140	17.989	1055.366	817.100
42.155	17.833	1054.039	815.252
43.169	17.839	1052.789	814.240
44.184	17.878	1051.432	813.308
45.199	17.792	1051.238	812.676
46.213	17.899	1050.305	812.390
47.228	18.291	1048.686	812.929
48.242	18.331	1048.000	812.517
49.257	18.294	1046.889	811.407
50.271	18.321	1046.176	810.909
51.286	18.345	1045.455	810.395
52.301	18.288	1044.264	809.131
53.315	18.074	1043.614	807.543
54.330	18.080	1042.469	806.615
55.344	18.079	1041.551	805.829
56.359	18.039	1040.851	805.024
57.374	17.960	1039.925	803.864
58.388	17.899	1038.928	802.740
59.403	17.933	1038.060	802.157
60.417	17.850	1037.348	801.147
61.432	17.901	1036.383	800.568
62.447	17.748	1035.897	799.405
63.461	17.753	1034.851	798.549
64.476	17.714	1033.542	797.288
65.490	17.687	1032.863	796.568
66.505	17.903	1032.074	796.898
67.520	17.821	1031.501	795.999
68.534	17.820	1030.850	795.426
69.549	17.743	1030.370	794.622
70.563	17.537	1029.802	793.154
71.578	17.564	1028.652	792.326
72.593	17.455	1027.551	790.903
73.607	17.457	1026.912	790.348
74.622	17.433	1026.598	789.928
75.636	17.618	1025.958	790.221
76.651	17.618	1025.225	789.589
77.666	17.554	1024.458	788.630
78.680	17.677	1023.879	788.681
79.695	17.815	1022.729	788.366
80.709	17.998	1022.088	788.645
81.724	18.008	1021.613	788.259
82.739	18.053	1020.965	787.894
83.753	18.221	1020.435	788.190
84.768	18.391	1019.914	788.500
85.782	18.557	1019.308	788.726
86.797	18.519	1018.231	787.649
87.812	18.314	1017.186	785.830
88.826	18.353	1015.868	784.920
89.841	18.289	1015.348	784.157
90.855	18.548	1014.289	784.454
91.870	18.663	1013.811	784.542
92.884	18.278	1013.028	782.107
93.899	18.485	1011.933	782.135
94.914	18.628	1010.809	781.852
95.928	18.499	1010.158	780.691
96.943	18.433	1009.260	779.626
97.957	18.383	1008.454	778.708
98.972	18.299	1007.528	777.542
99.987	18.447	1006.607	777.432
101.001	18.317	1006.191	776.453
102.016	18.431	1004.917	775.918
103.030	18.366	1004.515	775.246
104.045	18.489	1003.629	775.050
105.060	18.302	1002.303	773.110
106.074	17.991	1001.624	771.116
107.089	17.896	1000.240	769.556
108.103	17.809	999.190	768.284
109.118	17.889	997.990	767.656
110.133	17.872	997.144	766.860
111.147	17.763	996.851	766.076
112.162	17.825	995.824	765.499
113.176	18.019	995.253	765.860
114.191	18.046	994.468	765.312
115.206	17.934	994.068	764.436
116.220	17.883	992.713	763.097
117.235	17.864	992.067	762.449
118.249	17.929	991.264	762.051
119.264	17.879	990.129	760.892
120.279	17.841	989.105	759.868
121.293	17.720	988.867	759.078
122.308	17.648	987.943	757.981
123.322	17.647	986.503	756.805
124.337	17.711	985.516	756.264
125.352	17.730	984.420	755.443
126.366	17.674	983.381	754.328
127.381	17.731	982.612	753.924
128.395	17.702	981.775	753.089
129.410	17.836	980.609	752.716
130.424	17.778	979.954	751.894
131.439	18.072	979.039	752.421
132.454	18.075	978.710	752.112
133.468	18.061	977.973	751.419
134.483	18.037	977.406	750.813
135.497	18.114	976.110	750.085
136.512	18.124	974.886	749.123
137.527	18.200	974.097	748.782
138.541	18.133	973.689	748.111
139.556	18.161	973.175	747.774
140.570	18.236	972.715	747.681
141.585	18.424	971.939	747.836
142.600	18.400	971.213	747.109
143.614	18.626	970.321	747.342
144.629	18.476	969.981	746.358
145.643	18.583	968.336	745.492
146.658	18.300	967.968	743.912
147.673	18.303	966.126	742.444
148.687	18.098	965.306	740.860
149.702	17.988	964.796	739.930
150.716	17.973	963.736	738.984
151.731	18.006	963.243	738.682
152.746	18.015	962.288	737.923
153.760	18.162	961.879	738.180
154.775	18.223	961.495	738.083
155.789	18.448	960.332	738.097
156.804	18.315	960.016	737.215
157.819	18.337	959.422	736.787
158.833	18.524	958.908	737.131
159.848	18.624	958.132	736.897
160.862	18.454	957.146	735.346
161.877	18.250	955.583	733.206
162.892	18.122	954.717	731.931
163.906	18.075	953.456	730.697
164.921	18.173	953.006	730.708
165.935	18.272	951.837	730.167
166.950	18.342	950.848	729.641
167.964	18.251	950.285	728.760
168.979	18.181	949.074	727.466
169.994	18.324	947.957	727.154
171.008	18.308	947.529	726.696
172.023	18.342	947.445	726.709
173.037	18.555	946.457	726.790
174.052	18.520	945.710	726.003
175.067	18.219	944.833	723.991
176.081	18.184	944.276	723.353
177.096	18.157	943.781	722.799
178.110	18.152	943.247	722.303
179.125	18.210	942.614	721.998
180.140	18.291	942.006	721.812
181.154	18.426	941.915	722.248
182.169	18.521	941.578	722.326
183.183	18.538	940.754	721.700
184.198	18.540	939.818	720.927
185.213	18.539	939.283	720.448
186.227	18.661	938.151	720.028
187.242	18.714	937.848	719.956
188.256	18.832	937.094	719.807
189.271	18.932	935.931	719.267
190.286	18.369	935.662	716.641
191.300	18.000	934.290	713.988
192.315	18.067	933.834	713.855
193.329	18.024	933.659	713.479
194.344	18.244	932.909	713.758
195.359	18.425	931.839	713.630
196.373	18.513	931.533	713.701
197.388	18.667	931.564	714.302
198.402	18.781	931.151	714.398
199.417	18.831	930.459	714.011
200.432	18.976	930.046	714.230
201.446	18.872	929.889	713.617
202.461	19.136	928.843	713.847
203.475	19.033	927.793	712.551
204.490	18.936	927.292	711.699
205.504	18.678	926.258	709.774
206.519	18.838	925.420	709.732
207.534	18.622	924.961	708.425
208.548	18.742	924.264	708.326
209.563	18.837	923.227	707.856
210.577	18.910	922.674	707.672
211.592	18.924	922.282	707.365
212.607	19.002	921.516	707.035
213.621	18.912	921.022	706.225
214.636	18.798	920.193	705.061
215.650	19.000	919.387	705.209
216.665	19.169	918.885	705.452
217.680	19.126	918.553	704.957
218.694	19.121	917.686	704.209
219.709	19.111	917.347	703.847
220.723	19.144	916.183	703.027
221.738	18.969	915.587	701.795
222.753	18.984	914.879	701.248
223.767	19.122	914.108	701.157
224.782	19.330	913.798	701.706
225.796	19.295	913.561	701.321
226.811	19.312	912.492	700.506
227.826	19.045	911.760	698.797
228.840	19.029	910.861	697.981
229.855	19.009	910.389	697.476
230.869	19.155	909.056	696.984
231.884	18.904	909.037	695.895
232.899	18.947	908.115	695.300
233.913	18.829	907.227	694.080
234.928	18.840	906.633	693.611
235.942	18.901	905.830	693.182
236.957	18.830	905.595	692.653
237.972	18.886	904.768	692.185
238.986	18.898	903.961	691.555
240.001	18.868	903.788	691.240
241.015	18.944	903.388	691.179
242.030	19.006	902.724	690.860
243.045	19.080	902.174	690.671
244.059	19.101	901.352	690.069
245.074	19.237	901.139	690.388
246.088	19.314	900.024	689.779
247.103	19.425	899.406	689.691
248.117	19.491	899.322	689.828
249.132	19.719	898.666	690.177
250.147	19.796	898.414	690.225
251.161	20.055	897.334	690.370
252.176	19.910	896.986	689.462
253.190	19.987	896.434	689.285
254.205	19.952	895.894	688.668
255.220	20.006	894.711	687.912
256.234	19.659	894.873	686.596
257.249	20.081	893.485	687.147
258.263	19.833	892.990	685.720
259.278	19.872	892.581	685.499
260.293	20.117	891.745	685.769
261.307	20.094	891.227	685.217
262.322	20.074	890.662	684.643
263.336	20.157	890.008	684.408
264.351	20.150	888.666	683.287
265.366	20.078	888.474	682.794
266.380	20.068	888.139	682.438
267.395	19.886	887.213	680.952
268.409	19.970	886.148	680.403
269.424	19.789	885.671	679.267
270.439	19.936	884.550	678.924
271.453	19.870	883.845	678.063
272.468	19.897	883.367	677.742
273.482	19.903	882.850	677.311
274.497	19.745	882.732	676.540
275.512	19.806	881.884	676.069
276.526	19.856	881.770	676.118
277.541	19.959	881.100	675.945
278.555	19.949	880.723	675.558
279.570	20.317	879.992	676.373
280.585	20.098	879.194	674.844
281.599	19.969	878.254	673.563
282.614	19.816	877.601	672.409
283.628	19.820	877.026	671.922
284.643	19.995	876.166	671.882
285.657	19.842	875.859	670.997
286.672	19.992	875.361	671.136
287.687	20.030	874.226	670.355
288.701	19.972	874.034	669.921
289.716	20.076	873.579	669.917
290.730	20.045	873.156	669.414
291.745	20.069	872.158	668.680
292.760	20.192	871.887	668.890
293.774	20.333	871.237	668.874
294.789	20.216	870.459	667.769
295.803	20.141	869.625	666.779
296.818	19.971	868.862	665.481
297.833	20.135	867.867	665.292
298.847	20.116	867.664	665.005
299.862	20.317	867.049	665.244
300.876	20.207	866.689	664.486
301.891	20.269	866.464	664.493
302.906	20.430	865.829	664.563
303.920	20.553	865.174	664.472
304.935	20.638	864.641	664.329
305.949	20.426	864.073	663.023
306.964	20.441	863.199	662.352
307.979	20.463	862.753	662.035
308.993	20.397	862.527	661.553
310.008	20.548	861.455	661.247
311.022	20.506	860.934	660.627
312.037	20.370	860.303	659.567
313.052	20.281	859.362	658.452
314.066	20.128	859.029	657.558
315.081	20.280	858.093	657.358
316.095	20.211	857.546	656.622
317.110	20.155	857.426	656.259
318.125	20.107	856.802	655.540
319.139	20.204	856.252	655.427
320.154	20.322	855.790	655.462
321.168	20.229	855.499	654.831
322.183	20.315	854.866	654.613
323.197	20.301	854.513	654.230
324.212	20.504	853.755	654.358
325.227	20.268	853.364	653.114
326.241	20.378	852.295	652.649
327.256	20.279	851.857	651.883
328.270	20.490	850.826	651.829
329.285	20.306	850.573	650.888
330.300	20.184	850.328	650.184
331.314	20.356	849.623	650.234
332.329	20.553	849.012	650.447
333.343	20.426	848.883	649.816
334.358	20.519	848.562	649.857
335.373	20.589	848.308	649.867
336.387	20.504	847.804	649.107
337.402	20.700	847.808	649.785
338.416	20.818	847.326	649.796
339.431	20.980	846.947	650.054
340.446	20.990	846.401	649.616
341.460	21.016	846.138	649.452
342.475	21.090	845.973	649.545
343.489	21.122	845.496	649.239
344.504	21.217	844.826	649.018
345.519	21.227	844.123	648.459
346.533	21.105	843.557	647.514
347.548	20.777	843.117	645.903
348.562	20.693	842.570	645.115
349.577	20.754	841.358	644.356
350.592	20.565	841.533	643.734
351.606	20.581	840.895	643.246
352.621	20.744	839.831	642.978
353.635	20.774	839.245	642.586
354.650	20.792	838.521	642.039
355.665	20.768	838.115	641.585
356.679	20.934	837.471	641.645
357.694	20.935	836.763	641.047
358.708	20.963	836.092	640.580
359.723	20.950	835.493	640.017
360.738	21.016	834.923	639.768
361.752	20.969	834.518	639.228
362.767	21.132	833.991	639.364
363.781	21.351	833.500	639.735
364.796	21.442	833.066	639.677
365.810	21.284	833.067	639.044
366.825	21.646	832.194	639.638
367.840	21.567	831.578	638.822
368.854	21.222	831.480	637.429
369.869	21.350	830.675	637.221
370.883	21.481	829.945	637.082
371.898	21.360	830.409	636.940
372.913	21.515	829.756	636.948
373.927	21.418	829.185	636.103
374.942	21.442	828.473	635.586
375.956	21.509	828.392	635.711
376.971	21.623	828.089	635.836
377.986	21.776	827.798	636.110
379.000	21.606	827.080	634.886
380.015	21.624	826.520	634.468
381.029	21.467	825.998	633.440
382.044	21.635	825.298	633.455
383.059	21.687	824.321	632.837
384.073	21.597	823.660	631.952
385.088	21.495	823.307	631.256
386.102	21.380	822.770	630.374
387.117	21.326	821.967	629.506
388.132	21.354	821.382	629.106
389.146	21.431	820.659	628.774
390.161	21.462	821.006	629.095
391.175	21.615	820.166	628.943
392.190	21.543	819.402	628.046
393.205	21.470	819.148	627.533
394.219	21.358	818.748	626.767
395.234	21.293	818.472	626.269
396.248	21.250	817.582	625.379
397.263	21.213	817.322	624.992
398.278	21.302	816.704	624.782
399.292	21.283	816.270	624.327
400.307	21.322	816.023	624.223
401.321	21.343	815.647	623.954
402.336	21.529	814.946	624.026
403.350	21.424	814.762	623.455
404.365	21.643	814.000	623.598
405.380	21.762	813.825	623.832
406.394	21.922	813.149	623.829
407.409	22.040	812.752	623.888
408.423	21.918	812.856	623.477
409.438	21.876	812.439	622.953
410.453	22.029	812.066	623.157
411.467	21.908	811.785	622.456
412.482	22.110	811.410	622.830
413.496	22.217	810.907	622.768
414.511	22.153	810.400	622.094
415.526	22.120	809.526	621.251
416.540	22.061	809.403	620.896
417.555	22.249	808.622	620.906
418.569	22.131	808.196	620.107
419.584	22.171	808.006	620.047
420.599	22.138	807.325	619.355
421.613	159.046	1369.127	1788.466
422.628	138.285	1451.019	1788.588
