DTS Sentinel unit serial number:	SN413079Multiplexer serial number:	ORYXHardware model number:	OX4-SRSoftware version number:	ORYX F/W v4.00 Oryx Data Collector v3.7.2.0data status	okinstallation	princeton_trtdifferential loss correction	single-endedforward channel	channel 1reverse channel	N/Adate	2019/09/14time	20:18:35forward acquisition time	60.00reverse acquisition time	0.00gamma	496.2192k internal	0.2316k external	0.2316temperature offset calibration	1.0018default loss term (dB/km)	0.3790temperature slope calibration	1.0000multiplexer offset coefficient	1.0000multiplexer slope coefficient	1.0000fibre end	0.00T internal ref (°C)	33.75T ext. ref 1 (°C)	4.82T ext. ref 2 (°C)	28.23length (m)	temperature (°C)	Stokes	anti-Stokes-747.200	-25.329	-0.126	-0.075
-746.185	800.000	-0.115	0.401
-745.171	800.000	0.040	0.137
-744.156	538.608	-0.097	-0.233
-743.142	-200.000	-0.009	-0.162
-742.127	-200.000	-0.011	0.068
-741.112	53.864	-0.082	-0.080
-740.098	-200.000	-0.057	0.319
-739.083	-2.568	0.184	-0.130
-738.069	80.450	-0.079	0.086
-737.054	-200.000	0.019	0.270
-736.039	-61.390	-0.298	-0.127
-735.025	58.493	0.473	0.470
-734.010	-200.000	0.026	-0.308
-732.996	-200.000	-0.103	0.000
-731.981	-200.000	0.022	0.224
-730.966	276.446	0.213	0.383
-729.952	548.657	0.039	-0.095
-728.937	-132.081	-0.122	-0.016
-727.923	180.773	-0.021	-0.031
-726.908	156.079	-0.041	0.057
-725.894	-6.104	-0.341	0.236
-724.879	-121.579	-0.407	0.068
-723.864	225.382	-0.170	-0.279
-722.850	71.594	0.272	0.285
-721.835	-27.086	-0.303	0.179
-720.821	-30.962	0.139	-0.079
-719.806	167.400	-0.043	-0.061
-718.791	800.000	-0.025	0.100
-717.777	203.257	0.154	-0.241
-716.762	-22.444	-0.286	0.175
-715.748	175.556	0.110	-0.162
-714.733	40.917	-0.183	-0.167
-713.718	-38.452	-0.062	0.033
-712.704	5.892	0.150	0.112
-711.689	744.699	-0.153	-0.416
-710.675	-200.000	0.004	0.098
-709.660	142.534	-0.079	0.106
-708.645	21.906	0.231	-0.190
-707.631	-96.129	0.209	0.056
-706.616	118.510	0.180	0.225
-705.602	114.134	-0.084	-0.103
-704.587	800.000	0.096	0.280
-703.572	-81.226	0.031	0.010
-702.558	-31.964	0.207	-0.117
-701.543	191.359	0.060	-0.091
-700.529	-200.000	-0.003	-0.029
-699.514	-126.190	0.431	-0.065
-698.499	-186.189	-0.428	-0.006
-697.485	362.604	-0.089	-0.180
-696.470	-103.200	-0.369	0.088
-695.456	-166.111	-0.072	0.003
-694.441	-51.768	0.226	0.106
-693.426	-61.382	-0.054	-0.023
-692.412	-200.000	0.007	-0.274
-691.397	-3.717	0.317	0.223
-690.383	-200.000	-0.014	0.236
-689.368	-200.000	-0.035	0.207
-688.354	800.000	-0.037	-0.127
-687.339	-38.752	-0.106	-0.057
-686.324	180.935	0.120	0.178
-685.310	-124.324	0.098	0.015
-684.295	134.995	-0.114	0.150
-683.281	-103.491	0.078	-0.019
-682.266	800.000	-0.113	-0.462
-681.251	800.000	0.044	0.148
-680.237	-200.000	-0.004	0.049
-679.222	202.829	-0.055	-0.086
-678.208	375.521	0.078	0.160
-677.193	18.385	0.064	0.052
-676.178	287.361	0.121	-0.221
-675.164	-11.026	-0.128	-0.086
-674.149	800.000	-0.020	0.063
-673.135	-200.000	0.013	-0.393
-672.120	-200.000	-0.001	0.184
-671.105	-200.000	0.010	-0.061
-670.091	-49.461	0.270	-0.130
-669.076	-25.473	0.173	-0.103
-668.062	134.864	-0.109	0.143
-667.047	146.398	0.044	0.060
-666.032	-200.000	-0.021	0.357
-665.018	151.104	0.092	-0.126
-664.003	72.645	0.299	0.315
-662.989	-25.417	0.102	0.061
-661.974	-167.375	-0.484	-0.020
-660.959	-70.004	-0.013	-0.005
-659.945	-50.205	-0.274	0.131
-658.930	105.579	0.238	-0.284
-657.916	-32.824	-0.442	-0.248
-656.901	-5.496	-0.085	-0.059
-655.886	311.023	0.056	0.105
-654.872	572.992	-0.065	0.159
-653.857	-42.186	0.207	-0.107
-652.843	-47.671	-0.319	-0.156
-651.828	4.878	0.175	0.130
-650.814	-200.000	0.026	0.187
-649.799	55.212	0.275	0.269
-648.784	800.000	0.102	0.339
-647.770	-88.172	-0.222	0.067
-646.755	-28.518	0.198	0.115
-645.741	268.970	0.101	-0.179
-644.726	399.069	-0.115	0.243
-643.711	38.983	-0.204	-0.184
-642.697	-20.382	-0.077	-0.048
-641.682	80.822	-0.047	0.051
-640.668	0.136	0.160	0.115
-639.653	-61.618	0.182	0.077
-638.638	459.149	-0.119	0.268
-637.624	-200.000	-0.008	0.223
-636.609	-130.181	-0.192	0.026
-635.595	25.798	-0.180	0.152
-634.580	46.342	0.113	-0.105
-633.565	-56.909	-0.237	0.106
-632.551	38.959	-0.084	-0.075
-631.536	-200.000	-0.010	0.326
-630.522	-1.966	-0.133	-0.095
-629.507	-130.890	-0.143	0.019
-628.492	-200.000	-0.076	0.362
-627.478	-20.121	-0.211	0.131
-626.463	327.591	-0.080	0.154
-625.449	64.773	-0.009	0.009
-624.434	-53.824	-0.160	-0.073
-623.419	502.157	0.065	-0.151
-622.405	-21.061	0.349	0.215
-621.390	-200.000	0.011	-0.064
-620.376	-76.709	-0.333	0.118
-619.361	83.182	-0.250	0.275
-618.346	-200.000	0.016	-0.292
-617.332	-113.002	0.319	-0.064
-616.317	-73.876	-0.178	-0.065
-615.303	-122.873	0.171	-0.028
-614.288	-200.000	-0.032	-0.327
-613.273	-22.512	-0.134	-0.082
-612.259	-200.000	-0.026	-0.187
-611.244	174.285	0.146	0.213
-610.230	-91.727	-0.455	-0.130
-609.215	-200.000	-0.021	0.175
-608.201	-129.848	0.211	-0.029
-607.186	-200.000	-0.054	0.290
-606.171	-91.291	0.179	-0.052
-605.157	110.311	-0.087	-0.105
-604.142	-76.928	0.282	0.099
-603.128	800.000	-0.086	-0.241
-602.113	676.465	-0.142	-0.370
-601.098	-78.429	-0.125	0.043
-600.084	61.477	-0.207	-0.207
-599.069	87.164	0.258	0.287
-598.055	406.767	-0.064	0.136
-597.040	12.165	0.117	0.091
-596.025	-54.034	-0.234	-0.107
-595.011	609.284	-0.105	0.265
-593.996	-18.530	0.179	0.112
-592.982	-200.000	0.028	-0.172
-591.967	326.906	-0.144	-0.278
-590.952	208.750	-0.113	-0.178
-589.938	-112.482	0.202	-0.041
-588.923	122.208	0.096	-0.120
-587.909	-93.452	-0.155	-0.043
-586.894	23.384	0.175	-0.145
-585.879	-200.000	-0.015	-0.104
-584.865	-200.000	-0.026	-0.129
-583.850	-151.788	0.259	-0.019
-582.836	-34.640	0.267	-0.147
-581.821	-200.000	0.022	-0.209
-580.806	-134.949	0.058	-0.007
-579.792	-200.000	-0.142	-0.000
-578.777	378.928	-0.031	-0.064
-577.763	449.082	-0.103	0.229
-576.748	196.248	0.079	0.122
-575.733	580.353	-0.098	-0.243
-574.719	-126.539	-0.019	0.003
-573.704	270.002	0.114	0.201
-572.690	265.058	0.033	0.058
-571.675	-112.078	-0.202	-0.041
-570.661	-40.773	-0.090	-0.047
-569.646	-131.221	-0.073	-0.010
-568.631	318.481	-0.142	0.270
-567.617	373.774	0.099	0.202
-566.602	-200.000	-0.009	-0.454
-565.588	-35.571	0.124	-0.068
-564.573	138.610	-0.068	0.089
-563.558	-112.632	-0.322	-0.064
-562.544	-200.000	0.006	0.114
-561.529	-130.988	0.127	0.017
-560.515	-67.154	0.335	0.133
-559.500	-200.000	0.013	-0.069
-558.485	-15.108	0.098	0.063
-557.471	-200.000	0.004	-0.138
-556.456	530.763	0.028	-0.067
-555.442	125.304	-0.062	0.079
-554.427	-200.000	0.105	0.461
-553.412	-99.362	-0.242	-0.061
-552.398	458.552	-0.078	-0.175
-551.383	-32.249	0.139	-0.078
-550.369	132.018	-0.073	0.094
-549.354	30.882	0.187	-0.161
-548.339	-200.000	0.029	-0.285
-547.325	430.791	-0.069	-0.150
-546.310	-45.190	-0.194	-0.097
-545.296	-200.000	-0.083	-0.484
-544.281	41.383	0.332	-0.302
-543.266	77.569	0.110	-0.118
-542.252	-168.510	-0.466	-0.018
-541.237	315.585	-0.077	0.146
-540.223	187.566	-0.070	-0.105
-539.208	-84.792	-0.143	-0.045
-538.193	683.458	-0.051	0.133
-537.179	-36.360	0.208	0.113
-536.164	-11.723	0.175	0.115
-535.150	-39.723	-0.091	0.048
-534.135	-100.169	-0.219	-0.055
-533.121	160.655	0.178	0.250
-532.106	-78.263	-0.199	0.069
-531.091	700.319	0.045	0.120
-530.077	216.127	0.032	-0.051
-529.062	554.398	0.032	-0.076
-528.048	-200.000	0.063	0.366
-527.033	157.517	-0.232	0.322
-526.018	-67.267	-0.143	-0.057
-525.004	-200.000	-0.017	-0.394
-523.989	-200.000	-0.077	-0.514
-522.975	-200.000	-0.035	-0.180
-521.960	800.000	-0.084	-0.245
-520.945	-200.000	0.040	-0.262
-519.931	-111.311	0.194	0.040
-518.916	-200.000	0.026	-0.471
-517.902	-200.000	-0.002	-0.183
-516.887	-181.131	-0.474	0.009
-515.872	-67.145	0.226	0.089
-514.858	276.782	-0.112	0.199
-513.843	-200.000	0.035	-0.188
-512.829	-182.693	-0.180	-0.003
-511.814	-164.248	0.043	-0.002
-510.799	-200.000	-0.027	0.260
-509.785	174.971	-0.056	-0.081
-508.770	31.759	-0.273	0.236
-507.756	-68.133	0.249	-0.097
-506.741	-200.000	0.035	0.233
-505.726	29.568	0.042	0.036
-504.712	205.407	-0.164	-0.256
-503.697	-159.375	0.485	0.027
-502.683	-74.575	-0.182	0.066
-501.668	412.710	-0.045	0.097
-500.653	265.392	-0.094	-0.165
-499.639	800.000	-0.142	-0.529
-498.624	-138.170	0.133	-0.015
-497.610	7.069	0.113	0.084
-496.595	-106.032	0.264	-0.060
-495.581	-200.000	0.009	0.051
-494.566	167.694	-0.103	0.146
-493.551	219.068	0.072	-0.115
-492.537	-94.902	-0.202	-0.055
-491.522	-18.712	0.254	-0.159
-490.508	-23.450	0.018	-0.011
-489.493	292.993	0.159	-0.290
-488.478	-114.439	-0.325	-0.063
-487.464	-200.000	0.046	0.292
-486.449	-48.187	0.103	-0.050
-485.435	-59.551	-0.104	0.045
-484.420	310.500	-0.090	-0.169
-483.405	-100.951	0.211	-0.052
-482.391	-63.173	0.134	-0.055
-481.376	1.907	0.275	-0.199
-480.362	227.429	-0.050	0.081
-479.347	302.141	0.155	-0.288
-478.332	-45.930	-0.240	-0.119
-477.318	-53.585	-0.083	0.038
-476.303	159.136	-0.201	-0.280
-475.289	126.467	0.143	-0.181
-474.274	140.389	0.170	-0.225
-473.259	800.000	0.110	-0.478
-472.245	28.705	0.447	0.379
-471.230	-200.000	-0.044	0.356
-470.216	5.495	0.189	0.139
-469.201	-0.588	-0.206	-0.146
-468.186	591.722	0.058	-0.144
-467.172	800.000	0.057	-0.227
-466.157	-200.000	-0.005	0.102
-465.143	-20.643	-0.137	0.084
-464.128	-83.967	-0.202	0.064
-463.113	83.156	-0.146	-0.159
-462.099	800.000	-0.022	-0.075
-461.084	-40.886	-0.091	0.047
-460.070	5.807	-0.280	0.207
-459.055	-200.000	0.056	0.367
-458.040	-200.000	0.042	0.227
-457.026	-189.273	0.069	-0.001
-456.011	-200.000	0.006	0.209
-454.997	122.682	0.110	-0.138
-453.982	297.095	0.112	-0.207
-452.968	154.193	-0.125	-0.172
-451.953	-124.649	0.373	0.058
-450.938	-3.194	0.048	0.033
-449.924	-200.000	-0.016	-0.119
-448.909	126.822	-0.106	-0.135
-447.895	-200.000	-0.002	0.090
-446.880	-6.943	0.258	-0.175
-445.865	-200.000	-0.017	-0.241
-444.851	-200.000	0.042	-0.463
-443.836	398.962	-0.078	-0.164
-442.822	-200.000	0.005	0.228
-441.807	-74.963	0.325	0.116
-440.792	192.893	0.062	0.094
-439.778	800.000	-0.028	0.117
-438.763	-163.930	0.256	-0.012
-437.749	159.012	-0.157	-0.218
-436.734	-200.000	0.006	0.074
-435.719	523.659	-0.188	-0.443
-434.705	-62.725	-0.186	0.077
-433.690	114.796	0.224	-0.273
-432.676	-24.792	0.110	-0.066
-431.661	-11.404	-0.174	0.114
-430.646	25.354	-0.150	-0.125
-429.632	-36.041	0.189	-0.102
-428.617	-99.934	-0.137	0.034
-427.603	800.000	-0.101	0.382
-426.588	-29.932	-0.275	0.156
-425.573	-122.009	-0.232	-0.038
-424.559	100.438	0.197	-0.229
-423.544	-94.562	-0.191	0.052
-422.530	-200.000	0.005	0.099
-421.515	800.000	0.067	0.245
-420.500	-70.938	0.290	-0.109
-419.486	-54.869	-0.268	0.121
-418.471	31.882	0.162	-0.139
-417.457	-27.401	-0.279	0.162
-416.442	244.016	-0.059	-0.100
-415.428	-200.000	-0.047	0.232
-414.413	-47.599	-0.293	0.142
-413.398	-200.000	0.004	0.124
-412.384	0.003	-0.174	0.124
-411.369	-99.306	-0.221	-0.056
-410.355	-171.822	-0.166	0.005
-409.340	-200.000	0.057	0.282
-408.325	-45.752	0.019	-0.010
-407.311	50.016	0.158	-0.149
-406.296	-200.000	0.043	0.201
-405.282	-200.000	-0.023	-0.271
-404.267	-81.589	-0.262	0.086
-403.252	40.297	0.228	0.205
-402.238	28.984	-0.150	0.127
-401.223	12.605	0.119	-0.092
-400.209	168.620	-0.216	0.307
-399.194	315.635	-0.080	-0.152
-398.179	103.072	-0.168	0.196
-397.165	61.622	0.173	0.172
-396.150	-31.526	0.221	0.124
-395.136	-200.000	0.045	-0.281
-394.121	96.514	-0.132	-0.151
-393.106	-200.000	-0.021	-0.095
-392.092	248.431	0.189	0.319
-391.077	-32.577	-0.122	-0.068
-390.063	-200.000	0.009	-0.062
-389.048	-35.074	0.128	0.069
-388.033	-178.946	0.062	0.001
-387.019	-56.437	-0.140	0.062
-386.004	800.000	-0.090	-0.282
-384.990	-151.938	0.136	-0.010
-383.975	-40.107	0.245	-0.128
-382.960	-55.216	-0.027	0.012
-381.946	800.000	0.040	-0.121
-380.931	-166.488	0.192	0.008
-379.917	800.000	-0.129	-0.372
-378.902	-27.717	0.288	0.167
-377.888	-126.401	0.277	-0.041
-376.873	134.322	0.071	-0.092
-375.858	-173.557	-0.181	0.005
-374.844	-59.247	0.229	0.099
-373.829	586.971	-0.026	0.064
-372.815	-13.825	-0.221	0.143
-371.800	-200.000	0.009	-0.077
-370.785	-198.819	-0.320	0.002
-369.771	99.428	-0.058	-0.067
-368.756	67.943	-0.108	0.110
-367.742	800.000	-0.082	-0.250
-366.727	-84.292	0.332	-0.105
-365.712	23.204	0.063	-0.051
-364.698	253.997	-0.093	0.158
-363.683	-0.407	-0.237	-0.168
-362.669	-4.597	-0.319	0.220
-361.654	-102.993	-0.450	-0.107
-360.639	-153.614	-0.231	-0.016
-359.625	105.887	-0.145	0.171
-358.610	20.978	0.164	-0.133
-357.596	-96.067	0.154	0.041
-356.581	-118.639	0.366	-0.064
-355.566	305.458	0.041	-0.077
-354.552	-100.528	0.324	0.080
-353.537	800.000	-0.086	0.306
-352.523	291.941	0.215	0.390
-351.508	-40.950	0.327	-0.169
-350.493	-107.422	-0.096	-0.021
-349.479	-173.455	-0.165	-0.005
-348.464	-200.000	-0.001	0.227
-347.450	-200.000	0.005	-0.100
-346.435	104.542	-0.021	0.025
-345.420	-143.285	-0.154	0.015
-344.406	-13.858	-0.238	-0.153
-343.391	-200.000	-0.029	-0.310
-342.377	-80.164	0.151	-0.050
-341.362	26.493	-0.137	0.114
-340.348	-200.000	0.008	0.124
-339.333	167.423	0.236	0.334
-338.318	-200.000	0.015	0.327
-337.304	43.453	0.371	0.338
-336.289	602.167	0.074	0.183
-335.275	12.550	-0.060	-0.046
-334.260	131.280	-0.157	-0.201
-333.245	800.000	0.064	-0.220
-332.231	-65.896	-0.407	-0.162
-331.216	-21.219	0.195	0.119
-330.202	-61.534	-0.220	0.092
-329.187	-108.326	0.120	-0.026
-328.172	-136.143	0.078	-0.009
-327.158	-200.000	0.004	-0.297
-326.143	-120.706	0.405	0.068
-325.129	800.000	-0.055	0.179
-324.114	389.911	0.003	-0.007
-323.099	268.939	-0.197	-0.344
-322.085	-31.633	0.180	0.101
-321.070	800.000	-0.088	-0.340
-320.056	-116.482	0.441	0.081
-319.041	302.259	-0.068	0.126
-318.026	-200.000	0.027	-0.195
-317.012	800.000	0.059	-0.194
-315.997	-158.570	-0.163	-0.009
-314.983	-162.917	0.204	0.010
-313.968	-66.308	0.138	-0.055
-312.953	-200.000	0.052	-0.284
-311.939	608.244	0.063	-0.157
-310.924	106.918	-0.219	-0.259
-309.910	81.930	0.052	-0.056
-308.895	-3.764	-0.037	-0.026
-307.880	12.075	-0.184	0.141
-306.866	-200.000	0.009	0.187
-305.851	-78.810	-0.133	-0.045
-304.837	-200.000	-0.023	-0.216
-303.822	44.491	-0.128	0.117
-302.807	800.000	-0.038	-0.123
-301.793	-167.561	0.052	0.002
-300.778	800.000	0.094	-0.260
-299.764	-148.415	0.193	-0.016
-298.749	800.000	-0.124	0.435
-297.735	-83.671	0.197	0.063
-296.720	160.450	-0.130	0.181
-295.705	437.714	0.153	-0.332
-294.691	-44.620	0.312	0.155
-293.676	791.215	-0.034	-0.092
-292.662	-166.227	0.206	-0.009
-291.647	-156.966	-0.176	-0.011
-290.632	249.464	0.163	0.276
-289.618	-20.319	-0.338	0.207
-288.603	86.246	-0.182	0.200
-287.589	-163.432	-0.172	0.008
-286.574	710.040	-0.072	0.191
-285.559	-130.505	0.458	0.062
-284.545	521.108	0.055	-0.128
-283.530	33.998	-0.113	-0.098
-282.516	-50.475	-0.256	-0.120
-281.501	-185.729	-0.247	0.004
-280.486	-39.349	0.151	-0.079
-279.472	-61.331	-0.191	0.080
-278.457	-73.722	-0.207	0.075
-277.443	-11.587	-0.021	0.014
-276.428	3.571	0.094	0.068
-275.413	-1.259	-0.009	0.006
-274.399	101.622	-0.085	0.098
-273.384	-126.821	-0.196	0.029
-272.370	-200.000	-0.017	0.238
-271.355	-200.000	-0.019	0.172
-270.340	30.184	-0.244	-0.207
-269.326	-193.343	-0.258	-0.002
-268.311	65.019	0.205	0.206
-267.297	650.236	-0.088	-0.225
-266.282	-63.364	0.317	0.130
-265.267	-101.693	0.178	0.043
-264.253	466.589	-0.060	-0.133
-263.238	142.327	-0.234	-0.309
-262.224	-131.746	-0.355	-0.046
-261.209	-200.000	-0.046	-0.226
-260.195	-34.533	0.151	-0.082
-259.180	364.961	-0.112	-0.224
-258.165	-74.066	0.173	0.062
-257.151	357.424	-0.019	-0.037
-256.136	-95.994	-0.052	0.014
-255.122	-115.254	0.091	-0.017
-254.107	231.741	-0.202	0.329
-253.092	-109.798	0.160	-0.033
-252.078	800.000	-0.068	-0.283
-251.063	797.756	-0.149	-0.408
-250.049	-44.741	0.578	0.286
-249.034	-193.617	0.278	0.002
-248.019	-200.000	0.026	0.219
-247.005	192.844	-0.084	0.126
-245.990	157.408	0.096	0.132
-244.976	-200.000	0.048	-0.222
-243.961	-12.328	0.370	0.240
-242.946	-131.962	0.634	-0.082
-241.932	-200.000	-0.010	0.048
-240.917	-200.000	-0.063	-0.302
-239.903	331.064	-0.056	0.107
-238.888	50.644	0.134	-0.126
-237.873	-41.604	-0.083	-0.042
-236.859	-8.864	-0.114	0.076
-235.844	306.114	0.114	0.211
-234.830	775.950	-0.034	0.092
-233.815	-5.243	0.250	-0.171
-232.800	-46.032	-0.115	-0.056
-231.786	-104.590	0.313	-0.072
-230.771	-161.374	0.352	0.018
-229.757	800.000	0.036	-0.131
-228.742	-70.129	-0.104	0.039
-227.727	-52.975	0.270	0.123
-226.713	-3.461	0.104	-0.072
-225.698	-200.000	0.020	0.182
-224.684	800.000	0.047	0.194
-223.669	99.196	-0.055	0.063
-222.655	800.000	0.043	-0.139
-221.640	40.373	0.185	0.165
-220.625	-41.527	-0.187	0.095
-219.611	-76.755	-0.443	-0.154
-218.596	-72.339	0.222	-0.082
-217.582	-107.572	-0.462	0.100
-216.567	800.000	0.077	0.213
-215.552	800.000	0.022	0.086
-214.538	-46.345	0.222	-0.108
-213.523	-200.000	-0.014	0.150
-212.509	323.542	0.160	0.302
-211.494	-154.595	-0.259	0.017
-210.479	-47.040	-0.282	0.136
-209.465	356.369	0.053	-0.105
-208.450	17.380	0.231	0.182
-207.436	35.746	0.258	0.225
-206.421	30.455	-0.315	0.267
-205.406	-200.000	-0.115	0.001
-204.392	-83.525	0.154	0.049
-203.377	-47.442	-0.144	-0.069
-202.363	-200.000	-0.022	0.431
-201.348	800.000	0.028	0.110
-200.333	800.000	0.089	-0.381
-199.319	40.218	-0.063	-0.056
-198.304	-23.369	0.170	0.101
-197.290	83.620	0.199	0.215
-196.275	4.870	-0.074	-0.054
-195.260	-14.128	0.266	0.170
-194.246	-200.000	0.000	-0.080
-193.231	-152.760	-0.410	-0.029
-192.217	-22.607	0.305	-0.183
-191.202	267.660	-0.075	0.131
-190.187	342.505	-0.021	0.040
-189.173	370.992	-0.082	0.165
-188.158	-144.631	0.321	0.029
-187.144	-61.224	-0.321	-0.134
-186.129	49.584	0.136	-0.127
-185.114	-175.651	-0.230	-0.006
-184.100	-110.042	0.292	0.061
-183.085	-155.399	-0.205	0.013
-182.071	-136.605	0.199	0.023
-181.056	-113.631	0.105	0.020
-180.042	-200.000	0.007	0.114
-179.027	800.000	-0.017	-0.066
-178.012	96.687	-0.151	0.172
-176.998	52.355	-0.070	0.066
-175.983	-25.519	0.091	-0.053
-174.969	-53.280	0.159	-0.072
-173.954	-113.547	0.218	-0.042
-172.939	800.000	0.045	-0.135
-171.925	452.344	-0.050	-0.109
-170.910	655.359	-0.108	0.274
-169.896	-127.211	0.174	0.025
-168.881	-26.261	0.114	-0.066
-167.866	82.892	0.198	-0.214
-166.852	-97.778	-0.453	0.116
-165.837	68.214	-0.223	0.227
-164.823	-151.347	0.283	0.021
-163.808	800.000	0.013	0.043
-162.793	139.225	-0.088	-0.115
-161.779	238.030	0.155	0.255
-160.764	-7.131	0.023	0.016
-159.750	40.927	-0.104	-0.093
-158.735	-136.892	-0.199	0.023
-157.720	-200.000	-0.036	0.402
-156.706	46.799	0.128	-0.117
-155.691	510.044	0.043	0.100
-154.677	-160.498	-0.332	-0.018
-153.662	173.890	-0.024	0.035
-152.647	-75.713	0.025	-0.009
-151.633	800.000	0.043	0.174
-150.618	800.000	-0.043	0.151
-149.604	-98.460	-0.254	0.064
-148.589	-169.868	-0.370	-0.013
-147.574	-200.000	0.076	-0.433
-146.560	800.000	-0.100	0.304
-145.545	-200.000	0.001	0.365
-144.531	-18.698	0.163	-0.101
-143.516	537.721	-0.144	0.338
-142.502	-200.000	0.003	-0.312
-141.487	-147.095	0.311	-0.026
-140.472	-200.000	0.015	0.108
-139.458	-134.775	-0.022	-0.003
-138.443	-200.000	0.015	0.227
-137.429	-112.051	-0.112	-0.022
-136.414	-101.408	0.106	-0.025
-135.399	-144.150	0.263	0.024
-134.385	14.192	0.263	0.203
-133.370	-200.000	0.052	-0.472
-132.356	-50.464	0.070	0.033
-131.341	-91.029	-0.026	0.007
-130.326	-18.882	0.275	-0.169
-129.312	-93.094	0.005	0.001
-128.297	800.000	-0.055	-0.239
-127.283	-200.000	0.038	-0.309
-126.268	800.000	0.048	-0.154
-125.253	800.000	-0.021	0.059
-124.239	205.649	0.187	0.287
-123.224	-59.893	-0.196	-0.083
-122.210	800.000	-0.125	-0.353
-121.195	-59.652	-0.111	0.047
-120.180	477.195	0.057	-0.127
-119.166	-200.000	0.040	0.254
-118.151	-200.000	0.011	0.159
-117.137	-47.817	-0.159	-0.076
-116.122	-15.192	0.191	0.121
-115.107	-200.000	0.001	0.096
-114.093	114.482	-0.287	-0.345
-113.078	337.175	-0.125	-0.241
-112.064	-200.000	-0.009	0.169
-111.049	363.343	0.068	-0.134
-110.034	61.620	-0.160	-0.157
-109.020	-171.332	0.139	-0.005
-108.005	27.170	0.115	-0.095
-106.991	-21.734	0.289	0.174
-105.976	-137.852	0.352	-0.039
-104.962	407.802	0.228	-0.477
-103.947	-120.531	0.170	-0.029
-102.932	-15.697	0.147	0.092
-101.918	800.000	-0.048	-0.147
-100.903	-43.215	-0.139	0.069
-99.889	-104.361	0.248	0.057
-98.874	-183.502	-0.218	-0.004
-97.859	-127.294	-0.187	-0.027
-96.845	517.071	-0.096	-0.221
-95.830	-198.742	-0.311	-0.002
-94.816	-200.000	-0.004	-0.036
-93.801	183.170	0.030	-0.043
-92.786	134.368	0.062	0.080
-91.772	-163.754	-0.117	-0.005
-90.757	800.000	0.019	0.067
-89.743	-200.000	-0.043	-0.353
-88.728	-200.000	0.020	-0.214
-87.713	800.000	-0.016	0.047
-86.699	-17.266	-0.178	0.111
-85.684	-147.193	-0.235	-0.020
-84.670	-200.000	0.010	0.115
-83.655	238.015	-0.101	-0.165
-82.640	-167.080	-0.403	-0.016
-81.626	-132.264	-0.423	0.054
-80.611	34.617	0.081	0.070
-79.597	-162.213	-0.134	0.007
-78.582	218.317	-0.049	-0.078
-77.567	-77.877	-0.265	0.090
-76.553	-200.000	-0.019	0.223
-75.538	800.000	0.024	0.067
-74.524	-200.000	-0.071	0.444
-73.509	-157.348	0.046	0.003
-72.494	-75.380	-0.216	0.076
-71.480	800.000	-0.056	-0.212
-70.465	-135.414	0.107	-0.013
-69.451	23.497	-0.162	-0.132
-68.436	-65.823	-0.067	-0.026
-67.422	-133.670	-0.295	-0.036
-66.407	-66.431	-0.271	0.106
-65.392	-132.898	0.188	-0.024
-64.378	2.936	0.238	0.171
-63.363	-200.000	-0.024	-0.279
-62.349	724.920	0.129	-0.339
-61.334	101.098	-0.836	-0.959
-60.319	680.778	0.380	0.976
-59.305	174.040	-0.498	-0.709
-58.290	314.391	0.555	1.031
-57.276	446.706	0.670	1.454
-56.261	-200.000	95.085	564.463
-55.246	621.063	1387.414	3441.272
-54.232	193.088	2575.501	3838.274
-53.217	118.655	2155.459	2624.131
-52.203	45.231	1613.741	1466.956
-51.188	37.345	1350.865	1180.284
-50.173	34.018	1309.452	1124.421
-49.159	55.991	1356.142	1297.072
-48.144	58.767	1372.798	1329.607
-47.130	37.382	1331.433	1163.337
-46.115	33.955	1313.449	1127.298
-45.100	33.709	1309.282	1122.222
-44.086	33.687	1306.245	1119.444
-43.071	33.572	1304.044	1116.837
-42.057	33.488	1302.664	1115.117
-41.042	33.518	1300.943	1113.775
-40.027	33.707	1299.272	1113.411
-39.013	33.608	1297.479	1111.252
-37.998	33.734	1295.411	1110.171
-36.984	33.688	1294.188	1108.810
-35.969	33.681	1292.134	1106.967
-34.954	33.718	1291.149	1106.295
-33.940	33.807	1289.405	1105.276
-32.925	33.904	1288.053	1104.633
-31.911	33.771	1286.679	1102.639
-30.896	33.904	1285.185	1102.089
-29.881	33.928	1283.471	1100.714
-28.867	33.958	1281.951	1099.538
-27.852	33.838	1281.061	1098.037
-26.838	33.944	1279.476	1097.249
-25.823	33.849	1278.315	1095.664
-24.809	33.853	1277.084	1094.589
-23.794	33.765	1275.717	1092.862
-22.779	33.900	1274.152	1092.257
-21.765	33.827	1273.329	1091.088
-20.750	33.791	1271.838	1089.562
-19.736	33.729	1270.448	1087.973
-18.721	33.686	1269.565	1086.924
-17.706	33.756	1268.043	1085.982
-16.692	33.685	1266.984	1084.625
-15.677	33.685	1265.992	1083.731
-14.663	33.614	1265.435	1082.804
-13.648	33.756	1263.587	1081.989
-12.633	33.574	1263.482	1080.821
-11.619	33.724	1262.110	1080.459
-10.604	33.711	1260.837	1079.252
-9.590	33.724	1260.148	1078.691
-8.575	33.617	1259.317	1077.330
-7.560	33.657	1258.435	1076.759
-6.546	33.710	1257.562	1076.272
-5.531	33.648	1256.753	1075.187
-4.517	33.660	1255.941	1074.515
-3.502	33.773	1255.017	1074.325
-2.487	33.653	1254.652	1073.287
-1.473	33.626	1250.391	1069.452
-0.458	32.185	1235.251	1048.424
0.556	27.721	1216.889	1007.970
1.571	23.777	1222.192	990.340
2.586	22.832	1237.204	997.078
3.600	21.942	1226.335	983.247
4.615	16.710	1154.981	898.273
5.629	8.609	1080.324	799.785
6.644	4.923	1060.215	766.719
7.659	4.723	1058.137	764.167
8.673	4.817	1057.011	763.745
9.688	4.797	1055.891	762.772
10.702	4.915	1053.562	761.600
11.717	9.356	1060.541	788.383
12.731	16.739	1070.044	831.767
13.746	19.484	1073.084	847.556
14.761	18.685	1071.240	842.108
15.775	17.493	1069.575	834.883
16.790	16.463	1067.557	828.189
17.804	15.866	1065.950	823.948
18.819	15.621	1064.110	821.253
19.834	15.318	1063.415	819.166
20.848	14.939	1063.361	817.203
21.863	14.896	1062.006	815.877
22.877	14.721	1061.032	814.204
23.892	14.730	1060.637	813.874
24.907	14.775	1059.799	813.375
25.921	14.648	1059.111	812.160
26.936	14.893	1056.978	811.642
27.950	14.710	1056.263	810.134
28.965	14.807	1054.432	809.126
29.980	14.997	1053.256	809.069
30.994	14.979	1052.288	808.170
32.009	15.134	1051.212	808.018
33.023	14.938	1049.930	806.016
34.038	14.945	1049.409	805.581
35.053	14.798	1048.376	804.007
36.067	14.757	1047.550	803.106
37.082	14.902	1046.505	802.930
38.096	14.964	1046.034	802.797
39.111	14.936	1045.094	801.868
40.126	14.760	1043.775	799.945
41.140	14.596	1042.598	798.187
42.155	14.491	1041.549	796.811
43.169	14.456	1040.564	795.820
44.184	14.705	1039.005	795.744
45.199	14.672	1038.396	795.050
46.213	14.622	1037.302	793.903
47.228	14.812	1036.135	793.845
48.242	14.873	1035.014	793.203
49.257	14.905	1033.811	792.364
50.271	14.819	1033.332	791.518
51.286	14.914	1032.753	791.457
52.301	14.805	1031.697	790.060
53.315	14.803	1030.241	788.868
54.330	14.631	1029.506	787.421
55.344	14.676	1028.383	786.707
56.359	14.700	1027.848	786.341
57.374	14.639	1026.973	785.313
58.388	14.523	1025.896	783.878
59.403	14.518	1024.999	783.097
60.417	14.601	1024.153	782.769
61.432	14.604	1023.555	782.258
62.447	14.419	1022.664	780.642
63.461	14.437	1022.186	780.294
64.476	14.528	1020.777	779.573
65.490	14.461	1020.177	778.734
66.505	14.444	1019.596	778.141
67.520	14.473	1018.983	777.739
68.534	14.530	1018.060	777.232
69.549	14.428	1017.688	776.402
70.563	14.361	1016.919	775.436
71.578	14.292	1016.131	774.448
72.593	14.417	1014.972	774.073
73.607	14.250	1014.537	772.899
74.622	14.328	1013.969	772.758
75.636	14.428	1013.214	772.581
76.651	14.451	1012.403	771.999
77.666	14.362	1011.803	771.062
78.680	14.301	1011.415	770.417
79.695	14.528	1010.457	770.668
80.709	14.590	1009.919	770.476
81.724	14.668	1009.195	770.212
82.739	14.590	1008.931	769.585
83.753	14.863	1007.620	769.775
84.768	14.952	1006.942	769.599
85.782	15.009	1006.401	769.378
86.797	14.876	1005.533	768.036
87.812	14.777	1004.150	766.458
88.826	14.912	1003.295	766.356
89.841	14.912	1002.293	765.524
90.855	14.902	1001.849	765.069
91.870	14.997	1001.152	764.905
92.884	14.945	1000.036	763.748
93.899	14.956	999.010	762.944
94.914	15.012	998.525	762.763
95.928	15.054	997.537	762.131
96.943	14.909	996.836	760.868
97.957	14.950	995.789	760.187
98.972	14.762	995.442	759.002
99.987	14.955	993.863	758.605
101.001	14.846	993.255	757.581
102.016	14.886	992.359	757.012
103.030	15.081	991.371	757.072
104.045	14.963	990.531	755.831
105.060	14.874	989.907	754.888
106.074	14.775	988.913	753.616
107.089	14.666	987.512	751.991
108.103	14.508	986.803	750.675
109.118	14.603	986.096	750.497
110.133	14.447	985.638	749.381
111.147	14.574	984.221	748.808
112.162	14.620	983.597	748.471
113.176	14.675	983.151	748.312
114.191	14.693	982.477	747.814
115.206	14.776	981.237	747.173
116.220	14.773	980.322	746.398
117.235	14.691	979.576	745.399
118.249	14.731	978.458	744.662
119.264	14.648	977.919	743.813
120.279	14.572	977.350	742.978
121.293	14.614	976.328	742.322
122.308	14.657	975.241	741.619
123.322	14.541	974.466	740.448
124.337	14.570	973.528	739.802
125.352	14.476	972.593	738.607
126.366	14.546	971.286	737.862
127.381	14.709	970.210	737.700
128.395	14.709	969.552	737.131
129.410	14.627	968.805	736.136
130.424	14.618	968.095	735.492
131.439	14.781	967.351	735.581
132.454	14.803	966.673	735.098
133.468	14.831	965.884	734.554
134.483	14.748	965.193	733.600
135.497	14.768	964.058	732.760
136.512	14.732	962.973	731.714
137.527	14.806	962.196	731.380
138.541	14.742	961.719	730.673
139.556	14.822	960.908	730.343
140.570	14.938	960.443	730.430
141.585	15.153	959.214	730.370
142.600	14.979	958.711	729.166
143.614	14.847	958.091	728.054
144.629	15.112	957.185	728.455
145.643	14.979	956.198	727.061
146.658	14.995	955.319	726.396
147.673	14.862	954.356	725.025
148.687	14.738	953.398	723.694
149.702	14.791	952.758	723.372
150.716	14.773	951.757	722.472
151.731	14.832	951.441	722.424
152.746	14.828	950.725	721.797
153.760	14.890	950.179	721.587
154.775	14.933	949.583	721.255
155.789	15.045	948.462	720.822
156.804	15.086	947.860	720.481
157.819	15.168	947.333	720.367
158.833	14.992	946.853	719.184
159.848	15.093	945.799	718.753
160.862	15.094	944.857	717.974
161.877	14.863	944.007	716.279
162.892	14.900	942.843	715.487
163.906	14.864	942.017	714.643
164.921	14.958	940.992	714.207
165.935	15.000	940.475	713.929
166.950	15.032	939.321	713.128
167.964	14.965	938.737	712.333
168.979	14.942	937.895	711.533
169.994	14.976	937.314	711.174
171.008	15.086	936.088	710.648
172.023	15.215	935.463	710.659
173.037	15.315	934.905	710.594
174.052	15.205	934.434	709.711
175.067	15.029	933.725	708.364
176.081	14.908	933.064	707.285
177.096	15.011	932.725	707.403
178.110	15.037	931.809	706.754
179.125	15.074	931.025	706.256
180.140	15.117	930.633	706.075
181.154	15.126	930.440	705.904
182.169	15.182	930.433	706.071
183.183	15.295	929.368	705.679
184.198	15.246	928.448	704.709
185.213	15.261	928.019	704.385
186.227	15.324	927.409	704.126
187.242	15.302	926.816	703.518
188.256	15.358	926.309	703.306
189.271	15.392	925.325	702.643
190.286	15.068	924.982	700.960
191.300	14.967	923.364	699.253
192.315	14.879	922.933	698.497
193.329	15.064	922.183	698.640
194.344	15.058	921.812	698.272
195.359	15.108	921.261	698.001
196.373	15.310	920.638	698.309
197.388	15.397	920.490	698.494
198.402	15.522	919.870	698.484
199.417	15.444	919.435	697.765
200.432	15.527	918.822	697.584
201.446	15.636	918.509	697.736
202.461	15.679	917.776	697.296
203.475	15.760	916.557	696.646
204.490	15.618	915.953	695.535
205.504	15.464	915.336	694.369
206.519	15.333	914.920	693.450
207.534	15.430	914.196	693.240
208.548	15.388	913.393	692.399
209.563	15.605	912.505	692.557
210.577	15.554	912.250	692.093
211.592	15.576	911.848	691.816
212.607	15.696	910.810	691.464
213.621	15.656	909.963	690.594
214.636	15.556	909.657	689.891
215.650	15.761	908.814	690.032
216.665	15.776	907.825	689.279
217.680	15.940	906.899	689.186
218.694	15.799	906.897	688.546
219.709	15.711	906.332	687.699
220.723	15.833	905.432	687.454
221.738	15.737	904.850	686.560
222.753	15.763	903.806	685.810
223.767	15.876	903.732	686.156
224.782	15.869	903.325	685.758
225.796	16.032	902.679	685.868
226.811	15.969	901.751	684.848
227.826	15.865	901.335	684.047
228.840	15.943	899.946	683.249
229.855	15.869	899.371	682.451
230.869	15.877	898.512	681.773
231.884	15.869	898.042	681.325
232.899	15.781	897.472	680.474
233.913	15.609	896.740	679.164
234.928	15.823	895.996	679.407
235.942	15.796	895.239	678.662
236.957	15.801	894.868	678.341
237.972	15.736	894.315	677.600
238.986	15.835	893.523	677.338
240.001	15.848	892.825	676.803
241.015	15.841	892.281	676.301
242.030	15.997	891.577	676.335
243.045	15.957	891.054	675.716
244.059	15.947	890.603	675.276
245.074	15.940	890.043	674.762
246.088	16.000	889.355	674.421
247.103	16.113	888.511	674.175
248.117	16.033	888.527	673.806
249.132	16.198	888.041	674.036
250.147	16.344	887.177	673.903
251.161	16.402	886.668	673.691
252.176	16.460	886.178	673.490
253.190	16.457	885.441	672.856
254.205	16.379	885.258	672.349
255.220	16.460	884.258	671.849
256.234	16.475	883.557	671.320
257.249	16.536	882.815	670.937
258.263	16.468	881.870	669.892
259.278	16.636	881.249	670.026
260.293	16.604	880.658	669.388
261.307	16.640	880.263	669.171
262.322	16.609	879.877	668.695
263.336	16.656	878.983	668.145
264.351	16.754	878.263	667.923
265.366	16.756	877.251	667.103
266.380	16.711	877.053	666.719
267.395	16.654	876.457	665.980
268.409	16.781	875.188	665.455
269.424	16.775	874.433	664.798
270.439	16.622	874.159	663.934
271.453	16.638	873.322	663.301
272.468	16.674	873.075	663.197
273.482	16.641	872.469	662.546
274.497	16.613	871.731	661.817
275.512	16.573	871.249	661.239
276.526	16.679	871.068	661.455
277.541	16.664	870.441	660.863
278.555	16.739	869.943	660.719
279.570	16.913	868.796	660.465
280.585	16.978	868.233	660.233
281.599	16.766	867.356	658.684
282.614	16.668	866.735	657.772
283.628	16.723	866.138	657.475
284.643	16.729	865.443	656.914
285.657	16.797	865.143	656.891
286.672	16.697	864.337	655.833
287.687	16.820	863.672	655.746
288.701	16.812	863.483	655.513
289.716	16.897	862.654	655.156
290.730	16.860	862.268	654.661
291.745	16.957	861.682	654.532
292.760	16.999	860.844	654.000
293.774	16.978	860.687	653.743
294.789	16.850	859.917	652.608
295.803	16.867	859.334	652.173
296.818	16.952	858.301	651.655
297.833	17.011	857.839	651.477
298.847	16.964	857.138	650.706
299.862	16.929	856.893	650.326
300.876	17.068	856.446	650.465
301.891	17.150	855.580	650.062
302.906	17.257	854.849	649.858
303.920	17.181	854.557	649.289
304.935	17.364	854.116	649.596
305.949	17.082	853.698	648.143
306.964	17.184	852.772	647.771
307.979	17.080	852.337	646.989
308.993	17.243	851.483	646.902
310.008	17.232	851.315	646.676
311.022	17.239	850.495	646.023
312.037	17.172	849.885	645.245
313.052	17.050	849.324	644.300
314.066	17.157	848.582	644.086
315.081	16.995	848.288	643.192
316.095	17.159	847.131	642.880
317.110	17.121	847.186	642.719
318.125	17.109	846.775	642.307
319.139	17.172	846.025	641.919
320.154	17.189	845.387	641.442
321.168	17.263	845.129	641.468
322.183	17.261	844.180	640.684
323.197	17.225	844.244	640.540
324.212	17.341	843.474	640.335
325.227	17.302	842.680	639.528
326.241	17.364	841.817	639.053
327.256	17.211	841.691	638.324
328.270	17.196	841.198	637.839
329.285	17.253	840.473	637.444
330.300	17.183	839.793	636.609
331.314	17.198	839.520	636.403
332.329	17.352	838.737	636.331
333.343	17.354	838.726	636.272
334.358	17.394	838.442	636.149
335.373	17.422	837.732	635.660
336.387	17.243	837.799	634.985
337.402	17.483	837.202	635.375
338.416	17.445	837.071	635.075
339.431	17.614	836.578	635.276
340.446	17.651	835.948	634.879
341.460	17.667	835.920	634.861
342.475	17.720	835.161	634.427
343.489	17.823	834.455	634.216
344.504	17.749	834.377	633.826
345.519	17.832	833.635	633.516
346.533	17.770	833.217	632.909
347.548	17.819	832.229	632.285
348.562	17.723	831.584	631.385
349.577	17.574	831.198	630.484
350.592	17.754	830.483	630.550
351.606	17.609	830.159	629.713
352.621	17.641	829.021	628.914
353.635	17.703	828.584	628.754
354.650	17.577	828.133	627.890
355.665	17.715	827.808	628.099
356.679	17.826	827.156	627.958
357.694	17.928	826.334	627.653
358.708	17.791	825.779	626.671
359.723	17.752	825.537	626.290
360.738	17.805	824.614	625.729
361.752	17.894	824.019	625.549
362.767	18.076	823.362	625.658
363.781	18.082	823.244	625.537
364.796	18.056	822.674	624.951
365.810	18.149	822.426	625.049
366.825	18.193	822.257	625.027
367.840	18.132	821.497	624.170
368.854	17.980	821.285	623.400
369.869	18.012	820.792	623.088
370.883	18.143	819.907	622.836
371.898	18.172	819.749	622.769
372.913	17.995	819.571	621.931
373.927	18.010	819.309	621.734
374.942	18.075	818.771	621.508
375.956	18.062	818.543	621.231
376.971	18.269	817.943	621.474
377.986	18.374	817.036	621.110
379.000	18.380	816.803	620.898
380.015	18.212	816.560	620.051
381.029	18.304	815.719	619.690
382.044	18.368	814.937	619.271
383.059	18.408	814.663	619.156
384.073	18.405	813.617	618.294
385.088	18.286	813.231	617.515
386.102	18.274	812.516	616.874
387.117	18.260	811.929	616.324
388.132	18.243	811.576	615.941
389.146	18.327	810.996	615.750
390.161	18.417	810.709	615.798
391.175	18.400	810.208	615.303
392.190	18.479	809.260	614.813
393.205	18.317	809.317	614.220
394.219	18.243	808.852	613.549
395.234	18.222	808.569	613.204
396.248	18.255	808.014	612.847
397.263	18.271	807.252	612.271
398.278	18.283	806.953	612.034
399.292	18.279	807.039	612.031
400.307	18.325	806.036	611.380
401.321	18.199	805.553	610.509
402.336	18.471	805.057	611.050
403.350	18.434	805.134	610.921
404.365	18.388	804.685	610.363
405.380	18.468	804.181	610.210
406.394	18.723	803.318	610.408
407.409	18.827	802.635	610.208
408.423	18.764	802.538	609.853
409.438	18.607	802.438	609.166
410.453	18.729	802.150	609.328
411.467	19.007	801.193	609.534
412.482	18.802	801.285	608.822
413.496	19.030	800.923	609.301
414.511	19.019	800.254	608.698
415.526	18.888	800.070	608.041
416.540	18.963	799.165	607.565
417.555	18.986	798.852	607.355
418.569	18.862	798.291	606.437
419.584	18.962	798.120	606.605
420.599	18.824	797.640	605.702
421.613	155.782	1371.319	1791.537
422.628	134.970	1454.874	1791.650
