DTS Sentinel unit serial number:	SN413079Multiplexer serial number:	ORYXHardware model number:	OX4-SRSoftware version number:	ORYX F/W v4.00 Oryx Data Collector v3.7.2.0data status	okinstallation	princeton_trtdifferential loss correction	single-endedforward channel	channel 1reverse channel	N/Adate	2019/09/19time	04:26:35forward acquisition time	60.00reverse acquisition time	0.00gamma	496.2192k internal	0.2342k external	0.2342temperature offset calibration	1.0022default loss term (dB/km)	0.3790temperature slope calibration	1.0000multiplexer offset coefficient	1.0000multiplexer slope coefficient	1.0000fibre end	0.00T internal ref (°C)	20.19T ext. ref 1 (°C)	0.63T ext. ref 2 (°C)	13.20length (m)	temperature (°C)	Stokes	anti-Stokes-747.200	-158.946	0.283	-0.016
-746.185	-130.076	-0.557	0.076
-745.171	-67.906	0.364	-0.142
-744.156	-127.255	-0.403	0.059
-743.142	150.326	-0.241	0.328
-742.127	-49.099	-0.238	0.114
-741.112	-52.886	0.340	0.157
-740.098	-98.161	-0.297	0.076
-739.083	508.442	0.092	0.215
-738.069	-96.256	-0.202	-0.054
-737.054	800.000	-0.062	-0.272
-736.039	30.912	-0.348	-0.299
-735.025	-200.000	-0.053	0.267
-734.010	-150.496	-0.302	-0.023
-732.996	-72.799	-0.184	-0.068
-731.981	18.055	0.290	-0.232
-730.966	800.000	-0.096	-0.303
-729.952	-34.516	-0.294	0.161
-728.937	-105.057	-0.270	0.062
-727.923	174.197	-0.160	0.232
-726.908	-83.853	-0.262	0.083
-725.894	-26.617	-0.091	0.053
-724.879	64.702	0.116	-0.117
-723.864	-35.334	-0.454	-0.247
-722.850	-63.957	0.096	-0.039
-721.835	288.001	-0.080	-0.146
-720.821	263.885	-0.023	0.041
-719.806	-200.000	0.020	-0.261
-718.791	-168.153	-0.395	-0.015
-717.777	800.000	-0.149	0.504
-716.762	160.079	0.043	-0.061
-715.748	-200.000	-0.038	0.290
-714.733	453.293	-0.087	-0.193
-713.718	-200.000	0.010	-0.218
-712.704	34.232	-0.222	-0.194
-711.689	121.466	0.102	0.128
-710.675	-15.543	0.212	0.135
-709.660	-200.000	0.048	-0.269
-708.645	-200.000	-0.003	0.031
-707.631	800.000	0.067	-0.267
-706.616	-75.137	-0.144	0.051
-705.602	207.960	-0.100	0.156
-704.587	11.197	0.259	0.199
-703.572	-200.000	0.015	-0.135
-702.558	149.477	0.132	0.179
-701.543	800.000	-0.113	0.336
-700.529	54.362	0.390	0.376
-699.514	-43.206	-0.169	0.085
-698.499	130.701	-0.260	-0.334
-697.485	187.520	0.230	0.343
-696.470	191.110	-0.044	0.066
-695.456	-76.782	-0.350	-0.123
-694.441	-119.054	-0.158	-0.028
-693.426	-68.949	-0.251	0.097
-692.412	41.899	0.147	0.133
-691.397	-200.000	-0.020	-0.263
-690.383	-168.309	0.267	-0.010
-689.368	68.160	-0.194	0.198
-688.354	-28.904	-0.284	-0.163
-687.339	800.000	0.038	-0.120
-686.324	-200.000	0.022	-0.321
-685.310	-44.663	0.118	-0.059
-684.295	-52.870	0.183	-0.084
-683.281	800.000	0.093	-0.285
-682.266	57.230	0.163	-0.159
-681.251	800.000	0.052	-0.199
-680.237	-35.874	-0.159	-0.086
-679.222	19.705	-0.056	0.045
-678.208	18.298	-0.138	-0.110
-677.193	104.281	-0.100	-0.117
-676.178	-200.000	0.035	0.459
-675.164	185.565	0.169	0.251
-674.149	-26.329	-0.139	0.082
-673.135	800.000	-0.073	-0.236
-672.120	280.088	-0.217	-0.387
-671.105	-23.820	0.102	-0.061
-670.091	-32.309	0.258	0.144
-669.076	-26.282	0.090	-0.053
-668.062	90.868	0.054	0.061
-667.047	-200.000	0.038	-0.193
-666.032	-200.000	0.004	0.023
-665.018	-104.773	-0.256	0.059
-664.003	269.740	0.150	-0.263
-662.989	-141.966	-0.405	0.040
-661.974	163.409	0.024	0.034
-660.959	200.347	-0.150	0.230
-659.945	-110.515	-0.183	0.038
-658.930	-200.000	0.036	0.271
-657.916	90.077	0.222	-0.248
-656.901	800.000	0.064	-0.242
-655.886	40.416	0.247	-0.222
-654.872	-200.000	-0.048	-0.289
-653.857	-52.431	-0.297	0.137
-652.843	-70.681	-0.261	-0.099
-651.828	-179.002	0.095	-0.002
-650.814	-51.920	0.265	0.123
-649.799	-78.320	-0.388	-0.133
-648.784	-40.868	0.062	-0.032
-647.770	325.197	0.100	-0.192
-646.755	-89.032	-0.411	-0.121
-645.741	370.547	-0.165	0.334
-644.726	225.618	-0.032	-0.051
-643.711	-94.113	-0.220	0.060
-642.697	-121.811	-0.117	0.019
-641.682	-200.000	-0.003	0.200
-640.668	-200.000	0.002	-0.177
-639.653	-185.271	-0.073	0.001
-638.638	-200.000	0.001	-0.069
-637.624	437.140	-0.047	0.103
-636.609	-112.332	0.076	0.015
-635.595	369.427	-0.095	0.191
-634.580	-57.881	0.104	-0.045
-633.565	-137.106	-0.098	-0.011
-632.551	66.572	-0.058	0.059
-631.536	50.370	0.169	-0.160
-630.522	183.514	0.060	-0.088
-629.507	-121.097	0.087	0.014
-628.492	-200.000	-0.007	-0.090
-627.478	-78.980	0.379	-0.129
-626.463	-200.000	-0.076	-0.672
-625.449	127.023	0.128	0.162
-624.434	656.619	0.050	0.129
-623.419	-35.631	-0.288	0.155
-622.405	-72.202	-0.166	0.061
-621.390	-142.911	0.446	0.043
-620.376	-99.532	-0.144	-0.036
-619.361	-73.338	0.170	0.062
-618.346	-196.403	-0.149	0.001
-617.332	39.672	-0.123	0.110
-616.317	-43.469	-0.225	0.113
-615.303	-89.442	0.055	0.016
-614.288	-63.114	-0.256	-0.105
-613.273	-105.442	-0.400	0.091
-612.259	-143.116	0.311	-0.030
-611.244	224.058	-0.073	-0.118
-610.230	564.468	-0.056	-0.136
-609.215	482.760	0.010	0.023
-608.201	-29.636	0.110	-0.063
-607.186	800.000	-0.086	-0.305
-606.171	723.422	0.065	0.172
-605.157	636.402	-0.085	0.216
-604.142	28.284	-0.056	-0.047
-603.128	800.000	0.109	-0.393
-602.113	96.600	-0.160	-0.183
-601.098	-200.000	-0.011	-0.179
-600.084	-121.985	-0.166	-0.027
-599.069	-171.898	-0.121	-0.004
-598.055	0.521	0.213	-0.152
-597.040	591.392	-0.145	0.357
-596.025	-54.964	-0.116	0.052
-595.011	-24.037	-0.310	0.184
-593.996	-25.677	-0.178	-0.105
-592.982	555.386	-0.057	0.136
-591.967	-81.401	-0.418	-0.137
-590.952	-186.386	0.097	-0.001
-589.938	-12.483	0.258	0.168
-588.923	-165.174	-0.154	0.007
-587.909	-3.515	-0.273	0.189
-586.894	-142.395	0.323	0.032
-585.879	439.937	0.080	-0.175
-584.865	160.776	-0.115	-0.159
-583.850	-147.531	-0.187	0.016
-582.836	-7.827	-0.169	0.113
-581.821	-133.353	-0.183	0.023
-580.806	-26.206	0.329	-0.192
-579.792	101.260	0.149	0.172
-578.777	-200.000	0.032	-0.244
-577.763	119.810	0.091	0.112
-576.748	5.857	-0.260	-0.192
-575.733	83.879	0.138	0.150
-574.719	98.158	-0.203	-0.232
-573.704	-24.442	0.366	-0.217
-572.690	19.965	-0.073	-0.059
-571.675	-150.987	0.321	-0.024
-570.661	352.625	-0.064	0.126
-569.646	402.559	-0.102	0.214
-568.631	-200.000	0.042	-0.291
-567.617	-200.000	0.001	0.229
-566.602	-118.092	0.236	0.042
-565.588	-47.979	-0.468	-0.225
-564.573	192.752	-0.039	-0.059
-563.558	-200.000	-0.021	-0.366
-562.544	-84.035	0.082	-0.026
-561.529	-47.741	0.213	0.103
-560.515	-88.076	0.374	0.112
-559.500	133.483	0.138	-0.177
-558.485	800.000	-0.063	0.189
-557.471	-124.545	-0.400	0.062
-556.456	336.374	0.083	0.161
-555.442	-2.584	0.113	-0.078
-554.427	-200.000	0.007	-0.104
-553.412	-56.856	0.240	-0.106
-552.398	-46.208	-0.141	-0.069
-551.383	800.000	0.146	0.430
-550.369	-164.294	0.112	-0.005
-549.354	-200.000	-0.026	-0.129
-548.339	215.592	0.188	-0.296
-547.325	-49.376	-0.294	-0.139
-546.310	178.687	0.085	0.123
-545.296	251.673	0.176	0.297
-544.281	-132.720	0.115	-0.015
-543.266	-96.933	0.119	-0.031
-542.252	-200.000	0.001	-0.140
-541.237	346.720	0.078	-0.152
-540.223	142.264	0.015	0.020
-539.208	-65.142	-0.252	-0.101
-538.193	408.009	0.092	-0.193
-537.179	-135.798	-0.299	0.035
-536.164	107.730	0.275	-0.326
-535.150	800.000	0.083	-0.295
-534.135	-103.059	-0.240	-0.057
-533.121	-24.984	-0.084	-0.049
-532.106	-148.014	0.416	-0.034
-531.091	800.000	-0.053	0.195
-530.077	-70.962	0.193	-0.072
-529.062	200.385	-0.048	0.073
-528.048	-200.000	0.002	-0.248
-527.033	800.000	-0.135	0.424
-526.018	-200.000	0.017	-0.147
-525.004	59.001	0.166	0.163
-523.989	-77.910	0.292	0.100
-522.975	-33.218	-0.184	0.101
-521.960	104.681	0.070	0.081
-520.945	193.384	-0.057	-0.086
-519.931	-116.473	-0.112	-0.021
-518.916	92.434	0.118	0.132
-517.902	800.000	0.097	-0.348
-516.887	800.000	-0.108	0.300
-515.872	-103.567	-0.182	-0.043
-514.858	51.308	0.156	-0.147
-513.843	126.618	0.192	0.241
-512.829	171.188	-0.065	-0.092
-511.814	-73.915	0.216	0.078
-510.799	-107.904	-0.355	-0.077
-509.785	-94.159	-0.262	-0.071
-508.770	215.255	0.104	-0.163
-507.756	-191.028	-0.095	0.001
-506.741	-143.546	-0.271	0.026
-505.726	225.297	-0.097	0.156
-504.712	-49.330	0.139	-0.066
-503.697	203.316	0.039	-0.060
-502.683	154.048	0.143	0.194
-501.668	-200.000	-0.065	-0.338
-500.653	-29.488	-0.284	0.161
-499.639	10.687	-0.093	-0.071
-498.624	-75.901	-0.320	0.112
-497.610	800.000	-0.017	-0.057
-496.595	200.970	0.048	-0.074
-495.581	711.824	-0.043	-0.114
-494.566	-200.000	0.005	0.031
-493.551	800.000	-0.156	0.541
-492.537	190.051	0.220	-0.327
-491.522	800.000	-0.058	-0.200
-490.508	-68.275	0.375	0.145
-489.493	-200.000	-0.004	-0.086
-488.478	15.849	-0.267	0.209
-487.464	-17.381	0.223	0.139
-486.449	800.000	0.118	-0.465
-485.435	85.561	-0.167	0.181
-484.420	16.067	-0.132	-0.103
-483.405	800.000	-0.069	-0.220
-482.391	-39.337	0.248	0.129
-481.376	80.311	-0.142	0.152
-480.362	-59.696	0.278	-0.118
-479.347	-151.788	0.280	0.020
-478.332	7.828	-0.401	0.298
-477.318	6.931	0.105	0.077
-476.303	800.000	-0.014	0.040
-475.289	77.426	0.203	-0.214
-474.274	-10.667	-0.151	-0.099
-473.259	10.406	0.188	0.142
-472.245	800.000	0.035	-0.144
-471.230	-12.221	0.092	0.059
-470.216	370.269	-0.096	0.193
-469.201	245.038	-0.148	0.247
-468.186	-200.000	-0.007	-0.099
-467.172	-171.221	0.282	-0.009
-466.157	-200.000	-0.053	0.305
-465.143	121.605	0.101	-0.125
-464.128	23.914	-0.145	-0.119
-463.113	800.000	-0.041	0.147
-462.099	-35.240	0.374	-0.202
-461.084	-69.158	0.263	-0.100
-460.070	-122.658	-0.497	0.080
-459.055	-73.150	0.194	0.071
-458.040	-24.587	0.103	-0.061
-457.026	-63.736	-0.250	-0.101
-456.011	487.714	-0.075	0.170
-454.997	-105.187	0.330	-0.075
-453.982	800.000	0.068	0.190
-452.968	-109.615	-0.294	0.061
-451.953	-64.101	0.184	0.074
-450.938	-119.155	-0.049	0.008
-449.924	48.437	-0.179	0.166
-448.909	-137.499	0.302	-0.034
-447.895	99.589	-0.175	-0.200
-446.880	-200.000	0.016	-0.190
-445.865	167.970	-0.207	-0.292
-444.851	800.000	0.061	0.213
-443.836	33.460	-0.224	-0.192
-442.822	800.000	0.077	0.249
-441.807	112.214	0.161	0.193
-440.792	255.325	0.163	-0.277
-439.778	-200.000	0.031	0.139
-438.763	-200.000	-0.017	0.313
-437.749	-21.906	0.133	0.080
-436.734	800.000	0.085	-0.275
-435.719	-75.792	-0.257	0.090
-434.705	23.651	-0.151	-0.123
-433.690	37.839	0.323	-0.284
-432.676	26.272	-0.215	0.177
-431.661	-97.529	-0.266	-0.068
-430.646	132.964	-0.120	-0.154
-429.632	-134.701	0.201	-0.024
-428.617	-45.963	-0.300	-0.146
-427.603	800.000	0.020	-0.059
-426.588	81.593	-0.068	0.073
-425.573	99.099	0.124	0.141
-424.559	-25.824	-0.159	0.093
-423.544	112.356	-0.220	-0.264
-422.530	-26.498	-0.086	0.050
-421.515	-114.325	0.380	-0.072
-420.500	-200.000	-0.024	-0.196
-419.486	-0.329	-0.283	0.199
-418.471	-81.193	0.292	0.096
-417.457	-169.217	0.110	-0.004
-416.442	418.298	0.111	-0.236
-415.428	-200.000	0.023	0.177
-414.413	-200.000	-0.021	-0.268
-413.398	-58.214	-0.117	-0.050
-412.384	-111.240	0.193	0.039
-411.369	191.559	0.094	0.141
-410.355	-93.395	0.234	-0.064
-409.340	-109.221	0.252	0.053
-408.325	800.000	-0.052	0.221
-407.311	-200.000	-0.018	-0.183
-406.296	13.817	0.314	0.241
-405.282	110.465	0.149	-0.177
-404.267	800.000	-0.023	-0.098
-403.252	6.980	0.169	-0.124
-402.238	800.000	-0.088	-0.267
-401.223	13.835	-0.206	-0.159
-400.209	-67.586	-0.400	-0.155
-399.194	-89.650	0.273	-0.079
-398.179	-200.000	0.007	-0.224
-397.165	800.000	0.040	0.122
-396.150	-200.000	0.009	-0.329
-395.136	24.508	-0.119	-0.097
-394.121	-200.000	-0.027	0.202
-393.106	-34.174	-0.146	-0.079
-392.092	56.818	-0.278	-0.268
-391.077	-200.000	-0.039	-0.178
-390.063	-160.519	-0.114	0.006
-389.048	-64.263	0.266	0.107
-388.033	-36.810	0.231	0.123
-387.019	800.000	-0.023	0.068
-386.004	-200.000	-0.029	0.171
-384.990	114.893	0.058	-0.070
-383.975	-62.744	-0.114	0.047
-382.960	233.396	0.116	0.189
-381.946	11.320	0.065	0.049
-380.931	14.174	0.075	0.057
-379.917	100.586	-0.216	0.248
-378.902	290.601	0.219	0.393
-377.888	-143.610	-0.165	0.016
-376.873	-108.334	-0.507	0.108
-375.858	800.000	0.042	0.163
-374.844	127.466	0.162	-0.204
-373.829	80.432	-0.142	0.151
-372.815	160.489	0.118	-0.163
-371.800	107.081	0.211	0.247
-370.785	-159.957	0.248	-0.013
-369.771	-115.830	-0.152	0.028
-368.756	-200.000	0.039	0.249
-367.742	423.318	-0.199	0.422
-366.727	-35.620	-0.262	-0.140
-365.712	372.849	-0.030	0.060
-364.698	333.019	0.065	-0.123
-363.683	-162.840	-0.104	0.005
-362.669	-35.962	0.308	0.164
-361.654	84.536	-0.081	0.087
-360.639	-5.451	-0.074	-0.050
-359.625	31.817	-0.088	-0.074
-358.610	316.858	-0.058	0.108
-357.596	-109.805	-0.175	0.036
-356.581	-200.000	0.031	-0.198
-355.566	159.932	-0.059	0.081
-354.552	-17.342	-0.495	-0.308
-353.537	51.276	-0.198	0.185
-352.523	800.000	-0.020	0.055
-351.508	677.141	-0.091	-0.234
-350.493	20.074	0.158	0.125
-349.479	800.000	-0.152	-0.491
-348.464	-76.921	0.169	0.058
-347.450	37.724	-0.405	0.355
-346.435	-81.276	-0.130	0.042
-345.420	108.634	0.026	-0.030
-344.406	349.815	0.251	-0.489
-343.391	69.200	-0.151	0.154
-342.377	-200.000	-0.059	-0.313
-341.362	800.000	0.043	0.158
-340.348	800.000	-0.064	-0.206
-339.333	203.582	0.076	-0.116
-338.318	-4.966	-0.155	0.105
-337.304	-155.771	0.030	0.002
-336.289	147.044	0.127	0.168
-335.275	-49.346	0.183	-0.086
-334.260	4.076	0.461	-0.332
-333.245	141.466	-0.166	-0.216
-332.231	-200.000	-0.029	-0.218
-331.216	-61.528	-0.046	0.019
-330.202	32.353	-0.222	0.189
-329.187	345.738	0.108	0.210
-328.172	-31.443	0.287	0.159
-327.158	800.000	-0.072	-0.300
-326.143	-200.000	0.048	-0.232
-325.129	-200.000	0.028	0.314
-324.114	-200.000	-0.021	-0.257
-323.099	55.669	0.044	-0.042
-322.085	-200.000	0.019	0.187
-321.070	279.404	-0.151	-0.266
-320.056	-200.000	0.005	0.509
-319.041	311.129	-0.088	-0.162
-318.026	-59.340	-0.259	-0.110
-317.012	-42.880	-0.145	-0.072
-315.997	-95.842	-0.270	-0.071
-314.983	-25.490	-0.078	-0.046
-313.968	-14.237	-0.122	0.077
-312.953	-139.770	-0.205	-0.021
-311.939	413.725	0.091	0.190
-310.924	493.764	-0.088	0.199
-309.910	151.873	-0.039	0.053
-308.895	484.526	-0.165	0.371
-307.880	800.000	-0.028	0.083
-306.866	-200.000	-0.027	-0.430
-305.851	535.828	-0.090	-0.211
-304.837	-12.978	0.113	-0.072
-303.822	49.294	0.154	0.143
-302.807	-18.995	0.293	-0.180
-301.793	-28.946	-0.097	0.055
-300.778	-200.000	0.011	0.082
-299.764	800.000	0.031	0.112
-298.749	-8.455	-0.171	-0.113
-297.735	-66.409	0.181	-0.071
-296.720	800.000	-0.043	0.148
-295.705	-175.780	0.331	0.009
-294.691	326.197	-0.126	0.237
-293.676	263.028	0.025	0.043
-292.662	-40.620	-0.140	-0.071
-291.647	-52.718	0.191	-0.087
-290.632	-173.419	0.097	-0.003
-289.618	-89.551	0.216	0.062
-288.603	59.635	-0.105	-0.102
-287.589	-128.316	0.226	-0.032
-286.574	-149.094	0.016	0.001
-285.559	-12.602	0.148	-0.095
-284.545	133.601	-0.188	0.239
-283.530	-200.000	0.059	-0.414
-282.516	800.000	-0.025	0.086
-281.501	164.147	0.115	0.160
-280.486	159.188	-0.028	-0.038
-279.472	-200.000	-0.023	0.205
-278.457	43.071	-0.099	-0.089
-277.443	-188.241	-0.152	0.002
-276.428	800.000	0.048	0.204
-275.413	79.040	0.103	0.109
-274.399	-200.000	0.050	0.245
-273.384	-99.154	0.154	-0.038
-272.370	82.238	-0.145	-0.155
-271.355	-39.424	-0.072	-0.037
-270.340	-130.602	0.236	-0.031
-269.326	347.721	0.153	0.297
-268.311	303.654	-0.015	-0.027
-267.297	-41.154	-0.241	-0.122
-266.282	-134.041	0.222	0.027
-265.267	-26.273	-0.133	-0.077
-264.253	-200.000	-0.046	0.339
-263.238	800.000	0.039	0.111
-262.224	-91.013	-0.054	0.015
-261.209	-200.000	-0.006	-0.251
-260.195	-200.000	0.057	-0.319
-259.180	-200.000	-0.057	0.256
-258.165	-200.000	-0.015	0.182
-257.151	-112.093	0.021	0.004
-256.136	-39.313	0.330	0.170
-255.122	160.938	-0.178	-0.245
-254.107	-200.000	-0.009	-0.192
-253.092	282.367	0.103	-0.182
-252.078	-200.000	-0.080	-0.350
-251.063	-68.858	0.039	0.015
-250.049	15.633	0.080	-0.062
-249.034	22.138	-0.162	-0.130
-248.019	15.676	-0.148	-0.114
-247.005	-163.289	0.242	0.011
-245.990	196.199	0.173	-0.259
-244.976	-200.000	-0.061	0.299
-243.961	59.303	-0.272	0.264
-242.946	800.000	0.052	0.196
-241.932	-197.517	-0.254	-0.002
-240.917	800.000	-0.078	-0.224
-239.903	800.000	-0.057	-0.157
-238.888	-200.000	-0.038	0.407
-237.873	390.609	0.130	0.265
-236.859	9.716	0.116	0.086
-235.844	8.728	0.177	-0.131
-234.830	-30.220	-0.184	-0.103
-233.815	-28.609	-0.171	0.097
-232.800	-11.791	0.173	0.112
-231.786	-31.086	0.144	0.080
-230.771	-5.770	0.128	0.086
-229.757	46.250	0.265	0.241
-228.742	453.172	-0.051	-0.110
-227.727	273.813	-0.035	0.060
-226.713	198.002	-0.109	-0.164
-225.698	-200.000	0.014	-0.131
-224.684	65.552	0.229	-0.227
-223.669	-22.000	0.084	-0.050
-222.655	-200.000	0.010	0.195
-221.640	212.407	0.094	-0.145
-220.625	800.000	0.072	0.244
-219.611	16.717	0.202	0.157
-218.596	-200.000	0.038	0.247
-217.582	-124.602	-0.318	-0.048
-216.567	-125.261	0.384	0.058
-215.552	119.482	0.112	0.136
-214.538	126.882	0.083	0.103
-213.523	-41.565	0.357	0.180
-212.509	175.576	0.181	0.257
-211.494	-30.810	0.225	-0.125
-210.479	-143.884	0.230	-0.021
-209.465	156.092	0.067	0.091
-208.450	8.744	0.130	-0.096
-207.436	-116.669	-0.198	0.036
-206.421	-102.911	-0.076	0.018
-205.406	63.354	0.138	0.135
-204.392	-49.744	0.141	-0.066
-203.377	122.075	0.102	-0.125
-202.363	-50.841	0.312	-0.144
-201.348	-84.742	0.150	0.046
-200.333	-66.316	-0.203	0.079
-199.319	800.000	-0.029	-0.103
-198.304	328.850	-0.114	0.214
-197.290	-200.000	0.044	-0.261
-196.275	800.000	-0.017	0.058
-195.260	365.373	0.012	0.024
-194.246	-200.000	-0.001	0.185
-193.231	100.506	-0.157	0.179
-192.217	800.000	0.099	0.379
-191.202	-14.021	-0.241	0.153
-190.187	-17.051	-0.079	-0.049
-189.173	-10.557	-0.285	0.185
-188.158	11.560	-0.200	-0.151
-187.144	209.990	-0.013	0.020
-186.129	-80.347	-0.369	-0.121
-185.114	-128.786	-0.187	-0.026
-184.100	361.005	0.119	-0.234
-183.085	247.442	0.124	0.205
-182.071	127.610	-0.083	-0.103
-181.056	-105.427	0.225	-0.050
-180.042	-79.974	-0.261	0.086
-179.027	311.809	-0.065	0.119
-178.012	-40.466	0.167	0.085
-176.998	-24.846	-0.166	-0.097
-175.983	-101.166	-0.247	-0.059
-174.969	-200.000	-0.046	-0.253
-173.954	405.004	0.126	0.261
-172.939	800.000	0.034	-0.108
-171.925	599.526	-0.064	0.155
-170.910	-129.050	0.525	-0.072
-169.896	-200.000	0.001	0.364
-168.881	42.100	-0.044	0.039
-167.866	265.244	0.058	0.099
-166.852	-200.000	0.017	0.151
-165.837	-51.303	-0.384	0.176
-164.823	-200.000	0.001	-0.036
-163.808	40.963	-0.248	-0.220
-162.793	-126.159	0.439	0.064
-161.779	215.391	-0.066	0.103
-160.764	-200.000	0.002	-0.039
-159.750	395.514	-0.072	-0.147
-158.735	510.300	-0.097	0.221
-157.720	22.738	0.160	-0.128
-156.706	-200.000	-0.043	0.361
-155.691	88.943	0.083	0.091
-154.677	-49.949	0.196	-0.091
-153.662	175.442	0.263	-0.374
-152.647	-51.530	0.199	-0.091
-151.633	-40.289	0.275	0.140
-150.618	-70.315	0.256	0.095
-149.604	-26.964	-0.099	0.057
-148.589	206.387	0.090	0.138
-147.574	-78.104	-0.404	-0.136
-146.560	-130.226	0.212	-0.028
-145.545	-200.000	0.002	-0.293
-144.531	25.855	-0.037	-0.030
-143.516	317.931	-0.086	0.159
-142.502	257.302	-0.107	0.181
-141.487	779.838	0.035	-0.094
-140.472	800.000	-0.103	0.296
-139.458	-6.991	0.174	0.116
-138.443	-98.061	0.435	0.110
-137.429	-0.194	-0.337	0.234
-136.414	17.331	0.150	-0.116
-135.399	-61.165	0.300	-0.124
-134.385	-23.146	0.188	-0.111
-133.370	-154.325	-0.198	0.013
-132.356	800.000	0.092	0.300
-131.341	-200.000	-0.013	-0.199
-130.326	303.911	0.094	0.170
-129.312	-53.457	-0.270	-0.121
-128.297	800.000	-0.043	0.123
-127.283	76.086	-0.179	-0.185
-126.268	-31.083	0.157	0.087
-125.253	50.042	-0.208	0.192
-124.239	-171.107	0.213	-0.007
-123.224	333.147	-0.118	0.223
-122.210	-112.470	0.262	-0.051
-121.195	-200.000	-0.065	0.406
-120.180	-200.000	-0.011	0.133
-119.166	126.620	0.204	0.253
-118.151	223.917	-0.098	-0.154
-117.137	181.313	-0.096	-0.138
-116.122	-31.159	0.561	-0.309
-115.107	77.240	-0.083	-0.086
-114.093	497.134	0.053	0.119
-113.078	-145.674	0.063	-0.006
-112.064	-151.958	0.020	-0.001
-111.049	117.955	-0.176	0.212
-110.034	32.839	0.081	-0.069
-109.020	-28.814	-0.117	-0.065
-108.005	23.125	-0.105	0.085
-106.991	-144.631	0.145	0.013
-105.976	207.636	0.144	0.219
-104.962	800.000	-0.036	0.137
-103.947	-54.341	0.066	0.029
-102.932	-91.173	-0.252	-0.071
-101.918	800.000	-0.115	0.380
-100.903	-41.227	-0.158	-0.080
-99.889	-14.262	0.054	-0.034
-98.874	-117.543	-0.101	-0.018
-97.859	-145.788	-0.238	0.021
-96.845	-54.009	0.147	0.066
-95.830	280.177	0.019	0.034
-94.816	733.879	-0.019	-0.051
-93.801	-200.000	0.002	-0.094
-92.786	-200.000	0.030	0.141
-91.772	-200.000	-0.065	0.296
-90.757	-79.573	-0.063	-0.021
-89.743	-200.000	-0.026	0.168
-88.728	800.000	0.062	0.202
-87.713	-200.000	-0.007	-0.260
-86.699	7.527	-0.154	0.113
-85.684	-6.812	-0.167	0.111
-84.670	-100.467	0.165	-0.040
-83.655	-200.000	-0.050	-0.000
-82.640	-110.621	-0.228	0.046
-81.626	587.891	-0.074	0.179
-80.611	800.000	0.101	-0.379
-79.597	800.000	0.046	0.124
-78.582	800.000	0.032	-0.092
-77.567	69.765	0.216	0.217
-76.553	-200.000	-0.082	-0.372
-75.538	-179.768	0.468	-0.010
-74.524	-200.000	0.019	-0.185
-73.509	-135.850	0.087	0.010
-72.494	-82.615	-0.083	0.026
-71.480	46.508	0.201	0.182
-70.465	394.382	-0.102	-0.208
-69.451	-63.700	-0.286	0.115
-68.436	191.561	0.082	-0.121
-67.422	-55.269	-0.273	0.120
-66.407	564.835	-0.185	0.437
-65.392	-55.353	0.202	0.088
-64.378	-135.325	-0.487	0.057
-63.363	90.786	0.162	-0.177
-62.349	-123.970	-0.119	-0.018
-61.334	30.517	-1.129	-0.942
-60.319	49.601	0.802	0.737
-59.305	413.544	-0.771	-1.599
-58.290	599.731	0.797	1.928
-57.276	800.000	0.584	1.863
-56.261	-200.000	136.690	643.443
-55.246	333.985	1662.964	3137.708
-54.232	134.541	2795.837	3536.538
-53.217	84.128	2167.453	2308.939
-52.203	30.717	1600.633	1335.715
-51.188	23.117	1351.517	1081.518
-50.173	21.272	1316.108	1042.145
-49.159	47.893	1390.357	1266.020
-48.144	43.809	1399.417	1249.096
-47.130	23.311	1347.054	1078.956
-46.115	20.364	1328.321	1046.184
-45.100	20.015	1323.527	1040.268
-44.086	20.105	1320.957	1038.745
-43.071	20.065	1318.481	1036.520
-42.057	19.924	1317.011	1034.482
-41.042	19.958	1315.612	1033.543
-40.027	20.068	1313.271	1032.321
-39.013	20.084	1311.192	1030.738
-37.998	20.014	1309.746	1029.145
-36.984	20.227	1307.580	1028.662
-35.969	20.289	1306.164	1027.880
-34.954	20.209	1304.527	1026.077
-33.940	20.138	1303.700	1024.963
-32.925	20.088	1302.653	1023.803
-31.911	20.278	1300.760	1023.395
-30.896	20.250	1299.174	1021.942
-29.881	20.344	1298.035	1021.563
-28.867	20.307	1296.579	1020.156
-27.852	20.363	1294.993	1019.200
-26.838	20.262	1293.553	1017.432
-25.823	20.379	1291.723	1016.640
-24.809	20.221	1291.453	1015.458
-23.794	20.343	1289.446	1014.553
-22.779	20.244	1288.363	1013.085
-21.765	20.187	1287.911	1012.353
-20.750	20.263	1285.683	1011.005
-19.736	20.127	1284.576	1009.302
-18.721	20.222	1283.268	1008.788
-17.706	20.177	1282.333	1007.753
-16.692	20.081	1281.394	1006.416
-15.677	20.089	1280.334	1005.592
-14.663	20.266	1278.394	1005.055
-13.648	20.219	1277.439	1003.989
-12.633	20.123	1276.663	1002.785
-11.619	20.103	1276.163	1002.234
-10.604	20.093	1275.291	1001.457
-9.590	20.058	1274.568	1000.642
-8.575	20.106	1273.344	999.920
-7.560	20.165	1272.347	999.436
-6.546	20.158	1271.463	998.662
-5.531	20.105	1270.889	997.868
-4.517	20.160	1269.849	997.328
-3.502	20.127	1269.384	996.735
-2.487	20.073	1268.822	995.942
-1.473	20.005	1263.709	991.501
-0.458	18.195	1248.688	969.429
0.556	13.738	1232.853	931.490
1.571	10.182	1240.864	917.332
2.586	9.402	1256.605	924.403
3.600	9.485	1244.107	915.600
4.615	7.138	1172.930	850.547
5.629	2.764	1104.236	778.503
6.644	0.745	1088.421	757.182
7.659	0.626	1086.821	755.403
8.673	0.572	1086.068	754.546
9.688	0.567	1084.823	753.587
10.702	0.657	1082.245	752.177
11.717	3.360	1084.568	767.199
12.731	9.554	1092.374	803.635
13.746	15.133	1100.009	837.142
14.761	17.101	1102.745	849.002
15.775	16.558	1100.859	844.764
16.790	15.634	1098.629	838.366
17.804	14.873	1097.703	833.794
18.819	14.577	1095.828	830.822
19.834	14.436	1095.360	829.689
20.848	13.984	1094.876	827.001
21.863	13.849	1093.795	825.440
22.877	13.706	1092.922	823.999
23.892	13.678	1091.953	823.056
24.907	13.695	1091.268	822.552
25.921	13.789	1090.423	822.306
26.936	13.806	1089.399	821.546
27.950	13.770	1088.652	820.735
28.965	13.941	1086.858	820.154
29.980	13.879	1085.930	819.075
30.994	13.976	1084.744	818.587
32.009	13.775	1084.731	817.511
33.023	13.854	1083.422	816.844
34.038	13.882	1082.100	815.913
35.053	13.791	1081.533	814.962
36.067	13.809	1080.245	814.011
37.082	13.781	1079.584	813.303
38.096	13.786	1078.837	812.693
39.111	13.836	1078.070	812.290
40.126	13.721	1076.641	810.578
41.140	13.686	1075.464	809.449
42.155	13.695	1074.243	808.501
43.169	13.737	1073.296	807.923
44.184	13.693	1072.091	806.727
45.199	13.658	1071.623	806.134
46.213	13.734	1070.082	805.275
47.228	13.728	1068.742	804.164
48.242	13.636	1068.151	803.202
49.257	13.700	1066.927	802.524
50.271	13.800	1065.933	802.184
51.286	13.795	1065.001	801.392
52.301	13.766	1064.108	800.506
53.315	13.753	1063.034	799.567
54.330	13.797	1061.905	798.857
55.344	13.728	1061.126	797.868
56.359	13.828	1059.824	797.298
57.374	13.776	1059.274	796.565
58.388	13.726	1058.312	795.534
59.403	13.587	1057.538	794.215
60.417	13.625	1056.767	793.747
61.432	13.615	1055.955	793.017
62.447	13.613	1055.429	792.545
63.461	13.590	1054.170	791.421
64.476	13.517	1053.166	790.247
65.490	13.598	1052.665	790.189
66.505	13.751	1051.780	790.179
67.520	13.708	1051.029	789.342
68.534	13.734	1049.849	788.512
69.549	13.762	1049.601	788.389
70.563	13.654	1048.596	787.049
71.578	13.559	1047.765	785.904
72.593	13.617	1046.790	785.381
73.607	13.558	1046.426	784.758
74.622	13.599	1045.629	784.286
75.636	13.617	1044.918	783.765
76.651	13.447	1044.470	782.559
77.666	13.622	1043.847	782.847
78.680	13.641	1042.814	782.097
79.695	13.691	1042.063	781.700
80.709	13.649	1041.473	780.988
81.724	13.656	1040.919	780.535
82.739	13.674	1039.754	779.678
83.753	13.833	1039.479	780.151
84.768	13.727	1038.298	778.699
85.782	13.807	1037.455	778.371
86.797	13.820	1036.368	777.547
87.812	13.720	1035.619	776.449
88.826	13.701	1034.297	775.302
89.841	13.859	1033.342	775.256
90.855	13.797	1032.868	774.541
91.870	13.843	1031.688	773.802
92.884	13.800	1031.021	773.031
93.899	13.788	1030.112	772.229
94.914	13.863	1029.278	771.881
95.928	13.987	1028.358	771.701
96.943	13.840	1027.363	770.204
97.957	13.808	1026.901	769.640
98.972	14.032	1025.225	769.353
99.987	13.839	1024.764	768.046
101.001	13.815	1024.097	767.366
102.016	13.748	1023.076	766.226
103.030	13.822	1022.637	766.168
104.045	13.822	1021.609	765.331
105.060	13.813	1020.434	764.341
106.074	13.780	1020.215	763.958
107.089	13.701	1018.857	762.513
108.103	13.680	1018.733	762.253
109.118	13.689	1017.424	761.251
110.133	13.800	1016.103	760.702
111.147	13.701	1015.357	759.621
112.162	13.752	1014.092	758.841
113.176	13.719	1013.507	758.187
114.191	13.817	1012.722	757.981
115.206	13.711	1011.777	756.720
116.220	13.834	1010.993	756.631
117.235	13.811	1009.969	755.693
118.249	13.629	1009.926	754.765
119.264	13.788	1008.736	754.529
120.279	13.882	1008.097	754.414
121.293	13.749	1006.965	752.898
122.308	13.711	1006.289	752.153
123.322	13.772	1005.026	751.418
124.337	13.863	1004.039	751.022
125.352	13.808	1002.808	749.788
126.366	13.553	1002.389	748.259
127.381	13.673	1001.003	747.699
128.395	13.805	999.712	747.262
129.410	13.809	998.814	746.541
130.424	13.753	997.878	745.526
131.439	13.903	997.161	745.594
132.454	13.835	996.728	744.903
133.468	13.864	995.760	744.242
134.483	13.943	994.665	743.713
135.497	13.738	993.827	742.104
136.512	13.808	992.896	741.655
137.527	13.756	992.025	740.706
138.541	13.914	991.387	740.868
139.556	13.890	991.326	740.652
140.570	13.828	990.203	739.468
141.585	13.903	989.349	739.101
142.600	13.842	988.600	738.205
143.614	13.977	987.702	738.068
144.629	14.002	986.497	737.212
145.643	14.012	985.669	736.575
146.658	14.005	984.509	735.610
147.673	13.962	983.891	734.894
148.687	13.927	982.747	733.820
149.702	13.948	981.671	733.043
150.716	13.922	981.075	732.419
151.731	13.790	980.600	731.420
152.746	13.921	979.817	731.348
153.760	13.951	979.218	730.968
154.775	14.029	978.879	730.992
155.789	14.087	977.837	730.403
156.804	14.003	977.343	729.603
157.819	14.080	976.268	729.073
158.833	14.074	976.183	728.918
159.848	14.156	975.280	728.538
160.862	14.165	973.861	727.454
161.877	14.064	973.161	726.424
162.892	14.173	971.847	725.858
163.906	14.079	970.812	724.608
164.921	14.046	970.297	724.015
165.935	14.046	969.692	723.500
166.950	14.246	968.476	723.399
167.964	14.194	967.493	722.376
168.979	14.120	966.679	721.382
169.994	14.161	965.898	720.914
171.008	14.114	965.345	720.233
172.023	14.282	964.491	720.257
173.037	14.357	963.506	719.785
174.052	14.212	963.183	718.851
175.067	14.163	962.426	718.013
176.081	14.195	961.784	717.606
177.096	14.200	961.349	717.240
178.110	14.266	960.891	717.120
179.125	14.236	960.136	716.366
180.140	14.382	959.579	716.512
181.154	14.290	959.047	715.657
182.169	14.235	958.624	715.041
183.183	14.354	957.886	714.940
184.198	14.452	957.065	714.685
185.213	14.439	956.241	713.951
186.227	14.454	955.324	713.264
187.242	14.406	954.991	712.751
188.256	14.456	954.557	712.575
189.271	14.426	953.575	711.651
190.286	14.367	953.026	710.925
191.300	14.233	952.000	709.528
192.315	14.319	951.074	709.141
193.329	14.423	950.611	709.173
194.344	14.296	950.288	708.332
195.359	14.389	949.797	708.297
196.373	14.485	948.869	707.951
197.388	14.664	948.053	708.039
198.402	14.651	947.929	707.830
199.417	14.606	947.155	706.996
200.432	14.586	946.653	706.473
201.446	14.745	946.038	706.628
202.461	14.789	945.509	706.354
203.475	14.757	944.729	705.574
204.490	14.722	943.794	704.664
205.504	14.585	943.592	703.874
206.519	14.653	942.512	703.293
207.534	14.636	941.995	702.775
208.548	14.640	941.201	702.137
209.563	14.560	940.905	701.518
210.577	14.694	939.858	701.239
211.592	14.785	939.319	701.155
212.607	14.897	938.273	700.782
213.621	14.796	937.574	699.776
214.636	14.906	936.790	699.589
215.650	14.761	936.476	698.683
216.665	14.919	935.416	698.491
217.680	14.796	934.909	697.538
218.694	14.783	934.209	696.902
219.709	14.874	933.326	696.557
220.723	14.760	933.112	695.864
221.738	14.888	931.991	695.499
222.753	14.963	931.271	695.212
223.767	14.981	930.870	694.923
224.782	14.999	930.403	694.588
225.796	15.095	929.772	694.454
226.811	14.941	929.467	693.528
227.826	15.025	928.302	692.946
228.840	15.127	927.457	692.673
229.855	14.954	926.677	691.316
230.869	15.036	925.924	691.031
231.884	15.120	925.028	690.646
232.899	14.951	924.345	689.382
233.913	14.969	924.051	689.173
234.928	15.029	922.935	688.528
235.942	15.044	922.310	688.061
236.957	14.902	921.979	687.171
237.972	15.013	921.594	687.279
238.986	15.037	920.542	686.533
240.001	15.040	920.190	686.220
241.015	15.112	919.174	685.696
242.030	15.029	918.952	685.132
243.045	15.155	918.362	685.147
244.059	15.111	917.672	684.390
245.074	15.137	916.924	683.880
246.088	15.346	915.933	683.932
247.103	15.209	915.489	682.980
248.117	15.274	915.196	682.966
249.132	15.284	914.637	682.530
250.147	15.283	914.063	682.038
251.161	15.408	913.027	681.712
252.176	15.405	912.577	681.303
253.190	15.353	912.044	680.632
254.205	15.418	911.194	680.203
255.220	15.312	910.872	679.474
256.234	15.551	909.787	679.570
257.249	15.479	909.183	678.770
258.263	15.579	908.331	678.474
259.278	15.451	907.957	677.620
260.293	15.526	907.369	677.422
261.307	15.688	906.798	677.588
262.322	15.671	906.019	676.881
263.336	15.599	905.012	675.779
264.351	15.704	903.976	675.364
265.366	15.731	903.635	675.160
266.380	15.689	902.973	674.438
267.395	15.564	902.698	673.672
268.409	15.634	901.899	673.295
269.424	15.841	900.752	673.207
270.439	15.680	900.085	672.005
271.453	15.726	899.542	671.725
272.468	15.726	899.208	671.415
273.482	15.575	898.772	670.428
274.497	15.646	898.008	670.083
275.512	15.807	897.398	670.209
276.526	15.844	897.129	670.094
277.541	15.843	896.470	669.542
278.555	15.874	895.602	668.955
279.570	15.978	894.713	668.647
280.585	15.861	894.095	667.661
281.599	15.855	893.137	666.863
282.614	15.774	892.966	666.356
283.628	15.832	892.366	666.079
284.643	15.965	891.473	665.877
285.657	15.918	890.872	665.184
286.672	15.989	890.283	664.968
287.687	16.038	889.675	664.646
288.701	16.025	888.904	663.962
289.716	15.979	888.408	663.352
290.730	16.026	887.741	662.979
291.745	15.989	887.479	662.578
292.760	15.892	886.966	661.757
293.774	16.137	885.886	661.854
294.789	16.045	885.602	661.222
295.803	16.078	884.431	660.417
296.818	16.110	883.930	660.112
297.833	16.054	883.043	659.172
298.847	16.055	882.575	658.768
299.862	16.173	882.115	658.827
300.876	16.100	881.459	657.992
301.891	16.099	880.974	657.570
302.906	16.238	880.345	657.584
303.920	16.257	879.924	657.284
304.935	16.186	879.336	656.512
305.949	16.450	878.200	656.632
306.964	16.311	877.742	655.692
307.979	16.419	876.987	655.489
308.993	16.424	876.398	655.007
310.008	16.302	876.100	654.256
311.022	16.329	875.505	653.858
312.037	16.173	875.303	653.045
313.052	16.315	874.344	652.819
314.066	16.315	873.831	652.379
315.081	16.295	873.131	651.723
316.095	16.438	872.285	651.587
317.110	16.406	871.806	651.046
318.125	16.319	871.682	650.558
319.139	16.441	870.933	650.414
320.154	16.377	870.721	649.951
321.168	16.411	869.932	649.435
322.183	16.338	868.839	648.280
323.197	16.550	868.621	648.877
324.212	16.564	868.155	648.525
325.227	16.427	867.790	647.669
326.241	16.388	867.377	647.152
327.256	16.534	866.389	646.916
328.270	16.564	865.467	646.288
329.285	16.586	865.110	646.046
330.300	16.401	864.742	645.007
331.314	16.390	864.213	644.515
332.329	16.437	863.944	644.437
333.343	16.448	863.468	644.066
334.358	16.583	862.867	644.075
335.373	16.523	862.646	643.624
336.387	16.488	862.538	643.352
337.402	16.679	861.676	643.379
338.416	16.752	861.432	643.419
339.431	16.800	860.759	643.039
340.446	16.813	860.462	642.810
341.460	16.767	859.920	642.175
342.475	16.765	859.692	641.940
343.489	16.853	859.040	641.730
344.504	16.823	858.640	641.261
345.519	16.793	858.401	640.914
346.533	16.915	857.506	640.648
347.548	17.002	857.224	640.707
348.562	16.842	856.818	639.745
349.577	16.829	856.127	639.122
350.592	16.964	855.358	639.002
351.606	16.868	854.871	638.219
352.621	16.912	854.060	637.722
353.635	16.848	853.786	637.220
354.650	16.972	852.692	636.816
355.665	17.159	851.597	636.640
356.679	17.003	851.240	635.732
357.694	16.936	851.313	635.482
358.708	16.918	850.276	634.585
359.723	16.952	850.187	634.587
360.738	17.047	849.030	634.022
361.752	17.082	848.509	633.709
362.767	17.138	848.046	633.516
363.781	17.058	847.611	632.838
364.796	17.214	847.239	633.083
365.810	17.144	846.482	632.203
366.825	17.265	845.884	632.149
367.840	17.245	845.622	631.821
368.854	17.284	844.935	631.399
369.869	17.420	844.670	631.649
370.883	17.251	844.272	630.671
371.898	17.149	844.251	630.220
372.913	17.560	843.260	630.945
373.927	17.393	842.935	630.028
374.942	17.440	842.565	629.872
375.956	17.450	842.359	629.699
376.971	17.411	841.282	628.694
377.986	17.534	840.913	628.817
379.000	17.599	840.490	628.686
380.015	17.603	839.837	628.156
381.029	17.513	839.673	627.645
382.044	17.537	838.774	627.006
383.059	17.540	838.163	626.503
384.073	17.458	838.354	626.291
385.088	17.432	837.371	625.405
386.102	17.495	836.576	624.985
387.117	17.428	836.268	624.454
388.132	17.544	835.462	624.223
389.146	17.450	835.200	623.628
390.161	17.623	834.606	623.763
391.175	17.719	833.919	623.545
392.190	17.601	833.435	622.696
393.205	17.412	833.378	621.908
394.219	17.606	832.559	621.949
395.234	17.631	832.437	621.896
396.248	17.598	832.236	621.568
397.263	17.563	831.591	620.906
398.278	17.624	831.442	620.963
399.292	17.584	830.885	620.346
400.307	17.593	829.953	619.629
401.321	17.682	829.603	619.632
402.336	17.716	828.783	619.090
403.350	17.700	828.585	618.829
404.365	17.778	828.308	618.851
405.380	17.779	827.829	618.444
406.394	17.774	827.105	617.829
407.409	17.924	826.438	617.820
408.423	17.868	826.498	617.605
409.438	18.055	825.941	617.813
410.453	17.929	825.466	616.945
411.467	17.904	825.160	616.574
412.482	17.999	824.755	616.559
413.496	17.963	824.394	616.105
414.511	18.083	824.025	616.207
415.526	18.075	823.610	615.814
416.540	18.020	823.055	615.145
417.555	18.016	822.908	614.967
418.569	18.118	821.953	614.565
419.584	18.123	821.791	614.406
420.599	18.076	821.080	613.652
421.613	115.630	1301.864	1491.923
422.628	100.345	1371.841	1491.975
