DTS Sentinel unit serial number:	SN413079Multiplexer serial number:	ORYXHardware model number:	OX4-SRSoftware version number:	ORYX F/W v4.00 Oryx Data Collector v3.7.2.0data status	okinstallation	princeton_trtdifferential loss correction	single-endedforward channel	channel 1reverse channel	N/Adate	2019/09/18time	05:46:35forward acquisition time	60.00reverse acquisition time	0.00gamma	496.2192k internal	0.2340k external	0.2340temperature offset calibration	0.9981default loss term (dB/km)	0.3790temperature slope calibration	1.0000multiplexer offset coefficient	1.0000multiplexer slope coefficient	1.0000fibre end	0.00T internal ref (°C)	23.28T ext. ref 1 (°C)	0.19T ext. ref 2 (°C)	16.95length (m)	temperature (°C)	Stokes	anti-Stokes-747.200	-38.006	0.458	0.244
-746.185	-77.400	-0.079	-0.028
-745.171	-200.000	0.030	0.260
-744.156	105.467	-0.124	0.146
-743.142	112.209	0.035	0.043
-742.127	-80.462	-0.128	-0.043
-741.112	56.750	0.104	0.101
-740.098	-96.516	0.052	-0.014
-739.083	-27.940	0.189	0.110
-738.069	232.080	-0.249	0.410
-737.054	447.124	-0.124	0.274
-736.039	279.372	-0.099	0.177
-735.025	-26.347	0.432	0.254
-734.010	-200.000	0.012	0.179
-732.996	-112.321	-0.206	0.041
-731.981	61.656	0.039	-0.039
-730.966	-171.467	-0.146	0.005
-729.952	-200.000	-0.032	-0.382
-728.937	-35.882	-0.189	0.103
-727.923	-110.355	-0.272	0.057
-726.908	-110.194	-0.267	-0.056
-725.894	800.000	0.058	0.191
-724.879	-17.234	-0.264	0.167
-723.864	-16.865	-0.309	-0.196
-722.850	-1.413	0.260	-0.184
-721.835	-200.000	-0.008	0.117
-720.821	-200.000	0.055	-0.304
-719.806	640.642	-0.190	-0.485
-718.791	132.721	0.137	-0.177
-717.777	-45.934	0.278	-0.137
-716.762	-71.785	0.097	-0.036
-715.748	78.835	-0.033	-0.035
-714.733	-173.197	0.300	0.009
-713.718	104.230	0.203	-0.239
-712.704	-100.862	0.244	0.060
-711.689	-123.753	-0.188	0.030
-710.675	390.124	0.071	-0.147
-709.660	-200.000	0.060	-0.384
-708.645	-158.994	-0.160	-0.009
-707.631	-19.149	0.395	0.246
-706.616	-200.000	0.040	0.259
-705.602	-200.000	-0.021	-0.174
-704.587	-79.239	-0.143	0.049
-703.572	-97.831	0.168	-0.043
-702.558	-48.194	0.079	0.038
-701.543	73.758	0.073	0.077
-700.529	800.000	-0.061	-0.180
-699.514	414.248	0.109	0.233
-698.499	337.076	0.086	0.168
-697.485	431.075	-0.102	-0.222
-696.470	-96.104	0.059	-0.016
-695.456	66.629	0.061	-0.062
-694.441	-91.063	0.073	-0.021
-693.426	-200.000	-0.028	-0.197
-692.412	800.000	0.022	0.082
-691.397	177.111	-0.092	-0.134
-690.383	-149.703	0.218	0.017
-689.368	-120.357	-0.320	-0.055
-688.354	-200.000	0.008	0.109
-687.339	-144.671	0.437	0.040
-686.324	-78.009	0.166	-0.057
-685.310	800.000	-0.020	-0.078
-684.295	-78.230	0.254	-0.087
-683.281	-67.230	-0.163	0.064
-682.266	-200.000	0.028	-0.180
-681.251	-10.670	-0.105	-0.070
-680.237	67.551	0.280	0.286
-679.222	800.000	0.126	0.394
-678.208	546.577	-0.137	0.328
-677.193	-56.347	0.085	0.038
-676.178	-136.963	-0.256	-0.029
-675.164	-200.000	-0.038	-0.334
-674.149	800.000	-0.117	0.469
-673.135	23.128	-0.216	-0.177
-672.120	-200.000	-0.037	0.224
-671.105	-200.000	-0.006	-0.278
-670.091	-91.686	-0.161	-0.046
-669.076	-143.735	-0.363	-0.034
-668.062	-105.705	-0.379	-0.086
-667.047	-77.871	-0.103	0.035
-666.032	-200.000	0.372	0.001
-665.018	-29.705	-0.265	-0.151
-664.003	800.000	-0.095	0.338
-662.989	-200.000	-0.005	-0.227
-661.974	-13.961	-0.244	-0.157
-660.959	-22.561	-0.403	0.244
-659.945	-90.449	-0.207	-0.060
-658.930	800.000	-0.075	-0.274
-657.916	224.610	-0.050	0.082
-656.901	451.172	-0.073	0.160
-655.886	800.000	-0.092	0.301
-654.872	207.850	-0.095	-0.148
-653.857	-173.480	-0.270	0.008
-652.843	-69.477	-0.213	-0.082
-651.828	-200.000	0.043	-0.227
-650.814	206.920	0.106	-0.166
-649.799	-145.483	-0.351	-0.032
-648.784	-33.942	-0.031	-0.017
-647.770	-1.619	0.153	-0.107
-646.755	52.175	0.015	0.014
-645.741	259.762	0.169	-0.291
-644.726	-9.970	0.245	-0.162
-643.711	303.673	-0.035	0.066
-642.697	800.000	0.020	-0.060
-641.682	1.561	0.209	0.150
-640.668	29.149	-0.219	0.185
-639.653	-115.055	-0.151	-0.029
-638.638	-22.761	0.149	0.090
-637.624	236.797	0.188	0.311
-636.609	200.782	-0.052	0.080
-635.595	-96.045	-0.280	-0.074
-634.580	86.179	-0.184	0.203
-633.565	-98.130	-0.306	-0.079
-632.551	-98.332	0.068	0.017
-631.536	-72.364	0.246	0.091
-630.522	-200.000	0.030	-0.220
-629.507	66.761	-0.173	-0.176
-628.492	-36.732	-0.305	0.163
-627.478	284.226	-0.133	0.238
-626.463	12.206	-0.279	-0.214
-625.449	245.888	0.064	-0.107
-624.434	-200.000	0.066	0.302
-623.419	-200.000	-0.016	0.390
-622.405	33.726	-0.117	-0.102
-621.390	-162.895	-0.220	0.011
-620.376	304.466	-0.087	-0.161
-619.361	-134.984	-0.164	-0.020
-618.346	-123.089	0.066	0.011
-617.332	-100.575	-0.127	-0.031
-616.317	375.608	-0.140	-0.284
-615.303	-200.000	0.003	0.056
-614.288	-128.029	-0.186	0.027
-613.273	-7.494	0.239	-0.161
-612.259	-32.563	-0.148	-0.082
-611.244	10.233	-0.072	-0.055
-610.230	-200.000	0.035	0.324
-609.215	347.309	0.021	0.041
-608.201	80.067	-0.252	-0.270
-607.186	-200.000	-0.033	-0.156
-606.171	219.244	0.126	0.201
-605.157	110.117	0.092	0.110
-604.142	-105.227	-0.364	0.083
-603.128	54.125	-0.199	-0.191
-602.113	-43.532	0.407	-0.205
-601.098	800.000	-0.039	0.122
-600.084	-157.493	-0.206	0.012
-599.069	-112.540	-0.119	-0.024
-598.055	800.000	-0.073	0.313
-597.040	-145.373	-0.338	-0.030
-596.025	-200.000	-0.017	-0.269
-595.011	-200.000	-0.026	-0.270
-593.996	-98.417	0.132	-0.034
-592.982	-12.237	-0.227	0.148
-591.967	31.509	0.125	0.107
-590.952	283.717	0.147	-0.263
-589.938	-149.857	-0.152	-0.012
-588.923	352.910	0.173	0.343
-587.909	-125.355	0.124	-0.019
-586.894	84.250	-0.320	-0.349
-585.879	149.367	0.129	-0.174
-584.865	-48.558	-0.363	-0.174
-583.850	78.535	-0.139	0.148
-582.836	-116.334	0.432	-0.080
-581.821	-104.250	-0.243	0.056
-580.806	-40.223	0.168	-0.087
-579.792	195.415	-0.135	-0.204
-578.777	11.269	-0.092	0.070
-577.763	111.128	0.057	-0.069
-576.748	-200.000	-0.025	-0.265
-575.733	790.409	0.114	-0.313
-574.719	0.176	0.374	0.266
-573.704	76.880	-0.126	0.133
-572.690	-110.365	0.222	0.046
-571.675	129.808	0.201	0.257
-570.661	-36.113	0.165	0.089
-569.646	-200.000	-0.010	-0.043
-568.631	-200.000	-0.002	-0.107
-567.617	800.000	0.071	0.238
-566.602	78.914	-0.042	-0.045
-565.588	-200.000	0.005	0.140
-564.573	-96.291	0.096	0.025
-563.558	-104.628	0.199	0.046
-562.544	405.515	-0.169	-0.356
-561.529	133.516	0.045	-0.058
-560.515	-200.000	-0.046	0.224
-559.500	-200.000	-0.019	0.305
-558.485	220.275	-0.251	0.400
-557.471	-171.457	0.201	0.007
-556.456	123.974	0.157	-0.197
-555.442	-189.876	-0.331	-0.004
-554.427	257.786	0.181	0.309
-553.412	75.007	-0.165	-0.173
-552.398	0.688	0.177	-0.126
-551.383	29.794	0.047	0.040
-550.369	-200.000	0.045	0.239
-549.354	-100.917	-0.221	0.054
-548.339	800.000	0.014	-0.042
-547.325	205.439	-0.242	0.375
-546.310	800.000	-0.025	0.094
-545.296	-200.000	0.044	-0.329
-544.281	44.102	0.194	-0.177
-543.266	39.410	0.121	0.108
-542.252	194.948	-0.005	-0.007
-541.237	-200.000	-0.001	-0.020
-540.223	-71.835	0.103	-0.038
-539.208	26.036	0.074	0.062
-538.193	464.527	-0.070	0.156
-537.179	-134.838	-0.084	0.010
-536.164	-200.000	-0.011	0.085
-535.150	734.035	-0.025	-0.065
-534.135	-163.465	0.317	0.015
-533.121	800.000	-0.128	0.380
-532.106	-200.000	-0.028	-0.239
-531.091	800.000	-0.086	0.324
-530.077	800.000	-0.027	-0.100
-529.062	-45.830	-0.126	-0.062
-528.048	9.640	-0.359	-0.270
-527.033	-84.339	0.295	-0.093
-526.018	-116.300	0.277	0.051
-525.004	765.419	0.072	-0.194
-523.989	657.687	-0.091	-0.232
-522.975	-157.743	0.259	0.015
-521.960	564.735	0.040	0.095
-520.945	-137.847	-0.236	0.026
-519.931	-200.000	-0.013	-0.106
-518.916	-174.908	0.246	-0.007
-517.902	8.172	0.225	0.168
-516.887	800.000	-0.061	0.256
-515.872	593.210	-0.092	0.225
-514.858	-168.771	-0.103	-0.004
-513.843	-42.598	0.174	0.088
-512.829	-36.943	-0.124	-0.066
-511.814	-23.403	-0.237	-0.142
-510.799	-15.182	-0.160	0.102
-509.785	-50.289	0.113	0.053
-508.770	800.000	0.085	0.270
-507.756	-47.308	0.347	-0.168
-506.741	-40.441	-0.362	0.187
-505.726	-200.000	-0.035	-0.229
-504.712	-166.796	-0.135	-0.006
-503.697	-200.000	-0.035	-0.247
-502.683	-200.000	-0.024	-0.182
-501.668	-114.231	0.016	0.003
-500.653	85.464	0.123	0.134
-499.639	-200.000	0.034	-0.325
-498.624	587.204	-0.042	0.103
-497.610	-18.888	-0.135	0.083
-496.595	181.008	0.071	-0.104
-495.581	219.919	0.091	-0.145
-494.566	800.000	0.126	0.365
-493.551	89.854	0.053	-0.059
-492.537	-200.000	-0.015	-0.474
-491.522	800.000	0.098	0.360
-490.508	69.131	0.318	-0.325
-489.493	173.592	0.056	0.080
-488.478	-85.900	0.208	-0.064
-487.464	117.082	0.231	-0.282
-486.449	-153.691	0.076	-0.005
-485.435	-58.880	0.405	0.174
-484.420	800.000	-0.102	-0.317
-483.405	800.000	-0.098	-0.354
-482.391	-38.898	0.185	0.097
-481.376	-200.000	-0.017	-0.232
-480.362	-39.811	-0.162	0.084
-479.347	237.855	-0.075	-0.124
-478.332	174.854	-0.139	0.200
-477.318	-122.941	0.065	-0.010
-476.303	148.105	-0.078	0.105
-475.289	18.710	0.125	0.099
-474.274	-42.315	0.321	-0.162
-473.259	-97.993	0.253	-0.065
-472.245	-200.000	0.053	0.281
-471.230	-200.000	-0.012	-0.082
-470.216	-172.121	0.163	-0.005
-469.201	565.971	-0.118	-0.283
-468.186	-130.782	0.134	-0.018
-467.172	93.801	-0.052	0.058
-466.157	-37.467	0.112	0.059
-465.143	-200.000	0.029	-0.189
-464.128	52.771	-0.175	-0.166
-463.113	229.309	-0.119	0.193
-462.099	267.111	0.182	0.316
-461.084	800.000	0.022	-0.078
-460.070	-62.574	0.107	0.044
-459.055	40.016	0.233	-0.208
-458.040	656.264	-0.035	0.089
-457.026	-92.311	0.331	-0.093
-456.011	-130.309	0.171	-0.023
-454.997	-200.000	-0.010	0.084
-453.982	788.203	0.096	-0.260
-452.968	-200.000	-0.037	0.278
-451.953	82.839	-0.250	-0.270
-450.938	-200.000	0.045	-0.281
-449.924	-200.000	0.016	-0.141
-448.909	-200.000	-0.027	0.205
-447.895	692.515	0.116	-0.303
-446.880	-146.590	-0.408	-0.035
-445.865	89.543	0.216	-0.239
-444.851	316.316	0.065	0.121
-443.836	800.000	-0.068	0.195
-442.822	219.148	0.250	0.396
-441.807	123.569	-0.272	-0.338
-440.792	-200.000	-0.023	0.126
-439.778	-114.985	0.065	0.012
-438.763	158.064	-0.167	-0.230
-437.749	-78.424	0.251	-0.085
-436.734	142.976	0.057	0.075
-435.719	324.862	0.104	0.197
-434.705	-195.079	-0.576	-0.004
-433.690	-8.310	0.084	-0.056
-432.676	463.884	0.057	0.126
-431.661	39.756	0.183	-0.162
-430.646	121.840	-0.119	0.147
-429.632	-81.545	-0.090	-0.029
-428.617	198.062	-0.072	-0.109
-427.603	-81.235	0.097	-0.032
-426.588	-67.590	-0.124	-0.048
-425.573	-200.000	0.064	-0.328
-424.559	37.535	0.338	0.297
-423.544	170.073	-0.139	-0.197
-422.530	4.945	-0.084	0.061
-421.515	800.000	0.055	0.190
-420.500	761.238	0.173	0.465
-419.486	-60.546	0.111	-0.047
-418.471	-10.543	0.200	0.131
-417.457	202.153	-0.119	-0.181
-416.442	61.543	-0.112	-0.110
-415.428	-44.381	0.310	0.154
-414.413	-32.686	-0.175	0.097
-413.398	1.878	0.180	0.128
-412.384	324.681	-0.108	0.205
-411.369	445.118	-0.054	-0.118
-410.355	537.874	0.039	-0.093
-409.340	-18.509	-0.100	-0.062
-408.325	-77.946	-0.160	0.055
-407.311	434.008	-0.038	0.082
-406.296	-200.000	-0.088	-0.474
-405.282	-147.663	0.461	0.038
-404.267	-68.493	-0.158	0.061
-403.252	354.295	0.037	0.073
-402.238	271.653	0.040	-0.070
-401.223	512.219	0.094	0.216
-400.209	-157.191	0.102	-0.006
-399.194	-200.000	-0.000	-0.187
-398.179	38.561	0.060	0.053
-397.165	164.934	0.120	0.168
-396.150	403.734	-0.067	-0.139
-395.136	274.955	-0.032	-0.056
-394.121	-200.000	0.002	0.044
-393.106	-19.273	-0.103	0.063
-392.092	800.000	-0.087	0.270
-391.077	-51.739	-0.276	0.127
-390.063	-49.895	-0.274	0.129
-389.048	514.643	0.069	0.160
-388.033	-59.931	-0.219	0.093
-387.019	-19.789	-0.217	0.133
-386.004	-10.295	-0.115	0.076
-384.990	-200.000	0.021	-0.096
-383.975	673.308	-0.082	0.211
-382.960	-103.086	-0.304	0.071
-381.946	800.000	-0.121	-0.396
-380.931	311.355	-0.041	0.076
-379.917	-200.000	-0.031	0.254
-378.902	454.352	-0.092	0.201
-377.888	-63.835	-0.153	0.062
-376.873	52.141	-0.180	-0.170
-375.858	-200.000	0.029	-0.209
-374.844	-8.995	0.079	0.052
-373.829	166.624	0.270	0.378
-372.815	73.295	-0.222	0.229
-371.800	800.000	0.041	0.178
-370.785	-118.638	0.275	0.048
-369.771	-126.070	-0.251	0.037
-368.756	284.828	0.208	-0.369
-367.742	292.549	0.018	-0.033
-366.727	151.347	-0.110	-0.148
-365.712	7.883	0.170	0.126
-364.698	371.366	-0.147	-0.295
-363.683	694.842	0.044	-0.115
-362.669	-25.053	0.250	-0.146
-361.654	58.638	-0.039	0.038
-360.639	164.132	-0.089	-0.125
-359.625	117.931	-0.129	-0.157
-358.610	800.000	0.124	-0.427
-357.596	-24.499	-0.214	-0.126
-356.581	-200.000	-0.030	0.164
-355.566	-4.835	-0.238	0.162
-354.552	-47.893	0.112	0.053
-353.537	-200.000	-0.074	0.475
-352.523	-200.000	0.033	0.242
-351.508	197.447	0.104	0.157
-350.493	228.965	-0.151	0.244
-349.479	65.559	-0.201	-0.201
-348.464	183.346	-0.054	0.079
-347.450	84.093	0.072	-0.077
-346.435	13.207	0.069	0.053
-345.420	-27.449	0.249	0.143
-344.406	800.000	-0.069	0.215
-343.391	-193.650	-0.261	0.002
-342.377	-70.926	-0.143	0.053
-341.362	800.000	0.071	-0.292
-340.348	362.298	-0.121	0.240
-339.333	129.154	0.100	0.126
-338.318	-200.000	-0.006	-0.178
-337.304	-200.000	-0.020	0.212
-336.289	-82.818	0.132	-0.042
-335.275	-100.897	-0.376	0.091
-334.260	-195.195	0.638	0.005
-333.245	-200.000	-0.005	-0.057
-332.231	-89.449	0.110	-0.032
-331.216	21.540	-0.075	-0.060
-330.202	800.000	0.050	-0.149
-329.187	-26.692	0.207	0.119
-328.172	-200.000	-0.060	-0.382
-327.158	-38.987	0.204	-0.106
-326.143	328.289	-0.080	0.151
-325.129	-200.000	-0.008	-0.279
-324.114	-33.206	0.267	0.146
-323.099	48.543	-0.197	-0.182
-322.085	-200.000	-0.030	0.159
-321.070	29.981	0.051	-0.043
-320.056	8.312	-0.265	-0.197
-319.041	-27.500	0.212	-0.122
-318.026	-200.000	-0.000	0.164
-317.012	-80.696	0.301	-0.099
-315.997	205.803	-0.087	0.134
-314.983	8.533	-0.079	0.059
-313.968	-150.353	0.199	0.015
-312.953	558.525	-0.095	-0.226
-311.939	-89.034	0.236	-0.069
-310.924	102.138	0.060	0.069
-309.910	431.440	-0.076	-0.162
-308.895	-95.115	-0.207	0.055
-307.880	372.672	0.022	0.043
-306.866	100.034	-0.177	0.202
-305.851	-15.907	0.331	-0.207
-304.837	230.468	0.125	0.201
-303.822	-200.000	-0.010	0.234
-302.807	-16.076	-0.103	0.064
-301.793	31.581	-0.079	-0.067
-300.778	-130.115	-0.135	0.018
-299.764	22.797	-0.218	-0.176
-298.749	228.148	0.102	-0.164
-297.735	68.325	-0.198	-0.200
-296.720	-200.000	-0.009	0.186
-295.705	68.995	-0.127	0.129
-294.691	13.562	-0.070	-0.054
-293.676	-164.488	0.145	0.007
-292.662	105.789	-0.187	-0.218
-291.647	147.970	-0.114	-0.152
-290.632	69.346	-0.115	-0.117
-289.618	-128.063	0.077	-0.011
-288.603	-130.056	0.265	0.036
-287.589	-200.000	0.016	-0.199
-286.574	95.308	0.234	-0.263
-285.559	442.948	0.049	-0.107
-284.545	-43.139	0.438	-0.219
-283.530	-149.772	-0.159	0.012
-282.516	29.599	-0.210	-0.176
-281.501	-150.450	0.104	0.008
-280.486	34.529	0.044	0.038
-279.472	-110.125	-0.124	0.025
-278.457	-200.000	-0.043	0.189
-277.443	-200.000	0.013	-0.240
-276.428	37.880	-0.010	0.009
-275.413	-200.000	-0.005	-0.334
-274.399	-200.000	-0.051	0.225
-273.384	-200.000	-0.018	-0.093
-272.370	-150.748	-0.113	0.008
-271.355	-191.820	-0.186	-0.002
-270.340	455.965	-0.123	0.268
-269.326	33.753	0.201	0.172
-268.311	800.000	0.043	-0.154
-267.297	242.699	-0.159	0.261
-266.282	31.893	-0.038	-0.033
-265.267	232.779	0.144	0.233
-264.253	-200.000	0.001	-0.184
-263.238	5.680	-0.182	-0.132
-262.224	-108.185	-0.301	0.064
-261.209	-67.644	-0.282	-0.109
-260.195	220.940	0.109	0.172
-259.180	89.326	-0.058	-0.064
-258.165	205.380	-0.135	-0.207
-257.151	-140.380	0.331	0.034
-256.136	87.711	-0.081	0.089
-255.122	-200.000	-0.019	-0.352
-254.107	202.752	-0.106	-0.161
-253.092	133.612	0.102	-0.129
-252.078	-110.390	-0.201	-0.041
-251.063	236.660	0.153	-0.249
-250.049	-7.180	-0.053	-0.036
-249.034	-130.127	-0.236	-0.032
-248.019	-86.201	0.510	-0.155
-247.005	800.000	-0.074	-0.303
-245.990	41.079	0.085	0.075
-244.976	-200.000	0.004	-0.055
-243.961	-161.269	0.538	0.027
-242.946	257.579	-0.087	0.146
-241.932	26.483	0.090	-0.074
-240.917	180.399	-0.178	0.257
-239.903	-29.205	0.295	0.166
-238.888	-127.542	0.219	0.031
-237.873	-88.106	0.368	0.109
-236.859	-200.000	-0.010	-0.047
-235.844	219.771	-0.190	-0.300
-234.830	-55.613	-0.139	0.061
-233.815	-95.741	-0.276	-0.073
-232.800	2.664	0.133	-0.095
-231.786	-74.422	-0.282	0.100
-230.771	76.160	-0.036	-0.038
-229.757	92.634	-0.276	0.306
-228.742	631.322	-0.040	0.100
-227.727	-200.000	-0.019	0.287
-226.713	-144.866	0.155	0.014
-225.698	-200.000	-0.049	0.223
-224.684	409.232	0.087	0.182
-223.669	44.608	-0.036	-0.032
-222.655	80.446	-0.176	-0.186
-221.640	-172.042	0.272	-0.009
-220.625	-200.000	-0.009	0.056
-219.611	493.859	-0.145	0.328
-218.596	800.000	0.060	-0.187
-217.582	744.962	0.041	0.107
-216.567	-55.585	0.321	0.141
-215.552	800.000	0.105	0.375
-214.538	-67.768	0.182	0.070
-213.523	-112.469	0.389	-0.076
-212.509	-98.233	-0.208	0.052
-211.494	-200.000	0.059	0.278
-210.479	367.145	0.174	0.344
-209.465	800.000	-0.110	-0.354
-208.450	-150.199	0.316	0.024
-207.436	37.521	0.141	-0.123
-206.421	341.829	-0.192	-0.368
-205.406	53.981	-0.104	-0.098
-204.392	47.035	0.193	0.177
-203.377	-200.000	-0.001	-0.218
-202.363	62.652	0.109	-0.107
-201.348	11.300	0.207	0.155
-200.333	-173.407	0.205	0.006
-199.319	-121.723	0.063	-0.010
-198.304	-188.260	-0.047	0.001
-197.290	-129.215	0.173	0.024
-196.275	-112.414	-0.298	0.059
-195.260	159.787	-0.189	0.258
-194.246	304.570	-0.029	0.053
-193.231	71.378	-0.082	0.083
-192.217	-68.468	0.191	-0.073
-191.202	-200.000	0.021	-0.187
-190.187	-200.000	-0.006	0.151
-189.173	-133.673	0.176	0.022
-188.158	-28.525	-0.363	-0.205
-187.144	581.637	0.033	-0.079
-186.129	-105.172	0.317	0.071
-185.114	-133.684	-0.307	0.038
-184.100	346.964	0.085	-0.164
-183.085	-71.193	-0.150	-0.055
-182.071	-167.788	0.192	-0.007
-181.056	32.585	0.171	-0.145
-180.042	682.252	-0.103	-0.264
-179.027	-75.286	-0.333	-0.117
-178.012	13.277	-0.151	0.115
-176.998	70.012	-0.267	-0.270
-175.983	-200.000	0.017	-0.190
-174.969	-85.472	0.158	0.048
-173.954	-43.975	0.188	0.093
-172.939	-147.769	0.200	0.016
-171.925	800.000	-0.094	0.372
-170.910	4.693	0.185	0.133
-169.896	-53.404	-0.024	-0.011
-168.881	-186.433	-0.235	-0.003
-167.866	-86.722	0.022	0.007
-166.852	254.337	0.043	-0.071
-165.837	-200.000	-0.006	0.224
-164.823	800.000	0.039	-0.129
-163.808	-104.312	-0.292	0.066
-162.793	-184.806	0.088	-0.001
-161.779	-3.688	0.060	0.041
-160.764	236.943	0.161	-0.261
-159.750	113.876	-0.063	-0.076
-158.735	-200.000	0.018	0.413
-157.720	130.617	0.110	0.138
-156.706	-49.291	-0.107	0.050
-155.691	-42.348	-0.247	0.124
-154.677	270.205	0.164	-0.283
-153.662	-8.921	-0.305	0.200
-152.647	212.087	0.107	0.165
-151.633	2.962	-0.468	0.333
-150.618	-71.992	-0.152	0.055
-149.604	-200.000	-0.054	-0.326
-148.589	-39.954	-0.192	0.098
-147.574	800.000	-0.028	0.109
-146.560	45.246	0.316	0.285
-145.545	-121.523	-0.260	-0.042
-144.531	427.800	0.111	-0.234
-143.516	122.828	0.185	0.227
-142.502	-39.589	-0.384	0.197
-141.487	-173.471	-0.176	0.005
-140.472	-200.000	0.031	-0.198
-139.458	182.144	0.138	0.200
-138.443	284.343	-0.103	0.181
-137.429	388.374	0.126	0.255
-136.414	-9.247	-0.165	-0.108
-135.399	-65.962	-0.276	-0.108
-134.385	800.000	0.097	0.293
-133.370	-27.425	0.130	-0.074
-132.356	72.379	0.142	0.145
-131.341	45.596	0.119	0.108
-130.326	-200.000	0.014	-0.184
-129.312	-200.000	0.000	0.051
-128.297	113.351	0.173	0.206
-127.283	800.000	-0.063	0.211
-126.268	-144.852	0.249	-0.022
-125.253	-200.000	-0.051	-0.471
-124.239	266.769	-0.045	0.078
-123.224	-16.891	0.287	-0.177
-122.210	-187.641	-0.370	-0.005
-121.195	616.447	0.134	0.329
-120.180	-120.972	0.324	0.053
-119.166	27.221	0.122	-0.100
-118.151	136.228	0.128	0.164
-117.137	191.651	0.230	-0.338
-116.122	-39.398	-0.192	0.099
-115.107	-200.000	0.003	0.213
-114.093	166.785	0.129	0.179
-113.078	112.428	0.204	-0.242
-112.064	-19.269	0.054	-0.033
-111.049	-41.740	-0.089	0.045
-110.034	-200.000	-0.296	-0.000
-109.020	-200.000	-0.028	-0.182
-108.005	-71.848	-0.080	-0.029
-106.991	-200.000	-0.069	-0.585
-105.976	63.647	-0.119	-0.117
-104.962	-120.673	0.245	0.041
-103.947	44.842	0.227	0.204
-102.932	233.186	-0.074	0.119
-101.918	134.409	0.265	0.336
-100.903	-141.204	-0.149	0.015
-99.889	-32.522	0.114	-0.062
-98.874	-37.776	-0.126	0.066
-97.859	-200.000	-0.036	-0.447
-96.845	263.056	-0.056	0.095
-95.830	633.953	0.170	0.421
-94.816	800.000	0.196	-0.658
-93.801	-109.669	0.044	-0.009
-92.786	-160.936	0.343	0.018
-91.772	-25.428	-0.130	-0.075
-90.757	321.739	0.040	0.074
-89.743	-200.000	0.050	-0.334
-88.728	800.000	-0.064	0.231
-87.713	-200.000	-0.012	0.218
-86.699	155.190	0.133	0.179
-85.684	621.781	0.030	0.074
-84.670	-200.000	-0.017	-0.075
-83.655	-64.172	0.129	-0.051
-82.640	-178.005	0.231	-0.005
-81.626	-200.000	-0.039	0.380
-80.611	-3.035	0.082	0.056
-79.597	-112.210	-0.067	0.013
-78.582	-63.865	-0.142	-0.057
-77.567	-80.955	0.495	-0.160
-76.553	5.423	-0.205	0.148
-75.538	232.943	-0.054	-0.087
-74.524	550.584	0.036	-0.084
-73.509	288.412	-0.101	0.178
-72.494	800.000	0.056	0.170
-71.480	-200.000	-0.060	-0.545
-70.465	-86.689	-0.359	-0.107
-69.451	26.412	-0.244	0.199
-68.436	-109.314	-0.408	0.085
-67.422	140.651	-0.277	0.357
-66.407	59.094	-0.088	-0.085
-65.392	-78.212	-0.347	0.116
-64.378	-184.078	0.528	0.009
-63.363	-200.000	-0.006	0.050
-62.349	-2.655	0.197	-0.135
-61.334	317.764	-0.810	-1.497
-60.319	136.507	0.496	0.632
-59.305	800.000	-0.375	-1.030
-58.290	319.292	0.685	1.268
-57.276	800.000	0.404	1.531
-56.261	-200.000	125.603	657.188
-55.246	410.321	1578.626	3266.614
-54.232	140.691	2741.078	3534.186
-53.217	95.692	2167.902	2414.674
-52.203	34.858	1596.954	1363.623
-51.188	26.435	1340.022	1093.518
-50.173	23.942	1302.585	1048.254
-49.159	52.718	1371.079	1278.675
-48.144	48.991	1383.109	1267.324
-47.130	26.770	1330.596	1087.663
-46.115	23.383	1312.200	1052.501
-45.100	23.245	1306.823	1047.334
-44.086	23.153	1304.377	1044.790
-43.071	23.263	1301.970	1043.471
-42.057	23.094	1299.714	1040.623
-41.042	23.096	1298.619	1039.719
-40.027	23.204	1296.501	1038.616
-39.013	23.206	1294.681	1037.125
-37.998	23.210	1292.835	1035.629
-36.984	23.166	1291.897	1034.579
-35.969	23.328	1289.485	1033.553
-34.954	23.241	1288.236	1032.001
-33.940	23.299	1287.173	1031.448
-32.925	23.370	1285.480	1030.464
-31.911	23.409	1284.008	1029.470
-30.896	23.397	1282.592	1028.225
-29.881	23.407	1281.653	1027.491
-28.867	23.446	1279.990	1026.339
-27.852	23.374	1279.119	1025.187
-26.838	23.486	1277.677	1024.637
-25.823	23.401	1276.150	1022.880
-24.809	23.439	1274.467	1021.711
-23.794	23.370	1273.494	1020.493
-22.779	23.342	1272.004	1019.094
-21.765	23.454	1270.552	1018.535
-20.750	23.480	1268.919	1017.335
-19.736	23.281	1268.054	1015.462
-18.721	23.274	1267.084	1014.602
-17.706	23.108	1266.142	1012.861
-16.692	23.185	1264.737	1012.132
-15.677	23.099	1264.039	1011.042
-14.663	23.187	1262.372	1010.174
-13.648	23.126	1261.764	1009.300
-12.633	23.164	1260.856	1008.747
-11.619	23.226	1259.793	1008.209
-10.604	23.240	1258.979	1007.598
-9.590	23.130	1258.222	1006.330
-8.575	23.156	1257.038	1005.487
-7.560	23.242	1256.005	1005.109
-6.546	23.421	1254.533	1004.910
-5.531	23.116	1255.018	1003.528
-4.517	23.183	1253.969	1003.028
-3.502	23.223	1253.147	1002.555
-2.487	23.312	1251.882	1002.009
-1.473	23.193	1247.518	997.804
-0.458	21.569	1231.917	976.241
0.556	16.483	1216.914	939.440
1.571	12.954	1225.134	925.926
2.586	12.274	1240.129	933.309
3.600	12.318	1228.524	924.743
4.615	9.139	1156.017	853.221
5.629	3.182	1085.858	771.566
6.644	0.345	1069.557	745.893
7.659	0.125	1067.676	743.429
8.673	0.165	1066.111	742.470
9.688	0.116	1065.204	741.530
10.702	0.314	1063.104	740.978
11.717	4.035	1066.964	761.940
12.731	10.885	1076.142	802.326
13.746	15.601	1082.081	830.035
14.761	16.593	1083.456	835.918
15.775	16.029	1081.424	831.493
16.790	15.081	1079.506	825.275
17.804	14.397	1077.493	820.299
18.819	14.109	1076.890	818.347
19.834	13.770	1076.157	816.050
20.848	13.606	1075.115	814.382
21.863	13.307	1074.296	812.222
22.877	13.217	1073.458	811.077
23.892	13.124	1073.168	810.330
24.907	13.180	1072.052	809.689
25.921	13.302	1071.014	809.429
26.936	13.214	1070.575	808.596
27.950	13.207	1069.676	807.813
28.965	13.236	1068.608	807.077
29.980	13.380	1066.830	806.363
30.994	13.384	1065.627	805.403
32.009	13.359	1064.667	804.482
33.023	13.442	1063.789	804.152
34.038	13.243	1063.278	802.729
35.053	13.335	1061.712	801.921
36.067	13.334	1061.314	801.545
37.082	13.279	1060.509	800.598
38.096	13.389	1059.869	800.578
39.111	13.312	1058.537	799.127
40.126	13.256	1057.635	798.108
41.140	13.227	1056.785	797.253
42.155	13.278	1055.097	796.155
43.169	13.149	1054.500	795.016
44.184	13.174	1053.200	794.085
45.199	13.235	1052.265	793.602
46.213	13.226	1051.053	792.574
47.228	13.250	1050.417	792.138
48.242	13.171	1049.094	790.694
49.257	13.311	1047.732	790.267
50.271	13.213	1047.346	789.439
51.286	13.333	1046.169	789.051
52.301	13.313	1045.162	788.128
53.315	13.231	1044.496	787.167
54.330	13.151	1043.143	785.695
55.344	13.137	1042.604	785.155
56.359	13.308	1041.548	785.099
57.374	13.276	1040.536	784.117
58.388	13.258	1039.649	783.295
59.403	13.144	1038.993	782.193
60.417	13.130	1038.566	781.733
61.432	13.057	1037.631	780.618
62.447	13.074	1036.974	780.134
63.461	13.036	1036.316	779.391
64.476	12.983	1035.435	778.406
65.490	13.230	1033.929	778.372
66.505	13.159	1033.595	777.714
67.520	13.163	1032.913	777.152
68.534	13.274	1032.065	776.969
69.549	13.040	1032.059	775.794
70.563	13.036	1030.791	774.752
71.578	12.955	1030.075	773.769
72.593	13.074	1028.743	773.255
73.607	12.987	1028.863	772.867
74.622	12.898	1028.443	772.069
75.636	13.025	1026.994	771.509
76.651	12.922	1026.427	770.531
77.666	12.943	1025.909	770.172
78.680	13.056	1025.436	770.274
79.695	13.038	1024.701	769.574
80.709	13.088	1024.410	769.519
81.724	13.087	1023.635	768.862
82.739	13.130	1022.606	768.225
83.753	13.319	1021.768	768.405
84.768	13.241	1020.713	767.180
85.782	13.432	1019.629	767.183
86.797	13.205	1019.085	765.653
87.812	13.267	1017.983	765.045
88.826	13.248	1016.896	764.073
89.841	13.304	1016.326	763.835
90.855	13.355	1015.396	763.305
91.870	13.342	1015.078	762.938
92.884	13.492	1013.546	762.410
93.899	13.336	1012.839	761.092
94.914	13.472	1011.864	760.917
95.928	13.404	1011.314	760.123
96.943	13.302	1010.669	759.104
97.957	13.388	1009.982	758.914
98.972	13.400	1008.570	757.840
99.987	13.423	1007.849	757.340
101.001	13.397	1006.955	756.482
102.016	13.263	1006.490	755.452
103.030	13.356	1005.568	755.120
104.045	13.396	1004.544	754.466
105.060	13.292	1003.682	753.276
106.074	13.201	1003.139	752.389
107.089	13.200	1001.837	751.341
108.103	13.352	1000.577	751.021
109.118	13.188	1000.020	749.791
110.133	13.281	998.694	749.153
111.147	13.235	997.870	748.261
112.162	13.257	997.258	747.833
113.176	13.200	996.904	747.243
114.191	13.345	996.045	747.190
115.206	13.225	995.380	746.084
116.220	13.345	994.141	745.630
117.235	13.337	993.208	744.827
118.249	13.201	992.555	743.659
119.264	13.252	992.037	743.435
120.279	13.290	991.111	742.845
121.293	13.277	989.817	741.751
122.308	13.249	989.471	741.303
123.322	13.327	988.241	740.664
124.337	13.331	986.940	739.642
125.352	13.205	986.436	738.636
126.366	13.252	985.136	737.807
127.381	13.301	984.011	737.117
128.395	13.181	983.114	735.846
129.410	13.284	982.455	735.746
130.424	13.201	981.592	734.664
131.439	13.268	980.827	734.326
132.454	13.211	980.306	733.616
133.468	13.339	978.978	733.123
134.483	13.278	978.575	732.491
135.497	13.231	977.162	731.157
136.512	13.204	976.528	730.500
137.527	13.356	975.616	730.423
138.541	13.309	974.832	729.567
139.556	13.346	973.871	728.943
140.570	13.306	973.495	728.422
141.585	13.430	972.538	728.189
142.600	13.335	971.886	727.218
143.614	13.457	971.077	727.084
144.629	13.589	969.992	726.786
145.643	13.473	969.188	725.611
146.658	13.427	968.042	724.487
147.673	13.509	966.982	723.989
148.687	13.557	966.069	723.452
149.702	13.440	965.097	722.149
150.716	13.500	964.889	722.190
151.731	13.395	964.122	721.093
152.746	13.326	963.755	720.455
153.760	13.476	962.600	720.183
154.775	13.535	962.184	720.062
155.789	13.496	961.860	719.586
156.804	13.557	960.781	718.981
157.819	13.531	959.875	718.125
158.833	13.515	959.419	717.652
159.848	13.809	958.268	718.002
160.862	13.654	957.669	716.819
161.877	13.479	956.976	715.481
162.892	13.479	956.150	714.797
163.906	13.530	954.895	714.018
164.921	13.502	954.153	713.277
165.935	13.509	953.295	712.603
166.950	13.620	952.299	712.273
167.964	13.701	951.214	711.747
168.979	13.658	950.245	710.774
169.994	13.674	949.731	710.395
171.008	13.668	949.193	709.903
172.023	13.722	948.299	709.405
173.037	13.761	947.541	708.943
174.052	13.647	946.924	707.929
175.067	13.674	946.583	707.729
176.081	13.728	945.977	707.442
177.096	13.639	945.367	706.543
178.110	13.740	944.485	706.252
179.125	13.845	943.755	706.090
180.140	13.756	943.604	705.536
181.154	13.752	943.048	705.041
182.169	13.887	942.617	705.228
183.183	13.904	941.648	704.515
184.198	13.892	940.739	703.724
185.213	13.934	940.139	703.389
186.227	14.010	939.326	703.041
187.242	14.064	938.298	702.438
188.256	13.927	938.182	701.707
189.271	13.891	937.640	701.088
190.286	13.831	936.787	700.137
191.300	13.721	935.640	698.754
192.315	13.865	935.184	698.959
193.329	13.819	934.456	698.160
194.344	13.749	933.939	697.416
195.359	13.964	933.432	697.876
196.373	13.914	932.912	697.217
197.388	14.033	932.567	697.398
198.402	14.044	931.839	696.836
199.417	14.078	931.120	696.379
200.432	13.965	931.357	696.025
201.446	14.082	930.407	695.740
202.461	14.120	929.759	695.354
203.475	14.132	929.290	694.990
204.490	14.289	927.890	694.538
205.504	14.145	927.420	693.525
206.519	14.046	927.367	693.011
207.534	14.199	925.973	692.544
208.548	14.074	925.447	691.569
209.563	14.135	925.154	691.543
210.577	14.321	923.859	691.285
211.592	14.345	923.286	690.896
212.607	14.348	922.592	690.327
213.621	14.253	921.878	689.338
214.636	14.193	921.074	688.429
215.650	14.500	920.248	689.021
216.665	14.495	919.595	688.448
217.680	14.312	919.328	687.432
218.694	14.380	918.149	686.771
219.709	14.368	918.049	686.584
220.723	14.364	917.432	686.049
221.738	14.289	916.481	684.968
222.753	14.359	915.943	684.794
223.767	14.353	915.414	684.313
224.782	14.563	914.729	684.599
225.796	14.572	913.941	683.987
226.811	14.520	913.486	683.374
227.826	14.496	912.845	682.735
228.840	14.594	911.925	682.386
229.855	14.499	910.942	681.202
230.869	14.473	910.506	680.710
231.884	14.520	909.914	680.399
232.899	14.507	908.597	679.303
233.913	14.489	908.012	678.729
234.928	14.521	907.606	678.498
235.942	14.558	906.987	678.124
236.957	14.600	906.263	677.693
237.972	14.510	905.968	677.046
238.986	14.490	905.311	676.417
240.001	14.522	904.579	675.938
241.015	14.516	904.141	675.528
242.030	14.594	903.039	674.961
243.045	14.753	902.551	675.180
244.059	14.485	902.264	673.821
245.074	14.611	901.528	673.720
246.088	14.718	900.623	673.417
247.103	14.740	900.031	673.002
248.117	14.724	899.667	672.606
249.132	14.784	898.882	672.201
250.147	14.805	898.241	671.746
251.161	14.938	897.706	671.820
252.176	14.894	897.097	671.130
253.190	14.898	896.479	670.624
254.205	15.061	895.515	670.498
255.220	15.097	894.739	670.002
256.234	14.954	894.509	669.195
257.249	15.078	893.873	669.158
258.263	14.964	893.187	668.132
259.278	14.979	892.185	667.379
260.293	15.244	891.653	667.980
261.307	15.152	891.024	667.082
262.322	15.155	890.613	666.727
263.336	15.257	889.593	666.311
264.351	15.233	888.852	665.603
265.366	15.169	888.410	664.958
266.380	15.212	887.638	664.491
267.395	15.306	886.836	664.205
268.409	15.095	886.116	662.770
269.424	15.138	885.729	662.595
270.439	15.216	884.752	662.112
271.453	15.347	883.808	661.866
272.468	15.123	883.739	660.869
273.482	15.318	883.212	661.185
274.497	15.180	882.757	660.244
275.512	15.332	882.078	660.275
276.526	15.340	881.317	659.680
277.541	15.286	881.030	659.194
278.555	15.424	880.016	658.919
279.570	15.404	879.350	658.282
280.585	15.380	878.945	657.829
281.599	15.335	877.934	656.836
282.614	15.338	877.383	656.378
283.628	15.279	877.021	655.819
284.643	15.414	876.411	655.833
285.657	15.366	876.138	655.381
286.672	15.418	874.868	654.577
287.687	15.466	874.614	654.518
288.701	15.391	874.090	653.775
289.716	15.518	873.351	653.660
290.730	15.480	872.653	652.929
291.745	15.544	872.081	652.693
292.760	15.576	871.329	652.197
293.774	15.577	870.564	651.572
294.789	15.569	870.264	651.257
295.803	15.625	869.316	650.706
296.818	15.542	869.139	650.195
297.833	15.555	868.181	649.473
298.847	15.602	867.602	649.162
299.862	15.623	866.910	648.668
300.876	15.771	866.381	648.786
301.891	15.797	866.107	648.622
302.906	15.734	865.451	647.834
303.920	15.839	864.862	647.738
304.935	15.865	864.436	647.464
305.949	15.824	863.859	646.815
306.964	15.792	862.912	645.926
307.979	15.853	862.191	645.564
308.993	15.753	862.061	645.024
310.008	15.856	861.150	644.680
311.022	15.927	860.697	644.557
312.037	15.988	860.268	644.411
313.052	15.731	859.694	642.940
314.066	15.942	858.674	642.928
315.081	15.849	858.582	642.448
316.095	15.816	858.250	642.017
317.110	15.784	857.398	641.199
318.125	15.879	856.546	640.867
319.139	15.888	856.259	640.630
320.154	15.888	855.909	640.312
321.168	15.975	855.206	640.060
322.183	16.043	855.047	640.142
323.197	16.058	854.288	639.573
324.212	15.829	854.155	638.548
325.227	16.013	853.117	638.415
326.241	16.078	852.124	637.861
327.256	15.933	852.065	637.210
328.270	15.911	851.349	636.536
329.285	15.981	850.748	636.294
330.300	16.077	849.809	635.897
331.314	16.039	849.372	635.373
332.329	16.083	849.150	635.317
333.343	16.060	848.576	634.744
334.358	16.210	848.088	634.885
335.373	15.952	848.234	633.968
336.387	16.125	847.606	634.095
337.402	16.199	847.354	634.129
338.416	16.263	846.552	633.710
339.431	16.324	846.312	633.704
340.446	16.337	845.878	633.374
341.460	16.236	845.726	632.824
342.475	16.317	845.137	632.630
343.489	16.371	844.970	632.653
344.504	16.258	844.170	631.574
345.519	16.318	843.857	631.509
346.533	16.382	843.135	631.152
347.548	16.312	842.889	630.648
348.562	16.235	842.340	629.897
349.577	16.378	841.618	629.832
350.592	16.436	840.802	629.383
351.606	16.280	840.106	628.227
352.621	16.433	839.706	628.439
353.635	16.290	839.210	627.483
354.650	16.523	838.052	627.426
355.665	16.483	837.089	626.501
356.679	16.411	837.197	626.260
357.694	16.473	836.510	625.920
358.708	16.487	835.614	625.246
359.723	16.549	835.039	624.987
360.738	16.605	834.388	624.654
361.752	16.357	834.312	623.625
362.767	16.657	833.518	624.081
363.781	16.579	833.270	623.556
364.796	16.601	832.827	623.248
365.810	16.657	832.337	623.032
366.825	16.810	831.745	623.096
367.840	16.767	831.125	622.421
368.854	16.729	830.639	621.861
369.869	16.821	830.457	622.008
370.883	16.713	830.103	621.290
371.898	16.836	829.550	621.272
372.913	16.847	829.081	620.909
373.927	16.868	828.736	620.671
374.942	16.878	828.064	620.149
375.956	16.977	827.639	620.137
376.971	16.917	827.404	619.690
377.986	17.047	826.378	619.339
379.000	17.061	826.083	619.113
380.015	16.915	826.178	618.597
381.029	16.983	825.398	618.207
382.044	16.877	824.635	617.193
383.059	16.985	824.215	617.220
384.073	16.934	823.665	616.566
385.088	17.049	822.741	616.237
386.102	17.216	822.166	616.359
387.117	17.037	821.866	615.431
388.132	17.127	821.036	615.082
389.146	16.998	820.712	614.316
390.161	17.100	820.398	614.398
391.175	17.060	819.969	613.877
392.190	17.143	819.277	613.604
393.205	17.144	819.246	613.528
394.219	17.184	818.569	613.114
395.234	17.069	818.265	612.415
396.248	17.016	818.100	612.048
397.263	17.025	817.117	611.291
398.278	17.192	816.921	611.689
399.292	17.136	816.748	611.303
400.307	16.978	816.290	610.338
401.321	17.183	815.387	610.347
402.336	17.206	815.154	610.203
403.350	17.214	814.599	609.761
404.365	17.126	814.168	609.070
405.380	17.240	813.768	609.122
406.394	17.296	813.157	608.814
407.409	17.268	813.077	608.601
408.423	17.390	812.517	608.562
409.438	17.411	812.230	608.368
410.453	17.409	811.534	607.786
411.467	17.483	810.912	607.532
412.482	17.466	810.505	607.112
413.496	17.504	810.458	607.157
414.511	17.573	810.024	607.024
415.526	17.563	809.334	606.419
416.540	17.696	808.966	606.562
417.555	17.491	808.651	605.543
418.569	17.520	807.993	605.102
419.584	17.490	808.047	604.982
420.599	17.704	807.325	605.145
421.613	113.704	1299.238	1487.069
422.628	98.205	1370.868	1487.133
