DTS Sentinel unit serial number:	SN413079Multiplexer serial number:	ORYXHardware model number:	OX4-SRSoftware version number:	ORYX F/W v4.00 Oryx Data Collector v3.7.2.0data status	okinstallation	princeton_trtdifferential loss correction	single-endedforward channel	channel 1reverse channel	N/Adate	2019/09/17time	23:50:35forward acquisition time	60.00reverse acquisition time	0.00gamma	496.2192k internal	0.2340k external	0.2340temperature offset calibration	0.9976default loss term (dB/km)	0.3790temperature slope calibration	1.0000multiplexer offset coefficient	1.0000multiplexer slope coefficient	1.0000fibre end	0.00T internal ref (°C)	24.00T ext. ref 1 (°C)	0.17T ext. ref 2 (°C)	17.41length (m)	temperature (°C)	Stokes	anti-Stokes-747.200	-39.614	0.205	0.108
-746.185	14.617	-0.124	-0.097
-745.171	-69.814	-0.183	-0.070
-744.156	120.934	-0.055	-0.068
-743.142	195.419	-0.084	0.128
-742.127	-119.735	-0.469	0.081
-741.112	96.635	0.163	0.187
-740.098	800.000	0.065	0.181
-739.083	631.675	0.249	0.631
-738.069	-200.000	0.032	0.415
-737.054	-200.000	0.018	0.295
-736.039	-30.209	-0.124	0.071
-735.025	-178.199	-0.243	-0.006
-734.010	-200.000	-0.021	-0.108
-732.996	-200.000	-0.010	0.222
-731.981	-187.173	-0.300	-0.004
-730.966	738.206	-0.143	-0.383
-729.952	800.000	-0.010	0.039
-728.937	24.162	-0.156	-0.129
-727.923	40.421	0.236	-0.213
-726.908	-200.000	0.070	-0.403
-725.894	-150.894	-0.318	0.024
-724.879	-102.638	-0.280	-0.067
-723.864	102.994	-0.153	-0.180
-722.850	266.543	0.152	-0.267
-721.835	-1.091	0.098	0.069
-720.821	151.104	0.183	0.250
-719.806	5.527	0.287	-0.212
-718.791	-94.838	-0.183	0.050
-717.777	-200.000	0.020	-0.363
-716.762	-200.000	0.003	0.076
-715.748	159.640	0.192	0.267
-714.733	682.174	0.017	-0.045
-713.718	-42.400	-0.176	-0.090
-712.704	344.805	-0.060	-0.118
-711.689	-64.753	-0.182	-0.074
-710.675	388.731	0.080	-0.166
-709.660	-200.000	-0.035	0.336
-708.645	345.261	0.017	0.034
-707.631	-200.000	0.001	-0.105
-706.616	38.815	-0.125	0.112
-705.602	-200.000	0.028	0.234
-704.587	-77.301	-0.209	0.073
-703.572	115.314	-0.207	-0.253
-702.558	-151.105	0.141	-0.011
-701.543	-11.235	-0.256	-0.169
-700.529	-46.239	-0.039	0.019
-699.514	115.453	-0.289	0.353
-698.499	-1.078	0.144	-0.102
-697.485	-200.000	-0.036	0.191
-696.470	800.000	-0.063	-0.219
-695.456	-90.679	0.227	-0.066
-694.441	-200.000	0.100	0.482
-693.426	-115.645	0.085	-0.016
-692.412	-23.257	-0.058	0.035
-691.397	-200.000	0.052	0.254
-690.383	9.651	-0.205	0.155
-689.368	-200.000	0.001	-0.133
-688.354	-200.000	0.040	-0.187
-687.339	-29.520	0.414	-0.236
-686.324	-72.996	-0.463	-0.170
-685.310	628.140	-0.130	-0.328
-684.295	-166.418	0.076	0.003
-683.281	-79.951	-0.084	-0.028
-682.266	70.529	-0.067	0.070
-681.251	-104.591	-0.222	0.051
-680.237	-70.369	-0.191	-0.072
-679.222	800.000	0.086	0.347
-678.208	27.261	-0.380	0.319
-677.193	-79.897	-0.115	0.039
-676.178	64.104	0.056	0.056
-675.164	67.470	0.072	0.073
-674.149	-127.060	-0.041	-0.006
-673.135	-200.000	-0.029	0.329
-672.120	-63.709	-0.141	0.058
-671.105	-105.145	0.208	-0.047
-670.091	-115.186	-0.208	0.039
-669.076	-200.000	-0.009	-0.045
-668.062	-74.255	-0.205	0.074
-667.047	-135.007	-0.230	-0.028
-666.032	-169.058	0.065	0.002
-665.018	-200.000	0.018	0.394
-664.003	-20.284	-0.104	0.064
-662.989	800.000	0.049	0.155
-661.974	136.852	-0.015	-0.020
-660.959	-3.625	0.144	0.100
-659.945	80.014	-0.035	0.038
-658.930	128.942	0.126	-0.160
-657.916	-173.334	-0.277	-0.008
-656.901	-67.745	-0.188	0.073
-655.886	-101.253	-0.253	-0.062
-654.872	-200.000	-0.009	-0.085
-653.857	-200.000	0.029	0.217
-652.843	-200.000	-0.036	-0.368
-651.828	-78.289	-0.232	-0.079
-650.814	-55.921	-0.084	-0.037
-649.799	-33.852	-0.380	-0.209
-648.784	-200.000	-0.002	-0.022
-647.770	17.098	-0.232	-0.183
-646.755	800.000	0.012	0.043
-645.741	-93.222	0.300	0.083
-644.726	800.000	0.133	0.396
-643.711	157.276	-0.137	-0.190
-642.697	99.665	0.090	-0.104
-641.682	-200.000	0.049	-0.268
-640.668	800.000	-0.020	-0.084
-639.653	453.365	-0.114	0.251
-638.638	363.395	0.141	-0.282
-637.624	800.000	0.066	-0.186
-636.609	-101.156	0.076	-0.019
-635.595	-200.000	-0.049	-0.488
-634.580	-200.000	0.085	-0.548
-633.565	26.470	0.080	-0.067
-632.551	100.872	-0.057	0.066
-631.536	726.406	-0.082	-0.220
-630.522	-91.592	-0.131	-0.037
-629.507	316.631	-0.149	-0.280
-628.492	800.000	0.032	0.092
-627.478	-8.067	-0.478	0.322
-626.463	117.216	0.146	-0.179
-625.449	732.326	-0.024	-0.064
-624.434	6.732	0.255	-0.189
-623.419	800.000	-0.076	-0.310
-622.405	-114.815	0.030	0.006
-621.390	800.000	-0.074	-0.255
-620.376	150.827	-0.228	-0.310
-619.361	-170.625	0.342	-0.012
-618.346	28.490	0.106	-0.089
-617.332	-18.343	0.254	-0.158
-616.317	425.347	-0.040	-0.085
-615.303	62.828	0.201	0.200
-614.288	-47.809	-0.134	-0.065
-613.273	-18.250	-0.175	-0.109
-612.259	-200.000	0.003	-0.384
-611.244	167.722	0.107	0.152
-610.230	-36.738	0.264	-0.141
-609.215	473.103	-0.147	-0.330
-608.201	448.670	0.062	-0.135
-607.186	-10.476	0.051	0.033
-606.171	-92.707	0.196	0.055
-605.157	-90.259	0.291	0.084
-604.142	-200.000	0.002	-0.059
-603.128	-9.077	-0.341	0.228
-602.113	118.705	0.127	-0.157
-601.098	-163.616	-0.106	-0.005
-600.084	-200.000	0.032	0.163
-599.069	64.626	0.012	-0.012
-598.055	-146.678	-0.207	0.018
-597.040	31.759	0.201	-0.172
-596.025	-200.000	0.036	-0.203
-595.011	-185.939	0.145	0.002
-593.996	96.291	0.038	-0.044
-592.982	-148.295	-0.136	0.011
-591.967	57.004	-0.062	-0.060
-590.952	800.000	0.029	0.102
-589.938	-134.799	-0.294	0.036
-588.923	282.353	-0.157	-0.280
-587.909	-200.000	0.002	0.080
-586.894	800.000	-0.047	0.202
-585.879	-101.414	0.173	-0.042
-584.865	264.315	0.168	0.292
-583.850	298.012	0.194	0.354
-582.836	-200.000	0.064	0.303
-581.821	-98.250	-0.104	-0.027
-580.806	292.084	-0.121	-0.219
-579.792	-62.342	0.096	-0.040
-578.777	45.502	-0.191	0.176
-577.763	90.927	-0.116	-0.129
-576.748	-96.452	0.212	-0.056
-575.733	-11.615	0.124	-0.081
-574.719	-200.000	0.013	0.132
-573.704	684.573	-0.048	-0.125
-572.690	333.754	0.098	-0.189
-571.675	-41.108	-0.200	0.103
-570.661	-82.794	-0.158	0.051
-569.646	27.493	-0.157	0.132
-568.631	363.839	0.021	-0.042
-567.617	-200.000	0.010	-0.090
-566.602	45.160	0.162	0.148
-565.588	19.821	-0.046	-0.037
-564.573	-99.837	-0.053	-0.013
-563.558	271.706	-0.127	0.223
-562.544	-120.377	0.162	0.028
-561.529	94.498	0.144	0.163
-560.515	-43.058	0.026	0.013
-559.500	-171.838	-0.117	-0.004
-558.485	14.566	-0.069	-0.054
-557.471	67.022	0.084	0.086
-556.456	-120.365	0.254	-0.043
-555.442	-129.385	-0.083	0.011
-554.427	327.331	0.085	-0.163
-553.412	-98.780	-0.202	0.051
-552.398	157.473	0.076	0.105
-551.383	-31.617	0.093	-0.052
-550.369	-140.779	0.245	-0.025
-549.354	800.000	0.073	-0.227
-548.339	119.155	-0.181	0.223
-547.325	-112.721	0.106	-0.021
-546.310	-200.000	-0.038	-0.395
-545.296	49.728	-0.137	-0.129
-544.281	135.874	0.070	-0.091
-543.266	800.000	0.047	-0.167
-542.252	-156.836	-0.397	-0.024
-541.237	-23.652	0.045	0.027
-540.223	-96.224	0.073	-0.019
-539.208	800.000	0.096	0.310
-538.193	-13.530	0.250	-0.161
-537.179	800.000	-0.044	-0.160
-536.164	341.352	-0.113	0.219
-535.150	163.516	0.154	0.215
-534.135	-200.000	0.009	-0.188
-533.121	-200.000	0.008	-0.188
-532.106	147.054	-0.067	-0.090
-531.091	556.882	0.111	-0.266
-530.077	-29.506	-0.349	0.198
-529.062	-45.975	0.211	0.104
-528.048	30.275	-0.111	-0.094
-527.033	335.214	0.286	0.551
-526.018	-162.075	0.031	-0.002
-525.004	-200.000	0.006	-0.218
-523.989	334.145	-0.115	0.221
-522.975	295.448	-0.144	-0.263
-521.960	-200.000	0.016	0.162
-520.945	-51.628	0.126	0.058
-519.931	800.000	0.042	0.149
-518.916	111.535	0.151	-0.181
-517.902	-13.886	0.315	0.203
-516.887	-39.552	-0.203	-0.106
-515.872	-77.294	-0.263	-0.091
-514.858	717.930	-0.113	0.297
-513.843	131.430	0.179	0.229
-512.829	-115.649	-0.348	-0.065
-511.814	-134.531	-0.448	0.054
-510.799	45.125	0.119	-0.109
-509.785	327.319	-0.125	0.238
-508.770	46.053	0.105	0.097
-507.756	-73.026	-0.155	-0.056
-506.741	31.066	0.237	-0.202
-505.726	140.312	0.052	-0.068
-504.712	-200.000	0.011	-0.220
-503.697	-10.725	-0.123	0.080
-502.683	800.000	0.052	0.173
-501.668	2.975	-0.173	0.125
-500.653	-18.683	-0.361	-0.224
-499.639	62.554	-0.219	0.217
-498.624	405.551	-0.068	0.142
-497.610	800.000	0.013	0.044
-496.595	-19.358	0.089	-0.055
-495.581	-176.504	-0.281	-0.007
-494.566	-12.861	0.051	0.033
-493.551	-51.318	0.293	0.136
-492.537	800.000	0.047	-0.163
-491.522	-200.000	-0.052	0.362
-490.508	52.258	0.142	0.134
-489.493	800.000	-0.004	0.015
-488.478	-97.169	-0.159	0.041
-487.464	800.000	-0.090	-0.308
-486.449	98.224	-0.104	-0.119
-485.435	-103.888	-0.302	-0.070
-484.420	-97.213	0.193	-0.050
-483.405	-54.100	-0.044	-0.020
-482.391	-128.352	-0.196	-0.028
-481.376	-67.265	0.295	0.115
-480.362	800.000	-0.097	-0.393
-479.347	-200.000	0.056	-0.288
-478.332	48.363	-0.017	-0.015
-477.318	315.399	-0.183	-0.342
-476.303	304.401	0.198	0.365
-475.289	-12.809	0.136	0.088
-474.274	-200.000	-0.014	0.093
-473.259	14.954	-0.101	0.079
-472.245	76.090	0.203	0.213
-471.230	-200.000	0.062	0.274
-470.216	451.347	0.060	0.132
-469.201	-112.605	0.307	-0.061
-468.186	-141.377	-0.167	0.017
-467.172	102.518	0.195	-0.226
-466.157	800.000	-0.065	-0.208
-465.143	800.000	-0.135	-0.373
-464.128	-134.116	-0.152	0.019
-463.113	-162.641	0.318	0.015
-462.099	800.000	0.064	-0.185
-461.084	98.645	0.166	-0.190
-460.070	-56.147	0.227	0.100
-459.055	33.116	-0.292	0.251
-458.040	83.978	-0.115	-0.125
-457.026	133.069	0.141	0.181
-456.011	546.017	-0.099	0.236
-454.997	-200.000	0.025	-0.144
-453.982	800.000	-0.034	-0.107
-452.968	800.000	0.015	-0.059
-451.953	-200.000	-0.040	-0.217
-450.938	800.000	-0.105	-0.388
-449.924	-200.000	0.015	-0.093
-448.909	-200.000	-0.012	-0.059
-447.895	800.000	0.027	-0.100
-446.880	-70.871	0.181	-0.067
-445.865	60.158	0.210	-0.206
-444.851	-10.081	0.143	0.094
-443.836	-200.000	-0.016	0.105
-442.822	-200.000	0.023	-0.434
-441.807	-200.000	-0.062	0.320
-440.792	-151.009	-0.339	0.025
-439.778	70.551	0.187	0.192
-438.763	-200.000	-0.003	0.038
-437.749	-112.659	0.310	-0.061
-436.734	800.000	0.034	-0.117
-435.719	-200.000	-0.256	-0.000
-434.705	-151.899	0.208	-0.015
-433.690	800.000	-0.013	-0.051
-432.676	58.133	0.164	0.159
-431.661	-87.654	0.214	0.064
-430.646	800.000	0.101	0.294
-429.632	168.411	0.126	0.178
-428.617	-13.229	0.279	0.179
-427.603	-162.466	0.125	0.006
-426.588	-200.000	-0.002	-0.252
-425.573	-21.169	0.183	0.111
-424.559	-200.000	-0.034	-0.198
-423.544	248.651	0.043	0.072
-422.530	134.654	-0.244	0.314
-421.515	79.898	0.038	-0.040
-420.500	177.216	0.194	0.279
-419.486	728.812	-0.006	0.016
-418.471	269.092	0.075	0.130
-417.457	-28.333	-0.279	0.159
-416.442	-200.000	-0.041	0.294
-415.428	-200.000	0.036	0.232
-414.413	-135.440	-0.072	-0.009
-413.398	305.546	-0.177	0.326
-412.384	-200.000	-0.016	-0.081
-411.369	-77.946	0.260	0.089
-410.355	429.773	-0.005	0.011
-409.340	-37.503	-0.288	0.152
-408.325	-167.711	0.139	-0.005
-407.311	93.762	0.233	0.261
-406.296	-200.000	-0.029	-0.203
-405.282	-126.897	0.136	-0.020
-404.267	101.102	-0.235	-0.271
-403.252	11.524	-0.064	0.049
-402.238	-118.045	0.135	0.024
-401.223	596.956	-0.114	-0.280
-400.209	-93.510	-0.103	-0.028
-399.194	-63.421	-0.310	0.126
-398.179	-200.000	0.003	-0.316
-397.165	800.000	-0.010	-0.040
-396.150	89.068	-0.129	-0.142
-395.136	-200.000	0.062	-0.375
-394.121	277.868	0.126	-0.222
-393.106	-146.096	-0.151	-0.013
-392.092	-14.186	-0.172	-0.109
-391.077	-55.376	0.181	-0.080
-390.063	-105.021	0.366	0.083
-389.048	800.000	0.070	0.267
-388.033	92.238	-0.175	0.195
-387.019	328.429	0.069	-0.131
-386.004	-43.599	-0.147	-0.073
-384.990	182.204	-0.052	0.075
-383.975	732.949	0.048	0.127
-382.960	-196.353	0.051	0.000
-381.946	-200.000	0.012	-0.357
-380.931	-99.354	0.189	0.047
-379.917	-88.177	0.189	-0.056
-378.902	800.000	-0.084	-0.238
-377.888	-113.631	-0.211	0.041
-376.873	5.370	-0.198	-0.144
-375.858	-185.468	0.220	0.003
-374.844	-182.632	-0.360	-0.006
-373.829	-200.000	-0.002	-0.419
-372.815	9.093	0.093	-0.070
-371.800	-57.844	-0.160	-0.069
-370.785	434.007	0.032	-0.070
-369.771	-200.000	-0.367	0.000
-368.756	-158.357	-0.157	-0.009
-367.742	800.000	-0.026	-0.101
-366.727	-39.707	0.179	-0.092
-365.712	-200.000	0.027	-0.200
-364.698	-160.244	0.488	-0.026
-363.683	538.182	-0.139	0.327
-362.669	-142.108	0.405	-0.040
-361.654	92.024	-0.146	-0.162
-360.639	-1.523	0.119	0.083
-359.625	800.000	0.099	0.331
-358.610	13.693	0.137	-0.105
-357.596	53.924	-0.166	-0.158
-356.581	800.000	-0.014	0.045
-355.566	-88.228	0.049	-0.014
-354.552	554.311	0.073	-0.173
-353.537	-99.086	0.263	-0.066
-352.523	-182.134	-0.243	0.005
-351.508	81.922	-0.151	-0.162
-350.493	-146.565	0.068	0.006
-349.479	-200.000	0.075	-0.439
-348.464	-43.997	0.184	0.091
-347.450	-200.000	-0.026	0.191
-346.435	3.097	-0.250	0.179
-345.420	189.166	0.073	-0.108
-344.406	579.010	-0.044	0.107
-343.391	6.687	0.342	-0.251
-342.377	107.094	-0.167	0.195
-341.362	800.000	0.150	-0.438
-340.348	-200.000	-0.014	-0.203
-339.333	-169.472	-0.352	-0.013
-338.318	30.930	0.203	-0.172
-337.304	-105.437	0.151	-0.034
-336.289	-200.000	0.018	0.264
-335.275	26.535	-0.083	-0.068
-334.260	293.317	-0.032	0.057
-333.245	-161.890	0.105	0.005
-332.231	-200.000	-0.009	0.214
-331.216	-129.974	0.457	-0.062
-330.202	-66.430	-0.146	-0.057
-329.187	-102.401	-0.335	0.079
-328.172	-132.036	-0.108	-0.014
-327.158	12.244	-0.156	-0.119
-326.143	800.000	-0.065	-0.208
-325.129	-200.000	-0.027	-0.138
-324.114	-200.000	0.007	-0.235
-323.099	-200.000	-0.036	-0.179
-322.085	289.214	0.062	-0.110
-321.070	-116.783	-0.032	0.006
-320.056	-108.304	0.173	0.037
-319.041	120.779	0.131	0.160
-318.026	104.144	0.159	0.184
-317.012	134.949	-0.164	-0.210
-315.997	800.000	-0.023	0.097
-314.983	86.647	0.202	0.220
-313.968	-200.000	-0.006	-0.122
-312.953	-200.000	0.061	-0.460
-311.939	-78.022	0.076	0.026
-310.924	-141.484	0.286	0.029
-309.910	-117.559	-0.312	-0.056
-308.895	56.676	0.191	-0.184
-307.880	-67.281	-0.120	0.046
-306.866	-47.049	0.169	0.082
-305.851	60.238	-0.351	-0.342
-304.837	-200.000	0.012	-0.062
-303.822	-71.828	-0.460	0.169
-302.807	-13.068	0.010	0.006
-301.793	-200.000	0.000	0.191
-300.778	331.807	-0.142	-0.270
-299.764	235.714	-0.222	-0.361
-298.749	-200.000	-0.047	0.369
-297.735	93.877	0.128	0.143
-296.720	120.230	0.113	0.138
-295.705	84.782	-0.193	0.208
-294.691	800.000	-0.054	-0.187
-293.676	219.818	0.127	0.201
-292.662	-105.465	-0.227	-0.051
-291.647	-87.458	-0.167	0.050
-290.632	-200.000	0.026	0.344
-289.618	328.275	-0.079	0.149
-288.603	-200.000	0.011	0.339
-287.589	428.738	-0.136	0.289
-286.574	-200.000	0.214	-0.001
-285.559	84.435	-0.067	-0.073
-284.545	790.747	-0.135	0.365
-283.530	-6.630	0.124	0.083
-282.516	11.264	-0.286	-0.215
-281.501	248.184	-0.180	-0.299
-280.486	265.847	0.148	0.254
-279.472	-63.885	0.246	-0.099
-278.457	139.662	-0.197	-0.255
-277.443	-56.170	0.150	-0.066
-276.428	164.494	-0.014	-0.020
-275.413	-200.000	0.003	-0.265
-274.399	-132.509	0.135	-0.017
-273.384	661.620	0.105	-0.267
-272.370	-127.081	0.052	0.007
-271.355	-60.374	0.100	0.042
-270.340	800.000	-0.036	0.116
-269.326	197.908	0.191	0.287
-268.311	84.050	-0.295	-0.317
-267.297	92.769	0.221	0.245
-266.282	-32.558	0.196	-0.107
-265.267	-111.056	0.227	0.046
-264.253	-111.677	-0.170	0.034
-263.238	-200.000	-0.099	0.585
-262.224	-200.000	-0.098	0.487
-261.209	-74.185	-0.215	0.077
-260.195	-46.191	0.030	0.014
-259.180	21.915	-0.098	0.079
-258.165	-200.000	0.003	-0.025
-257.151	-26.939	0.145	0.083
-256.136	413.252	-0.095	0.199
-255.122	-148.232	-0.179	-0.014
-254.107	257.501	-0.291	0.492
-253.092	800.000	-0.058	0.191
-252.078	-104.575	-0.076	0.017
-251.063	-79.802	-0.239	0.079
-250.049	650.734	-0.110	0.276
-249.034	206.936	-0.166	0.254
-248.019	-162.685	0.291	-0.014
-247.005	118.675	0.351	0.426
-245.990	160.819	0.230	-0.315
-244.976	-104.172	0.184	-0.042
-243.961	444.381	0.181	0.391
-242.946	-200.000	0.042	-0.199
-241.932	69.946	0.300	-0.304
-240.917	74.676	0.105	-0.109
-239.903	-123.689	0.287	-0.045
-238.888	-97.835	-0.304	-0.077
-237.873	39.100	0.033	0.029
-236.859	-152.177	-0.285	-0.020
-235.844	-34.676	-0.081	0.044
-234.830	71.744	-0.139	-0.142
-233.815	19.596	0.214	0.169
-232.800	35.271	0.078	-0.067
-231.786	800.000	0.060	-0.174
-230.771	258.612	0.071	-0.120
-229.757	-154.758	-0.242	0.016
-228.742	-200.000	-0.005	-0.136
-227.727	-165.443	0.178	-0.008
-226.713	-53.313	0.089	0.040
-225.698	-200.000	-0.047	0.287
-224.684	-200.000	0.067	0.358
-223.669	-200.000	0.042	0.336
-222.655	727.667	-0.074	-0.194
-221.640	800.000	0.045	0.171
-220.625	-163.834	-0.143	0.007
-219.611	-79.401	-0.285	-0.095
-218.596	-200.000	0.058	-0.250
-217.582	-157.213	-0.282	0.017
-216.567	252.259	0.141	0.236
-215.552	-200.000	-0.016	0.149
-214.538	45.185	0.060	0.054
-213.523	800.000	-0.021	0.076
-212.509	99.038	-0.120	0.136
-211.494	-107.138	0.127	0.028
-210.479	-130.281	-0.186	-0.025
-209.465	433.230	0.121	0.259
-208.450	-96.989	0.259	-0.067
-207.436	-20.789	-0.324	-0.195
-206.421	13.622	0.225	0.171
-205.406	26.467	0.112	0.092
-204.392	106.298	-0.242	-0.282
-203.377	18.657	0.124	0.098
-202.363	83.231	-0.069	0.073
-201.348	800.000	0.004	0.013
-200.333	68.591	-0.083	0.084
-199.319	262.964	-0.197	0.336
-198.304	-88.244	0.165	0.049
-197.290	89.044	0.164	-0.179
-196.275	-59.770	-0.466	-0.196
-195.260	-43.253	-0.023	0.011
-194.246	-96.788	-0.281	0.072
-193.231	-200.000	0.006	0.118
-192.217	-200.000	0.014	0.077
-191.202	47.243	0.184	-0.168
-190.187	-9.679	-0.263	-0.172
-189.173	218.442	0.085	0.133
-188.158	-200.000	0.009	0.180
-187.144	451.150	0.261	0.566
-186.129	725.721	-0.005	-0.012
-185.114	800.000	-0.054	0.211
-184.100	34.570	-0.298	-0.256
-183.085	195.840	0.096	0.143
-182.071	800.000	0.080	-0.244
-181.056	159.236	-0.097	0.133
-180.042	247.637	0.061	0.101
-179.027	522.368	-0.120	0.276
-178.012	-13.797	0.246	0.156
-176.998	137.583	0.190	0.244
-175.983	703.926	0.070	-0.181
-174.969	790.879	0.053	0.142
-173.954	593.300	-0.080	0.194
-172.939	-80.620	-0.205	-0.067
-171.925	-200.000	0.023	0.214
-170.910	-200.000	-0.032	0.248
-169.896	-100.320	0.416	-0.101
-168.881	698.936	-0.184	-0.475
-167.866	90.617	0.308	0.338
-166.852	264.777	-0.123	0.210
-165.837	-142.315	-0.318	0.031
-164.823	800.000	0.129	-0.365
-163.808	156.850	-0.158	0.214
-162.793	79.456	0.157	0.165
-161.779	-95.553	-0.296	-0.078
-160.764	-200.000	0.020	0.437
-159.750	-53.713	0.114	0.051
-158.735	42.992	0.054	-0.048
-157.720	-107.264	-0.048	0.010
-156.706	-97.807	0.383	0.097
-155.691	-200.000	-0.034	-0.271
-154.677	-39.283	-0.259	0.133
-153.662	-200.000	0.006	0.233
-152.647	456.219	-0.161	-0.351
-151.633	-140.302	-0.248	0.025
-150.618	800.000	0.041	-0.141
-149.604	-111.059	0.185	-0.037
-148.589	-200.000	0.032	0.222
-147.574	-7.595	0.202	-0.133
-146.560	800.000	-0.049	0.172
-145.545	800.000	-0.046	0.150
-144.531	-200.000	0.013	0.170
-143.516	-200.000	-0.017	-0.656
-142.502	-185.789	-0.340	-0.005
-141.487	-50.950	0.126	-0.058
-140.472	-75.493	0.118	0.041
-139.458	-123.364	-0.127	0.020
-138.443	800.000	-0.014	0.042
-137.429	643.423	0.144	0.359
-136.414	606.994	0.079	0.193
-135.399	800.000	-0.013	0.043
-134.385	800.000	0.076	0.280
-133.370	-200.000	0.027	0.146
-132.356	800.000	0.062	-0.200
-131.341	28.861	-0.149	-0.124
-130.326	-39.800	-0.214	0.110
-129.312	800.000	0.079	0.260
-128.297	200.708	-0.136	-0.205
-127.283	-155.294	-0.270	-0.017
-126.268	147.790	0.207	-0.273
-125.253	157.006	-0.070	-0.095
-124.239	-104.612	-0.351	0.079
-123.224	-40.606	0.299	0.152
-122.210	-118.289	-0.124	-0.022
-121.195	-173.598	0.108	0.003
-120.180	51.162	0.340	0.316
-119.166	65.154	0.168	-0.166
-118.151	87.519	-0.087	-0.095
-117.137	123.791	0.148	0.182
-116.122	18.070	0.119	0.093
-115.107	-106.477	-0.261	0.057
-114.093	-7.720	-0.225	0.149
-113.078	-200.000	-0.034	0.202
-112.064	208.144	-0.033	-0.051
-111.049	-12.185	0.168	0.108
-110.034	-80.026	0.413	-0.135
-109.020	-200.000	0.030	0.165
-108.005	225.844	0.222	-0.352
-106.991	-200.000	-0.100	0.509
-105.976	152.140	0.086	-0.115
-104.962	104.310	0.047	0.054
-103.947	800.000	-0.050	0.199
-102.932	96.275	0.109	0.122
-101.918	448.066	0.135	0.291
-100.903	305.604	0.201	0.365
-99.889	-91.239	0.170	-0.048
-98.874	652.337	-0.116	0.291
-97.859	-47.356	0.385	0.183
-96.845	-13.598	-0.136	0.086
-95.830	-200.000	0.004	-0.139
-94.816	-22.522	-0.253	0.150
-93.801	-65.056	0.077	-0.031
-92.786	-61.684	0.305	-0.125
-91.772	35.602	0.140	0.120
-90.757	-200.000	-0.027	-0.367
-89.743	-200.000	0.046	0.202
-88.728	-78.644	0.226	-0.075
-87.713	439.583	0.062	0.132
-86.699	-80.034	-0.264	0.087
-85.684	353.753	-0.111	-0.216
-84.670	-80.833	0.281	-0.091
-83.655	-200.000	0.031	-0.268
-82.640	-149.837	0.526	0.040
-81.626	-35.543	0.168	0.089
-80.611	-37.906	0.019	-0.010
-79.597	-130.094	0.512	-0.068
-78.582	411.475	0.052	0.107
-77.567	800.000	-0.085	0.252
-76.553	-3.151	-0.088	-0.060
-75.538	800.000	-0.086	0.239
-74.524	-75.812	0.245	0.085
-73.509	60.162	-0.152	0.147
-72.494	101.074	0.132	0.150
-71.480	32.157	-0.162	0.137
-70.465	440.103	-0.013	-0.027
-69.451	-73.326	0.071	0.025
-68.436	100.364	0.238	0.270
-67.422	756.902	0.119	-0.316
-66.407	-200.000	-0.035	-0.167
-65.392	-200.000	-0.011	0.101
-64.378	64.293	-0.098	0.096
-63.363	-90.894	0.304	0.086
-62.349	-200.000	-0.004	0.151
-61.334	73.968	-1.145	-1.173
-60.319	77.120	0.615	0.638
-59.305	235.093	-0.790	-1.273
-58.290	166.535	0.880	1.217
-57.276	424.409	0.607	1.275
-56.261	-200.000	122.766	651.495
-55.246	439.959	1532.569	3267.582
-54.232	149.191	2676.357	3534.064
-53.217	97.951	2131.459	2392.961
-52.203	35.305	1577.333	1349.657
-51.188	27.309	1323.542	1084.994
-50.173	24.722	1286.245	1039.361
-49.159	51.558	1354.505	1256.027
-48.144	48.994	1366.745	1252.004
-47.130	27.335	1315.197	1078.137
-46.115	24.063	1296.033	1043.243
-45.100	23.871	1290.881	1037.937
-44.086	23.922	1288.281	1036.099
-43.071	23.933	1285.810	1034.136
-42.057	23.868	1284.034	1032.291
-41.042	23.864	1282.427	1030.934
-40.027	23.894	1280.916	1029.850
-39.013	23.916	1279.078	1028.460
-37.998	23.842	1277.487	1026.710
-36.984	24.035	1275.415	1026.118
-35.969	24.067	1273.559	1024.768
-34.954	24.082	1272.286	1023.792
-33.940	23.916	1271.844	1022.441
-32.925	24.028	1270.267	1021.775
-31.911	24.022	1268.796	1020.516
-30.896	24.085	1267.462	1019.765
-29.881	24.106	1265.944	1018.621
-28.867	24.174	1264.502	1017.809
-27.852	24.090	1263.129	1016.184
-26.838	24.094	1262.281	1015.483
-25.823	24.217	1260.570	1014.771
-24.809	24.134	1259.027	1013.017
-23.794	24.095	1257.832	1011.792
-22.779	24.053	1256.569	1010.495
-21.765	24.038	1255.552	1009.555
-20.750	24.080	1254.280	1008.728
-19.736	23.982	1252.718	1006.881
-18.721	23.899	1252.252	1005.994
-17.706	24.005	1250.809	1005.392
-16.692	23.911	1249.899	1004.091
-15.677	23.896	1248.603	1002.927
-14.663	23.941	1247.490	1002.245
-13.648	23.913	1246.208	1001.019
-12.633	23.892	1245.661	1000.423
-11.619	23.958	1244.625	999.922
-10.604	24.003	1243.951	999.591
-9.590	24.032	1242.636	998.657
-8.575	23.965	1241.658	997.459
-7.560	23.935	1241.271	996.938
-6.546	23.937	1240.689	996.442
-5.531	23.885	1239.443	995.110
-4.517	23.979	1238.544	994.876
-3.502	23.909	1237.860	993.894
-2.487	23.975	1237.038	993.565
-1.473	23.875	1232.496	989.322
-0.458	22.149	1217.835	968.014
0.556	16.960	1202.268	931.008
1.571	13.242	1209.611	916.043
2.586	12.669	1223.339	923.143
3.600	12.606	1211.484	913.771
4.615	9.334	1140.728	843.192
5.629	3.044	1070.842	760.426
6.644	0.298	1053.770	734.860
7.659	0.169	1051.700	732.723
8.673	0.088	1050.682	731.556
9.688	0.115	1049.501	730.799
10.702	0.233	1047.490	729.906
11.717	3.862	1051.762	750.452
12.731	10.904	1060.621	791.067
13.746	15.728	1066.390	818.844
14.761	16.778	1067.214	824.515
15.775	16.008	1065.513	819.385
16.790	14.982	1063.595	812.856
17.804	14.340	1062.345	808.711
18.819	14.022	1061.251	806.265
19.834	13.859	1060.034	804.480
20.848	13.469	1059.560	802.160
21.863	13.336	1058.697	800.790
22.877	13.123	1057.726	798.957
23.892	13.071	1057.149	798.197
24.907	12.942	1056.875	797.297
25.921	13.184	1055.508	797.365
26.936	13.074	1055.114	796.465
27.950	13.257	1053.569	796.108
28.965	13.342	1052.403	795.569
29.980	13.389	1050.857	794.556
30.994	13.294	1050.472	793.737
32.009	13.349	1049.563	793.244
33.023	13.288	1048.587	792.144
34.038	13.401	1047.211	791.574
35.053	13.259	1046.361	790.180
36.067	13.238	1045.688	789.503
37.082	13.376	1044.700	789.347
38.096	13.310	1044.016	788.447
39.111	13.235	1043.448	787.589
40.126	13.108	1042.280	786.032
41.140	13.188	1040.738	785.184
42.155	13.079	1039.676	783.795
43.169	13.032	1038.654	782.729
44.184	13.085	1037.725	782.215
45.199	13.054	1037.196	781.598
46.213	13.084	1036.267	780.973
47.228	13.152	1035.106	780.347
48.242	13.147	1033.867	779.320
49.257	13.094	1033.004	778.351
50.271	13.204	1032.084	778.110
51.286	13.206	1031.166	777.354
52.301	13.248	1030.224	776.776
53.315	13.085	1029.290	775.235
54.330	13.095	1027.875	774.148
55.344	13.117	1027.587	773.969
56.359	13.169	1026.516	773.334
57.374	13.084	1025.595	772.173
58.388	13.111	1024.893	771.703
59.403	12.992	1024.387	770.700
60.417	13.009	1023.609	770.126
61.432	13.097	1022.091	769.323
62.447	13.099	1021.576	768.878
63.461	13.028	1020.959	768.016
64.476	13.070	1019.963	767.392
65.490	13.041	1019.176	766.599
66.505	13.190	1018.423	766.658
67.520	13.146	1017.871	765.970
68.534	13.115	1017.488	765.468
69.549	13.157	1016.385	764.767
70.563	13.067	1015.782	763.829
71.578	12.948	1015.113	762.708
72.593	12.858	1014.497	761.761
73.607	12.992	1013.577	761.622
74.622	12.876	1013.268	760.788
75.636	12.947	1012.339	760.350
76.651	13.028	1011.447	759.986
77.666	12.860	1011.182	758.946
78.680	12.997	1010.308	758.850
79.695	13.061	1009.195	758.241
80.709	12.933	1009.403	757.746
81.724	13.096	1008.097	757.447
82.739	13.167	1007.365	757.151
83.753	13.172	1007.254	757.024
84.768	13.360	1005.750	756.690
85.782	13.234	1005.021	755.498
86.797	13.264	1004.038	754.829
87.812	13.204	1003.127	753.801
88.826	13.312	1002.125	753.478
89.841	13.232	1001.787	752.789
90.855	13.275	1000.687	752.094
91.870	13.257	999.495	751.048
92.884	13.270	999.065	750.718
93.899	13.331	998.510	750.513
94.914	13.394	997.144	749.703
95.928	13.231	996.705	748.570
96.943	13.350	995.663	748.256
97.957	13.250	995.153	747.356
98.972	13.361	993.752	746.740
99.987	13.319	992.631	745.641
101.001	13.362	991.995	745.291
102.016	13.319	990.951	744.246
103.030	13.297	990.582	743.804
104.045	13.312	989.700	743.145
105.060	13.392	988.532	742.561
106.074	13.188	988.143	741.290
107.089	13.215	986.881	740.396
108.103	13.138	986.033	739.353
109.118	13.169	985.257	738.841
110.133	13.246	984.312	738.414
111.147	13.194	983.647	737.616
112.162	13.107	982.911	736.610
113.176	13.141	982.269	736.218
114.191	13.215	981.395	735.825
115.206	13.217	980.459	735.070
116.220	13.179	979.741	734.295
117.235	13.270	978.470	733.681
118.249	13.221	977.806	732.902
119.264	13.171	977.326	732.256
120.279	13.276	976.242	731.845
121.293	13.289	975.289	731.122
122.308	13.151	974.023	729.500
123.322	13.128	973.382	728.853
124.337	13.241	972.265	728.450
125.352	13.076	971.469	727.063
126.366	13.196	970.662	726.921
127.381	13.199	969.403	725.927
128.395	13.156	968.744	725.181
129.410	13.254	967.522	724.632
130.424	13.358	966.695	724.406
131.439	13.196	966.205	723.266
132.454	13.344	965.281	723.153
133.468	13.256	964.274	721.954
134.483	13.222	963.838	721.413
135.497	13.249	962.817	720.704
136.512	13.405	961.841	720.589
137.527	13.232	961.292	719.360
138.541	13.374	960.591	719.389
139.556	13.439	959.734	718.969
140.570	13.256	959.195	717.703
141.585	13.327	958.238	717.235
142.600	13.371	957.693	716.953
143.614	13.464	956.198	716.173
144.629	13.522	955.808	716.069
145.643	13.545	954.795	715.344
146.658	13.409	954.180	714.235
147.673	13.339	953.310	713.218
148.687	13.149	952.312	711.590
149.702	13.313	951.497	711.622
150.716	13.429	950.729	711.484
151.731	13.405	949.915	710.710
152.746	13.580	948.655	710.456
153.760	13.511	948.657	710.095
154.775	13.323	948.511	709.119
155.789	13.609	947.435	709.478
156.804	13.534	946.583	708.456
157.819	13.518	945.912	707.819
158.833	13.618	945.551	707.914
159.848	13.608	944.656	707.142
160.862	13.625	943.398	706.209
161.877	13.559	942.686	705.331
162.892	13.432	941.866	704.116
163.906	13.421	941.016	703.372
164.921	13.502	940.014	702.906
165.935	13.510	939.831	702.739
166.950	13.615	938.719	702.292
167.964	13.585	938.117	701.650
168.979	13.523	936.841	700.372
169.994	13.504	935.945	699.559
171.008	13.659	935.259	699.639
172.023	13.651	934.640	699.081
173.037	13.666	934.109	698.684
174.052	13.799	932.921	698.294
175.067	13.620	933.019	697.551
176.081	13.631	932.243	696.957
177.096	13.548	931.835	696.240
178.110	13.777	930.732	696.317
179.125	13.592	930.744	695.490
180.140	13.754	929.635	695.275
181.154	13.705	929.332	694.782
182.169	13.760	928.773	694.534
183.183	13.941	927.766	694.476
184.198	13.834	927.257	693.586
185.213	13.899	926.335	693.108
186.227	13.942	925.554	692.641
187.242	13.858	925.210	691.971
188.256	13.969	924.459	691.810
189.271	13.920	924.034	691.228
190.286	13.721	923.197	689.713
191.300	13.836	922.177	689.369
192.315	13.821	921.606	688.818
193.329	13.787	921.613	688.620
194.344	13.726	920.515	687.486
195.359	13.832	919.484	687.096
196.373	13.768	919.567	686.833
197.388	13.981	918.887	687.146
198.402	14.064	917.796	686.612
199.417	13.896	917.879	685.917
200.432	14.003	916.933	685.592
201.446	14.098	916.796	685.821
202.461	13.962	916.236	684.780
203.475	14.176	915.456	685.016
204.490	14.066	914.429	683.736
205.504	14.116	913.884	683.472
206.519	14.035	912.971	682.397
207.534	14.104	912.298	682.116
208.548	14.161	911.461	681.666
209.563	14.092	911.060	681.020
210.577	14.245	909.906	680.724
211.592	14.156	909.694	680.141
212.607	14.250	908.821	679.814
213.621	14.124	908.420	678.940
214.636	14.229	907.300	678.471
215.650	14.190	907.237	678.205
216.665	14.295	906.424	677.963
217.680	14.259	905.882	677.350
218.694	14.338	904.802	676.804
219.709	14.260	904.456	676.168
220.723	14.320	903.740	675.819
221.738	14.259	903.167	675.082
222.753	14.322	901.965	674.379
223.767	14.367	901.712	674.312
224.782	14.330	901.515	673.957
225.796	14.517	900.637	673.994
226.811	14.473	899.848	673.169
227.826	14.423	899.337	672.525
228.840	14.413	898.566	671.849
229.855	14.369	897.815	671.050
230.869	14.405	896.800	670.377
231.884	14.299	896.387	669.581
232.899	14.402	895.931	669.598
233.913	14.388	894.729	668.584
234.928	14.438	893.993	668.173
235.942	14.455	893.710	667.971
236.957	14.379	893.133	667.176
237.972	14.343	892.530	666.524
238.986	14.397	892.176	666.416
240.001	14.294	891.729	665.610
241.015	14.552	890.727	665.833
242.030	14.468	890.175	665.029
243.045	14.465	889.581	664.515
244.059	14.455	889.439	664.310
245.074	14.625	888.009	663.858
246.088	14.653	887.513	663.538
247.103	14.620	886.901	662.891
248.117	14.680	886.708	662.926
249.132	14.869	885.576	662.771
250.147	14.873	885.280	662.509
251.161	14.766	884.546	661.476
252.176	14.868	883.631	661.136
253.190	14.863	883.280	660.797
254.205	14.862	882.241	659.957
255.220	14.870	881.995	659.744
256.234	14.904	881.351	659.339
257.249	14.971	880.466	658.884
258.263	14.977	879.804	658.352
259.278	14.801	879.611	657.457
260.293	15.070	878.651	657.738
261.307	14.976	878.078	656.882
262.322	15.070	877.458	656.729
263.336	15.188	876.370	656.320
264.351	15.260	875.663	656.012
265.366	15.186	875.282	655.383
266.380	15.171	874.699	654.828
267.395	15.262	873.927	654.548
268.409	15.106	873.272	653.389
269.424	15.119	872.813	653.040
270.439	15.061	872.130	652.244
271.453	15.194	870.804	651.714
272.468	15.061	870.765	651.111
273.482	15.162	870.241	651.051
274.497	15.097	869.732	650.359
275.512	15.279	868.912	650.396
276.526	15.190	868.518	649.698
277.541	15.239	868.387	649.733
278.555	15.141	867.795	648.852
279.570	15.324	866.833	648.782
280.585	15.352	866.075	648.266
281.599	15.352	865.018	647.419
282.614	15.327	864.527	646.898
283.628	15.312	864.235	646.564
284.643	15.322	863.440	645.951
285.657	15.395	862.704	645.624
286.672	15.314	862.440	645.060
287.687	15.431	861.462	644.721
288.701	15.490	861.076	644.599
289.716	15.429	860.458	643.846
290.730	15.263	860.001	642.811
291.745	15.528	859.147	643.129
292.760	15.451	858.803	642.522
293.774	15.614	858.328	642.734
294.789	15.536	857.188	641.523
295.803	15.481	856.596	640.815
296.818	15.591	855.843	640.614
297.833	15.592	855.477	640.289
298.847	15.582	854.938	639.787
299.862	15.533	854.134	638.943
300.876	15.581	853.657	638.712
301.891	15.551	853.256	638.244
302.906	15.571	852.910	638.003
303.920	15.630	852.365	637.763
304.935	15.733	851.832	637.699
305.949	15.719	850.839	636.844
306.964	15.827	849.912	636.503
307.979	15.893	849.715	636.549
308.993	15.833	849.021	635.745
310.008	15.803	848.575	635.242
311.022	15.849	847.848	634.816
312.037	15.752	847.223	633.926
313.052	15.844	846.751	633.863
314.066	15.822	846.304	633.391
315.081	15.754	845.582	632.539
316.095	15.822	845.134	632.403
317.110	15.779	844.817	631.947
318.125	15.871	844.235	631.801
319.139	15.813	843.868	631.253
320.154	15.899	843.277	631.077
321.168	15.995	842.542	630.831
322.183	15.889	841.979	629.958
323.197	15.880	841.624	629.602
324.212	15.775	841.384	628.974
325.227	15.718	840.573	628.101
326.241	15.952	839.851	628.376
327.256	15.846	839.737	627.842
328.270	15.906	838.960	627.429
329.285	15.879	838.412	626.865
330.300	16.079	837.651	626.983
331.314	16.021	837.018	626.236
332.329	16.020	836.673	625.920
333.343	16.131	836.316	626.011
334.358	16.102	835.960	625.581
335.373	16.183	835.520	625.497
336.387	16.157	834.925	624.898
337.402	16.084	835.180	624.762
338.416	16.224	834.551	624.757
339.431	16.135	833.912	623.892
340.446	16.277	833.764	624.253
341.460	16.184	833.536	623.682
342.475	16.236	832.964	623.394
343.489	16.332	832.596	623.417
344.504	16.273	832.280	622.908
345.519	16.357	831.198	622.353
346.533	16.442	830.810	622.318
347.548	16.382	830.531	621.835
348.562	16.382	829.830	621.256
349.577	16.290	829.307	620.468
350.592	16.336	828.767	620.180
351.606	16.342	828.573	620.003
352.621	16.313	827.335	618.914
353.635	16.368	826.788	618.652
354.650	16.496	826.039	618.504
355.665	16.393	825.374	617.576
356.679	16.545	824.513	617.433
357.694	16.482	824.205	616.915
358.708	16.553	823.564	616.640
359.723	16.507	822.891	615.914
360.738	16.643	822.192	615.832
361.752	16.555	822.056	615.353
362.767	16.534	821.755	615.001
363.781	16.581	820.863	614.448
364.796	16.702	820.608	614.644
365.810	16.686	819.953	614.037
366.825	16.763	819.431	613.871
367.840	16.637	819.021	613.053
368.854	16.735	818.790	613.183
369.869	16.783	817.818	612.574
370.883	16.672	818.062	612.303
371.898	16.751	817.619	612.201
372.913	16.890	817.049	612.220
373.927	16.683	816.719	611.174
374.942	16.884	816.312	611.540
375.956	16.796	815.877	610.842
376.971	16.793	815.683	610.632
377.986	17.011	814.824	610.719
379.000	16.906	814.624	610.137
380.015	16.920	814.106	609.748
381.029	16.972	813.232	609.225
382.044	16.954	812.817	608.797
383.059	16.842	812.361	607.998
384.073	16.850	811.782	607.540
385.088	17.057	810.875	607.549
386.102	16.888	810.751	606.797
387.117	16.964	810.035	606.479
388.132	16.998	809.223	605.938
389.146	17.055	808.755	605.738
390.161	17.117	808.298	605.565
391.175	17.184	807.935	605.478
392.190	17.018	807.595	604.578
393.205	17.096	806.879	604.265
394.219	17.077	806.550	603.897
395.234	16.969	806.315	603.285
396.248	17.064	805.912	603.268
397.263	17.065	805.225	602.703
398.278	17.081	805.339	602.791
399.292	17.059	804.676	602.164
400.307	17.003	803.938	601.359
401.321	17.050	803.442	601.102
402.336	17.066	803.069	600.827
403.350	17.145	802.605	600.706
404.365	17.245	802.202	600.705
405.380	17.201	801.707	600.124
406.394	17.208	801.159	599.686
407.409	17.233	801.009	599.610
408.423	17.283	800.920	599.667
409.438	17.304	800.147	599.107
410.453	17.374	799.807	599.046
411.467	17.517	799.153	599.009
412.482	17.365	798.939	598.258
413.496	17.333	798.732	597.940
414.511	17.505	798.302	598.169
415.526	17.465	797.850	597.635
416.540	17.635	797.152	597.656
417.555	17.377	796.848	596.472
418.569	17.403	796.569	596.301
419.584	17.576	795.909	596.362
420.599	17.544	795.643	595.997
421.613	113.992	1297.641	1487.074
422.628	98.155	1370.736	1487.131
