DTS Sentinel unit serial number:	SN413079Multiplexer serial number:	ORYXHardware model number:	OX4-SRSoftware version number:	ORYX F/W v4.00 Oryx Data Collector v3.7.2.0data status	okinstallation	princeton_trtdifferential loss correction	single-endedforward channel	channel 1reverse channel	N/Adate	2019/09/13time	04:18:35forward acquisition time	60.00reverse acquisition time	0.00gamma	496.2192k internal	0.2334k external	0.2334temperature offset calibration	1.0160default loss term (dB/km)	0.3790temperature slope calibration	1.0000multiplexer offset coefficient	1.0000multiplexer slope coefficient	1.0000fibre end	0.00T internal ref (°C)	26.81T ext. ref 1 (°C)	4.04T ext. ref 2 (°C)	21.20length (m)	temperature (°C)	Stokes	anti-Stokes-747.200	312.846	-0.054	-0.101
-746.185	71.350	-0.159	0.166
-745.171	220.851	0.039	-0.062
-744.156	257.569	-0.257	0.445
-743.142	-17.066	-0.161	-0.102
-742.127	295.080	-0.026	0.049
-741.112	73.834	-0.139	0.147
-740.098	-81.083	-0.342	0.114
-739.083	-18.424	-0.226	-0.142
-738.069	72.698	0.231	0.242
-737.054	-131.567	-0.289	-0.038
-736.039	-47.568	-0.277	0.135
-735.025	-200.000	0.271	0.000
-734.010	142.164	-0.101	-0.135
-732.996	300.006	0.070	0.130
-731.981	175.805	-0.196	-0.286
-730.966	155.556	0.049	0.068
-729.952	800.000	0.049	0.180
-728.937	-133.889	-0.270	0.034
-727.923	38.073	0.024	0.022
-726.908	-44.926	0.139	0.069
-725.894	800.000	-0.111	0.359
-724.879	-123.000	-0.139	-0.022
-723.864	-22.022	0.117	-0.072
-722.850	352.259	0.072	0.143
-721.835	321.737	0.051	-0.097
-720.821	700.636	-0.029	0.078
-719.806	-200.000	0.020	0.260
-718.791	18.636	0.162	0.130
-717.777	-10.956	0.123	-0.081
-716.762	-66.783	-0.078	0.031
-715.748	-63.553	-0.165	0.068
-714.733	-200.000	-0.024	-0.368
-713.718	-200.000	0.035	0.249
-712.704	-200.000	0.026	0.372
-711.689	83.596	0.242	-0.265
-710.675	-107.449	-0.195	-0.043
-709.660	47.841	0.062	-0.058
-708.645	119.358	0.205	-0.255
-707.631	-51.177	-0.247	-0.116
-706.616	800.000	0.052	0.225
-705.602	583.713	-0.064	-0.158
-704.587	800.000	-0.062	-0.183
-703.572	286.280	0.091	0.164
-702.558	-161.790	0.093	-0.005
-701.543	5.165	0.100	0.074
-700.529	-30.994	-0.065	0.037
-699.514	-200.000	-0.026	0.218
-698.499	800.000	-0.076	-0.251
-697.485	39.830	-0.121	0.109
-696.470	-200.000	0.010	0.235
-695.456	-95.046	0.279	-0.076
-694.441	154.005	-0.152	-0.208
-693.426	-180.080	0.524	-0.011
-692.412	-200.000	-0.036	0.233
-691.397	325.790	-0.115	-0.221
-690.383	-200.000	-0.011	0.128
-689.368	-200.000	0.004	-0.081
-688.354	-95.317	-0.117	-0.031
-687.339	-190.215	-0.187	0.002
-686.324	56.835	-0.081	-0.079
-685.310	-13.256	0.164	0.107
-684.295	-22.460	0.216	-0.131
-683.281	800.000	-0.061	-0.245
-682.266	-108.773	0.382	-0.082
-681.251	-46.647	0.112	-0.055
-680.237	-61.058	0.202	0.085
-679.222	345.531	0.085	-0.168
-678.208	-200.000	0.015	0.297
-677.193	141.834	-0.098	0.130
-676.178	73.036	-0.188	-0.197
-675.164	17.920	0.143	0.114
-674.149	-68.325	0.172	0.067
-673.135	-200.000	0.023	-0.254
-672.120	-28.656	-0.346	-0.200
-671.105	65.656	0.234	-0.237
-670.091	301.353	-0.128	-0.237
-669.076	-18.701	0.080	-0.050
-668.062	-75.452	0.126	0.045
-667.047	-200.000	-0.002	0.083
-666.032	-200.000	-0.015	-0.126
-665.018	800.000	0.036	-0.134
-664.003	524.210	-0.103	-0.242
-662.989	23.045	-0.158	0.130
-661.974	197.482	-0.136	-0.208
-660.959	278.233	-0.094	-0.167
-659.945	-22.475	-0.281	-0.170
-658.930	800.000	0.008	-0.027
-657.916	-200.000	-0.003	-0.242
-656.901	7.537	0.039	0.029
-655.886	493.164	-0.110	-0.254
-654.872	-145.990	-0.173	-0.015
-653.857	-70.443	-0.170	-0.064
-652.843	-200.000	-0.027	-0.143
-651.828	800.000	0.074	-0.292
-650.814	800.000	0.035	-0.146
-649.799	-14.199	-0.085	0.055
-648.784	-42.984	0.248	-0.126
-647.770	-99.277	-0.163	-0.041
-646.755	-89.505	0.274	-0.080
-645.741	800.000	-0.059	0.201
-644.726	227.162	0.235	-0.383
-643.711	-35.575	0.047	-0.026
-642.697	29.349	0.087	-0.074
-641.682	-138.033	-0.190	-0.021
-640.668	-200.000	-0.023	-0.153
-639.653	-110.001	-0.226	-0.047
-638.638	441.573	-0.073	-0.160
-637.624	800.000	-0.042	0.186
-636.609	-53.382	0.205	0.094
-635.595	800.000	0.061	0.173
-634.580	-26.952	-0.114	-0.067
-633.565	212.965	0.109	0.173
-632.551	60.509	0.167	-0.166
-631.536	-141.831	-0.310	-0.031
-630.522	-200.000	-0.006	0.257
-629.507	-64.005	-0.158	-0.064
-628.492	-148.184	-0.246	-0.020
-627.478	800.000	-0.011	0.032
-626.463	449.442	0.074	-0.163
-625.449	439.806	-0.064	-0.139
-624.434	232.439	-0.128	-0.210
-623.419	800.000	0.188	0.567
-622.405	-0.408	0.095	0.068
-621.390	10.858	0.414	-0.317
-620.376	105.595	0.124	-0.147
-619.361	-70.024	0.319	0.122
-618.346	-129.042	0.178	0.025
-617.332	-100.973	0.128	-0.031
-616.317	134.950	-0.101	0.132
-615.303	-37.788	-0.253	-0.134
-614.288	18.817	-0.094	0.075
-613.273	-200.000	0.043	0.231
-612.259	-43.698	0.238	0.120
-611.244	-10.977	-0.227	0.150
-610.230	-71.337	-0.136	-0.051
-609.215	-53.216	-0.169	0.078
-608.201	235.649	-0.133	-0.220
-607.186	165.881	0.236	0.334
-606.171	-63.220	0.018	0.007
-605.157	116.766	-0.115	0.142
-604.142	-157.598	0.239	-0.014
-603.128	234.252	0.228	-0.376
-602.113	800.000	-0.116	0.381
-601.098	-200.000	-0.033	-0.310
-600.084	-128.255	0.380	-0.054
-599.069	91.138	-0.071	0.080
-598.055	-88.760	-0.173	0.051
-597.040	-166.426	0.234	0.010
-596.025	-33.273	-0.226	-0.125
-595.011	224.888	-0.234	0.379
-593.996	78.331	0.106	-0.113
-592.982	14.985	-0.084	0.066
-591.967	108.058	-0.098	-0.117
-590.952	92.636	-0.116	-0.131
-589.938	105.438	0.136	0.161
-588.923	-200.000	0.017	-0.303
-587.909	-200.000	-0.040	-0.344
-586.894	64.054	0.173	-0.174
-585.879	20.981	-0.130	0.105
-584.865	800.000	0.030	0.089
-583.850	-13.721	0.188	-0.121
-582.836	350.253	0.137	0.271
-581.821	-76.655	0.223	-0.078
-580.806	-200.000	0.003	-0.160
-579.792	-70.267	0.137	-0.052
-578.777	-127.382	-0.208	-0.030
-577.763	-200.000	-0.001	0.414
-576.748	-113.478	0.172	-0.034
-575.733	27.916	0.392	-0.330
-574.719	389.102	-0.161	-0.333
-573.704	-114.033	0.243	0.047
-572.690	-178.356	-0.204	-0.005
-571.675	-38.982	0.174	-0.091
-570.661	38.655	-0.047	0.042
-569.646	-43.153	-0.210	0.106
-568.631	800.000	-0.021	0.067
-567.617	-60.271	0.401	-0.170
-566.602	-12.650	-0.212	0.138
-565.588	-145.516	0.443	-0.040
-564.573	-171.711	-0.077	0.003
-563.558	165.111	0.283	0.400
-562.544	800.000	0.031	-0.116
-561.529	-200.000	0.006	0.086
-560.515	-57.092	0.135	-0.059
-559.500	-102.074	0.206	-0.049
-558.485	-66.504	0.356	0.141
-557.471	-18.709	-0.139	0.086
-556.456	-157.255	-0.103	0.006
-555.442	-9.310	0.113	-0.075
-554.427	16.823	-0.187	0.148
-553.412	-62.283	-0.149	0.062
-552.398	226.809	-0.102	0.165
-551.383	280.555	0.087	0.155
-550.369	-200.000	-0.027	0.377
-549.354	35.064	-0.041	0.036
-548.339	-200.000	0.102	0.602
-547.325	-6.187	-0.148	0.101
-546.310	-91.961	-0.476	0.135
-545.296	28.066	-0.299	0.251
-544.281	315.974	0.090	0.170
-543.266	457.251	0.080	0.177
-542.252	2.791	-0.326	-0.236
-541.237	-71.625	-0.343	0.128
-540.223	-145.290	0.257	-0.023
-539.208	342.941	-0.071	0.138
-538.193	436.329	0.088	0.191
-537.179	-63.276	-0.358	-0.147
-536.164	53.761	0.193	0.185
-535.150	-200.000	-0.040	0.221
-534.135	800.000	-0.032	0.120
-533.121	-95.387	0.220	-0.059
-532.106	325.860	-0.135	-0.258
-531.091	38.718	-0.180	-0.160
-530.077	124.435	-0.071	0.089
-529.062	-32.303	0.140	0.078
-528.048	675.429	0.094	0.245
-527.033	800.000	-0.019	-0.078
-526.018	-200.000	-0.017	0.188
-525.004	-86.916	-0.136	-0.041
-523.989	-56.943	-0.155	-0.068
-522.975	159.652	-0.162	-0.224
-521.960	42.490	-0.125	0.113
-520.945	-122.180	-0.367	0.060
-519.931	-113.222	0.117	0.023
-518.916	-195.342	-0.539	0.004
-517.902	358.443	0.169	0.337
-516.887	436.943	0.112	0.243
-515.872	-200.000	0.006	-0.175
-514.858	443.286	0.102	-0.224
-513.843	-200.000	-0.006	0.187
-512.829	800.000	-0.054	0.164
-511.814	-55.851	-0.107	-0.048
-510.799	-42.033	-0.357	-0.182
-509.785	-78.179	-0.405	-0.139
-508.770	-67.334	0.273	0.107
-507.756	-135.970	-0.201	-0.024
-506.741	579.632	0.041	0.100
-505.726	-200.000	0.026	-0.225
-504.712	800.000	-0.010	-0.038
-503.697	-131.457	0.028	0.004
-502.683	217.255	-0.068	-0.108
-501.668	790.354	-0.087	-0.237
-500.653	75.684	0.083	-0.087
-499.639	347.977	-0.072	0.140
-498.624	-105.702	0.006	-0.001
-497.610	15.896	-0.381	0.298
-496.595	-130.481	-0.210	-0.028
-495.581	-147.075	0.157	-0.013
-494.566	262.404	-0.218	0.376
-493.551	-92.815	-0.050	-0.014
-492.537	82.810	-0.138	0.150
-491.522	56.692	-0.174	-0.169
-490.508	280.513	-0.169	0.300
-489.493	-96.087	0.168	-0.044
-488.478	271.353	0.099	0.173
-487.464	800.000	-0.072	-0.299
-486.449	-21.213	-0.281	-0.171
-485.435	9.800	0.084	-0.063
-484.420	-200.000	0.050	-0.312
-483.405	358.355	0.099	-0.197
-482.391	-6.698	0.050	0.034
-481.376	159.372	0.240	0.332
-480.362	-78.935	-0.292	-0.099
-479.347	-71.477	0.029	-0.011
-478.332	-128.031	0.173	0.025
-477.318	-200.000	-0.025	-0.191
-476.303	-90.720	-0.309	-0.089
-475.289	800.000	0.047	-0.140
-474.274	-127.577	-0.091	-0.013
-473.259	38.423	0.268	-0.238
-472.245	800.000	0.076	-0.210
-471.230	-71.066	0.302	-0.113
-470.216	68.754	0.250	-0.256
-469.201	425.390	0.032	0.068
-468.186	715.972	0.077	-0.203
-467.172	-200.000	0.015	-0.125
-466.157	-82.546	-0.167	-0.054
-465.143	-90.647	0.226	0.065
-464.128	-53.436	-0.129	-0.059
-463.113	-119.799	-0.231	-0.039
-462.099	-33.814	-0.239	0.131
-461.084	-136.658	0.323	-0.037
-460.070	-10.652	0.046	-0.030
-459.055	800.000	0.096	0.287
-458.040	-200.000	0.017	0.076
-457.026	482.485	0.098	0.221
-456.011	483.972	0.082	-0.185
-454.997	246.872	0.117	0.196
-453.982	-106.551	-0.341	0.076
-452.968	800.000	0.098	0.373
-451.953	800.000	0.056	0.208
-450.938	11.417	-0.194	-0.148
-449.924	463.081	-0.091	-0.201
-448.909	117.930	-0.050	0.061
-447.895	-114.008	-0.229	0.044
-446.880	-145.247	-0.279	0.025
-445.865	-135.356	0.194	-0.023
-444.851	-109.392	0.176	0.037
-443.836	-10.427	-0.152	-0.100
-442.822	-200.000	-0.017	0.238
-441.807	-200.000	0.065	-0.310
-440.792	-51.572	0.563	-0.261
-439.778	-137.077	-0.165	-0.019
-438.763	-89.016	-0.146	0.043
-437.749	-184.345	-0.265	-0.004
-436.734	800.000	0.060	-0.182
-435.719	-32.752	-0.259	0.143
-434.705	-73.165	-0.266	-0.097
-433.690	800.000	0.031	-0.117
-432.676	450.375	-0.109	-0.239
-431.661	130.274	-0.163	0.207
-430.646	338.122	0.174	0.335
-429.632	-200.000	-0.085	0.522
-428.617	-67.788	0.267	0.103
-427.603	3.229	0.318	-0.230
-426.588	99.900	-0.124	-0.143
-425.573	135.360	-0.083	-0.107
-424.559	-178.393	-0.064	0.001
-423.544	204.468	0.096	0.148
-422.530	-200.000	0.056	0.331
-421.515	-173.520	0.214	-0.006
-420.500	-16.381	0.125	-0.079
-419.486	185.625	0.138	0.203
-418.471	-200.000	-0.006	-0.151
-417.457	323.991	0.152	0.288
-416.442	-200.000	0.008	0.089
-415.428	-200.000	0.056	-0.350
-414.413	-200.000	-0.011	0.370
-413.398	-168.378	0.327	0.012
-412.384	-26.333	0.109	-0.063
-411.369	-200.000	-0.045	0.199
-410.355	-55.755	-0.489	-0.217
-409.340	-102.594	0.108	-0.026
-408.325	-73.248	-0.161	-0.059
-407.311	-141.758	0.088	0.009
-406.296	797.980	0.073	-0.201
-405.282	701.453	-0.036	0.093
-404.267	-12.178	0.323	-0.210
-403.252	-10.299	-0.280	-0.184
-402.238	87.353	-0.198	0.217
-401.223	409.443	0.075	0.157
-400.209	800.000	-0.054	0.205
-399.194	-176.634	0.263	0.007
-398.179	494.646	0.097	0.222
-397.165	270.634	-0.118	0.205
-396.150	800.000	-0.046	0.165
-395.136	-200.000	0.050	0.232
-394.121	-49.498	-0.198	0.094
-393.106	-81.806	-0.253	-0.082
-392.092	92.613	0.161	-0.180
-391.077	124.804	-0.026	0.032
-390.063	199.127	0.149	0.227
-389.048	37.951	-0.086	-0.076
-388.033	-200.000	0.055	-0.387
-387.019	88.878	-0.162	-0.179
-386.004	-11.852	-0.072	0.047
-384.990	-9.719	-0.151	0.100
-383.975	800.000	-0.113	-0.355
-382.960	-164.572	0.403	-0.018
-381.946	800.000	0.057	-0.170
-380.931	331.921	0.126	0.241
-379.917	241.621	-0.001	-0.002
-378.902	-19.004	-0.074	0.046
-377.888	-200.000	0.024	-0.142
-376.873	-200.000	0.004	-0.066
-375.858	12.337	0.214	-0.163
-374.844	89.761	0.082	0.091
-373.829	800.000	-0.133	0.371
-372.815	-200.000	-0.029	0.169
-371.800	-200.000	0.053	0.316
-370.785	-55.076	-0.367	0.163
-369.771	371.927	-0.050	-0.101
-368.756	-200.000	0.019	-0.268
-367.742	-200.000	-0.056	-0.291
-366.727	-200.000	0.016	0.195
-365.712	-200.000	0.027	-0.300
-364.698	287.414	-0.108	-0.193
-363.683	186.290	0.246	0.362
-362.669	341.691	-0.096	-0.186
-361.654	27.533	-0.428	-0.357
-360.639	-48.965	-0.112	0.053
-359.625	4.495	-0.342	-0.248
-358.610	-43.427	-0.095	-0.048
-357.596	-64.197	-0.049	0.020
-356.581	-200.000	0.036	-0.242
-355.566	-143.234	0.030	-0.003
-354.552	237.143	-0.189	-0.310
-353.537	-158.736	0.301	-0.017
-352.523	800.000	0.017	0.073
-351.508	-200.000	0.016	-0.269
-350.493	-168.168	0.166	0.006
-349.479	268.688	-0.091	-0.157
-348.464	-46.288	-0.287	-0.139
-347.450	73.038	0.085	-0.088
-346.435	800.000	0.135	-0.407
-345.420	800.000	0.016	0.065
-344.406	800.000	0.033	-0.094
-343.391	-31.135	-0.227	-0.127
-342.377	-200.000	0.037	0.189
-341.362	-41.964	-0.113	-0.057
-340.348	396.138	0.072	-0.148
-339.333	257.520	-0.115	0.195
-338.318	-180.626	0.350	0.007
-337.304	-200.000	-0.014	0.152
-336.289	23.829	0.398	-0.324
-335.275	-62.767	-0.127	0.052
-334.260	-200.000	-0.043	-0.245
-333.245	-137.081	-0.298	-0.034
-332.231	179.242	0.101	0.146
-331.216	286.460	0.094	0.168
-330.202	360.648	-0.126	-0.250
-329.187	-19.676	0.505	0.309
-328.172	-83.027	-0.451	0.144
-327.158	107.228	-0.258	-0.303
-326.143	593.268	0.124	0.302
-325.129	-51.799	0.398	-0.183
-324.114	800.000	-0.061	-0.246
-323.099	-144.158	-0.170	0.016
-322.085	186.110	-0.036	-0.053
-321.070	76.335	-0.244	0.255
-320.056	-98.677	-0.136	-0.034
-319.041	71.211	-0.308	-0.316
-318.026	45.275	-0.050	0.046
-317.012	326.587	0.092	-0.174
-315.997	-200.000	-0.027	0.447
-314.983	-56.974	0.091	-0.040
-313.968	130.247	0.085	0.107
-312.953	26.412	-0.239	-0.197
-311.939	-200.000	-0.016	-0.086
-310.924	-200.000	-0.011	-0.138
-309.910	-200.000	-0.031	-0.197
-308.895	447.941	-0.072	0.156
-307.880	-137.323	0.211	-0.024
-306.866	26.680	-0.222	-0.184
-305.851	0.814	0.157	0.111
-304.837	104.231	0.099	0.116
-303.822	50.392	0.131	-0.122
-302.807	-200.000	0.007	-0.196
-301.793	692.289	-0.043	-0.111
-300.778	-156.496	0.270	0.017
-299.764	20.249	-0.351	0.280
-298.749	343.651	-0.140	-0.270
-297.735	37.841	0.114	-0.100
-296.720	-40.431	0.190	-0.098
-295.705	-200.000	0.013	-0.078
-294.691	29.685	-0.214	-0.180
-293.676	-134.629	0.031	-0.004
-292.662	18.438	0.202	-0.160
-291.647	537.376	-0.049	0.115
-290.632	-101.016	-0.364	0.088
-289.618	563.212	0.123	-0.294
-288.603	505.663	0.084	-0.193
-287.589	424.602	0.059	0.126
-286.574	2.543	0.184	0.132
-285.559	-21.499	-0.082	-0.050
-284.545	-15.403	-0.149	0.094
-283.530	-11.046	0.052	-0.034
-282.516	-82.184	-0.285	-0.092
-281.501	-200.000	0.026	0.328
-280.486	-191.387	0.134	0.001
-279.472	133.608	0.113	0.144
-278.457	800.000	-0.011	0.032
-277.443	-15.202	-0.301	-0.190
-276.428	-200.000	0.003	0.086
-275.413	-200.000	-0.053	0.242
-274.399	516.220	-0.147	-0.340
-273.384	-22.030	0.444	0.266
-272.370	-200.000	0.001	-0.215
-271.355	148.889	-0.109	0.145
-270.340	617.933	-0.082	-0.203
-269.326	800.000	-0.162	-0.537
-268.311	649.288	0.059	0.148
-267.297	24.663	0.208	-0.170
-266.282	-100.444	-0.265	-0.065
-265.267	591.195	0.091	-0.223
-264.253	-200.000	-0.004	-0.108
-263.238	159.097	-0.099	-0.136
-262.224	35.120	0.141	-0.122
-261.209	170.331	0.043	-0.061
-260.195	-129.904	0.352	0.048
-259.180	227.848	-0.063	0.101
-258.165	-200.000	0.006	-0.049
-257.151	-68.006	0.081	0.031
-256.136	800.000	-0.064	-0.178
-255.122	609.942	0.093	0.229
-254.107	800.000	-0.067	-0.225
-253.092	-61.494	-0.143	-0.059
-252.078	-88.762	0.168	-0.049
-251.063	-109.657	0.179	-0.037
-250.049	-161.790	0.207	-0.010
-249.034	341.338	-0.120	-0.231
-248.019	-94.719	0.213	-0.057
-247.005	-58.416	0.121	-0.052
-245.990	-200.000	0.018	0.155
-244.976	-134.208	0.258	0.031
-243.961	180.609	0.083	-0.120
-242.946	-200.000	-0.025	-0.201
-241.932	-200.000	-0.006	-0.100
-240.917	-12.134	-0.135	0.087
-239.903	-200.000	0.039	0.227
-238.888	-115.787	0.230	-0.042
-237.873	240.923	0.109	0.179
-236.859	3.724	-0.264	0.190
-235.844	-97.939	0.145	-0.037
-234.830	-70.101	0.124	0.046
-233.815	-119.836	0.489	0.083
-232.800	-200.000	-0.010	-0.106
-231.786	423.425	0.038	0.081
-230.771	-143.733	0.457	0.043
-229.757	-114.969	-0.174	-0.033
-228.742	-200.000	-0.001	-0.069
-227.727	681.754	0.048	0.123
-226.713	48.265	-0.146	0.134
-225.698	66.954	-0.109	-0.109
-224.684	800.000	-0.115	0.332
-223.669	452.082	0.067	-0.147
-222.655	-44.478	-0.118	-0.058
-221.640	-16.119	0.277	-0.173
-220.625	-200.000	-0.005	0.034
-219.611	155.850	-0.218	-0.296
-218.596	-100.868	0.396	-0.096
-217.582	-200.000	-0.017	0.249
-216.567	279.266	-0.097	0.170
-215.552	156.153	-0.116	0.157
-214.538	-200.000	0.035	-0.319
-213.523	-108.824	0.218	-0.046
-212.509	118.426	0.185	0.225
-211.494	79.046	-0.144	0.151
-210.479	97.652	-0.142	-0.160
-209.465	-39.488	-0.331	-0.171
-208.450	800.000	-0.046	0.138
-207.436	-57.950	0.152	0.065
-206.421	301.788	-0.102	0.185
-205.406	-24.133	0.257	0.151
-204.392	-71.155	-0.163	-0.060
-203.377	64.816	0.180	0.179
-202.363	83.979	0.113	-0.122
-201.348	-200.000	0.022	-0.157
-200.333	123.986	0.159	-0.197
-199.319	-118.026	0.237	0.042
-198.304	-200.000	0.057	0.252
-197.290	31.603	0.200	-0.169
-196.275	-200.000	-0.028	-0.152
-195.260	-73.663	0.220	0.079
-194.246	-65.262	0.052	0.020
-193.231	-26.350	0.042	-0.024
-192.217	-119.596	-0.373	-0.063
-191.202	-200.000	-0.005	-0.157
-190.187	-184.488	-0.260	0.004
-189.173	-35.767	0.049	0.026
-188.158	800.000	0.041	0.170
-187.144	-59.871	-0.254	0.107
-186.129	-200.000	0.028	-0.305
-185.114	-200.000	0.027	-0.265
-184.100	181.201	0.155	0.224
-183.085	592.998	0.061	-0.148
-182.071	800.000	0.073	0.234
-181.056	267.621	0.344	0.592
-180.042	31.021	0.150	0.126
-179.027	156.858	0.160	0.218
-178.012	122.950	0.220	0.271
-176.998	-42.421	-0.175	-0.088
-175.983	-84.445	-0.256	-0.079
-174.969	-200.000	-0.019	-0.438
-173.954	-94.142	-0.309	0.083
-172.939	-200.000	0.042	0.445
-171.925	55.464	0.092	-0.087
-170.910	41.073	-0.276	0.245
-169.896	1.739	0.184	0.131
-168.881	-200.000	0.002	0.160
-167.866	251.989	-0.079	-0.132
-166.852	800.000	-0.056	0.179
-165.837	536.087	0.126	0.294
-164.823	-128.336	-0.529	0.074
-163.808	313.962	0.034	0.063
-162.793	394.091	-0.118	-0.241
-161.779	-111.591	-0.228	-0.045
-160.764	190.691	0.183	-0.270
-159.750	-114.306	-0.135	-0.026
-158.735	157.983	0.159	0.216
-157.720	800.000	0.066	0.213
-156.706	171.704	0.059	-0.083
-155.691	800.000	0.051	-0.155
-154.677	414.657	0.051	-0.106
-153.662	-159.700	-0.080	-0.004
-152.647	97.969	0.036	0.041
-151.633	800.000	0.095	0.378
-150.618	-117.600	-0.242	0.043
-149.604	-48.912	-0.447	-0.210
-148.589	123.268	0.164	-0.202
-147.574	-200.000	0.062	-0.397
-146.560	-93.860	-0.280	-0.076
-145.545	-69.442	-0.250	0.094
-144.531	-59.835	0.412	0.173
-143.516	98.385	0.119	-0.134
-142.502	694.453	-0.054	0.139
-141.487	80.320	0.217	0.229
-140.472	622.532	0.057	-0.142
-139.458	8.702	0.049	0.036
-138.443	-70.380	0.137	0.051
-137.429	219.139	-0.094	-0.147
-136.414	-91.521	0.142	-0.040
-135.399	-46.620	0.231	-0.111
-134.385	-200.000	-0.003	-0.269
-133.370	278.645	-0.131	0.230
-132.356	-83.934	-0.403	-0.126
-131.341	-15.967	-0.047	0.029
-130.326	-200.000	-0.002	0.301
-129.312	568.905	0.215	-0.512
-128.297	-13.310	0.218	-0.139
-127.283	-1.046	0.106	-0.074
-126.268	290.518	0.198	0.354
-125.253	146.111	-0.062	0.081
-124.239	-38.785	0.251	0.130
-123.224	-83.091	-0.141	0.045
-122.210	-200.000	0.006	-0.262
-121.195	-60.498	0.163	-0.068
-120.180	-33.149	0.049	-0.026
-119.166	-200.000	0.113	-0.000
-118.151	-161.637	-0.189	0.010
-117.137	-142.274	-0.172	-0.017
-116.122	48.386	0.255	-0.234
-115.107	-80.329	-0.332	-0.109
-114.093	-77.731	0.134	0.046
-113.078	-31.389	0.209	0.115
-112.064	-132.398	-0.070	0.009
-111.049	-64.199	-0.311	-0.124
-110.034	324.398	0.036	-0.067
-109.020	-85.343	0.277	0.085
-108.005	-200.000	0.005	0.279
-106.991	800.000	0.084	0.353
-105.976	18.841	-0.171	-0.134
-104.962	52.185	0.309	-0.288
-103.947	-200.000	-0.017	-0.133
-102.932	-200.000	0.013	-0.177
-101.918	-200.000	0.038	0.255
-100.903	119.459	-0.064	0.078
-99.889	-154.899	0.096	-0.006
-98.874	415.994	-0.126	-0.263
-97.859	800.000	0.079	0.310
-96.845	191.411	-0.171	-0.252
-95.830	248.126	0.052	0.086
-94.816	282.753	0.086	-0.152
-93.801	156.125	0.100	0.136
-92.786	25.026	-0.228	-0.186
-91.772	-200.000	-0.005	-0.367
-90.757	-40.462	-0.078	-0.040
-89.743	-62.833	0.342	-0.139
-88.728	-89.734	0.141	-0.040
-87.713	-158.554	0.286	-0.016
-86.699	-65.630	-0.186	0.073
-85.684	-94.256	-0.094	0.025
-84.670	24.681	0.185	0.150
-83.655	800.000	-0.075	-0.213
-82.640	-1.900	-0.128	0.088
-81.626	138.354	0.265	-0.340
-80.611	-78.970	-0.303	-0.101
-79.597	-200.000	0.048	0.346
-78.582	122.659	-0.088	-0.108
-77.567	-49.861	0.187	-0.087
-76.553	-123.100	0.090	0.014
-75.538	143.934	-0.076	0.099
-74.524	-114.449	0.342	0.064
-73.509	483.569	0.034	-0.076
-72.494	305.486	-0.158	0.287
-71.480	-200.000	0.003	-0.170
-70.465	-104.493	0.221	-0.050
-69.451	-101.979	0.247	-0.058
-68.436	-143.099	0.176	-0.017
-67.422	333.681	0.064	0.120
-66.407	274.884	0.029	-0.050
-65.392	-38.018	0.341	0.177
-64.378	-200.000	0.013	-0.167
-63.363	249.216	-0.147	-0.244
-62.349	-200.000	0.045	0.246
-61.334	54.145	-1.092	-1.028
-60.319	2.672	0.917	0.651
-59.305	526.106	-0.454	-1.046
-58.290	182.277	0.664	0.957
-57.276	294.164	0.860	1.538
-56.261	-200.000	116.925	661.183
-55.246	523.620	1538.846	3538.833
-54.232	176.047	2706.702	3844.192
-53.217	107.454	2149.727	2501.885
-52.203	38.550	1587.702	1385.064
-51.188	30.092	1332.645	1112.020
-50.173	27.313	1294.040	1063.548
-49.159	54.435	1352.809	1274.709
-48.144	52.667	1365.390	1275.979
-47.130	30.172	1320.963	1102.576
-46.115	27.019	1302.084	1068.258
-45.100	26.737	1297.217	1062.567
-44.086	26.730	1294.558	1060.307
-43.071	26.620	1292.220	1057.710
-42.057	26.619	1290.219	1056.024
-41.042	26.576	1288.881	1054.636
-40.027	26.686	1287.150	1053.817
-39.013	26.670	1285.304	1052.168
-37.998	26.694	1283.509	1050.800
-36.984	26.742	1281.784	1049.620
-35.969	26.837	1280.043	1048.706
-34.954	26.684	1278.793	1046.754
-33.940	26.784	1276.857	1045.705
-32.925	26.854	1275.486	1044.944
-31.911	26.955	1273.971	1044.242
-30.896	26.893	1272.892	1042.960
-29.881	27.037	1271.084	1042.264
-28.867	26.935	1270.033	1040.774
-27.852	26.918	1268.673	1039.522
-26.838	26.911	1267.325	1038.335
-25.823	26.869	1266.335	1037.245
-24.809	26.907	1264.777	1036.143
-23.794	26.872	1263.455	1034.823
-22.779	26.927	1262.227	1034.085
-21.765	26.907	1260.987	1032.914
-20.750	26.878	1259.250	1031.291
-19.736	26.877	1258.067	1030.271
-18.721	26.745	1257.349	1028.896
-17.706	26.874	1256.096	1028.559
-16.692	26.717	1255.223	1026.913
-15.677	26.827	1253.943	1026.448
-14.663	26.750	1253.180	1025.349
-13.648	26.760	1251.847	1024.271
-12.633	26.631	1250.877	1022.713
-11.619	26.722	1249.935	1022.413
-10.604	26.724	1249.400	1021.946
-9.590	26.700	1248.370	1020.928
-8.575	26.821	1246.812	1020.296
-7.560	26.890	1246.115	1020.070
-6.546	26.795	1245.236	1018.776
-5.531	26.742	1244.547	1017.876
-4.517	26.827	1243.415	1017.389
-3.502	26.767	1242.930	1016.612
-2.487	26.799	1242.081	1016.059
-1.473	26.721	1237.843	1012.116
-0.458	25.095	1222.531	990.576
0.556	23.198	1205.791	952.852
1.571	19.425	1211.387	936.741
2.586	18.351	1226.059	942.099
3.600	18.280	1214.585	932.812
4.615	14.095	1144.375	857.277
5.629	7.112	1073.646	770.342
6.644	4.315	1055.576	743.914
7.659	4.014	1053.410	740.878
8.673	3.923	1051.761	739.222
9.688	3.908	1050.910	738.486
10.702	4.128	1048.688	737.906
11.717	8.685	1055.143	764.180
12.731	16.635	1065.580	809.856
13.746	21.462	1071.713	837.619
14.761	22.420	1072.459	842.717
15.775	21.716	1070.787	837.964
16.790	20.745	1068.981	831.836
17.804	20.160	1067.942	828.163
18.819	19.890	1066.469	825.659
19.834	20.038	1066.241	826.115
20.848	19.919	1065.891	825.203
21.863	19.773	1065.081	823.809
22.877	19.544	1064.103	821.888
23.892	19.592	1063.081	821.254
24.907	19.434	1062.756	820.177
25.921	19.556	1061.121	819.425
26.936	19.511	1059.912	818.206
27.950	19.509	1058.693	817.181
28.965	19.563	1057.517	816.459
29.980	19.722	1056.369	816.248
30.994	19.808	1055.432	815.861
32.009	19.972	1054.523	815.855
33.023	19.841	1053.455	814.344
34.038	19.641	1052.635	812.696
35.053	19.539	1051.543	811.299
36.067	19.598	1050.674	810.835
37.082	19.624	1049.765	810.185
38.096	19.729	1049.581	810.463
39.111	19.869	1048.673	810.344
40.126	19.539	1047.304	807.671
41.140	19.272	1045.728	805.136
42.155	19.111	1044.465	803.345
43.169	18.932	1043.777	801.907
44.184	19.062	1042.734	801.641
45.199	19.147	1041.555	801.061
46.213	19.302	1040.902	801.207
47.228	19.605	1040.258	802.046
48.242	19.533	1039.291	800.896
49.257	19.621	1038.349	800.507
50.271	19.644	1037.785	800.110
51.286	19.765	1036.610	799.690
52.301	19.622	1036.003	798.493
53.315	19.548	1034.459	796.889
54.330	19.298	1033.373	794.829
55.344	19.342	1032.486	794.280
56.359	19.271	1031.803	793.357
57.374	19.177	1030.835	792.112
58.388	19.088	1030.257	791.187
59.403	18.915	1029.139	789.464
60.417	19.013	1028.654	789.472
61.432	19.075	1027.729	788.976
62.447	18.894	1027.251	787.710
63.461	18.740	1026.195	786.125
64.476	18.874	1025.159	785.875
65.490	18.848	1024.217	784.964
66.505	18.715	1024.226	784.294
67.520	19.056	1022.575	784.515
68.534	18.847	1022.247	783.244
69.549	18.767	1021.626	782.332
70.563	18.760	1020.086	781.052
71.578	18.567	1019.560	779.704
72.593	18.438	1018.869	778.520
73.607	18.482	1018.068	778.041
74.622	18.560	1017.569	777.943
75.636	18.618	1017.225	777.874
76.651	18.594	1016.378	777.048
77.666	18.703	1016.062	777.230
78.680	18.883	1014.833	777.037
79.695	18.764	1013.942	775.750
80.709	18.877	1014.205	776.389
81.724	19.181	1013.002	776.774
82.739	19.243	1012.447	776.557
83.753	19.438	1012.405	777.337
84.768	19.897	1011.668	778.769
85.782	20.057	1011.243	779.092
86.797	19.871	1010.438	777.569
87.812	19.693	1009.170	775.724
88.826	19.650	1008.421	774.886
89.841	19.803	1007.424	774.737
90.855	19.967	1006.048	774.343
91.870	19.941	1005.933	774.069
92.884	19.926	1004.909	773.148
93.899	19.803	1004.181	771.970
94.914	20.145	1002.702	772.287
95.928	19.936	1001.967	770.722
96.943	19.763	1001.285	769.360
97.957	19.748	1000.326	768.488
98.972	19.769	999.650	767.994
99.987	19.919	998.657	767.828
101.001	19.923	997.342	766.770
102.016	19.689	997.128	765.499
103.030	19.944	995.969	765.669
104.045	19.788	995.421	764.489
105.060	19.661	994.406	763.084
106.074	19.335	993.046	760.533
107.089	19.241	991.210	758.648
108.103	18.908	991.299	757.183
109.118	18.881	989.898	755.925
110.133	18.844	988.693	754.775
111.147	18.949	987.960	754.610
112.162	18.890	987.942	754.270
113.176	19.116	986.816	754.335
114.191	19.221	986.477	754.471
115.206	19.043	985.563	752.923
116.220	18.991	984.662	751.941
117.235	19.048	983.733	751.413
118.249	18.896	982.738	749.925
119.264	19.083	981.535	749.756
120.279	18.723	981.413	748.027
121.293	18.783	980.087	747.213
122.308	18.719	979.377	746.327
123.322	18.553	978.221	744.660
124.337	18.558	976.988	743.678
125.352	18.593	976.468	743.364
126.366	18.651	974.777	742.263
127.381	18.631	974.178	741.658
128.395	18.684	973.471	741.283
129.410	18.702	972.840	740.815
130.424	18.926	972.239	741.253
131.439	19.029	971.530	741.093
132.454	19.097	970.604	740.613
133.468	19.196	969.862	740.406
134.483	19.296	968.326	739.600
135.497	19.278	968.104	739.287
136.512	19.150	967.157	737.950
137.527	19.125	966.660	737.396
138.541	19.126	966.341	737.092
139.556	19.223	965.438	736.754
140.570	19.415	964.816	737.034
141.585	19.717	964.303	737.868
142.600	19.641	963.777	737.073
143.614	19.829	962.533	736.860
144.629	19.810	962.391	736.604
145.643	19.747	960.667	734.952
146.658	19.511	959.570	733.046
147.673	19.473	958.202	731.774
148.687	19.236	957.639	730.274
149.702	19.114	956.502	728.828
150.716	19.208	955.759	728.595
151.731	19.319	954.918	728.358
152.746	19.280	954.271	727.636
153.760	19.322	954.096	727.613
154.775	19.620	953.121	728.063
155.789	19.518	952.738	727.277
156.804	19.607	951.961	726.992
157.819	19.595	951.358	726.418
158.833	19.753	951.260	726.945
159.848	19.963	950.166	726.923
160.862	19.710	949.191	725.052
161.877	19.246	947.829	722.005
162.892	19.113	946.568	720.426
163.906	19.293	945.393	720.220
164.921	19.090	944.880	718.917
165.935	19.176	944.073	718.599
166.950	19.216	943.476	718.245
167.964	19.266	941.951	717.229
168.979	19.064	941.657	716.102
169.994	19.214	939.984	715.391
171.008	19.472	939.651	716.144
172.023	19.717	939.248	716.788
173.037	19.815	938.780	716.773
174.052	19.645	937.641	715.138
175.067	19.256	936.807	712.829
176.081	19.062	936.323	711.595
177.096	19.097	935.244	710.856
178.110	19.218	934.971	711.088
179.125	19.195	934.727	710.741
180.140	19.449	934.236	711.353
181.154	19.643	934.174	712.045
182.169	19.643	933.777	711.679
183.183	19.767	932.624	711.248
184.198	19.734	932.166	710.699
185.213	19.713	931.549	710.078
186.227	19.820	930.783	709.871
187.242	19.944	930.143	709.828
188.256	20.041	929.633	709.775
189.271	19.973	929.119	709.040
190.286	19.684	927.953	706.905
191.300	19.068	926.942	703.555
192.315	19.056	925.460	702.322
193.329	19.121	925.358	702.446
194.344	19.231	925.156	702.681
195.359	19.302	924.369	702.309
196.373	19.548	923.647	702.698
197.388	19.708	923.794	703.398
198.402	19.959	923.419	704.072
199.417	20.254	922.715	704.672
200.432	20.367	922.614	704.993
201.446	20.205	922.385	704.096
202.461	20.570	921.384	704.748
203.475	20.219	920.936	702.924
204.490	19.952	919.417	700.621
205.504	19.850	918.555	699.491
206.519	19.767	917.804	698.522
207.534	19.838	917.268	698.337
208.548	19.886	916.927	698.210
209.563	19.719	916.417	697.088
210.577	19.999	915.584	697.518
211.592	20.072	915.322	697.553
212.607	20.211	914.576	697.480
213.621	20.141	913.553	696.356
214.636	19.964	913.237	695.345
215.650	20.045	912.539	695.076
216.665	20.206	911.770	695.075
217.680	20.305	911.183	694.964
218.694	20.345	910.807	694.774
219.709	20.154	910.299	693.560
220.723	20.275	909.369	693.274
221.738	20.212	908.452	692.261
222.753	20.115	908.145	691.579
223.767	20.207	907.551	691.432
224.782	20.318	907.437	691.726
225.796	20.460	906.675	691.651
226.811	20.320	905.923	690.460
227.826	20.205	904.807	689.091
228.840	20.052	904.043	687.839
229.855	20.071	903.417	687.380
230.869	20.008	902.471	686.346
231.884	19.876	902.250	685.598
232.899	19.926	901.367	685.061
233.913	19.827	900.226	683.743
234.928	19.710	899.780	682.880
235.942	19.687	899.228	682.311
236.957	19.688	898.717	681.867
237.972	19.669	898.281	681.400
238.986	19.623	897.466	680.540
240.001	19.948	896.781	681.242
241.015	19.878	896.641	680.799
242.030	19.972	896.000	680.621
243.045	20.089	895.471	680.620
244.059	20.047	894.990	680.027
245.074	20.208	894.020	679.862
246.088	20.386	893.802	680.334
247.103	20.451	893.530	680.322
248.117	20.683	893.326	681.013
249.132	20.983	892.988	681.871
250.147	21.163	892.514	682.150
251.161	21.232	892.078	682.025
252.176	21.249	891.088	681.278
253.190	21.320	890.402	680.968
254.205	21.439	889.525	680.702
255.220	21.180	889.559	679.659
256.234	21.050	888.519	678.298
257.249	21.285	887.642	678.482
258.263	21.165	887.076	677.524
259.278	21.144	886.626	677.038
260.293	21.220	886.044	676.827
261.307	21.376	885.323	676.822
262.322	21.286	885.341	676.425
263.336	21.410	884.308	676.058
264.351	21.457	883.228	675.352
265.366	21.428	882.791	674.847
266.380	21.304	882.359	673.978
267.395	21.270	881.320	672.993
268.409	21.087	880.537	671.633
269.424	21.186	879.630	671.263
270.439	21.019	878.983	670.068
271.453	20.987	878.501	669.519
272.468	20.938	878.027	668.909
273.482	21.014	877.684	668.881
274.497	20.882	876.519	667.427
275.512	21.028	876.139	667.637
276.526	21.024	876.257	667.655
277.541	20.968	876.009	667.190
278.555	21.271	875.145	667.633
279.570	21.507	874.599	668.056
280.585	21.412	873.402	666.722
281.599	21.118	872.559	664.899
282.614	21.051	871.716	663.944
283.628	20.958	871.245	663.171
284.643	20.898	871.217	662.864
285.657	20.841	870.175	661.797
286.672	20.965	869.727	661.868
287.687	21.106	868.761	661.608
288.701	21.155	868.176	661.290
289.716	21.207	867.881	661.205
290.730	21.035	867.930	660.532
291.745	21.210	866.657	660.167
292.760	21.380	866.119	660.339
293.774	21.585	865.974	660.946
294.789	21.343	865.186	659.371
295.803	21.112	864.274	657.748
296.818	21.148	863.073	656.911
297.833	21.132	862.861	656.631
298.847	21.092	862.185	655.907
299.862	21.172	862.007	656.016
300.876	21.379	861.486	656.340
301.891	21.623	860.883	656.737
302.906	21.618	860.508	656.373
303.920	21.793	860.076	656.643
304.935	21.887	859.999	656.877
305.949	21.685	859.009	655.307
306.964	21.478	857.861	653.601
307.979	21.477	857.349	653.147
308.993	21.746	856.872	653.729
310.008	21.805	856.446	653.568
311.022	21.544	856.101	652.274
312.037	21.383	855.073	650.834
313.052	21.272	854.240	649.729
314.066	21.091	853.974	648.797
315.081	21.039	853.177	647.940
316.095	21.157	852.463	647.778
317.110	21.138	851.893	647.216
318.125	21.010	851.586	646.452
319.139	20.997	851.140	646.011
320.154	21.038	850.671	645.746
321.168	21.190	850.131	645.841
322.183	21.198	849.781	645.548
323.197	21.310	849.292	645.536
324.212	21.324	848.485	644.915
325.227	21.366	847.835	644.520
326.241	21.156	847.364	643.332
327.256	21.106	846.382	642.345
328.270	21.071	846.483	642.234
329.285	21.019	845.760	641.439
330.300	21.020	844.615	640.516
331.314	21.190	844.905	641.303
332.329	21.431	844.329	641.696
333.343	21.603	844.008	642.025
334.358	21.424	843.640	641.032
335.373	21.599	842.980	641.116
336.387	21.685	842.553	641.048
337.402	21.857	842.964	641.933
338.416	21.976	842.275	641.787
339.431	22.164	842.247	642.395
340.446	22.151	841.821	641.968
341.460	22.081	841.761	641.608
342.475	22.215	840.902	641.387
343.489	22.311	840.857	641.646
344.504	22.343	840.328	641.303
345.519	22.382	839.936	641.086
346.533	22.282	839.100	640.029
347.548	21.996	837.862	637.990
348.562	21.800	837.334	636.818
349.577	21.642	836.320	635.418
350.592	21.483	836.214	634.703
351.606	21.511	835.172	633.958
352.621	21.607	834.988	634.111
353.635	21.637	834.068	633.465
354.650	21.721	833.398	633.203
355.665	21.887	832.945	633.402
356.679	21.908	832.328	632.952
357.694	21.973	831.517	632.514
358.708	21.998	830.779	631.985
359.723	21.909	830.541	631.428
360.738	21.935	829.896	630.978
361.752	21.983	829.708	630.950
362.767	22.201	829.038	631.167
363.781	22.410	828.745	631.638
364.796	22.575	828.484	631.976
365.810	22.635	827.814	631.622
366.825	22.770	827.492	631.806
367.840	22.496	827.333	630.649
368.854	22.376	826.481	629.513
369.869	22.170	825.966	628.328
370.883	22.306	825.702	628.558
371.898	22.475	825.260	628.771
372.913	22.553	824.988	628.783
373.927	22.412	824.275	627.682
374.942	22.418	824.228	627.613
375.956	22.553	823.911	627.797
376.971	22.884	823.007	628.232
377.986	22.832	822.703	627.759
379.000	22.936	821.994	627.531
380.015	22.754	821.464	626.424
381.029	22.706	821.110	625.928
382.044	22.794	820.545	625.756
383.059	22.681	820.055	624.925
384.073	22.536	819.253	623.747
385.088	22.392	818.233	622.405
386.102	22.254	817.798	621.531
387.117	22.133	817.456	620.788
388.132	22.334	816.345	620.599
389.146	22.375	815.806	620.277
390.161	22.552	815.999	620.996
391.175	22.686	815.387	620.946
392.190	22.700	814.351	620.150
393.205	22.349	813.851	618.481
394.219	22.318	813.542	618.084
395.234	22.267	813.101	617.514
396.248	22.086	812.654	616.486
397.263	21.984	812.209	615.735
398.278	21.929	811.925	615.272
399.292	21.938	811.421	614.869
400.307	22.079	810.800	614.839
401.321	22.231	810.145	614.817
402.336	22.343	809.882	614.956
403.350	22.355	809.849	614.917
404.365	22.572	809.456	615.321
405.380	22.839	809.034	615.879
406.394	22.807	808.790	615.528
407.409	22.906	808.203	615.371
408.423	23.085	808.264	615.985
409.438	23.012	807.681	615.235
410.453	22.883	807.824	614.838
411.467	23.210	806.770	615.117
412.482	23.284	806.525	615.134
413.496	23.317	806.278	615.006
414.511	23.215	805.738	614.185
415.526	23.027	805.506	613.304
416.540	23.028	804.627	612.581
417.555	23.101	804.198	612.453
418.569	23.168	803.591	612.170
419.584	23.066	803.290	611.534
420.599	23.074	802.880	611.197
421.613	165.293	1372.536	1798.863
422.628	143.721	1455.505	1798.933
