DTS Sentinel unit serial number:	SN413079Multiplexer serial number:	ORYXHardware model number:	OX4-SRSoftware version number:	ORYX F/W v4.00 Oryx Data Collector v3.7.2.0data status	okinstallation	princeton_trtdifferential loss correction	single-endedforward channel	channel 1reverse channel	N/Adate	2019/09/12time	15:00:11forward acquisition time	60.00reverse acquisition time	0.00gamma	496.2192k internal	0.2292k external	0.2292temperature offset calibration	1.0050default loss term (dB/km)	0.3790temperature slope calibration	1.0000multiplexer offset coefficient	1.0000multiplexer slope coefficient	1.0000fibre end	0.00T internal ref (°C)	40.42T ext. ref 1 (°C)	2.36T ext. ref 2 (°C)	37.25length (m)	temperature (°C)	Stokes	anti-Stokes-747.200	98.185	0.124	0.146
-746.185	-200.000	-0.008	0.420
-745.171	-90.741	-0.148	-0.044
-744.156	-43.018	0.198	-0.103
-743.142	42.132	0.042	-0.039
-742.127	-18.526	-0.349	-0.223
-741.112	-136.646	0.130	-0.015
-740.098	-44.099	0.222	0.114
-739.083	-200.000	-0.030	0.160
-738.069	800.000	-0.098	0.290
-737.054	800.000	-0.064	0.267
-736.039	-173.294	-0.162	0.005
-735.025	125.412	0.211	0.272
-734.010	-51.722	0.261	-0.125
-732.996	-177.199	-0.077	0.002
-731.981	-76.122	-0.288	0.104
-730.966	368.545	-0.118	0.243
-729.952	-138.902	-0.402	-0.045
-728.937	-200.000	-0.016	0.282
-727.923	-90.404	0.187	-0.056
-726.908	-200.000	-0.009	-0.234
-725.894	-200.000	-0.007	-0.155
-724.879	-65.275	-0.239	-0.098
-723.864	54.461	-0.112	-0.110
-722.850	13.613	0.129	-0.103
-721.835	-78.793	-0.279	-0.097
-720.821	-126.021	0.334	-0.051
-719.806	311.120	-0.091	0.174
-718.791	90.752	0.026	-0.030
-717.777	162.206	-0.079	0.113
-716.762	-82.824	-0.194	-0.064
-715.748	-146.268	0.159	0.014
-714.733	293.414	0.105	-0.196
-713.718	257.621	-0.197	-0.346
-712.704	-70.279	0.045	-0.018
-711.689	-94.265	0.141	-0.039
-710.675	461.124	0.029	-0.067
-709.660	-15.659	-0.315	-0.205
-708.645	11.386	0.191	-0.149
-707.631	-15.816	0.239	0.156
-706.616	800.000	-0.113	0.357
-705.602	-19.931	0.224	-0.141
-704.587	-117.360	-0.186	0.034
-703.572	-200.000	0.118	0.000
-702.558	-200.000	0.027	-0.344
-701.543	-200.000	0.001	0.315
-700.529	-77.580	-0.268	0.095
-699.514	78.551	-0.228	-0.248
-698.499	-46.851	-0.258	0.129
-697.485	-57.039	0.166	-0.075
-696.470	187.997	-0.084	-0.128
-695.456	-200.000	-0.000	-0.138
-694.441	-171.849	0.399	-0.013
-693.426	218.702	0.049	0.079
-692.412	150.878	0.174	-0.242
-691.397	123.824	-0.258	-0.331
-690.383	-25.280	-0.211	-0.128
-689.368	-200.000	0.045	0.211
-688.354	259.839	0.096	-0.170
-687.339	378.558	-0.160	-0.335
-686.324	-41.259	-0.363	-0.191
-685.310	-104.391	-0.309	-0.073
-684.295	-109.307	0.207	0.045
-683.281	-200.000	0.055	0.275
-682.266	652.516	0.101	-0.265
-681.251	-23.045	0.103	0.064
-680.237	-104.409	0.431	-0.102
-679.222	349.100	0.143	0.287
-678.208	79.203	0.142	-0.155
-677.193	177.924	-0.316	-0.470
-676.178	-105.244	0.110	0.026
-675.164	-111.303	-0.203	-0.042
-674.149	577.313	-0.164	-0.410
-673.135	358.322	0.095	-0.193
-672.120	-62.081	0.240	-0.102
-671.105	-200.000	-0.008	-0.516
-670.091	-35.400	-0.135	-0.075
-669.076	116.352	-0.139	-0.173
-668.062	-200.000	0.002	0.239
-667.047	-200.000	0.005	0.112
-666.032	134.385	0.119	0.158
-665.018	49.968	0.138	0.133
-664.003	-51.676	-0.233	0.111
-662.989	-21.104	-0.197	0.123
-661.974	36.322	-0.292	-0.263
-660.959	800.000	-0.048	0.144
-659.945	-47.540	0.140	-0.069
-658.930	-84.058	0.137	0.044
-657.916	800.000	0.019	-0.062
-656.901	-200.000	-0.008	0.119
-655.886	-200.000	0.032	-0.210
-654.872	743.978	-0.143	-0.391
-653.857	800.000	-0.080	-0.263
-652.843	-53.763	0.238	0.111
-651.828	-112.645	-0.223	0.045
-650.814	184.364	0.025	0.037
-649.799	98.386	-0.072	0.085
-648.784	131.564	0.211	-0.277
-647.770	-0.462	-0.307	0.222
-646.755	284.856	0.249	0.457
-645.741	-200.000	-0.010	-0.121
-644.726	-129.453	-0.193	0.027
-643.711	-13.410	0.060	-0.040
-642.697	-200.000	-0.018	0.122
-641.682	-37.652	-0.097	-0.053
-640.668	-141.526	-0.223	-0.023
-639.653	-200.000	0.048	-0.251
-638.638	553.082	0.006	0.016
-637.624	55.798	0.151	-0.149
-636.609	693.555	-0.160	-0.427
-635.595	-176.926	0.056	-0.001
-634.580	-200.000	-0.021	-0.102
-633.565	66.677	-0.132	-0.137
-632.551	-200.000	0.048	-0.262
-631.536	548.052	-0.103	-0.252
-630.522	424.810	0.143	-0.313
-629.507	-64.965	0.390	-0.161
-628.492	-35.059	0.172	0.095
-627.478	-38.663	-0.109	-0.058
-626.463	-29.759	-0.312	-0.181
-625.449	-115.900	0.068	-0.013
-624.434	-66.607	-0.104	-0.042
-623.419	189.324	-0.204	0.312
-622.405	41.056	0.237	0.218
-621.390	183.867	-0.114	0.172
-620.376	36.382	-0.195	-0.176
-619.361	73.562	0.147	-0.156
-618.346	-75.049	0.173	0.063
-617.332	436.951	0.032	-0.072
-616.317	-200.000	-0.006	-0.198
-615.303	-200.000	0.035	-0.304
-614.288	-200.000	0.030	0.217
-613.273	338.969	-0.066	-0.130
-612.259	81.209	-0.256	0.281
-611.244	-200.000	-0.065	0.340
-610.230	-24.555	0.108	-0.066
-609.215	506.138	0.067	-0.158
-608.201	163.504	-0.219	-0.313
-607.186	-33.303	0.299	0.169
-606.171	-134.231	0.199	0.025
-605.157	111.164	-0.166	0.203
-604.142	-35.942	-0.145	0.080
-603.128	188.556	0.092	0.140
-602.113	-49.921	0.268	0.130
-601.098	-99.411	0.192	-0.049
-600.084	53.915	0.262	-0.256
-599.069	171.104	0.081	0.118
-598.055	631.894	0.070	-0.180
-597.040	413.762	0.015	-0.033
-596.025	800.000	0.062	-0.223
-595.011	-200.000	-0.023	-0.421
-593.996	-200.000	0.029	-0.172
-592.982	-105.446	0.060	-0.014
-591.967	42.681	0.099	-0.091
-590.952	617.511	-0.156	-0.398
-589.938	136.894	0.161	0.214
-588.923	-50.960	-0.208	0.099
-587.909	-44.197	-0.166	-0.084
-586.894	75.543	-0.163	0.175
-585.879	531.522	-0.164	-0.395
-584.865	-17.443	-0.076	-0.049
-583.850	31.741	0.166	0.146
-582.836	-10.020	0.065	-0.044
-581.821	-74.556	-0.011	0.004
-580.806	-190.416	-0.090	-0.001
-579.792	800.000	0.094	-0.265
-578.777	468.322	0.062	0.141
-577.763	-200.000	0.018	0.160
-576.748	48.647	0.008	0.008
-575.733	89.729	0.269	-0.305
-574.719	-138.541	0.080	0.009
-573.704	87.893	-0.250	-0.282
-572.690	116.091	-0.074	-0.093
-571.675	165.140	-0.090	0.130
-570.661	-61.683	0.170	0.073
-569.646	-200.000	0.004	0.194
-568.631	800.000	0.068	0.276
-567.617	-200.000	-0.018	0.330
-566.602	-146.257	-0.488	0.044
-565.588	35.096	-0.021	-0.018
-564.573	-42.852	-0.075	0.039
-563.558	800.000	0.187	0.544
-562.544	-112.937	0.201	-0.040
-561.529	-200.000	0.027	-0.169
-560.515	265.124	-0.195	0.345
-559.500	-70.357	-0.153	-0.059
-558.485	-200.000	-0.030	0.252
-557.471	-200.000	-0.017	-0.345
-556.456	-200.000	0.026	-0.201
-555.442	-154.978	-0.300	-0.020
-554.427	-200.000	0.037	-0.191
-553.412	665.370	0.032	0.083
-552.398	218.754	0.107	-0.174
-551.383	-115.286	-0.227	-0.044
-550.369	-22.809	0.176	0.108
-549.354	-83.762	-0.395	0.128
-548.339	-6.317	-0.051	-0.035
-547.325	-200.000	-0.018	0.116
-546.310	-200.000	-0.013	0.301
-545.296	-178.618	-0.279	-0.007
-544.281	149.279	-0.075	0.104
-543.266	800.000	-0.089	-0.357
-542.252	-41.921	0.053	-0.028
-541.237	55.177	0.214	0.210
-540.223	-200.000	-0.027	0.206
-539.208	627.714	-0.145	-0.371
-538.193	290.316	0.074	0.136
-537.179	-200.000	0.042	0.208
-536.164	81.388	0.036	0.039
-535.150	259.556	-0.177	0.310
-534.135	121.141	-0.096	0.122
-533.121	-76.307	-0.295	0.105
-532.106	-4.194	-0.072	0.051
-531.091	124.355	-0.128	0.164
-530.077	59.308	0.084	-0.084
-529.062	-200.000	-0.068	0.563
-528.048	269.344	-0.113	0.202
-527.033	317.080	0.097	0.187
-526.018	24.801	-0.114	0.096
-525.004	50.556	0.225	0.216
-523.989	-70.543	-0.353	0.135
-522.975	-138.963	0.311	0.034
-521.960	-42.122	0.198	-0.103
-520.945	-142.778	0.398	0.039
-519.931	223.065	-0.011	-0.018
-518.916	171.203	-0.137	0.200
-517.902	-200.000	0.014	-0.079
-516.887	-98.529	-0.369	-0.096
-515.872	-200.000	0.038	-0.258
-514.858	800.000	-0.078	0.281
-513.843	-200.000	-0.061	0.293
-512.829	-53.558	-0.288	-0.133
-511.814	-144.775	-0.110	0.010
-510.799	275.539	-0.173	0.311
-509.785	-71.790	-0.154	-0.058
-508.770	69.674	-0.099	0.103
-507.756	-5.154	-0.329	-0.230
-506.741	216.863	-0.208	-0.336
-505.726	-200.000	0.037	-0.257
-504.712	-124.420	-0.064	-0.010
-503.697	-137.605	-0.301	-0.034
-502.683	-14.802	-0.215	0.140
-501.668	-118.958	-0.050	0.009
-500.653	4.955	0.194	-0.145
-499.639	-200.000	-0.021	-0.180
-498.624	-200.000	0.034	-0.276
-497.610	-16.490	-0.190	-0.122
-496.595	19.588	-0.197	-0.161
-495.581	-15.141	0.041	-0.027
-494.566	28.124	-0.208	-0.178
-493.551	-63.456	-0.246	-0.103
-492.537	-200.000	-0.048	-0.233
-491.522	-200.000	0.023	0.116
-490.508	76.287	0.266	0.286
-489.493	-83.273	0.154	-0.050
-488.478	167.448	0.214	0.308
-487.464	-19.859	-0.272	0.170
-486.449	-200.000	0.000	-0.155
-485.435	-86.402	0.201	0.063
-484.420	-64.892	0.034	-0.014
-483.405	53.380	-0.335	-0.326
-482.391	-10.385	-0.057	-0.038
-481.376	-62.068	0.134	-0.057
-480.362	-200.000	0.021	0.141
-479.347	-43.191	0.435	0.223
-478.332	800.000	0.028	0.113
-477.318	2.512	-0.274	-0.201
-476.303	647.257	0.096	0.248
-475.289	53.212	0.100	-0.097
-474.274	-106.761	0.160	0.036
-473.259	-11.171	-0.176	-0.118
-472.245	460.099	0.053	0.120
-471.230	86.454	-0.177	-0.198
-470.216	-49.862	-0.150	0.072
-469.201	-89.530	0.172	0.051
-468.186	99.264	0.004	-0.004
-467.172	800.000	0.115	0.390
-466.157	-200.000	-0.038	0.315
-465.143	230.180	0.057	-0.095
-464.128	201.130	-0.156	-0.243
-463.113	-200.000	0.004	0.035
-462.099	800.000	0.075	0.327
-461.084	70.640	-0.109	-0.114
-460.070	2.598	0.180	-0.132
-459.055	669.825	-0.119	-0.312
-458.040	-69.420	-0.148	0.057
-457.026	-200.000	0.030	0.228
-456.011	-200.000	-0.036	0.245
-454.997	-125.679	0.224	-0.034
-453.982	-200.000	-0.029	-0.266
-452.968	-54.206	-0.132	0.060
-451.953	86.136	0.151	-0.168
-450.938	800.000	-0.039	-0.129
-449.924	396.226	0.040	0.085
-448.909	-64.149	0.465	0.192
-447.895	57.413	-0.221	0.219
-446.880	-51.572	-0.167	-0.079
-445.865	152.727	-0.142	-0.196
-444.851	800.000	-0.082	-0.298
-443.836	104.526	-0.169	0.202
-442.822	-78.019	0.174	-0.061
-441.807	-200.000	-0.027	0.359
-440.792	-30.813	-0.274	0.157
-439.778	800.000	-0.076	0.324
-438.763	-104.498	0.196	-0.046
-437.749	120.162	0.176	-0.221
-436.734	-111.221	0.055	-0.011
-435.719	800.000	-0.062	0.254
-434.705	32.142	0.192	-0.167
-433.690	23.936	0.334	0.278
-432.676	-124.841	-0.254	-0.040
-431.661	-128.025	-0.045	-0.007
-430.646	41.114	0.288	-0.263
-429.632	-49.740	-0.088	0.042
-428.617	-97.279	-0.333	0.088
-427.603	27.564	-0.279	-0.237
-426.588	147.362	0.049	0.066
-425.573	123.918	-0.206	-0.261
-424.559	36.375	-0.119	-0.106
-423.544	-200.000	0.010	0.144
-422.530	79.123	-0.231	0.250
-421.515	38.003	-0.062	0.055
-420.500	-155.456	0.408	-0.027
-419.486	-37.174	0.196	0.106
-418.471	-200.000	-0.039	0.269
-417.457	173.958	-0.232	0.338
-416.442	111.080	0.153	-0.186
-415.428	-89.497	0.165	0.049
-414.413	-10.609	0.201	-0.135
-413.398	800.000	-0.058	-0.185
-412.384	96.767	0.046	-0.053
-411.369	-83.900	0.240	-0.077
-410.355	567.686	0.070	-0.172
-409.340	-200.000	-0.003	0.102
-408.325	800.000	-0.077	0.259
-407.311	-133.929	-0.072	0.009
-406.296	10.796	-0.114	0.088
-405.282	31.407	0.179	-0.156
-404.267	-200.000	-0.006	0.260
-403.252	-160.820	0.253	-0.014
-402.238	116.686	0.134	-0.166
-401.223	524.625	0.097	0.229
-400.209	-21.573	-0.259	0.160
-399.194	-133.907	0.200	-0.025
-398.179	-200.000	-0.014	-0.323
-397.165	-166.760	0.007	-0.000
-396.150	-200.000	0.041	0.243
-395.136	-16.948	0.128	-0.081
-394.121	-16.655	0.127	-0.081
-393.106	-98.850	-0.071	-0.018
-392.092	-160.656	0.222	0.012
-391.077	800.000	0.062	-0.193
-390.063	151.470	0.148	0.203
-389.048	222.427	-0.134	-0.218
-388.033	-200.000	-0.039	0.240
-387.019	-200.000	0.026	0.144
-386.004	246.554	0.045	0.077
-384.990	-12.145	0.142	0.094
-383.975	-11.304	0.260	0.173
-382.960	-7.566	-0.312	0.213
-381.946	-200.000	-0.003	-0.069
-380.931	43.523	0.291	-0.269
-379.917	-78.079	-0.360	0.125
-378.902	-16.797	0.168	0.107
-377.888	650.762	-0.090	0.233
-376.873	-105.211	0.336	-0.077
-375.858	82.185	0.078	0.085
-374.844	-85.655	-0.101	0.032
-373.829	-5.397	0.230	0.159
-372.815	-200.000	0.074	0.409
-371.800	588.896	-0.024	-0.060
-370.785	800.000	0.110	0.381
-369.771	-200.000	-0.030	0.256
-368.756	309.722	0.075	0.142
-367.742	-161.742	0.588	-0.030
-366.727	-112.755	-0.111	0.022
-365.712	-73.306	0.173	-0.064
-364.698	115.340	0.200	-0.246
-363.683	49.085	0.178	-0.168
-362.669	513.244	0.199	0.468
-361.654	-88.591	-0.207	0.062
-360.639	164.167	0.070	0.100
-359.625	230.330	-0.148	-0.244
-358.610	-88.389	-0.095	0.029
-357.596	211.644	-0.228	-0.362
-356.581	533.458	-0.041	-0.099
-355.566	-111.982	0.358	-0.073
-354.552	-137.533	0.235	-0.027
-353.537	-60.333	0.117	0.050
-352.523	-31.878	0.119	-0.067
-351.508	-159.303	0.131	-0.007
-350.493	177.195	-0.044	-0.064
-349.479	282.702	-0.119	-0.215
-348.464	60.834	-0.228	0.228
-347.450	-55.874	0.294	-0.132
-346.435	-200.000	-0.008	0.150
-345.420	800.000	0.053	-0.199
-344.406	-179.889	-0.372	0.008
-343.391	471.900	-0.145	0.328
-342.377	-200.000	0.027	-0.250
-341.362	-88.318	0.248	-0.075
-340.348	-40.557	0.320	-0.167
-339.333	246.637	-0.024	-0.041
-338.318	-146.749	-0.164	0.014
-337.304	-15.741	0.248	-0.160
-336.289	-200.000	0.030	-0.254
-335.275	-37.992	0.267	-0.143
-334.260	322.022	0.153	0.294
-333.245	-200.000	0.009	-0.266
-332.231	257.278	-0.120	-0.207
-331.216	-134.686	-0.318	-0.039
-330.202	18.655	-0.031	0.025
-329.187	199.001	-0.258	0.398
-328.172	-136.127	-0.219	0.026
-327.158	327.397	0.058	-0.113
-326.143	-200.000	-0.008	0.307
-325.129	-161.614	-0.130	0.007
-324.114	-32.298	0.242	-0.136
-323.099	-130.491	0.258	0.035
-322.085	-200.000	0.007	0.161
-321.070	-46.295	0.253	0.125
-320.056	-147.565	0.297	-0.025
-319.041	-120.811	0.343	0.058
-318.026	-144.700	0.210	0.019
-317.012	-26.050	-0.231	0.137
-315.997	410.125	0.105	-0.224
-314.983	467.583	-0.111	0.251
-313.968	-200.000	-0.003	-0.240
-312.953	117.609	-0.132	-0.163
-311.939	-99.671	0.108	-0.027
-310.924	-200.000	0.067	-0.313
-309.910	210.306	-0.098	-0.154
-308.895	-200.000	-0.001	0.234
-307.880	-108.755	-0.165	0.036
-306.866	-113.518	0.319	-0.063
-305.851	-32.902	0.192	-0.107
-304.837	43.036	0.206	0.189
-303.822	-21.029	-0.280	0.172
-302.807	149.922	-0.105	0.143
-301.793	800.000	0.021	0.087
-300.778	800.000	0.056	-0.158
-299.764	-28.570	-0.042	0.024
-298.749	-200.000	0.050	-0.281
-297.735	-115.804	-0.336	-0.063
-296.720	18.201	-0.030	-0.024
-295.705	130.162	0.209	-0.269
-294.691	-24.482	-0.050	0.030
-293.676	-146.263	0.214	-0.019
-292.662	800.000	-0.086	-0.295
-291.647	-200.000	-0.006	-0.095
-290.632	-123.819	-0.045	0.007
-289.618	378.260	-0.220	0.453
-288.603	-99.722	0.246	-0.062
-287.589	448.214	-0.105	-0.233
-286.574	-41.499	-0.318	-0.164
-285.559	124.431	-0.045	-0.057
-284.545	194.659	-0.178	-0.271
-283.530	-59.679	0.346	-0.149
-282.516	160.522	-0.084	0.118
-281.501	-74.444	-0.243	0.088
-280.486	-68.767	-0.316	-0.123
-279.472	-102.795	-0.377	0.090
-278.457	-200.000	0.110	0.518
-277.443	-118.976	0.144	0.025
-276.428	-200.000	-0.007	0.072
-275.413	-200.000	0.008	0.129
-274.399	-200.000	-0.022	0.121
-273.384	124.091	0.227	-0.286
-272.370	-80.207	-0.180	0.061
-271.355	186.018	-0.294	-0.439
-270.340	113.454	0.349	-0.426
-269.326	169.727	0.149	-0.214
-268.311	-0.408	0.448	0.320
-267.297	-148.364	-0.331	-0.027
-266.282	-182.311	0.400	0.007
-265.267	-86.499	-0.138	0.043
-264.253	685.460	0.119	-0.313
-263.238	-200.000	0.006	-0.232
-262.224	-200.000	0.009	0.090
-261.209	655.242	0.214	-0.551
-260.195	-75.795	-0.116	-0.041
-259.180	35.143	0.249	0.219
-258.165	-200.000	-0.040	0.279
-257.151	-140.506	0.306	-0.032
-256.136	19.845	-0.089	-0.072
-255.122	-15.624	-0.206	0.132
-254.107	800.000	-0.031	-0.134
-253.092	800.000	0.028	-0.079
-252.078	-68.921	0.292	0.113
-251.063	-142.899	0.177	0.017
-250.049	47.976	-0.254	-0.239
-249.034	468.190	0.079	0.177
-248.019	-143.428	-0.161	0.015
-247.005	-200.000	-0.002	0.171
-245.990	661.683	0.067	-0.173
-244.976	-15.160	0.135	-0.087
-243.961	-17.252	-0.253	-0.160
-242.946	-120.064	-0.450	0.077
-241.932	-200.000	-0.074	0.380
-240.917	150.967	-0.054	-0.074
-239.903	-200.000	0.057	-0.345
-238.888	-200.000	0.046	-0.289
-237.873	42.936	-0.196	0.179
-236.859	-165.087	-0.157	0.007
-235.844	540.056	-0.119	0.284
-234.830	-200.000	0.023	-0.179
-233.815	-15.474	-0.110	-0.071
-232.800	108.072	0.061	-0.073
-231.786	-200.000	-0.042	-0.246
-230.771	-146.720	0.426	-0.037
-229.757	169.069	0.050	0.071
-228.742	800.000	-0.109	-0.389
-227.727	138.248	0.157	0.207
-226.713	-42.808	0.169	-0.086
-225.698	800.000	-0.022	0.082
-224.684	94.208	-0.112	0.127
-223.669	-134.103	-0.169	-0.021
-222.655	-200.000	-0.013	-0.241
-221.640	-36.890	-0.126	-0.068
-220.625	-200.000	-0.032	-0.354
-219.611	-108.475	-0.365	0.079
-218.596	-60.374	-0.303	-0.129
-217.582	-156.031	-0.164	0.010
-216.567	-125.135	0.318	-0.049
-215.552	-87.390	-0.043	-0.013
-214.538	-145.129	0.236	0.022
-213.523	-86.364	-0.316	0.097
-212.509	-200.000	0.058	0.374
-211.494	-35.624	0.171	0.093
-210.479	800.000	-0.027	0.091
-209.465	52.954	0.141	-0.136
-208.450	-90.022	-0.312	-0.091
-207.436	-200.000	0.003	0.161
-206.421	-200.000	0.012	0.178
-205.406	52.505	0.112	0.107
-204.392	800.000	0.017	0.060
-203.377	-70.697	0.225	-0.085
-202.363	-107.658	-0.202	-0.044
-201.348	-19.358	0.098	0.061
-200.333	211.208	0.032	0.050
-199.319	-142.414	0.127	-0.013
-198.304	-12.729	0.132	0.086
-197.290	635.147	0.170	-0.433
-196.275	150.540	-0.063	0.086
-195.260	159.919	-0.077	-0.108
-194.246	102.803	0.189	-0.222
-193.231	-200.000	0.014	-0.069
-192.217	-194.328	0.221	0.002
-191.202	800.000	0.041	-0.139
-190.187	238.924	-0.043	0.071
-189.173	58.712	-0.076	-0.075
-188.158	-200.000	-0.048	-0.339
-187.144	-148.208	0.424	0.035
-186.129	-115.827	0.032	0.006
-185.114	613.444	-0.114	0.286
-184.100	-65.626	0.244	0.098
-183.085	-137.619	-0.269	0.030
-182.071	401.058	-0.223	0.468
-181.056	-28.714	0.244	0.140
-180.042	-200.000	0.019	-0.124
-179.027	-200.000	0.030	0.272
-178.012	-71.748	-0.161	0.060
-176.998	-5.668	-0.084	0.057
-175.983	428.021	0.068	0.146
-174.969	-127.379	-0.351	-0.051
-173.954	-200.000	-0.010	-0.076
-172.939	-200.000	0.008	0.206
-171.925	-200.000	0.001	-0.019
-170.910	28.112	-0.061	0.051
-169.896	800.000	0.081	-0.235
-168.881	800.000	-0.011	-0.037
-167.866	-78.386	-0.295	0.101
-166.852	-102.762	-0.462	0.110
-165.837	47.714	-0.056	0.052
-164.823	508.629	0.157	0.366
-163.808	265.000	0.104	0.182
-162.793	-200.000	0.019	0.226
-161.779	-23.229	0.282	0.170
-160.764	-200.000	-0.011	0.185
-159.750	800.000	0.069	-0.252
-158.735	-142.551	-0.092	-0.009
-157.720	-0.513	-0.100	0.071
-156.706	305.273	0.156	0.289
-155.691	396.034	-0.072	-0.151
-154.677	356.884	-0.190	-0.378
-153.662	-200.000	0.034	-0.294
-152.647	108.324	0.204	-0.244
-151.633	-156.474	-0.238	-0.015
-150.618	-200.000	0.011	0.233
-149.604	108.871	-0.134	0.160
-148.589	65.490	-0.132	-0.134
-147.574	-200.000	0.071	-0.381
-146.560	123.274	-0.116	0.145
-145.545	-200.000	0.051	0.306
-144.531	-166.708	-0.261	-0.011
-143.516	-200.000	-0.060	0.487
-142.502	242.607	0.164	-0.274
-141.487	-200.000	0.014	0.161
-140.472	-200.000	-0.016	0.272
-139.458	-200.000	-0.012	0.379
-138.443	26.924	0.204	0.171
-137.429	-200.000	-0.054	-0.243
-136.414	-10.141	-0.087	0.058
-135.399	-161.738	-0.268	0.014
-134.385	85.261	-0.090	0.098
-133.370	-200.000	0.021	0.160
-132.356	-103.491	0.145	0.034
-131.341	3.234	0.222	-0.162
-130.326	23.333	0.081	-0.067
-129.312	123.492	-0.073	0.091
-128.297	89.539	-0.209	-0.232
-127.283	-179.475	0.115	-0.003
-126.268	-24.419	0.232	0.138
-125.253	800.000	-0.018	-0.071
-124.239	51.055	-0.168	0.159
-123.224	-200.000	-0.031	-0.136
-122.210	144.490	-0.065	0.087
-121.195	369.100	0.180	0.363
-120.180	800.000	-0.107	0.303
-119.166	-46.475	0.451	0.221
-118.151	24.759	0.096	-0.079
-117.137	-121.002	0.219	0.037
-116.122	777.198	0.051	-0.140
-115.107	72.681	0.195	0.204
-114.093	-185.618	0.105	-0.002
-113.078	800.000	-0.098	0.298
-112.064	-161.925	0.389	0.020
-111.049	133.153	-0.129	-0.166
-110.034	118.288	-0.135	0.166
-109.020	-67.947	-0.227	0.088
-108.005	39.861	-0.237	0.212
-106.991	-104.965	-0.098	0.022
-105.976	-52.631	0.236	0.109
-104.962	-107.912	-0.072	-0.016
-103.947	-29.251	0.271	-0.155
-102.932	-22.844	0.201	0.121
-101.918	-200.000	-0.002	0.391
-100.903	173.264	-0.166	0.239
-99.889	450.960	0.018	-0.040
-98.874	-166.138	0.343	-0.015
-97.859	-169.737	0.052	-0.002
-96.845	107.675	-0.204	-0.242
-95.830	800.000	0.070	0.279
-94.816	-200.000	-0.031	-0.136
-93.801	13.757	0.183	0.142
-92.786	-53.792	0.263	-0.120
-91.772	800.000	0.118	0.337
-90.757	-100.802	0.251	-0.062
-89.743	-200.000	0.068	0.415
-88.728	60.003	0.133	-0.131
-87.713	14.865	-0.092	0.072
-86.699	103.277	0.048	-0.056
-85.684	-77.614	0.310	0.107
-84.670	-155.482	-0.429	0.028
-83.655	240.821	-0.082	0.137
-82.640	-70.880	0.265	-0.100
-81.626	25.285	-0.236	-0.195
-80.611	800.000	-0.069	0.292
-79.597	504.185	0.012	-0.029
-78.582	144.364	0.250	0.332
-77.567	120.962	0.175	0.217
-76.553	187.922	-0.105	-0.157
-75.538	573.511	-0.108	-0.263
-74.524	800.000	0.050	0.206
-73.509	179.950	0.119	0.173
-72.494	-0.811	0.263	-0.186
-71.480	629.857	0.038	0.096
-70.465	-171.151	0.238	-0.008
-69.451	18.100	0.163	0.130
-68.436	-200.000	0.033	0.364
-67.422	62.723	-0.237	-0.236
-66.407	260.792	0.102	0.175
-65.392	-51.155	-0.236	-0.110
-64.378	62.562	0.069	-0.069
-63.363	32.978	0.275	0.238
-62.349	224.682	-0.102	0.165
-61.334	33.916	-0.696	-0.604
-60.319	-200.000	-0.031	0.253
-59.305	800.000	-0.225	-0.625
-58.290	164.740	0.479	0.673
-57.276	800.000	0.490	1.563
-56.261	-200.000	76.742	512.025
-55.246	515.149	1328.790	3090.612
-54.232	146.966	2557.861	3426.590
-53.217	116.392	2224.316	2715.831
-52.203	51.913	1672.396	1585.953
-51.188	44.028	1398.130	1276.439
-50.173	40.579	1351.893	1213.137
-49.159	59.016	1388.158	1359.927
-48.144	65.808	1406.371	1419.582
-47.130	44.666	1369.080	1253.652
-46.115	40.580	1352.318	1213.327
-45.100	40.342	1347.791	1207.771
-44.086	40.261	1345.560	1205.228
-43.071	40.249	1343.072	1202.880
-42.057	40.244	1340.939	1200.889
-41.042	40.206	1339.042	1198.911
-40.027	40.418	1337.157	1198.463
-39.013	40.287	1335.738	1196.350
-37.998	40.315	1333.841	1194.775
-36.984	40.347	1332.203	1193.452
-35.969	40.533	1330.335	1192.847
-34.954	40.437	1329.035	1191.062
-33.940	40.482	1327.573	1189.974
-32.925	40.582	1326.016	1189.125
-31.911	40.512	1324.873	1187.635
-30.896	40.502	1322.599	1185.493
-29.881	40.601	1321.368	1184.931
-28.867	40.555	1319.897	1183.295
-27.852	40.449	1318.823	1181.653
-26.838	40.577	1317.320	1181.020
-25.823	40.544	1315.708	1179.331
-24.809	40.562	1314.534	1178.339
-23.794	40.462	1313.132	1176.443
-22.779	40.520	1311.088	1174.907
-21.765	40.469	1310.416	1173.955
-20.750	40.552	1308.884	1173.031
-19.736	40.551	1307.226	1171.492
-18.721	40.374	1306.621	1169.857
-17.706	40.385	1305.189	1168.593
-16.692	40.337	1304.282	1167.450
-15.677	40.392	1302.523	1166.156
-14.663	40.321	1301.930	1165.158
-13.648	40.238	1300.854	1163.661
-12.633	40.448	1299.481	1163.624
-11.619	40.263	1299.037	1162.094
-10.604	40.379	1298.650	1162.378
-9.590	40.318	1297.545	1160.988
-8.575	40.370	1296.490	1160.302
-7.560	40.368	1295.124	1159.023
-6.546	40.296	1294.396	1157.902
-5.531	40.251	1293.748	1157.015
-4.517	40.374	1292.783	1156.822
-3.502	40.459	1291.927	1156.507
-2.487	40.418	1290.483	1154.931
-1.473	40.407	1286.612	1151.353
-0.458	39.382	1271.822	1132.183
0.556	35.698	1252.199	1089.989
1.571	31.740	1256.279	1070.873
2.586	30.242	1271.857	1075.380
3.600	28.698	1259.719	1056.148
4.615	20.625	1181.663	946.865
5.629	8.311	1097.996	817.077
6.644	2.799	1074.150	771.604
7.659	2.290	1070.928	766.668
8.673	2.232	1069.085	764.990
9.688	2.101	1068.397	763.774
10.702	2.394	1066.968	764.149
11.717	9.373	1077.759	806.921
12.731	20.354	1093.711	874.403
13.746	25.215	1099.679	903.649
14.761	25.622	1099.437	905.417
15.775	25.653	1098.759	904.936
16.790	25.331	1098.043	902.648
17.804	25.273	1097.404	901.750
18.819	25.496	1096.743	902.246
19.834	25.561	1096.345	902.163
20.848	25.545	1096.545	902.168
21.863	25.632	1095.461	901.633
22.877	25.517	1095.063	900.650
23.892	25.390	1094.395	899.384
24.907	25.412	1093.563	898.731
25.921	25.471	1092.443	898.025
26.936	25.610	1090.580	897.110
27.950	25.399	1089.762	895.304
28.965	25.390	1087.329	893.185
29.980	25.382	1086.419	892.314
30.994	25.387	1086.131	892.025
32.009	25.525	1084.609	891.380
33.023	25.255	1083.219	888.821
34.038	25.394	1082.448	888.802
35.053	25.507	1081.995	888.909
36.067	25.371	1081.416	887.683
37.082	25.611	1080.040	887.659
38.096	25.724	1079.317	887.540
39.111	25.842	1079.073	887.844
40.126	25.517	1077.837	885.151
41.140	25.276	1075.707	882.137
42.155	25.025	1074.302	879.676
43.169	25.053	1073.628	879.184
44.184	25.095	1072.428	878.330
45.199	25.054	1071.375	877.186
46.213	25.002	1071.225	876.733
47.228	25.220	1070.412	877.053
48.242	25.309	1069.357	876.548
49.257	25.408	1068.323	876.107
50.271	25.457	1067.926	875.941
51.286	25.539	1066.831	875.365
52.301	25.499	1066.370	874.713
53.315	25.382	1065.169	873.086
54.330	25.565	1064.070	872.994
55.344	25.449	1063.345	871.759
56.359	25.295	1062.456	870.205
57.374	25.209	1062.021	869.356
58.388	25.143	1060.984	868.113
59.403	25.013	1060.193	866.759
60.417	25.115	1059.071	866.255
61.432	25.156	1058.159	865.633
62.447	25.146	1057.967	865.351
63.461	25.203	1057.493	865.161
64.476	25.153	1056.118	863.718
65.490	25.021	1055.032	862.118
66.505	25.236	1054.414	862.570
67.520	25.181	1053.979	861.873
68.534	25.109	1052.476	860.226
69.549	24.643	1052.164	857.655
70.563	24.679	1051.309	857.056
71.578	24.763	1050.182	856.463
72.593	24.468	1049.488	854.411
73.607	24.667	1048.647	854.603
74.622	25.030	1048.271	855.957
75.636	25.052	1047.682	855.505
76.651	24.892	1046.818	853.960
77.666	24.742	1046.060	852.549
78.680	24.885	1045.610	852.790
79.695	25.003	1044.150	852.085
80.709	25.138	1043.490	852.112
81.724	25.111	1043.185	851.661
82.739	25.264	1042.235	851.534
83.753	25.317	1042.182	851.666
84.768	25.769	1041.212	852.943
85.782	25.752	1040.335	852.067
86.797	25.714	1039.370	851.020
87.812	25.568	1038.306	849.386
88.826	25.606	1037.621	848.930
89.841	25.812	1036.291	848.736
90.855	25.684	1035.996	847.815
91.870	25.604	1034.989	846.539
92.884	25.681	1033.285	845.437
93.899	25.543	1032.497	844.065
94.914	25.722	1031.770	844.238
95.928	25.516	1030.708	842.330
96.943	25.293	1029.434	840.170
97.957	25.072	1028.118	837.988
98.972	24.884	1027.446	836.487
99.987	25.193	1027.038	837.526
101.001	25.312	1026.150	837.282
102.016	25.422	1024.908	836.704
103.030	25.398	1023.943	835.732
104.045	25.306	1023.267	834.677
105.060	25.025	1022.385	832.581
106.074	25.171	1021.743	832.663
107.089	25.594	1021.292	834.184
108.103	25.332	1020.164	831.973
109.118	25.084	1018.983	829.787
110.133	25.202	1017.853	829.341
111.147	24.938	1016.870	827.247
112.162	25.054	1015.561	826.647
113.176	25.064	1015.385	826.472
114.191	25.068	1014.433	825.644
115.206	24.813	1013.341	823.511
116.220	24.832	1012.574	822.899
117.235	24.874	1012.040	822.586
118.249	24.890	1010.553	821.378
119.264	24.871	1010.189	820.923
120.279	24.785	1009.342	819.770
121.293	24.867	1008.797	819.631
122.308	24.795	1007.778	818.399
123.322	24.684	1007.048	817.226
124.337	24.677	1005.312	815.711
125.352	24.277	1003.565	812.400
126.366	24.197	1002.419	811.036
127.381	24.930	1002.791	814.601
128.395	25.367	1002.123	815.972
129.410	25.446	1001.885	816.066
130.424	25.340	1000.553	814.427
131.439	25.284	999.934	813.601
132.454	25.358	998.890	813.012
133.468	25.343	997.772	811.962
134.483	25.576	997.036	812.346
135.497	25.639	996.608	812.211
136.512	25.828	995.534	812.113
137.527	25.712	994.506	810.680
138.541	25.646	993.940	809.853
139.556	25.656	993.594	809.541
140.570	25.913	992.250	809.531
141.585	25.835	991.768	808.713
142.600	25.649	990.427	806.718
143.614	25.854	989.831	807.078
144.629	25.953	989.503	807.183
145.643	25.869	987.858	805.395
146.658	25.630	986.479	803.133
147.673	25.583	985.342	801.924
148.687	25.452	984.226	800.363
149.702	25.400	983.133	799.171
150.716	25.436	981.930	798.281
151.731	25.490	982.050	798.548
152.746	25.732	981.787	799.340
153.760	25.832	980.942	799.023
154.775	25.864	980.240	798.524
155.789	25.691	979.641	797.201
156.804	25.784	978.517	796.626
157.819	25.809	977.601	795.919
158.833	25.910	976.713	795.573
159.848	25.924	975.551	794.618
160.862	25.811	974.128	792.890
161.877	25.808	973.426	792.236
162.892	25.814	972.697	791.599
163.906	25.810	971.365	790.428
164.921	25.733	970.651	789.438
165.935	25.832	969.384	788.773
166.950	25.842	968.615	788.121
167.964	25.783	967.778	787.111
168.979	25.619	966.593	785.362
169.994	25.627	965.586	784.510
171.008	25.979	965.143	785.614
172.023	25.919	964.538	784.790
173.037	25.596	963.759	782.681
174.052	25.412	963.075	781.255
175.067	25.395	962.457	780.614
176.081	25.514	962.025	780.712
177.096	25.472	961.037	779.658
178.110	25.277	959.775	777.719
179.125	25.054	959.103	776.140
180.140	25.112	958.703	776.000
181.154	25.311	958.389	776.535
182.169	25.646	957.924	777.539
183.183	25.871	957.517	778.113
184.198	25.668	957.253	776.951
185.213	25.729	956.058	776.178
186.227	25.878	955.360	776.185
187.242	25.740	954.496	774.819
188.256	25.683	954.011	774.113
189.271	25.728	953.431	773.766
190.286	25.476	952.050	771.493
191.300	24.898	950.715	767.865
192.315	24.120	948.948	763.039
193.329	24.077	948.480	762.411
194.344	24.943	948.813	766.321
195.359	25.554	949.161	769.147
196.373	25.711	948.623	769.312
197.388	25.631	947.848	768.278
198.402	25.558	947.548	767.654
199.417	25.640	946.726	767.269
200.432	25.442	945.690	765.518
201.446	25.320	944.700	764.130
202.461	25.384	944.295	764.006
203.475	24.505	942.376	758.653
204.490	23.643	941.026	753.839
205.504	24.522	941.720	758.061
206.519	25.168	941.806	760.807
207.534	25.334	941.106	760.878
208.548	25.714	941.090	762.409
209.563	25.378	939.913	759.965
210.577	25.386	939.466	759.571
211.592	25.896	938.968	761.253
212.607	25.920	938.019	760.521
213.621	25.840	937.239	759.481
214.636	25.856	936.278	758.705
215.650	25.799	936.087	758.242
216.665	25.926	935.430	758.176
217.680	25.974	934.440	757.510
218.694	25.498	933.145	754.397
219.709	25.314	932.786	753.266
220.723	25.552	932.253	753.765
221.738	25.632	931.756	753.635
222.753	25.648	931.257	753.229
223.767	25.701	930.901	753.098
224.782	26.068	930.167	753.972
225.796	26.059	929.636	753.435
226.811	25.403	927.929	749.252
227.826	24.751	926.716	745.487
228.840	24.869	926.367	745.633
229.855	24.904	925.771	745.231
230.869	24.334	925.149	742.295
231.884	24.904	924.922	744.419
232.899	25.600	924.955	747.271
233.913	25.484	924.433	746.302
234.928	25.427	923.802	745.489
235.942	25.375	923.200	744.724
236.957	25.162	921.862	742.694
237.972	25.237	921.537	742.678
238.986	25.368	920.919	742.656
240.001	25.293	920.497	741.941
241.015	25.486	919.845	742.146
242.030	25.603	919.808	742.532
243.045	25.688	919.174	742.307
244.059	25.883	918.169	742.233
245.074	25.575	917.631	740.464
246.088	25.149	916.694	737.889
247.103	25.649	916.092	739.397
248.117	26.103	916.598	741.602
249.132	26.334	916.207	742.170
250.147	26.442	915.567	742.029
251.161	26.516	915.293	742.045
252.176	26.505	914.522	741.309
253.190	26.682	913.959	741.513
254.205	26.735	913.234	741.075
255.220	26.772	912.838	740.841
256.234	26.577	911.765	739.106
257.249	26.425	911.126	737.905
258.263	26.429	910.637	737.461
259.278	26.464	910.001	737.023
260.293	26.598	909.141	736.806
261.307	26.428	908.538	735.561
262.322	26.352	907.716	734.518
263.336	25.682	905.911	730.278
264.351	24.633	903.886	724.332
265.366	24.606	904.009	724.255
266.380	25.658	904.357	728.735
267.395	26.174	904.226	730.650
268.409	26.076	903.304	729.446
269.424	26.427	902.500	730.151
270.439	26.362	901.948	729.375
271.453	26.460	901.662	729.476
272.468	26.488	901.611	729.484
273.482	26.626	901.220	729.659
274.497	26.190	900.171	726.987
275.512	25.867	898.842	724.552
276.526	26.151	899.367	726.054
277.541	26.409	898.594	726.404
278.555	26.324	897.670	725.252
279.570	26.032	896.899	723.392
280.585	26.217	896.030	723.369
281.599	26.246	895.142	722.704
282.614	25.632	893.890	719.176
283.628	25.638	893.451	718.783
284.643	25.907	893.527	719.856
285.657	25.666	892.075	717.660
286.672	25.316	891.106	715.422
287.687	25.894	891.355	717.864
288.701	26.101	890.943	718.291
289.716	25.582	889.967	715.379
290.730	25.718	889.265	715.291
291.745	25.262	888.628	712.905
292.760	25.626	888.530	714.208
293.774	26.616	888.635	718.157
294.789	26.913	888.391	719.070
295.803	26.977	887.907	718.869
296.818	26.937	887.254	718.120
297.833	26.488	885.829	715.129
298.847	26.199	885.429	713.600
299.862	26.589	885.275	714.955
300.876	27.104	884.886	716.607
301.891	26.850	884.452	715.192
302.906	26.492	883.143	712.660
303.920	26.689	882.897	713.173
304.935	26.888	883.028	714.001
305.949	26.819	881.880	712.740
306.964	26.711	880.762	711.346
307.979	26.554	881.065	710.913
308.993	27.106	880.265	712.369
310.008	26.962	879.937	711.478
311.022	26.678	879.321	709.804
312.037	26.583	878.204	708.465
313.052	26.321	877.463	706.780
314.066	25.494	875.854	702.195
315.081	25.071	875.202	699.958
316.095	26.112	874.915	703.728
317.110	26.559	875.064	705.528
318.125	25.688	873.913	701.147
319.139	24.665	872.335	695.839
320.154	24.687	871.593	695.271
321.168	25.573	872.341	699.250
322.183	26.216	872.332	701.682
323.197	26.303	872.010	701.699
324.212	26.596	871.608	702.451
325.227	26.607	871.427	702.285
326.241	26.625	869.931	701.084
327.256	26.352	869.758	699.830
328.270	26.323	868.862	698.934
329.285	26.151	868.232	697.701
330.300	25.981	867.289	696.225
331.314	26.041	867.079	696.223
332.329	26.553	867.259	698.282
333.343	26.865	866.827	699.078
334.358	26.583	866.273	697.481
335.373	26.801	865.714	697.809
336.387	27.034	865.695	698.628
337.402	27.071	865.973	698.933
338.416	27.128	865.383	698.616
339.431	27.210	864.996	698.554
340.446	27.369	864.883	699.012
341.460	27.300	864.448	698.337
342.475	26.959	863.908	696.527
343.489	27.117	863.526	696.766
344.504	27.506	862.907	697.692
345.519	27.728	862.286	697.980
346.533	27.575	862.229	697.287
347.548	27.610	861.455	696.733
348.562	27.506	861.012	695.915
349.577	27.408	860.294	694.899
350.592	27.407	859.810	694.443
351.606	27.433	858.607	693.507
352.621	27.323	857.964	692.509
353.635	27.225	857.226	691.480
354.650	26.600	855.670	687.789
355.665	25.623	854.231	682.865
356.679	26.123	854.333	684.784
357.694	26.526	853.615	685.675
358.708	26.441	853.298	685.038
359.723	26.868	852.816	686.209
360.738	27.214	852.662	687.332
361.752	27.327	852.061	687.211
362.767	27.625	852.057	688.272
363.781	27.902	851.438	688.756
364.796	28.017	850.965	688.749
365.810	28.031	850.620	688.458
366.825	27.884	850.136	687.453
367.840	27.702	849.292	686.027
368.854	27.168	848.878	683.623
369.869	27.198	848.133	683.077
370.883	27.298	848.139	683.396
371.898	27.114	847.597	682.205
372.913	27.367	846.889	682.526
373.927	27.460	846.718	682.676
374.942	27.413	846.376	682.163
375.956	27.642	845.816	682.510
376.971	27.734	845.239	682.329
377.986	27.829	845.178	682.573
379.000	27.881	844.320	682.016
380.015	27.777	843.149	680.621
381.029	27.823	842.979	680.594
382.044	27.817	842.597	680.205
383.059	27.829	842.128	679.808
384.073	27.932	841.389	679.537
385.088	27.855	840.890	678.786
386.102	27.527	840.377	677.092
387.117	27.569	839.604	676.567
388.132	27.252	838.241	674.234
389.146	26.858	837.216	671.889
390.161	27.033	837.429	672.651
391.175	27.420	837.365	673.970
392.190	27.416	836.076	672.859
393.205	25.879	834.197	665.614
394.219	24.391	832.192	658.470
395.234	24.258	831.894	657.686
396.248	25.815	833.580	664.712
397.263	27.432	834.091	671.023
398.278	27.362	833.744	670.429
399.292	27.093	833.351	669.063
400.307	27.138	832.695	668.643
401.321	27.191	832.403	668.542
402.336	27.576	832.545	670.013
403.350	28.145	832.116	671.700
404.365	28.317	832.176	672.321
405.380	28.582	831.755	672.891
406.394	28.507	831.201	672.108
407.409	28.606	830.800	672.089
408.423	28.474	830.393	671.216
409.438	28.441	830.097	670.798
410.453	28.700	829.463	671.170
411.467	28.492	828.598	669.653
412.482	28.652	828.413	670.030
413.496	28.708	828.243	670.037
414.511	28.536	828.109	669.242
415.526	28.574	827.594	668.904
416.540	28.483	826.418	667.562
417.555	28.105	826.105	665.876
418.569	28.288	825.655	666.120
419.584	28.222	825.226	665.474
420.599	28.013	824.472	664.047
421.613	95.279	1267.008	1378.512
422.628	82.230	1331.485	1378.645
