DTS Sentinel unit serial number:	SN413079Multiplexer serial number:	ORYXHardware model number:	OX4-SRSoftware version number:	ORYX F/W v4.00 Oryx Data Collector v3.7.2.0data status	okinstallation	princeton_trtdifferential loss correction	single-endedforward channel	channel 1reverse channel	N/Adate	2019/09/18time	05:54:35forward acquisition time	60.00reverse acquisition time	0.00gamma	496.2192k internal	0.2340k external	0.2340temperature offset calibration	0.9976default loss term (dB/km)	0.3790temperature slope calibration	1.0000multiplexer offset coefficient	1.0000multiplexer slope coefficient	1.0000fibre end	0.00T internal ref (°C)	23.25T ext. ref 1 (°C)	0.19T ext. ref 2 (°C)	17.36length (m)	temperature (°C)	Stokes	anti-Stokes-747.200	346.466	-0.105	-0.208
-746.185	-200.000	0.040	0.518
-745.171	-77.686	0.138	-0.048
-744.156	-200.000	0.011	0.179
-743.142	86.458	0.416	0.459
-742.127	800.000	-0.061	-0.206
-741.112	-95.087	-0.275	-0.075
-740.098	-54.087	-0.299	0.136
-739.083	-200.000	0.026	-0.172
-738.069	20.987	-0.274	-0.223
-737.054	37.584	-0.043	0.038
-736.039	-121.517	-0.424	-0.071
-735.025	17.315	0.377	0.300
-734.010	-132.924	-0.151	-0.019
-732.996	-139.877	-0.286	-0.030
-731.981	-36.011	-0.163	-0.088
-730.966	-177.969	-0.099	0.002
-729.952	-184.313	-0.590	-0.010
-728.937	800.000	-0.072	-0.278
-727.923	311.598	0.058	-0.108
-726.908	-107.482	0.133	-0.029
-725.894	312.197	-0.127	0.239
-724.879	218.235	-0.133	-0.213
-723.864	-59.982	-0.162	-0.070
-722.850	-144.069	-0.190	-0.018
-721.835	-109.949	0.164	0.034
-720.821	691.302	0.097	-0.253
-719.806	48.395	-0.102	0.096
-718.791	-190.561	0.220	0.002
-717.777	-30.613	0.029	-0.016
-716.762	261.606	0.115	-0.200
-715.748	-200.000	0.039	0.236
-714.733	299.943	-0.088	0.163
-713.718	-129.484	-0.147	-0.020
-712.704	-87.370	-0.289	-0.088
-711.689	-200.000	-0.051	-0.414
-710.675	38.323	-0.193	-0.172
-709.660	-79.496	0.303	-0.102
-708.645	-23.305	0.178	0.107
-707.631	108.141	0.096	-0.114
-706.616	-150.182	0.368	-0.029
-705.602	5.719	0.152	-0.113
-704.587	123.871	0.392	0.493
-703.572	-87.299	-0.260	0.079
-702.558	-200.000	0.022	0.170
-701.543	186.782	0.056	0.083
-700.529	53.114	0.268	0.257
-699.514	81.826	-0.077	0.083
-698.499	-200.000	-0.039	-0.328
-697.485	-200.000	-0.050	0.297
-696.470	-200.000	-0.022	-0.224
-695.456	-22.659	-0.210	0.127
-694.441	-100.073	-0.147	-0.037
-693.426	-126.566	-0.133	-0.020
-692.412	17.788	-0.171	0.136
-691.397	520.740	-0.069	0.161
-690.383	-104.599	0.165	0.038
-689.368	800.000	0.072	0.228
-688.354	-64.079	-0.203	0.083
-687.339	-114.218	0.128	-0.025
-686.324	-200.000	-0.001	0.094
-685.310	94.235	0.274	-0.311
-684.295	420.519	-0.081	-0.174
-683.281	-45.586	-0.125	0.062
-682.266	-16.572	-0.183	0.116
-681.251	187.159	-0.058	0.087
-680.237	80.087	-0.294	0.316
-679.222	800.000	0.035	-0.139
-678.208	-77.212	0.139	0.048
-677.193	-132.166	0.253	-0.033
-676.178	458.432	-0.112	-0.249
-675.164	-40.147	0.248	0.129
-674.149	-200.000	0.006	-0.191
-673.135	27.739	0.055	-0.046
-672.120	-47.946	0.302	-0.146
-671.105	225.620	-0.126	-0.205
-670.091	-9.265	-0.225	-0.151
-669.076	108.014	0.157	0.187
-668.062	-50.386	-0.167	-0.079
-667.047	687.681	0.038	-0.099
-666.032	800.000	-0.027	-0.104
-665.018	800.000	0.028	-0.119
-664.003	-132.479	0.180	0.023
-662.989	-45.820	-0.376	0.185
-661.974	1.058	-0.174	-0.125
-660.959	15.192	-0.035	0.027
-659.945	-76.742	0.281	-0.098
-658.930	75.024	-0.382	-0.402
-657.916	177.793	-0.095	-0.138
-656.901	-163.352	-0.434	0.021
-655.886	-45.625	-0.091	0.045
-654.872	630.597	-0.038	0.096
-653.857	204.038	0.099	0.153
-652.843	-5.282	0.199	-0.136
-651.828	800.000	-0.034	-0.147
-650.814	800.000	-0.087	-0.293
-649.799	-35.244	0.299	0.162
-648.784	-145.882	-0.423	0.038
-647.770	74.488	-0.187	0.197
-646.755	73.582	-0.106	-0.111
-645.741	-25.589	-0.118	-0.069
-644.726	-200.000	-0.005	0.244
-643.711	-154.509	-0.418	0.028
-642.697	800.000	0.029	0.112
-641.682	102.401	-0.124	0.145
-640.668	-196.764	-0.238	0.002
-639.653	588.402	-0.031	-0.076
-638.638	189.572	0.205	-0.308
-637.624	-129.530	0.131	-0.018
-636.609	123.345	0.189	-0.237
-635.595	-33.488	-0.575	-0.317
-634.580	-158.919	0.283	-0.016
-633.565	-200.000	-0.005	-0.067
-632.551	-107.765	-0.167	-0.036
-631.536	-6.153	0.155	-0.106
-630.522	209.836	0.046	0.072
-629.507	-157.169	-0.345	0.021
-628.492	-200.000	-0.022	-0.241
-627.478	-102.252	0.352	-0.084
-626.463	-70.553	-0.181	0.069
-625.449	-125.585	-0.178	-0.027
-624.434	800.000	-0.095	-0.357
-623.419	-200.000	-0.030	-0.148
-622.405	800.000	0.043	-0.154
-621.390	-173.256	0.073	-0.002
-620.376	-47.573	0.160	0.078
-619.361	800.000	0.069	0.213
-618.346	800.000	0.032	-0.109
-617.332	-200.000	0.023	0.178
-616.317	800.000	-0.056	-0.228
-615.303	800.000	0.061	0.261
-614.288	360.487	0.094	0.188
-613.273	-49.270	0.249	-0.118
-612.259	-46.904	0.217	0.106
-611.244	12.259	0.112	-0.086
-610.230	-16.842	0.108	-0.068
-609.215	-200.000	0.023	0.135
-608.201	155.334	0.161	-0.221
-607.186	-35.281	-0.244	0.133
-606.171	-89.220	-0.125	0.037
-605.157	27.533	0.269	-0.226
-604.142	-153.679	-0.319	0.022
-603.128	-104.603	-0.211	-0.049
-602.113	-110.442	0.335	0.069
-601.098	800.000	-0.049	-0.151
-600.084	67.858	-0.168	-0.172
-599.069	800.000	-0.036	-0.142
-598.055	148.319	0.214	-0.288
-597.040	-200.000	0.010	-0.185
-596.025	800.000	-0.114	0.450
-595.011	800.000	0.077	0.230
-593.996	50.401	-0.100	-0.094
-592.982	162.349	-0.055	0.077
-591.967	164.603	-0.117	-0.165
-590.952	-8.147	0.240	-0.161
-589.938	43.732	-0.184	-0.168
-588.923	-83.658	0.133	0.042
-587.909	-200.000	-0.015	-0.458
-586.894	-200.000	-0.080	-0.448
-585.879	94.061	-0.061	0.069
-584.865	-92.856	-0.083	-0.023
-583.850	-200.000	0.014	-0.123
-582.836	-200.000	0.009	-0.305
-581.821	-34.517	-0.267	-0.146
-580.806	-73.926	0.421	-0.152
-579.792	800.000	-0.034	0.103
-578.777	158.065	0.078	0.107
-577.763	195.953	-0.133	-0.202
-576.748	-16.052	-0.147	0.093
-575.733	-200.000	0.001	-0.103
-574.719	-122.689	-0.147	0.024
-573.704	133.253	0.054	0.070
-572.690	-200.000	-0.024	0.117
-571.675	278.637	-0.118	0.210
-570.661	295.043	0.135	-0.247
-569.646	-200.000	-0.005	0.123
-568.631	-61.905	-0.258	0.107
-567.617	-200.000	0.047	-0.238
-566.602	-184.549	-0.110	0.002
-565.588	-33.418	0.378	0.208
-564.573	122.472	0.081	-0.100
-563.558	147.391	0.206	-0.276
-562.544	-200.000	-0.023	-0.170
-561.529	255.765	0.146	0.249
-560.515	-164.706	0.278	0.012
-559.500	-200.000	-0.013	-0.215
-558.485	-4.838	0.019	-0.013
-557.471	59.965	-0.265	-0.261
-556.456	-130.696	-0.089	-0.012
-555.442	-200.000	0.006	0.049
-554.427	-200.000	0.017	0.095
-553.412	704.004	-0.148	0.388
-552.398	86.783	-0.180	0.197
-551.383	137.111	0.166	-0.216
-550.369	-28.682	0.186	-0.106
-549.354	-48.600	-0.026	-0.012
-548.339	210.751	-0.141	0.220
-547.325	-57.932	0.105	-0.046
-546.310	375.319	-0.087	-0.177
-545.296	-45.954	0.228	0.112
-544.281	-47.522	0.295	0.143
-543.266	61.367	0.070	-0.069
-542.252	68.022	0.057	-0.058
-541.237	-32.041	-0.325	-0.181
-540.223	-87.506	0.272	0.082
-539.208	-67.513	0.386	-0.151
-538.193	186.171	-0.229	0.338
-537.179	303.343	-0.124	-0.228
-536.164	2.833	-0.155	-0.112
-535.150	174.596	0.046	-0.066
-534.135	-95.447	0.214	-0.057
-533.121	318.416	-0.198	0.374
-532.106	-32.936	-0.150	0.083
-531.091	-200.000	-0.008	0.152
-530.077	-103.328	-0.298	-0.070
-529.062	-200.000	0.032	-0.160
-528.048	158.286	0.040	-0.056
-527.033	323.594	-0.177	0.335
-526.018	189.480	0.149	0.222
-525.004	212.460	-0.022	0.035
-523.989	-190.632	-0.363	-0.004
-522.975	-47.200	0.085	-0.041
-521.960	-200.000	0.047	-0.259
-520.945	-200.000	0.043	0.362
-519.931	121.789	0.323	0.401
-518.916	-62.221	0.356	0.148
-517.902	-200.000	0.038	0.168
-516.887	722.402	0.091	-0.242
-515.872	-40.917	-0.081	0.041
-514.858	-148.199	0.241	-0.020
-513.843	381.992	-0.056	-0.114
-512.829	12.780	0.096	0.074
-511.814	-8.805	0.056	0.037
-510.799	268.957	-0.094	-0.163
-509.785	-200.000	-0.027	-0.131
-508.770	-200.000	0.024	0.153
-507.756	-200.000	0.078	0.380
-506.741	-200.000	0.022	0.255
-505.726	107.527	-0.214	0.253
-504.712	416.041	0.189	0.399
-503.697	-200.000	-0.035	0.294
-502.683	332.195	0.085	0.164
-501.668	-127.387	0.170	-0.025
-500.653	-200.000	0.004	0.060
-499.639	549.189	-0.071	-0.169
-498.624	800.000	-0.036	0.127
-497.610	-132.946	-0.125	0.016
-496.595	99.714	0.142	-0.163
-495.581	61.541	0.306	0.303
-494.566	384.671	0.100	-0.205
-493.551	-155.541	0.258	-0.016
-492.537	-40.195	-0.092	0.047
-491.522	-48.301	0.248	0.119
-490.508	34.395	0.089	-0.077
-489.493	800.000	-0.045	0.173
-488.478	632.622	0.025	0.063
-487.464	-200.000	0.003	-0.022
-486.449	25.599	-0.278	-0.230
-485.435	-83.429	-0.103	0.033
-484.420	-200.000	-0.001	-0.233
-483.405	267.653	0.086	0.150
-482.391	-30.372	-0.257	-0.145
-481.376	56.624	0.269	-0.259
-480.362	800.000	0.101	0.397
-479.347	97.512	0.075	-0.086
-478.332	339.134	0.046	0.089
-477.318	-12.633	0.240	0.155
-476.303	155.137	0.063	-0.085
-475.289	250.755	-0.175	-0.295
-474.274	26.723	-0.093	0.077
-473.259	608.798	-0.151	0.373
-472.245	-200.000	0.046	0.277
-471.230	79.459	0.204	-0.217
-470.216	-23.019	-0.255	-0.153
-469.201	-200.000	-0.030	-0.169
-468.186	-79.272	0.372	0.125
-467.172	-200.000	-0.097	0.473
-466.157	-138.290	-0.125	0.014
-465.143	-48.115	0.153	0.073
-464.128	-200.000	0.012	0.133
-463.113	-200.000	0.025	-0.201
-462.099	-200.000	0.022	0.119
-461.084	-168.358	0.078	0.003
-460.070	150.115	0.072	0.097
-459.055	408.712	-0.158	-0.331
-458.040	291.397	0.137	0.247
-457.026	-200.000	0.043	-0.321
-456.011	-200.000	0.006	0.340
-454.997	-22.586	0.165	0.099
-453.982	-200.000	0.044	-0.309
-452.968	238.470	-0.128	-0.211
-451.953	231.453	-0.213	-0.346
-450.938	-28.395	-0.079	0.045
-449.924	75.998	-0.117	0.123
-448.909	70.494	-0.133	0.136
-447.895	-200.000	-0.032	-0.167
-446.880	-200.000	-0.050	-0.229
-445.865	394.871	0.118	0.244
-444.851	-191.068	-0.360	0.004
-443.836	708.944	-0.044	0.116
-442.822	-13.617	0.153	0.098
-441.807	-180.856	0.041	0.001
-440.792	-135.421	-0.277	-0.033
-439.778	-88.551	0.193	-0.057
-438.763	-62.004	0.161	-0.067
-437.749	-38.696	0.212	-0.111
-436.734	-117.004	-0.232	-0.042
-435.719	800.000	0.036	-0.114
-434.705	-66.543	0.304	-0.120
-433.690	-200.000	-0.052	-0.352
-432.676	494.995	0.123	0.280
-431.661	-98.118	-0.233	-0.059
-430.646	-63.176	0.250	-0.102
-429.632	19.409	0.202	-0.160
-428.617	30.702	-0.188	0.159
-427.603	-200.000	0.028	-0.232
-426.588	-40.348	-0.257	-0.132
-425.573	199.495	0.078	0.118
-424.559	5.230	0.101	0.073
-423.544	-16.521	-0.148	-0.093
-422.530	24.362	-0.109	-0.089
-421.515	-127.251	0.063	-0.009
-420.500	-200.000	0.031	-0.580
-419.486	402.953	-0.084	-0.176
-418.471	87.624	-0.145	-0.159
-417.457	111.542	0.069	0.082
-416.442	-108.122	-0.134	0.029
-415.428	519.613	0.160	0.371
-414.413	693.094	0.022	-0.057
-413.398	562.557	-0.042	-0.101
-412.384	-200.000	-0.044	-0.337
-411.369	-200.000	0.047	-0.210
-410.355	49.056	0.142	0.132
-409.340	-20.398	-0.224	-0.136
-408.325	-57.320	-0.138	0.060
-407.311	736.112	-0.033	0.089
-406.296	1.821	0.196	-0.140
-405.282	-61.099	-0.139	-0.058
-404.267	190.506	0.037	0.056
-403.252	800.000	-0.067	0.196
-402.238	101.062	-0.280	-0.322
-401.223	3.302	0.399	-0.287
-400.209	353.684	-0.130	0.255
-399.194	251.758	-0.188	0.317
-398.179	232.740	0.085	0.138
-397.165	206.067	-0.114	-0.176
-396.150	-111.143	-0.222	-0.045
-395.136	800.000	0.037	0.147
-394.121	262.651	0.062	0.106
-393.106	-18.792	-0.644	-0.396
-392.092	189.457	0.061	-0.091
-391.077	218.669	0.090	0.142
-390.063	48.309	-0.227	0.210
-389.048	800.000	0.051	0.155
-388.033	-2.827	0.284	-0.196
-387.019	-1.288	0.356	-0.248
-386.004	-2.045	-0.353	-0.245
-384.990	800.000	0.060	-0.166
-383.975	-91.719	0.297	0.083
-382.960	-200.000	-0.008	0.331
-381.946	-200.000	-0.019	0.097
-380.931	-23.447	0.131	0.078
-379.917	-147.980	-0.058	-0.005
-378.902	-33.097	-0.126	0.069
-377.888	143.412	0.186	-0.245
-376.873	-98.379	-0.363	-0.092
-375.858	204.782	0.204	0.313
-374.844	205.704	0.111	0.171
-373.829	-200.000	0.006	0.055
-372.815	532.810	-0.061	0.142
-371.800	91.582	-0.042	0.046
-370.785	524.167	0.134	0.311
-369.771	303.150	-0.216	0.396
-368.756	-65.390	-0.205	-0.081
-367.742	717.127	0.065	0.171
-366.727	78.415	-0.068	0.072
-365.712	152.381	-0.125	0.169
-364.698	-26.600	-0.260	0.150
-363.683	-32.624	-0.125	-0.069
-362.669	274.357	0.205	0.358
-361.654	21.922	-0.191	0.154
-360.639	410.075	0.045	-0.094
-359.625	800.000	-0.126	-0.400
-358.610	-200.000	0.057	-0.254
-357.596	3.290	0.300	-0.215
-356.581	117.261	-0.111	0.134
-355.566	20.082	0.123	0.098
-354.552	-115.653	-0.011	0.002
-353.537	-102.119	-0.238	-0.057
-352.523	-200.000	0.002	-0.026
-351.508	800.000	0.060	0.206
-350.493	-18.809	-0.336	-0.206
-349.479	-200.000	-0.026	0.404
-348.464	436.114	-0.111	-0.239
-347.450	535.216	0.098	-0.230
-346.435	70.974	-0.132	0.135
-345.420	-78.260	0.285	0.097
-344.406	-200.000	-0.050	-0.218
-343.391	133.870	0.221	-0.283
-342.377	285.760	-0.015	-0.027
-341.362	-33.518	0.055	0.030
-340.348	715.187	-0.093	-0.243
-339.333	256.814	-0.063	-0.106
-338.318	140.906	0.142	-0.186
-337.304	-72.331	0.287	0.105
-336.289	57.973	0.084	-0.081
-335.275	524.956	0.096	0.223
-334.260	-200.000	-0.038	0.294
-333.245	-171.941	0.374	0.012
-332.231	-200.000	-0.055	-0.315
-331.216	23.414	0.308	-0.250
-330.202	-200.000	0.018	-0.343
-329.187	800.000	-0.087	0.350
-328.172	-40.366	-0.206	-0.106
-327.158	-10.957	-0.298	0.194
-326.143	21.949	0.109	-0.087
-325.129	104.588	-0.311	-0.362
-324.114	-127.177	-0.041	0.006
-323.099	273.441	-0.161	0.281
-322.085	66.687	0.175	0.176
-321.070	40.316	0.203	0.180
-320.056	267.019	0.227	0.391
-319.041	800.000	0.040	-0.120
-318.026	-143.554	0.266	-0.025
-317.012	-200.000	0.012	0.092
-315.997	19.907	-0.134	0.106
-314.983	45.196	0.137	-0.125
-313.968	-79.539	-0.075	0.025
-312.953	16.010	-0.170	0.132
-311.939	-50.284	-0.157	-0.073
-310.924	-200.000	-0.009	-0.090
-309.910	75.825	0.134	0.140
-308.895	-78.939	0.313	-0.105
-307.880	-200.000	-0.009	0.111
-306.866	368.367	-0.050	-0.100
-305.851	-117.474	-0.257	0.046
-304.837	4.197	-0.144	-0.104
-303.822	-32.852	0.099	0.054
-302.807	786.276	-0.071	-0.191
-301.793	800.000	0.189	-0.518
-300.778	800.000	0.061	0.204
-299.764	105.206	-0.267	0.310
-298.749	-200.000	0.009	0.266
-297.735	-200.000	-0.007	0.299
-296.720	-200.000	0.031	0.150
-295.705	-33.524	0.060	0.032
-294.691	305.021	-0.224	-0.409
-293.676	114.926	0.039	-0.047
-292.662	388.445	0.025	-0.052
-291.647	38.571	0.350	-0.307
-290.632	38.367	-0.152	-0.134
-289.618	-159.529	0.132	0.007
-288.603	181.571	0.127	0.183
-287.589	-200.000	-0.012	0.114
-286.574	127.379	0.018	-0.023
-285.559	800.000	0.006	-0.021
-284.545	-4.278	0.313	-0.214
-283.530	97.401	0.068	0.077
-282.516	263.680	-0.045	-0.077
-281.501	520.497	0.244	0.564
-280.486	-74.335	0.289	-0.103
-279.472	-15.561	-0.160	-0.100
-278.457	-5.975	0.094	-0.063
-277.443	-200.000	-0.014	0.223
-276.428	17.320	-0.217	0.169
-275.413	259.416	0.175	0.297
-274.399	-53.396	0.235	-0.106
-273.384	80.092	-0.287	-0.304
-272.370	-35.382	0.237	-0.127
-271.355	-137.850	0.090	0.010
-270.340	-108.422	-0.161	-0.034
-269.326	-115.313	-0.098	-0.018
-268.311	34.417	0.185	0.159
-267.297	187.699	-0.149	0.218
-266.282	800.000	-0.019	-0.068
-265.267	67.012	0.104	-0.105
-264.253	220.316	0.127	-0.201
-263.238	-139.520	-0.424	-0.045
-262.224	800.000	0.077	-0.330
-261.209	129.102	0.116	0.146
-260.195	5.685	0.094	-0.068
-259.180	800.000	-0.061	-0.176
-258.165	-22.465	0.205	-0.122
-257.151	-124.878	0.401	0.061
-256.136	32.601	-0.035	0.029
-255.122	-82.174	0.081	0.026
-254.107	33.659	-0.036	-0.030
-253.092	-15.145	0.134	-0.084
-252.078	800.000	0.029	0.114
-251.063	-200.000	0.009	-0.077
-250.049	-35.350	-0.265	0.142
-249.034	326.217	-0.008	0.015
-248.019	-53.528	-0.209	0.094
-247.005	-119.869	0.284	0.048
-245.990	327.938	-0.111	0.210
-244.976	800.000	-0.038	-0.126
-243.961	-31.979	0.150	-0.083
-242.946	18.305	-0.295	-0.231
-241.932	-134.848	0.052	0.006
-240.917	-103.923	0.201	-0.046
-239.903	-200.000	0.038	-0.307
-238.888	-113.158	0.150	-0.029
-237.873	89.869	-0.108	-0.119
-236.859	151.606	-0.090	0.120
-235.844	54.628	0.330	-0.312
-234.830	-1.908	-0.051	-0.036
-233.815	196.205	-0.080	-0.119
-232.800	411.228	0.110	0.230
-231.786	55.224	0.093	-0.088
-230.771	-200.000	0.001	0.234
-229.757	-50.866	0.384	-0.177
-228.742	2.175	-0.058	0.041
-227.727	-54.796	-0.051	0.023
-226.713	-61.269	-0.304	0.126
-225.698	588.212	-0.109	0.264
-224.684	-6.427	-0.336	-0.225
-223.669	184.508	-0.041	0.059
-222.655	-23.728	-0.234	-0.138
-221.640	800.000	0.059	-0.172
-220.625	172.417	-0.134	-0.189
-219.611	690.759	-0.093	0.239
-218.596	227.928	-0.021	0.034
-217.582	-200.000	0.014	0.195
-216.567	-200.000	-0.014	-0.300
-215.552	-38.773	0.181	-0.094
-214.538	172.416	-0.112	-0.158
-213.523	-110.875	-0.101	-0.020
-212.509	-142.687	-0.092	-0.009
-211.494	-200.000	-0.005	0.026
-210.479	494.326	-0.023	-0.052
-209.465	-141.227	-0.367	-0.037
-208.450	-200.000	0.021	-0.277
-207.436	-86.922	0.040	-0.012
-206.421	-196.438	-0.387	-0.003
-205.406	20.420	-0.183	0.145
-204.392	105.459	-0.130	0.151
-203.377	-94.995	0.421	-0.112
-202.363	24.262	-0.312	0.253
-201.348	247.352	0.188	-0.312
-200.333	-100.361	0.169	-0.041
-199.319	101.905	-0.336	0.385
-198.304	258.319	-0.143	0.243
-197.290	800.000	-0.071	0.248
-196.275	530.511	0.217	0.502
-195.260	-30.103	-0.474	0.264
-194.246	173.935	-0.169	0.240
-193.231	86.918	-0.091	0.098
-192.217	333.244	0.109	0.206
-191.202	-3.794	-0.308	-0.210
-190.187	155.203	0.147	-0.198
-189.173	59.726	0.136	0.132
-188.158	20.013	0.102	0.080
-187.144	284.553	-0.104	-0.184
-186.129	-30.343	0.071	-0.039
-185.114	-35.851	0.181	0.096
-184.100	52.605	0.125	0.117
-183.085	-162.014	0.201	0.010
-182.071	49.968	-0.164	0.152
-181.056	-200.000	-0.031	0.291
-180.042	424.330	0.060	-0.126
-179.027	-29.395	-0.133	0.074
-178.012	-123.421	-0.099	0.016
-176.998	-94.584	-0.181	0.048
-175.983	-143.010	0.153	0.014
-174.969	-14.801	-0.200	-0.126
-173.954	45.654	0.316	0.286
-172.939	-130.703	-0.294	0.039
-171.925	-149.422	-0.152	0.012
-170.910	-162.131	-0.293	-0.014
-169.896	-13.135	0.341	-0.217
-168.881	-200.000	-0.036	-0.182
-167.866	24.432	0.257	-0.209
-166.852	107.266	0.119	-0.139
-165.837	-62.249	-0.114	0.046
-164.823	-28.743	0.152	0.086
-163.808	116.133	0.097	0.116
-162.793	276.746	-0.084	0.146
-161.779	-67.156	-0.427	-0.165
-160.764	-25.975	-0.210	0.121
-159.750	-200.000	0.021	0.221
-158.735	-148.104	0.302	-0.025
-157.720	27.289	0.129	-0.106
-156.706	-200.000	-0.008	0.393
-155.691	-150.608	0.334	0.025
-154.677	358.230	-0.148	-0.289
-153.662	800.000	0.042	0.177
-152.647	800.000	-0.112	0.311
-151.633	-4.978	-0.068	0.046
-150.618	-14.049	0.201	-0.127
-149.604	-143.007	0.372	-0.035
-148.589	-188.364	-0.157	-0.002
-147.574	-200.000	0.028	-0.126
-146.560	-200.000	-0.047	0.392
-145.545	-75.767	-0.270	0.094
-144.531	532.971	0.036	0.084
-143.516	800.000	-0.074	0.236
-142.502	147.951	0.160	0.211
-141.487	75.276	-0.159	-0.164
-140.472	-64.426	-0.513	-0.204
-139.458	66.127	0.149	-0.148
-138.443	50.113	0.165	-0.153
-137.429	2.669	-0.102	0.073
-136.414	-200.000	-0.029	0.130
-135.399	-70.450	0.281	0.104
-134.385	-117.422	0.218	-0.039
-133.370	438.605	-0.108	-0.230
-132.356	-38.219	0.188	-0.098
-131.341	-140.205	-0.312	0.032
-130.326	-200.000	0.083	-0.374
-129.312	22.121	-0.063	-0.050
-128.297	-200.000	-0.039	0.343
-127.283	-64.820	0.118	0.047
-126.268	-6.141	-0.015	-0.010
-125.253	96.584	0.185	-0.207
-124.239	-78.452	-0.061	-0.020
-123.224	-98.332	-0.463	0.116
-122.210	-125.571	0.238	-0.035
-121.195	-128.508	-0.070	-0.010
-120.180	203.755	0.144	0.218
-119.166	-60.602	-0.149	-0.062
-118.151	-111.344	0.169	-0.034
-117.137	-23.176	-0.232	-0.137
-116.122	388.323	-0.136	0.276
-115.107	-10.361	0.314	0.204
-114.093	-25.245	0.170	-0.098
-113.078	-112.087	-0.012	-0.002
-112.064	95.061	-0.160	-0.178
-111.049	-200.000	0.082	-0.464
-110.034	-49.407	-0.144	0.067
-109.020	-200.000	0.068	0.394
-108.005	-200.000	0.013	0.091
-106.991	569.035	0.041	0.098
-105.976	-200.000	0.013	0.327
-104.962	-188.593	-0.216	0.003
-103.947	-151.486	0.031	0.002
-102.932	-105.699	0.079	-0.017
-101.918	-34.278	0.318	-0.171
-100.903	800.000	0.059	0.191
-99.889	-77.685	0.169	-0.057
-98.874	-16.549	-0.253	-0.157
-97.859	487.770	0.098	0.218
-96.845	800.000	-0.020	0.079
-95.830	-159.780	-0.229	0.012
-94.816	-125.210	-0.080	-0.012
-93.801	584.952	0.135	0.324
-92.786	-70.551	-0.288	0.107
-91.772	113.427	0.240	0.285
-90.757	-102.609	-0.213	-0.050
-89.743	-177.163	0.140	-0.003
-88.728	-113.214	0.018	0.004
-87.713	-10.530	0.474	0.306
-86.699	43.569	-0.218	-0.195
-85.684	-200.000	0.007	-0.511
-84.670	-200.000	0.064	0.301
-83.655	-96.670	0.102	-0.026
-82.640	79.710	-0.198	0.207
-81.626	160.077	0.224	-0.305
-80.611	108.542	-0.152	0.177
-79.597	-9.965	0.218	-0.142
-78.582	20.005	0.256	-0.202
-77.567	342.358	0.042	-0.081
-76.553	-79.607	-0.225	-0.074
-75.538	414.015	0.125	0.261
-74.524	-41.238	-0.070	-0.035
-73.509	203.746	0.021	0.031
-72.494	525.797	0.118	0.271
-71.480	82.093	0.215	0.228
-70.465	122.920	0.067	-0.081
-69.451	-113.990	0.070	-0.013
-68.436	98.193	0.136	0.153
-67.422	7.606	0.238	-0.174
-66.407	307.117	-0.017	-0.030
-65.392	514.164	-0.195	-0.445
-64.378	-92.244	0.291	-0.080
-63.363	-133.945	0.265	-0.032
-62.349	-200.000	0.053	0.439
-61.334	53.601	-1.204	-1.128
-60.319	55.007	0.745	0.703
-59.305	800.000	-0.282	-0.992
-58.290	145.830	0.972	1.272
-57.276	593.566	0.594	1.434
-56.261	-200.000	125.823	659.403
-55.246	405.133	1585.747	3262.663
-54.232	140.172	2744.696	3532.965
-53.217	94.909	2166.439	2405.770
-52.203	34.813	1595.964	1362.248
-51.188	26.436	1339.589	1092.998
-50.173	23.999	1302.030	1047.980
-49.159	53.171	1371.875	1281.925
-48.144	49.346	1383.143	1269.302
-47.130	26.603	1330.863	1086.709
-46.115	23.440	1311.636	1052.227
-45.100	23.239	1306.387	1046.783
-44.086	23.146	1303.956	1044.245
-43.071	23.061	1302.347	1042.412
-42.057	23.158	1299.431	1040.612
-41.042	23.183	1297.943	1039.525
-40.027	23.137	1296.899	1038.374
-39.013	23.179	1294.473	1036.636
-37.998	23.104	1292.978	1034.959
-36.984	23.318	1290.676	1034.326
-35.969	23.272	1289.373	1032.977
-34.954	23.284	1287.620	1031.596
-33.940	23.311	1286.306	1030.664
-32.925	23.286	1285.456	1029.796
-31.911	23.322	1283.465	1028.365
-30.896	23.299	1282.889	1027.733
-29.881	23.321	1281.483	1026.692
-28.867	23.329	1280.107	1025.595
-27.852	23.424	1278.324	1024.676
-26.838	23.380	1276.737	1023.106
-25.823	23.407	1275.640	1022.344
-24.809	23.307	1274.542	1020.850
-23.794	23.329	1272.416	1019.230
-22.779	23.349	1271.540	1018.604
-21.765	23.343	1270.410	1017.626
-20.750	23.283	1269.413	1016.439
-19.736	23.156	1267.829	1014.405
-18.721	23.219	1266.538	1013.693
-17.706	23.190	1265.759	1012.860
-16.692	23.245	1264.328	1011.989
-15.677	23.203	1263.093	1010.722
-14.663	23.136	1261.775	1009.245
-13.648	23.304	1260.831	1009.410
-12.633	23.196	1260.011	1008.098
-11.619	23.276	1259.283	1007.930
-10.604	23.167	1258.737	1006.832
-9.590	23.125	1257.759	1005.771
-8.575	23.191	1256.353	1004.980
-7.560	23.168	1256.102	1004.609
-6.546	23.158	1254.913	1003.565
-5.531	23.144	1253.987	1002.702
-4.517	23.159	1253.426	1002.302
-3.502	23.134	1252.770	1001.594
-2.487	23.221	1251.788	1001.263
-1.473	23.120	1247.323	997.078
-0.458	21.573	1232.157	976.298
0.556	16.481	1216.959	939.831
1.571	13.047	1224.725	926.498
2.586	12.553	1240.315	935.401
3.600	12.669	1228.516	927.075
4.615	9.213	1156.807	854.531
5.629	3.056	1086.125	771.426
6.644	0.457	1068.864	746.255
7.659	0.066	1067.520	743.320
8.673	0.148	1066.267	742.783
9.688	0.100	1065.116	741.680
10.702	0.212	1063.015	740.705
11.717	4.001	1067.023	762.112
12.731	10.981	1076.104	803.085
13.746	15.583	1081.715	829.984
14.761	16.621	1083.179	836.169
15.775	15.976	1081.269	831.439
16.790	14.952	1079.096	824.649
17.804	14.437	1077.646	820.930
18.819	13.847	1077.335	817.713
19.834	13.725	1075.933	815.981
20.848	13.544	1075.169	814.435
21.863	13.232	1074.304	812.178
22.877	13.269	1073.180	811.440
23.892	13.081	1072.854	810.197
24.907	13.214	1071.763	809.952
25.921	13.263	1071.251	809.735
26.936	13.215	1070.253	808.675
27.950	13.201	1069.703	808.115
28.965	13.336	1067.833	807.291
29.980	13.354	1066.913	806.612
30.994	13.367	1065.977	805.898
32.009	13.478	1064.658	805.370
33.023	13.484	1063.521	804.467
34.038	13.340	1062.666	803.052
35.053	13.209	1062.284	802.053
36.067	13.377	1061.064	801.875
37.082	13.316	1060.433	801.035
38.096	13.257	1059.734	800.149
39.111	13.274	1058.596	799.301
40.126	13.072	1057.660	797.550
41.140	13.097	1056.253	796.534
42.155	13.126	1055.255	795.851
43.169	13.109	1054.459	795.102
44.184	13.036	1053.065	793.627
45.199	13.131	1052.074	793.268
46.213	13.064	1050.935	792.018
47.228	13.215	1049.989	791.961
48.242	13.122	1048.942	790.654
49.257	13.271	1047.677	790.343
50.271	13.112	1047.071	789.056
51.286	13.268	1045.700	788.695
52.301	13.081	1045.556	787.625
53.315	13.236	1044.359	787.394
54.330	13.246	1042.990	786.337
55.344	13.194	1042.385	785.564
56.359	13.342	1041.197	785.305
57.374	13.097	1040.641	783.654
58.388	13.110	1039.366	782.684
59.403	13.014	1039.396	782.183
60.417	13.055	1038.560	781.677
61.432	13.045	1037.379	780.673
62.447	12.962	1037.105	780.007
63.461	13.028	1036.082	779.479
64.476	13.006	1034.839	778.371
65.490	12.999	1034.358	777.906
66.505	13.100	1033.456	777.635
67.520	13.058	1033.005	777.032
68.534	13.151	1032.483	777.009
69.549	13.085	1031.279	775.724
70.563	13.170	1030.271	775.294
71.578	12.978	1029.912	774.057
72.593	13.080	1028.864	773.676
73.607	12.991	1028.793	773.136
74.622	12.963	1027.972	772.321
75.636	13.039	1027.009	771.884
76.651	12.970	1026.142	770.842
77.666	13.033	1025.915	770.898
78.680	12.930	1025.408	769.970
79.695	13.019	1024.296	769.481
80.709	13.015	1024.026	769.190
81.724	13.151	1023.070	769.038
82.739	13.155	1022.400	768.482
83.753	13.118	1021.944	767.904
84.768	13.147	1020.992	767.253
85.782	13.374	1019.717	767.279
86.797	13.290	1018.717	766.071
87.812	13.358	1017.970	765.757
88.826	13.126	1016.955	763.852
89.841	13.254	1016.027	763.679
90.855	13.308	1015.055	763.127
91.870	13.180	1014.695	762.198
92.884	13.429	1013.379	762.291
93.899	13.261	1013.210	761.324
94.914	13.320	1011.983	760.603
95.928	13.391	1011.242	760.309
96.943	13.361	1010.448	759.507
97.957	13.203	1009.897	758.299
98.972	13.349	1008.698	758.000
99.987	13.300	1007.687	756.949
101.001	13.286	1006.831	756.175
102.016	13.256	1006.057	755.392
103.030	13.372	1004.752	754.871
104.045	13.323	1004.780	754.605
105.060	13.383	1003.826	754.093
106.074	13.211	1002.769	752.449
107.089	13.226	1001.534	751.524
108.103	13.074	1001.068	750.418
109.118	13.230	999.550	749.922
110.133	13.393	998.405	749.733
111.147	13.177	997.975	748.367
112.162	13.180	997.452	747.921
113.176	13.241	996.661	747.541
114.191	13.281	995.806	747.012
115.206	13.195	995.138	746.055
116.220	13.113	994.665	745.267
117.235	13.360	992.816	744.927
118.249	13.258	992.297	744.011
119.264	13.209	991.741	743.311
120.279	13.284	990.612	742.733
121.293	13.075	990.571	741.701
122.308	13.154	989.508	741.191
123.322	13.179	988.503	740.487
124.337	13.220	986.943	739.435
125.352	13.236	986.146	738.846
126.366	13.262	984.810	737.894
127.381	13.214	983.945	736.965
128.395	13.231	983.099	736.344
129.410	13.212	982.400	735.671
130.424	13.265	981.511	735.176
131.439	13.262	980.362	734.238
132.454	13.269	979.620	733.646
133.468	13.264	979.230	733.267
134.483	13.181	978.001	731.914
135.497	13.230	977.363	731.588
136.512	13.153	976.551	730.577
137.527	13.275	975.642	730.369
138.541	13.243	975.032	729.707
139.556	13.254	974.116	729.006
140.570	13.250	973.274	728.292
141.585	13.321	972.859	728.230
142.600	13.461	971.386	727.679
143.614	13.451	970.613	726.993
144.629	13.502	970.273	726.900
145.643	13.444	968.927	725.572
146.658	13.280	968.209	724.251
147.673	13.392	967.259	723.965
148.687	13.358	966.356	723.075
149.702	13.354	965.402	722.283
150.716	13.409	964.658	721.900
151.731	13.402	964.209	721.473
152.746	13.433	963.360	720.910
153.760	13.528	962.435	720.567
154.775	13.433	962.336	720.014
155.789	13.460	961.422	719.383
156.804	13.438	960.702	718.684
157.819	13.588	960.087	718.814
158.833	13.552	959.638	718.255
159.848	13.814	958.346	718.358
160.862	13.559	957.832	716.810
161.877	13.530	956.495	715.620
162.892	13.441	955.984	714.790
163.906	13.488	955.316	714.427
164.921	13.503	954.353	713.711
165.935	13.577	953.056	712.995
166.950	13.433	952.683	712.034
167.964	13.633	951.467	711.919
168.979	13.643	950.325	711.047
169.994	13.614	949.510	710.250
171.008	13.665	948.687	709.792
172.023	13.747	948.044	709.598
173.037	13.800	947.469	709.329
174.052	13.653	946.963	708.260
175.067	13.596	946.136	707.336
176.081	13.615	946.033	707.280
177.096	13.650	945.338	706.843
178.110	13.720	944.330	706.325
179.125	13.715	943.801	705.849
180.140	13.766	943.202	705.553
181.154	13.772	942.751	705.178
182.169	13.832	942.405	705.111
183.183	13.870	941.388	704.452
184.198	13.965	940.393	704.046
185.213	13.770	940.200	703.016
186.227	13.768	939.539	702.447
187.242	13.844	939.127	702.401
188.256	13.947	938.113	702.013
189.271	13.894	936.943	700.853
190.286	13.930	936.423	700.556
191.300	13.827	935.276	699.200
192.315	13.784	935.332	698.998
193.329	13.748	934.629	698.261
194.344	13.722	934.050	697.655
195.359	13.890	933.030	697.539
196.373	13.832	932.581	696.899
197.388	13.967	932.239	697.147
198.402	14.047	931.622	696.958
199.417	14.111	930.974	696.681
200.432	14.029	930.561	695.966
201.446	14.031	929.802	695.349
202.461	14.081	929.552	695.307
203.475	14.135	928.924	695.002
204.490	13.991	928.484	694.010
205.504	13.999	927.513	693.257
206.519	14.148	926.620	693.146
207.534	14.153	925.824	692.511
208.548	14.071	925.801	692.091
209.563	14.043	924.584	691.006
210.577	14.253	923.768	691.207
211.592	14.323	923.000	690.862
212.607	14.242	922.489	690.082
213.621	14.249	922.079	689.744
214.636	14.240	921.256	689.030
215.650	14.182	920.511	688.170
216.665	14.323	919.465	687.910
217.680	14.292	918.886	687.289
218.694	14.381	918.321	687.173
219.709	14.291	917.826	686.369
220.723	14.280	917.025	685.663
221.738	14.306	916.490	685.309
222.753	14.383	915.448	684.787
223.767	14.397	915.167	684.575
224.782	14.521	914.424	684.465
225.796	14.419	913.867	683.571
226.811	14.466	912.893	682.975
227.826	14.558	912.271	682.825
228.840	14.414	911.721	681.765
229.855	14.391	911.356	681.336
230.869	14.434	910.204	680.589
231.884	14.448	910.007	680.441
232.899	14.498	908.686	679.595
233.913	14.496	908.275	679.222
234.928	14.436	907.748	678.522
235.942	14.336	907.074	677.552
236.957	14.348	907.042	677.515
237.972	14.364	905.950	676.705
238.986	14.517	904.987	676.548
240.001	14.469	904.674	676.059
241.015	14.599	903.499	675.648
242.030	14.452	903.428	674.938
243.045	14.519	902.906	674.760
244.059	14.655	902.038	674.600
245.074	14.621	901.382	673.915
246.088	14.550	900.669	673.036
247.103	14.650	900.040	672.908
248.117	14.713	899.694	672.845
249.132	14.616	899.218	672.037
250.147	14.747	898.484	671.957
251.161	14.919	897.683	671.991
252.176	14.935	896.679	671.243
253.190	14.880	896.519	670.842
254.205	14.956	895.767	670.525
255.220	15.078	895.008	670.387
256.234	14.921	894.475	669.300
257.249	14.971	893.740	668.890
258.263	14.991	892.961	668.327
259.278	14.930	891.932	667.257
260.293	14.935	891.739	667.072
261.307	15.166	891.237	667.560
262.322	15.155	890.313	666.766
263.336	15.155	889.323	665.963
264.351	15.219	888.518	665.556
265.366	15.191	888.380	665.283
266.380	14.954	888.152	664.112
267.395	15.042	887.316	663.775
268.409	15.103	886.324	663.219
269.424	15.211	885.175	662.727
270.439	15.216	884.777	662.388
271.453	15.213	884.079	661.797
272.468	15.022	883.957	660.891
273.482	15.297	882.960	661.172
274.497	15.180	882.770	660.511
275.512	15.216	881.524	659.663
276.526	15.179	881.449	659.401
277.541	15.277	880.693	659.164
278.555	15.221	880.323	658.607
279.570	15.382	879.351	658.453
280.585	15.399	878.564	657.873
281.599	15.336	877.728	656.944
282.614	15.261	877.255	656.236
283.628	15.355	876.877	656.265
284.643	15.303	875.942	655.304
285.657	15.459	875.255	655.340
286.672	15.486	874.629	654.920
287.687	15.398	874.148	654.156
288.701	15.477	873.953	654.264
289.716	15.520	873.109	653.738
290.730	15.351	872.473	652.547
291.745	15.424	872.023	652.436
292.760	15.399	871.624	651.984
293.774	15.564	870.620	651.815
294.789	15.651	869.950	651.595
295.803	15.522	869.301	650.549
296.818	15.506	868.929	650.154
297.833	15.684	867.893	650.008
298.847	15.657	867.570	649.605
299.862	15.573	866.871	648.697
300.876	15.714	866.211	648.691
301.891	15.771	865.681	648.458
302.906	15.694	865.234	647.768
303.920	15.636	864.700	647.086
304.935	15.704	863.942	646.726
305.949	15.718	863.486	646.382
306.964	15.659	863.013	645.742
307.979	15.761	862.340	645.573
308.993	15.976	861.460	645.680
310.008	15.970	860.723	645.049
311.022	15.852	860.469	644.348
312.037	15.753	860.021	643.577
313.052	15.902	859.108	643.408
314.066	15.823	859.077	643.025
315.081	15.745	858.054	641.907
316.095	15.812	857.372	641.594
317.110	15.903	856.751	641.418
318.125	15.818	856.309	640.707
319.139	15.997	856.159	641.220
320.154	15.847	855.573	640.153
321.168	16.000	854.674	640.007
322.183	15.977	854.133	639.455
323.197	15.847	853.852	638.696
324.212	16.018	853.423	638.967
325.227	15.902	852.870	638.056
326.241	15.912	852.308	637.620
327.256	16.032	851.566	637.459
328.270	15.955	851.179	636.823
329.285	15.921	850.630	636.229
330.300	15.997	849.896	635.908
331.314	16.048	849.649	635.861
332.329	15.909	849.196	634.942
333.343	16.065	848.589	635.021
334.358	15.896	848.198	634.035
335.373	16.067	847.966	634.449
336.387	16.103	847.645	634.287
337.402	16.183	847.288	634.264
338.416	16.132	846.790	633.645
339.431	16.002	846.314	632.746
340.446	16.200	845.657	632.940
341.460	16.118	845.408	632.391
342.475	16.299	844.813	632.566
343.489	16.321	844.671	632.486
344.504	16.319	844.192	632.064
345.519	16.306	843.725	631.608
346.533	16.423	842.796	631.297
347.548	16.396	842.442	630.875
348.562	16.341	842.218	630.446
349.577	16.270	841.808	629.817
350.592	16.229	840.965	628.978
351.606	16.407	840.088	628.930
352.621	16.441	839.363	628.459
353.635	16.343	839.120	627.855
354.650	16.205	838.484	626.812
355.665	16.421	837.549	626.859
356.679	16.454	837.034	626.539
357.694	16.486	836.238	626.007
358.708	16.619	835.709	626.047
359.723	16.551	834.809	625.069
360.738	16.475	834.655	624.615
361.752	16.621	833.701	624.385
362.767	16.539	832.954	623.469
363.781	16.567	832.586	623.240
364.796	16.542	832.615	623.114
365.810	16.713	832.090	623.297
366.825	16.953	831.407	623.613
367.840	16.678	831.054	622.284
368.854	16.632	830.417	621.581
369.869	16.674	830.296	621.590
370.883	16.722	829.828	621.359
371.898	16.682	829.758	621.105
372.913	16.769	829.208	620.960
373.927	16.918	828.023	620.563
374.942	16.978	827.570	620.386
375.956	17.088	827.244	620.491
376.971	16.822	827.165	619.403
377.986	17.086	826.332	619.687
379.000	16.821	826.217	618.580
380.015	16.904	825.666	618.416
381.029	17.143	824.867	618.632
382.044	16.900	824.317	617.281
383.059	16.975	823.895	617.182
384.073	17.023	823.263	616.829
385.088	16.936	822.983	616.248
386.102	16.879	822.365	615.525
387.117	17.072	821.620	615.615
388.132	16.940	820.945	614.573
389.146	16.873	821.072	614.373
390.161	17.022	820.309	614.286
391.175	17.254	819.533	614.490
392.190	17.098	819.122	613.565
393.205	17.156	818.501	613.254
394.219	16.938	818.814	612.647
395.234	17.162	817.938	612.745
396.248	17.016	817.792	612.056
397.263	16.943	817.473	611.499
398.278	17.045	817.097	611.531
399.292	17.035	816.654	611.110
400.307	17.212	815.732	611.004
401.321	17.242	815.438	610.834
402.336	17.095	815.120	610.017
403.350	17.271	814.444	610.088
404.365	17.377	813.534	609.732
405.380	17.297	813.450	609.326
406.394	17.273	812.838	608.730
407.409	17.338	812.740	608.834
408.423	17.250	812.251	608.099
409.438	17.345	811.951	608.162
410.453	17.352	811.758	607.986
411.467	17.395	810.954	607.485
412.482	17.533	810.446	607.544
413.496	17.544	809.974	607.173
414.511	17.423	809.714	606.495
415.526	17.584	809.143	606.589
416.540	17.418	809.005	605.839
417.555	17.522	808.652	605.892
418.569	17.452	808.303	605.326
419.584	17.541	807.497	604.987
420.599	17.509	807.015	604.459
421.613	113.338	1299.282	1485.891
422.628	97.867	1370.934	1485.971
