DTS Sentinel unit serial number:	SN413079Multiplexer serial number:	ORYXHardware model number:	OX4-SRSoftware version number:	ORYX F/W v4.00 Oryx Data Collector v3.7.2.0data status	okinstallation	princeton_trtdifferential loss correction	single-endedforward channel	channel 1reverse channel	N/Adate	2019/09/16time	04:06:35forward acquisition time	60.00reverse acquisition time	0.00gamma	496.2192k internal	0.2331k external	0.2331temperature offset calibration	0.9979default loss term (dB/km)	0.3790temperature slope calibration	1.0000multiplexer offset coefficient	1.0000multiplexer slope coefficient	1.0000fibre end	0.00T internal ref (°C)	27.44T ext. ref 1 (°C)	10.74T ext. ref 2 (°C)	21.42length (m)	temperature (°C)	Stokes	anti-Stokes-747.200	-75.645	0.401	0.143
-746.185	-73.022	0.027	0.010
-745.171	120.594	0.156	0.195
-744.156	-163.472	-0.166	0.008
-743.142	65.696	-0.076	0.077
-742.127	161.775	-0.115	0.162
-741.112	23.743	-0.074	-0.061
-740.098	19.857	-0.083	0.067
-739.083	172.856	0.062	0.089
-738.069	-200.000	0.006	0.229
-737.054	-178.029	0.487	-0.012
-736.039	-200.000	-0.016	0.232
-735.025	191.676	0.156	0.237
-734.010	47.700	-0.227	-0.213
-732.996	36.058	0.075	-0.066
-731.981	800.000	-0.140	0.406
-730.966	800.000	-0.055	0.177
-729.952	197.495	0.325	-0.500
-728.937	-150.346	0.194	-0.015
-727.923	-0.948	-0.135	0.096
-726.908	800.000	0.055	-0.218
-725.894	-47.745	-0.185	-0.090
-724.879	-85.206	0.203	-0.064
-723.864	479.926	-0.182	-0.416
-722.850	-173.985	0.465	0.014
-721.835	-200.000	0.022	-0.119
-720.821	-8.526	-0.264	-0.178
-719.806	800.000	-0.034	-0.138
-718.791	292.860	-0.036	-0.066
-717.777	-200.000	-0.027	-0.203
-716.762	300.120	-0.181	-0.336
-715.748	-118.744	-0.373	-0.066
-714.733	-155.260	-0.405	-0.026
-713.718	-200.000	-0.019	-0.335
-712.704	142.425	0.014	-0.018
-711.689	419.685	0.110	0.236
-710.675	-111.729	-0.327	0.067
-709.660	800.000	-0.014	-0.044
-708.645	126.142	0.109	0.138
-707.631	46.898	-0.247	-0.231
-706.616	389.834	0.131	0.274
-705.602	680.539	0.074	0.194
-704.587	-200.000	-0.014	0.163
-703.572	-129.769	-0.242	0.033
-702.558	-60.092	0.165	-0.071
-701.543	-86.196	-0.211	0.065
-700.529	630.881	0.054	-0.137
-699.514	-41.850	-0.235	-0.121
-698.499	-61.979	0.266	-0.112
-697.485	57.109	-0.078	-0.077
-696.470	27.107	0.119	-0.100
-695.456	76.191	-0.120	-0.128
-694.441	-66.622	-0.123	-0.049
-693.426	-187.143	-0.200	0.003
-692.412	239.071	-0.189	0.316
-691.397	-200.000	0.032	0.205
-690.383	282.174	0.170	-0.307
-689.368	-146.436	-0.160	-0.014
-688.354	-78.843	0.277	0.095
-687.339	-127.123	-0.212	-0.031
-686.324	233.194	-0.189	-0.312
-685.310	-163.429	-0.141	-0.007
-684.295	485.061	0.067	-0.154
-683.281	-200.000	0.006	0.081
-682.266	800.000	0.051	-0.197
-681.251	38.699	-0.175	0.157
-680.237	48.064	-0.142	0.134
-679.222	-200.000	0.071	0.419
-678.208	-74.894	-0.183	0.066
-677.193	-41.031	-0.199	-0.103
-676.178	-200.000	0.015	-0.149
-675.164	80.735	-0.225	-0.244
-674.149	-5.138	0.093	-0.065
-673.135	-200.000	0.013	0.321
-672.120	-154.923	-0.059	-0.004
-671.105	-54.424	-0.109	-0.050
-670.091	-56.353	-0.265	-0.118
-669.076	402.523	-0.177	0.373
-668.062	-81.352	-0.356	0.118
-667.047	-200.000	-0.019	-0.332
-666.032	668.793	-0.175	-0.454
-665.018	800.000	0.061	-0.201
-664.003	-117.721	-0.219	-0.040
-662.989	-200.000	0.005	0.139
-661.974	46.503	-0.193	0.180
-660.959	-200.000	-0.012	-0.126
-659.945	254.065	-0.008	-0.014
-658.930	172.599	0.195	-0.281
-657.916	216.311	0.047	-0.074
-656.901	46.208	0.118	-0.109
-655.886	-200.000	0.018	-0.154
-654.872	-47.140	0.221	0.108
-653.857	-69.322	-0.391	-0.151
-652.843	-93.911	0.282	-0.078
-651.828	58.628	0.133	-0.131
-650.814	800.000	-0.025	-0.074
-649.799	-103.116	-0.074	-0.018
-648.784	800.000	-0.047	-0.146
-647.770	-82.165	0.299	0.098
-646.755	-82.701	0.112	0.036
-645.741	-76.361	0.376	-0.133
-644.726	-46.121	-0.248	-0.123
-643.711	-200.000	-0.058	0.318
-642.697	800.000	-0.068	0.219
-641.682	-200.000	-0.000	-0.410
-640.668	800.000	0.041	-0.158
-639.653	-172.652	0.484	0.015
-638.638	-133.939	-0.328	0.041
-637.624	-143.379	-0.438	0.042
-636.609	156.128	0.067	-0.092
-635.595	411.174	-0.099	0.211
-634.580	113.168	0.143	0.174
-633.565	328.063	0.106	-0.205
-632.551	-57.531	0.406	0.178
-631.536	1.875	-0.123	0.089
-630.522	63.569	-0.221	0.223
-629.507	168.432	0.161	-0.230
-628.492	-200.000	-0.000	0.152
-627.478	-127.281	0.142	-0.021
-626.463	-73.756	-0.228	-0.083
-625.449	269.720	-0.314	-0.553
-624.434	-200.000	-0.008	0.130
-623.419	90.172	-0.171	0.191
-622.405	-64.955	-0.333	-0.135
-621.390	800.000	0.008	0.032
-620.376	-18.353	-0.061	0.038
-619.361	283.359	0.169	-0.304
-618.346	-200.000	-0.015	0.118
-617.332	-113.925	-0.205	0.040
-616.317	-200.000	0.009	-0.188
-615.303	481.310	-0.047	0.107
-614.288	-149.055	-0.117	-0.009
-613.273	327.131	0.083	-0.159
-612.259	-199.728	-0.277	0.001
-611.244	-149.450	-0.089	0.007
-610.230	-85.017	-0.058	0.018
-609.215	800.000	-0.038	0.144
-608.201	133.040	0.073	-0.095
-607.186	-79.292	-0.069	0.024
-606.171	-90.001	-0.340	0.099
-605.157	108.079	0.182	0.217
-604.142	-75.153	-0.106	0.038
-603.128	168.393	-0.115	0.164
-602.113	-103.722	-0.093	0.022
-601.098	199.309	0.076	0.117
-600.084	42.988	-0.123	-0.113
-599.069	-182.246	-0.116	0.002
-598.055	207.688	-0.136	-0.212
-597.040	-24.516	0.273	-0.162
-596.025	43.498	-0.205	0.187
-595.011	-56.285	0.430	0.191
-593.996	800.000	-0.036	-0.142
-592.982	15.520	-0.397	0.312
-591.967	-24.575	-0.060	0.036
-590.952	-15.073	-0.217	-0.139
-589.938	504.410	0.067	0.154
-588.923	800.000	-0.056	0.213
-587.909	556.223	-0.076	-0.184
-586.894	148.535	-0.087	-0.118
-585.879	-200.000	-0.024	-0.164
-584.865	-85.785	-0.133	-0.041
-583.850	-118.575	-0.215	-0.038
-582.836	-160.309	0.276	-0.015
-581.821	-98.374	-0.167	0.043
-580.806	-1.548	-0.210	0.148
-579.792	220.143	-0.092	0.147
-578.777	118.543	-0.066	-0.082
-577.763	-102.812	0.456	-0.108
-576.748	-200.000	0.019	0.108
-575.733	-146.878	-0.167	-0.014
-574.719	181.820	-0.117	-0.172
-573.704	-60.276	-0.332	0.141
-572.690	55.292	-0.166	0.160
-571.675	-200.000	-0.018	0.103
-570.661	-116.266	-0.227	0.042
-569.646	-107.165	0.095	-0.021
-568.631	580.619	-0.077	-0.189
-567.617	-155.771	0.097	0.006
-566.602	-97.054	-0.350	0.092
-565.588	-37.159	0.056	0.030
-564.573	-117.149	0.534	0.097
-563.558	-200.000	0.043	0.194
-562.544	13.264	-0.183	-0.142
-561.529	44.458	-0.306	0.281
-560.515	171.839	0.205	-0.294
-559.500	-134.450	0.267	0.033
-558.485	-33.425	-0.284	0.157
-557.471	800.000	0.035	0.103
-556.456	800.000	-0.057	-0.244
-555.442	-59.561	-0.260	-0.111
-554.427	-103.493	-0.173	-0.041
-553.412	-109.796	0.259	-0.054
-552.398	-146.121	0.062	0.005
-551.383	112.437	-0.417	-0.503
-550.369	-130.426	-0.566	0.077
-549.354	1.906	-0.134	-0.096
-548.339	-200.000	-0.003	0.559
-547.325	485.170	-0.157	0.356
-546.310	-200.000	0.023	-0.377
-545.296	-55.530	0.273	0.122
-544.281	475.069	-0.101	-0.228
-543.266	344.543	0.072	-0.142
-542.252	-66.244	-0.164	-0.065
-541.237	-200.000	-0.083	0.410
-540.223	-120.404	-0.126	0.021
-539.208	800.000	-0.093	0.362
-538.193	800.000	-0.067	-0.278
-537.179	800.000	-0.057	0.227
-536.164	-125.688	0.096	-0.014
-535.150	23.339	-0.199	-0.163
-534.135	-173.511	0.132	0.004
-533.121	-11.891	0.081	-0.053
-532.106	-70.319	0.108	-0.041
-531.091	462.417	-0.061	-0.135
-530.077	-67.675	0.129	0.050
-529.062	-200.000	0.008	-0.248
-528.048	800.000	-0.075	0.263
-527.033	-122.285	0.410	0.067
-526.018	232.034	0.202	0.331
-525.004	24.480	-0.180	0.148
-523.989	-89.130	-0.136	-0.040
-522.975	98.107	-0.119	0.137
-521.960	-117.751	-0.169	0.030
-520.945	-153.276	-0.037	-0.003
-519.931	140.854	0.170	-0.223
-518.916	-69.147	0.518	0.199
-517.902	249.660	0.135	-0.229
-516.887	-149.627	-0.099	-0.008
-515.872	-34.896	-0.206	0.112
-514.858	53.528	0.227	-0.217
-513.843	-180.340	-0.238	-0.005
-512.829	-162.242	0.103	0.005
-511.814	255.676	0.192	0.328
-510.799	376.547	0.101	0.205
-509.785	-200.000	-0.017	-0.166
-508.770	-200.000	-0.017	-0.217
-507.756	530.090	0.114	0.269
-506.741	-51.150	-0.044	0.020
-505.726	703.514	-0.180	-0.472
-504.712	-200.000	0.010	0.173
-503.697	-55.582	0.209	0.093
-502.683	262.077	-0.165	-0.285
-501.668	238.492	0.059	-0.098
-500.653	-109.452	-0.098	0.021
-499.639	-73.468	-0.049	0.018
-498.624	-137.235	0.339	-0.038
-497.610	401.597	0.198	0.415
-496.595	-177.962	0.415	-0.010
-495.581	-95.872	-0.072	-0.019
-494.566	315.325	0.098	0.184
-493.551	87.570	0.216	-0.238
-492.537	800.000	-0.018	-0.052
-491.522	51.297	0.394	0.372
-490.508	40.731	0.113	-0.101
-489.493	33.212	0.028	-0.024
-488.478	-200.000	-0.010	0.174
-487.464	-95.524	-0.285	-0.076
-486.449	-158.473	0.215	0.012
-485.435	-80.048	-0.266	-0.089
-484.420	-6.437	0.056	0.038
-483.405	-200.000	-0.036	0.254
-482.391	-44.928	0.207	-0.103
-481.376	63.501	0.200	-0.200
-480.362	-200.000	-0.000	-0.457
-479.347	-192.374	-0.323	-0.003
-478.332	-62.907	0.220	-0.091
-477.318	104.364	0.224	-0.262
-476.303	155.637	-0.312	0.428
-475.289	-61.790	-0.198	0.083
-474.274	800.000	-0.040	0.112
-473.259	-107.187	-0.211	-0.046
-472.245	800.000	0.066	0.242
-471.230	-166.705	-0.355	0.015
-470.216	-47.001	-0.103	0.050
-469.201	800.000	-0.042	-0.174
-468.186	800.000	0.014	0.047
-467.172	-109.899	0.193	-0.040
-466.157	403.543	-0.045	-0.095
-465.143	81.481	-0.071	-0.077
-464.128	-200.000	0.015	0.108
-463.113	24.415	-0.144	-0.118
-462.099	-132.644	0.320	0.041
-461.084	-200.000	0.046	0.238
-460.070	-34.104	0.158	-0.087
-459.055	-63.906	0.121	-0.049
-458.040	-9.272	-0.203	0.135
-457.026	-176.455	-0.123	-0.003
-456.011	-78.738	0.307	-0.104
-454.997	84.262	0.238	-0.259
-453.982	-200.000	0.004	-0.101
-452.968	-161.061	-0.358	0.019
-451.953	-108.119	0.024	0.005
-450.938	124.355	-0.069	0.086
-449.924	-200.000	-0.040	0.435
-448.909	-200.000	0.035	-0.250
-447.895	32.187	-0.373	-0.320
-446.880	4.311	-0.134	-0.098
-445.865	-37.813	0.082	0.044
-444.851	-55.234	-0.036	0.016
-443.836	800.000	-0.071	0.235
-442.822	360.659	0.102	0.204
-441.807	156.905	0.135	0.185
-440.792	419.052	-0.206	0.439
-439.778	480.955	0.032	-0.073
-438.763	800.000	-0.088	0.246
-437.749	-200.000	0.009	0.134
-436.734	-121.284	0.145	-0.024
-435.719	588.586	0.108	-0.263
-434.705	-50.676	-0.257	-0.120
-433.690	-72.190	0.177	0.065
-432.676	-7.637	0.115	0.077
-431.661	81.857	-0.210	0.226
-430.646	-28.017	0.120	-0.069
-429.632	800.000	-0.060	-0.207
-428.617	-47.936	0.189	-0.091
-427.603	800.000	-0.072	0.268
-426.588	34.605	-0.244	0.212
-425.573	-177.868	-0.140	0.003
-424.559	800.000	-0.055	-0.186
-423.544	261.969	-0.093	-0.160
-422.530	37.934	0.397	0.350
-421.515	-200.000	-0.031	-0.141
-420.500	-200.000	0.042	0.252
-419.486	-96.706	-0.264	0.069
-418.471	194.853	0.093	0.140
-417.457	4.593	0.081	0.059
-416.442	666.226	-0.151	-0.389
-415.428	-112.560	-0.165	0.033
-414.413	417.175	0.087	0.185
-413.398	-200.000	-0.006	-0.048
-412.384	-32.209	0.190	-0.105
-411.369	-27.608	0.117	-0.068
-410.355	-200.000	-0.043	0.539
-409.340	-90.922	0.320	-0.091
-408.325	120.419	-0.212	0.261
-407.311	365.413	0.019	0.038
-406.296	-72.642	-0.169	0.062
-405.282	-67.972	0.299	-0.116
-404.267	598.516	-0.126	-0.311
-403.252	-113.743	0.324	-0.063
-402.238	-55.079	-0.095	0.042
-401.223	-81.232	-0.329	0.108
-400.209	-200.000	-0.029	0.128
-399.194	412.691	0.174	0.368
-398.179	-18.386	0.160	-0.099
-397.165	-200.000	-0.007	-0.346
-396.150	-177.327	-0.064	0.002
-395.136	-75.405	0.172	0.061
-394.121	-200.000	0.025	0.142
-393.106	-34.008	-0.280	-0.153
-392.092	247.427	-0.108	-0.180
-391.077	-111.537	0.314	0.063
-390.063	-76.526	-0.131	-0.046
-389.048	-140.093	0.383	0.040
-388.033	122.461	0.056	0.069
-387.019	-127.150	-0.045	-0.007
-386.004	36.910	-0.112	0.098
-384.990	2.086	0.120	-0.086
-383.975	35.624	0.110	-0.096
-382.960	177.348	0.159	-0.230
-381.946	-103.123	-0.248	-0.058
-380.931	-113.483	0.084	-0.016
-379.917	-108.170	-0.305	-0.065
-378.902	41.556	-0.148	-0.133
-377.888	-100.948	0.091	-0.022
-376.873	-48.183	-0.173	-0.083
-375.858	274.977	0.108	0.190
-374.844	155.600	-0.221	-0.302
-373.829	-49.896	0.078	0.037
-372.815	-200.000	-0.010	0.141
-371.800	-60.480	0.171	-0.072
-370.785	4.776	-0.202	0.148
-369.771	-114.559	0.134	-0.025
-368.756	564.648	-0.085	0.205
-367.742	800.000	-0.051	0.169
-366.727	-126.978	-0.148	-0.022
-365.712	-200.000	0.011	-0.311
-364.698	63.629	-0.378	0.376
-363.683	694.084	-0.050	0.129
-362.669	209.183	0.165	-0.256
-361.654	-200.000	-0.002	-0.055
-360.639	-155.220	0.093	0.006
-359.625	23.762	0.131	-0.107
-358.610	-58.208	-0.086	-0.037
-357.596	32.131	0.015	-0.013
-356.581	334.376	-0.110	0.211
-355.566	-145.514	-0.299	-0.027
-354.552	-47.040	0.172	-0.083
-353.537	76.287	-0.042	0.044
-352.523	268.760	-0.076	0.132
-351.508	14.378	0.160	0.124
-350.493	-200.000	-0.007	0.047
-349.479	-160.541	0.069	0.004
-348.464	442.315	0.053	-0.116
-347.450	-168.968	0.106	-0.004
-346.435	-200.000	0.063	-0.419
-345.420	-140.371	-0.208	0.021
-344.406	-146.286	0.261	0.023
-343.391	277.465	0.142	0.251
-342.377	715.279	0.059	-0.156
-341.362	-156.786	-0.187	0.011
-340.348	-118.170	-0.059	0.010
-339.333	-69.961	-0.210	-0.079
-338.318	68.404	-0.200	-0.203
-337.304	-7.391	-0.053	0.036
-336.289	-39.336	-0.169	0.088
-335.275	-130.904	0.327	-0.043
-334.260	319.187	-0.093	0.175
-333.245	-175.038	0.137	-0.004
-332.231	-164.883	0.357	0.016
-331.216	-164.054	0.128	0.006
-330.202	213.221	0.241	-0.378
-329.187	-127.065	0.510	0.074
-328.172	484.860	-0.060	-0.134
-327.158	-148.222	-0.228	0.019
-326.143	211.258	-0.075	-0.118
-325.129	-200.000	-0.022	-0.179
-324.114	135.721	-0.168	-0.216
-323.099	-200.000	0.055	0.000
-322.085	-73.811	-0.154	-0.055
-321.070	-200.000	0.016	0.153
-320.056	-137.317	0.303	0.034
-319.041	29.165	-0.317	0.266
-318.026	59.835	0.144	0.140
-317.012	-200.000	-0.003	0.162
-315.997	-155.987	0.295	0.018
-314.983	-115.046	0.114	-0.021
-313.968	37.744	-0.220	-0.193
-312.953	61.206	0.059	-0.058
-311.939	-167.021	0.502	0.020
-310.924	-65.996	0.182	0.072
-309.910	-97.476	0.136	-0.035
-308.895	-21.950	0.280	0.169
-307.880	146.323	-0.298	0.395
-306.866	66.646	-0.164	0.165
-305.851	800.000	-0.060	-0.248
-304.837	118.943	0.125	-0.153
-303.822	800.000	0.054	0.160
-302.807	-200.000	-0.012	0.285
-301.793	72.532	-0.044	-0.045
-300.778	-182.212	-0.383	0.007
-299.764	-93.759	-0.355	0.097
-298.749	-132.765	-0.273	0.035
-297.735	-200.000	0.014	-0.136
-296.720	-2.452	-0.169	-0.117
-295.705	62.501	-0.180	-0.178
-294.691	800.000	0.068	-0.274
-293.676	136.429	-0.058	0.074
-292.662	299.878	-0.127	-0.232
-291.647	-200.000	0.027	0.291
-290.632	100.396	0.056	-0.064
-289.618	-200.000	0.030	-0.264
-288.603	80.060	-0.157	-0.167
-287.589	-200.000	-0.007	-0.052
-286.574	59.815	0.108	0.105
-285.559	-134.229	0.419	0.051
-284.545	-200.000	0.208	-0.001
-283.530	-200.000	-0.095	0.000
-282.516	800.000	0.043	-0.128
-281.501	-200.000	-0.021	0.297
-280.486	-200.000	0.014	0.308
-279.472	-186.581	-0.153	-0.002
-278.457	-200.000	-0.013	0.267
-277.443	-142.999	0.057	0.005
-276.428	247.665	0.206	-0.344
-275.413	239.451	-0.273	-0.449
-274.399	231.083	-0.079	0.128
-273.384	-69.745	-0.130	-0.049
-272.370	-59.007	0.096	0.041
-271.355	45.364	0.136	-0.124
-270.340	-99.471	0.385	-0.096
-269.326	-200.000	0.036	0.437
-268.311	-129.169	-0.338	-0.047
-267.297	-26.417	0.238	-0.138
-266.282	-147.728	0.223	-0.018
-265.267	-37.778	0.329	-0.173
-264.253	-96.076	0.422	-0.111
-263.238	32.523	-0.058	-0.049
-262.224	-73.262	-0.196	-0.071
-261.209	250.530	0.037	0.062
-260.195	-18.289	0.059	-0.036
-259.180	-126.986	0.384	-0.056
-258.165	-84.577	0.374	-0.117
-257.151	-24.730	0.181	-0.106
-256.136	107.095	0.223	-0.261
-255.122	451.846	0.178	-0.389
-254.107	125.528	-0.075	0.093
-253.092	29.300	-0.271	-0.227
-252.078	800.000	-0.049	-0.194
-251.063	-71.345	-0.152	-0.056
-250.049	-104.030	-0.173	0.040
-249.034	-14.839	0.195	-0.123
-248.019	113.475	-0.141	-0.169
-247.005	-176.996	-0.302	-0.008
-245.990	-161.276	0.280	0.014
-244.976	96.582	0.135	0.152
-243.961	-70.860	-0.290	0.108
-242.946	385.491	0.063	-0.129
-241.932	155.782	0.157	0.214
-240.917	-4.903	-0.184	-0.125
-239.903	-192.002	0.674	-0.006
-238.888	138.509	-0.157	0.203
-237.873	-200.000	-0.096	0.000
-236.859	80.491	0.213	0.227
-235.844	3.375	0.307	0.220
-234.830	-200.000	0.038	0.332
-233.815	-59.415	0.294	0.125
-232.800	-116.716	-0.425	-0.077
-231.786	-54.712	-0.315	-0.140
-230.771	75.184	-0.169	0.176
-229.757	35.352	0.148	0.128
-228.742	-24.515	0.353	-0.208
-227.727	48.900	-0.350	-0.324
-226.713	12.821	0.083	0.063
-225.698	-13.574	-0.192	0.123
-224.684	-28.219	0.337	-0.192
-223.669	186.438	-0.155	-0.227
-222.655	-84.746	0.095	0.029
-221.640	-58.792	0.216	0.092
-220.625	-200.000	0.032	-0.151
-219.611	-177.403	0.131	-0.003
-218.596	-50.474	0.196	-0.091
-217.582	239.776	-0.171	-0.280
-216.567	800.000	0.054	0.229
-215.552	-29.792	0.226	-0.127
-214.538	133.081	-0.077	0.098
-213.523	-200.000	-0.022	-0.218
-212.509	-197.419	-0.301	-0.002
-211.494	51.950	0.132	0.124
-210.479	104.491	-0.039	0.045
-209.465	-3.530	-0.030	-0.021
-208.450	97.883	-0.067	0.076
-207.436	-63.368	0.139	-0.056
-206.421	-23.323	-0.137	-0.081
-205.406	30.573	0.010	0.008
-204.392	21.348	0.192	-0.154
-203.377	-89.049	-0.192	-0.056
-202.363	-121.968	-0.146	0.024
-201.348	46.435	0.074	-0.067
-200.333	2.740	-0.285	-0.204
-199.319	-9.730	0.377	0.248
-198.304	116.239	0.089	0.107
-197.290	-71.960	0.036	-0.013
-196.275	-200.000	-0.041	0.424
-195.260	-139.465	-0.209	0.022
-194.246	41.885	-0.114	0.102
-193.231	-47.084	0.223	-0.107
-192.217	65.004	-0.187	-0.186
-191.202	800.000	0.031	-0.133
-190.187	-200.000	0.007	0.037
-189.173	-200.000	-0.028	0.285
-188.158	-84.518	-0.076	0.024
-187.144	587.427	-0.122	-0.295
-186.129	139.734	-0.074	0.096
-185.114	0.393	-0.160	-0.112
-184.100	358.409	-0.188	0.370
-183.085	-50.893	0.254	0.117
-182.071	-103.412	0.157	0.036
-181.056	31.752	-0.366	-0.310
-180.042	-200.000	0.002	0.045
-179.027	-87.569	0.103	0.031
-178.012	524.472	0.090	-0.209
-176.998	-200.000	0.099	0.460
-175.983	-200.000	0.015	0.176
-174.969	467.591	-0.037	-0.081
-173.954	-200.000	0.087	-0.377
-172.939	-55.637	0.209	0.092
-171.925	-115.957	0.233	0.043
-170.910	-200.000	0.016	-0.158
-169.896	-200.000	-0.013	-0.168
-168.881	280.743	0.116	-0.205
-167.866	800.000	-0.092	-0.264
-166.852	-41.193	-0.395	-0.200
-165.837	-72.876	0.163	0.059
-164.823	-200.000	-0.021	0.163
-163.808	800.000	0.044	0.162
-162.793	646.101	-0.079	-0.199
-161.779	800.000	-0.021	0.065
-160.764	-69.209	0.276	0.104
-159.750	13.407	0.143	0.109
-158.735	291.820	0.175	0.313
-157.720	-62.169	0.196	-0.081
-156.706	-20.218	-0.213	-0.129
-155.691	-200.000	-0.010	-0.092
-154.677	-114.751	0.095	0.018
-153.662	77.347	-0.234	-0.245
-152.647	-153.361	0.075	-0.005
-151.633	256.369	0.094	0.159
-150.618	-200.000	-0.035	0.225
-149.604	400.069	0.085	-0.175
-148.589	54.640	0.338	0.320
-147.574	546.276	-0.124	0.292
-146.560	38.022	-0.156	-0.137
-145.545	-200.000	-0.028	0.274
-144.531	523.271	0.105	-0.244
-143.516	311.077	0.090	-0.166
-142.502	14.866	-0.210	-0.162
-141.487	228.852	-0.181	-0.289
-140.472	-108.720	0.244	0.051
-139.458	134.793	0.133	-0.170
-138.443	114.518	-0.223	0.267
-137.429	-47.353	-0.042	0.020
-136.414	132.891	0.281	-0.357
-135.399	800.000	0.027	0.091
-134.385	247.734	-0.169	0.281
-133.370	-111.984	-0.134	0.027
-132.356	126.305	-0.118	-0.146
-131.341	104.005	-0.096	0.111
-130.326	-120.393	0.180	0.030
-129.312	460.929	-0.102	-0.223
-128.297	-35.569	-0.068	0.036
-127.283	-58.565	-0.275	-0.117
-126.268	18.189	-0.271	-0.213
-125.253	527.923	-0.126	0.293
-124.239	-58.449	0.177	0.076
-123.224	-8.218	0.118	0.078
-122.210	-200.000	-0.033	0.280
-121.195	800.000	-0.081	0.288
-120.180	-8.706	0.194	0.128
-119.166	-134.408	0.162	0.020
-118.151	59.614	-0.198	0.192
-117.137	-24.270	-0.242	-0.142
-116.122	800.000	-0.037	-0.133
-115.107	-67.922	0.160	0.061
-114.093	367.907	0.125	0.248
-113.078	-200.000	-0.004	0.070
-112.064	-200.000	0.013	-0.170
-111.049	381.970	-0.143	-0.288
-110.034	800.000	0.002	0.007
-109.020	183.801	0.020	0.029
-108.005	-200.000	-0.062	-0.322
-106.991	-24.385	-0.200	-0.117
-105.976	1.491	0.017	0.012
-104.962	-200.000	0.013	0.103
-103.947	-83.966	-0.142	0.044
-102.932	-200.000	-0.029	0.358
-101.918	800.000	-0.137	0.383
-100.903	485.921	-0.095	0.212
-99.889	-100.967	0.182	0.044
-98.874	-18.880	-0.177	0.108
-97.859	18.143	0.092	-0.072
-96.845	-123.363	0.371	-0.058
-95.830	193.482	0.230	-0.341
-94.816	-85.558	-0.258	0.079
-93.801	524.476	0.085	0.195
-92.786	553.043	0.009	0.022
-91.772	-8.856	0.238	-0.156
-90.757	192.995	0.135	-0.199
-89.743	-32.415	-0.114	-0.062
-88.728	-113.299	0.252	-0.048
-87.713	361.940	0.144	0.283
-86.699	199.390	0.081	0.122
-85.684	-165.265	0.184	0.008
-84.670	-200.000	-0.039	0.192
-83.655	-200.000	-0.016	-0.252
-82.640	157.440	-0.032	0.044
-81.626	-200.000	-0.172	0.000
-80.611	800.000	0.075	0.218
-79.597	-93.189	-0.254	-0.069
-78.582	-59.372	0.222	0.094
-77.567	518.903	0.138	0.316
-76.553	-180.082	0.240	-0.005
-75.538	57.089	-0.207	-0.198
-74.524	135.055	0.135	-0.171
-73.509	-84.471	-0.104	0.032
-72.494	-1.210	-0.289	-0.200
-71.480	488.771	0.059	-0.132
-70.465	-161.427	0.092	-0.005
-69.451	85.273	-0.175	0.188
-68.436	800.000	-0.088	0.269
-67.422	121.288	0.118	0.144
-66.407	800.000	-0.040	-0.152
-65.392	191.831	0.209	0.309
-64.378	221.610	-0.157	0.248
-63.363	-200.000	0.041	0.255
-62.349	-10.610	0.297	-0.192
-61.334	28.270	-1.122	-0.929
-60.319	205.701	0.464	0.706
-59.305	340.019	-0.432	-0.826
-58.290	153.892	1.001	1.344
-57.276	800.000	0.471	1.491
-56.261	-200.000	114.792	649.441
-55.246	468.317	1511.534	3321.988
-54.232	147.076	2674.409	3523.754
-53.217	103.669	2151.044	2473.632
-52.203	38.715	1599.867	1398.421
-51.188	30.596	1346.701	1128.074
-50.173	27.760	1308.901	1079.616
-49.159	55.283	1364.382	1292.107
-48.144	53.991	1378.469	1297.630
-47.130	31.078	1334.457	1120.536
-46.115	27.588	1316.824	1084.954
-45.100	27.442	1311.972	1080.047
-44.086	27.265	1309.547	1076.959
-43.071	27.325	1306.737	1074.963
-42.057	27.275	1304.817	1073.047
-41.042	27.197	1303.888	1071.779
-40.027	27.333	1301.630	1070.680
-39.013	27.438	1299.188	1069.244
-37.998	27.323	1297.745	1067.343
-36.984	27.408	1295.866	1066.253
-35.969	27.422	1294.609	1065.255
-34.954	27.410	1293.050	1063.862
-33.940	27.502	1291.584	1063.153
-32.925	27.403	1290.899	1061.965
-31.911	27.568	1288.457	1060.875
-30.896	27.555	1286.930	1059.500
-29.881	27.566	1285.660	1058.475
-28.867	27.605	1284.341	1057.574
-27.852	27.480	1283.050	1055.746
-26.838	27.623	1281.641	1055.371
-25.823	27.559	1280.399	1053.941
-24.809	27.483	1279.439	1052.665
-23.794	27.555	1277.701	1051.608
-22.779	27.565	1276.473	1050.618
-21.765	27.523	1275.227	1049.308
-20.750	27.491	1273.782	1047.892
-19.736	27.436	1272.644	1046.601
-18.721	27.244	1271.847	1044.799
-17.706	27.370	1270.332	1044.237
-16.692	27.419	1269.179	1043.524
-15.677	27.407	1268.425	1042.794
-14.663	27.478	1266.819	1041.841
-13.648	27.421	1265.634	1040.501
-12.633	27.346	1265.028	1039.533
-11.619	27.310	1264.269	1038.660
-10.604	27.434	1262.757	1038.082
-9.590	27.430	1261.862	1037.287
-8.575	27.407	1261.139	1036.518
-7.560	27.317	1260.491	1035.432
-6.546	27.329	1259.407	1034.569
-5.531	27.264	1258.777	1033.643
-4.517	27.400	1257.944	1033.689
-3.502	27.363	1256.943	1032.614
-2.487	27.369	1255.821	1031.687
-1.473	27.344	1251.632	1028.064
-0.458	25.777	1236.483	1006.827
0.556	20.823	1219.949	969.448
1.571	17.134	1226.307	953.735
2.586	16.410	1241.186	961.102
3.600	16.463	1230.172	952.792
4.615	15.150	1163.881	894.363
5.629	12.327	1097.627	829.140
6.644	10.857	1081.079	809.257
7.659	10.726	1079.102	807.055
8.673	10.671	1077.946	805.845
9.688	10.715	1076.167	804.660
10.702	10.721	1074.442	803.329
11.717	12.462	1075.718	812.829
12.731	15.502	1079.881	830.968
13.746	17.404	1082.010	841.955
14.761	17.531	1081.438	842.060
15.775	16.444	1079.792	835.339
16.790	15.442	1077.604	828.626
17.804	14.854	1075.924	824.364
18.819	14.325	1074.758	820.789
19.834	14.156	1073.607	819.007
20.848	13.819	1072.960	816.780
21.863	13.644	1072.185	815.256
22.877	13.487	1071.298	813.741
23.892	13.568	1070.771	813.667
24.907	13.470	1069.838	812.403
25.921	13.596	1068.601	812.010
26.936	13.661	1067.111	811.125
27.950	13.609	1065.934	809.901
28.965	13.647	1064.459	808.895
29.980	13.724	1063.092	808.160
30.994	13.771	1061.748	807.299
32.009	13.712	1061.124	806.463
33.023	13.755	1059.759	805.564
34.038	13.752	1058.314	804.379
35.053	13.641	1058.031	803.555
36.067	13.658	1057.033	802.807
37.082	13.704	1056.094	802.247
38.096	13.616	1055.484	801.287
39.111	13.655	1054.638	800.761
40.126	13.684	1053.319	799.828
41.140	13.552	1052.481	798.486
42.155	13.442	1050.993	796.759
43.169	13.422	1050.326	796.086
44.184	13.484	1048.817	795.167
45.199	13.480	1047.831	794.333
46.213	13.574	1046.697	793.855
47.228	13.649	1045.700	793.386
48.242	13.540	1045.146	792.374
49.257	13.618	1043.776	791.638
50.271	13.618	1043.010	790.985
51.286	13.688	1042.049	790.521
52.301	13.456	1041.196	788.700
53.315	13.650	1039.826	788.514
54.330	13.518	1039.005	787.196
55.344	13.576	1038.098	786.716
56.359	13.587	1037.133	785.965
57.374	13.431	1036.595	784.750
58.388	13.510	1035.022	783.863
59.403	13.499	1034.653	783.462
60.417	13.514	1033.423	782.532
61.432	13.514	1032.798	781.990
62.447	13.313	1032.273	780.574
63.461	13.469	1031.256	780.471
64.476	13.300	1030.657	779.152
65.490	13.355	1029.627	778.562
66.505	13.321	1028.846	777.743
67.520	13.549	1027.996	778.102
68.534	13.431	1027.420	777.044
69.549	13.389	1026.880	776.369
70.563	13.451	1025.860	775.822
71.578	13.429	1024.597	774.692
72.593	13.365	1024.249	774.064
73.607	13.319	1023.911	773.523
74.622	13.396	1023.096	773.201
75.636	13.368	1022.231	772.347
76.651	13.344	1021.990	771.985
77.666	13.338	1021.363	771.415
78.680	13.306	1020.390	770.461
79.695	13.440	1019.707	770.502
80.709	13.476	1019.111	770.152
81.724	13.506	1018.615	769.848
82.739	13.607	1017.497	769.405
83.753	13.663	1016.974	769.198
84.768	13.676	1016.281	768.669
85.782	13.707	1015.468	768.127
86.797	13.676	1014.267	767.008
87.812	13.535	1013.561	765.755
88.826	13.540	1012.618	765.000
89.841	13.718	1011.476	764.890
90.855	13.750	1010.378	764.138
91.870	13.792	1009.984	763.966
92.884	13.754	1009.038	763.008
93.899	13.688	1008.294	762.073
94.914	13.841	1007.322	761.974
95.928	13.858	1006.824	761.608
96.943	13.726	1006.032	760.336
97.957	13.732	1004.746	759.324
98.972	13.665	1004.018	758.403
99.987	13.780	1002.813	757.949
101.001	13.630	1002.373	756.864
102.016	13.732	1001.340	756.483
103.030	13.768	1001.081	756.386
104.045	13.688	1000.011	755.148
105.060	13.887	998.159	754.583
106.074	13.679	997.645	753.186
107.089	13.627	996.395	751.938
108.103	13.602	995.676	751.217
109.118	13.572	994.641	750.233
110.133	13.525	993.786	749.307
111.147	13.616	993.115	749.148
112.162	13.670	992.021	748.500
113.176	13.601	991.675	747.862
114.191	13.685	990.906	747.592
115.206	13.634	989.815	746.476
116.220	13.585	989.162	745.697
117.235	13.452	988.086	744.220
118.249	13.562	987.183	743.969
119.264	13.523	986.529	743.234
120.279	13.562	985.721	742.735
121.293	13.598	984.393	741.832
122.308	13.486	983.801	740.816
123.322	13.607	982.103	740.012
124.337	13.495	981.566	739.043
125.352	13.577	980.484	738.528
126.366	13.593	978.804	737.269
127.381	13.515	978.481	736.615
128.395	13.456	977.596	735.622
129.410	13.476	976.884	735.108
130.424	13.598	975.780	734.753
131.439	13.586	975.237	734.229
132.454	13.708	974.287	733.985
133.468	13.678	973.422	733.136
134.483	13.612	972.770	732.291
135.497	13.671	971.584	731.591
136.512	13.627	971.077	730.952
137.527	13.674	970.209	730.443
138.541	13.719	969.275	729.873
139.556	13.734	968.573	729.346
140.570	13.801	967.855	729.032
141.585	13.686	967.587	728.264
142.600	13.855	965.969	727.722
143.614	13.921	965.421	727.535
144.629	13.847	964.964	726.801
145.643	13.869	964.059	726.150
146.658	13.816	962.644	724.789
147.673	13.921	961.657	724.439
148.687	13.827	960.802	723.324
149.702	13.644	960.151	721.971
150.716	13.645	959.597	721.494
151.731	13.803	958.610	721.374
152.746	13.748	958.292	720.835
153.760	13.778	957.339	720.185
154.775	13.761	957.365	720.066
155.789	13.884	956.342	719.765
156.804	13.974	955.140	719.188
157.819	13.945	954.672	718.645
158.833	14.070	954.089	718.683
159.848	13.965	953.269	717.549
160.862	13.912	952.526	716.696
161.877	13.947	951.085	715.701
162.892	13.787	950.592	714.576
163.906	13.816	949.766	714.018
164.921	13.881	948.653	713.395
165.935	14.042	947.396	713.078
166.950	13.821	947.139	711.875
167.964	13.973	946.101	711.682
168.979	13.887	944.890	710.341
169.994	13.893	944.165	709.761
171.008	13.921	943.512	709.325
172.023	13.901	943.403	709.095
173.037	14.107	942.068	708.906
174.052	13.947	941.904	708.037
175.067	13.963	940.925	707.308
176.081	13.945	940.330	706.723
177.096	14.014	939.315	706.188
178.110	13.918	939.199	705.631
179.125	13.920	938.645	705.161
180.140	14.038	937.638	704.842
181.154	14.024	937.658	704.735
182.169	14.094	937.034	704.503
183.183	14.076	936.229	703.758
184.198	14.012	935.389	702.792
185.213	14.129	935.081	702.992
186.227	14.207	934.045	702.485
187.242	14.225	933.346	701.972
188.256	14.387	932.633	702.057
189.271	14.185	932.160	700.787
190.286	14.170	931.004	699.791
191.300	14.017	930.693	698.853
192.315	13.869	930.216	697.810
193.329	14.069	929.273	697.880
194.344	13.976	929.087	697.291
195.359	14.050	928.608	697.178
196.373	14.262	927.505	697.176
197.388	14.366	926.988	697.165
198.402	14.356	926.710	696.849
199.417	14.463	925.820	696.565
200.432	14.623	925.555	696.974
201.446	14.543	924.759	695.978
202.461	14.442	924.331	695.174
203.475	14.476	923.738	694.807
204.490	14.357	923.452	694.036
205.504	14.409	922.858	693.745
206.519	14.387	921.442	692.527
207.534	14.426	921.069	692.349
208.548	14.468	920.323	691.899
209.563	14.394	919.681	691.050
210.577	14.487	918.853	690.751
211.592	14.619	918.422	690.913
212.607	14.598	917.567	690.121
213.621	14.519	916.548	688.968
214.636	14.604	915.990	688.837
215.650	14.664	914.998	688.277
216.665	14.662	914.725	688.004
217.680	14.572	913.973	687.008
218.694	14.753	913.320	687.202
219.709	14.650	912.759	686.292
220.723	14.692	911.933	685.785
221.738	14.584	910.996	684.577
222.753	14.771	910.456	684.877
223.767	14.819	910.154	684.783
224.782	14.785	909.777	684.299
225.796	14.833	909.220	684.017
226.811	14.907	908.170	683.471
227.826	14.830	907.423	682.533
228.840	14.760	906.584	681.555
229.855	14.880	905.690	681.314
230.869	14.749	905.713	680.737
231.884	14.655	904.656	679.498
232.899	14.806	903.618	679.273
233.913	14.781	903.136	678.750
234.928	14.616	902.532	677.567
235.942	14.806	901.964	677.850
236.957	14.812	901.584	677.530
237.972	14.761	900.697	676.596
238.986	14.757	900.120	676.085
240.001	14.832	899.400	675.786
241.015	14.796	898.696	675.053
242.030	14.898	898.195	675.029
243.045	14.985	897.309	674.655
244.059	14.987	897.188	674.513
245.074	14.932	896.429	673.661
246.088	14.925	895.980	673.236
247.103	14.943	895.142	672.619
248.117	15.044	894.568	672.532
249.132	15.149	894.072	672.523
250.147	15.134	893.551	672.010
251.161	15.233	892.758	671.752
252.176	15.304	892.035	671.434
253.190	15.211	891.753	670.788
254.205	15.354	891.089	670.801
255.220	15.223	890.575	669.833
256.234	15.340	890.166	669.931
257.249	15.376	888.872	669.043
258.263	15.371	888.107	668.389
259.278	15.396	887.181	667.732
260.293	15.575	886.867	668.148
261.307	15.520	886.603	667.671
262.322	15.499	885.479	666.681
263.336	15.516	884.943	666.290
264.351	15.543	884.437	665.954
265.366	15.529	883.682	665.273
266.380	15.617	883.042	665.081
267.395	15.482	882.359	663.974
268.409	15.564	881.370	663.493
269.424	15.507	880.330	662.428
270.439	15.541	879.755	662.070
271.453	15.631	879.058	661.839
272.468	15.432	879.086	661.018
273.482	15.461	878.811	660.867
274.497	15.464	877.963	660.183
275.512	15.528	877.115	659.738
276.526	15.502	876.816	659.353
277.541	15.547	875.996	658.856
278.555	15.627	875.730	658.911
279.570	15.655	875.039	658.441
280.585	15.795	873.921	658.092
281.599	15.612	873.403	656.928
282.614	15.689	872.742	656.672
283.628	15.593	872.474	656.038
284.643	15.666	872.178	656.043
285.657	15.702	871.200	655.390
286.672	15.817	870.472	655.232
287.687	15.798	869.864	654.640
288.701	15.848	869.355	654.396
289.716	15.830	868.487	653.612
290.730	15.813	868.032	653.147
291.745	15.839	867.767	652.991
292.760	15.990	866.753	652.754
293.774	15.848	866.246	651.764
294.789	15.867	865.696	651.369
295.803	15.876	865.043	650.853
296.818	15.939	864.129	650.354
297.833	15.898	863.873	649.941
298.847	15.820	863.050	648.965
299.862	16.029	862.563	649.346
300.876	16.016	862.180	648.952
301.891	16.120	861.471	648.760
302.906	16.064	860.621	647.846
303.920	16.029	860.550	647.604
304.935	16.158	860.032	647.650
305.949	16.131	859.248	646.900
306.964	16.186	858.693	646.635
307.979	16.164	857.918	645.912
308.993	16.077	857.703	645.359
310.008	16.097	856.971	644.828
311.022	16.039	856.327	644.063
312.037	16.163	855.581	643.919
313.052	16.067	855.282	643.270
314.066	16.053	854.331	642.445
315.081	16.097	854.113	642.391
316.095	16.179	853.130	641.908
317.110	16.027	852.978	641.159
318.125	16.120	852.422	641.036
319.139	16.171	852.172	640.988
320.154	16.200	851.788	640.751
321.168	16.152	851.015	639.931
322.183	16.346	849.979	639.829
323.197	16.193	849.898	639.134
324.212	16.270	849.191	638.835
325.227	16.363	848.461	638.584
326.241	16.232	848.137	637.787
327.256	16.124	847.584	636.906
328.270	16.198	846.892	636.608
329.285	16.235	846.121	636.112
330.300	16.201	845.754	635.653
331.314	16.190	845.787	635.578
332.329	16.273	845.176	635.377
333.343	16.266	844.805	635.016
334.358	16.363	843.895	634.640
335.373	16.457	843.443	634.598
336.387	16.482	843.193	634.446
337.402	16.444	843.047	634.139
338.416	16.461	843.091	634.177
339.431	16.565	842.296	633.915
340.446	16.501	841.938	633.348
341.460	16.662	841.523	633.584
342.475	16.618	841.033	632.992
343.489	16.818	840.142	633.013
344.504	16.756	839.938	632.572
345.519	16.785	839.440	632.251
346.533	16.686	839.010	631.503
347.548	16.701	838.308	630.974
348.562	16.618	837.733	630.176
349.577	16.582	837.284	629.647
350.592	16.458	836.569	628.594
351.606	16.520	836.084	628.404
352.621	16.551	835.112	627.731
353.635	16.623	834.690	627.626
354.650	16.655	833.935	627.123
355.665	16.578	833.493	626.450
356.679	16.850	832.544	626.685
357.694	16.693	832.102	625.718
358.708	16.680	831.821	625.403
359.723	16.755	831.080	625.066
360.738	16.788	830.130	624.420
361.752	16.958	829.497	624.514
362.767	16.859	829.517	624.108
363.781	16.898	828.830	623.680
364.796	16.943	828.359	623.438
365.810	17.005	827.775	623.170
366.825	17.036	827.679	623.157
367.840	17.156	826.932	622.978
368.854	16.975	826.507	621.940
369.869	17.029	826.156	621.817
370.883	17.129	825.661	621.755
371.898	17.136	825.554	621.647
372.913	17.144	825.146	621.315
373.927	17.112	824.415	620.591
374.942	17.086	824.060	620.175
375.956	17.199	823.776	620.319
376.971	17.260	823.263	620.100
377.986	17.288	822.713	619.733
379.000	17.268	822.223	619.234
380.015	17.531	821.337	619.472
381.029	17.301	820.980	618.309
382.044	17.352	820.259	617.899
383.059	17.478	819.951	618.068
384.073	17.413	818.890	616.980
385.088	17.306	818.988	616.610
386.102	17.226	818.319	615.762
387.117	17.310	817.494	615.391
388.132	17.174	817.056	614.513
389.146	17.339	816.573	614.695
390.161	17.355	816.265	614.466
391.175	17.393	815.708	614.129
392.190	17.455	814.693	613.532
393.205	17.269	814.659	612.781
394.219	17.331	814.448	612.791
395.234	17.327	813.751	612.202
396.248	17.308	813.632	611.988
397.263	17.221	813.192	611.289
398.278	17.340	812.748	611.329
399.292	17.241	812.263	610.555
400.307	17.446	811.602	610.739
401.321	17.353	811.242	610.082
402.336	17.430	810.754	609.938
403.350	17.564	810.079	609.853
404.365	17.480	809.970	609.417
405.380	17.568	809.333	609.199
406.394	17.609	808.971	609.018
407.409	17.569	808.439	608.423
408.423	17.719	808.264	608.772
409.438	17.703	808.042	608.496
410.453	17.604	807.364	607.578
411.467	17.784	807.027	607.913
412.482	17.800	806.665	607.643
413.496	17.882	805.558	607.044
414.511	17.863	805.526	606.901
415.526	17.807	805.562	606.674
416.540	17.875	804.726	606.231
417.555	17.879	804.132	605.748
418.569	17.849	803.825	605.353
419.584	17.809	803.247	604.722
420.599	17.816	803.198	604.659
421.613	111.343	1295.054	1476.043
422.628	95.991	1366.673	1476.139
