DTS Sentinel unit serial number:	SN413079Multiplexer serial number:	ORYXHardware model number:	OX4-SRSoftware version number:	ORYX F/W v4.00 Oryx Data Collector v3.7.2.0data status	okinstallation	princeton_trtdifferential loss correction	single-endedforward channel	channel 1reverse channel	N/Adate	2019/09/15time	01:58:35forward acquisition time	60.00reverse acquisition time	0.00gamma	496.2192k internal	0.2322k external	0.2322temperature offset calibration	0.9985default loss term (dB/km)	0.3790temperature slope calibration	1.0000multiplexer offset coefficient	1.0000multiplexer slope coefficient	1.0000fibre end	0.00T internal ref (°C)	31.75T ext. ref 1 (°C)	4.52T ext. ref 2 (°C)	26.62length (m)	temperature (°C)	Stokes	anti-Stokes-747.200	800.000	0.112	-0.334
-746.185	446.250	0.054	-0.120
-745.171	18.661	0.231	-0.187
-744.156	240.994	0.187	0.316
-743.142	-200.000	0.011	0.144
-742.127	-200.000	0.000	0.214
-741.112	-200.000	0.002	0.064
-740.098	166.579	0.067	0.097
-739.083	337.770	-0.083	-0.163
-738.069	-200.000	0.037	-0.250
-737.054	-94.368	-0.285	0.079
-736.039	800.000	0.021	-0.061
-735.025	424.342	-0.032	0.070
-734.010	-118.596	0.148	0.026
-732.996	-48.454	-0.187	0.091
-731.981	-200.000	-0.020	-0.126
-730.966	-112.250	-0.301	-0.061
-729.952	235.117	-0.132	0.219
-728.937	14.999	0.109	0.086
-727.923	-125.980	-0.477	-0.072
-726.908	-135.030	0.036	-0.004
-725.894	-200.000	-0.015	-0.098
-724.879	-200.000	0.085	0.000
-723.864	-108.985	0.068	-0.015
-722.850	-57.512	0.068	-0.030
-721.835	800.000	0.060	-0.231
-720.821	-200.000	0.021	-0.145
-719.806	282.025	-0.097	0.175
-718.791	-116.073	-0.156	-0.029
-717.777	-181.902	0.125	-0.002
-716.762	51.640	-0.185	-0.177
-715.748	-135.307	0.209	0.025
-714.733	-103.926	-0.156	-0.037
-713.718	44.433	0.224	-0.208
-712.704	-200.000	-0.029	-0.127
-711.689	-200.000	0.016	-0.254
-710.675	77.471	-0.217	-0.233
-709.660	-200.000	-0.005	0.167
-708.645	90.027	0.149	0.168
-707.631	335.580	-0.082	-0.161
-706.616	41.653	-0.273	-0.249
-705.602	-41.200	-0.162	-0.084
-704.587	130.077	0.150	0.193
-703.572	203.009	-0.071	-0.111
-702.558	-79.580	-0.102	0.035
-701.543	-200.000	-0.013	0.209
-700.529	-46.254	-0.264	0.131
-699.514	21.971	-0.124	-0.102
-698.499	633.426	0.149	0.382
-697.485	130.644	-0.085	0.110
-696.470	-54.349	0.137	0.063
-695.456	-200.000	0.006	0.121
-694.441	-73.686	0.253	0.093
-693.426	-200.000	-0.038	-0.300
-692.412	-200.000	-0.030	0.233
-691.397	-151.150	-0.312	-0.024
-690.383	-200.000	-0.020	-0.099
-689.368	173.432	0.108	0.157
-688.354	49.201	0.247	-0.234
-687.339	-200.000	0.033	-0.194
-686.324	-24.372	0.150	-0.090
-685.310	159.980	-0.222	-0.311
-684.295	-14.283	-0.234	0.152
-683.281	43.573	0.096	-0.088
-682.266	-100.387	-0.148	-0.037
-681.251	800.000	0.094	0.374
-680.237	29.618	-0.300	0.258
-679.222	-124.260	0.286	-0.045
-678.208	276.389	-0.054	0.097
-677.193	-155.066	-0.173	-0.011
-676.178	-200.000	0.052	0.430
-675.164	181.282	-0.235	0.348
-674.149	-200.000	0.073	-0.386
-673.135	3.915	-0.110	0.081
-672.120	-155.685	0.203	0.013
-671.105	-200.000	0.004	0.126
-670.091	32.501	-0.078	0.068
-669.076	215.858	-0.140	-0.225
-668.062	593.512	0.134	-0.334
-667.047	-87.999	-0.529	-0.160
-666.032	133.741	0.231	0.301
-665.018	-38.746	-0.184	-0.098
-664.003	12.239	-0.285	-0.221
-662.989	349.601	-0.088	0.175
-661.974	176.313	0.200	0.293
-660.959	-133.889	0.131	-0.016
-659.945	-67.928	-0.222	0.087
-658.930	800.000	-0.063	0.210
-657.916	237.429	0.193	-0.323
-656.901	-27.314	-0.235	-0.138
-655.886	-60.357	-0.299	0.128
-654.872	150.879	-0.073	0.099
-653.857	-52.924	-0.347	-0.161
-652.843	-200.000	0.007	-0.536
-651.828	364.100	-0.079	-0.160
-650.814	27.122	-0.116	-0.098
-649.799	-3.724	-0.114	-0.080
-648.784	10.648	-0.124	-0.095
-647.770	800.000	0.078	0.281
-646.755	108.344	-0.208	-0.250
-645.741	-96.187	0.168	0.045
-644.726	141.393	-0.040	-0.054
-643.711	51.869	0.166	-0.159
-642.697	47.758	0.325	-0.305
-641.682	-200.000	-0.040	-0.328
-640.668	744.983	-0.132	-0.358
-639.653	136.260	0.103	-0.135
-638.638	38.676	-0.238	0.214
-637.624	-155.161	-0.245	-0.016
-636.609	-116.063	-0.194	0.036
-635.595	-87.385	-0.202	-0.062
-634.580	-39.571	-0.219	0.115
-633.565	-200.000	-0.017	0.355
-632.551	-6.928	-0.185	-0.127
-631.536	49.899	0.060	-0.057
-630.522	800.000	-0.100	-0.355
-629.507	800.000	-0.019	0.060
-628.492	66.935	0.210	-0.215
-627.478	450.536	0.182	-0.405
-626.463	-200.000	-0.016	0.112
-625.449	-161.072	0.374	-0.020
-624.434	380.144	-0.046	-0.094
-623.419	-7.706	-0.235	-0.160
-622.405	47.584	-0.180	-0.169
-621.390	76.589	0.121	0.129
-620.376	550.479	-0.077	0.186
-619.361	-200.000	-0.090	-0.841
-618.346	-33.954	-0.047	0.026
-617.332	91.575	-0.199	0.225
-616.317	-110.363	-0.184	0.038
-615.303	-30.675	0.131	0.074
-614.288	24.760	0.310	0.259
-613.273	800.000	-0.096	-0.270
-612.259	800.000	-0.041	-0.117
-611.244	-80.148	0.234	-0.079
-610.230	-200.000	-0.043	-0.213
-609.215	-167.949	0.130	0.005
-608.201	-200.000	0.005	-0.183
-607.186	800.000	-0.006	-0.021
-606.171	-35.653	0.511	0.279
-605.157	-200.000	-0.042	-0.344
-604.142	-179.007	0.211	-0.005
-603.128	-86.985	-0.266	0.081
-602.113	-200.000	-0.005	0.328
-601.098	-79.630	-0.211	-0.072
-600.084	125.428	-0.161	-0.204
-599.069	-124.579	0.047	-0.007
-598.055	800.000	-0.097	-0.276
-597.040	-90.927	0.180	0.052
-596.025	-120.853	0.130	0.022
-595.011	59.161	-0.214	-0.211
-593.996	-200.000	0.018	0.217
-592.982	134.406	-0.098	-0.128
-591.967	129.146	0.217	0.278
-590.952	26.634	-0.285	-0.240
-589.938	-91.877	0.233	0.066
-588.923	109.712	0.228	-0.275
-587.909	800.000	0.004	-0.014
-586.894	-62.529	0.369	0.154
-585.879	7.668	0.049	-0.037
-584.865	144.544	0.143	-0.192
-583.850	-157.126	-0.088	-0.005
-582.836	-9.860	0.148	0.099
-581.821	104.117	-0.170	-0.200
-580.806	-151.679	-0.099	0.007
-579.792	-200.000	0.019	-0.142
-578.777	19.289	0.154	-0.124
-577.763	181.897	0.111	0.164
-576.748	-200.000	0.037	0.214
-575.733	274.373	-0.167	0.296
-574.719	258.784	-0.090	0.155
-573.704	104.222	-0.054	0.064
-572.690	-200.000	-0.012	-0.075
-571.675	40.343	-0.295	-0.267
-570.661	-111.164	-0.150	0.031
-569.646	59.784	-0.054	-0.054
-568.631	-200.000	-0.020	-0.102
-567.617	111.957	0.304	0.368
-566.602	800.000	0.160	-0.468
-565.588	-90.060	-0.257	-0.075
-564.573	-96.627	0.087	-0.023
-563.558	800.000	-0.126	0.385
-562.544	-108.075	0.418	-0.091
-561.529	800.000	-0.046	0.143
-560.515	-200.000	-0.011	0.230
-559.500	800.000	0.079	-0.232
-558.485	115.547	-0.130	0.159
-557.471	147.553	-0.064	0.087
-556.456	-24.496	0.180	-0.108
-555.442	-41.358	0.388	0.201
-554.427	262.087	-0.062	0.108
-553.412	-200.000	-0.006	0.166
-552.398	498.080	-0.059	0.137
-551.383	-91.814	-0.200	-0.057
-550.369	-200.000	0.036	-0.271
-549.354	70.460	0.196	0.203
-548.339	800.000	0.166	-0.507
-547.325	-21.767	-0.129	0.078
-546.310	-32.892	0.242	-0.135
-545.296	-133.091	-0.145	0.018
-544.281	-200.000	-0.037	-0.232
-543.266	-200.000	-0.014	0.125
-542.252	740.620	-0.103	-0.277
-541.237	-200.000	-0.019	-0.151
-540.223	800.000	-0.056	-0.231
-539.208	800.000	0.123	0.348
-538.193	149.369	-0.050	-0.068
-537.179	505.226	-0.170	-0.395
-536.164	-200.000	-0.001	0.034
-535.150	-73.366	0.220	0.081
-534.135	218.301	-0.100	0.161
-533.121	-123.731	0.094	-0.015
-532.106	237.875	0.148	-0.245
-531.091	16.741	-0.191	-0.151
-530.077	353.928	-0.055	0.110
-529.062	-47.214	0.347	0.169
-528.048	-200.000	-0.006	-0.205
-527.033	210.166	0.064	0.100
-526.018	60.020	0.028	0.028
-525.004	124.830	0.090	0.113
-523.989	79.436	-0.171	0.184
-522.975	0.532	-0.096	0.068
-521.960	203.521	0.083	-0.129
-520.945	145.913	-0.153	0.206
-519.931	222.307	0.040	-0.065
-518.916	90.689	-0.184	-0.207
-517.902	-0.273	0.073	-0.052
-516.887	-106.069	0.188	-0.042
-515.872	711.382	0.027	-0.072
-514.858	236.399	-0.197	-0.327
-513.843	-142.377	0.276	-0.027
-512.829	-200.000	-0.002	0.053
-511.814	800.000	0.101	-0.330
-510.799	769.798	0.035	-0.095
-509.785	83.726	0.193	-0.211
-508.770	-103.649	0.401	-0.094
-507.756	800.000	-0.089	0.259
-506.741	41.284	-0.175	0.158
-505.726	694.598	-0.057	-0.151
-504.712	29.669	0.167	0.142
-503.697	-200.000	-0.075	-0.374
-502.683	-92.127	-0.521	0.148
-501.668	-137.455	0.109	0.012
-500.653	-3.923	-0.287	-0.199
-499.639	-24.802	-0.283	-0.169
-498.624	23.826	-0.089	-0.074
-497.610	-1.731	-0.222	0.156
-496.595	-7.454	0.205	-0.139
-495.581	800.000	-0.085	-0.365
-494.566	-89.885	-0.161	-0.047
-493.551	17.416	0.096	-0.076
-492.537	-0.444	-0.370	-0.263
-491.522	36.136	-0.178	0.157
-490.508	-9.951	-0.325	0.217
-489.493	678.972	-0.063	0.163
-488.478	-72.213	-0.144	-0.054
-487.464	77.642	0.193	0.206
-486.449	-148.153	0.451	-0.037
-485.435	-200.000	0.016	0.126
-484.420	42.919	-0.132	-0.120
-483.405	222.983	0.204	-0.329
-482.391	-90.934	-0.352	-0.101
-481.376	752.954	0.085	0.228
-480.362	1.972	0.102	-0.074
-479.347	118.030	-0.095	0.117
-478.332	-160.050	-0.344	-0.019
-477.318	800.000	0.099	-0.339
-476.303	-32.257	-0.056	0.031
-475.289	-200.000	-0.017	-0.194
-474.274	-4.454	-0.153	-0.105
-473.259	-62.686	-0.371	-0.154
-472.245	-43.998	0.432	0.217
-471.230	19.740	-0.165	-0.133
-470.216	-52.991	0.102	-0.047
-469.201	217.280	-0.214	0.341
-468.186	-77.373	0.089	-0.031
-467.172	184.462	0.148	0.220
-466.157	624.719	-0.061	-0.153
-465.143	-125.330	0.087	0.013
-464.128	-22.121	-0.169	0.102
-463.113	270.881	0.096	-0.169
-462.099	-133.839	-0.227	0.028
-461.084	-65.116	0.160	-0.064
-460.070	-79.410	-0.354	-0.120
-459.055	190.897	-0.110	-0.166
-458.040	403.730	-0.112	-0.236
-457.026	6.190	-0.045	0.033
-456.011	120.182	0.332	0.412
-454.997	800.000	-0.033	0.122
-453.982	-200.000	-0.011	-0.116
-452.968	178.117	0.144	-0.210
-451.953	214.654	-0.105	-0.166
-450.938	-200.000	0.001	-0.095
-449.924	800.000	0.017	-0.074
-448.909	-176.546	-0.187	0.005
-447.895	176.233	0.026	0.038
-446.880	18.561	0.043	-0.035
-445.865	-200.000	0.032	-0.198
-444.851	-84.655	0.409	-0.129
-443.836	-200.000	0.002	0.318
-442.822	-200.000	0.012	-0.234
-441.807	-74.026	-0.210	0.076
-440.792	-173.220	-0.221	0.007
-439.778	-194.754	-0.212	-0.002
-438.763	339.527	0.095	-0.185
-437.749	800.000	-0.080	0.295
-436.734	800.000	-0.067	0.219
-435.719	63.330	0.100	-0.100
-434.705	-72.909	-0.443	0.163
-433.690	-91.756	0.135	-0.038
-432.676	-200.000	-0.033	0.354
-431.661	-39.715	0.166	0.087
-430.646	276.899	0.173	-0.306
-429.632	238.705	-0.102	0.169
-428.617	-66.663	0.101	0.040
-427.603	800.000	-0.044	0.122
-426.588	243.273	0.092	-0.154
-425.573	9.660	0.229	-0.173
-424.559	80.622	-0.207	-0.222
-423.544	58.594	-0.049	0.048
-422.530	-51.578	-0.060	0.028
-421.515	-167.142	0.136	-0.006
-420.500	47.396	0.285	-0.265
-419.486	-59.350	0.023	0.010
-418.471	101.229	0.093	-0.108
-417.457	-52.199	0.230	0.106
-416.442	-97.914	0.156	-0.040
-415.428	2.904	-0.045	-0.033
-414.413	-200.000	0.008	0.262
-413.398	-28.480	-0.166	0.096
-412.384	31.294	-0.281	0.241
-411.369	488.790	-0.054	0.122
-410.355	18.958	-0.135	0.108
-409.340	-200.000	-0.006	-0.034
-408.325	186.622	-0.118	-0.175
-407.311	-9.251	0.109	0.073
-406.296	-200.000	-0.047	0.228
-405.282	-200.000	-0.009	-0.125
-404.267	355.122	0.082	-0.163
-403.252	141.431	0.211	0.279
-402.238	-199.866	-0.134	-0.001
-401.223	136.041	0.297	0.386
-400.209	-97.577	-0.035	0.009
-399.194	317.993	0.149	-0.282
-398.179	-33.176	0.403	-0.223
-397.165	167.342	-0.258	0.366
-396.150	125.838	-0.188	0.236
-395.136	-120.972	-0.152	-0.025
-394.121	-100.115	-0.177	0.044
-393.106	800.000	0.063	0.177
-392.092	407.411	0.039	0.081
-391.077	-45.090	0.072	-0.035
-390.063	-83.450	-0.053	0.017
-389.048	158.601	0.199	-0.275
-388.033	-72.159	-0.455	0.168
-387.019	157.428	0.056	-0.077
-386.004	-200.000	-0.008	0.135
-384.990	-200.000	0.049	0.378
-383.975	64.365	0.089	-0.089
-382.960	264.462	0.188	-0.326
-381.946	431.127	-0.072	-0.155
-380.931	-66.846	0.254	-0.100
-379.917	-147.108	0.635	0.054
-378.902	93.001	0.067	-0.075
-377.888	21.717	-0.292	-0.237
-376.873	-88.063	0.024	0.007
-375.858	-60.723	0.134	0.056
-374.844	800.000	-0.045	-0.137
-373.829	31.568	0.020	-0.017
-372.815	-134.932	-0.370	-0.045
-371.800	52.210	0.193	-0.184
-370.785	-0.816	0.131	-0.092
-369.771	603.426	-0.094	0.234
-368.756	91.392	-0.150	-0.168
-367.742	-58.685	0.307	-0.132
-366.727	-117.012	0.124	0.023
-365.712	-200.000	-0.032	0.231
-364.698	-42.856	-0.151	-0.077
-363.683	-110.645	-0.121	0.025
-362.669	-200.000	-0.023	0.147
-361.654	2.199	-0.096	0.069
-360.639	-200.000	-0.018	-0.145
-359.625	-124.883	-0.285	-0.044
-358.610	-200.000	-0.024	-0.276
-357.596	31.147	0.175	0.149
-356.581	-45.718	-0.223	0.110
-355.566	28.178	-0.076	-0.064
-354.552	-76.378	0.228	-0.080
-353.537	-90.042	0.162	-0.047
-352.523	371.853	0.120	-0.242
-351.508	-125.265	0.164	0.025
-350.493	18.022	0.166	0.132
-349.479	730.585	0.211	0.560
-348.464	-25.716	0.119	0.070
-347.450	68.062	-0.130	-0.132
-346.435	-156.922	-0.214	0.013
-345.420	-80.091	-0.225	0.075
-344.406	-47.129	0.074	0.036
-343.391	800.000	0.095	-0.374
-342.377	51.280	0.150	-0.141
-341.362	-84.725	0.114	0.036
-340.348	57.529	0.186	-0.181
-339.333	-117.390	-0.301	-0.054
-338.318	331.590	-0.073	0.140
-337.304	-62.654	-0.202	-0.083
-336.289	-77.103	-0.310	-0.107
-335.275	354.619	-0.049	0.097
-334.260	800.000	-0.041	-0.153
-333.245	-54.955	0.135	-0.061
-332.231	-86.466	0.184	-0.056
-331.216	800.000	0.040	-0.118
-330.202	-91.617	-0.420	0.119
-329.187	235.058	-0.053	0.087
-328.172	73.123	-0.152	0.158
-327.158	-115.581	-0.428	0.080
-326.143	273.310	0.152	0.267
-325.129	-200.000	-0.033	-0.161
-324.114	93.519	0.154	0.174
-323.099	764.045	-0.062	0.167
-322.085	76.679	-0.184	0.194
-321.070	-100.449	-0.224	-0.055
-320.056	-14.131	-0.259	-0.166
-319.041	102.328	0.094	0.109
-318.026	-67.334	0.120	0.047
-317.012	-200.000	-0.086	0.421
-315.997	92.105	-0.201	-0.225
-314.983	64.006	0.188	0.187
-313.968	-103.404	0.383	-0.090
-312.953	-68.900	0.182	-0.070
-311.939	-46.842	0.122	-0.059
-310.924	-200.000	0.008	0.170
-309.910	215.066	0.099	0.156
-308.895	-10.249	-0.058	0.039
-307.880	251.292	0.219	-0.370
-306.866	-200.000	0.008	0.097
-305.851	552.468	-0.097	0.232
-304.837	87.644	0.242	-0.266
-303.822	33.078	0.133	0.114
-302.807	-200.000	0.091	0.410
-301.793	0.746	-0.385	0.274
-300.778	-67.411	0.316	0.123
-299.764	-123.353	0.437	-0.069
-298.749	189.573	0.062	0.092
-297.735	44.356	0.195	-0.178
-296.720	-200.000	-0.039	0.331
-295.705	116.292	0.260	-0.316
-294.691	-200.000	-0.017	-0.196
-293.676	-200.000	0.031	-0.164
-292.662	-123.766	-0.111	-0.017
-291.647	-189.653	-0.063	0.001
-290.632	-200.000	-0.009	-0.379
-289.618	-117.905	0.119	-0.021
-288.603	71.368	0.143	-0.148
-287.589	-27.961	-0.248	0.143
-286.574	505.452	0.066	-0.151
-285.559	128.527	-0.100	0.127
-284.545	91.377	0.144	0.160
-283.530	-200.000	-0.023	0.432
-282.516	169.787	0.140	0.199
-281.501	800.000	0.058	0.184
-280.486	-200.000	0.012	0.195
-279.472	542.415	0.028	0.066
-278.457	455.098	-0.134	0.295
-277.443	-55.560	0.205	0.091
-276.428	-17.587	-0.142	0.089
-275.413	80.448	0.104	-0.111
-274.399	332.597	-0.023	0.043
-273.384	144.847	0.119	0.157
-272.370	87.317	0.046	0.050
-271.355	-164.450	-0.657	-0.030
-270.340	134.852	-0.167	0.215
-269.326	800.000	-0.066	-0.253
-268.311	196.676	-0.222	0.336
-267.297	295.357	0.150	0.273
-266.282	-200.000	0.003	-0.054
-265.267	-200.000	0.030	0.191
-264.253	241.085	-0.161	-0.267
-263.238	-40.026	0.117	-0.060
-262.224	800.000	0.082	0.320
-261.209	-78.795	0.174	-0.059
-260.195	-99.565	0.100	-0.025
-259.180	-200.000	0.036	0.275
-258.165	211.724	-0.120	0.188
-257.151	-68.578	-0.147	0.057
-256.136	-88.216	-0.166	0.049
-255.122	800.000	-0.042	0.147
-254.107	-92.486	0.343	-0.096
-253.092	800.000	0.092	-0.315
-252.078	391.778	0.100	0.205
-251.063	-81.165	0.257	-0.084
-250.049	-200.000	-0.033	0.158
-249.034	-147.187	-0.297	-0.025
-248.019	-10.197	-0.338	0.222
-247.005	-66.095	0.029	0.011
-245.990	-113.928	-0.094	-0.018
-244.976	-141.025	-0.136	0.014
-243.961	218.009	0.119	0.188
-242.946	381.151	0.137	0.278
-241.932	186.371	-0.087	0.128
-240.917	-200.000	-0.006	-0.179
-239.903	75.707	-0.231	0.242
-238.888	97.599	0.089	-0.101
-237.873	-200.000	-0.040	0.209
-236.859	-51.706	-0.126	0.058
-235.844	800.000	-0.057	0.224
-234.830	7.617	0.084	0.062
-233.815	490.041	0.037	0.085
-232.800	761.991	0.165	0.443
-231.786	-200.000	0.078	0.407
-230.771	236.744	-0.073	-0.119
-229.757	800.000	-0.124	-0.411
-228.742	-2.347	0.149	0.104
-227.727	8.037	0.123	0.091
-226.713	800.000	0.076	0.215
-225.698	-158.002	-0.393	-0.023
-224.684	-20.191	-0.329	-0.201
-223.669	562.018	-0.149	0.357
-222.655	-162.496	-0.295	-0.014
-221.640	-200.000	0.034	-0.181
-220.625	38.618	0.098	-0.087
-219.611	755.939	-0.132	-0.355
-218.596	49.789	-0.025	-0.024
-217.582	800.000	0.065	-0.277
-216.567	-10.359	0.395	0.259
-215.552	573.744	-0.118	0.285
-214.538	4.471	-0.133	0.097
-213.523	-200.000	-0.074	0.432
-212.509	326.479	-0.153	-0.291
-211.494	158.938	-0.024	0.033
-210.479	-169.593	-0.128	-0.005
-209.465	-200.000	-0.005	-0.168
-208.450	800.000	-0.045	0.185
-207.436	-174.428	0.373	0.011
-206.421	-200.000	-0.011	-0.418
-205.406	-78.453	0.115	0.039
-204.392	-200.000	-0.039	-0.197
-203.377	-146.464	0.046	-0.004
-202.363	749.506	-0.124	-0.331
-201.348	-200.000	-0.039	0.288
-200.333	-138.732	-0.088	-0.010
-199.319	-180.702	-0.326	0.007
-198.304	123.908	0.240	-0.298
-197.290	-118.199	-0.166	0.029
-196.275	98.172	0.083	0.094
-195.260	-169.278	0.234	0.009
-194.246	-64.135	0.194	0.078
-193.231	403.595	-0.117	0.244
-192.217	-200.000	0.012	0.055
-191.202	90.426	-0.156	0.172
-190.187	-114.395	0.136	-0.026
-189.173	-54.822	0.225	0.100
-188.158	33.193	0.199	0.170
-187.144	-200.000	0.020	0.201
-186.129	-127.016	0.177	-0.026
-185.114	-200.000	0.007	-0.059
-184.100	-91.346	0.041	0.012
-183.085	-200.000	0.060	0.384
-182.071	492.062	0.027	-0.061
-181.056	17.695	0.078	-0.062
-180.042	-165.783	0.126	-0.005
-179.027	56.278	0.112	0.107
-178.012	-74.870	-0.138	0.049
-176.998	-126.910	-0.238	0.035
-175.983	124.568	0.096	0.119
-174.969	106.060	0.067	0.079
-173.954	-176.330	-0.034	0.001
-172.939	800.000	-0.069	-0.209
-171.925	179.296	-0.081	-0.118
-170.910	15.151	0.050	0.039
-169.896	-95.326	-0.155	-0.041
-168.881	62.163	0.071	0.070
-167.866	60.755	0.192	0.188
-166.852	-46.194	-0.272	0.132
-165.837	38.979	0.219	0.193
-164.823	18.702	-0.016	0.012
-163.808	-83.798	-0.519	-0.163
-162.793	0.098	0.117	0.083
-161.779	-200.000	0.052	-0.361
-160.764	-39.264	0.282	-0.146
-159.750	-32.872	-0.309	-0.170
-158.735	-200.000	0.054	-0.241
-157.720	44.663	0.180	0.164
-156.706	178.259	0.160	0.230
-155.691	-10.805	0.316	0.206
-154.677	105.684	-0.081	-0.094
-153.662	-200.000	-0.021	-0.421
-152.647	343.364	0.041	0.080
-151.633	-172.403	0.270	-0.008
-150.618	781.871	0.054	0.145
-149.604	-121.371	-0.108	0.018
-148.589	612.552	0.079	-0.196
-147.574	77.398	0.043	0.045
-146.560	109.048	0.117	-0.138
-145.545	-90.268	0.137	0.039
-144.531	-77.408	-0.277	0.095
-143.516	329.758	-0.073	-0.139
-142.502	-74.104	-0.342	0.122
-141.487	-58.600	0.167	-0.072
-140.472	441.762	-0.100	-0.215
-139.458	217.207	-0.102	-0.160
-138.443	556.833	-0.090	-0.214
-137.429	-200.000	0.064	-0.401
-136.414	-92.331	0.140	-0.039
-135.399	800.000	-0.016	0.066
-134.385	-16.099	0.249	0.156
-133.370	24.282	0.312	-0.254
-132.356	325.123	-0.108	-0.203
-131.341	-200.000	-0.048	-0.000
-130.326	-154.517	0.249	0.016
-129.312	178.582	0.123	0.177
-128.297	34.448	-0.142	-0.123
-127.283	318.902	0.055	0.102
-126.268	421.240	-0.157	0.331
-125.253	-200.000	0.010	0.214
-124.239	-65.709	0.288	-0.114
-123.224	54.167	-0.396	-0.376
-122.210	310.949	0.063	0.116
-121.195	-30.387	0.372	0.208
-120.180	532.070	0.060	0.139
-119.166	-200.000	-0.026	0.303
-118.151	50.927	0.197	0.184
-117.137	-120.561	-0.271	0.045
-116.122	637.547	0.169	0.424
-115.107	-62.522	-0.117	-0.048
-114.093	11.586	-0.086	-0.065
-113.078	-200.000	-0.032	-0.210
-112.064	800.000	0.036	-0.118
-111.049	800.000	0.015	0.058
-110.034	74.176	-0.021	0.021
-109.020	108.997	0.134	-0.158
-108.005	-67.837	0.457	0.176
-106.991	311.837	0.033	-0.061
-105.976	800.000	-0.070	-0.224
-104.962	-83.230	0.341	0.108
-103.947	257.216	0.121	0.206
-102.932	-133.851	0.196	-0.024
-101.918	-48.649	0.197	-0.093
-100.903	90.839	-0.199	0.220
-99.889	236.620	0.233	0.379
-98.874	-54.123	0.199	0.089
-97.859	-16.320	-0.331	-0.207
-96.845	338.536	0.132	0.253
-95.830	800.000	-0.025	-0.089
-94.816	-200.000	0.013	0.175
-93.801	687.954	0.058	-0.149
-92.786	14.846	-0.126	0.097
-91.772	800.000	0.138	-0.381
-90.757	-131.264	0.197	0.026
-89.743	-90.753	-0.119	0.034
-88.728	31.105	-0.115	-0.097
-87.713	405.503	0.065	-0.135
-86.699	232.615	-0.150	-0.242
-85.684	-1.051	-0.244	0.170
-84.670	-26.732	-0.209	-0.120
-83.655	-85.737	-0.103	-0.032
-82.640	217.166	-0.119	0.186
-81.626	800.000	0.115	0.328
-80.611	-49.980	0.363	0.169
-79.597	-200.000	-0.004	0.279
-78.582	-200.000	0.021	0.427
-77.567	500.049	-0.097	-0.221
-76.553	20.180	0.350	-0.278
-75.538	175.012	0.096	-0.136
-74.524	-175.983	-0.120	-0.003
-73.509	-200.000	-0.027	-0.166
-72.494	800.000	0.035	0.106
-71.480	10.877	-0.166	0.125
-70.465	-86.263	0.131	0.040
-69.451	-34.728	0.042	0.023
-68.436	19.940	-0.287	-0.227
-67.422	-4.198	0.235	-0.160
-66.407	62.370	0.209	0.205
-65.392	269.170	0.070	0.121
-64.378	40.027	0.025	-0.022
-63.363	50.518	0.130	-0.121
-62.349	89.108	-0.067	0.074
-61.334	96.230	-0.830	-0.934
-60.319	27.057	0.852	0.704
-59.305	126.235	-0.385	-0.478
-58.290	105.039	0.969	1.125
-57.276	377.990	0.821	1.652
-56.261	-200.000	96.648	602.899
-55.246	647.302	1377.637	3463.052
-54.232	198.090	2554.939	3841.508
-53.217	121.322	2138.738	2619.778
-52.203	44.035	1599.183	1441.683
-51.188	35.338	1336.862	1153.152
-50.173	32.127	1295.092	1098.334
-49.159	54.570	1342.857	1272.891
-48.144	56.889	1359.684	1302.572
-47.130	35.443	1318.120	1137.428
-46.115	31.946	1300.403	1101.601
-45.100	31.818	1295.344	1096.526
-44.086	31.682	1293.514	1094.137
-43.071	31.665	1290.936	1091.816
-42.057	31.461	1289.655	1089.498
-41.042	31.680	1286.978	1088.466
-40.027	31.670	1285.881	1087.439
-39.013	31.738	1284.017	1086.212
-37.998	31.623	1282.106	1083.886
-36.984	31.781	1280.484	1083.386
-35.969	31.767	1278.871	1081.900
-34.954	31.819	1276.904	1080.491
-33.940	31.825	1275.876	1079.612
-32.925	31.809	1274.355	1078.191
-31.911	31.898	1272.658	1077.221
-30.896	31.814	1271.559	1075.769
-29.881	31.798	1270.514	1074.749
-28.867	31.933	1268.803	1074.032
-27.852	31.977	1266.831	1072.574
-26.838	31.916	1265.819	1071.327
-25.823	31.876	1264.651	1070.063
-24.809	31.867	1263.091	1068.654
-23.794	31.781	1262.260	1067.417
-22.779	31.875	1260.691	1066.583
-21.765	31.873	1259.425	1065.458
-20.750	31.764	1257.986	1063.580
-19.736	31.729	1256.658	1062.214
-18.721	31.624	1256.132	1061.135
-17.706	31.639	1254.514	1059.807
-16.692	31.686	1253.567	1059.235
-15.677	31.744	1252.535	1058.645
-14.663	31.656	1251.031	1056.836
-13.648	31.614	1250.419	1056.044
-12.633	31.767	1248.876	1055.560
-11.619	31.723	1248.139	1054.643
-10.604	31.687	1247.397	1053.774
-9.590	31.560	1246.510	1052.268
-8.575	31.655	1245.480	1051.889
-7.560	31.624	1244.602	1050.931
-6.546	31.653	1243.571	1050.185
-5.531	31.638	1242.609	1049.244
-4.517	31.596	1242.344	1048.743
-3.502	31.648	1241.289	1048.105
-2.487	31.674	1240.294	1047.368
-1.473	31.712	1235.585	1043.560
-0.458	30.199	1220.924	1022.801
0.556	25.442	1203.320	985.054
1.571	21.626	1209.300	968.794
2.586	20.814	1224.170	976.071
3.600	20.343	1212.805	964.306
4.615	15.482	1141.985	882.427
5.629	7.886	1070.143	789.300
6.644	4.709	1050.757	759.442
7.659	4.476	1048.543	756.643
8.673	4.433	1047.432	755.565
9.688	4.472	1046.100	754.728
10.702	4.645	1043.887	753.901
11.717	8.983	1049.263	778.817
12.731	15.971	1059.301	820.339
13.746	18.633	1062.695	835.880
14.761	17.944	1060.962	831.091
15.775	16.935	1059.082	824.643
16.790	15.837	1057.237	817.799
17.804	15.062	1055.654	812.741
18.819	14.751	1054.379	810.182
19.834	14.652	1053.483	808.941
20.848	14.304	1052.335	806.303
21.863	14.153	1051.676	804.995
22.877	14.126	1050.633	803.995
23.892	14.054	1049.975	803.071
24.907	14.073	1049.171	802.477
25.921	14.062	1048.306	801.695
26.936	14.039	1047.236	800.695
27.950	14.131	1046.170	800.248
28.965	14.203	1044.308	799.101
29.980	14.384	1042.289	798.351
30.994	14.269	1041.934	797.461
32.009	14.340	1041.166	797.139
33.023	14.266	1039.899	795.746
34.038	14.189	1038.824	794.484
35.053	14.205	1037.749	793.670
36.067	14.199	1036.597	792.691
37.082	14.152	1036.252	792.133
38.096	14.219	1035.434	791.757
39.111	14.254	1034.569	791.189
40.126	14.243	1032.984	789.854
41.140	13.978	1032.384	788.069
42.155	13.911	1031.364	786.904
43.169	13.840	1030.057	785.503
44.184	13.833	1029.058	784.636
45.199	13.893	1028.083	784.109
46.213	13.838	1026.872	782.856
47.228	14.018	1025.963	782.941
48.242	14.290	1024.384	782.947
49.257	14.094	1023.716	781.445
50.271	14.038	1023.095	780.637
51.286	14.069	1022.431	780.210
52.301	14.064	1021.478	779.389
53.315	14.102	1020.352	778.638
54.330	14.031	1019.409	777.519
55.344	14.028	1018.317	776.604
56.359	14.161	1017.453	776.497
57.374	14.005	1016.561	775.018
58.388	14.058	1015.431	774.337
59.403	13.817	1015.034	772.844
60.417	13.868	1014.167	772.353
61.432	13.839	1013.270	771.466
62.447	13.786	1012.734	770.742
63.461	13.775	1011.443	769.641
64.476	13.816	1010.568	769.098
65.490	13.847	1009.803	768.588
66.505	13.902	1009.315	768.403
67.520	13.813	1008.505	767.309
68.534	13.903	1007.985	767.261
69.549	13.792	1007.021	765.949
70.563	13.762	1006.530	765.366
71.578	13.673	1005.660	764.226
72.593	13.785	1004.578	763.855
73.607	13.634	1004.120	762.744
74.622	13.779	1003.365	762.770
75.636	13.797	1002.763	762.325
76.651	13.858	1001.850	761.847
77.666	13.796	1001.443	761.186
78.680	13.737	1000.715	760.293
79.695	13.826	1000.312	760.325
80.709	13.797	999.973	759.867
81.724	13.853	998.818	759.180
82.739	13.913	998.656	759.265
83.753	14.082	998.022	759.488
84.768	14.315	996.604	759.405
85.782	14.226	995.776	758.298
86.797	14.161	994.887	757.260
87.812	14.146	993.655	756.187
88.826	14.167	993.306	755.950
89.841	14.107	992.286	754.834
90.855	14.171	991.639	754.564
91.870	14.372	990.473	754.524
92.884	14.361	989.558	753.706
93.899	14.336	988.667	752.849
94.914	14.308	988.150	752.266
95.928	14.270	987.355	751.421
96.943	14.308	986.279	750.708
97.957	14.238	985.822	749.978
98.972	14.302	984.592	749.263
99.987	14.253	984.223	748.695
101.001	14.328	982.797	747.883
102.016	14.258	981.881	746.802
103.030	14.294	981.633	746.712
104.045	14.265	980.836	745.907
105.060	14.201	979.671	744.669
106.074	13.925	978.806	742.714
107.089	13.844	978.246	741.859
108.103	13.909	977.001	741.140
109.118	13.858	976.043	740.120
110.133	13.865	975.296	739.519
111.147	14.013	973.812	738.987
112.162	13.984	973.596	738.628
113.176	13.996	973.077	738.221
114.191	13.940	972.327	737.339
115.206	14.072	971.589	737.301
116.220	14.023	970.372	736.096
117.235	14.064	969.791	735.772
118.249	14.016	969.121	734.985
119.264	14.047	968.170	734.338
120.279	13.934	967.750	733.451
121.293	13.925	966.474	732.382
122.308	13.904	966.175	731.999
123.322	13.811	964.896	730.555
124.337	13.927	963.758	730.140
125.352	13.827	963.035	729.088
126.366	13.783	961.890	727.964
127.381	13.914	960.723	727.591
128.395	13.854	960.066	726.766
129.410	14.102	959.020	726.991
130.424	14.019	958.025	725.812
131.439	14.164	957.556	726.026
132.454	14.107	956.770	725.116
133.468	14.145	956.294	724.858
134.483	14.122	954.762	723.530
135.497	14.125	954.414	723.214
136.512	14.085	953.927	722.608
137.527	14.169	952.884	722.122
138.541	14.146	952.005	721.289
139.556	14.049	951.310	720.281
140.570	14.332	950.674	720.962
141.585	14.393	949.773	720.477
142.600	14.351	948.853	719.535
143.614	14.401	948.359	719.311
144.629	14.342	947.245	718.150
145.643	14.386	945.966	717.303
146.658	14.216	945.457	716.122
147.673	14.128	944.555	714.997
148.687	14.168	943.762	714.506
149.702	14.019	943.126	713.321
150.716	14.132	941.923	712.834
151.731	14.139	941.649	712.593
152.746	14.128	940.661	711.737
153.760	14.182	940.178	711.539
154.775	14.338	939.466	711.601
155.789	14.367	938.965	711.286
156.804	14.341	938.088	710.445
157.819	14.434	937.377	710.242
158.833	14.555	936.847	710.293
159.848	14.452	936.233	709.324
160.862	14.346	935.452	708.221
161.877	14.179	934.276	706.557
162.892	14.204	933.403	705.939
163.906	14.177	932.360	704.977
164.921	14.199	931.488	704.349
165.935	14.295	930.628	704.040
166.950	14.202	930.065	703.158
167.964	14.278	929.069	702.666
168.979	14.272	928.325	702.014
169.994	14.242	927.349	701.088
171.008	14.339	926.722	700.960
172.023	14.326	926.222	700.465
173.037	14.609	925.149	700.781
174.052	14.445	924.390	699.455
175.067	14.392	923.718	698.664
176.081	14.343	923.432	698.181
177.096	14.229	923.039	697.342
178.110	14.251	922.469	696.942
179.125	14.365	921.451	696.587
180.140	14.335	920.994	696.056
181.154	14.479	920.729	696.396
182.169	14.567	920.196	696.298
183.183	14.585	919.277	695.618
184.198	14.639	918.469	695.169
185.213	14.427	918.336	694.125
186.227	14.649	917.321	694.217
187.242	14.706	916.756	693.967
188.256	14.732	916.475	693.801
189.271	14.673	915.570	692.807
190.286	14.434	914.758	691.144
191.300	14.334	913.898	690.018
192.315	14.227	913.535	689.237
193.329	14.287	912.835	688.896
194.344	14.488	911.916	688.975
195.359	14.356	911.638	688.157
196.373	14.619	910.821	688.564
197.388	14.645	910.934	688.698
198.402	14.772	910.602	688.911
199.417	14.777	909.693	688.182
200.432	14.864	909.064	688.004
201.446	15.063	908.340	688.212
202.461	14.986	908.009	687.584
203.475	14.938	907.589	687.007
204.490	14.799	906.868	685.829
205.504	14.881	905.705	685.227
206.519	14.792	905.211	684.425
207.534	14.784	904.668	683.922
208.548	14.827	903.638	683.261
209.563	14.808	903.216	682.804
210.577	14.990	902.215	682.729
211.592	15.081	901.701	682.650
212.607	14.955	901.545	681.957
213.621	14.993	900.311	681.117
214.636	14.926	899.635	680.276
215.650	14.970	899.075	679.972
216.665	15.064	898.305	679.710
217.680	15.154	897.614	679.490
218.694	15.278	896.657	679.209
219.709	15.166	896.402	678.500
220.723	15.083	895.947	677.761
221.738	14.973	895.419	676.858
222.753	15.160	894.746	677.045
223.767	15.190	894.121	676.631
224.782	15.373	893.283	676.676
225.796	15.223	893.189	675.940
226.811	15.257	892.119	675.209
227.826	15.248	891.478	674.627
228.840	15.179	890.648	673.661
229.855	15.125	889.977	672.879
230.869	15.103	889.297	672.218
231.884	15.104	888.736	671.737
232.899	15.240	887.640	671.395
233.913	15.023	887.459	670.328
234.928	14.922	886.721	669.308
235.942	15.131	885.788	669.377
236.957	15.154	885.318	669.058
237.972	15.017	884.893	668.130
238.986	15.145	883.974	667.887
240.001	15.171	883.525	667.594
241.015	15.235	882.458	666.982
242.030	15.168	882.411	666.622
243.045	15.210	882.141	666.523
244.059	15.294	881.329	666.185
245.074	15.234	880.710	665.419
246.088	15.248	880.142	664.989
247.103	15.460	879.210	665.067
248.117	15.345	878.825	664.260
249.132	15.579	878.480	664.864
250.147	15.682	877.568	664.523
251.161	15.711	877.025	664.169
252.176	15.770	876.759	664.144
253.190	15.730	875.857	663.242
254.205	15.792	874.977	662.760
255.220	15.802	874.219	662.168
256.234	15.825	874.073	662.090
257.249	15.899	873.282	661.723
258.263	15.746	872.894	660.770
259.278	15.926	871.457	660.329
260.293	15.980	871.185	660.274
261.307	15.803	871.220	659.551
262.322	15.877	870.156	658.975
263.336	16.001	869.478	658.890
264.351	15.914	868.891	658.047
265.366	15.913	868.007	657.313
266.380	16.027	867.274	657.145
267.395	16.021	866.627	656.575
268.409	15.866	866.132	655.536
269.424	15.972	865.044	655.069
270.439	16.006	864.398	654.652
271.453	15.792	864.155	653.577
272.468	15.831	863.410	653.111
273.482	15.898	862.682	652.761
274.497	15.799	862.739	652.362
275.512	15.879	861.610	651.759
276.526	15.950	861.265	651.716
277.541	16.068	860.804	651.768
278.555	15.968	860.149	650.828
279.570	15.967	859.937	650.604
280.585	15.930	858.989	649.688
281.599	15.957	858.031	649.007
282.614	16.017	856.917	648.341
283.628	15.879	857.058	647.856
284.643	16.097	856.118	647.927
285.657	15.897	855.793	646.855
286.672	15.995	855.264	646.774
287.687	16.100	854.408	646.475
288.701	16.219	853.712	646.347
289.716	16.075	853.302	645.426
290.730	16.155	852.597	645.142
291.745	16.162	851.931	644.609
292.760	16.239	851.480	644.503
293.774	16.283	851.029	644.272
294.789	16.153	850.760	643.516
295.803	16.185	849.527	642.651
296.818	16.172	849.032	642.167
297.833	16.151	848.684	641.770
298.847	16.120	847.914	641.011
299.862	16.215	847.399	640.925
300.876	16.284	846.904	640.756
301.891	16.448	846.109	640.719
302.906	16.447	845.502	640.200
303.920	16.605	845.092	640.432
304.935	16.490	844.880	639.779
305.949	16.584	844.077	639.470
306.964	16.504	843.374	638.581
307.979	16.447	843.180	638.160
308.993	16.527	842.171	637.641
310.008	16.612	841.407	637.326
311.022	16.515	840.670	636.348
312.037	16.578	839.902	635.947
313.052	16.364	839.883	635.073
314.066	16.298	839.750	634.665
315.081	16.434	838.453	634.141
316.095	16.390	838.136	633.681
317.110	16.384	837.595	633.191
318.125	16.385	836.886	632.605
319.139	16.398	836.737	632.484
320.154	16.487	835.978	632.187
321.168	16.422	835.382	631.436
322.183	16.554	834.726	631.378
323.197	16.648	834.736	631.681
324.212	16.516	833.940	630.530
325.227	16.532	833.293	630.046
326.241	16.497	832.883	629.550
327.256	16.529	831.968	628.919
328.270	16.493	831.573	628.434
329.285	16.486	831.213	628.078
330.300	16.557	830.849	628.012
331.314	16.610	830.083	627.575
332.329	16.722	829.729	627.666
333.343	16.724	829.199	627.216
334.358	16.772	828.641	626.916
335.373	16.766	828.476	626.715
336.387	16.725	828.079	626.206
337.402	16.754	828.361	626.474
338.416	16.804	827.640	626.057
339.431	16.992	827.070	626.263
340.446	16.980	826.603	625.812
341.460	17.035	826.425	625.823
342.475	17.126	825.813	625.639
343.489	16.937	825.818	624.894
344.504	17.113	825.107	624.946
345.519	17.093	824.449	624.318
346.533	17.245	823.563	624.150
347.548	16.956	823.302	622.837
348.562	16.994	822.620	622.405
349.577	17.003	821.926	621.857
350.592	16.886	821.692	621.196
351.606	16.891	821.270	620.841
352.621	16.974	820.490	620.502
353.635	17.116	819.715	620.379
354.650	16.993	819.285	619.549
355.665	17.128	818.425	619.338
356.679	17.175	817.784	618.969
357.694	17.126	816.960	618.111
358.708	17.125	816.936	618.036
359.723	17.045	816.219	617.148
360.738	16.979	815.762	616.506
361.752	17.114	814.933	616.315
362.767	17.348	814.414	616.717
363.781	17.344	813.686	616.097
364.796	17.384	813.834	616.299
365.810	17.484	813.028	615.995
366.825	17.520	812.681	615.810
367.840	17.388	812.409	615.070
368.854	17.305	811.782	614.243
369.869	17.372	811.258	614.035
370.883	17.467	811.161	614.249
371.898	17.355	810.565	613.337
372.913	17.419	810.308	613.322
373.927	17.500	809.944	613.283
374.942	17.424	809.222	612.408
375.956	17.598	808.948	612.772
376.971	17.579	808.779	612.521
377.986	17.669	808.388	612.497
379.000	17.784	807.383	612.093
380.015	17.606	807.227	611.280
381.029	17.493	806.716	610.436
382.044	17.687	805.864	610.432
383.059	17.721	805.329	610.095
384.073	17.623	804.746	609.249
385.088	17.610	804.298	608.808
386.102	17.566	803.819	608.233
387.117	17.447	803.298	607.363
388.132	17.560	802.330	606.977
389.146	17.709	802.184	607.345
390.161	17.656	801.362	606.482
391.175	17.785	800.772	606.440
392.190	17.692	800.720	606.017
393.205	17.665	800.205	605.477
394.219	17.502	799.950	604.651
395.234	17.439	799.610	604.119
396.248	17.380	799.299	603.618
397.263	17.631	798.108	603.557
398.278	17.537	798.430	603.414
399.292	17.568	797.643	602.873
400.307	17.568	797.214	602.495
401.321	17.678	796.463	602.264
402.336	17.820	796.103	602.441
403.350	17.864	795.793	602.308
404.365	17.822	795.221	601.674
405.380	17.849	794.746	601.358
406.394	17.973	794.062	601.220
407.409	18.033	793.909	601.263
408.423	18.020	793.694	601.001
409.438	17.978	793.509	600.662
410.453	18.148	792.895	600.739
411.467	18.265	792.541	600.829
412.482	18.288	792.063	600.496
413.496	18.287	791.733	600.189
414.511	18.284	791.151	599.682
415.526	18.204	790.570	598.910
416.540	18.172	790.373	598.594
417.555	18.282	789.845	598.528
418.569	18.209	789.859	598.231
419.584	18.194	789.414	597.786
420.599	18.053	789.075	596.983
421.613	156.274	1370.398	1794.148
422.628	135.126	1455.122	1794.226
