DTS Sentinel unit serial number:	SN413079Multiplexer serial number:	ORYXHardware model number:	OX4-SRSoftware version number:	ORYX F/W v4.00 Oryx Data Collector v3.7.2.0data status	okinstallation	princeton_trtdifferential loss correction	single-endedforward channel	channel 1reverse channel	N/Adate	2019/09/13time	15:46:35forward acquisition time	60.00reverse acquisition time	0.00gamma	496.2192k internal	0.2308k external	0.2308temperature offset calibration	1.0162default loss term (dB/km)	0.3790temperature slope calibration	1.0000multiplexer offset coefficient	1.0000multiplexer slope coefficient	1.0000fibre end	0.00T internal ref (°C)	34.73T ext. ref 1 (°C)	4.76T ext. ref 2 (°C)	29.39length (m)	temperature (°C)	Stokes	anti-Stokes-747.200	800.000	0.044	-0.131
-746.185	-119.429	0.343	0.061
-745.171	42.341	0.084	-0.077
-744.156	-145.174	-0.127	0.012
-743.142	4.718	-0.174	0.130
-742.127	-73.421	-0.091	0.034
-741.112	-67.801	-0.225	-0.090
-740.098	220.355	0.090	0.146
-739.083	800.000	0.047	-0.156
-738.069	-40.901	-0.217	0.114
-737.054	-200.000	-0.073	-0.329
-736.039	-81.897	-0.121	0.040
-735.025	120.906	-0.294	0.371
-734.010	-158.236	-0.564	0.033
-732.996	800.000	0.037	-0.158
-731.981	-200.000	-0.004	-0.256
-730.966	-10.781	0.256	-0.172
-729.952	-37.968	-0.324	-0.175
-728.937	53.359	0.140	-0.137
-727.923	133.323	-0.080	0.105
-726.908	8.116	-0.119	-0.091
-725.894	-104.609	-0.268	-0.063
-724.879	84.040	-0.159	-0.176
-723.864	115.399	-0.217	0.269
-722.850	-19.766	0.125	0.078
-721.835	779.315	0.115	-0.318
-720.821	240.350	-0.140	-0.236
-719.806	-200.000	0.069	-0.526
-718.791	-200.000	-0.007	0.239
-717.777	-82.453	-0.207	0.068
-716.762	-17.675	-0.169	0.108
-715.748	-200.000	0.068	-0.346
-714.733	-200.000	0.004	-0.164
-713.718	20.950	-0.144	0.118
-712.704	104.072	0.049	0.059
-711.689	22.961	-0.238	0.198
-710.675	273.419	-0.053	-0.095
-709.660	100.064	-0.144	-0.169
-708.645	-200.000	-0.045	0.214
-707.631	-200.000	-0.062	0.323
-706.616	-7.657	-0.098	-0.067
-705.602	-74.288	-0.112	-0.041
-704.587	-200.000	-0.009	0.082
-703.572	34.416	0.204	0.180
-702.558	200.539	0.143	0.224
-701.543	-126.435	0.170	0.026
-700.529	-200.000	-0.115	-0.001
-699.514	-32.820	0.336	0.190
-698.499	74.245	-0.197	-0.209
-697.485	-200.000	0.097	-0.498
-696.470	800.000	0.063	0.180
-695.456	-22.438	-0.144	0.088
-694.441	39.313	0.073	-0.066
-693.426	-27.229	-0.213	0.126
-692.412	-76.172	0.300	0.107
-691.397	146.109	0.073	-0.099
-690.383	-138.102	-0.075	-0.008
-689.368	10.537	0.193	-0.149
-688.354	152.246	0.273	0.377
-687.339	-73.841	-0.140	-0.052
-686.324	136.140	0.130	0.172
-685.310	70.151	0.039	0.041
-684.295	-22.543	-0.190	-0.117
-683.281	-157.920	-0.231	0.014
-682.266	-200.000	0.025	-0.318
-681.251	302.590	0.016	-0.030
-680.237	-56.411	-0.370	-0.166
-679.222	-190.604	0.204	-0.002
-678.208	150.011	0.163	0.224
-677.193	236.729	-0.144	0.241
-676.178	42.043	0.137	0.126
-675.164	-82.826	-0.120	0.039
-674.149	-45.219	-0.323	0.162
-673.135	419.917	-0.073	0.158
-672.120	800.000	0.066	0.244
-671.105	-32.241	-0.284	0.161
-670.091	-35.412	-0.182	-0.100
-669.076	-47.863	-0.162	-0.080
-668.062	220.120	-0.095	-0.154
-667.047	-95.916	0.058	-0.016
-666.032	-200.000	-0.003	-0.245
-665.018	23.416	-0.122	-0.102
-664.003	-122.264	0.155	0.026
-662.989	139.577	0.175	-0.233
-661.974	-3.296	-0.334	-0.236
-660.959	266.728	0.071	-0.125
-659.945	-43.937	-0.234	-0.119
-658.930	-44.284	0.246	0.125
-657.916	141.899	-0.221	0.297
-656.901	800.000	0.073	0.236
-655.886	-20.886	-0.214	0.133
-654.872	-71.886	0.078	-0.030
-653.857	-60.290	0.248	0.107
-652.843	20.519	-0.120	-0.098
-651.828	231.777	0.168	-0.279
-650.814	1.544	0.331	0.241
-649.799	-126.785	-0.257	-0.038
-648.784	-69.792	-0.232	0.090
-647.770	25.640	-0.088	0.074
-646.755	778.535	-0.006	-0.016
-645.741	77.276	-0.204	0.219
-644.726	95.934	-0.038	0.044
-643.711	-91.854	-0.130	-0.037
-642.697	102.075	-0.180	0.213
-641.682	-100.978	-0.212	-0.053
-640.668	102.770	0.071	-0.084
-639.653	-21.941	0.254	-0.156
-638.638	800.000	0.035	0.146
-637.624	-136.275	-0.132	0.016
-636.609	105.744	-0.091	0.109
-635.595	-129.524	-0.087	-0.012
-634.580	-200.000	0.065	-0.343
-633.565	151.691	-0.088	-0.121
-632.551	-200.000	0.020	-0.241
-631.536	-95.435	0.046	0.013
-630.522	240.567	-0.023	0.039
-629.507	307.024	0.031	-0.058
-628.492	208.307	-0.117	-0.185
-627.478	-200.000	0.063	-0.282
-626.463	-55.664	0.378	-0.171
-625.449	-195.782	-0.167	0.001
-624.434	2.278	-0.350	-0.256
-623.419	-35.527	0.140	0.077
-622.405	-97.664	0.160	0.042
-621.390	20.847	-0.090	0.074
-620.376	50.118	-0.254	-0.243
-619.361	-44.038	0.137	-0.070
-618.346	-77.195	0.188	0.066
-617.332	-128.696	-0.099	-0.014
-616.317	-200.000	-0.012	-0.088
-615.303	-83.641	0.271	0.088
-614.288	92.719	0.291	0.333
-613.273	800.000	0.097	0.414
-612.259	716.792	0.060	0.160
-611.244	-82.078	-0.279	-0.092
-610.230	175.393	0.253	0.370
-609.215	350.587	-0.115	-0.230
-608.201	232.733	0.210	0.350
-607.186	-14.866	-0.164	0.106
-606.171	196.695	0.189	-0.291
-605.157	-200.000	0.036	0.200
-604.142	-200.000	0.004	-0.389
-603.128	39.012	-0.058	-0.052
-602.113	800.000	-0.041	-0.123
-601.098	210.294	-0.249	-0.395
-600.084	8.068	0.176	-0.134
-599.069	372.611	0.138	0.284
-598.055	75.704	0.227	-0.242
-597.040	-128.593	0.055	0.008
-596.025	800.000	0.053	-0.214
-595.011	-186.664	-0.293	0.004
-593.996	-22.154	0.227	-0.139
-592.982	800.000	0.090	0.394
-591.967	-107.926	-0.296	-0.065
-590.952	103.738	0.160	0.189
-589.938	-100.990	-0.113	-0.028
-588.923	48.469	0.102	-0.096
-587.909	31.984	-0.105	0.091
-586.894	80.535	0.169	-0.184
-585.879	195.927	-0.114	-0.175
-584.865	-90.830	-0.141	-0.041
-583.850	-200.000	-0.024	0.129
-582.836	-53.007	0.237	-0.110
-581.821	-68.548	-0.260	0.102
-580.806	461.800	-0.222	0.499
-579.792	-200.000	0.015	0.236
-578.777	-160.332	0.163	-0.009
-577.763	205.119	0.014	0.022
-576.748	347.002	0.080	-0.158
-575.733	72.261	0.127	0.134
-574.719	421.191	0.217	0.470
-573.704	-49.478	0.262	0.126
-572.690	196.456	0.170	0.262
-571.675	110.593	-0.070	0.085
-570.661	-142.541	0.112	-0.011
-569.646	-175.564	0.092	-0.003
-568.631	-111.798	0.269	0.055
-567.617	-116.102	-0.127	-0.024
-566.602	453.383	0.142	0.316
-565.588	-200.000	0.016	0.296
-564.573	75.846	-0.262	0.280
-563.558	800.000	0.043	0.164
-562.544	8.363	-0.024	-0.018
-561.529	-105.796	-0.285	0.065
-560.515	-69.796	-0.251	-0.097
-559.500	391.416	0.158	0.332
-558.485	-74.951	0.229	0.083
-557.471	-84.109	-0.255	-0.082
-556.456	392.884	0.082	0.173
-555.442	-200.000	-0.038	0.238
-554.427	80.721	-0.166	-0.180
-553.412	-200.000	0.000	-0.021
-552.398	486.821	-0.041	0.094
-551.383	-127.879	0.274	-0.040
-550.369	-200.000	0.073	0.332
-549.354	-200.000	0.031	-0.180
-548.339	142.300	-0.141	0.189
-547.325	-134.452	-0.273	-0.034
-546.310	59.733	0.173	0.172
-545.296	-120.761	-0.072	-0.012
-544.281	-26.617	-0.374	-0.221
-543.266	-123.416	0.157	-0.025
-542.252	-200.000	-0.013	0.155
-541.237	-6.821	0.225	0.154
-540.223	-200.000	0.011	0.239
-539.208	-66.409	-0.251	0.100
-538.193	86.234	0.158	0.175
-537.179	-200.000	-0.056	-0.397
-536.164	-200.000	-0.033	-0.163
-535.150	-87.217	0.097	-0.030
-534.135	-65.991	0.168	0.068
-533.121	185.528	0.176	0.264
-532.106	27.835	0.129	-0.110
-531.091	8.604	0.113	0.086
-530.077	-118.794	0.156	-0.028
-529.062	205.550	0.179	-0.280
-528.048	800.000	0.019	0.079
-527.033	-32.924	-0.220	0.123
-526.018	-16.157	0.387	-0.248
-525.004	227.695	0.250	0.410
-523.989	-52.619	-0.467	-0.217
-522.975	151.620	0.095	-0.130
-521.960	800.000	-0.026	-0.106
-520.945	27.863	-0.179	0.152
-519.931	190.817	0.137	-0.208
-518.916	422.818	-0.134	0.290
-517.902	800.000	-0.093	-0.397
-516.887	113.063	0.124	0.152
-515.872	-112.770	0.150	0.030
-514.858	-184.223	-0.196	-0.003
-513.843	800.000	-0.142	-0.458
-512.829	-119.686	0.435	-0.076
-511.814	528.639	-0.108	-0.256
-510.799	-85.402	0.129	0.041
-509.785	-105.238	-0.286	-0.066
-508.770	-93.225	0.325	0.091
-507.756	-16.380	-0.183	-0.117
-506.741	-33.623	-0.205	0.114
-505.726	-200.000	-0.028	-0.183
-504.712	301.678	0.036	0.066
-503.697	-78.312	0.169	-0.059
-502.683	-95.042	-0.572	0.156
-501.668	-111.883	0.440	-0.090
-500.653	149.295	0.271	-0.369
-499.639	-39.753	-0.174	-0.092
-498.624	6.541	-0.158	-0.118
-497.610	93.708	-0.159	-0.182
-496.595	-132.457	0.225	-0.029
-495.581	358.427	0.142	0.285
-494.566	709.663	-0.138	0.368
-493.551	33.907	-0.203	-0.178
-492.537	-23.029	-0.117	0.071
-491.522	-200.000	-0.010	0.109
-490.508	226.026	0.038	-0.062
-489.493	47.157	0.161	0.150
-488.478	-70.720	0.237	0.090
-487.464	9.565	0.202	-0.154
-486.449	311.883	-0.059	0.111
-485.435	19.522	-0.066	0.054
-484.420	-16.796	0.184	-0.117
-483.405	-72.804	0.339	-0.125
-482.391	133.226	-0.147	0.190
-481.376	57.464	-0.213	0.210
-480.362	-200.000	-0.025	0.251
-479.347	325.674	0.033	-0.063
-478.332	173.965	-0.125	-0.182
-477.318	-14.813	-0.094	-0.060
-476.303	-77.282	0.364	-0.127
-475.289	-200.000	-0.007	-0.215
-474.274	51.200	0.097	-0.092
-473.259	4.803	-0.133	0.099
-472.245	26.461	0.164	-0.138
-471.230	716.604	-0.069	0.185
-470.216	186.915	0.086	0.129
-469.201	-34.797	-0.047	0.026
-468.186	292.187	0.223	-0.409
-467.172	246.610	-0.208	-0.352
-466.157	-79.864	0.277	0.094
-465.143	170.727	0.137	0.197
-464.128	7.646	0.206	0.155
-463.113	-115.128	-0.153	0.029
-462.099	35.714	0.248	0.219
-461.084	110.552	-0.085	-0.102
-460.070	-155.929	-0.330	-0.021
-459.055	-80.616	0.228	0.076
-458.040	24.556	0.082	-0.068
-457.026	-117.940	0.110	0.020
-456.011	248.556	-0.073	0.125
-454.997	800.000	-0.115	-0.358
-453.982	-200.000	0.026	-0.187
-452.968	64.048	0.229	0.231
-451.953	800.000	-0.038	0.128
-450.938	-117.837	0.261	-0.047
-449.924	800.000	0.058	0.191
-448.909	-98.425	-0.233	-0.060
-447.895	273.233	0.107	0.190
-446.880	124.438	0.110	0.138
-445.865	739.623	-0.064	-0.173
-444.851	-200.000	-0.003	-0.046
-443.836	202.204	-0.245	0.379
-442.822	548.702	0.058	-0.139
-441.807	-200.000	0.005	-0.286
-440.792	115.938	-0.175	-0.215
-439.778	800.000	0.023	0.094
-438.763	88.892	0.133	-0.149
-437.749	299.846	-0.056	-0.104
-436.734	-115.157	-0.389	-0.074
-435.719	-158.172	0.013	0.001
-434.705	-200.000	0.069	-0.317
-433.690	-152.695	-0.189	0.014
-432.676	47.375	-0.120	0.112
-431.661	260.701	-0.085	-0.148
-430.646	-200.000	-0.008	0.115
-429.632	639.470	-0.056	0.144
-428.617	28.706	-0.136	-0.116
-427.603	125.657	0.099	-0.126
-426.588	57.871	-0.176	0.173
-425.573	-39.110	0.046	0.025
-424.559	115.036	-0.051	-0.063
-423.544	-200.000	-0.007	-0.113
-422.530	-200.000	0.016	-0.139
-421.515	-161.846	0.120	0.006
-420.500	29.375	0.069	0.059
-419.486	800.000	0.021	-0.066
-418.471	128.408	-0.081	-0.103
-417.457	338.154	-0.152	-0.296
-416.442	800.000	0.075	-0.229
-415.428	498.667	0.036	0.082
-414.413	791.557	0.081	0.224
-413.398	64.587	-0.113	-0.114
-412.384	-200.000	-0.034	-0.257
-411.369	381.222	-0.087	-0.178
-410.355	-200.000	0.038	-0.532
-409.340	263.370	0.011	-0.020
-408.325	-56.501	0.055	-0.025
-407.311	-164.640	-0.141	0.006
-406.296	-83.693	-0.595	-0.190
-405.282	-200.000	0.010	0.266
-404.267	800.000	-0.085	0.268
-403.252	-41.988	0.155	0.080
-402.238	76.897	0.203	0.216
-401.223	87.697	0.076	0.084
-400.209	800.000	0.055	0.210
-399.194	800.000	0.029	0.081
-398.179	-42.402	0.211	0.108
-397.165	-59.473	-0.191	0.082
-396.150	682.202	0.125	-0.326
-395.136	-137.064	-0.263	-0.030
-394.121	450.946	-0.076	-0.168
-393.106	800.000	-0.064	0.219
-392.092	-200.000	-0.026	0.166
-391.077	-191.115	-0.087	0.001
-390.063	-83.283	-0.257	0.083
-389.048	-130.075	0.251	0.034
-388.033	800.000	-0.079	0.263
-387.019	-8.926	-0.287	-0.193
-386.004	193.538	0.111	-0.168
-384.990	-17.419	0.114	-0.072
-383.975	727.750	0.124	0.332
-382.960	164.410	-0.073	-0.103
-381.946	-200.000	0.003	-0.158
-380.931	-30.296	-0.112	0.064
-379.917	-200.000	0.017	0.185
-378.902	-80.289	-0.323	0.108
-377.888	-65.325	0.285	0.115
-376.873	738.585	-0.107	0.288
-375.858	542.595	-0.105	0.251
-374.844	-200.000	0.008	-0.101
-373.829	-156.736	-0.421	0.026
-372.815	401.702	0.009	0.020
-371.800	-200.000	-0.020	0.144
-370.785	108.349	-0.071	0.084
-369.771	-200.000	0.020	-0.273
-368.756	264.070	0.083	-0.144
-367.742	255.796	-0.053	0.091
-366.727	694.486	-0.098	-0.257
-365.712	-176.193	0.233	0.006
-364.698	-124.462	0.134	0.021
-363.683	139.380	0.081	0.106
-362.669	-117.783	0.299	-0.054
-361.654	171.979	-0.051	0.074
-360.639	-200.000	0.031	-0.170
-359.625	107.025	-0.243	-0.289
-358.610	-90.075	-0.229	0.067
-357.596	109.523	-0.234	0.281
-356.581	290.162	-0.191	-0.347
-355.566	-158.826	-0.268	0.015
-354.552	-59.761	-0.209	-0.089
-353.537	-59.880	-0.302	-0.129
-352.523	-59.006	0.368	0.159
-351.508	32.159	-0.076	0.066
-350.493	-200.000	-0.015	-0.089
-349.479	-200.000	0.044	-0.222
-348.464	304.139	-0.101	0.187
-347.450	552.895	-0.067	0.160
-346.435	-104.840	0.328	0.075
-345.420	800.000	0.027	0.114
-344.406	-200.000	0.014	-0.213
-343.391	-21.374	0.203	-0.124
-342.377	-74.824	0.120	-0.043
-341.362	210.255	0.214	-0.335
-340.348	86.360	-0.111	0.123
-339.333	-200.000	0.016	0.220
-338.318	-36.720	0.263	-0.141
-337.304	30.554	0.029	0.025
-336.289	671.779	0.070	-0.181
-335.275	25.309	-0.189	-0.157
-334.260	-114.323	0.083	0.016
-333.245	-200.000	0.021	0.489
-332.231	143.983	0.009	-0.012
-331.216	193.657	-0.218	0.331
-330.202	349.082	-0.037	-0.074
-329.187	-24.919	-0.342	-0.203
-328.172	-19.710	0.205	-0.127
-327.158	163.358	-0.086	0.121
-326.143	-75.985	-0.099	-0.035
-325.129	-117.174	0.356	-0.065
-324.114	-92.419	-0.292	0.082
-323.099	-200.000	-0.036	0.160
-322.085	-86.330	0.205	-0.063
-321.070	-145.712	-0.016	-0.001
-320.056	-77.448	0.172	-0.060
-319.041	126.157	0.150	-0.190
-318.026	4.561	-0.185	-0.135
-317.012	-145.278	0.476	-0.043
-315.997	17.348	0.064	-0.051
-314.983	-47.895	-0.131	-0.063
-313.968	367.334	-0.046	0.092
-312.953	-100.992	-0.237	0.058
-311.939	-200.000	0.005	0.102
-310.924	-200.000	-0.018	0.237
-309.910	-148.501	-0.345	-0.028
-308.895	-139.780	-0.437	0.046
-307.880	348.861	-0.091	0.180
-306.866	-153.249	-0.247	0.017
-305.851	-111.011	-0.230	0.047
-304.837	-4.390	-0.240	-0.166
-303.822	800.000	-0.072	0.247
-302.807	95.959	0.168	-0.191
-301.793	800.000	-0.068	-0.273
-300.778	-200.000	-0.024	-0.122
-299.764	-37.228	-0.265	-0.141
-298.749	-92.692	-0.153	-0.043
-297.735	251.178	-0.147	-0.250
-296.720	68.407	-0.099	-0.101
-295.705	-200.000	0.084	0.427
-294.691	-12.183	-0.082	0.054
-293.676	-160.106	0.112	-0.006
-292.662	-22.608	0.277	0.167
-291.647	19.120	-0.205	-0.164
-290.632	-200.000	-0.002	-0.313
-289.618	140.448	0.227	0.299
-288.603	-128.088	0.495	-0.071
-287.589	800.000	-0.012	-0.046
-286.574	-51.314	0.206	-0.096
-285.559	-200.000	-0.024	-0.190
-284.545	-45.154	0.080	-0.039
-283.530	77.229	0.144	0.153
-282.516	4.587	-0.165	-0.121
-281.501	97.551	-0.155	0.177
-280.486	319.900	-0.079	0.149
-279.472	7.834	-0.305	-0.228
-278.457	-132.067	0.151	-0.020
-277.443	114.164	-0.206	-0.251
-276.428	-200.000	-0.003	0.101
-275.413	-200.000	0.037	0.383
-274.399	332.877	-0.054	0.104
-273.384	279.690	0.176	0.313
-272.370	-6.463	0.059	-0.040
-271.355	-200.000	-0.007	-0.344
-270.340	-200.000	-0.039	-0.272
-269.326	-61.383	-0.115	-0.048
-268.311	-161.285	-0.273	0.014
-267.297	-108.431	0.250	-0.054
-266.282	-200.000	0.006	0.207
-265.267	-104.132	-0.221	0.051
-264.253	-123.390	0.129	0.021
-263.238	4.769	0.054	0.040
-262.224	-78.650	0.131	0.045
-261.209	-45.420	0.276	0.137
-260.195	-76.013	0.115	0.041
-259.180	332.307	0.052	0.101
-258.165	145.458	0.111	-0.148
-257.151	80.825	-0.078	0.084
-256.136	-200.000	0.036	0.212
-255.122	-13.383	0.118	0.076
-254.107	-45.343	-0.166	0.082
-253.092	-134.435	0.167	-0.020
-252.078	0.669	-0.132	-0.094
-251.063	583.139	-0.163	-0.398
-250.049	-3.534	-0.074	-0.052
-249.034	-62.835	-0.064	-0.026
-248.019	138.159	0.103	-0.134
-247.005	-48.984	0.028	0.014
-245.990	193.846	0.090	0.136
-244.976	-200.000	0.003	-0.071
-243.961	-99.112	0.270	-0.068
-242.946	-114.802	0.098	0.019
-241.932	-50.512	-0.312	-0.146
-240.917	28.232	-0.124	0.104
-239.903	12.550	0.137	-0.105
-238.888	-200.000	0.000	0.329
-237.873	156.913	0.029	-0.040
-236.859	-59.351	0.095	0.041
-235.844	19.546	-0.380	-0.304
-234.830	326.191	0.164	-0.313
-233.815	-41.619	-0.038	0.019
-232.800	-200.000	-0.016	-0.102
-231.786	-64.572	0.107	-0.043
-230.771	-159.853	-0.147	0.008
-229.757	800.000	0.106	0.302
-228.742	-49.500	-0.036	0.017
-227.727	-200.000	0.072	0.417
-226.713	-18.856	-0.114	-0.071
-225.698	-99.816	-0.258	0.064
-224.684	791.521	-0.025	-0.070
-223.669	-200.000	-0.013	0.185
-222.655	-200.000	0.026	-0.248
-221.640	694.506	0.078	-0.205
-220.625	-200.000	-0.139	0.001
-219.611	-200.000	-0.069	-0.346
-218.596	212.222	0.165	-0.259
-217.582	-15.942	0.283	-0.180
-216.567	13.407	0.169	0.130
-215.552	227.061	-0.024	0.039
-214.538	627.723	-0.085	-0.214
-213.523	99.364	0.190	0.219
-212.509	-76.521	0.250	0.088
-211.494	-80.975	0.336	-0.111
-210.479	-68.987	0.388	-0.149
-209.465	26.687	0.240	0.200
-208.450	-65.490	-0.266	0.106
-207.436	60.329	0.200	0.197
-206.421	37.669	-0.099	-0.087
-205.406	-47.626	-0.209	0.101
-204.392	39.198	0.185	0.165
-203.377	-48.831	0.230	0.110
-202.363	-200.000	-0.011	-0.219
-201.348	800.000	0.043	-0.175
-200.333	40.456	-0.203	-0.182
-199.319	93.135	0.147	-0.165
-198.304	-132.606	-0.288	0.037
-197.290	80.138	-0.027	-0.029
-196.275	-14.322	-0.321	0.205
-195.260	26.790	0.159	0.133
-194.246	-34.646	-0.275	-0.150
-193.231	17.608	-0.205	0.162
-192.217	800.000	-0.107	0.339
-191.202	168.979	0.067	0.094
-190.187	42.397	0.077	0.070
-189.173	-200.000	0.007	0.308
-188.158	79.350	0.104	0.111
-187.144	800.000	-0.023	-0.074
-186.129	-2.871	-0.089	-0.062
-185.114	207.436	0.061	-0.095
-184.100	-48.883	0.260	-0.124
-183.085	158.745	-0.187	0.259
-182.071	38.707	-0.288	0.255
-181.056	-110.363	0.121	0.025
-180.042	5.151	0.111	0.082
-179.027	-106.347	0.108	0.024
-178.012	-157.184	-0.138	-0.008
-176.998	132.523	0.131	0.168
-175.983	482.825	0.039	-0.088
-174.969	-200.000	-0.032	0.157
-173.954	-200.000	0.003	-0.316
-172.939	-41.214	-0.056	-0.029
-171.925	-189.129	0.176	0.002
-170.910	61.211	0.227	0.224
-169.896	-70.047	0.110	-0.042
-168.881	-34.282	0.206	-0.112
-167.866	72.655	0.187	-0.194
-166.852	-43.726	0.067	0.034
-165.837	22.751	-0.084	0.068
-164.823	-12.312	0.278	-0.180
-163.808	-78.611	-0.138	-0.047
-162.793	207.498	0.126	-0.195
-161.779	-200.000	-0.022	-0.147
-160.764	-89.680	-0.142	-0.041
-159.750	21.192	0.251	0.203
-158.735	-62.870	-0.090	0.037
-157.720	-90.583	-0.409	0.117
-156.706	187.975	0.071	-0.105
-155.691	800.000	-0.026	0.105
-154.677	-200.000	0.022	-0.407
-153.662	-3.200	0.320	-0.221
-152.647	-174.082	-0.061	-0.002
-151.633	-142.388	-0.254	0.025
-150.618	71.263	-0.052	-0.054
-149.604	-74.216	0.208	0.075
-148.589	-42.718	-0.154	-0.078
-147.574	51.548	-0.217	0.205
-146.560	-27.806	0.230	0.132
-145.545	668.082	0.058	0.148
-144.531	77.359	0.054	0.057
-143.516	13.395	0.197	0.152
-142.502	60.321	0.188	0.185
-141.487	-100.767	-0.245	-0.060
-140.472	-200.000	-0.011	0.161
-139.458	-200.000	0.032	-0.148
-138.443	25.164	-0.096	0.079
-137.429	800.000	0.009	0.038
-136.414	-180.130	-0.339	-0.007
-135.399	800.000	0.019	0.080
-134.385	-82.084	-0.166	0.054
-133.370	31.103	-0.152	0.129
-132.356	314.783	0.143	-0.267
-131.341	40.297	-0.110	-0.098
-130.326	63.863	0.084	0.084
-129.312	277.084	-0.134	0.236
-128.297	800.000	0.114	-0.426
-127.283	92.255	-0.104	-0.116
-126.268	-43.895	0.034	0.017
-125.253	133.490	0.156	0.200
-124.239	-132.095	-0.195	0.025
-123.224	-200.000	0.041	-0.490
-122.210	87.293	0.146	0.160
-121.195	800.000	0.106	0.362
-120.180	-93.019	0.025	-0.007
-119.166	-142.503	-0.182	0.018
-118.151	-200.000	0.000	0.066
-117.137	230.336	0.084	0.137
-116.122	107.019	0.111	0.131
-115.107	-102.136	-0.102	0.024
-114.093	66.700	0.119	-0.120
-113.078	-200.000	0.001	-0.079
-112.064	-128.083	-0.179	0.025
-111.049	156.528	0.065	0.088
-110.034	171.044	-0.173	-0.246
-109.020	-102.742	-0.323	-0.076
-108.005	376.596	-0.071	-0.144
-106.991	226.535	0.123	-0.198
-105.976	-200.000	-0.024	-0.179
-104.962	87.993	-0.190	0.209
-103.947	60.882	-0.089	0.087
-102.932	143.414	-0.118	0.156
-101.918	-55.014	-0.216	-0.096
-100.903	-100.035	0.250	0.062
-99.889	-200.000	-0.016	0.164
-98.874	-34.540	0.056	-0.030
-97.859	137.445	-0.045	0.058
-96.845	-131.075	0.046	0.006
-95.830	217.744	0.049	0.078
-94.816	297.817	0.056	-0.102
-93.801	-200.000	-0.004	-0.212
-92.786	-35.257	-0.231	-0.124
-91.772	-200.000	0.003	0.130
-90.757	106.725	-0.194	-0.228
-89.743	800.000	-0.037	-0.133
-88.728	-159.269	-0.214	0.012
-87.713	-200.000	0.003	0.087
-86.699	-200.000	0.014	-0.074
-85.684	2.771	0.299	0.215
-84.670	145.153	-0.128	-0.170
-83.655	-104.401	0.246	0.056
-82.640	-27.930	0.252	0.144
-81.626	-90.749	-0.321	0.092
-80.611	-200.000	0.017	0.279
-79.597	800.000	0.073	-0.308
-78.582	349.850	0.127	0.248
-77.567	158.038	-0.181	-0.249
-76.553	-42.906	0.119	0.060
-75.538	-200.000	0.011	0.094
-74.524	-200.000	-0.005	-0.167
-73.509	36.467	0.242	-0.211
-72.494	-200.000	0.024	-0.128
-71.480	-141.182	0.181	0.018
-70.465	226.902	-0.117	0.189
-69.451	288.705	0.040	0.071
-68.436	35.552	0.139	-0.121
-67.422	175.382	0.070	0.101
-66.407	208.331	-0.129	-0.200
-65.392	-200.000	0.042	0.187
-64.378	-78.679	0.300	0.101
-63.363	800.000	-0.129	0.423
-62.349	85.115	-0.074	0.081
-61.334	32.128	-1.177	-1.005
-60.319	185.351	0.216	0.317
-59.305	670.318	-0.369	-0.946
-58.290	94.798	0.766	0.862
-57.276	237.950	0.782	1.285
-56.261	-200.000	98.249	580.334
-55.246	632.938	1400.200	3509.890
-54.232	186.156	2608.768	3838.540
-53.217	122.132	2180.685	2693.452
-52.203	46.655	1630.847	1497.759
-51.188	38.293	1365.848	1203.155
-50.173	34.831	1323.508	1145.118
-49.159	57.125	1372.751	1324.133
-48.144	61.160	1390.656	1365.896
-47.130	38.471	1345.066	1185.737
-46.115	34.804	1327.374	1148.118
-45.100	34.614	1322.297	1142.541
-44.086	34.601	1319.986	1140.422
-43.071	34.512	1317.795	1137.955
-42.057	34.574	1315.378	1136.193
-41.042	34.626	1313.811	1135.100
-40.027	34.599	1312.300	1133.593
-39.013	34.641	1310.318	1132.085
-37.998	34.627	1308.402	1130.297
-36.984	34.788	1306.326	1129.415
-35.969	34.809	1305.124	1128.452
-34.954	34.734	1303.302	1126.390
-33.940	34.791	1301.859	1125.434
-32.925	34.779	1300.856	1124.453
-31.911	34.893	1299.188	1123.636
-30.896	34.800	1297.816	1121.858
-29.881	34.815	1296.677	1120.915
-28.867	34.915	1294.874	1119.902
-27.852	34.783	1293.257	1117.683
-26.838	34.972	1291.726	1117.422
-25.823	34.832	1290.887	1115.835
-24.809	34.784	1289.550	1114.356
-23.794	34.851	1287.795	1113.183
-22.779	34.823	1286.420	1111.788
-21.765	34.780	1285.689	1110.862
-20.750	34.796	1284.264	1109.680
-19.736	34.682	1283.113	1107.978
-18.721	34.668	1282.033	1106.922
-17.706	34.664	1280.833	1105.818
-16.692	34.729	1279.288	1104.819
-15.677	34.792	1277.987	1104.015
-14.663	34.618	1277.318	1102.385
-13.648	34.608	1275.885	1101.051
-12.633	34.618	1275.405	1100.650
-11.619	34.669	1273.905	1099.605
-10.604	34.706	1273.569	1099.482
-9.590	34.650	1272.017	1097.779
-8.575	34.663	1272.026	1097.819
-7.560	34.730	1270.621	1096.947
-6.546	34.601	1270.193	1095.793
-5.531	34.594	1268.577	1094.313
-4.517	34.575	1267.826	1093.515
-3.502	34.677	1267.059	1093.395
-2.487	34.661	1266.201	1092.516
-1.473	34.683	1261.777	1088.782
-0.458	33.037	1246.718	1066.464
0.556	30.833	1226.733	1022.141
1.571	26.295	1230.660	1000.269
2.586	24.810	1244.698	1003.270
3.600	23.447	1232.287	985.603
4.615	17.676	1160.369	897.699
5.629	9.164	1084.206	796.649
6.644	5.107	1063.433	761.544
7.659	4.764	1061.053	758.104
8.673	4.596	1059.800	756.324
9.688	4.565	1058.786	755.383
10.702	5.160	1057.576	757.342
11.717	10.849	1065.403	790.620
12.731	19.187	1076.347	839.477
13.746	22.240	1079.762	856.973
14.761	21.877	1078.798	854.361
15.775	20.923	1076.839	848.093
16.790	19.791	1074.724	840.852
17.804	19.163	1073.365	836.665
18.819	18.947	1072.050	834.517
19.834	18.649	1071.612	832.660
20.848	18.508	1071.340	831.688
21.863	18.401	1070.137	830.163
22.877	18.236	1069.383	828.706
23.892	18.297	1068.519	828.258
24.907	18.264	1067.744	827.424
25.921	18.277	1066.849	826.718
26.936	18.177	1065.688	825.266
27.950	18.234	1064.241	824.348
28.965	18.302	1062.700	823.404
29.980	18.500	1061.163	823.091
30.994	18.689	1060.366	823.312
32.009	18.656	1059.247	822.209
33.023	18.639	1058.021	821.105
34.038	18.412	1057.783	819.759
35.053	18.276	1056.659	818.165
36.067	18.355	1055.619	817.666
37.082	18.409	1054.279	816.813
38.096	18.385	1054.180	816.552
39.111	18.512	1053.255	816.366
40.126	18.337	1051.714	814.266
41.140	18.098	1050.029	811.755
42.155	17.986	1048.885	810.269
43.169	17.852	1048.245	809.067
44.184	17.981	1046.957	808.611
45.199	17.893	1046.034	807.413
46.213	18.061	1045.224	807.510
47.228	18.340	1044.001	807.807
48.242	18.408	1043.147	807.398
49.257	18.376	1041.937	806.238
50.271	18.382	1041.338	805.733
51.286	18.483	1040.660	805.613
52.301	18.334	1039.561	803.989
53.315	18.289	1038.276	802.712
54.330	18.125	1037.466	801.247
55.344	18.003	1036.906	800.173
56.359	18.175	1035.831	800.078
57.374	18.008	1034.741	798.386
58.388	18.074	1032.980	797.263
59.403	17.901	1032.873	796.301
60.417	17.885	1032.044	795.519
61.432	17.970	1031.530	795.450
62.447	17.871	1030.546	794.157
63.461	17.671	1029.721	792.522
64.476	17.665	1028.604	791.563
65.490	17.700	1027.627	790.906
66.505	17.867	1027.047	791.162
67.520	17.782	1026.836	790.537
68.534	17.782	1026.044	789.854
69.549	17.854	1024.810	789.168
70.563	17.745	1024.099	788.049
71.578	17.650	1023.313	786.937
72.593	17.581	1022.410	785.855
73.607	17.663	1021.714	785.625
74.622	17.791	1021.041	785.628
75.636	17.747	1020.597	785.015
76.651	17.588	1020.293	783.982
77.666	17.714	1019.345	783.762
78.680	17.666	1018.676	782.960
79.695	17.862	1017.485	782.875
80.709	17.766	1017.838	782.632
81.724	17.997	1016.885	782.892
82.739	17.976	1016.260	782.246
83.753	18.286	1015.906	783.320
84.768	18.532	1014.975	783.657
85.782	18.581	1014.542	783.481
86.797	18.495	1013.433	782.161
87.812	18.423	1012.365	780.939
88.826	18.468	1011.202	780.176
89.841	18.525	1010.448	779.786
90.855	18.599	1009.928	779.650
91.870	18.697	1009.199	779.464
92.884	18.478	1008.148	777.590
93.899	18.622	1006.889	777.203
94.914	18.673	1006.293	776.904
95.928	18.552	1005.566	775.729
96.943	18.548	1004.491	774.815
97.957	18.446	1003.409	773.447
98.972	18.357	1003.190	772.812
99.987	18.541	1002.120	772.749
101.001	18.515	1000.996	771.696
102.016	18.493	1000.675	771.281
103.030	18.534	999.193	770.254
104.045	18.450	998.814	769.517
105.060	18.297	997.903	768.061
106.074	18.130	996.877	766.455
107.089	17.947	995.702	764.662
108.103	17.855	994.631	763.363
109.118	18.062	993.108	763.049
110.133	17.943	992.288	761.823
111.147	17.838	991.974	761.046
112.162	17.953	991.327	760.992
113.176	17.984	990.888	760.726
114.191	18.150	989.517	760.346
115.206	18.071	988.750	759.337
116.220	17.933	988.439	758.417
117.235	18.035	987.140	757.808
118.249	17.881	986.354	756.456
119.264	17.983	985.819	756.429
120.279	17.889	984.792	755.157
121.293	17.989	983.582	754.606
122.308	17.802	982.968	753.243
123.322	17.718	981.931	752.009
124.337	17.708	980.833	751.060
125.352	17.773	979.941	750.595
126.366	17.833	978.382	749.597
127.381	17.638	977.759	748.197
128.395	17.695	976.947	747.759
129.410	17.817	976.036	747.531
130.424	17.954	975.361	747.547
131.439	18.092	975.046	747.844
132.454	18.158	974.028	747.286
133.468	18.079	973.365	746.367
134.483	18.333	972.278	746.577
135.497	18.234	971.295	745.324
136.512	18.099	970.656	744.178
137.527	18.081	970.217	743.698
138.541	18.067	969.604	743.101
139.556	18.178	968.709	742.834
140.570	18.408	967.976	743.201
141.585	18.582	967.081	743.203
142.600	18.617	966.387	742.758
143.614	18.715	965.476	742.412
144.629	18.640	965.034	741.685
145.643	18.614	963.892	740.628
146.658	18.401	962.785	738.793
147.673	18.190	961.747	737.025
148.687	18.147	960.749	736.008
149.702	18.175	959.507	735.113
150.716	18.059	959.142	734.268
151.731	18.225	958.083	734.106
152.746	18.158	957.673	733.439
153.760	18.243	957.187	733.364
154.775	18.366	956.322	733.167
155.789	18.448	955.769	733.026
156.804	18.371	955.577	732.488
157.819	18.481	954.656	732.184
158.833	18.618	954.154	732.319
159.848	18.677	953.409	731.937
160.862	18.623	951.719	730.344
161.877	18.509	950.507	728.864
162.892	18.217	949.717	726.952
163.906	18.064	948.720	725.478
164.921	18.125	948.134	725.222
165.935	18.297	947.173	725.154
166.950	18.208	946.627	724.292
167.964	18.325	945.548	723.897
168.979	18.355	944.377	723.065
169.994	18.308	943.431	722.076
171.008	18.294	942.941	721.581
172.023	18.476	942.800	722.175
173.037	18.544	942.211	721.948
174.052	18.486	941.266	720.915
175.067	18.277	940.220	719.173
176.081	18.147	939.455	717.976
177.096	18.117	939.039	717.468
178.110	18.238	938.692	717.650
179.125	18.342	937.535	717.138
180.140	18.319	937.556	716.991
181.154	18.413	937.232	717.076
182.169	18.614	936.729	717.468
183.183	18.713	936.017	717.272
184.198	18.537	935.643	716.187
185.213	18.524	934.837	715.450
186.227	18.823	933.495	715.607
187.242	18.884	933.360	715.695
188.256	18.917	933.199	715.644
189.271	18.984	931.741	714.742
190.286	18.627	930.788	712.467
191.300	18.081	930.112	709.619
192.315	18.053	929.550	709.011
193.329	18.157	929.122	709.051
194.344	18.339	928.313	709.128
195.359	18.406	927.798	708.950
196.373	18.606	927.330	709.356
197.388	18.777	926.818	709.609
198.402	18.903	926.656	709.942
199.417	18.907	926.345	709.657
200.432	19.095	925.491	709.715
201.446	19.105	925.340	709.578
202.461	19.194	924.652	709.355
203.475	19.154	923.903	708.551
204.490	18.916	923.130	706.919
205.504	18.719	922.616	705.650
206.519	18.696	921.888	704.936
207.534	18.680	921.205	704.288
208.548	18.845	920.383	704.272
209.563	18.958	919.410	703.928
210.577	18.966	918.905	703.514
211.592	19.184	918.051	703.689
212.607	19.079	917.698	702.925
213.621	19.044	917.119	702.276
214.636	18.882	916.219	700.863
215.650	19.096	915.172	700.874
216.665	19.174	914.981	700.984
217.680	19.280	914.217	700.765
218.694	19.150	913.858	699.899
219.709	19.238	913.272	699.747
220.723	19.229	912.311	698.914
221.738	19.188	911.810	698.301
222.753	19.116	911.244	697.514
223.767	19.138	910.890	697.269
224.782	19.372	910.057	697.518
225.796	19.317	909.631	696.905
226.811	19.279	908.884	696.120
227.826	19.170	907.757	694.757
228.840	19.064	907.483	694.058
229.855	19.029	906.403	693.030
230.869	19.101	905.729	692.743
231.884	18.924	905.391	691.708
232.899	19.061	904.451	691.480
233.913	18.877	903.992	690.328
234.928	18.869	902.779	689.308
235.942	18.847	902.313	688.804
236.957	18.863	901.766	688.389
237.972	19.046	900.822	688.340
238.986	18.989	900.623	687.900
240.001	18.838	899.940	686.715
241.015	18.997	899.393	686.870
242.030	19.085	899.102	686.940
243.045	19.210	898.161	686.659
244.059	19.167	897.819	686.165
245.074	19.189	897.178	685.704
246.088	19.331	896.589	685.755
247.103	19.305	896.232	685.321
248.117	19.574	895.469	685.743
249.132	19.832	894.987	686.339
250.147	20.010	894.283	686.440
251.161	19.899	894.161	685.848
252.176	20.007	893.059	685.369
253.190	20.065	892.339	684.986
254.205	20.085	891.940	684.697
255.220	19.998	891.216	683.738
256.234	19.953	890.440	682.904
257.249	20.146	889.629	682.982
258.263	20.037	888.935	681.960
259.278	19.936	888.472	681.148
260.293	19.984	888.208	681.071
261.307	20.120	887.718	681.170
262.322	20.120	887.005	680.563
263.336	20.185	886.218	680.155
264.351	20.200	885.390	679.517
265.366	20.148	884.884	678.865
266.380	20.273	883.816	678.476
267.395	20.157	883.180	677.472
268.409	20.048	882.596	676.542
269.424	20.023	881.756	675.739
270.439	19.947	881.269	675.009
271.453	19.949	880.566	674.420
272.468	19.884	880.121	673.767
273.482	20.003	879.306	673.545
274.497	19.840	879.362	672.893
275.512	19.890	878.297	672.214
276.526	19.964	877.850	672.101
277.541	19.990	877.688	672.018
278.555	20.106	877.080	671.943
279.570	20.328	876.528	672.318
280.585	20.196	875.419	670.898
281.599	20.113	874.390	669.731
282.614	19.933	874.109	668.759
283.628	20.172	872.768	668.597
284.643	20.004	872.933	668.017
285.657	20.030	872.023	667.361
286.672	19.993	871.683	666.899
287.687	20.064	870.834	666.466
288.701	20.176	870.105	666.276
289.716	19.989	870.195	665.570
290.730	20.372	869.029	666.086
291.745	20.206	868.628	665.086
292.760	20.337	867.806	664.897
293.774	20.419	867.375	664.825
294.789	20.217	867.258	663.902
295.803	20.143	866.250	662.789
296.818	20.071	865.558	661.925
297.833	20.021	864.890	661.163
298.847	20.130	864.166	660.969
299.862	20.262	863.845	661.169
300.876	20.415	863.123	661.140
301.891	20.353	862.881	660.659
302.906	20.555	861.983	660.681
303.920	20.786	861.612	661.216
304.935	20.740	861.438	660.848
305.949	20.711	860.245	659.765
306.964	20.432	859.973	658.442
307.979	20.580	859.213	658.362
308.993	20.800	858.431	658.535
310.008	20.770	858.190	658.181
311.022	20.564	857.561	656.862
312.037	20.490	856.740	655.892
313.052	20.346	855.919	654.663
314.066	20.220	855.624	653.908
315.081	20.256	855.268	653.711
316.095	20.234	854.497	652.982
317.110	20.203	854.075	652.484
318.125	20.266	853.492	652.220
319.139	20.123	853.145	651.360
320.154	20.326	852.259	651.386
321.168	20.374	851.833	651.185
322.183	20.224	851.337	650.185
323.197	20.492	850.785	650.708
324.212	20.416	850.395	650.070
325.227	20.485	849.505	649.590
326.241	20.413	848.989	648.868
327.256	20.384	848.586	648.393
328.270	20.448	847.827	647.994
329.285	20.287	847.303	646.938
330.300	20.481	846.527	647.011
331.314	20.551	845.990	646.803
332.329	20.578	845.998	646.853
333.343	20.589	845.688	646.599
334.358	20.668	845.142	646.417
335.373	20.603	845.154	646.127
336.387	20.657	844.481	645.757
337.402	20.799	843.956	645.827
338.416	20.905	844.190	646.340
339.431	20.872	843.779	645.844
340.446	20.943	843.757	646.034
341.460	20.912	843.622	645.759
342.475	20.993	842.701	645.296
343.489	21.162	842.219	645.497
344.504	21.205	841.888	645.345
345.519	21.174	841.095	644.566
346.533	21.323	840.109	644.300
347.548	20.931	839.955	642.683
348.562	20.850	839.180	641.732
349.577	20.724	838.716	640.856
350.592	20.695	837.888	640.063
351.606	20.737	837.008	639.486
352.621	20.803	836.546	639.320
353.635	20.843	835.871	638.894
354.650	20.859	835.392	638.530
355.665	20.837	834.853	637.982
356.679	20.929	834.481	637.975
357.694	21.076	833.317	637.569
358.708	21.003	832.947	636.962
359.723	21.088	832.230	636.666
360.738	20.964	831.904	635.910
361.752	21.057	831.383	635.794
362.767	21.339	830.672	636.221
363.781	21.411	830.533	636.320
364.796	21.394	829.868	635.692
365.810	21.641	829.582	636.316
366.825	21.511	829.539	635.751
367.840	21.601	828.700	635.380
368.854	21.445	827.971	634.198
369.869	21.232	827.623	633.103
370.883	21.386	827.392	633.430
371.898	21.363	827.241	633.177
372.913	21.562	826.763	633.473
373.927	21.468	825.808	632.346
374.942	21.503	825.474	632.161
375.956	21.502	825.215	631.903
376.971	21.638	824.776	632.001
377.986	21.797	824.166	632.051
379.000	21.672	824.145	631.529
380.015	21.707	823.380	631.012
381.029	21.605	822.741	630.099
382.044	21.868	821.674	630.171
383.059	21.656	821.745	629.408
384.073	21.594	820.940	628.512
385.088	21.609	819.874	627.696
386.102	21.634	819.323	627.310
387.117	21.496	818.744	626.317
388.132	21.451	818.474	625.893
389.146	21.524	817.464	625.327
390.161	21.617	817.635	625.733
391.175	21.690	817.106	625.532
392.190	21.529	816.473	624.419
393.205	21.680	815.638	624.263
394.219	21.530	815.422	623.509
395.234	21.430	815.250	622.964
396.248	21.297	814.482	621.851
397.263	21.453	813.802	621.830
398.278	21.355	813.387	621.113
399.292	21.448	813.015	621.103
400.307	21.285	812.653	620.192
401.321	21.395	812.112	620.113
402.336	21.340	812.068	619.831
403.350	21.591	811.520	620.246
404.365	21.782	810.987	620.459
405.380	21.855	810.751	620.485
406.394	21.960	810.088	620.292
407.409	21.868	809.934	619.793
408.423	21.916	809.607	619.658
409.438	22.097	809.300	620.010
410.453	22.066	808.729	619.406
411.467	22.104	808.283	619.142
412.482	22.345	807.697	619.489
413.496	22.190	807.676	618.874
414.511	22.265	806.985	618.553
415.526	22.377	806.216	618.302
416.540	22.160	806.087	617.384
417.555	22.179	805.489	616.940
418.569	22.382	804.968	617.198
419.584	22.156	804.793	616.218
420.599	22.196	804.123	615.788
421.613	160.105	1370.155	1791.024
422.628	139.122	1452.628	1791.151
