DTS Sentinel unit serial number:	SN413079Multiplexer serial number:	ORYXHardware model number:	OX4-SRSoftware version number:	ORYX F/W v4.00 Oryx Data Collector v3.7.2.0data status	okinstallation	princeton_trtdifferential loss correction	single-endedforward channel	channel 1reverse channel	N/Adate	2019/09/15time	10:14:35forward acquisition time	60.00reverse acquisition time	0.00gamma	496.2192k internal	0.2309k external	0.2309temperature offset calibration	0.9988default loss term (dB/km)	0.3790temperature slope calibration	1.0000multiplexer offset coefficient	1.0000multiplexer slope coefficient	1.0000fibre end	0.00T internal ref (°C)	34.25T ext. ref 1 (°C)	5.03T ext. ref 2 (°C)	29.73length (m)	temperature (°C)	Stokes	anti-Stokes-747.200	-114.303	0.159	0.031
-746.185	-116.635	-0.497	0.093
-745.171	60.775	-0.042	-0.042
-744.156	-50.810	-0.218	-0.104
-743.142	-67.065	-0.343	-0.137
-742.127	47.578	0.118	0.112
-741.112	-44.859	-0.240	-0.122
-740.098	394.783	0.089	0.187
-739.083	466.306	0.074	0.169
-738.069	-119.297	0.270	0.048
-737.054	298.369	-0.050	0.093
-736.039	69.317	0.069	-0.072
-735.025	-9.795	0.083	0.056
-734.010	-200.000	-0.073	0.336
-732.996	-166.559	0.053	0.002
-731.981	-27.041	-0.178	-0.105
-730.966	1.445	-0.038	0.028
-729.952	-46.335	-0.035	0.018
-728.937	800.000	-0.045	-0.164
-727.923	800.000	-0.088	0.342
-726.908	-200.000	-0.002	-0.173
-725.894	800.000	0.048	-0.192
-724.879	479.357	-0.094	0.216
-723.864	800.000	0.030	0.118
-722.850	-68.783	-0.125	0.049
-721.835	-116.873	0.270	-0.050
-720.821	-99.341	0.164	-0.042
-719.806	-200.000	0.005	-0.254
-718.791	58.806	0.223	-0.222
-717.777	-200.000	-0.008	0.059
-716.762	-200.000	-0.037	0.260
-715.748	164.764	-0.028	-0.040
-714.733	-28.979	-0.159	-0.092
-713.718	-35.265	-0.204	-0.113
-712.704	707.036	-0.091	-0.244
-711.689	-84.033	0.165	0.053
-710.675	-84.173	0.254	-0.082
-709.660	286.095	-0.083	-0.151
-708.645	-109.694	0.307	-0.066
-707.631	-124.218	0.137	-0.022
-706.616	0.398	0.047	0.034
-705.602	-69.755	-0.208	-0.081
-704.587	33.581	0.212	-0.187
-703.572	-66.447	-0.268	-0.108
-702.558	308.760	0.104	-0.198
-701.543	7.978	0.406	-0.309
-700.529	236.010	-0.139	0.233
-699.514	-44.752	0.158	0.080
-698.499	-200.000	0.059	-0.335
-697.485	80.007	-0.228	-0.248
-696.470	-200.000	0.018	-0.363
-695.456	-200.000	0.014	-0.203
-694.441	441.131	-0.038	-0.085
-693.426	800.000	-0.024	0.081
-692.412	-65.517	0.126	0.051
-691.397	91.031	-0.060	0.069
-690.383	-34.658	-0.171	0.095
-689.368	-78.077	-0.142	0.050
-688.354	800.000	0.105	-0.319
-687.339	-200.000	-0.012	-0.271
-686.324	800.000	0.029	-0.086
-685.310	76.451	-0.189	-0.203
-684.295	131.847	-0.139	0.181
-683.281	349.350	-0.080	-0.160
-682.266	-200.000	0.083	0.512
-681.251	399.545	-0.024	-0.050
-680.237	375.391	-0.157	0.324
-679.222	800.000	0.054	0.175
-678.208	625.188	0.099	0.253
-677.193	800.000	0.120	0.399
-676.178	-50.118	-0.196	0.094
-675.164	-54.290	-0.314	0.145
-674.149	355.974	-0.050	0.101
-673.135	800.000	0.048	0.183
-672.120	800.000	-0.074	-0.328
-671.105	-117.397	-0.149	0.027
-670.091	800.000	0.027	-0.090
-669.076	533.956	-0.077	0.185
-668.062	45.349	0.097	-0.091
-667.047	42.237	0.058	-0.053
-666.032	409.521	-0.086	-0.185
-665.018	-112.751	-0.135	0.027
-664.003	-129.082	-0.282	-0.040
-662.989	800.000	0.105	-0.320
-661.974	-200.000	0.076	-0.492
-660.959	681.998	-0.088	0.232
-659.945	263.108	0.112	0.198
-658.930	-34.920	-0.087	-0.048
-657.916	800.000	0.088	-0.291
-656.901	-200.000	-0.056	-0.332
-655.886	800.000	0.049	-0.208
-654.872	-4.694	0.144	-0.101
-653.857	-108.566	-0.207	0.045
-652.843	146.861	0.199	0.270
-651.828	298.524	-0.112	-0.208
-650.814	-24.586	0.232	-0.140
-649.799	-112.396	0.310	0.063
-648.784	26.139	-0.324	-0.274
-647.770	-86.504	-0.113	0.035
-646.755	127.346	-0.209	0.268
-645.741	-74.745	0.095	0.035
-644.726	282.369	0.200	-0.364
-643.711	-200.000	0.030	0.188
-642.697	618.498	-0.125	-0.319
-641.682	-64.698	-0.029	0.012
-640.668	-200.000	0.001	0.160
-639.653	800.000	-0.104	-0.374
-638.638	-80.936	0.253	0.085
-637.624	800.000	-0.063	-0.205
-636.609	800.000	0.033	0.116
-635.595	176.333	0.105	-0.154
-634.580	310.059	0.007	-0.014
-633.565	-123.525	-0.400	0.064
-632.551	-136.919	-0.206	-0.024
-631.536	25.597	-0.132	-0.111
-630.522	20.359	-0.152	-0.124
-629.507	394.724	-0.104	0.219
-628.492	187.154	0.170	0.257
-627.478	-65.877	0.283	0.114
-626.463	-65.456	-0.380	-0.154
-625.449	415.633	0.154	-0.332
-624.434	73.419	-0.187	0.198
-623.419	-84.940	0.466	0.148
-622.405	-170.425	0.146	0.005
-621.390	122.423	0.110	0.139
-620.376	426.925	-0.108	0.235
-619.361	-22.568	0.063	-0.039
-618.346	800.000	-0.054	-0.183
-617.332	-43.251	-0.328	-0.168
-616.317	-37.906	-0.176	-0.095
-615.303	52.236	-0.063	0.061
-614.288	272.235	-0.154	0.275
-613.273	800.000	-0.049	-0.189
-612.259	-125.626	0.295	-0.045
-611.244	111.429	0.117	0.142
-610.230	-200.000	0.016	-0.073
-609.215	11.681	0.065	0.050
-608.201	800.000	0.062	0.267
-607.186	262.279	-0.083	0.145
-606.171	-153.353	0.224	-0.016
-605.157	-200.000	0.032	0.147
-604.142	297.307	-0.019	-0.035
-603.128	-200.000	-0.015	0.300
-602.113	685.430	-0.023	-0.061
-601.098	800.000	0.049	-0.183
-600.084	-3.406	0.181	-0.127
-599.069	469.794	-0.109	0.248
-598.055	166.492	0.161	0.230
-597.040	-108.845	0.200	0.043
-596.025	-54.767	0.111	-0.051
-595.011	-182.952	0.240	0.004
-593.996	111.174	0.138	0.168
-592.982	290.806	0.014	0.026
-591.967	66.908	0.220	0.226
-590.952	-200.000	-0.013	-0.255
-589.938	-14.906	0.022	-0.014
-588.923	-72.873	0.173	0.064
-587.909	79.311	0.059	-0.064
-586.894	41.812	0.267	-0.244
-585.879	34.221	-0.088	-0.077
-584.865	-22.819	0.117	-0.072
-583.850	-154.541	-0.117	-0.008
-582.836	212.269	-0.133	0.212
-581.821	282.730	-0.174	-0.315
-580.806	67.030	0.343	-0.353
-579.792	-185.506	-0.064	0.001
-578.777	-112.380	-0.204	0.041
-577.763	-88.001	0.324	0.098
-576.748	185.657	0.204	-0.306
-575.733	432.087	0.142	-0.310
-574.719	-200.000	0.008	0.079
-573.704	800.000	-0.026	-0.078
-572.690	800.000	-0.028	-0.102
-571.675	-200.000	0.001	-0.016
-570.661	-133.892	-0.395	0.049
-569.646	-170.320	0.022	-0.001
-568.631	800.000	-0.036	0.140
-567.617	-200.000	0.017	0.340
-566.602	47.304	0.187	-0.175
-565.588	-200.000	0.027	0.144
-564.573	-165.854	-0.350	0.015
-563.558	-102.275	0.067	-0.016
-562.544	105.903	0.041	-0.049
-561.529	486.664	0.110	-0.253
-560.515	-0.938	0.148	0.106
-559.500	-106.990	-0.163	0.036
-558.485	-119.298	0.113	-0.020
-557.471	-191.396	-0.484	-0.005
-556.456	61.217	0.213	0.213
-555.442	-138.278	0.281	-0.031
-554.427	-146.547	0.506	-0.044
-553.412	-0.911	0.085	-0.061
-552.398	684.437	-0.098	-0.258
-551.383	-200.000	-0.039	0.245
-550.369	-156.229	-0.198	-0.013
-549.354	800.000	0.083	-0.301
-548.339	152.403	0.185	-0.254
-547.325	631.445	-0.078	0.200
-546.310	267.419	0.103	0.182
-545.296	-94.335	-0.221	-0.061
-544.281	232.662	-0.128	-0.212
-543.266	800.000	0.081	-0.236
-542.252	800.000	0.092	-0.273
-541.237	17.816	0.240	-0.192
-540.223	-27.468	0.269	-0.158
-539.208	-66.004	-0.420	-0.169
-538.193	-115.587	-0.374	-0.071
-537.179	-130.717	-0.214	0.029
-536.164	32.852	0.147	-0.129
-535.150	-52.331	-0.184	0.086
-534.135	-77.582	0.190	-0.066
-533.121	-200.000	-0.049	-0.315
-532.106	-200.000	-0.016	0.076
-531.091	800.000	0.075	0.273
-530.077	135.076	0.158	0.207
-529.062	50.393	-0.232	-0.221
-528.048	-200.000	-0.039	0.213
-527.033	-134.911	-0.134	0.016
-526.018	-142.292	-0.168	-0.017
-525.004	46.132	0.134	0.125
-523.989	97.967	0.106	-0.123
-522.975	87.413	0.223	-0.248
-521.960	800.000	-0.116	-0.343
-520.945	-38.542	0.101	0.054
-519.931	800.000	0.047	0.191
-518.916	-78.513	-0.308	-0.106
-517.902	289.227	-0.053	-0.097
-516.887	80.570	-0.247	-0.268
-515.872	-112.195	-0.224	0.045
-514.858	-55.524	0.131	0.059
-513.843	-200.000	-0.019	0.241
-512.829	12.508	-0.108	0.084
-511.814	3.511	-0.065	-0.047
-510.799	-136.732	0.187	-0.022
-509.785	472.645	-0.046	0.104
-508.770	233.176	-0.013	-0.021
-507.756	255.811	0.059	-0.102
-506.741	-110.643	0.269	0.056
-505.726	-195.008	0.043	0.000
-504.712	-92.392	-0.167	0.047
-503.697	-21.243	-0.295	-0.182
-502.683	800.000	-0.059	-0.227
-501.668	800.000	0.124	-0.360
-500.653	-200.000	0.057	-0.336
-499.639	800.000	-0.090	-0.337
-498.624	-200.000	-0.066	0.000
-497.610	-113.104	-0.326	-0.065
-496.595	-6.864	0.272	0.186
-495.581	-105.329	0.425	-0.097
-494.566	315.602	-0.051	0.096
-493.551	-70.656	-0.198	0.075
-492.537	-39.726	-0.085	-0.045
-491.522	-52.070	-0.143	-0.067
-490.508	-109.482	0.396	0.084
-489.493	65.188	-0.224	0.228
-488.478	271.989	-0.022	-0.039
-487.464	-47.505	0.252	0.123
-486.449	95.315	-0.074	-0.084
-485.435	497.163	0.085	0.197
-484.420	313.667	-0.101	-0.190
-483.405	219.359	-0.177	0.284
-482.391	-200.000	-0.012	0.187
-481.376	-76.693	0.215	0.076
-480.362	-146.226	0.394	0.035
-479.347	-63.504	-0.132	-0.054
-478.332	-59.352	0.135	-0.058
-477.318	-7.255	-0.234	-0.160
-476.303	-132.813	-0.337	-0.043
-475.289	-200.000	0.016	-0.144
-474.274	47.028	-0.206	0.193
-473.259	-98.656	0.143	0.037
-472.245	800.000	0.077	0.244
-471.230	254.219	-0.170	-0.292
-470.216	-6.095	-0.113	-0.078
-469.201	295.839	0.151	0.278
-468.186	358.332	-0.198	-0.398
-467.172	-200.000	-0.004	-0.147
-466.157	10.366	-0.177	-0.135
-465.143	118.498	0.132	-0.163
-464.128	-121.756	-0.206	-0.034
-463.113	66.864	0.041	-0.042
-462.099	181.128	0.111	0.164
-461.084	800.000	-0.055	0.193
-460.070	22.180	0.183	-0.150
-459.055	-156.783	-0.120	0.007
-458.040	-142.441	0.103	-0.010
-457.026	117.439	-0.202	-0.250
-456.011	-35.476	-0.098	0.054
-454.997	-200.000	0.050	0.272
-453.982	-21.051	0.133	-0.082
-452.968	614.605	0.152	-0.382
-451.953	472.225	-0.148	0.335
-450.938	433.141	-0.122	0.266
-449.924	212.097	-0.141	0.222
-448.909	-200.000	0.000	-0.150
-447.895	-67.235	0.141	0.056
-446.880	10.368	-0.066	0.051
-445.865	-19.818	-0.314	-0.195
-444.851	-166.198	-0.090	-0.004
-443.836	800.000	-0.117	-0.493
-442.822	691.304	-0.058	0.152
-441.807	-200.000	-0.032	-0.298
-440.792	-66.206	-0.174	0.070
-439.778	-200.000	-0.003	0.294
-438.763	-89.883	-0.454	-0.133
-437.749	800.000	-0.095	0.362
-436.734	-76.949	-0.231	0.081
-435.719	173.714	0.165	0.239
-434.705	-87.968	-0.058	0.017
-433.690	85.076	0.146	0.161
-432.676	-35.628	0.144	0.078
-431.661	-40.716	-0.066	-0.034
-430.646	-32.876	0.255	-0.142
-429.632	44.582	0.094	-0.086
-428.617	-8.258	-0.053	0.036
-427.603	-200.000	0.028	0.207
-426.588	-89.728	-0.148	0.044
-425.573	254.614	-0.167	-0.286
-424.559	92.765	0.154	0.174
-423.544	-62.475	0.337	0.141
-422.530	135.647	-0.119	0.156
-421.515	-174.462	0.246	0.007
-420.500	-200.000	-0.001	0.489
-419.486	800.000	-0.040	0.165
-418.471	-118.079	0.044	-0.008
-417.457	-70.012	0.265	-0.101
-416.442	-126.224	-0.151	0.023
-415.428	23.619	0.150	-0.124
-414.413	-45.866	-0.173	-0.086
-413.398	34.644	-0.012	0.011
-412.384	-74.721	-0.220	-0.079
-411.369	122.301	0.104	0.130
-410.355	19.528	-0.070	-0.056
-409.340	-49.529	-0.217	-0.104
-408.325	5.889	0.269	-0.200
-407.311	-55.531	-0.239	0.108
-406.296	17.657	-0.151	0.121
-405.282	800.000	-0.088	-0.316
-404.267	-69.362	-0.141	0.054
-403.252	-136.683	0.335	-0.039
-402.238	-100.351	-0.102	-0.025
-401.223	569.887	0.031	0.076
-400.209	108.156	0.142	-0.170
-399.194	-97.383	-0.103	-0.027
-398.179	-33.662	-0.271	-0.150
-397.165	-91.259	0.103	0.029
-396.150	44.319	-0.050	-0.046
-395.136	-154.115	0.136	-0.009
-394.121	-200.000	0.017	-0.121
-393.106	800.000	-0.119	-0.443
-392.092	-200.000	-0.016	0.183
-391.077	-29.015	0.180	-0.104
-390.063	9.712	0.178	0.135
-389.048	800.000	-0.033	0.127
-388.033	800.000	-0.054	0.182
-387.019	89.052	-0.253	0.282
-386.004	-134.008	0.347	0.043
-384.990	800.000	0.084	-0.313
-383.975	-63.210	-0.136	-0.056
-382.960	800.000	-0.077	-0.261
-381.946	177.357	0.083	-0.121
-380.931	-56.615	-0.321	0.143
-379.917	800.000	-0.101	-0.418
-378.902	163.559	-0.067	-0.095
-377.888	197.942	-0.144	0.220
-376.873	800.000	0.067	0.265
-375.858	-91.439	-0.153	-0.044
-374.844	-24.429	-0.053	-0.032
-373.829	63.399	0.145	-0.145
-372.815	-75.129	0.095	-0.034
-371.800	-200.000	-0.020	0.332
-370.785	158.522	0.015	-0.021
-369.771	-200.000	0.015	0.190
-368.756	37.972	0.108	0.096
-367.742	800.000	0.086	-0.281
-366.727	-40.227	-0.154	-0.080
-365.712	49.519	-0.068	0.064
-364.698	52.894	0.114	0.109
-363.683	-42.510	-0.167	0.085
-362.669	-157.108	0.281	-0.017
-361.654	-200.000	-0.017	-0.124
-360.639	179.473	-0.051	-0.074
-359.625	75.648	-0.235	0.248
-358.610	-69.102	0.159	0.061
-357.596	-16.534	0.184	0.117
-356.581	34.431	0.253	-0.221
-355.566	-200.000	0.001	0.297
-354.552	-23.037	0.292	0.176
-353.537	-60.366	0.258	0.110
-352.523	610.646	-0.048	0.120
-351.508	800.000	0.033	-0.102
-350.493	309.711	0.087	0.164
-349.479	800.000	-0.047	0.144
-348.464	-3.452	-0.083	0.058
-347.450	49.696	0.127	0.120
-346.435	110.025	-0.151	-0.181
-345.420	148.518	0.178	0.240
-344.406	-79.404	0.172	-0.058
-343.391	9.012	-0.095	-0.072
-342.377	-200.000	-0.017	-0.108
-341.362	-117.351	-0.372	-0.068
-340.348	15.652	-0.147	-0.115
-339.333	146.372	-0.142	0.191
-338.318	318.257	-0.049	-0.093
-337.304	2.322	0.151	-0.109
-336.289	-17.583	-0.279	-0.176
-335.275	-114.075	0.216	-0.042
-334.260	-96.485	0.196	0.052
-333.245	144.117	0.111	0.148
-332.231	420.679	-0.027	-0.057
-331.216	332.544	0.071	-0.137
-330.202	150.658	-0.033	-0.045
-329.187	-96.906	-0.119	0.031
-328.172	-200.000	-0.006	-0.130
-327.158	-200.000	-0.024	0.229
-326.143	51.096	-0.073	-0.069
-325.129	79.453	0.206	-0.221
-324.114	-85.799	0.186	-0.058
-323.099	-200.000	-0.070	0.365
-322.085	-200.000	0.094	-0.477
-321.070	-7.497	0.154	0.104
-320.056	330.942	0.194	0.373
-319.041	-11.834	-0.101	0.066
-318.026	398.980	-0.069	-0.143
-317.012	800.000	0.031	-0.102
-315.997	-158.457	0.132	-0.008
-314.983	800.000	-0.118	0.410
-313.968	544.796	0.122	0.291
-312.953	800.000	-0.096	0.351
-311.939	-200.000	-0.314	0.001
-310.924	-200.000	-0.028	0.264
-309.910	800.000	0.023	-0.101
-308.895	84.886	0.079	-0.087
-307.880	312.565	-0.074	0.139
-306.866	258.963	-0.127	0.219
-305.851	67.998	0.156	-0.160
-304.837	-71.869	-0.433	-0.161
-303.822	52.941	0.235	0.225
-302.807	-101.457	0.100	0.024
-301.793	-91.045	0.079	0.023
-300.778	132.642	-0.190	0.245
-299.764	-200.000	0.030	-0.228
-298.749	258.049	-0.090	-0.154
-297.735	212.727	0.059	-0.093
-296.720	-200.000	-0.013	-0.472
-295.705	-200.000	-0.042	0.282
-294.691	-156.798	0.459	0.028
-293.676	256.973	-0.076	0.131
-292.662	-200.000	0.030	-0.322
-291.647	800.000	0.075	-0.233
-290.632	35.490	0.258	0.226
-289.618	-97.475	-0.248	-0.064
-288.603	800.000	-0.143	-0.573
-287.589	60.728	-0.258	-0.255
-286.574	-36.837	-0.141	0.076
-285.559	-200.000	0.000	-0.043
-284.545	17.306	0.152	0.121
-283.530	800.000	-0.027	0.092
-282.516	-200.000	-0.047	-0.236
-281.501	-131.613	0.141	-0.018
-280.486	-47.383	-0.184	0.090
-279.472	800.000	-0.069	0.219
-278.457	252.810	-0.076	-0.129
-277.443	240.290	0.170	0.282
-276.428	-200.000	0.025	0.164
-275.413	-74.090	-0.221	-0.080
-274.399	-200.000	0.290	-0.001
-273.384	219.101	0.185	0.295
-272.370	676.691	0.034	-0.089
-271.355	487.022	-0.099	0.226
-270.340	-130.654	-0.194	0.026
-269.326	800.000	-0.031	0.120
-268.311	15.961	0.249	-0.196
-267.297	-200.000	-0.066	-0.319
-266.282	44.531	-0.143	0.131
-265.267	-9.447	0.115	0.076
-264.253	-196.409	0.322	-0.002
-263.238	29.962	-0.194	-0.165
-262.224	94.265	0.074	-0.083
-261.209	-176.968	-0.120	-0.003
-260.195	800.000	0.014	-0.041
-259.180	-200.000	0.034	0.192
-258.165	800.000	-0.055	0.172
-257.151	234.123	0.180	0.295
-256.136	92.208	-0.118	-0.133
-255.122	-39.353	-0.109	-0.057
-254.107	-200.000	0.139	0.000
-253.092	-29.381	-0.172	0.098
-252.078	-106.003	-0.195	0.044
-251.063	73.037	-0.325	0.338
-250.049	569.304	-0.026	-0.062
-249.034	-105.308	0.304	0.069
-248.019	53.583	-0.174	0.167
-247.005	228.524	0.042	-0.068
-245.990	243.030	0.108	-0.181
-244.976	800.000	-0.097	-0.345
-243.961	-200.000	0.014	-0.305
-242.946	-80.320	0.195	0.065
-241.932	-74.365	0.194	0.070
-240.917	42.055	-0.125	-0.113
-239.903	-120.010	0.077	0.013
-238.888	-128.094	0.283	0.040
-237.873	800.000	-0.067	-0.214
-236.859	-137.391	-0.115	-0.013
-235.844	23.198	-0.191	0.156
-234.830	-156.572	0.114	-0.007
-233.815	31.782	0.183	-0.157
-232.800	339.919	0.106	-0.207
-231.786	-97.031	-0.094	-0.025
-230.771	799.255	-0.131	0.361
-229.757	41.543	0.303	0.274
-228.742	36.155	0.169	0.148
-227.727	-80.745	-0.266	0.088
-226.713	-44.346	-0.249	-0.124
-225.698	800.000	-0.068	-0.254
-224.684	-200.000	0.050	0.261
-223.669	-56.103	0.135	0.060
-222.655	-107.113	0.314	0.069
-221.640	-200.000	0.031	0.147
-220.625	111.731	0.097	-0.117
-219.611	-200.000	-0.032	-0.414
-218.596	53.496	-0.086	0.082
-217.582	-113.022	-0.395	-0.078
-216.567	-163.368	0.008	0.000
-215.552	39.859	0.064	-0.057
-214.538	-49.557	-0.215	0.102
-213.523	800.000	-0.028	0.117
-212.509	5.360	-0.133	-0.098
-211.494	537.922	-0.083	0.197
-210.479	-117.874	-0.354	0.063
-209.465	-22.801	-0.138	0.083
-208.450	-129.421	-0.279	0.039
-207.436	0.544	-0.110	0.078
-206.421	0.334	0.242	0.172
-205.406	-113.142	0.093	0.018
-204.392	314.620	-0.160	0.300
-203.377	-113.659	-0.200	0.039
-202.363	-119.605	-0.341	0.059
-201.348	789.311	0.046	0.125
-200.333	800.000	-0.065	-0.183
-199.319	-109.298	0.099	-0.021
-198.304	-100.052	0.314	0.078
-197.290	30.911	0.143	0.122
-196.275	-200.000	0.020	0.125
-195.260	-200.000	-0.006	0.290
-194.246	-147.434	-0.064	-0.005
-193.231	-105.843	-0.066	0.015
-192.217	-16.134	0.492	0.311
-191.202	-139.253	0.170	-0.018
-190.187	-89.276	0.230	-0.067
-189.173	158.180	0.328	0.452
-188.158	-57.277	0.219	-0.096
-187.144	-72.138	0.216	-0.080
-186.129	-71.872	-0.049	-0.018
-185.114	-200.000	-0.008	0.359
-184.100	-135.111	0.197	0.024
-183.085	800.000	-0.068	-0.272
-182.071	523.895	-0.105	-0.246
-181.056	166.613	0.208	-0.293
-180.042	-91.514	0.217	0.061
-179.027	-79.019	-0.225	0.076
-178.012	-48.065	0.179	-0.086
-176.998	85.746	0.152	0.166
-175.983	800.000	-0.046	-0.151
-174.969	-200.000	-0.025	-0.286
-173.954	-152.162	-0.247	0.018
-172.939	-11.151	0.290	-0.190
-171.925	-200.000	0.003	0.098
-170.910	-61.261	-0.252	-0.105
-169.896	-142.669	-0.283	-0.028
-168.881	150.946	0.152	0.206
-167.866	-29.978	0.262	0.148
-166.852	-141.481	-0.247	0.025
-165.837	10.976	-0.227	0.173
-164.823	-48.486	0.314	-0.150
-163.808	-100.450	0.143	0.035
-162.793	20.343	0.022	0.018
-161.779	22.007	-0.072	-0.059
-160.764	285.624	0.053	0.096
-159.750	2.059	-0.269	0.193
-158.735	4.361	0.203	-0.148
-157.720	477.486	-0.059	-0.134
-156.706	-125.468	-0.382	0.058
-155.691	-44.331	0.046	-0.023
-154.677	800.000	-0.105	-0.289
-153.662	-38.122	0.131	0.069
-152.647	253.449	0.045	0.076
-151.633	12.934	-0.168	0.129
-150.618	800.000	0.038	-0.116
-149.604	169.403	0.045	0.064
-148.589	-33.392	-0.368	0.202
-147.574	147.538	0.235	-0.314
-146.560	-48.653	-0.281	-0.134
-145.545	58.002	-0.272	-0.264
-144.531	-189.513	-0.023	-0.000
-143.516	102.636	-0.208	0.242
-142.502	64.325	0.316	0.316
-141.487	-94.820	-0.181	0.049
-140.472	-50.689	-0.100	0.047
-139.458	-54.394	0.264	0.119
-138.443	-200.000	0.013	-0.096
-137.429	-200.000	0.045	0.200
-136.414	20.266	0.135	0.108
-135.399	-190.884	-0.266	0.003
-134.385	-126.320	-0.228	0.034
-133.370	409.013	0.125	0.262
-132.356	529.300	-0.155	-0.363
-131.341	134.119	-0.065	0.084
-130.326	-4.553	0.160	0.110
-129.312	800.000	0.063	0.246
-128.297	231.067	0.091	0.149
-127.283	-85.006	-0.083	0.026
-126.268	-101.214	0.150	-0.036
-125.253	-105.745	0.086	0.019
-124.239	-200.000	0.024	0.195
-123.224	800.000	0.029	0.092
-122.210	663.705	0.011	0.028
-121.195	298.276	0.038	0.070
-120.180	-45.910	0.097	0.047
-119.166	-118.066	0.075	-0.013
-118.151	-151.744	0.413	-0.030
-117.137	-60.390	0.252	-0.106
-116.122	271.839	-0.106	0.185
-115.107	-200.000	-0.035	-0.310
-114.093	-200.000	0.011	-0.311
-113.078	-140.549	-0.216	0.022
-112.064	-102.459	0.284	-0.068
-111.049	600.894	0.061	-0.151
-110.034	-200.000	-0.001	-0.067
-109.020	800.000	-0.088	0.351
-108.005	288.242	0.138	-0.247
-106.991	199.424	-0.214	-0.325
-105.976	31.891	-0.219	-0.187
-104.962	-86.355	-0.346	-0.106
-103.947	47.493	0.110	-0.102
-102.932	75.853	0.057	0.060
-101.918	-27.381	-0.111	-0.064
-100.903	800.000	-0.079	0.262
-99.889	72.327	0.103	-0.106
-98.874	51.272	0.124	-0.117
-97.859	93.604	0.187	0.210
-96.845	157.169	0.165	-0.226
-95.830	-78.076	-0.244	0.083
-94.816	-167.409	-0.126	0.005
-93.801	57.353	0.158	0.153
-92.786	38.044	-0.173	-0.152
-91.772	800.000	-0.036	-0.130
-90.757	15.200	-0.261	-0.203
-89.743	-76.620	-0.051	-0.018
-88.728	800.000	-0.077	0.297
-87.713	-104.314	0.321	-0.074
-86.699	191.386	-0.055	-0.082
-85.684	45.491	-0.138	-0.126
-84.670	-11.385	0.131	0.085
-83.655	21.298	0.134	0.108
-82.640	-21.734	-0.089	-0.053
-81.626	-200.000	0.083	0.366
-80.611	278.011	-0.164	0.289
-79.597	215.376	0.173	0.272
-78.582	205.291	0.130	0.199
-77.567	594.339	0.038	0.092
-76.553	-80.710	0.310	-0.102
-75.538	-77.393	0.306	-0.105
-74.524	-200.000	0.026	-0.135
-73.509	199.904	-0.141	-0.215
-72.494	-133.536	-0.260	0.032
-71.480	-200.000	0.033	0.270
-70.465	-42.971	0.138	0.069
-69.451	688.865	-0.102	-0.265
-68.436	492.320	0.162	0.366
-67.422	-200.000	-0.038	0.168
-66.407	54.926	0.132	0.126
-65.392	226.325	-0.111	0.178
-64.378	-200.000	-0.045	0.281
-63.363	-38.799	-0.290	-0.151
-62.349	-132.518	0.286	-0.036
-61.334	18.384	-0.925	-0.731
-60.319	67.116	0.505	0.509
-59.305	490.914	-0.299	-0.676
-58.290	541.767	0.459	1.083
-57.276	635.345	0.643	1.614
-56.261	-200.000	97.517	572.481
-55.246	623.422	1403.653	3497.564
-54.232	185.393	2613.375	3837.760
-53.217	120.901	2187.027	2690.259
-52.203	46.021	1635.026	1496.726
-51.188	37.720	1368.967	1202.165
-50.173	34.479	1326.179	1145.122
-49.159	56.270	1375.171	1321.079
-48.144	60.284	1392.716	1362.360
-47.130	38.080	1347.927	1185.686
-46.115	34.444	1329.429	1147.534
-45.100	34.200	1324.839	1142.062
-44.086	34.086	1322.864	1139.635
-43.071	34.065	1320.410	1137.346
-42.057	34.054	1318.275	1135.397
-41.042	34.148	1316.668	1134.528
-40.027	34.183	1315.359	1133.564
-39.013	34.131	1313.251	1131.393
-37.998	34.128	1311.455	1129.785
-36.984	34.304	1309.494	1129.092
-35.969	34.313	1307.566	1127.441
-34.954	34.233	1305.945	1125.521
-33.940	34.339	1304.718	1125.048
-32.925	34.394	1303.037	1123.879
-31.911	34.406	1301.598	1122.664
-30.896	34.393	1300.219	1121.350
-29.881	34.303	1299.112	1119.826
-28.867	34.393	1297.364	1118.800
-27.852	34.335	1296.314	1117.513
-26.838	34.424	1294.331	1116.279
-25.823	34.200	1293.842	1114.502
-24.809	34.338	1292.122	1113.781
-23.794	34.277	1291.091	1112.493
-22.779	34.405	1289.427	1111.764
-21.765	34.328	1288.309	1110.305
-20.750	34.248	1287.066	1108.724
-19.736	34.345	1285.337	1107.756
-18.721	34.169	1284.492	1105.957
-17.706	34.240	1283.160	1105.179
-16.692	34.257	1281.492	1103.800
-15.677	34.231	1280.871	1103.070
-14.663	34.096	1280.032	1101.519
-13.648	34.104	1278.998	1100.635
-12.633	34.238	1277.595	1100.156
-11.619	34.103	1277.018	1098.840
-10.604	34.113	1276.583	1098.479
-9.590	34.193	1275.162	1097.673
-8.575	34.101	1274.071	1096.157
-7.560	34.252	1273.191	1096.228
-6.546	34.130	1272.378	1094.785
-5.531	34.276	1270.822	1094.242
-4.517	34.209	1270.231	1093.302
-3.502	34.208	1269.772	1092.857
-2.487	34.261	1268.271	1091.826
-1.473	34.243	1264.784	1088.682
-0.458	32.874	1249.976	1068.150
0.556	27.878	1231.662	1027.367
1.571	23.879	1236.634	1008.789
2.586	22.856	1252.200	1015.516
3.600	22.211	1241.092	1002.737
4.615	17.174	1169.143	917.389
5.629	9.051	1093.450	816.735
6.644	5.315	1072.747	782.520
7.659	5.078	1069.588	778.961
8.673	4.852	1068.781	777.180
9.688	4.856	1067.564	776.241
10.702	5.126	1065.982	776.369
11.717	10.166	1073.281	806.808
12.731	17.286	1083.768	850.356
13.746	19.420	1084.596	861.599
14.761	18.089	1082.526	853.240
15.775	16.950	1080.608	845.976
16.790	15.941	1078.423	839.168
17.804	15.271	1076.467	834.235
18.819	14.936	1075.423	831.690
19.834	14.534	1074.824	829.151
20.848	14.457	1073.770	827.886
21.863	14.047	1073.105	825.262
22.877	14.062	1072.097	824.490
23.892	13.986	1071.403	823.504
24.907	14.027	1070.630	823.040
25.921	14.001	1069.674	822.108
26.936	13.979	1068.353	820.911
27.950	14.003	1067.248	820.108
28.965	14.165	1065.887	819.786
29.980	14.355	1063.716	818.978
30.994	14.273	1062.686	817.710
32.009	14.275	1062.093	817.190
33.023	14.156	1061.023	815.713
34.038	14.325	1059.532	815.319
35.053	14.200	1058.360	813.736
36.067	14.068	1057.776	812.572
37.082	14.160	1057.356	812.624
38.096	14.246	1056.219	812.100
39.111	14.194	1055.359	811.113
40.126	14.021	1054.162	809.279
41.140	13.892	1053.207	807.845
42.155	13.878	1051.791	806.618
43.169	13.856	1050.528	805.472
44.184	14.057	1049.180	805.345
45.199	13.835	1048.728	803.849
46.213	14.034	1047.449	803.761
47.228	14.136	1046.484	803.439
48.242	14.130	1045.693	802.732
49.257	14.110	1044.479	801.634
50.271	14.136	1043.546	800.972
51.286	14.094	1042.621	799.991
52.301	14.181	1041.923	799.803
53.315	14.092	1040.984	798.583
54.330	14.026	1039.417	796.992
55.344	14.047	1038.807	796.558
56.359	14.074	1037.826	795.861
57.374	14.119	1036.731	795.168
58.388	13.944	1035.778	793.532
59.403	13.919	1035.421	793.066
60.417	13.916	1034.541	792.307
61.432	13.933	1033.622	791.616
62.447	13.878	1032.842	790.687
63.461	13.924	1031.889	790.108
64.476	13.815	1031.486	789.210
65.490	13.860	1030.231	788.391
66.505	13.941	1029.514	788.159
67.520	13.889	1029.291	787.674
68.534	13.951	1028.301	787.137
69.549	13.899	1027.690	786.354
70.563	13.854	1026.929	785.491
71.578	13.858	1025.475	784.325
72.593	13.722	1025.301	783.484
73.607	13.801	1024.399	783.098
74.622	13.710	1023.883	782.205
75.636	13.778	1022.804	781.629
76.651	13.777	1022.195	781.091
77.666	13.726	1021.846	780.516
78.680	13.843	1020.813	780.208
79.695	13.824	1020.239	779.611
80.709	13.823	1019.586	779.038
81.724	13.874	1018.863	778.655
82.739	14.008	1018.542	778.969
83.753	14.157	1017.660	778.923
84.768	14.314	1016.461	778.672
85.782	14.295	1016.080	778.223
86.797	14.205	1015.065	776.958
87.812	14.073	1013.899	775.377
88.826	14.127	1012.882	774.782
89.841	14.201	1012.343	774.645
90.855	14.273	1011.135	773.987
91.870	14.211	1010.706	773.304
92.884	14.282	1009.424	772.586
93.899	14.171	1009.066	771.728
94.914	14.315	1007.884	771.423
95.928	14.320	1007.237	770.880
96.943	14.332	1005.791	769.763
97.957	14.256	1005.228	768.913
98.972	14.279	1004.528	768.414
99.987	14.146	1003.441	766.902
101.001	14.253	1002.360	766.501
102.016	14.364	1001.358	766.177
103.030	14.314	1000.744	765.411
104.045	14.200	1000.215	764.416
105.060	14.121	999.199	763.205
106.074	14.065	998.029	761.991
107.089	14.021	997.241	761.120
108.103	13.939	996.171	759.859
109.118	13.910	995.723	759.320
110.133	13.941	994.612	758.543
111.147	13.918	993.782	757.739
112.162	13.894	992.992	756.961
113.176	14.020	992.410	757.024
114.191	14.045	991.541	756.407
115.206	14.115	990.900	756.173
116.220	13.999	989.672	754.638
117.235	14.041	988.563	753.918
118.249	13.986	988.069	753.225
119.264	14.070	986.792	752.567
120.279	14.074	986.375	752.202
121.293	13.916	985.942	751.086
122.308	14.000	984.657	750.423
123.322	13.996	983.624	749.552
124.337	13.932	982.564	748.389
125.352	14.076	981.142	747.887
126.366	13.874	980.516	746.434
127.381	13.960	979.188	745.742
128.395	13.929	978.847	745.279
129.410	14.014	977.679	744.703
130.424	14.047	976.819	744.134
131.439	14.208	976.012	744.173
132.454	14.112	975.375	743.189
133.468	14.134	974.843	742.819
134.483	14.120	974.230	742.223
135.497	14.093	973.148	741.213
136.512	14.229	971.818	740.739
137.527	14.282	970.681	740.043
138.541	14.246	970.083	739.363
139.556	14.227	969.822	739.012
140.570	14.367	968.588	738.628
141.585	14.408	968.016	738.306
142.600	14.339	967.174	737.293
143.614	14.364	966.461	736.796
144.629	14.532	965.231	736.536
145.643	14.478	964.856	735.948
146.658	14.385	963.713	734.599
147.673	14.262	962.563	733.118
148.687	14.236	962.222	732.677
149.702	14.180	961.157	731.555
150.716	14.194	960.548	731.088
151.731	14.177	959.862	730.425
152.746	14.254	959.004	730.046
153.760	14.252	958.743	729.774
154.775	14.230	958.058	729.093
155.789	14.338	957.344	728.958
156.804	14.290	956.884	728.334
157.819	14.373	956.035	727.983
158.833	14.421	955.235	727.521
159.848	14.504	954.275	727.087
160.862	14.429	953.467	726.079
161.877	14.227	952.783	724.614
162.892	14.325	951.440	723.959
163.906	14.247	950.812	723.078
164.921	14.269	949.756	722.305
165.935	14.393	948.940	722.159
166.950	14.283	948.204	721.059
167.964	14.311	947.511	720.587
168.979	14.343	946.352	719.779
169.994	14.355	945.439	719.076
171.008	14.414	944.870	718.834
172.023	14.427	944.225	718.332
173.037	14.558	943.639	718.387
174.052	14.455	942.725	717.187
175.067	14.396	941.850	716.203
176.081	14.310	941.375	715.408
177.096	14.266	941.316	715.113
178.110	14.448	939.985	714.820
179.125	14.316	939.631	713.921
180.140	14.425	939.054	713.885
181.154	14.430	938.815	713.661
182.169	14.555	938.430	713.839
183.183	14.646	937.360	713.352
184.198	14.647	936.711	712.799
185.213	14.636	936.084	712.212
186.227	14.601	935.793	711.782
187.242	14.709	934.777	711.406
188.256	14.800	934.363	711.413
189.271	14.737	933.306	710.277
190.286	14.625	932.222	708.914
191.300	14.463	931.741	707.798
192.315	14.393	931.123	706.969
193.329	14.423	930.411	706.491
194.344	14.594	929.603	706.543
195.359	14.567	929.244	706.090
196.373	14.703	928.805	706.270
197.388	14.819	928.358	706.358
198.402	14.792	928.109	705.994
199.417	14.903	927.031	705.580
200.432	15.032	926.711	705.817
201.446	15.031	926.033	705.232
202.461	14.935	925.997	704.738
203.475	14.849	925.514	703.946
204.490	14.848	924.256	702.924
205.504	14.834	923.791	702.449
206.519	14.888	922.863	701.909
207.534	14.777	922.148	700.838
208.548	14.875	921.552	700.733
209.563	14.849	921.089	700.208
210.577	14.830	920.470	699.598
211.592	15.128	919.231	699.839
212.607	15.098	918.538	699.124
213.621	15.119	918.056	698.784
214.636	15.067	917.129	697.799
215.650	15.062	916.578	697.299
216.665	15.115	915.810	696.871
217.680	15.177	915.015	696.463
218.694	15.057	914.902	695.817
219.709	15.133	913.901	695.309
220.723	15.100	913.212	694.587
221.738	15.246	912.676	694.724
222.753	15.079	912.428	693.781
223.767	15.109	911.616	693.227
224.782	15.313	910.740	693.342
225.796	15.332	910.099	692.871
226.811	15.311	909.671	692.396
227.826	15.231	908.583	691.179
228.840	15.276	907.928	690.804
229.855	15.179	907.416	689.956
230.869	15.121	906.573	689.015
231.884	15.127	906.162	688.664
232.899	15.246	905.174	688.341
233.913	15.109	904.738	687.385
234.928	15.127	904.092	686.910
235.942	14.964	903.664	685.854
236.957	15.196	902.706	686.015
237.972	15.213	902.096	685.562
238.986	15.143	901.626	684.858
240.001	15.282	900.899	684.814
241.015	15.245	900.417	684.236
242.030	15.293	899.555	683.717
243.045	15.397	898.873	683.562
244.059	15.271	898.774	682.912
245.074	15.252	898.157	682.303
246.088	15.333	897.441	682.029
247.103	15.597	896.350	682.212
248.117	15.459	896.079	681.388
249.132	15.512	896.117	681.569
250.147	15.624	894.926	681.058
251.161	15.715	894.007	680.664
252.176	15.709	893.878	680.481
253.190	15.809	892.810	680.014
254.205	15.870	892.428	679.907
255.220	15.945	891.394	679.362
256.234	15.698	891.393	678.308
257.249	15.871	890.401	678.189
258.263	15.777	889.664	677.191
259.278	15.711	889.247	676.545
260.293	15.888	888.595	676.702
261.307	15.940	887.865	676.295
262.322	15.849	887.661	675.715
263.336	16.079	886.827	675.942
264.351	16.066	885.842	675.077
265.366	15.957	885.344	674.202
266.380	15.994	884.973	674.008
267.395	15.961	884.331	673.329
268.409	16.009	883.184	672.587
269.424	15.986	882.509	671.921
270.439	15.996	881.873	671.420
271.453	15.832	881.146	670.154
272.468	15.806	881.113	669.963
273.482	15.949	880.346	669.891
274.497	15.767	879.879	668.752
275.512	16.123	878.433	669.007
276.526	15.965	878.555	668.414
277.541	16.014	878.053	668.166
278.555	16.107	877.300	667.903
279.570	16.125	876.936	667.638
280.585	16.042	876.495	666.914
281.599	16.138	874.942	666.054
282.614	16.094	874.393	665.406
283.628	16.149	873.767	665.085
284.643	16.012	873.385	664.197
285.657	16.197	872.574	664.249
286.672	16.163	872.197	663.769
287.687	16.208	871.348	663.241
288.701	16.279	870.410	662.746
289.716	16.175	870.408	662.278
290.730	16.193	869.908	661.910
291.745	16.301	869.131	661.684
292.760	16.270	868.442	660.981
293.774	16.431	867.904	661.140
294.789	16.396	867.475	660.620
295.803	16.220	866.564	659.179
296.818	16.187	866.179	658.700
297.833	16.360	865.229	658.593
298.847	16.320	864.703	657.978
299.862	16.373	864.065	657.641
300.876	16.491	863.792	657.834
301.891	16.446	862.921	656.939
302.906	16.544	862.491	656.932
303.920	16.525	862.219	656.595
304.935	16.632	861.257	656.217
305.949	16.634	860.908	655.902
306.964	16.696	860.006	655.396
307.979	16.632	859.706	654.862
308.993	16.498	859.002	653.752
310.008	16.663	858.692	654.096
311.022	16.522	857.953	652.931
312.037	16.520	857.209	652.299
313.052	16.544	856.488	651.784
314.066	16.456	856.292	651.239
315.081	16.492	855.821	650.962
316.095	16.489	855.081	650.328
317.110	16.501	854.607	649.957
318.125	16.433	853.890	649.091
319.139	16.495	853.198	648.748
320.154	16.551	852.861	648.650
321.168	16.466	852.448	647.952
322.183	16.574	851.975	647.946
323.197	16.654	851.389	647.750
324.212	16.651	850.765	647.206
325.227	16.773	849.729	646.829
326.241	16.545	849.810	645.963
327.256	16.596	849.080	645.546
328.270	16.749	847.787	645.087
329.285	16.586	847.869	644.470
330.300	16.614	847.001	643.859
331.314	16.591	846.791	643.559
332.329	16.838	846.275	644.047
333.343	16.728	846.253	643.555
334.358	16.705	845.485	642.827
335.373	16.776	845.252	642.864
336.387	16.926	844.703	642.957
337.402	16.833	844.766	642.594
338.416	16.901	843.849	642.098
339.431	17.042	843.442	642.264
340.446	17.131	843.157	642.329
341.460	16.944	842.794	641.286
342.475	16.942	842.949	641.341
343.489	17.061	842.329	641.261
344.504	17.207	841.509	641.132
345.519	17.235	840.847	640.675
346.533	17.185	840.323	640.032
347.548	17.031	839.736	638.950
348.562	16.983	839.519	638.548
349.577	16.981	838.740	637.891
350.592	17.005	837.797	637.207
351.606	17.083	837.671	637.348
352.621	17.081	836.729	636.565
353.635	17.161	835.912	636.188
354.650	16.962	835.634	635.174
355.665	17.135	834.858	635.176
356.679	17.092	834.228	634.479
357.694	17.142	833.954	634.404
358.708	17.120	833.611	634.003
359.723	17.148	832.845	633.470
360.738	17.153	832.291	633.012
361.752	17.217	831.615	632.679
362.767	17.388	830.562	632.458
363.781	17.381	830.292	632.171
364.796	17.410	830.193	632.147
365.810	17.548	829.594	632.147
366.825	17.672	828.825	631.963
367.840	17.508	828.834	631.308
368.854	17.509	828.137	630.724
369.869	17.560	827.698	630.524
370.883	17.387	827.272	629.503
371.898	17.567	826.951	629.869
372.913	17.581	826.508	629.528
373.927	17.423	826.297	628.725
374.942	17.578	825.640	628.744
375.956	17.756	825.041	628.886
376.971	17.697	824.530	628.225
377.986	17.776	824.164	628.182
379.000	17.757	823.859	627.822
380.015	17.697	823.196	627.040
381.029	17.657	822.692	626.456
382.044	17.709	821.880	625.973
383.059	17.666	821.572	625.527
384.073	17.829	820.733	625.429
385.088	17.746	820.284	624.727
386.102	17.553	820.060	623.794
387.117	17.528	819.746	623.409
388.132	17.708	818.650	623.179
389.146	17.676	818.376	622.796
390.161	17.764	817.795	622.621
391.175	17.722	817.564	622.237
392.190	17.775	816.607	621.648
393.205	17.705	816.266	621.077
394.219	17.711	815.965	620.813
395.234	17.652	815.571	620.246
396.248	17.577	815.094	619.554
397.263	17.556	814.615	619.059
398.278	17.629	814.339	619.060
399.292	17.625	813.752	618.546
400.307	17.742	813.345	618.607
401.321	17.632	812.772	617.715
402.336	17.595	812.563	617.369
403.350	17.668	812.271	617.357
404.365	17.865	811.516	617.441
405.380	17.949	811.009	617.305
406.394	18.062	810.491	617.263
407.409	18.049	810.218	616.954
408.423	18.041	810.001	616.706
409.438	18.188	809.362	616.694
410.453	18.133	808.942	616.120
411.467	18.208	808.567	616.053
412.482	18.184	808.323	615.723
413.496	18.302	807.754	615.661
414.511	18.247	807.242	615.020
415.526	18.219	807.022	614.697
416.540	18.370	806.248	614.595
417.555	18.392	805.588	614.117
418.569	18.291	805.413	613.564
419.584	18.242	805.183	613.159
420.599	18.152	804.856	612.535
421.613	153.439	1370.658	1790.282
422.628	133.094	1453.105	1790.400
