DTS Sentinel unit serial number:	SN413079Multiplexer serial number:	ORYXHardware model number:	OX4-SRSoftware version number:	ORYX F/W v4.00 Oryx Data Collector v3.7.2.0data status	okinstallation	princeton_trtdifferential loss correction	single-endedforward channel	channel 1reverse channel	N/Adate	2019/09/18time	13:06:35forward acquisition time	60.00reverse acquisition time	0.00gamma	496.2192k internal	0.2316k external	0.2316temperature offset calibration	0.9977default loss term (dB/km)	0.3790temperature slope calibration	1.0000multiplexer offset coefficient	1.0000multiplexer slope coefficient	1.0000fibre end	0.00T internal ref (°C)	33.69T ext. ref 1 (°C)	0.58T ext. ref 2 (°C)	31.75length (m)	temperature (°C)	Stokes	anti-Stokes-747.200	-38.697	0.270	0.145
-746.185	-11.019	-0.432	0.289
-745.171	-200.000	-0.025	0.313
-744.156	15.131	-0.288	0.228
-743.142	-52.512	0.085	-0.040
-742.127	76.619	-0.530	0.570
-741.112	-200.000	0.058	-0.382
-740.098	-144.139	-0.052	0.005
-739.083	381.691	-0.097	-0.202
-738.069	800.000	-0.054	0.177
-737.054	619.368	-0.054	-0.138
-736.039	800.000	0.054	-0.167
-735.025	-9.252	0.215	-0.145
-734.010	-46.087	-0.261	-0.130
-732.996	762.760	-0.086	-0.237
-731.981	-24.077	-0.285	0.173
-730.966	800.000	-0.087	0.362
-729.952	190.359	0.136	-0.207
-728.937	-75.520	-0.256	-0.092
-727.923	-74.717	-0.407	0.148
-726.908	-200.000	0.055	-0.420
-725.894	175.456	-0.134	-0.196
-724.879	-166.585	-0.197	0.008
-723.864	-71.871	0.046	-0.017
-722.850	471.750	0.150	-0.341
-721.835	-200.000	0.013	0.111
-720.821	101.901	-0.153	-0.180
-719.806	105.155	-0.251	-0.300
-718.791	409.008	-0.121	-0.260
-717.777	800.000	-0.157	-0.488
-716.762	202.498	0.179	-0.280
-715.748	-130.218	-0.663	0.091
-714.733	-117.474	-0.442	-0.081
-713.718	13.340	0.295	-0.231
-712.704	-200.000	-0.062	0.352
-711.689	-102.773	0.106	-0.026
-710.675	-200.000	-0.015	-0.301
-709.660	-41.934	0.100	-0.052
-708.645	-38.338	-0.235	-0.126
-707.631	-29.207	0.086	-0.050
-706.616	362.483	0.075	-0.153
-705.602	132.757	-0.063	-0.082
-704.587	800.000	0.069	0.194
-703.572	270.009	0.011	-0.019
-702.558	-25.112	0.268	-0.160
-701.543	137.562	0.133	-0.176
-700.529	-200.000	-0.011	-0.098
-699.514	-6.887	-0.007	-0.005
-698.499	-200.000	0.046	-0.219
-697.485	154.281	0.260	-0.361
-696.470	16.282	-0.057	0.046
-695.456	-94.675	0.204	0.056
-694.441	22.517	0.069	-0.057
-693.426	-174.040	-0.243	0.007
-692.412	29.822	0.281	-0.242
-691.397	15.208	-0.085	0.067
-690.383	-200.000	-0.025	0.136
-689.368	-120.346	0.123	0.021
-688.354	640.459	-0.126	0.323
-687.339	-72.846	0.169	0.063
-686.324	-129.093	-0.125	-0.018
-685.310	800.000	-0.044	0.171
-684.295	-162.259	0.500	0.025
-683.281	370.510	0.083	-0.170
-682.266	-49.910	-0.072	0.035
-681.251	-45.498	0.071	0.036
-680.237	-9.256	-0.329	0.222
-679.222	494.018	0.075	-0.174
-678.208	13.502	-0.227	-0.178
-677.193	-200.000	-0.046	-0.305
-676.178	87.219	-0.084	0.094
-675.164	-200.000	-0.014	-0.077
-674.149	-81.076	-0.266	-0.089
-673.135	800.000	-0.052	-0.177
-672.120	-88.248	-0.214	0.065
-671.105	800.000	0.005	-0.017
-670.091	-143.046	-0.245	0.024
-669.076	800.000	-0.102	-0.285
-668.062	584.756	0.059	0.146
-667.047	536.304	0.080	-0.193
-666.032	765.058	-0.080	0.220
-665.018	-138.722	-0.286	-0.032
-664.003	-134.505	-0.131	-0.016
-662.989	800.000	0.049	0.186
-661.974	-6.303	-0.225	-0.155
-660.959	800.000	-0.106	-0.357
-659.945	-81.011	-0.286	0.096
-658.930	-5.414	-0.260	-0.180
-657.916	325.389	0.066	0.127
-656.901	-105.827	-0.056	0.013
-655.886	-174.980	-0.068	-0.002
-654.872	-29.300	-0.172	-0.100
-653.857	617.241	-0.051	-0.129
-652.843	-59.848	-0.234	-0.101
-651.828	415.235	-0.100	-0.214
-650.814	-101.125	-0.165	-0.041
-649.799	-156.115	-0.356	-0.023
-648.784	-123.014	-0.448	0.073
-647.770	-200.000	-0.031	-0.406
-646.755	227.691	-0.070	0.115
-645.741	139.793	-0.237	0.315
-644.726	-83.779	0.434	0.140
-643.711	64.530	-0.131	-0.133
-642.697	-200.000	-0.014	-0.304
-641.682	-176.291	-0.310	0.008
-640.668	586.417	-0.038	-0.093
-639.653	800.000	-0.035	-0.117
-638.638	102.847	0.238	0.282
-637.624	-200.000	-0.001	-0.272
-636.609	240.425	-0.072	-0.121
-635.595	-3.145	-0.192	0.135
-634.580	-18.081	0.234	-0.148
-633.565	286.585	-0.064	-0.116
-632.551	-15.481	-0.049	-0.031
-631.536	423.813	0.193	-0.419
-630.522	275.738	-0.119	-0.214
-629.507	-171.463	-0.203	0.007
-628.492	-125.515	-0.122	-0.019
-627.478	-100.124	0.263	0.066
-626.463	54.995	-0.093	-0.091
-625.449	-26.116	-0.246	-0.146
-624.434	-87.519	-0.071	0.022
-623.419	800.000	-0.043	0.167
-622.405	347.538	0.129	0.257
-621.390	466.017	0.042	0.096
-620.376	-136.642	-0.104	0.012
-619.361	590.680	-0.022	-0.056
-618.346	-3.760	0.179	0.125
-617.332	548.585	0.042	0.102
-616.317	145.896	0.062	-0.084
-615.303	800.000	-0.063	-0.271
-614.288	-120.270	-0.037	0.006
-613.273	-200.000	0.004	-0.073
-612.259	15.786	0.033	-0.027
-611.244	800.000	0.006	0.026
-610.230	-153.737	0.031	-0.002
-609.215	-137.010	0.147	-0.017
-608.201	38.750	-0.366	0.329
-607.186	232.705	0.113	-0.187
-606.171	138.791	0.079	-0.104
-605.157	-61.152	-0.139	-0.059
-604.142	-23.134	0.214	-0.130
-603.128	117.389	0.188	-0.233
-602.113	67.328	0.289	-0.297
-601.098	-137.213	-0.245	0.028
-600.084	-200.000	0.034	-0.270
-599.069	264.918	-0.054	0.094
-598.055	154.442	0.104	-0.144
-597.040	-45.019	-0.067	-0.033
-596.025	-165.024	0.111	-0.005
-595.011	438.240	0.057	-0.125
-593.996	-45.278	-0.072	0.036
-592.982	-56.969	-0.250	-0.111
-591.967	-132.357	0.211	-0.027
-590.952	288.940	0.051	-0.092
-589.938	79.924	0.183	-0.198
-588.923	-74.642	0.119	-0.043
-587.909	-20.406	0.109	-0.067
-586.894	-60.519	0.066	0.028
-585.879	-200.000	0.001	0.059
-584.865	31.321	-0.234	0.203
-583.850	107.657	0.148	0.178
-582.836	46.536	0.093	0.087
-581.821	-51.645	0.203	0.095
-580.806	110.672	-0.147	0.178
-579.792	-116.665	-0.270	0.050
-578.777	-200.000	0.021	-0.101
-577.763	-114.538	-0.347	0.067
-576.748	74.334	-0.127	0.134
-575.733	-200.000	0.007	-0.098
-574.719	184.246	-0.125	0.187
-573.704	-104.456	-0.204	-0.047
-572.690	350.648	0.192	0.383
-571.675	584.951	-0.025	-0.061
-570.661	419.490	0.152	-0.327
-569.646	-83.361	-0.178	-0.058
-568.631	474.901	0.077	0.175
-567.617	69.497	0.396	0.411
-566.602	-189.976	0.315	-0.004
-565.588	-200.000	0.043	-0.225
-564.573	-43.883	0.057	-0.029
-563.558	8.057	-0.176	0.133
-562.544	-200.000	-0.005	-0.163
-561.529	114.800	0.112	0.137
-560.515	290.988	0.126	-0.231
-559.500	800.000	0.042	-0.176
-558.485	21.338	-0.313	-0.256
-557.471	-78.201	-0.098	0.034
-556.456	-200.000	0.018	-0.147
-555.442	-82.308	0.251	0.082
-554.427	457.363	-0.051	0.114
-553.412	800.000	0.061	0.254
-552.398	308.750	-0.087	-0.164
-551.383	800.000	-0.064	-0.190
-550.369	536.848	-0.068	0.162
-549.354	-92.285	0.510	0.145
-548.339	-200.000	0.002	-0.186
-547.325	-116.309	0.370	0.069
-546.310	5.706	-0.051	0.038
-545.296	-200.000	0.069	-0.414
-544.281	-53.668	0.405	-0.186
-543.266	778.039	0.017	0.047
-542.252	123.274	-0.311	-0.391
-541.237	388.718	0.145	0.302
-540.223	249.584	-0.189	0.322
-539.208	800.000	-0.099	-0.371
-538.193	-165.069	0.376	0.017
-537.179	800.000	-0.059	0.170
-536.164	-29.747	-0.222	0.127
-535.150	-200.000	0.010	-0.134
-534.135	376.592	0.091	-0.186
-533.121	-98.685	-0.171	-0.044
-532.106	-49.447	0.072	-0.034
-531.091	-103.354	-0.301	-0.071
-530.077	-200.000	-0.012	-0.061
-529.062	-112.818	0.236	-0.047
-528.048	59.162	-0.090	-0.089
-527.033	-20.122	0.198	-0.123
-526.018	165.944	0.076	0.107
-525.004	168.227	-0.117	0.168
-523.989	245.213	0.303	0.512
-522.975	44.844	0.154	-0.143
-521.960	-95.306	0.075	-0.020
-520.945	139.603	-0.195	-0.259
-519.931	234.557	-0.221	0.366
-518.916	27.499	-0.123	-0.104
-517.902	92.257	-0.106	0.120
-516.887	-200.000	-0.036	-0.228
-515.872	-200.000	0.033	-0.269
-514.858	-112.895	-0.316	0.063
-513.843	-200.000	0.006	0.178
-512.829	312.199	0.094	-0.177
-511.814	-57.537	0.271	-0.119
-510.799	-54.126	-0.376	-0.172
-509.785	536.060	-0.073	0.174
-508.770	-42.209	-0.313	0.161
-507.756	74.321	0.162	0.171
-506.741	58.905	-0.095	0.094
-505.726	-93.596	-0.156	0.043
-504.712	-29.068	0.210	-0.121
-503.697	-41.907	-0.213	-0.109
-502.683	156.648	-0.106	0.147
-501.668	77.538	-0.066	0.070
-500.653	-49.164	-0.154	0.074
-499.639	800.000	-0.073	0.265
-498.624	-200.000	0.015	0.128
-497.610	149.571	0.090	0.122
-496.595	-47.750	0.318	-0.154
-495.581	-54.612	0.112	0.051
-494.566	800.000	0.065	0.228
-493.551	160.264	-0.074	-0.104
-492.537	330.807	0.046	0.090
-491.522	106.697	-0.073	-0.087
-490.508	49.572	-0.076	0.072
-489.493	578.494	0.137	0.336
-488.478	676.424	-0.057	-0.149
-487.464	96.546	-0.062	0.072
-486.449	800.000	0.122	-0.452
-485.435	-152.906	-0.320	-0.023
-484.420	177.244	0.104	0.152
-483.405	-46.073	-0.175	0.086
-482.391	-110.033	0.265	0.056
-481.376	-200.000	0.015	0.174
-480.362	11.841	0.283	-0.218
-479.347	-112.325	0.244	-0.049
-478.332	247.507	-0.101	-0.171
-477.318	800.000	-0.017	0.049
-476.303	-3.195	0.056	-0.039
-475.289	34.113	-0.153	-0.133
-474.274	70.002	-0.184	-0.190
-473.259	125.961	-0.053	-0.067
-472.245	-200.000	0.023	-0.318
-471.230	119.432	-0.248	0.308
-470.216	-176.838	-0.325	-0.008
-469.201	450.701	0.090	-0.198
-468.186	108.635	-0.234	-0.280
-467.172	268.735	0.148	-0.261
-466.157	-56.936	-0.160	0.071
-465.143	-76.288	0.157	0.056
-464.128	745.819	-0.020	0.054
-463.113	31.407	0.151	0.130
-462.099	85.673	0.112	0.123
-461.084	-200.000	-0.077	0.356
-460.070	-89.073	0.101	-0.030
-459.055	800.000	0.044	-0.177
-458.040	-200.000	-0.018	0.088
-457.026	41.118	-0.125	0.113
-456.011	35.946	0.032	0.028
-454.997	399.573	0.055	-0.115
-453.982	-39.105	0.083	-0.044
-452.968	251.598	-0.055	0.093
-451.953	202.752	0.138	-0.213
-450.938	-12.317	0.019	-0.012
-449.924	-200.000	0.054	-0.306
-448.909	441.687	-0.046	0.101
-447.895	-27.270	0.282	0.164
-446.880	474.620	0.128	-0.290
-445.865	93.508	-0.105	0.119
-444.851	-84.508	-0.304	0.096
-443.836	-88.673	0.313	-0.093
-442.822	-200.000	0.005	0.054
-441.807	100.681	0.141	-0.164
-440.792	800.000	-0.107	-0.369
-439.778	-3.906	0.181	-0.126
-438.763	800.000	0.092	0.378
-437.749	-12.032	-0.212	0.139
-436.734	116.076	-0.187	-0.229
-435.719	-105.346	-0.295	-0.067
-434.705	-76.508	0.086	0.030
-433.690	800.000	-0.066	0.191
-432.676	-195.580	0.142	0.001
-431.661	303.839	-0.144	-0.267
-430.646	33.605	0.351	-0.305
-429.632	-200.000	0.026	-0.302
-428.617	800.000	-0.029	0.122
-427.603	-200.000	0.014	-0.167
-426.588	-200.000	-0.078	-0.343
-425.573	800.000	0.068	-0.201
-424.559	-53.454	-0.255	-0.117
-423.544	-200.000	0.018	0.131
-422.530	-101.656	0.289	-0.070
-421.515	-200.000	0.016	-0.372
-420.500	-200.000	0.023	-0.199
-419.486	353.078	-0.098	0.195
-418.471	66.461	-0.321	-0.326
-417.457	241.421	0.074	0.124
-416.442	-18.909	-0.079	-0.049
-415.428	298.951	0.075	-0.139
-414.413	263.678	-0.105	-0.182
-413.398	151.425	0.126	0.172
-412.384	-5.275	-0.035	0.024
-411.369	800.000	-0.009	0.026
-410.355	62.553	0.050	0.050
-409.340	-134.468	0.047	0.006
-408.325	5.151	-0.334	-0.246
-407.311	-125.609	0.112	-0.017
-406.296	-30.857	-0.071	0.040
-405.282	173.104	-0.176	-0.254
-404.267	317.291	-0.151	0.286
-403.252	-200.000	-0.013	0.184
-402.238	139.434	-0.121	0.160
-401.223	9.380	-0.201	0.152
-400.209	-19.076	0.398	-0.247
-399.194	-6.034	0.134	-0.092
-398.179	24.687	-0.197	0.163
-397.165	-200.000	0.017	0.313
-396.150	794.336	-0.137	0.376
-395.136	-29.724	-0.076	0.043
-394.121	302.970	-0.071	-0.132
-393.106	90.332	-0.194	0.217
-392.092	-64.190	0.239	-0.097
-391.077	-90.040	-0.027	-0.008
-390.063	-112.705	0.095	0.019
-389.048	-73.502	0.150	0.055
-388.033	70.491	-0.127	-0.131
-387.019	-200.000	0.167	0.001
-386.004	-200.000	-0.068	-0.340
-384.990	-133.950	-0.457	0.057
-383.975	-142.515	0.109	-0.011
-382.960	439.062	0.092	0.201
-381.946	197.227	-0.132	0.200
-380.931	110.061	0.144	-0.173
-379.917	-53.903	0.617	0.281
-378.902	-97.920	0.305	-0.079
-377.888	-109.764	0.173	-0.036
-376.873	-98.673	-0.227	-0.058
-375.858	800.000	-0.132	0.378
-374.844	-176.335	0.459	0.012
-373.829	122.732	0.163	-0.204
-372.815	115.112	0.217	0.265
-371.800	97.129	0.220	-0.252
-370.785	-58.287	0.328	0.142
-369.771	268.191	0.085	-0.149
-368.756	-158.637	0.270	0.016
-367.742	-32.968	-0.193	0.107
-366.727	-44.518	-0.291	0.145
-365.712	-81.745	0.241	0.079
-364.698	-41.871	-0.202	0.104
-363.683	-47.607	0.194	0.094
-362.669	-0.512	0.172	-0.122
-361.654	-200.000	0.013	0.244
-360.639	-108.741	0.150	-0.032
-359.625	229.753	0.231	0.377
-358.610	-86.189	-0.325	0.100
-357.596	800.000	0.053	0.203
-356.581	146.396	-0.121	0.162
-355.566	-83.174	-0.074	-0.024
-354.552	236.620	0.062	0.102
-353.537	-200.000	0.038	0.438
-352.523	-200.000	-0.018	0.135
-351.508	-200.000	-0.002	0.224
-350.493	556.823	0.039	-0.093
-349.479	-183.507	0.379	-0.007
-348.464	110.163	-0.089	0.107
-347.450	77.789	-0.267	0.284
-346.435	-200.000	0.016	-0.094
-345.420	800.000	0.030	-0.113
-344.406	-7.807	-0.015	-0.010
-343.391	-77.201	0.382	0.133
-342.377	528.253	-0.114	0.267
-341.362	214.616	-0.209	-0.331
-340.348	-75.187	0.223	-0.079
-339.333	-138.476	0.286	0.031
-338.318	800.000	-0.062	-0.183
-337.304	-20.084	-0.079	-0.049
-336.289	23.852	0.171	0.140
-335.275	227.354	0.099	0.160
-334.260	658.736	0.117	0.301
-333.245	-2.422	0.362	0.253
-332.231	419.148	-0.169	0.361
-331.216	62.167	0.169	-0.168
-330.202	800.000	0.068	-0.296
-329.187	-200.000	-0.034	-0.211
-328.172	-59.158	-0.119	-0.051
-327.158	-7.708	0.155	-0.105
-326.143	-91.681	-0.074	0.021
-325.129	-18.545	-0.177	-0.110
-324.114	800.000	0.064	-0.273
-323.099	-52.560	0.329	-0.152
-322.085	-97.428	-0.170	-0.044
-321.070	30.486	-0.176	0.150
-320.056	204.004	0.156	0.241
-319.041	800.000	-0.107	0.444
-318.026	800.000	0.043	-0.166
-317.012	-166.955	-0.098	-0.004
-315.997	-42.490	-0.123	0.063
-314.983	-77.360	-0.116	0.040
-313.968	-200.000	-0.012	0.176
-312.953	-200.000	-0.008	-0.162
-311.939	676.911	0.025	0.065
-310.924	-161.499	-0.249	-0.013
-309.910	-35.344	0.060	-0.033
-308.895	-105.561	-0.290	0.065
-307.880	11.193	0.143	-0.109
-306.866	-43.518	0.179	-0.090
-305.851	302.608	0.106	-0.195
-304.837	42.133	-0.155	-0.140
-303.822	-125.972	-0.274	-0.041
-302.807	33.455	0.307	0.265
-301.793	263.980	-0.016	-0.027
-300.778	-200.000	-0.024	-0.311
-299.764	-30.374	0.200	-0.113
-298.749	191.119	0.153	0.229
-297.735	-101.648	-0.167	-0.040
-296.720	-36.925	0.208	0.111
-295.705	61.531	0.102	-0.101
-294.691	-42.924	-0.086	0.043
-293.676	639.924	-0.112	0.283
-292.662	-200.000	-0.012	0.146
-291.647	486.773	0.070	0.160
-290.632	-200.000	0.038	-0.229
-289.618	-8.879	-0.107	0.071
-288.603	-128.030	-0.155	0.022
-287.589	-46.946	-0.171	-0.083
-286.574	38.225	0.319	-0.283
-285.559	35.138	-0.195	0.170
-284.545	-22.984	0.161	-0.097
-283.530	-63.169	-0.328	0.135
-282.516	20.899	0.349	0.282
-281.501	551.246	0.112	0.268
-280.486	-87.759	-0.049	-0.015
-279.472	-124.512	0.188	0.029
-278.457	-147.919	0.204	-0.017
-277.443	-200.000	-0.047	0.209
-276.428	346.055	0.092	0.181
-275.413	-6.900	-0.064	-0.043
-274.399	4.008	-0.076	0.055
-273.384	60.117	-0.171	-0.168
-272.370	-30.295	0.234	-0.132
-271.355	68.397	-0.059	0.060
-270.340	47.145	-0.245	0.227
-269.326	-144.511	0.285	-0.026
-268.311	-62.785	-0.216	0.089
-267.297	-53.417	-0.235	-0.107
-266.282	-25.865	0.324	-0.190
-265.267	800.000	-0.113	0.351
-264.253	429.568	-0.142	-0.305
-263.238	617.998	-0.103	-0.258
-262.224	-125.596	0.309	-0.047
-261.209	463.729	0.019	-0.042
-260.195	283.846	-0.142	-0.254
-259.180	-200.000	0.017	0.170
-258.165	-71.959	-0.150	0.055
-257.151	64.919	-0.193	-0.193
-256.136	800.000	-0.049	0.147
-255.122	193.040	0.011	0.017
-254.107	3.515	0.240	-0.174
-253.092	-148.671	-0.267	0.022
-252.078	178.608	-0.107	0.155
-251.063	-70.500	0.143	-0.054
-250.049	-200.000	-0.093	-0.486
-249.034	85.286	-0.127	0.139
-248.019	-113.335	0.229	-0.045
-247.005	-115.779	0.368	0.069
-245.990	-116.859	-0.131	0.024
-244.976	800.000	-0.054	0.164
-243.961	43.727	-0.178	-0.162
-242.946	131.615	-0.183	-0.234
-241.932	-36.090	0.228	0.122
-240.917	263.884	-0.188	-0.324
-239.903	361.488	-0.044	0.088
-238.888	-200.000	-0.012	-0.274
-237.873	-200.000	-0.024	0.142
-236.859	-200.000	0.033	0.176
-235.844	486.401	-0.049	0.111
-234.830	-56.930	0.144	-0.063
-233.815	64.154	-0.192	-0.192
-232.800	-30.220	-0.228	-0.129
-231.786	800.000	-0.086	0.254
-230.771	-153.518	-0.306	0.021
-229.757	101.569	-0.174	0.201
-228.742	371.607	0.109	-0.220
-227.727	76.131	-0.444	0.467
-226.713	-200.000	-0.034	0.331
-225.698	-80.348	0.128	-0.043
-224.684	-117.286	0.336	0.061
-223.669	-200.000	-0.035	-0.261
-222.655	69.196	-0.112	-0.114
-221.640	-200.000	-0.049	0.312
-220.625	-124.358	0.290	-0.045
-219.611	800.000	-0.047	-0.196
-218.596	-0.756	-0.034	-0.024
-217.582	82.986	0.158	0.171
-216.567	47.879	-0.041	0.038
-215.552	-200.000	0.033	-0.158
-214.538	-114.655	-0.329	0.063
-213.523	3.001	-0.236	-0.170
-212.509	-200.000	-0.000	-0.031
-211.494	235.452	-0.108	-0.178
-210.479	-85.554	0.111	-0.034
-209.465	-148.336	0.278	0.023
-208.450	800.000	-0.056	0.198
-207.436	159.439	-0.118	-0.162
-206.421	-200.000	0.006	0.076
-205.406	800.000	0.054	0.179
-204.392	-100.477	-0.320	-0.079
-203.377	-9.054	-0.118	0.079
-202.363	-113.332	0.103	0.020
-201.348	261.559	-0.103	-0.177
-200.333	359.215	0.250	0.496
-199.319	-200.000	-0.002	0.339
-198.304	301.784	-0.048	0.088
-197.290	12.425	-0.188	-0.144
-196.275	-200.000	-0.034	0.368
-195.260	-200.000	-0.024	0.200
-194.246	-154.619	-0.304	0.020
-193.231	-200.000	-0.057	0.316
-192.217	317.283	-0.202	0.378
-191.202	-200.000	0.049	0.329
-190.187	-200.000	-0.032	0.261
-189.173	-5.829	0.395	-0.268
-188.158	18.143	0.264	-0.209
-187.144	-14.804	-0.131	-0.084
-186.129	-54.746	0.084	-0.038
-185.114	-42.775	0.242	-0.122
-184.100	-28.446	0.110	-0.063
-183.085	-136.908	-0.089	-0.010
-182.071	-200.000	0.057	-0.308
-181.056	800.000	0.045	0.145
-180.042	727.012	-0.112	0.296
-179.027	-3.124	-0.394	0.272
-178.012	-200.000	-0.031	0.226
-176.998	-200.000	0.403	0.001
-175.983	-200.000	0.017	-0.102
-174.969	-19.641	-0.072	-0.044
-173.954	800.000	0.082	-0.247
-172.939	-123.367	0.297	-0.047
-171.925	-138.492	0.162	-0.018
-170.910	154.014	-0.357	-0.485
-169.896	9.388	0.154	0.115
-168.881	-200.000	0.001	-0.141
-167.866	-169.803	-0.148	-0.005
-166.852	800.000	-0.056	-0.229
-165.837	800.000	0.032	0.135
-164.823	-150.292	-0.452	-0.035
-163.808	-200.000	0.006	-0.228
-162.793	-152.383	0.013	-0.001
-161.779	-200.000	0.047	-0.239
-160.764	-118.438	0.202	0.035
-159.750	-200.000	0.010	0.148
-158.735	6.384	0.070	0.051
-157.720	-31.772	-0.211	0.117
-156.706	102.292	0.140	-0.162
-155.691	-200.000	0.033	0.212
-154.677	235.282	-0.203	0.331
-153.662	-23.916	-0.288	-0.171
-152.647	-45.391	0.307	-0.151
-151.633	-72.246	-0.183	0.067
-150.618	800.000	0.078	0.335
-149.604	249.136	-0.207	0.347
-148.589	-1.302	0.326	0.228
-147.574	277.384	-0.066	-0.117
-146.560	106.517	-0.133	0.156
-145.545	17.672	-0.219	0.173
-144.531	-200.000	0.010	-0.058
-143.516	-200.000	-0.007	0.088
-142.502	800.000	0.049	0.136
-141.487	26.784	-0.091	-0.075
-140.472	-88.000	0.246	-0.073
-139.458	800.000	-0.057	0.196
-138.443	-106.766	0.250	0.055
-137.429	171.030	-0.091	0.129
-136.414	315.061	-0.070	0.130
-135.399	-200.000	0.032	0.147
-134.385	332.894	0.200	0.383
-133.370	-37.332	-0.117	0.062
-132.356	-200.000	0.006	-0.171
-131.341	62.194	0.088	0.086
-130.326	285.550	0.082	-0.147
-129.312	245.851	-0.087	-0.145
-128.297	-13.312	0.347	0.223
-127.283	-111.152	0.105	0.021
-126.268	-122.308	-0.228	-0.037
-125.253	-200.000	0.061	0.271
-124.239	-200.000	0.025	0.217
-123.224	-110.130	0.196	-0.040
-122.210	294.251	0.193	0.348
-121.195	35.869	0.037	0.032
-120.180	133.735	0.177	-0.226
-119.166	300.893	0.110	-0.201
-118.151	-58.998	-0.276	-0.118
-117.137	25.015	-0.100	0.082
-116.122	-41.784	0.275	-0.140
-115.107	-78.036	-0.240	-0.082
-114.093	-12.119	0.105	0.068
-113.078	-134.180	-0.149	0.018
-112.064	-83.479	-0.093	-0.030
-111.049	800.000	-0.031	-0.128
-110.034	-141.104	0.367	0.037
-109.020	-40.368	-0.158	-0.081
-108.005	-33.262	0.283	-0.155
-106.991	95.498	-0.105	-0.118
-105.976	-32.050	0.310	0.171
-104.962	378.054	0.072	0.145
-103.947	-200.000	-0.021	-0.259
-102.932	65.936	0.027	-0.027
-101.918	28.426	0.180	-0.151
-100.903	-81.635	0.121	0.039
-99.889	88.009	-0.111	0.121
-98.874	361.447	0.021	-0.042
-97.859	-85.850	0.156	-0.048
-96.845	-200.000	-0.016	-0.392
-95.830	-78.741	0.180	0.061
-94.816	313.123	-0.024	-0.044
-93.801	23.729	-0.037	-0.030
-92.786	-200.000	0.005	-0.062
-91.772	102.564	0.161	-0.185
-90.757	45.429	-0.324	-0.296
-89.743	-200.000	-0.040	-0.272
-88.728	-150.823	0.205	0.015
-87.713	19.025	0.172	-0.136
-86.699	-71.502	0.315	-0.116
-85.684	314.021	0.037	0.069
-84.670	46.234	-0.133	-0.122
-83.655	-146.234	0.120	0.010
-82.640	-200.000	0.023	-0.262
-81.626	382.313	-0.120	-0.244
-80.611	-18.567	-0.096	-0.059
-79.597	21.245	-0.264	0.212
-78.582	4.671	-0.137	0.100
-77.567	-200.000	0.034	0.238
-76.553	-108.423	0.381	-0.081
-75.538	800.000	0.066	0.208
-74.524	75.481	-0.077	-0.080
-73.509	-200.000	-0.036	-0.244
-72.494	-38.263	-0.088	-0.046
-71.480	-5.063	0.163	-0.111
-70.465	-200.000	0.005	-0.131
-69.451	253.556	-0.090	-0.152
-68.436	-200.000	0.058	-0.255
-67.422	723.593	-0.114	0.299
-66.407	-81.837	0.217	0.070
-65.392	220.595	0.202	-0.320
-64.378	-200.000	-0.026	0.450
-63.363	51.788	-0.203	0.190
-62.349	-10.990	0.422	0.275
-61.334	79.440	-0.924	-0.977
-60.319	2.887	0.487	0.349
-59.305	800.000	-0.246	-0.767
-58.290	800.000	0.360	1.087
-57.276	800.000	0.411	1.463
-56.261	-200.000	96.225	546.861
-55.246	488.332	1436.478	3235.220
-54.232	144.029	2660.088	3498.760
-53.217	109.189	2226.722	2627.812
-52.203	45.105	1663.590	1511.684
-51.188	37.165	1393.420	1216.615
-50.173	33.895	1350.288	1159.002
-49.159	54.812	1398.488	1330.647
-48.144	57.570	1416.220	1364.577
-47.130	37.389	1371.944	1199.056
-46.115	33.823	1353.898	1161.473
-45.100	33.631	1349.583	1156.554
-44.086	33.685	1346.763	1154.421
-43.071	33.567	1344.644	1151.842
-42.057	33.598	1342.314	1149.987
-41.042	33.589	1340.822	1148.611
-40.027	33.661	1339.054	1147.485
-39.013	33.573	1337.444	1145.532
-37.998	33.683	1335.467	1144.455
-36.984	33.800	1333.375	1143.320
-35.969	33.812	1331.964	1142.136
-34.954	33.799	1330.046	1140.373
-33.940	33.742	1328.899	1138.997
-32.925	33.736	1327.677	1137.869
-31.911	33.857	1325.759	1136.908
-30.896	33.854	1324.041	1135.368
-29.881	33.837	1323.004	1134.333
-28.867	33.837	1321.620	1133.101
-27.852	33.720	1320.578	1131.469
-26.838	33.742	1318.743	1129.980
-25.823	33.841	1317.547	1129.497
-24.809	33.806	1315.478	1127.472
-23.794	33.753	1314.537	1126.306
-22.779	33.773	1313.079	1125.133
-21.765	33.737	1312.273	1124.185
-20.750	33.734	1310.881	1122.931
-19.736	33.673	1309.640	1121.463
-18.721	33.606	1308.454	1120.007
-17.706	33.709	1306.706	1119.074
-16.692	33.676	1305.842	1118.096
-15.677	33.609	1304.764	1116.729
-14.663	33.617	1303.609	1115.745
-13.648	33.634	1302.404	1114.767
-12.633	33.611	1301.578	1113.883
-11.619	33.524	1300.660	1112.545
-10.604	33.600	1299.796	1112.203
-9.590	33.586	1299.049	1111.440
-8.575	33.469	1298.097	1109.899
-7.560	33.551	1297.205	1109.569
-6.546	33.574	1296.574	1109.118
-5.531	33.517	1294.978	1107.379
-4.517	33.622	1294.162	1107.248
-3.502	33.701	1293.248	1106.882
-2.487	33.722	1292.423	1106.255
-1.473	33.776	1288.574	1103.230
-0.458	32.872	1274.249	1085.725
0.556	28.173	1256.494	1047.806
1.571	24.024	1262.925	1029.140
2.586	22.453	1277.284	1031.555
3.600	21.204	1265.253	1014.495
4.615	15.361	1188.708	921.047
5.629	5.853	1107.766	809.393
6.644	0.935	1086.148	768.608
7.659	0.518	1083.599	764.624
8.673	0.475	1082.675	763.684
9.688	0.413	1081.082	762.180
10.702	0.726	1079.676	762.702
11.717	6.213	1087.168	795.748
12.731	14.890	1098.253	847.967
13.746	17.812	1101.722	865.415
14.761	17.251	1100.143	861.257
15.775	16.448	1098.195	855.595
16.790	15.348	1096.219	848.416
17.804	14.714	1094.612	843.895
18.819	14.333	1093.402	840.961
19.834	14.012	1092.646	838.688
20.848	13.680	1091.833	836.315
21.863	13.530	1090.579	834.525
22.877	13.248	1089.968	832.565
23.892	13.372	1088.902	832.302
24.907	13.374	1088.439	831.883
25.921	13.346	1087.817	831.190
26.936	13.405	1086.723	830.580
27.950	13.452	1085.662	829.931
28.965	13.455	1084.651	829.100
29.980	13.616	1082.667	828.313
30.994	13.627	1082.027	827.807
32.009	13.582	1081.235	826.904
33.023	13.490	1080.269	825.634
34.038	13.503	1079.014	824.663
35.053	13.457	1078.554	824.013
36.067	13.512	1077.384	823.316
37.082	13.566	1076.362	822.733
38.096	13.568	1075.362	821.903
39.111	13.583	1074.678	821.385
40.126	13.467	1073.790	820.056
41.140	13.401	1072.817	818.914
42.155	13.323	1071.266	817.276
43.169	13.352	1070.316	816.620
44.184	13.319	1069.453	815.725
45.199	13.294	1068.361	814.700
46.213	13.351	1067.199	814.021
47.228	13.407	1065.906	813.236
48.242	13.537	1064.858	813.006
49.257	13.407	1064.025	811.658
50.271	13.333	1063.603	810.902
51.286	13.414	1062.604	810.467
52.301	13.438	1061.308	809.524
53.315	13.350	1060.525	808.426
54.330	13.501	1059.068	807.980
55.344	13.441	1058.174	806.932
56.359	13.554	1057.707	807.053
57.374	13.357	1056.753	805.295
58.388	13.321	1055.580	804.158
59.403	13.223	1055.289	803.386
60.417	13.245	1054.516	802.834
61.432	13.279	1053.922	802.478
62.447	13.261	1052.666	801.361
63.461	13.261	1052.055	800.824
64.476	13.207	1050.710	799.472
65.490	13.245	1050.331	799.293
66.505	13.384	1049.543	799.297
67.520	13.364	1048.792	798.559
68.534	13.289	1048.121	797.612
69.549	13.370	1047.160	797.204
70.563	13.277	1046.598	796.257
71.578	13.263	1045.876	795.567
72.593	13.273	1044.807	794.732
73.607	13.237	1044.287	794.095
74.622	13.283	1043.593	793.717
75.636	13.214	1043.081	792.925
76.651	13.147	1042.414	792.026
77.666	13.349	1041.398	792.155
78.680	13.270	1041.126	791.500
79.695	13.191	1040.626	790.671
80.709	13.301	1039.741	790.452
81.724	13.316	1038.998	789.892
82.739	13.406	1038.096	789.564
83.753	13.504	1037.424	789.449
84.768	13.530	1036.026	788.441
85.782	13.561	1035.195	787.883
86.797	13.341	1034.440	786.195
87.812	13.381	1033.788	785.821
88.826	13.398	1032.740	785.034
89.841	13.510	1031.519	784.567
90.855	13.481	1031.052	784.004
91.870	13.502	1030.426	783.558
92.884	13.456	1029.455	782.533
93.899	13.632	1028.124	782.284
94.914	13.460	1027.838	781.184
95.928	13.603	1027.114	781.243
96.943	13.627	1025.545	780.092
97.957	13.423	1025.022	778.665
98.972	13.456	1023.943	777.930
99.987	13.554	1023.207	777.763
101.001	13.449	1022.470	776.644
102.016	13.433	1021.973	776.121
103.030	13.527	1020.635	775.476
104.045	13.540	1020.094	775.059
105.060	13.472	1019.231	774.014
106.074	13.458	1018.338	773.202
107.089	13.384	1017.024	771.794
108.103	13.467	1016.120	771.426
109.118	13.453	1014.986	770.429
110.133	13.300	1014.437	769.233
111.147	13.423	1013.286	768.866
112.162	13.426	1012.597	768.286
113.176	13.602	1011.803	768.433
114.191	13.511	1010.960	767.303
115.206	13.497	1009.957	766.410
116.220	13.568	1009.177	766.077
117.235	13.402	1008.413	764.662
118.249	13.540	1007.643	764.648
119.264	13.527	1006.605	763.735
120.279	13.531	1005.945	763.185
121.293	13.481	1005.059	762.214
122.308	13.429	1004.334	761.360
123.322	13.440	1003.622	760.803
124.337	13.538	1001.987	759.945
125.352	13.414	1001.394	758.858
126.366	13.435	1000.172	757.962
127.381	13.477	998.850	757.087
128.395	13.516	998.157	756.671
129.410	13.548	997.250	756.061
130.424	13.519	996.249	755.103
131.439	13.487	995.800	754.552
132.454	13.705	994.603	754.572
133.468	13.596	994.342	753.811
134.483	13.592	993.138	752.810
135.497	13.554	992.466	752.065
136.512	13.650	991.254	751.515
137.527	13.628	990.422	750.718
138.541	13.562	989.840	749.908
139.556	13.561	989.236	749.380
140.570	13.734	988.533	749.564
141.585	13.685	987.789	748.712
142.600	13.864	986.459	748.444
143.614	13.721	985.863	747.282
144.629	13.730	984.975	746.584
145.643	13.680	984.461	745.904
146.658	13.635	983.112	744.611
147.673	13.662	981.997	743.825
148.687	13.560	981.258	742.743
149.702	13.652	980.195	742.285
150.716	13.663	979.364	741.638
151.731	13.602	979.140	741.129
152.746	13.682	978.076	740.616
153.760	13.629	977.578	739.938
154.775	13.700	977.010	739.758
155.789	13.713	976.344	739.247
156.804	13.792	975.462	738.866
157.819	13.726	974.966	738.128
158.833	13.772	974.236	737.715
159.848	13.786	973.148	736.888
160.862	13.759	972.441	736.168
161.877	13.750	971.501	735.352
162.892	13.897	970.100	734.878
163.906	13.750	969.640	733.814
164.921	13.872	968.697	733.574
165.935	13.858	967.820	732.784
166.950	13.792	966.902	731.733
167.964	13.776	966.171	731.044
168.979	13.922	965.083	730.798
169.994	13.867	963.986	729.660
171.008	13.901	963.615	729.466
172.023	13.781	963.302	728.638
173.037	14.063	961.961	728.796
174.052	13.859	961.367	727.387
175.067	13.840	960.916	726.899
176.081	13.986	959.816	726.641
177.096	13.813	959.974	725.938
178.110	13.921	958.966	725.585
179.125	13.952	958.596	725.376
180.140	14.007	957.787	724.937
181.154	14.044	957.555	724.859
182.169	13.999	957.185	724.320
183.183	14.044	956.409	723.866
184.198	14.051	955.776	723.351
185.213	14.093	954.811	722.739
186.227	14.091	954.237	722.235
187.242	14.100	953.269	721.475
188.256	14.122	952.573	720.980
189.271	14.121	952.187	720.620
190.286	14.002	951.256	719.334
191.300	13.975	950.463	718.555
192.315	13.926	950.105	718.010
193.329	14.070	949.572	718.168
194.344	13.906	948.897	716.885
195.359	14.119	947.985	717.051
196.373	14.052	947.010	715.959
197.388	14.188	946.694	716.244
198.402	14.197	946.397	715.993
199.417	14.180	945.854	715.447
200.432	14.301	944.990	715.253
201.446	14.339	944.250	714.789
202.461	14.260	944.124	714.294
203.475	14.371	943.373	714.138
204.490	14.336	942.434	713.213
205.504	14.355	941.852	712.789
206.519	14.309	941.129	711.983
207.534	14.298	940.703	711.551
208.548	14.295	940.237	711.125
209.563	14.298	939.019	710.153
210.577	14.291	938.392	709.584
211.592	14.506	937.849	710.027
212.607	14.400	936.835	708.747
213.621	14.554	935.533	708.353
214.636	14.520	935.429	708.065
215.650	14.430	934.909	707.230
216.665	14.475	934.625	707.143
217.680	14.449	933.754	706.308
218.694	14.567	932.980	706.161
219.709	14.701	931.933	705.874
220.723	14.533	931.607	704.856
221.738	14.577	930.727	704.311
222.753	14.455	930.281	703.398
223.767	14.704	929.411	703.728
224.782	14.705	928.974	703.339
225.796	14.720	928.715	703.143
226.811	14.787	927.460	702.411
227.826	14.625	927.146	701.433
228.840	14.610	926.345	700.702
229.855	14.568	925.299	699.669
230.869	14.682	924.570	699.535
231.884	14.747	924.179	699.450
232.899	14.650	923.188	698.233
233.913	14.692	922.320	697.690
234.928	14.633	921.842	697.021
235.942	14.629	921.459	696.652
236.957	14.773	920.759	696.661
237.972	14.684	920.479	696.018
238.986	14.659	919.710	695.270
240.001	14.833	918.585	695.082
241.015	14.692	918.575	694.426
242.030	14.761	917.483	693.827
243.045	14.909	917.207	694.170
244.059	14.777	916.715	693.187
245.074	14.951	915.606	693.011
246.088	14.887	915.157	692.343
247.103	14.888	914.063	691.457
248.117	14.914	914.267	691.659
249.132	14.959	913.798	691.428
250.147	15.160	912.646	691.326
251.161	15.046	912.256	690.499
252.176	15.035	911.513	689.832
253.190	15.026	910.834	689.216
254.205	15.190	909.850	689.089
255.220	15.019	909.898	688.359
256.234	15.099	909.158	688.066
257.249	15.194	908.188	687.664
258.263	15.143	907.387	686.785
259.278	15.232	906.621	686.509
260.293	15.233	906.007	685.987
261.307	15.356	905.329	685.917
262.322	15.420	904.631	685.590
263.336	15.362	904.275	685.023
264.351	15.367	903.387	684.309
265.366	15.364	902.731	683.740
266.380	15.370	902.159	683.270
267.395	15.521	901.256	683.141
268.409	15.352	900.723	681.990
269.424	15.388	899.853	681.415
270.439	15.341	899.221	680.684
271.453	15.407	898.375	680.253
272.468	15.443	898.005	680.057
273.482	15.473	897.421	679.678
274.497	15.511	896.497	679.073
275.512	15.483	895.922	678.464
276.526	15.430	896.032	678.271
277.541	15.505	895.152	677.848
278.555	15.568	894.648	677.659
279.570	15.572	893.770	676.952
280.585	15.565	893.021	676.295
281.599	15.670	892.233	676.061
282.614	15.589	891.390	675.039
283.628	15.653	890.923	674.881
284.643	15.549	890.631	674.184
285.657	15.649	890.068	674.099
286.672	15.638	889.395	673.486
287.687	15.581	888.609	672.604
288.701	15.622	887.901	672.171
289.716	15.682	887.383	671.960
290.730	15.780	886.819	671.862
291.745	15.683	886.273	671.004
292.760	15.684	885.589	670.430
293.774	15.920	884.667	670.615
294.789	15.816	884.133	669.736
295.803	15.894	883.484	669.493
296.818	15.732	883.186	668.564
297.833	15.855	881.869	667.999
298.847	15.810	881.455	667.446
299.862	15.813	881.063	667.101
300.876	15.815	880.544	666.658
301.891	15.947	879.719	666.497
302.906	15.942	879.202	666.026
303.920	15.925	878.699	665.520
304.935	16.069	878.121	665.593
305.949	15.978	877.599	664.777
306.964	15.969	876.876	664.134
307.979	16.052	876.205	663.897
308.993	16.078	875.981	663.771
310.008	16.052	875.424	663.187
311.022	16.157	874.522	662.858
312.037	16.095	874.044	662.195
313.052	16.052	872.996	661.170
314.066	15.966	873.042	660.809
315.081	16.005	872.316	660.355
316.095	16.053	871.816	660.106
317.110	15.997	871.166	659.338
318.125	16.105	870.703	659.350
319.139	16.126	870.107	658.922
320.154	16.075	869.534	658.232
321.168	16.091	868.905	657.759
322.183	16.098	868.202	657.197
323.197	16.090	867.946	656.914
324.212	16.073	867.184	656.210
325.227	16.161	866.585	656.045
326.241	16.190	865.979	655.640
327.256	16.186	865.685	655.343
328.270	15.982	865.372	654.257
329.285	16.202	864.765	654.593
330.300	16.072	864.052	653.489
331.314	16.241	863.232	653.469
332.329	16.324	862.964	653.526
333.343	16.312	862.422	653.013
334.358	16.252	862.053	652.446
335.373	16.284	861.643	652.198
336.387	16.347	861.171	652.029
337.402	16.247	861.191	651.600
338.416	16.412	860.482	651.642
339.431	16.331	860.188	651.048
340.446	16.548	859.527	651.327
341.460	16.514	859.203	650.892
342.475	16.449	858.936	650.384
343.489	16.474	858.322	649.955
344.504	16.581	857.899	649.991
345.519	16.580	857.444	649.583
346.533	16.689	856.622	649.321
347.548	16.509	856.328	648.352
348.562	16.558	855.909	648.165
349.577	16.550	855.109	647.471
350.592	16.662	854.277	647.212
351.606	16.612	853.696	646.522
352.621	16.512	853.261	645.755
353.635	16.631	852.366	645.475
354.650	16.646	851.718	644.985
355.665	16.711	850.987	644.619
356.679	16.523	850.833	643.729
357.694	16.655	849.928	643.492
358.708	16.727	849.262	643.203
359.723	16.669	848.751	642.541
360.738	16.703	848.326	642.291
361.752	16.747	847.337	641.650
362.767	16.742	846.961	641.291
363.781	16.828	846.838	641.464
364.796	16.801	845.892	640.592
365.810	16.916	845.446	640.632
366.825	16.793	845.250	639.962
367.840	16.898	844.423	639.672
368.854	16.912	844.001	639.350
369.869	16.939	843.501	639.018
370.883	16.927	843.400	638.837
371.898	16.936	842.901	638.438
372.913	17.012	842.268	638.187
373.927	16.931	841.924	637.565
374.942	16.985	841.216	637.177
375.956	17.073	841.162	637.409
376.971	17.140	840.648	637.215
377.986	17.111	839.963	636.533
379.000	17.122	839.556	636.208
380.015	17.192	838.819	635.855
381.029	17.228	838.481	635.679
382.044	17.279	837.783	635.282
383.059	17.317	837.332	635.027
384.073	17.179	836.624	633.917
385.088	17.396	835.828	634.069
386.102	17.122	835.582	632.804
387.117	17.165	835.145	632.579
388.132	17.143	834.444	631.909
389.146	17.265	833.945	631.929
390.161	17.217	833.067	631.030
391.175	17.406	832.702	631.397
392.190	17.288	832.315	630.609
393.205	17.311	832.087	630.468
394.219	17.297	831.467	629.891
395.234	17.323	831.276	629.787
396.248	17.268	830.601	629.016
397.263	17.250	830.189	628.582
398.278	17.175	829.835	627.981
399.292	17.276	829.455	628.009
400.307	17.279	829.200	627.772
401.321	17.323	828.572	627.403
402.336	17.247	828.258	626.829
403.350	17.388	827.626	626.817
404.365	17.467	826.968	626.552
405.380	17.546	826.552	626.475
406.394	17.514	825.790	625.723
407.409	17.548	825.982	625.939
408.423	17.615	825.293	625.605
409.438	17.673	824.928	625.487
410.453	17.612	824.584	624.949
411.467	17.548	824.177	624.348
412.482	17.702	823.442	624.301
413.496	17.645	823.240	623.882
414.511	17.656	822.796	623.533
415.526	17.738	822.372	623.455
416.540	17.700	822.005	622.981
417.555	17.634	821.488	622.295
418.569	17.814	820.996	622.523
419.584	17.818	820.693	622.253
420.599	17.756	820.206	621.602
421.613	105.813	1287.980	1450.768
422.628	91.501	1356.129	1450.878
