DTS Sentinel unit serial number:	SN413079Multiplexer serial number:	ORYXHardware model number:	OX4-SRSoftware version number:	ORYX F/W v4.00 Oryx Data Collector v3.7.2.0data status	okinstallation	princeton_trtdifferential loss correction	single-endedforward channel	channel 1reverse channel	N/Adate	2019/09/18time	13:02:35forward acquisition time	60.00reverse acquisition time	0.00gamma	496.2192k internal	0.2315k external	0.2315temperature offset calibration	0.9979default loss term (dB/km)	0.3790temperature slope calibration	1.0000multiplexer offset coefficient	1.0000multiplexer slope coefficient	1.0000fibre end	0.00T internal ref (°C)	33.50T ext. ref 1 (°C)	0.58T ext. ref 2 (°C)	31.74length (m)	temperature (°C)	Stokes	anti-Stokes-747.200	-35.802	0.156	0.086
-746.185	-28.081	0.132	-0.077
-745.171	61.881	0.122	0.123
-744.156	-200.000	0.009	0.288
-743.142	599.321	0.113	-0.283
-742.127	711.407	-0.192	0.514
-741.112	-132.938	-0.070	-0.009
-740.098	-200.000	0.022	0.186
-739.083	428.559	0.027	0.058
-738.069	213.814	-0.306	0.491
-737.054	14.017	-0.127	0.100
-736.039	90.542	-0.168	0.190
-735.025	373.307	-0.173	0.356
-734.010	131.150	0.048	0.062
-732.996	402.627	-0.062	-0.132
-731.981	-200.000	-0.045	0.256
-730.966	-26.354	-0.221	0.131
-729.952	3.668	-0.297	-0.219
-728.937	800.000	-0.021	-0.072
-727.923	-200.000	-0.007	0.105
-726.908	-81.501	-0.170	0.057
-725.894	-120.745	-0.361	-0.062
-724.879	3.793	0.243	0.180
-723.864	-69.480	0.044	-0.017
-722.850	-39.772	-0.276	0.146
-721.835	715.946	0.032	-0.086
-720.821	-97.717	-0.113	-0.030
-719.806	-56.980	0.238	-0.106
-718.791	-200.000	0.033	-0.229
-717.777	-113.741	-0.131	0.026
-716.762	-78.736	0.130	-0.045
-715.748	42.860	0.060	-0.055
-714.733	-200.000	0.019	0.110
-713.718	486.486	-0.055	-0.127
-712.704	-108.651	0.159	0.035
-711.689	-116.172	0.250	-0.047
-710.675	-18.978	-0.202	-0.127
-709.660	3.863	0.056	0.041
-708.645	-200.000	0.073	-0.358
-707.631	-47.882	-0.058	0.029
-706.616	-200.000	-0.053	-0.279
-705.602	-104.693	0.102	0.024
-704.587	19.346	0.233	0.189
-703.572	60.846	-0.238	-0.239
-702.558	436.087	0.050	-0.111
-701.543	-54.680	0.415	-0.190
-700.529	-146.821	-0.288	-0.025
-699.514	800.000	0.047	0.185
-698.499	800.000	0.073	-0.295
-697.485	800.000	-0.083	0.293
-696.470	800.000	-0.115	0.344
-695.456	800.000	0.033	0.095
-694.441	621.434	-0.025	0.064
-693.426	-93.345	-0.302	-0.085
-692.412	-200.000	-0.025	0.155
-691.397	800.000	-0.065	0.201
-690.383	-82.544	-0.077	-0.025
-689.368	77.365	0.186	0.200
-688.354	132.938	-0.091	-0.119
-687.339	27.630	0.245	0.209
-686.324	160.950	0.168	0.237
-685.310	-71.005	-0.323	0.123
-684.295	-72.062	0.402	-0.151
-683.281	85.463	0.308	-0.342
-682.266	300.593	0.042	-0.079
-681.251	-47.972	-0.216	-0.106
-680.237	151.914	0.164	-0.226
-679.222	-200.000	-0.010	-0.166
-678.208	136.129	-0.226	-0.298
-677.193	-143.090	0.180	-0.018
-676.178	231.712	0.135	0.224
-675.164	-200.000	-0.012	-0.169
-674.149	-188.248	-0.084	-0.001
-673.135	-55.222	0.146	-0.066
-672.120	-106.637	-0.220	-0.049
-671.105	-168.527	-0.106	0.004
-670.091	800.000	-0.062	0.230
-669.076	67.726	-0.207	-0.214
-668.062	788.128	0.134	-0.371
-667.047	800.000	-0.067	-0.272
-666.032	252.856	0.035	-0.061
-665.018	-200.000	0.015	-0.147
-664.003	127.570	-0.396	-0.507
-662.989	14.199	0.362	-0.285
-661.974	3.252	-0.264	0.194
-660.959	57.379	0.110	0.108
-659.945	-70.208	-0.121	0.046
-658.930	-108.471	0.210	0.046
-657.916	190.424	-0.193	0.292
-656.901	128.461	0.095	0.122
-655.886	225.528	0.017	-0.028
-654.872	-66.828	0.070	-0.028
-653.857	-200.000	-0.006	0.053
-652.843	-43.770	0.280	-0.142
-651.828	-28.276	-0.195	0.114
-650.814	-200.000	0.029	0.163
-649.799	571.064	-0.128	-0.316
-648.784	-200.000	-0.013	0.183
-647.770	277.335	-0.133	-0.238
-646.755	130.154	0.164	-0.212
-645.741	527.578	-0.041	0.098
-644.726	-200.000	-0.047	0.218
-643.711	207.532	0.218	-0.343
-642.697	-70.244	-0.286	-0.110
-641.682	190.262	0.185	-0.281
-640.668	-85.773	0.217	-0.068
-639.653	55.337	-0.027	0.026
-638.638	120.770	-0.252	0.316
-637.624	-25.046	0.167	-0.100
-636.609	336.002	0.042	0.083
-635.595	-42.465	0.343	-0.176
-634.580	7.453	-0.177	0.133
-633.565	41.834	-0.100	0.091
-632.551	388.993	0.078	-0.162
-631.536	800.000	-0.033	-0.118
-630.522	-59.285	0.461	0.200
-629.507	-125.140	0.182	0.028
-628.492	-200.000	-0.020	-0.091
-627.478	39.170	-0.232	-0.209
-626.463	238.070	0.070	0.117
-625.449	-67.112	0.236	-0.094
-624.434	-138.420	-0.428	0.048
-623.419	-200.000	0.007	0.104
-622.405	-200.000	-0.016	-0.177
-621.390	-121.854	-0.432	-0.072
-620.376	800.000	0.104	0.440
-619.361	331.903	-0.058	0.113
-618.346	-41.617	-0.109	-0.057
-617.332	-34.409	-0.167	0.092
-616.317	101.108	-0.246	-0.289
-615.303	385.924	0.092	0.191
-614.288	-39.814	-0.203	0.107
-613.273	800.000	-0.033	0.141
-612.259	-37.503	0.261	-0.141
-611.244	-21.502	-0.119	-0.073
-610.230	-200.000	-0.197	-0.001
-609.215	77.183	0.091	0.098
-608.201	45.148	-0.025	-0.023
-607.186	-16.230	0.018	0.011
-606.171	-200.000	-0.209	0.001
-605.157	343.162	0.120	0.236
-604.142	800.000	0.056	-0.166
-603.128	407.159	-0.125	0.266
-602.113	1.823	0.067	-0.049
-601.098	-89.610	-0.233	0.069
-600.084	800.000	0.065	-0.195
-599.069	-39.106	0.111	0.059
-598.055	98.672	0.085	-0.098
-597.040	-93.755	-0.161	0.045
-596.025	-90.497	-0.236	0.069
-595.011	136.615	-0.181	-0.238
-593.996	33.209	0.087	0.076
-592.982	-200.000	0.045	-0.235
-591.967	-200.000	0.003	-0.235
-590.952	-153.167	0.201	0.014
-589.938	48.821	-0.123	0.116
-588.923	-10.293	-0.073	0.048
-587.909	103.144	0.257	0.304
-586.894	-6.408	0.226	0.155
-585.879	271.834	0.112	0.198
-584.865	35.513	-0.284	-0.251
-583.850	223.869	0.168	0.273
-582.836	-200.000	0.023	0.112
-581.821	-11.188	-0.123	0.082
-580.806	-200.000	0.033	-0.217
-579.792	-29.941	-0.285	0.163
-578.777	236.110	0.207	-0.345
-577.763	269.977	0.101	-0.179
-576.748	-200.000	-0.015	0.198
-575.733	-21.850	0.163	0.100
-574.719	107.900	0.068	0.082
-573.704	7.512	-0.193	0.146
-572.690	-154.829	0.122	0.008
-571.675	-44.435	-0.074	-0.037
-570.661	10.569	0.303	-0.232
-569.646	101.804	0.057	-0.067
-568.631	29.243	0.093	-0.080
-567.617	360.167	0.092	-0.186
-566.602	-200.000	-0.014	0.131
-565.588	493.078	0.098	0.226
-564.573	800.000	-0.096	0.322
-563.558	278.148	0.146	0.261
-562.544	-127.741	0.459	0.067
-561.529	780.239	-0.108	-0.298
-560.515	-47.606	-0.150	0.073
-559.500	8.334	0.370	-0.279
-558.485	23.321	-0.238	-0.196
-557.471	800.000	0.011	0.044
-556.456	800.000	-0.058	0.223
-555.442	119.822	0.076	0.094
-554.427	185.424	-0.109	-0.163
-553.412	800.000	0.058	0.230
-552.398	715.999	0.044	-0.119
-551.383	185.401	0.062	-0.092
-550.369	232.262	0.132	-0.218
-549.354	80.190	-0.101	0.109
-548.339	26.644	0.253	0.213
-547.325	6.887	-0.200	-0.149
-546.310	-200.000	0.124	0.000
-545.296	94.126	0.250	0.285
-544.281	-39.843	0.120	-0.063
-543.266	57.575	-0.023	-0.023
-542.252	-28.883	-0.546	0.315
-541.237	609.260	-0.075	-0.188
-540.223	-177.253	0.475	0.012
-539.208	371.055	-0.047	0.096
-538.193	-42.904	-0.046	0.024
-537.179	35.837	-0.075	0.066
-536.164	-200.000	-0.022	0.201
-535.150	-74.020	0.275	-0.100
-534.135	33.721	-0.102	-0.089
-533.121	26.594	-0.235	-0.198
-532.106	405.090	0.024	-0.052
-531.091	148.501	0.247	-0.335
-530.077	21.510	-0.195	-0.159
-529.062	119.166	0.094	-0.117
-528.048	-113.823	0.112	0.022
-527.033	100.167	-0.156	-0.181
-526.018	53.328	0.168	0.162
-525.004	800.000	0.059	-0.188
-523.989	-144.860	-0.164	0.015
-522.975	-26.981	0.145	0.085
-521.960	108.537	0.129	0.155
-520.945	-84.933	-0.169	-0.053
-519.931	-148.565	0.266	-0.022
-518.916	800.000	0.114	0.488
-517.902	106.195	-0.046	-0.055
-516.887	11.093	-0.276	-0.212
-515.872	228.881	0.024	-0.039
-514.858	-200.000	-0.013	-0.169
-513.843	800.000	-0.153	-0.600
-512.829	30.491	0.066	-0.057
-511.814	50.353	0.025	-0.024
-510.799	-179.982	0.232	-0.005
-509.785	-145.180	-0.202	0.018
-508.770	14.707	-0.212	-0.166
-507.756	-165.133	-0.068	-0.003
-506.741	-86.543	-0.185	-0.057
-505.726	-112.953	-0.157	0.031
-504.712	-50.887	-0.215	0.101
-503.697	6.914	0.129	0.096
-502.683	154.742	-0.166	-0.229
-501.668	649.057	-0.130	0.333
-500.653	193.568	-0.106	0.161
-499.639	643.528	0.035	0.090
-498.624	-19.392	-0.325	-0.202
-497.610	-152.093	-0.269	-0.020
-496.595	-200.000	0.006	-0.068
-495.581	63.237	-0.134	-0.135
-494.566	-138.906	0.172	-0.019
-493.551	221.554	-0.029	0.047
-492.537	78.807	0.094	0.101
-491.522	-200.000	-0.025	0.280
-490.508	-45.513	-0.032	-0.016
-489.493	-173.479	-0.104	-0.003
-488.478	58.648	-0.336	-0.331
-487.464	800.000	-0.069	-0.214
-486.449	-81.884	-0.228	0.075
-485.435	56.893	0.248	0.243
-484.420	245.646	0.170	0.287
-483.405	-200.000	-0.069	0.343
-482.391	-148.560	0.245	-0.020
-481.376	786.436	0.108	0.297
-480.362	104.442	-0.238	0.281
-479.347	53.979	0.062	0.060
-478.332	-28.933	0.194	-0.112
-477.318	441.499	0.142	0.312
-476.303	-60.772	0.128	0.054
-475.289	-200.000	0.003	0.070
-474.274	-45.381	-0.217	0.108
-473.259	-27.039	-0.112	-0.066
-472.245	82.589	-0.183	0.199
-471.230	-113.557	0.268	-0.053
-470.216	-52.074	-0.196	-0.091
-469.201	-43.578	-0.134	-0.068
-468.186	466.896	-0.107	0.241
-467.172	-200.000	0.035	-0.337
-466.157	-200.000	-0.003	-0.112
-465.143	800.000	0.065	-0.239
-464.128	456.038	-0.123	-0.273
-463.113	75.276	-0.094	-0.100
-462.099	-200.000	0.073	-0.690
-461.084	-200.000	-0.003	-0.047
-460.070	800.000	-0.015	0.043
-459.055	-200.000	-0.020	0.212
-458.040	-127.098	-0.110	-0.016
-457.026	-109.993	0.010	-0.002
-456.011	800.000	0.026	0.075
-454.997	-53.107	-0.330	0.152
-453.982	-200.000	0.002	0.071
-452.968	-110.720	-0.424	0.088
-451.953	389.157	-0.224	0.466
-450.938	800.000	-0.036	-0.149
-449.924	-35.776	0.134	-0.073
-448.909	109.981	-0.136	0.163
-447.895	-147.970	-0.145	-0.012
-446.880	43.909	0.139	0.127
-445.865	-32.654	0.203	0.113
-444.851	800.000	0.054	0.153
-443.836	28.975	-0.110	0.093
-442.822	187.694	-0.153	0.229
-441.807	-41.344	-0.200	-0.103
-440.792	-200.000	-0.062	-0.405
-439.778	800.000	0.018	0.055
-438.763	145.768	-0.158	-0.213
-437.749	800.000	0.044	-0.145
-436.734	119.851	0.150	0.186
-435.719	-51.685	-0.337	-0.157
-434.705	144.341	0.094	0.126
-433.690	-80.234	-0.264	0.089
-432.676	110.220	0.157	-0.188
-431.661	-200.000	-0.057	0.253
-430.646	-100.804	-0.226	-0.056
-429.632	21.116	0.233	-0.190
-428.617	-11.871	-0.098	-0.065
-427.603	-97.144	-0.564	-0.148
-426.588	800.000	-0.050	-0.209
-425.573	-200.000	0.020	0.097
-424.559	-31.986	0.203	-0.114
-423.544	596.253	-0.071	0.176
-422.530	11.291	0.228	0.174
-421.515	-128.734	-0.089	-0.013
-420.500	80.659	-0.081	0.087
-419.486	616.496	-0.120	0.302
-418.471	58.681	-0.203	-0.199
-417.457	157.652	-0.224	-0.311
-416.442	-15.230	0.014	0.009
-415.428	800.000	-0.050	-0.164
-414.413	72.107	-0.073	-0.076
-413.398	-76.399	-0.528	-0.186
-412.384	-143.085	0.075	0.007
-411.369	800.000	-0.073	0.298
-410.355	800.000	-0.120	-0.428
-409.340	-62.823	0.301	0.125
-408.325	56.558	-0.130	-0.126
-407.311	-149.908	-0.122	-0.010
-406.296	130.916	-0.105	-0.135
-405.282	-124.541	0.308	-0.048
-404.267	-200.000	0.027	-0.209
-403.252	-63.460	0.109	-0.045
-402.238	19.378	0.125	-0.100
-401.223	93.231	-0.090	0.102
-400.209	7.219	0.047	-0.035
-399.194	213.384	0.246	-0.389
-398.179	-124.499	0.189	-0.029
-397.165	-77.268	-0.299	-0.104
-396.150	211.375	-0.139	0.219
-395.136	-36.497	0.128	0.069
-394.121	-200.000	-0.013	-0.060
-393.106	-200.000	-0.018	-0.112
-392.092	-62.812	-0.131	-0.054
-391.077	-200.000	-0.033	0.213
-390.063	-130.472	0.263	-0.035
-389.048	39.863	-0.092	-0.082
-388.033	-123.848	-0.286	-0.045
-387.019	-54.237	-0.441	0.200
-386.004	-93.360	-0.318	-0.088
-384.990	137.347	0.148	-0.194
-383.975	-29.803	-0.056	-0.032
-382.960	629.797	0.134	0.338
-381.946	-115.625	-0.344	0.065
-380.931	124.619	-0.180	0.226
-379.917	51.659	0.146	0.138
-378.902	-200.000	0.052	-0.234
-377.888	76.849	0.297	-0.314
-376.873	-49.137	0.148	0.071
-375.858	127.672	0.152	-0.193
-374.844	-74.183	0.083	0.030
-373.829	-110.165	-0.135	-0.028
-372.815	-34.695	0.198	-0.108
-371.800	-25.352	0.009	0.006
-370.785	82.040	0.119	0.129
-369.771	-200.000	0.024	0.382
-368.756	573.830	0.135	0.329
-367.742	30.256	0.145	0.124
-366.727	109.734	0.088	-0.105
-365.712	-200.000	0.030	0.383
-364.698	-127.463	0.256	-0.037
-363.683	-19.803	0.415	0.256
-362.669	-200.000	-0.021	0.211
-361.654	-98.588	0.207	-0.053
-360.639	402.942	-0.029	0.060
-359.625	-12.772	0.191	-0.124
-358.610	-200.000	-0.015	-0.092
-357.596	-65.644	0.075	-0.030
-356.581	190.357	0.282	-0.422
-355.566	190.699	-0.128	-0.192
-354.552	362.415	0.152	0.305
-353.537	-98.328	0.121	0.031
-352.523	-129.366	-0.352	0.049
-351.508	2.262	0.149	-0.107
-350.493	-200.000	-0.017	-0.271
-349.479	-107.480	0.124	-0.027
-348.464	-2.569	-0.179	0.125
-347.450	161.149	0.115	0.160
-346.435	-200.000	0.005	-0.067
-345.420	800.000	-0.055	-0.176
-344.406	-59.529	-0.041	-0.017
-343.391	-89.870	0.165	0.048
-342.377	366.137	-0.031	0.062
-341.362	-99.413	0.272	-0.068
-340.348	405.890	0.032	-0.068
-339.333	397.529	-0.158	0.329
-338.318	83.364	-0.066	-0.071
-337.304	213.220	-0.098	0.154
-336.289	-105.415	0.264	-0.060
-335.275	-85.794	-0.083	0.026
-334.260	-58.433	0.234	-0.102
-333.245	-91.861	-0.066	0.019
-332.231	-98.633	-0.205	0.052
-331.216	-200.000	0.001	-0.192
-330.202	2.701	-0.257	0.186
-329.187	145.895	-0.261	-0.349
-328.172	-200.000	-0.083	0.573
-327.158	-200.000	-0.046	0.295
-326.143	-200.000	0.016	0.188
-325.129	63.274	0.303	-0.303
-324.114	-200.000	-0.068	-0.335
-323.099	98.588	-0.031	0.036
-322.085	-22.071	0.020	-0.012
-321.070	84.392	0.203	-0.222
-320.056	422.611	0.090	0.193
-319.041	37.401	0.228	0.201
-318.026	-174.989	-0.183	-0.005
-317.012	410.723	0.066	-0.139
-315.997	-46.522	0.011	0.005
-314.983	442.367	0.104	-0.227
-313.968	-156.646	0.210	-0.013
-312.953	51.418	0.083	0.079
-311.939	310.584	0.040	-0.075
-310.924	283.526	0.046	0.082
-309.910	-105.541	0.496	-0.112
-308.895	63.799	-0.206	-0.206
-307.880	4.635	0.075	-0.055
-306.866	303.060	-0.175	-0.322
-305.851	-1.918	-0.333	-0.233
-304.837	-154.136	0.157	-0.011
-303.822	-200.000	-0.025	0.385
-302.807	50.791	-0.189	0.178
-301.793	-9.882	-0.061	-0.041
-300.778	75.246	0.162	0.170
-299.764	7.825	0.344	0.257
-298.749	233.784	0.049	0.081
-297.735	68.356	-0.068	-0.069
-296.720	27.881	-0.175	0.147
-295.705	-200.000	0.049	-0.272
-294.691	165.954	-0.073	0.103
-293.676	90.579	-0.187	0.208
-292.662	-175.830	0.118	-0.003
-291.647	200.806	-0.265	-0.405
-290.632	-156.394	-0.414	0.026
-289.618	-84.579	0.116	-0.036
-288.603	-42.571	-0.175	0.089
-287.589	44.706	0.330	0.302
-286.574	800.000	0.040	0.146
-285.559	439.975	-0.059	-0.128
-284.545	-42.809	0.278	-0.141
-283.530	164.114	-0.017	-0.024
-282.516	-200.000	-0.016	0.081
-281.501	398.019	-0.117	0.243
-280.486	41.296	-0.068	-0.061
-279.472	505.298	0.105	-0.241
-278.457	214.226	-0.244	-0.384
-277.443	159.209	-0.231	-0.320
-276.428	-45.174	-0.061	-0.030
-275.413	-11.384	0.212	0.139
-274.399	-85.906	0.112	0.035
-273.384	154.331	-0.069	-0.094
-272.370	-176.263	0.090	0.002
-271.355	2.974	0.162	0.117
-270.340	241.726	0.079	-0.132
-269.326	800.000	0.090	-0.290
-268.311	62.757	-0.275	-0.274
-267.297	83.189	0.181	-0.196
-266.282	-200.000	-0.249	-0.000
-265.267	-53.690	0.351	-0.160
-264.253	332.053	-0.149	0.286
-263.238	76.052	-0.078	0.082
-262.224	800.000	0.089	-0.256
-261.209	66.623	0.152	-0.154
-260.195	270.761	-0.038	-0.066
-259.180	-80.600	-0.224	0.074
-258.165	114.087	0.127	0.154
-257.151	155.358	0.068	-0.093
-256.136	-141.828	0.048	-0.005
-255.122	196.241	0.186	-0.282
-254.107	219.263	-0.086	-0.137
-253.092	108.443	0.168	-0.200
-252.078	-78.164	0.277	0.095
-251.063	-200.000	-0.015	0.115
-250.049	158.923	-0.110	0.152
-249.034	-200.000	-0.285	0.000
-248.019	-102.901	-0.086	-0.020
-247.005	263.728	0.064	0.111
-245.990	800.000	-0.109	0.366
-244.976	-9.922	-0.130	-0.086
-243.961	800.000	-0.082	0.270
-242.946	-186.602	-0.354	0.005
-241.932	-100.596	0.136	0.033
-240.917	36.128	0.098	0.085
-239.903	-67.795	0.093	0.036
-238.888	-39.217	-0.272	0.142
-237.873	216.063	-0.054	-0.085
-236.859	38.215	0.138	0.122
-235.844	-154.171	0.380	-0.026
-234.830	-92.531	-0.264	0.074
-233.815	-45.147	0.159	-0.078
-232.800	102.006	0.197	-0.228
-231.786	800.000	0.098	0.294
-230.771	259.477	0.144	0.246
-229.757	27.425	0.174	-0.145
-228.742	408.227	-0.135	0.283
-227.727	-137.027	-0.223	0.025
-226.713	-200.000	-0.119	0.000
-225.698	-127.798	-0.238	-0.034
-224.684	-65.380	0.192	-0.076
-223.669	800.000	-0.110	0.314
-222.655	529.711	0.026	0.060
-221.640	65.874	-0.153	0.154
-220.625	-7.176	-0.246	-0.166
-219.611	-22.726	0.073	0.044
-218.596	-110.311	-0.249	0.051
-217.582	-200.000	0.020	-0.268
-216.567	-63.900	0.281	-0.114
-215.552	-200.000	0.002	-0.156
-214.538	-112.112	-0.216	-0.043
-213.523	217.702	-0.041	-0.065
-212.509	-163.366	0.161	-0.008
-211.494	147.790	-0.081	0.108
-210.479	-147.465	-0.226	0.019
-209.465	-200.000	-0.013	-0.182
-208.450	-119.243	0.347	0.060
-207.436	-49.785	-0.321	-0.151
-206.421	53.052	0.242	0.230
-205.406	-200.000	-0.024	0.359
-204.392	800.000	-0.091	-0.373
-203.377	0.120	-0.141	0.099
-202.363	348.039	-0.085	0.167
-201.348	-99.868	0.055	-0.014
-200.333	-85.127	0.202	-0.063
-199.319	-18.988	0.129	0.079
-198.304	670.923	0.132	0.339
-197.290	-200.000	0.049	0.363
-196.275	71.305	-0.023	0.023
-195.260	25.074	0.229	-0.189
-194.246	-55.417	0.093	-0.041
-193.231	316.204	-0.094	0.177
-192.217	127.387	0.160	-0.201
-191.202	-200.000	0.073	0.354
-190.187	73.067	0.186	-0.193
-189.173	-200.000	-0.025	-0.204
-188.158	639.642	0.063	0.159
-187.144	17.936	0.265	0.209
-186.129	84.962	0.275	0.299
-185.114	-104.462	0.314	0.072
-184.100	-185.016	-0.091	0.001
-183.085	-36.196	0.148	-0.079
-182.071	98.861	0.099	-0.114
-181.056	54.565	-0.058	0.055
-180.042	402.996	-0.107	0.224
-179.027	-200.000	0.035	-0.163
-178.012	85.636	0.146	-0.159
-176.998	72.860	0.108	-0.112
-175.983	-200.000	0.510	-0.001
-174.969	300.131	-0.135	0.247
-173.954	-14.767	0.197	-0.125
-172.939	800.000	0.010	0.039
-171.925	15.801	0.145	-0.113
-170.910	-85.276	-0.393	-0.122
-169.896	56.429	0.190	0.183
-168.881	-138.734	0.238	-0.026
-167.866	-162.940	-0.134	0.006
-166.852	-28.949	-0.109	0.062
-165.837	70.859	0.061	-0.062
-164.823	155.573	-0.208	0.283
-163.808	-97.017	0.102	-0.026
-162.793	800.000	0.047	0.160
-161.779	800.000	-0.025	-0.081
-160.764	-28.386	0.249	-0.142
-159.750	-106.303	-0.272	-0.060
-158.735	298.222	-0.148	0.270
-157.720	-70.448	0.378	0.142
-156.706	800.000	-0.081	-0.303
-155.691	-200.000	0.009	0.253
-154.677	800.000	-0.026	0.092
-153.662	-67.950	-0.160	-0.062
-152.647	524.611	-0.176	-0.410
-151.633	-36.689	0.339	-0.180
-150.618	-114.774	-0.114	0.022
-149.604	-68.181	0.246	0.095
-148.589	-200.000	0.053	-0.306
-147.574	573.257	-0.073	-0.175
-146.560	136.063	-0.105	0.135
-145.545	134.996	0.178	-0.229
-144.531	-200.000	0.029	-0.179
-143.516	23.680	0.190	0.155
-142.502	800.000	0.116	0.448
-141.487	210.326	-0.204	-0.317
-140.472	-90.116	0.493	0.142
-139.458	-200.000	0.034	0.240
-138.443	336.023	0.129	-0.248
-137.429	-61.223	-0.299	0.125
-136.414	-200.000	0.024	0.459
-135.399	62.762	0.061	0.060
-134.385	-73.396	-0.343	0.124
-133.370	-200.000	-0.006	0.161
-132.356	281.608	-0.115	-0.204
-131.341	-132.340	-0.041	-0.005
-130.326	41.441	0.184	0.165
-129.312	-155.413	-0.103	0.007
-128.297	451.975	-0.099	0.215
-127.283	15.350	0.067	-0.052
-126.268	362.432	0.185	-0.366
-125.253	-117.185	0.447	-0.080
-124.239	-87.660	-0.079	-0.023
-123.224	800.000	0.050	-0.213
-122.210	-31.819	0.266	-0.147
-121.195	-5.549	-0.354	0.240
-120.180	-200.000	0.024	0.213
-119.166	238.508	-0.223	-0.366
-118.151	-71.071	-0.059	-0.022
-117.137	-117.511	0.300	0.054
-116.122	-59.459	-0.073	0.031
-115.107	-160.983	0.173	0.009
-114.093	155.005	0.137	0.186
-113.078	-63.716	0.313	-0.127
-112.064	-200.000	-0.062	-0.320
-111.049	-200.000	-0.054	-0.289
-110.034	800.000	0.085	-0.266
-109.020	-18.352	-0.117	0.072
-108.005	15.448	-0.090	-0.070
-106.991	-94.660	0.466	-0.125
-105.976	-62.819	-0.093	0.038
-104.962	-143.654	0.249	-0.023
-103.947	-9.323	0.170	0.112
-102.932	-200.000	0.049	0.302
-101.918	800.000	-0.039	-0.148
-100.903	800.000	0.041	0.136
-99.889	-61.925	-0.072	-0.030
-98.874	162.990	-0.177	-0.245
-97.859	-200.000	0.023	0.239
-96.845	135.619	-0.167	0.215
-95.830	-30.673	-0.184	0.103
-94.816	-7.536	0.478	-0.320
-93.801	98.237	0.142	-0.161
-92.786	-26.871	0.104	0.060
-91.772	-200.000	0.012	-0.057
-90.757	-17.439	0.235	-0.146
-89.743	-61.544	0.100	0.042
-88.728	34.720	0.484	-0.418
-87.713	750.035	-0.086	0.229
-86.699	598.059	-0.124	-0.303
-85.684	58.415	0.328	0.317
-84.670	260.662	0.111	-0.189
-83.655	-3.947	0.185	-0.127
-82.640	133.058	0.164	-0.209
-81.626	-200.000	-0.023	0.181
-80.611	29.542	-0.101	-0.084
-79.597	-50.015	0.061	-0.029
-78.582	-139.584	0.260	-0.027
-77.567	724.037	0.026	-0.069
-76.553	-87.605	0.296	0.088
-75.538	-36.481	0.096	0.051
-74.524	-96.327	0.368	0.096
-73.509	-113.527	0.173	0.033
-72.494	-200.000	-0.042	-0.226
-71.480	-140.041	-0.155	0.016
-70.465	78.445	0.068	0.071
-69.451	-131.041	0.293	-0.039
-68.436	-200.000	-0.038	0.344
-67.422	-58.164	-0.237	-0.102
-66.407	194.847	-0.094	0.140
-65.392	-98.755	-0.240	0.060
-64.378	-114.406	0.240	0.046
-63.363	384.620	0.105	-0.214
-62.349	-200.000	0.013	-0.139
-61.334	80.077	-0.762	-0.808
-60.319	498.182	0.308	0.699
-59.305	-200.000	-0.047	-0.904
-58.290	604.629	0.390	0.958
-57.276	800.000	0.509	1.822
-56.261	-200.000	95.888	542.523
-55.246	484.591	1435.611	3223.018
-54.232	144.831	2654.904	3500.062
-53.217	108.400	2224.604	2618.387
-52.203	44.794	1661.144	1507.226
-51.188	36.796	1391.911	1213.037
-50.173	33.689	1348.761	1156.483
-49.159	53.951	1396.242	1323.286
-48.144	57.160	1413.805	1359.772
-47.130	37.118	1370.284	1195.986
-46.115	33.751	1352.063	1159.512
-45.100	33.543	1347.581	1154.356
-44.086	33.378	1345.448	1151.479
-43.071	33.357	1342.717	1148.965
-42.057	33.253	1340.829	1146.674
-41.042	33.325	1339.472	1145.908
-40.027	33.376	1337.814	1144.750
-39.013	33.337	1336.269	1143.145
-37.998	33.447	1334.019	1141.839
-36.984	33.418	1332.132	1140.003
-35.969	33.545	1330.612	1139.421
-34.954	33.580	1328.644	1137.901
-33.940	33.476	1327.941	1136.633
-32.925	33.600	1325.982	1135.654
-31.911	33.678	1324.107	1134.468
-30.896	33.578	1322.865	1132.759
-29.881	33.567	1321.650	1131.612
-28.867	33.619	1320.090	1130.539
-27.852	33.649	1318.500	1129.311
-26.838	33.668	1317.152	1128.223
-25.823	33.570	1316.174	1126.763
-24.809	33.597	1314.462	1125.411
-23.794	33.615	1313.134	1124.334
-22.779	33.566	1312.072	1123.090
-21.765	33.582	1310.327	1121.645
-20.750	33.540	1309.566	1120.702
-19.736	33.418	1308.320	1118.873
-18.721	33.511	1306.527	1117.844
-17.706	33.550	1305.468	1117.124
-16.692	33.500	1304.103	1115.617
-15.677	33.499	1303.152	1114.754
-14.663	33.366	1302.226	1113.135
-13.648	33.411	1301.197	1112.473
-12.633	33.469	1300.080	1111.814
-11.619	33.408	1299.611	1111.010
-10.604	33.408	1298.555	1110.066
-9.590	33.469	1297.020	1109.068
-8.575	33.366	1296.325	1107.828
-7.560	33.403	1295.551	1107.336
-6.546	33.433	1294.523	1106.590
-5.531	33.398	1293.830	1105.749
-4.517	33.410	1292.889	1104.972
-3.502	33.300	1292.523	1103.970
-2.487	33.455	1290.991	1103.523
-1.473	33.444	1287.377	1100.327
-0.458	32.626	1273.070	1083.351
0.556	28.111	1256.250	1047.143
1.571	24.367	1262.773	1030.896
2.586	22.733	1277.517	1033.279
3.600	21.378	1264.955	1015.163
4.615	15.519	1188.444	921.617
5.629	5.721	1107.471	808.420
6.644	0.937	1085.524	768.098
7.659	0.425	1083.472	763.985
8.673	0.502	1081.945	763.232
9.688	0.467	1080.531	761.986
10.702	0.695	1079.172	762.110
11.717	6.299	1086.589	795.676
12.731	14.971	1097.976	848.080
13.746	17.704	1101.260	864.417
14.761	17.133	1100.115	860.550
15.775	16.352	1097.838	854.743
16.790	15.416	1095.926	848.447
17.804	14.820	1093.581	843.547
18.819	14.234	1093.306	840.306
19.834	14.002	1092.025	838.076
20.848	13.653	1091.119	835.549
21.863	13.587	1089.651	834.015
22.877	13.264	1089.868	832.483
23.892	13.314	1088.777	831.828
24.907	13.371	1088.026	831.467
25.921	13.330	1087.050	830.441
26.936	13.283	1086.267	829.536
27.950	13.516	1084.867	829.561
28.965	13.505	1084.366	829.047
29.980	13.525	1082.949	827.991
30.994	13.607	1081.570	827.271
32.009	13.661	1080.800	826.878
33.023	13.565	1079.717	825.501
34.038	13.525	1078.709	824.457
35.053	13.497	1077.898	823.627
36.067	13.459	1077.357	822.950
37.082	13.482	1076.316	822.196
38.096	13.522	1075.195	821.465
39.111	13.550	1074.785	821.218
40.126	13.422	1073.777	819.740
41.140	13.370	1072.060	818.102
42.155	13.314	1071.149	817.058
43.169	13.202	1070.184	815.694
44.184	13.395	1069.217	815.839
45.199	13.172	1068.432	814.067
46.213	13.367	1066.648	813.598
47.228	13.440	1065.645	813.120
48.242	13.485	1064.423	812.333
49.257	13.348	1063.767	811.092
50.271	13.533	1062.630	811.057
51.286	13.428	1062.252	810.182
52.301	13.517	1060.882	809.502
53.315	13.328	1060.018	807.849
54.330	13.421	1058.876	807.362
55.344	13.464	1057.913	806.762
56.359	13.381	1057.116	805.680
57.374	13.367	1056.377	804.975
58.388	13.344	1055.376	804.033
59.403	13.277	1054.945	803.309
60.417	13.260	1053.933	802.381
61.432	13.293	1052.915	801.698
62.447	13.288	1052.222	801.073
63.461	13.305	1051.382	800.444
64.476	13.250	1050.251	799.248
65.490	13.264	1049.478	798.656
66.505	13.300	1048.984	798.382
67.520	13.238	1048.306	797.499
68.534	13.396	1047.632	797.676
69.549	13.375	1046.768	796.848
70.563	13.305	1045.813	795.713
71.578	13.345	1045.240	795.398
72.593	13.255	1044.536	794.362
73.607	13.282	1043.903	793.939
74.622	13.217	1043.524	793.268
75.636	13.179	1042.265	792.056
76.651	13.225	1042.019	792.022
77.666	13.152	1041.583	791.269
78.680	13.230	1040.885	791.045
79.695	13.301	1039.949	790.602
80.709	13.291	1039.321	790.007
81.724	13.281	1038.524	789.283
82.739	13.424	1037.284	788.950
83.753	13.437	1036.700	788.499
84.768	13.458	1035.700	787.770
85.782	13.577	1034.519	787.367
86.797	13.562	1033.581	786.514
87.812	13.441	1032.904	785.356
88.826	13.363	1032.351	784.492
89.841	13.433	1031.279	783.939
90.855	13.480	1030.453	783.467
91.870	13.390	1029.698	782.396
92.884	13.671	1028.707	782.903
93.899	13.552	1027.397	781.274
94.914	13.573	1026.638	780.728
95.928	13.585	1026.251	780.419
96.943	13.468	1025.356	779.122
97.957	13.568	1024.292	778.713
98.972	13.469	1023.778	777.789
99.987	13.483	1022.934	777.144
101.001	13.488	1021.598	776.085
102.016	13.592	1020.458	775.638
103.030	13.517	1020.276	775.077
104.045	13.589	1019.155	774.496
105.060	13.536	1018.364	773.578
106.074	13.470	1017.493	772.537
107.089	13.467	1016.439	771.658
108.103	13.319	1015.485	770.175
109.118	13.380	1014.737	769.822
110.133	13.405	1013.745	769.119
111.147	13.454	1012.965	768.689
112.162	13.542	1011.775	768.125
113.176	13.521	1010.960	767.341
114.191	13.532	1010.307	766.828
115.206	13.510	1009.661	766.166
116.220	13.495	1008.765	765.350
117.235	13.449	1008.240	764.673
118.249	13.462	1007.011	763.733
119.264	13.527	1006.003	763.202
120.279	13.538	1004.992	762.417
121.293	13.459	1004.360	761.505
122.308	13.476	1003.486	760.853
123.322	13.483	1002.363	759.967
124.337	13.424	1001.597	759.051
125.352	13.308	1000.662	757.741
126.366	13.469	999.117	757.243
127.381	13.455	998.191	756.408
128.395	13.506	997.347	755.936
129.410	13.563	996.459	755.452
130.424	13.590	995.424	754.727
131.439	13.542	995.135	754.222
132.454	13.544	993.949	753.266
133.468	13.468	993.431	752.460
134.483	13.573	992.393	752.086
135.497	13.544	991.571	751.263
136.512	13.548	990.502	750.406
137.527	13.533	989.465	749.483
138.541	13.650	988.832	749.468
139.556	13.580	988.219	748.623
140.570	13.669	987.364	748.310
141.585	13.676	986.750	747.809
142.600	13.719	985.647	747.100
143.614	13.756	984.832	746.581
144.629	13.650	984.196	745.559
145.643	13.713	983.221	745.036
146.658	13.791	981.958	744.365
147.673	13.608	981.430	743.079
148.687	13.599	980.628	742.363
149.702	13.703	979.260	741.728
150.716	13.603	978.852	740.907
151.731	13.622	978.355	740.550
152.746	13.573	977.313	739.476
153.760	13.659	976.617	739.267
154.775	13.666	976.430	739.091
155.789	13.763	975.698	738.906
156.804	13.674	974.844	737.798
157.819	13.801	974.151	737.774
158.833	13.797	973.430	737.142
159.848	13.835	972.456	736.509
160.862	13.873	971.341	735.769
161.877	13.773	970.289	734.463
162.892	13.783	969.169	733.596
163.906	13.725	968.281	732.599
164.921	13.702	967.782	732.057
165.935	13.759	967.159	731.772
166.950	13.804	966.059	731.075
167.964	13.895	965.008	730.612
168.979	13.758	964.022	729.200
169.994	13.728	963.595	728.680
171.008	13.783	962.751	728.220
172.023	13.953	961.892	728.252
173.037	13.878	961.237	727.361
174.052	13.794	960.835	726.626
175.067	13.710	959.995	725.558
176.081	13.790	959.368	725.372
177.096	13.928	958.815	725.490
178.110	13.897	958.211	724.835
179.125	13.851	957.429	723.980
180.140	14.038	956.706	724.181
181.154	13.966	956.292	723.489
182.169	14.000	955.752	723.168
183.183	14.030	955.033	722.687
184.198	14.058	954.357	722.234
185.213	14.165	953.816	722.229
186.227	14.059	953.203	721.240
187.242	14.084	952.610	720.834
188.256	14.142	951.579	720.244
189.271	13.990	951.117	719.170
190.286	13.965	950.109	718.237
191.300	13.850	949.825	717.461
192.315	13.874	948.856	716.771
193.329	13.908	948.768	716.786
194.344	13.962	947.830	716.248
195.359	14.001	947.100	715.799
196.373	14.076	946.239	715.410
197.388	14.086	945.877	715.116
198.402	14.256	945.249	715.309
199.417	14.255	944.495	714.671
200.432	14.249	944.207	714.362
201.446	14.363	943.588	714.322
202.461	14.361	942.946	713.763
203.475	14.373	942.570	713.466
204.490	14.369	941.506	712.581
205.504	14.261	941.078	711.731
206.519	14.208	940.283	710.839
207.534	14.347	939.541	710.809
208.548	14.413	938.872	710.522
209.563	14.356	938.285	709.772
210.577	14.351	937.588	709.161
211.592	14.466	936.827	709.011
212.607	14.424	936.464	708.494
213.621	14.479	935.290	707.780
214.636	14.367	934.818	706.882
215.650	14.504	934.016	706.796
216.665	14.331	933.727	705.782
217.680	14.467	932.871	705.647
218.694	14.595	931.911	705.400
219.709	14.664	931.146	705.050
220.723	14.660	930.690	704.626
221.738	14.564	930.086	703.701
222.753	14.647	929.541	703.578
223.767	14.700	928.735	703.124
224.782	14.747	928.253	702.896
225.796	14.644	927.524	701.849
226.811	14.721	926.750	701.524
227.826	14.542	926.644	700.631
228.840	14.697	925.412	700.288
229.855	14.747	924.356	699.638
230.869	14.575	924.038	698.612
231.884	14.587	923.348	698.083
232.899	14.623	922.895	697.829
233.913	14.581	922.160	697.033
234.928	14.676	920.942	696.447
235.942	14.615	920.296	695.645
236.957	14.633	919.872	695.335
237.972	14.469	919.537	694.338
238.986	14.746	918.479	694.629
240.001	14.772	917.973	694.293
241.015	14.766	917.146	693.581
242.030	14.823	916.376	693.174
243.045	14.800	916.152	692.851
244.059	14.759	915.845	692.385
245.074	14.813	915.096	691.984
246.088	14.764	914.579	691.327
247.103	14.892	913.540	691.008
248.117	14.943	913.108	690.831
249.132	15.003	912.498	690.555
250.147	15.027	911.858	690.111
251.161	15.076	911.235	689.781
252.176	15.063	910.638	689.215
253.190	14.990	909.852	688.258
254.205	15.070	909.289	688.101
255.220	15.136	908.210	687.491
256.234	15.128	907.720	687.030
257.249	15.198	907.097	686.782
258.263	15.164	906.236	685.932
259.278	15.215	905.793	685.745
260.293	15.220	905.120	685.193
261.307	15.307	904.418	684.957
262.322	15.199	903.930	684.087
263.336	15.401	902.657	683.885
264.351	15.471	902.115	683.700
265.366	15.421	901.734	683.147
266.380	15.277	901.081	682.005
267.395	15.341	900.299	681.613
268.409	15.264	899.981	681.001
269.424	15.363	898.806	680.451
270.439	15.436	898.087	680.146
271.453	15.427	897.181	679.362
272.468	15.341	896.716	678.602
273.482	15.400	896.381	678.527
274.497	15.389	895.786	677.969
275.512	15.414	895.568	677.847
276.526	15.441	894.563	677.133
277.541	15.469	894.315	676.999
278.555	15.538	893.613	676.689
279.570	15.558	892.768	676.069
280.585	15.615	891.618	675.365
281.599	15.562	891.016	674.639
282.614	15.630	890.354	674.349
283.628	15.505	890.062	673.567
284.643	15.519	889.560	673.186
285.657	15.533	889.126	672.852
286.672	15.581	888.422	672.453
287.687	15.612	887.477	671.799
288.701	15.629	887.053	671.488
289.716	15.711	885.980	670.946
290.730	15.693	885.497	670.449
291.745	15.585	885.392	669.878
292.760	15.909	884.148	670.167
293.774	15.805	883.842	669.463
294.789	15.873	882.739	668.837
295.803	15.775	882.257	668.023
296.818	15.736	881.896	667.538
297.833	15.838	880.908	667.135
298.847	15.842	880.598	666.857
299.862	15.771	880.010	666.072
300.876	15.913	879.280	666.020
301.891	15.797	878.914	665.225
302.906	15.840	878.169	664.772
303.920	16.000	877.483	664.827
304.935	15.927	877.194	664.260
305.949	15.912	876.401	663.544
306.964	15.975	875.774	663.257
307.979	15.890	875.498	662.653
308.993	16.133	874.555	662.838
310.008	16.095	873.978	662.193
311.022	16.006	873.313	661.280
312.037	15.998	873.177	661.088
313.052	15.967	872.351	660.281
314.066	15.951	871.731	659.694
315.081	16.071	871.058	659.594
316.095	16.056	870.171	658.807
317.110	16.030	869.970	658.495
318.125	16.070	869.503	658.240
319.139	16.059	869.115	657.843
320.154	16.132	868.515	657.618
321.168	16.035	867.814	656.647
322.183	16.027	867.463	656.293
323.197	16.163	866.860	656.310
324.212	16.271	866.266	656.221
325.227	16.246	865.631	655.585
326.241	16.170	865.144	654.862
327.256	16.227	864.443	654.497
328.270	16.185	863.879	653.849
329.285	16.205	863.357	653.470
330.300	16.198	862.748	652.926
331.314	16.084	862.598	652.313
332.329	16.317	861.527	652.347
333.343	16.282	861.324	651.999
334.358	16.151	861.199	651.343
335.373	16.344	860.428	651.444
336.387	16.415	860.193	651.485
337.402	16.391	859.878	651.094
338.416	16.341	859.533	650.583
339.431	16.345	859.417	650.452
340.446	16.508	858.537	650.357
341.460	16.483	858.156	649.915
342.475	16.567	857.609	649.767
343.489	16.535	857.403	649.429
344.504	16.469	856.927	648.758
345.519	16.517	856.323	648.428
346.533	16.629	855.745	648.362
347.548	16.551	855.342	647.699
348.562	16.459	854.974	647.010
349.577	16.624	854.111	646.933
350.592	16.436	853.539	645.724
351.606	16.517	852.742	645.374
352.621	16.633	851.808	645.050
353.635	16.430	851.399	643.910
354.650	16.578	850.777	643.946
355.665	16.590	849.902	643.272
356.679	16.670	849.184	642.976
357.694	16.616	848.558	642.239
358.708	16.645	848.076	641.930
359.723	16.638	847.955	641.755
360.738	16.548	847.488	641.001
361.752	16.535	846.335	640.025
362.767	16.731	846.011	640.463
363.781	16.707	845.430	639.879
364.796	16.729	845.015	639.592
365.810	17.045	843.906	639.886
366.825	16.935	844.190	639.630
367.840	16.816	843.810	638.836
368.854	16.924	843.224	638.742
369.869	17.085	842.295	638.586
370.883	16.911	841.700	637.425
371.898	16.941	841.690	637.475
372.913	16.898	841.485	637.103
373.927	16.963	840.874	636.829
374.942	17.000	840.030	636.270
375.956	17.063	840.157	636.546
376.971	16.997	839.732	635.920
377.986	17.246	838.739	636.045
379.000	17.296	838.215	635.777
380.015	17.122	838.054	634.947
381.029	17.168	837.266	634.466
382.044	17.289	836.944	634.619
383.059	17.316	836.348	634.211
384.073	17.129	836.075	633.251
385.088	17.190	835.372	632.889
386.102	17.166	834.676	632.218
387.117	17.076	834.195	631.463
388.132	17.294	833.093	631.381
389.146	17.221	832.904	630.911
390.161	17.248	832.380	630.561
391.175	17.265	832.233	630.455
392.190	17.205	831.462	629.592
393.205	17.326	830.570	629.311
394.219	17.381	830.332	629.278
395.234	17.336	830.171	628.935
396.248	17.111	830.181	628.053
397.263	17.218	829.263	627.697
398.278	17.329	828.641	627.581
399.292	17.307	828.140	627.066
400.307	17.236	827.869	626.541
401.321	17.346	827.539	626.642
402.336	17.310	827.189	626.189
403.350	17.315	826.561	625.676
404.365	17.468	826.053	625.799
405.380	17.617	825.392	625.790
406.394	17.568	824.858	625.151
407.409	17.416	824.551	624.305
408.423	17.524	824.399	624.532
409.438	17.520	824.132	624.260
410.453	17.608	823.360	623.942
411.467	17.589	822.751	623.356
412.482	17.643	822.538	623.337
413.496	17.607	822.152	622.855
414.511	17.716	821.729	622.881
415.526	17.687	821.411	622.477
416.540	17.819	820.722	622.384
417.555	17.796	820.163	621.818
418.569	17.682	820.207	621.382
419.584	17.761	819.613	621.166
420.599	17.804	818.918	620.738
421.613	106.010	1288.423	1452.104
422.628	91.632	1356.830	1452.195
