DTS Sentinel unit serial number:	SN413079Multiplexer serial number:	ORYXHardware model number:	OX4-SRSoftware version number:	ORYX F/W v4.00 Oryx Data Collector v3.7.2.0data status	okinstallation	princeton_trtdifferential loss correction	single-endedforward channel	channel 1reverse channel	N/Adate	2019/09/17time	00:38:35forward acquisition time	60.00reverse acquisition time	0.00gamma	496.2192k internal	0.2324k external	0.2324temperature offset calibration	0.9961default loss term (dB/km)	0.3790temperature slope calibration	1.0000multiplexer offset coefficient	1.0000multiplexer slope coefficient	1.0000fibre end	0.00T internal ref (°C)	29.44T ext. ref 1 (°C)	0.12T ext. ref 2 (°C)	23.96length (m)	temperature (°C)	Stokes	anti-Stokes-747.200	800.000	0.028	0.121
-746.185	-64.292	-0.062	0.026
-745.171	-79.986	-0.245	0.083
-744.156	800.000	0.143	0.491
-743.142	-125.635	0.197	0.030
-742.127	129.168	0.139	0.179
-741.112	-102.568	-0.387	0.093
-740.098	-75.676	-0.076	-0.027
-739.083	51.505	-0.119	0.114
-738.069	-117.599	0.055	0.010
-737.054	-200.000	-0.006	0.085
-736.039	22.664	0.240	0.199
-735.025	-130.965	0.242	0.033
-734.010	-122.888	-0.219	-0.036
-732.996	800.000	0.117	-0.343
-731.981	78.121	0.148	-0.159
-730.966	53.040	-0.345	0.333
-729.952	-21.430	-0.232	0.143
-728.937	0.821	-0.223	-0.161
-727.923	176.631	-0.099	-0.145
-726.908	-38.636	-0.301	-0.160
-725.894	-143.385	-0.150	0.014
-724.879	-89.097	-0.269	-0.080
-723.864	108.026	-0.094	-0.113
-722.850	-200.000	0.028	0.261
-721.835	-67.292	-0.251	0.100
-720.821	-80.946	0.145	0.048
-719.806	87.934	0.249	-0.279
-718.791	443.854	0.105	-0.232
-717.777	13.976	0.283	-0.222
-716.762	-200.000	-0.003	-0.082
-715.748	-47.623	0.073	-0.036
-714.733	-74.937	0.122	-0.044
-713.718	-167.186	0.151	0.006
-712.704	800.000	0.039	-0.119
-711.689	23.443	-0.314	0.261
-710.675	56.761	0.038	0.037
-709.660	-109.016	0.080	-0.017
-708.645	647.407	-0.090	-0.231
-707.631	-87.620	0.309	0.094
-706.616	29.692	-0.151	-0.129
-705.602	-123.237	-0.400	0.065
-704.587	-83.561	0.286	0.092
-703.572	-24.671	-0.173	-0.104
-702.558	208.967	-0.236	0.373
-701.543	-53.071	0.151	0.070
-700.529	800.000	-0.090	-0.339
-699.514	-152.002	-0.173	0.013
-698.499	740.030	-0.052	0.142
-697.485	235.099	0.093	-0.155
-696.470	800.000	-0.072	0.283
-695.456	-66.949	0.061	-0.024
-694.441	-128.367	-0.270	-0.039
-693.426	-35.173	0.179	-0.098
-692.412	-200.000	0.020	0.087
-691.397	20.462	0.126	-0.103
-690.383	-108.505	-0.237	-0.051
-689.368	-200.000	-0.028	0.195
-688.354	0.085	-0.307	0.220
-687.339	96.674	-0.263	0.303
-686.324	800.000	0.059	0.176
-685.310	102.893	-0.152	-0.179
-684.295	-114.416	-0.418	-0.081
-683.281	-169.663	-0.226	0.008
-682.266	-200.000	-0.037	-0.192
-681.251	-67.448	-0.024	0.009
-680.237	-200.000	0.054	-0.300
-679.222	-66.034	0.074	-0.030
-678.208	530.031	-0.102	-0.242
-677.193	-40.240	0.349	-0.183
-676.178	-130.065	-0.170	-0.023
-675.164	-200.000	0.352	-0.001
-674.149	54.562	-0.124	0.121
-673.135	-60.928	0.251	0.107
-672.120	46.957	0.046	0.043
-671.105	800.000	-0.115	-0.500
-670.091	13.603	0.077	-0.060
-669.076	-95.037	-0.197	0.054
-668.062	-87.074	-0.178	-0.054
-667.047	13.870	-0.076	0.059
-666.032	-200.000	0.011	0.082
-665.018	120.826	0.118	0.147
-664.003	531.992	-0.117	-0.278
-662.989	-55.007	0.163	-0.074
-661.974	-200.000	0.030	0.323
-660.959	172.173	0.345	0.499
-659.945	462.472	-0.124	-0.278
-658.930	269.733	-0.120	-0.212
-657.916	471.645	-0.111	-0.251
-656.901	258.868	-0.082	0.143
-655.886	289.668	-0.172	-0.314
-654.872	-200.000	0.092	0.564
-653.857	800.000	-0.046	0.151
-652.843	338.916	0.138	0.270
-651.828	70.628	-0.065	-0.067
-650.814	-101.874	0.274	-0.067
-649.799	-83.630	0.311	0.100
-648.784	-32.027	-0.155	0.087
-647.770	144.137	-0.097	0.131
-646.755	-19.811	0.417	-0.259
-645.741	3.356	0.222	0.162
-644.726	-126.586	0.275	0.041
-643.711	60.595	0.179	0.179
-642.697	-7.525	-0.204	0.139
-641.682	-17.990	0.290	-0.183
-640.668	-85.418	0.238	-0.074
-639.653	86.104	-0.134	0.148
-638.638	201.486	0.174	-0.269
-637.624	-40.567	-0.101	-0.053
-636.609	512.082	-0.113	0.264
-635.595	-111.774	0.300	-0.061
-634.580	254.333	-0.154	-0.265
-633.565	25.514	0.149	-0.124
-632.551	-87.809	-0.129	-0.039
-631.536	209.274	-0.179	-0.282
-630.522	126.422	0.084	-0.107
-629.507	-200.000	0.066	-0.673
-628.492	135.824	-0.165	0.216
-627.478	92.595	-0.194	-0.220
-626.463	-78.778	0.344	0.118
-625.449	-50.089	0.103	-0.049
-624.434	194.648	-0.195	-0.298
-623.419	102.792	0.176	0.207
-622.405	131.142	0.137	0.177
-621.390	-37.688	0.236	-0.126
-620.376	-109.605	-0.202	0.043
-619.361	-44.572	-0.189	0.095
-618.346	-200.000	-0.040	-0.237
-617.332	-58.279	-0.339	-0.148
-616.317	19.567	0.171	-0.138
-615.303	800.000	-0.032	-0.129
-614.288	-79.840	0.292	0.098
-613.273	367.252	0.088	0.178
-612.259	172.686	0.123	-0.178
-611.244	87.096	-0.302	0.335
-610.230	58.838	-0.256	-0.252
-609.215	-71.082	0.273	0.103
-608.201	78.483	0.198	-0.212
-607.186	220.959	0.140	0.226
-606.171	-41.247	0.229	-0.119
-605.157	211.315	0.144	0.228
-604.142	204.550	0.112	-0.174
-603.128	-38.838	-0.098	0.052
-602.113	51.819	-0.287	0.274
-601.098	-31.290	-0.089	-0.050
-600.084	66.790	-0.183	0.187
-599.069	800.000	-0.072	-0.315
-598.055	-24.471	-0.294	0.176
-597.040	-200.000	-0.023	0.249
-596.025	18.453	-0.277	0.222
-595.011	10.860	-0.159	0.122
-593.996	365.691	-0.052	-0.105
-592.982	800.000	0.075	0.212
-591.967	57.820	0.071	-0.070
-590.952	-54.778	-0.232	-0.105
-589.938	95.589	-0.315	-0.360
-588.923	-200.000	0.026	-0.175
-587.909	196.765	0.146	0.224
-586.894	36.833	-0.205	-0.182
-585.879	235.280	-0.144	-0.238
-584.865	-82.251	0.280	-0.091
-583.850	660.939	0.035	0.089
-582.836	-98.486	0.074	0.019
-581.821	450.636	-0.175	0.388
-580.806	800.000	0.049	-0.203
-579.792	131.882	-0.074	0.095
-578.777	527.504	-0.152	-0.359
-577.763	169.089	0.269	-0.385
-576.748	-200.000	0.148	-0.001
-575.733	800.000	0.066	0.182
-574.719	48.314	-0.143	-0.134
-573.704	-18.399	-0.350	-0.219
-572.690	-47.461	-0.394	-0.192
-571.675	-45.962	0.110	0.054
-570.661	-72.213	-0.161	-0.060
-569.646	165.618	-0.196	-0.278
-568.631	-125.271	-0.237	-0.036
-567.617	-200.000	0.041	0.242
-566.602	73.938	0.077	-0.081
-565.588	-124.434	0.532	0.083
-564.573	59.139	0.218	0.215
-563.558	6.453	0.221	0.164
-562.544	-28.993	0.429	0.247
-561.529	62.271	0.184	0.184
-560.515	5.643	-0.270	-0.200
-559.500	-200.000	0.001	-0.541
-558.485	371.730	0.084	0.171
-557.471	-134.713	0.476	0.058
-556.456	-164.700	0.176	-0.008
-555.442	15.286	0.153	-0.120
-554.427	-200.000	0.017	-0.099
-553.412	-51.837	-0.143	-0.067
-552.398	-184.375	-0.251	-0.004
-551.383	564.077	0.016	0.039
-550.369	-5.943	0.190	0.130
-549.354	-136.790	0.230	0.027
-548.339	-26.431	0.317	-0.186
-547.325	-34.784	-0.123	0.067
-546.310	49.157	-0.118	0.112
-545.296	-112.161	-0.247	-0.050
-544.281	140.386	0.117	0.155
-543.266	462.390	0.043	-0.096
-542.252	46.904	0.233	-0.217
-541.237	-123.472	0.231	0.037
-540.223	-177.306	0.280	-0.007
-539.208	-39.801	-0.268	-0.140
-538.193	120.584	0.036	-0.044
-537.179	800.000	-0.016	0.063
-536.164	-102.108	-0.377	0.091
-535.150	800.000	0.051	-0.211
-534.135	27.005	0.060	0.050
-533.121	-84.656	0.138	-0.043
-532.106	45.566	-0.173	0.160
-531.091	-137.623	-0.559	0.063
-530.077	430.233	0.030	-0.066
-529.062	-200.000	0.086	-0.000
-528.048	-73.855	-0.075	-0.027
-527.033	215.833	0.181	0.287
-526.018	-200.000	-0.031	-0.175
-525.004	148.388	-0.207	0.280
-523.989	43.919	-0.156	-0.143
-522.975	775.892	-0.014	0.038
-521.960	222.738	-0.039	0.062
-520.945	81.133	-0.092	0.099
-519.931	9.565	0.095	-0.072
-518.916	81.164	0.275	0.297
-517.902	111.810	0.128	0.155
-516.887	-200.000	-0.038	-0.280
-515.872	-131.014	-0.065	-0.009
-514.858	-23.841	-0.362	-0.217
-513.843	99.604	0.206	-0.238
-512.829	75.939	0.141	-0.150
-511.814	-101.488	0.089	-0.022
-510.799	-172.328	0.049	0.002
-509.785	800.000	-0.064	-0.203
-508.770	-17.648	0.208	0.131
-507.756	492.901	0.069	-0.158
-506.741	-200.000	-0.000	0.131
-505.726	-200.000	0.062	-0.291
-504.712	1.412	0.174	0.125
-503.697	-99.034	-0.139	-0.035
-502.683	-140.184	0.169	-0.018
-501.668	46.657	-0.265	0.246
-500.653	469.067	0.076	-0.171
-499.639	-120.753	-0.155	-0.026
-498.624	-200.000	-0.001	0.319
-497.610	-200.000	0.056	0.364
-496.595	232.730	-0.092	-0.151
-495.581	-150.176	-0.235	-0.018
-494.566	-149.353	0.188	0.015
-493.551	-29.904	-0.299	-0.171
-492.537	248.784	0.085	0.145
-491.522	84.193	0.191	-0.209
-490.508	180.569	0.219	0.322
-489.493	-130.452	0.085	0.011
-488.478	426.920	0.062	-0.134
-487.464	111.090	-0.182	-0.219
-486.449	324.834	0.141	0.269
-485.435	-106.449	-0.087	-0.019
-484.420	573.465	0.096	0.233
-483.405	-200.000	0.091	-0.658
-482.391	168.114	-0.110	-0.156
-481.376	93.872	0.104	-0.118
-480.362	93.688	-0.120	-0.136
-479.347	72.039	-0.128	0.133
-478.332	-138.176	0.456	-0.051
-477.318	0.114	0.020	0.015
-476.303	-200.000	0.041	0.247
-475.289	-144.320	-0.075	-0.007
-474.274	800.000	0.036	-0.153
-473.259	-172.169	-0.202	-0.006
-472.245	-200.000	-0.036	0.179
-471.230	-200.000	-0.024	0.228
-470.216	800.000	0.077	0.255
-469.201	297.434	0.100	0.183
-468.186	298.300	0.055	-0.101
-467.172	-200.000	-0.061	-0.323
-466.157	800.000	-0.126	-0.397
-465.143	-24.882	-0.201	-0.119
-464.128	66.854	-0.222	0.226
-463.113	54.696	-0.216	0.208
-462.099	525.654	0.055	-0.128
-461.084	-7.465	-0.257	-0.174
-460.070	258.358	-0.140	0.240
-459.055	40.123	0.096	0.087
-458.040	54.049	-0.119	0.115
-457.026	-200.000	-0.048	-0.236
-456.011	-83.909	0.161	-0.051
-454.997	-70.647	-0.180	0.068
-453.982	-103.905	-0.305	-0.071
-452.968	-34.924	0.233	0.127
-451.953	149.175	-0.061	-0.082
-450.938	-79.301	-0.163	0.055
-449.924	-90.767	0.177	-0.051
-448.909	-200.000	0.004	-0.416
-447.895	19.600	-0.051	0.041
-446.880	-24.807	-0.265	-0.157
-445.865	-22.707	0.344	0.208
-444.851	800.000	0.032	0.106
-443.836	-17.209	0.152	-0.096
-442.822	406.201	0.108	-0.228
-441.807	-21.328	0.396	-0.241
-440.792	-64.982	0.275	-0.111
-439.778	-86.201	0.118	-0.036
-438.763	-91.237	0.274	-0.078
-437.749	579.650	0.093	-0.227
-436.734	93.591	0.014	0.016
-435.719	28.533	0.232	0.196
-434.705	247.779	-0.108	0.181
-433.690	428.007	-0.194	0.417
-432.676	88.213	0.082	-0.091
-431.661	-92.488	0.234	0.066
-430.646	-1.203	-0.217	-0.153
-429.632	-28.047	-0.183	-0.106
-428.617	256.831	0.153	-0.261
-427.603	489.684	0.178	-0.407
-426.588	58.679	-0.152	-0.149
-425.573	-71.067	0.032	-0.012
-424.559	-178.796	-0.256	0.006
-423.544	248.032	-0.162	-0.272
-422.530	-47.157	0.119	0.058
-421.515	-103.954	-0.090	-0.021
-420.500	-200.000	0.051	0.265
-419.486	83.869	0.164	-0.179
-418.471	419.335	-0.014	-0.030
-417.457	25.484	-0.281	-0.233
-416.442	92.907	0.219	-0.247
-415.428	-77.654	-0.176	-0.061
-414.413	-140.878	-0.273	-0.028
-413.398	-37.417	-0.140	0.074
-412.384	72.559	0.086	-0.090
-411.369	132.682	0.287	0.369
-410.355	123.350	-0.147	-0.183
-409.340	-200.000	-0.045	0.205
-408.325	41.983	-0.212	-0.192
-407.311	-63.580	0.267	0.109
-406.296	800.000	-0.027	0.104
-405.282	-200.000	0.004	0.193
-404.267	64.187	0.133	0.133
-403.252	-91.673	-0.228	-0.064
-402.238	-25.436	0.145	-0.085
-401.223	800.000	-0.099	-0.310
-400.209	86.601	0.251	-0.276
-399.194	300.081	0.038	-0.070
-398.179	603.223	0.017	0.042
-397.165	-111.283	0.068	-0.014
-396.150	-200.000	-0.047	0.232
-395.136	12.260	0.259	0.199
-394.121	-95.858	-0.231	-0.061
-393.106	-61.177	-0.276	-0.116
-392.092	188.713	-0.005	-0.007
-391.077	-200.000	-0.037	0.222
-390.063	-65.517	-0.245	0.098
-389.048	-114.106	0.426	-0.082
-388.033	-200.000	-0.035	-0.193
-387.019	-200.000	0.004	-0.188
-386.004	-200.000	0.034	0.165
-384.990	-153.376	0.166	-0.011
-383.975	-168.142	0.087	-0.003
-382.960	-83.387	-0.325	-0.104
-381.946	164.137	0.083	0.116
-380.931	721.597	-0.212	-0.562
-379.917	52.977	0.106	-0.101
-378.902	-39.719	0.144	-0.075
-377.888	-34.854	0.187	-0.102
-376.873	-7.078	-0.251	0.170
-375.858	31.413	0.211	0.181
-374.844	-9.549	-0.176	0.117
-373.829	-200.000	-0.067	0.351
-372.815	65.095	-0.106	0.107
-371.800	-64.963	0.279	-0.112
-370.785	83.576	0.083	0.090
-369.771	475.994	0.155	0.348
-368.756	-93.643	-0.166	0.046
-367.742	28.586	-0.123	0.103
-366.727	-121.662	0.110	0.018
-365.712	800.000	0.029	-0.121
-364.698	581.948	-0.052	0.128
-363.683	261.901	0.172	-0.297
-362.669	744.504	-0.058	-0.154
-361.654	99.867	-0.137	-0.158
-360.639	-7.881	0.048	0.032
-359.625	107.344	0.140	0.166
-358.610	256.997	-0.075	0.128
-357.596	315.741	0.024	-0.045
-356.581	175.345	-0.076	0.109
-355.566	-144.364	0.291	0.027
-354.552	-85.787	-0.231	0.071
-353.537	800.000	0.099	0.305
-352.523	-200.000	0.003	-0.166
-351.508	-15.224	0.360	-0.229
-350.493	124.084	-0.011	-0.014
-349.479	-9.395	-0.278	-0.184
-348.464	-68.363	0.122	-0.047
-347.450	800.000	0.043	-0.127
-346.435	273.665	0.146	0.257
-345.420	-35.988	-0.233	-0.125
-344.406	581.315	0.010	0.025
-343.391	800.000	0.062	0.184
-342.377	-200.000	0.102	-0.566
-341.362	249.520	0.021	-0.035
-340.348	54.760	-0.152	-0.146
-339.333	-200.000	-0.012	0.226
-338.318	-92.938	-0.062	-0.017
-337.304	-61.362	-0.292	0.122
-336.289	-56.860	0.317	0.139
-335.275	57.857	-0.084	0.082
-334.260	252.102	-0.084	0.143
-333.245	-68.114	-0.226	0.087
-332.231	-136.365	0.288	-0.033
-331.216	-93.757	-0.234	-0.064
-330.202	-43.488	0.140	0.070
-329.187	344.473	-0.115	0.225
-328.172	-200.000	-0.029	-0.322
-327.158	101.527	0.300	-0.347
-326.143	-0.772	-0.222	0.156
-325.129	390.734	0.050	0.103
-324.114	-46.970	0.199	0.096
-323.099	76.641	-0.234	-0.246
-322.085	150.840	0.030	0.040
-321.070	-155.705	-0.359	-0.023
-320.056	145.660	-0.048	-0.064
-319.041	321.877	0.129	-0.244
-318.026	-73.006	-0.138	0.050
-317.012	239.327	0.070	0.115
-315.997	-50.092	0.058	-0.027
-314.983	-155.811	0.274	-0.017
-313.968	-117.589	-0.203	-0.036
-312.953	-200.000	-0.048	0.302
-311.939	98.856	-0.130	-0.149
-310.924	-90.163	0.188	0.054
-309.910	52.890	0.174	0.165
-308.895	353.648	-0.047	-0.092
-307.880	246.907	-0.194	-0.324
-306.866	548.244	-0.172	0.410
-305.851	800.000	0.015	-0.060
-304.837	-13.741	-0.524	0.336
-303.822	800.000	0.083	0.258
-302.807	1.195	0.102	-0.073
-301.793	-25.851	0.189	0.110
-300.778	800.000	-0.037	0.147
-299.764	-200.000	0.041	0.319
-298.749	-200.000	0.063	0.439
-297.735	800.000	0.035	0.112
-296.720	800.000	0.080	0.320
-295.705	-115.202	0.356	0.067
-294.691	138.900	0.050	-0.066
-293.676	-163.291	-0.139	-0.007
-292.662	-200.000	0.128	0.562
-291.647	-47.795	0.066	-0.032
-290.632	-200.000	0.072	-0.315
-289.618	-138.967	-0.123	-0.013
-288.603	-102.668	-0.154	-0.036
-287.589	800.000	-0.057	0.230
-286.574	575.157	-0.099	0.239
-285.559	353.182	0.126	0.248
-284.545	62.620	-0.320	-0.317
-283.530	169.721	0.102	0.145
-282.516	-42.048	0.176	-0.089
-281.501	-200.000	0.019	0.113
-280.486	86.106	0.035	-0.039
-279.472	215.125	0.063	0.100
-278.457	76.157	-0.064	0.067
-277.443	-88.284	-0.319	0.094
-276.428	-200.000	0.044	-0.302
-275.413	-200.000	0.018	0.235
-274.399	800.000	-0.079	0.314
-273.384	462.810	-0.113	0.250
-272.370	-89.891	-0.124	0.036
-271.355	-200.000	0.026	0.120
-270.340	-34.846	0.329	0.178
-269.326	125.223	-0.043	0.053
-268.311	257.987	0.184	0.314
-267.297	-200.000	-0.009	0.237
-266.282	-200.000	-0.022	-0.179
-265.267	-200.000	-0.111	-0.489
-264.253	-140.881	0.284	-0.029
-263.238	-77.018	0.201	0.070
-262.224	-200.000	0.051	0.483
-261.209	-200.000	0.020	-0.235
-260.195	467.779	0.172	0.383
-259.180	40.068	-0.165	-0.147
-258.165	103.890	-0.156	-0.182
-257.151	770.417	-0.113	0.305
-256.136	-74.528	-0.237	-0.084
-255.122	-110.357	-0.172	0.035
-254.107	-175.371	-0.261	-0.007
-253.092	-200.000	0.017	-0.297
-252.078	289.598	-0.064	-0.116
-251.063	-50.925	-0.221	0.103
-250.049	194.112	-0.181	0.272
-249.034	-69.212	0.244	0.093
-248.019	250.683	-0.099	0.167
-247.005	641.182	-0.112	-0.283
-245.990	-68.790	-0.046	-0.018
-244.976	92.004	-0.171	-0.190
-243.961	226.533	0.121	-0.194
-242.946	187.205	0.107	-0.158
-241.932	528.838	-0.059	0.138
-240.917	71.387	-0.085	-0.087
-239.903	139.604	-0.148	-0.193
-238.888	-94.187	0.333	-0.090
-237.873	-86.305	0.313	-0.095
-236.859	-200.000	0.034	0.227
-235.844	23.681	-0.117	-0.096
-234.830	-66.319	-0.260	-0.102
-233.815	-26.515	0.223	0.129
-232.800	-46.915	0.213	0.103
-231.786	220.178	0.011	0.017
-230.771	-97.223	0.167	0.043
-229.757	-200.000	-0.016	0.071
-228.742	49.183	0.039	0.037
-227.727	161.184	0.181	0.250
-226.713	-200.000	0.013	-0.082
-225.698	800.000	-0.102	-0.305
-224.684	-127.474	-0.320	-0.046
-223.669	419.908	0.100	-0.213
-222.655	-81.276	-0.132	-0.043
-221.640	260.852	-0.068	0.117
-220.625	-4.688	-0.201	0.137
-219.611	-134.288	0.191	0.023
-218.596	-200.000	-0.011	0.123
-217.582	800.000	-0.120	0.498
-216.567	-181.038	-0.049	0.001
-215.552	-105.991	-0.213	-0.047
-214.538	277.801	0.090	0.159
-213.523	-132.968	-0.315	-0.040
-212.509	800.000	0.054	-0.218
-211.494	-200.000	0.122	-0.001
-210.479	800.000	0.050	-0.208
-209.465	54.014	-0.166	-0.157
-208.450	-64.458	-0.106	0.042
-207.436	58.058	-0.202	-0.195
-206.421	-200.000	0.222	0.001
-205.406	504.000	0.105	-0.240
-204.392	-178.863	0.168	-0.004
-203.377	158.778	-0.063	-0.086
-202.363	800.000	-0.064	-0.243
-201.348	-122.792	0.073	0.012
-200.333	127.695	0.154	0.193
-199.319	-200.000	0.059	0.349
-198.304	-200.000	0.008	-0.192
-197.290	-200.000	-0.014	-0.244
-196.275	-158.890	-0.041	0.002
-195.260	598.367	0.042	-0.102
-194.246	395.092	-0.101	0.208
-193.231	-104.773	0.109	0.025
-192.217	283.811	0.038	-0.067
-191.202	191.690	0.143	0.213
-190.187	27.577	-0.433	0.360
-189.173	-114.720	0.335	-0.063
-188.158	-200.000	0.017	-0.439
-187.144	289.800	-0.117	-0.209
-186.129	800.000	-0.082	-0.250
-185.114	-101.035	-0.498	0.121
-184.100	163.907	0.072	-0.100
-183.085	-60.256	-0.221	0.093
-182.071	800.000	-0.151	0.472
-181.056	410.321	0.153	0.321
-180.042	137.181	-0.250	0.322
-179.027	-200.000	-0.044	0.200
-178.012	10.402	0.162	0.122
-176.998	107.781	0.169	0.199
-175.983	159.718	0.104	0.143
-174.969	-18.039	0.129	-0.080
-173.954	-200.000	0.006	-0.261
-172.939	-46.091	0.393	0.191
-171.925	-25.696	-0.237	0.138
-170.910	-30.025	-0.374	0.210
-169.896	117.276	-0.424	0.515
-168.881	-76.931	0.136	0.047
-167.866	41.096	-0.343	-0.306
-166.852	-142.124	-0.308	0.030
-165.837	-200.000	-0.016	-0.093
-164.823	-44.851	0.299	0.147
-163.808	211.698	0.005	0.008
-162.793	-200.000	0.005	-0.237
-161.779	238.637	-0.057	0.094
-160.764	-69.484	0.422	0.160
-159.750	93.816	-0.161	-0.181
-158.735	-123.512	0.094	-0.015
-157.720	-148.623	-0.263	-0.021
-156.706	-200.000	-0.016	0.255
-155.691	-200.000	0.042	-0.428
-154.677	27.914	0.154	-0.128
-153.662	491.431	-0.037	-0.083
-152.647	-107.562	0.182	0.039
-151.633	134.953	-0.163	-0.209
-150.618	111.536	-0.193	0.230
-149.604	-46.827	0.148	0.071
-148.589	-200.000	0.018	0.104
-147.574	800.000	-0.065	-0.189
-146.560	-31.037	-0.204	0.114
-145.545	55.881	-0.357	0.342
-144.531	-100.833	0.025	0.006
-143.516	-31.375	-0.042	0.024
-142.502	-115.516	-0.093	-0.017
-141.487	-200.000	0.004	0.120
-140.472	-139.586	0.443	-0.047
-139.458	-54.433	0.208	-0.093
-138.443	-79.253	-0.130	-0.044
-137.429	302.695	-0.097	-0.178
-136.414	-12.090	-0.261	-0.169
-135.399	-48.625	0.247	-0.117
-134.385	-49.053	-0.375	0.177
-133.370	-200.000	-0.032	0.368
-132.356	169.646	-0.083	0.117
-131.341	241.257	0.070	-0.116
-130.326	-74.608	-0.191	0.068
-129.312	-82.293	-0.206	-0.066
-128.297	19.392	0.299	-0.237
-127.283	-75.007	0.246	-0.087
-126.268	164.450	-0.067	-0.094
-125.253	-151.010	0.171	-0.013
-124.239	-15.986	0.317	0.199
-123.224	461.792	0.126	0.278
-122.210	-12.197	-0.277	0.179
-121.195	-200.000	0.081	-0.434
-120.180	800.000	0.051	0.161
-119.166	798.286	-0.040	-0.108
-118.151	-73.526	0.197	-0.071
-117.137	16.846	-0.217	0.169
-116.122	16.268	0.055	0.043
-115.107	-32.584	-0.129	0.071
-114.093	224.332	0.206	0.327
-113.078	389.919	0.079	0.161
-112.064	-77.862	-0.285	-0.097
-111.049	-28.809	-0.102	0.058
-110.034	178.581	-0.262	-0.377
-109.020	54.298	-0.186	0.176
-108.005	-137.451	0.308	-0.034
-106.991	-30.463	-0.235	-0.131
-105.976	0.277	-0.544	0.383
-104.962	-155.355	0.282	0.018
-103.947	800.000	-0.115	0.404
-102.932	51.632	0.248	-0.232
-101.918	368.198	0.125	0.248
-100.903	302.973	0.161	-0.293
-99.889	800.000	0.095	0.298
-98.874	-166.749	0.046	0.002
-97.859	185.642	-0.078	-0.114
-96.845	-67.657	-0.085	0.033
-95.830	287.004	0.079	0.141
-94.816	-200.000	0.013	0.157
-93.801	-21.019	0.121	-0.073
-92.786	-8.072	-0.164	-0.109
-91.772	-193.254	0.090	0.001
-90.757	67.217	0.192	0.193
-89.743	-119.879	0.264	-0.045
-88.728	6.107	-0.076	-0.056
-87.713	-70.298	-0.258	-0.096
-86.699	225.623	-0.131	0.209
-85.684	-179.332	0.169	-0.004
-84.670	800.000	0.069	0.252
-83.655	512.366	0.034	0.079
-82.640	-67.725	-0.347	0.134
-81.626	-118.314	0.240	0.042
-80.611	-131.405	-0.142	-0.018
-79.597	12.724	-0.088	-0.067
-78.582	-34.292	0.153	0.083
-77.567	-200.000	0.076	0.378
-76.553	-71.332	0.157	-0.058
-75.538	33.753	0.122	0.104
-74.524	-16.539	0.166	0.104
-73.509	769.033	0.081	-0.216
-72.494	533.937	0.028	-0.066
-71.480	77.307	-0.111	0.116
-70.465	162.513	-0.266	0.367
-69.451	-200.000	-0.023	0.109
-68.436	-157.135	0.185	0.011
-67.422	-97.550	0.226	0.058
-66.407	-55.198	-0.111	-0.049
-65.392	5.178	0.072	0.052
-64.378	79.438	0.272	0.286
-63.363	47.458	0.090	0.082
-62.349	-66.003	-0.141	0.055
-61.334	19.875	-1.222	-0.968
-60.319	-70.437	0.633	0.236
-59.305	800.000	-0.286	-1.219
-58.290	355.360	0.764	1.495
-57.276	187.609	0.736	1.079
-56.261	-200.000	109.135	596.459
-55.246	443.127	1488.826	3206.223
-54.232	146.210	2667.647	3517.543
-53.217	105.832	2154.612	2504.438
-52.203	40.702	1604.403	1421.131
-51.188	32.984	1345.742	1145.391
-50.173	29.819	1305.396	1092.352
-49.159	54.647	1360.123	1288.422
-48.144	54.699	1375.446	1303.197
-47.130	33.025	1330.212	1132.239
-46.115	29.565	1312.420	1096.549
-45.100	29.360	1307.358	1091.062
-44.086	29.335	1305.520	1089.336
-43.071	29.318	1302.664	1086.814
-42.057	29.351	1300.563	1085.212
-41.042	29.330	1299.064	1083.792
-40.027	29.274	1297.527	1082.141
-39.013	29.300	1295.321	1080.410
-37.998	29.341	1293.503	1079.090
-36.984	29.390	1291.681	1077.814
-35.969	29.353	1290.022	1076.172
-34.954	29.379	1288.549	1075.050
-33.940	29.470	1287.194	1074.409
-32.925	29.524	1285.874	1073.577
-31.911	29.384	1284.656	1071.706
-30.896	29.578	1282.796	1071.238
-29.881	29.542	1281.838	1070.187
-28.867	29.661	1279.658	1069.012
-27.852	29.578	1278.514	1067.532
-26.838	29.662	1276.824	1066.565
-25.823	29.534	1276.353	1065.388
-24.809	29.556	1274.725	1064.112
-23.794	29.444	1273.611	1062.496
-22.779	29.577	1271.884	1061.778
-21.765	29.558	1271.056	1060.938
-20.750	29.347	1270.246	1059.006
-19.736	29.503	1268.866	1058.709
-18.721	29.365	1267.362	1056.623
-17.706	29.410	1266.274	1055.930
-16.692	29.361	1264.817	1054.392
-15.677	29.368	1264.113	1053.802
-14.663	29.444	1263.068	1053.323
-13.648	29.432	1261.726	1052.099
-12.633	29.394	1260.596	1050.893
-11.619	29.431	1259.921	1050.502
-10.604	29.300	1259.305	1049.199
-9.590	29.388	1258.298	1048.822
-8.575	29.350	1257.244	1047.682
-7.560	29.400	1256.402	1047.224
-6.546	29.400	1255.442	1046.386
-5.531	29.372	1254.477	1045.380
-4.517	29.298	1253.728	1044.297
-3.502	29.349	1252.833	1043.794
-2.487	29.342	1251.897	1042.937
-1.473	29.384	1247.710	1039.643
-0.458	27.852	1233.025	1018.827
0.556	22.866	1216.045	982.582
1.571	19.332	1222.709	968.072
2.586	18.583	1237.428	975.379
3.600	18.282	1226.050	964.627
4.615	13.364	1153.161	881.072
5.629	4.610	1077.645	779.566
6.644	0.410	1057.605	744.304
7.659	0.071	1055.313	740.957
8.673	-0.035	1054.781	739.993
9.688	0.014	1052.786	738.772
10.702	0.232	1051.212	738.671
11.717	5.340	1058.186	768.674
12.731	13.853	1069.272	818.811
13.746	17.598	1072.892	840.011
14.761	16.902	1072.107	835.891
15.775	16.033	1069.696	829.660
16.790	14.877	1068.161	822.712
17.804	14.409	1066.000	818.676
18.819	14.083	1065.093	816.307
19.834	13.658	1064.225	813.483
20.848	13.467	1063.408	811.851
21.863	13.233	1062.547	809.973
22.877	13.106	1061.803	808.713
23.892	13.034	1060.802	807.530
24.907	13.149	1059.998	807.406
25.921	13.104	1059.426	806.678
26.936	13.145	1058.400	806.025
27.950	13.153	1058.000	805.688
28.965	13.304	1056.698	805.361
29.980	13.354	1055.372	804.523
30.994	13.313	1054.406	803.517
32.009	13.439	1053.019	802.999
33.023	13.381	1052.296	802.095
34.038	13.278	1051.498	800.918
35.053	13.367	1050.259	800.334
36.067	13.105	1049.808	798.653
37.082	13.320	1049.002	799.007
38.096	13.213	1048.156	797.777
39.111	13.190	1047.453	797.062
40.126	13.161	1046.250	795.933
41.140	13.086	1044.801	794.402
42.155	13.108	1044.051	793.867
43.169	13.163	1042.871	793.163
44.184	13.090	1042.395	792.380
45.199	13.138	1040.955	791.444
46.213	13.190	1039.893	790.818
47.228	13.130	1039.157	789.901
48.242	13.190	1037.979	789.224
49.257	13.154	1037.140	788.340
50.271	13.117	1036.352	787.499
51.286	13.185	1035.746	787.292
52.301	13.217	1034.489	786.416
53.315	13.196	1033.710	785.655
54.330	13.104	1032.463	784.202
55.344	13.150	1031.535	783.645
56.359	13.105	1031.062	783.006
57.374	13.059	1029.800	781.760
58.388	13.037	1029.024	780.996
59.403	13.057	1028.048	780.279
60.417	12.972	1027.517	779.407
61.432	13.068	1026.654	779.138
62.447	13.107	1025.435	778.325
63.461	12.993	1025.006	777.394
64.476	13.063	1024.374	777.177
65.490	12.872	1023.838	775.800
66.505	13.021	1022.742	775.603
67.520	13.091	1021.900	775.226
68.534	12.941	1021.632	774.247
69.549	13.002	1020.701	773.761
70.563	13.021	1020.086	773.314
71.578	12.901	1018.944	771.821
72.593	12.965	1018.351	771.602
73.607	12.973	1017.257	770.741
74.622	12.842	1017.160	769.988
75.636	12.951	1016.269	769.755
76.651	12.907	1015.495	768.893
77.666	12.917	1015.063	768.545
78.680	12.882	1014.419	767.828
79.695	13.044	1013.187	767.581
80.709	13.007	1013.271	767.406
81.724	13.145	1012.005	767.016
82.739	13.113	1011.449	766.383
83.753	13.373	1010.372	766.701
84.768	13.238	1009.976	765.707
85.782	13.195	1008.964	764.675
86.797	13.283	1007.709	764.060
87.812	13.151	1007.422	763.167
88.826	13.305	1005.979	762.714
89.841	13.283	1004.854	761.696
90.855	13.240	1004.018	760.795
91.870	13.294	1003.679	760.720
92.884	13.338	1002.827	760.208
93.899	13.357	1001.683	759.361
94.914	13.426	1001.095	759.168
95.928	13.427	1000.441	758.609
96.943	13.397	999.380	757.599
97.957	13.305	998.570	756.496
98.972	13.386	997.513	755.997
99.987	13.217	996.861	754.667
101.001	13.286	995.569	753.936
102.016	13.340	994.814	753.545
103.030	13.218	994.062	752.354
104.045	13.265	993.092	751.765
105.060	13.157	992.716	750.923
106.074	13.183	991.579	750.117
107.089	13.173	990.448	749.148
108.103	13.040	989.698	747.909
109.118	13.054	988.838	747.258
110.133	13.046	987.536	746.172
111.147	13.083	987.066	745.916
112.162	13.198	986.504	745.946
113.176	13.158	985.389	744.857
114.191	13.124	984.953	744.310
115.206	13.129	983.902	743.470
116.220	13.159	982.960	742.828
117.235	13.196	982.133	742.304
118.249	13.183	981.199	741.474
119.264	13.235	980.374	741.017
120.279	13.146	979.616	739.981
121.293	13.208	978.755	739.542
122.308	13.209	977.527	738.556
123.322	13.045	976.923	737.301
124.337	13.175	975.918	737.056
125.352	13.194	974.963	736.352
126.366	13.039	974.064	734.922
127.381	13.126	972.751	734.249
128.395	13.154	971.879	733.650
129.410	13.125	971.187	732.935
130.424	13.256	970.352	732.823
131.439	13.275	969.596	732.270
132.454	13.277	968.629	731.483
133.468	13.240	968.071	730.836
134.483	13.339	966.817	730.260
135.497	13.289	966.060	729.402
136.512	13.272	965.503	728.843
137.527	13.263	964.431	727.928
138.541	13.300	963.545	727.359
139.556	13.305	962.933	726.853
140.570	13.402	962.143	726.622
141.585	13.322	961.707	725.874
142.600	13.358	960.981	725.421
143.614	13.488	959.832	725.058
144.629	13.407	959.438	724.341
145.643	13.424	958.129	723.364
146.658	13.372	956.879	722.132
147.673	13.282	956.034	721.036
148.687	13.325	955.430	720.706
149.702	13.307	954.774	720.066
150.716	13.345	954.126	719.680
151.731	13.321	953.432	718.989
152.746	13.318	952.875	718.493
153.760	13.356	952.154	718.050
154.775	13.384	951.389	717.529
155.789	13.445	950.826	717.308
156.804	13.511	949.706	716.684
157.819	13.566	949.025	716.344
158.833	13.491	948.850	715.825
159.848	13.563	947.953	715.396
160.862	13.414	947.130	714.067
161.877	13.512	946.008	713.582
162.892	13.482	945.058	712.673
163.906	13.487	943.951	711.798
164.921	13.411	943.267	710.892
165.935	13.681	942.079	711.091
166.950	13.524	941.532	709.941
167.964	13.600	940.682	709.564
168.979	13.557	939.537	708.453
169.994	13.483	938.607	707.376
171.008	13.572	938.230	707.406
172.023	13.458	937.865	706.583
173.037	13.686	936.604	706.544
174.052	13.606	936.005	705.688
175.067	13.466	935.735	704.823
176.081	13.544	935.009	704.546
177.096	13.506	934.565	703.991
178.110	13.453	933.894	703.196
179.125	13.659	933.048	703.371
180.140	13.602	932.772	702.859
181.154	13.631	932.196	702.488
182.169	13.781	931.544	702.570
183.183	13.801	930.940	702.133
184.198	13.749	930.370	701.423
185.213	13.803	929.584	700.994
186.227	13.730	928.790	700.028
187.242	13.751	928.535	699.862
188.256	13.789	927.951	699.519
189.271	13.791	927.219	698.914
190.286	13.647	926.583	697.769
191.300	13.534	925.534	696.442
192.315	13.490	924.984	695.780
193.329	13.644	924.356	695.892
194.344	13.711	923.402	695.392
195.359	13.731	923.097	695.187
196.373	13.812	922.485	695.003
197.388	13.813	922.748	695.146
198.402	14.048	921.249	694.936
199.417	13.850	920.954	693.825
200.432	14.028	920.520	694.179
201.446	14.089	919.749	693.793
202.461	14.072	919.736	693.649
203.475	14.089	918.961	693.073
204.490	14.015	918.018	691.994
205.504	13.910	917.455	691.072
206.519	14.009	916.502	690.702
207.534	14.079	915.862	690.452
208.548	14.075	915.108	689.806
209.563	13.990	914.443	688.891
210.577	14.013	913.894	688.509
211.592	14.017	913.515	688.180
212.607	14.139	912.655	687.979
213.621	14.246	911.340	687.368
214.636	14.134	911.448	686.925
215.650	14.137	910.575	686.217
216.665	14.308	909.629	686.148
217.680	14.201	909.237	685.351
218.694	14.220	908.479	684.800
219.709	14.348	907.768	684.729
220.723	14.240	907.169	683.770
221.738	14.272	906.716	683.500
222.753	14.288	905.735	682.767
223.767	14.285	905.361	682.414
224.782	14.439	904.572	682.390
225.796	14.474	904.022	682.057
226.811	14.362	903.576	681.200
227.826	14.262	903.253	680.488
228.840	14.371	902.167	680.053
229.855	14.315	901.554	679.305
230.869	14.366	900.418	678.596
231.884	14.481	899.921	678.629
232.899	14.424	898.807	677.498
233.913	14.334	898.226	676.635
234.928	14.341	897.574	676.113
235.942	14.363	897.360	675.979
236.957	14.358	896.625	675.346
237.972	14.363	895.998	674.835
238.986	14.326	895.162	673.997
240.001	14.319	894.711	673.568
241.015	14.320	893.957	672.947
242.030	14.465	893.337	673.005
243.045	14.595	892.630	672.936
244.059	14.544	891.762	672.016
245.074	14.625	891.411	672.021
246.088	14.539	890.991	671.296
247.103	14.546	890.186	670.657
248.117	14.672	889.793	670.809
249.132	14.738	889.197	670.565
250.147	14.673	888.749	669.906
251.161	14.632	887.958	669.086
252.176	14.620	887.505	668.639
253.190	14.752	886.769	668.556
254.205	14.892	886.060	668.519
255.220	14.880	885.061	667.661
256.234	14.911	884.459	667.270
257.249	14.897	884.221	666.975
258.263	14.838	883.671	666.266
259.278	14.924	882.975	666.024
260.293	14.924	882.104	665.311
261.307	15.011	881.717	665.303
262.322	15.075	880.464	664.554
263.336	15.125	880.121	664.435
264.351	15.112	879.189	663.620
265.366	15.097	878.973	663.342
266.380	15.270	878.192	663.375
267.395	15.023	877.437	661.770
268.409	15.081	876.813	661.471
269.424	15.130	876.277	661.200
270.439	15.071	875.216	660.109
271.453	15.104	874.702	659.794
272.468	15.102	874.320	659.440
273.482	15.109	873.918	659.106
274.497	15.008	873.277	658.168
275.512	15.136	872.607	658.107
276.526	15.129	872.385	657.851
277.541	15.035	872.325	657.379
278.555	15.206	871.496	657.368
279.570	15.380	870.244	657.045
280.585	15.204	869.609	655.820
281.599	15.143	869.121	655.157
282.614	15.341	867.886	654.942
283.628	15.416	867.305	654.737
284.643	15.287	867.092	654.013
285.657	15.247	866.397	653.277
286.672	15.303	865.760	652.958
287.687	15.257	865.175	652.279
288.701	15.334	864.796	652.234
289.716	15.327	864.338	651.805
290.730	15.396	863.323	651.250
291.745	15.475	863.079	651.313
292.760	15.461	862.475	650.745
293.774	15.546	861.645	650.393
294.789	15.479	861.153	649.702
295.803	15.410	860.254	648.699
296.818	15.275	859.951	647.892
297.833	15.480	859.300	648.139
298.847	15.361	858.755	647.209
299.862	15.537	858.036	647.287
300.876	15.591	857.100	646.733
301.891	15.516	856.703	646.086
302.906	15.601	856.321	646.072
303.920	15.640	855.865	645.817
304.935	15.651	855.389	645.442
305.949	15.699	854.303	644.750
306.964	15.739	853.700	644.393
307.979	15.649	853.683	643.978
308.993	15.747	852.937	643.734
310.008	15.712	852.082	642.898
311.022	15.793	851.486	642.702
312.037	15.777	850.949	642.178
313.052	15.646	850.837	641.534
314.066	15.661	850.034	640.932
315.081	15.663	849.299	640.326
316.095	15.731	848.788	640.144
317.110	15.663	848.381	639.520
318.125	15.668	847.616	638.909
319.139	15.778	847.286	639.019
320.154	15.577	847.096	638.055
321.168	15.940	846.209	638.710
322.183	15.793	845.611	637.644
323.197	15.737	845.317	637.154
324.212	15.700	845.190	636.861
325.227	15.664	844.500	636.151
326.241	15.794	843.684	635.971
327.256	16.014	842.431	635.800
328.270	15.740	842.266	634.584
329.285	15.871	841.973	634.801
330.300	15.865	840.992	633.985
331.314	15.797	840.886	633.590
332.329	15.964	840.290	633.714
333.343	15.823	840.177	633.042
334.358	15.915	839.703	632.975
335.373	15.876	839.335	632.494
336.387	15.993	838.830	632.498
337.402	16.070	838.872	632.762
338.416	16.062	838.086	632.084
339.431	16.121	838.086	632.248
340.446	16.098	837.457	631.633
341.460	16.136	837.205	631.530
342.475	16.126	836.608	630.986
343.489	16.364	835.954	631.326
344.504	16.219	835.736	630.564
345.519	16.237	835.299	630.247
346.533	16.225	834.855	629.811
347.548	16.147	833.963	628.792
348.562	16.234	833.740	628.893
349.577	16.202	832.919	628.098
350.592	16.307	832.042	627.772
351.606	16.162	831.662	626.889
352.621	16.163	831.057	626.383
353.635	16.270	830.590	626.371
354.650	16.215	829.840	625.546
355.665	16.227	829.031	624.924
356.679	16.326	828.572	624.890
357.694	16.295	828.230	624.462
358.708	16.231	827.480	623.605
359.723	16.281	826.831	623.246
360.738	16.298	826.446	622.963
361.752	16.488	825.483	622.882
362.767	16.500	825.188	622.648
363.781	16.384	824.657	621.766
364.796	16.430	824.618	621.852
365.810	16.526	823.884	621.594
366.825	16.467	823.487	621.024
367.840	16.526	822.867	620.717
368.854	16.585	822.306	620.458
369.869	16.543	821.850	619.904
370.883	16.745	821.334	620.201
371.898	16.661	821.127	619.681
372.913	16.751	820.771	619.685
373.927	16.538	820.316	618.508
374.942	16.666	819.934	618.636
375.956	16.785	819.592	618.758
376.971	16.856	819.031	618.538
377.986	16.859	818.758	618.286
379.000	16.938	817.896	617.868
380.015	16.790	817.561	617.022
381.029	16.819	817.116	616.738
382.044	16.690	816.769	615.952
383.059	16.844	815.873	615.782
384.073	16.820	815.148	615.094
385.088	16.787	814.696	614.579
386.102	16.781	814.497	614.352
387.117	16.740	813.737	613.573
388.132	16.884	812.776	613.318
389.146	17.092	812.339	613.685
390.161	17.043	812.170	613.326
391.175	17.008	811.799	612.864
392.190	16.994	811.044	612.192
393.205	16.894	810.740	611.545
394.219	16.998	810.357	611.577
395.234	16.953	809.979	611.078
396.248	16.803	809.690	610.264
397.263	16.912	808.842	609.964
398.278	16.790	808.681	609.350
399.292	16.876	808.219	609.257
400.307	16.782	807.964	608.672
401.321	16.894	807.094	608.366
402.336	16.937	806.796	608.241
403.350	16.990	806.490	608.146
404.365	17.094	805.488	607.710
405.380	17.214	805.259	607.911
406.394	17.123	804.686	607.100
407.409	17.167	804.620	607.152
408.423	17.176	804.015	606.676
409.438	17.322	803.579	606.815
410.453	17.307	803.279	606.482
411.467	17.277	802.826	605.977
412.482	17.250	802.547	605.616
413.496	17.389	802.144	605.754
414.511	17.360	801.637	605.213
415.526	17.319	801.023	604.550
416.540	17.284	800.337	603.858
417.555	17.412	800.001	604.005
418.569	17.438	800.100	604.116
419.584	17.404	799.580	603.551
420.599	17.422	799.082	603.186
421.613	109.159	1292.550	1469.714
422.628	93.896	1364.428	1469.797
