DTS Sentinel unit serial number:	SN413079Multiplexer serial number:	ORYXHardware model number:	OX4-SRSoftware version number:	ORYX F/W v4.00 Oryx Data Collector v3.7.2.0data status	okinstallation	princeton_trtdifferential loss correction	single-endedforward channel	channel 1reverse channel	N/Adate	2019/09/16time	03:54:35forward acquisition time	60.00reverse acquisition time	0.00gamma	496.2192k internal	0.2331k external	0.2331temperature offset calibration	0.9982default loss term (dB/km)	0.3790temperature slope calibration	1.0000multiplexer offset coefficient	1.0000multiplexer slope coefficient	1.0000fibre end	0.00T internal ref (°C)	27.52T ext. ref 1 (°C)	10.69T ext. ref 2 (°C)	21.59length (m)	temperature (°C)	Stokes	anti-Stokes-747.200	-90.411	0.240	0.070
-746.185	86.459	-0.105	0.117
-745.171	-200.000	0.058	0.287
-744.156	-89.107	-0.051	-0.015
-743.142	-50.914	0.084	-0.040
-742.127	1.737	0.181	0.131
-741.112	-112.671	0.225	0.045
-740.098	-87.330	0.021	0.007
-739.083	130.051	-0.177	0.228
-738.069	800.000	0.055	0.192
-737.054	51.095	0.234	-0.223
-736.039	-200.000	0.056	-0.266
-735.025	-48.284	0.377	0.183
-734.010	307.939	-0.242	-0.454
-732.996	-33.243	-0.297	0.166
-731.981	-200.000	-0.043	0.215
-730.966	192.861	-0.177	-0.269
-729.952	-38.481	-0.319	-0.170
-728.937	280.950	-0.118	0.213
-727.923	-65.240	-0.161	0.065
-726.908	800.000	-0.023	-0.081
-725.894	67.561	-0.306	0.314
-724.879	-120.565	-0.103	0.018
-723.864	-154.427	0.053	-0.004
-722.850	-60.225	0.325	0.139
-721.835	-52.030	0.025	-0.012
-720.821	189.508	0.056	-0.084
-719.806	-200.000	0.025	-0.399
-718.791	800.000	-0.029	0.105
-717.777	800.000	-0.103	0.417
-716.762	-132.468	0.252	0.033
-715.748	-200.000	0.056	-0.358
-714.733	-200.000	-0.011	-0.138
-713.718	800.000	0.068	0.251
-712.704	-200.000	-0.056	0.306
-711.689	163.468	0.147	0.208
-710.675	-200.000	-0.012	-0.063
-709.660	-200.000	0.001	-0.039
-708.645	694.847	0.133	0.352
-707.631	-51.740	-0.335	0.157
-706.616	414.565	0.138	0.295
-705.602	800.000	0.107	0.323
-704.587	800.000	-0.058	-0.196
-703.572	800.000	0.098	-0.354
-702.558	-200.000	-0.034	0.162
-701.543	1.262	-0.243	-0.175
-700.529	-74.740	-0.092	0.033
-699.514	-98.992	0.084	0.021
-698.499	800.000	0.091	-0.301
-697.485	-54.159	-0.114	-0.052
-696.470	48.283	-0.162	-0.152
-695.456	-78.176	0.065	-0.023
-694.441	-125.321	-0.226	-0.035
-693.426	654.901	0.079	-0.204
-692.412	87.605	-0.144	-0.160
-691.397	259.581	-0.117	0.203
-690.383	375.478	-0.032	-0.065
-689.368	-59.829	-0.188	-0.081
-688.354	-111.123	-0.274	0.056
-687.339	120.152	-0.142	0.177
-686.324	165.810	-0.208	0.295
-685.310	255.157	0.046	0.079
-684.295	-82.352	0.354	0.116
-683.281	326.061	-0.093	-0.179
-682.266	127.271	-0.266	0.339
-681.251	39.565	0.173	-0.156
-680.237	96.530	-0.025	0.029
-679.222	379.344	-0.156	-0.322
-678.208	-178.793	-0.251	0.006
-677.193	241.092	0.147	0.247
-676.178	122.020	-0.171	-0.214
-675.164	-187.226	-0.230	0.003
-674.149	-200.000	0.002	-0.060
-673.135	-200.000	0.038	-0.174
-672.120	-130.630	-0.211	-0.029
-671.105	-91.484	0.187	0.054
-670.091	-200.000	-0.025	-0.260
-669.076	33.745	0.085	-0.074
-668.062	-17.292	0.170	0.107
-667.047	134.685	-0.238	-0.309
-666.032	-188.953	0.142	0.002
-665.018	58.231	-0.245	0.241
-664.003	-200.000	0.062	0.658
-662.989	-26.604	-0.219	-0.129
-661.974	122.953	-0.128	-0.161
-660.959	-61.884	-0.369	0.155
-659.945	-200.000	-0.083	-0.410
-658.930	-20.184	0.178	0.110
-657.916	-73.659	-0.055	-0.020
-656.901	-195.713	0.181	-0.001
-655.886	-127.422	-0.133	-0.019
-654.872	486.177	-0.204	0.466
-653.857	-200.000	0.030	0.247
-652.843	-14.328	0.124	-0.080
-651.828	799.849	-0.093	-0.258
-650.814	-21.757	0.028	0.017
-649.799	-72.668	-0.198	0.073
-648.784	-200.000	-0.008	-0.294
-647.770	-200.000	-0.030	-0.290
-646.755	-200.000	0.023	0.149
-645.741	99.364	-0.184	0.213
-644.726	523.301	0.057	0.134
-643.711	-148.748	-0.196	0.016
-642.697	-200.000	-0.010	0.056
-641.682	-125.673	-0.121	-0.018
-640.668	-81.579	0.456	-0.150
-639.653	800.000	-0.037	-0.130
-638.638	-200.000	-0.040	-0.360
-637.624	-200.000	-0.024	-0.249
-636.609	-142.757	0.194	-0.019
-635.595	800.000	-0.085	0.256
-634.580	-200.000	-0.032	-0.364
-633.565	367.552	0.079	0.161
-632.551	-200.000	-0.014	-0.391
-631.536	54.068	0.135	-0.130
-630.522	-73.505	0.280	-0.102
-629.507	-1.121	0.163	-0.115
-628.492	21.015	0.214	-0.174
-627.478	-200.000	-0.033	-0.193
-626.463	17.058	-0.101	-0.080
-625.449	-200.000	0.027	-0.229
-624.434	-200.000	-0.000	0.158
-623.419	-12.256	-0.196	0.128
-622.405	-4.921	-0.584	0.403
-621.390	-25.402	-0.198	-0.117
-620.376	688.052	-0.036	-0.093
-619.361	-99.945	-0.335	0.084
-618.346	-200.000	0.001	0.093
-617.332	-121.997	-0.379	0.062
-616.317	-78.180	-0.050	0.017
-615.303	101.016	0.006	-0.007
-614.288	-92.312	-0.088	0.025
-613.273	23.239	-0.131	0.107
-612.259	282.734	0.058	0.104
-611.244	-178.548	-0.261	0.006
-610.230	-200.000	-0.015	0.106
-609.215	114.011	-0.173	-0.210
-608.201	-20.170	0.382	-0.236
-607.186	800.000	0.118	-0.339
-606.171	27.491	0.184	-0.155
-605.157	169.030	0.009	-0.012
-604.142	-200.000	-0.017	0.263
-603.128	212.631	-0.116	-0.184
-602.113	-200.000	-0.001	0.438
-601.098	-67.257	-0.170	-0.067
-600.084	-149.645	0.135	-0.011
-599.069	723.050	-0.024	0.064
-598.055	261.468	0.146	0.253
-597.040	-104.183	0.294	0.068
-596.025	-200.000	0.065	-0.327
-595.011	-200.000	-0.008	-0.111
-593.996	-88.725	-0.158	-0.047
-592.982	-5.753	0.222	0.152
-591.967	-173.386	-0.205	-0.006
-590.952	355.084	-0.052	0.104
-589.938	-103.572	-0.076	-0.018
-588.923	-200.000	0.026	-0.180
-587.909	-46.573	0.187	-0.092
-586.894	67.194	-0.028	-0.029
-585.879	-41.418	0.139	-0.072
-584.865	-171.050	-0.099	0.003
-583.850	108.335	0.109	0.131
-582.836	-200.000	0.034	-0.181
-581.821	-114.048	-0.301	0.058
-580.806	-10.423	-0.142	-0.094
-579.792	38.218	-0.082	-0.073
-578.777	148.088	0.140	-0.189
-577.763	326.780	-0.143	-0.274
-576.748	189.132	0.159	0.238
-575.733	117.456	0.093	0.115
-574.719	-74.512	-0.198	-0.071
-573.704	79.956	-0.216	-0.232
-572.690	-200.000	-0.006	0.145
-571.675	-27.747	0.109	-0.063
-570.661	-200.000	-0.007	0.128
-569.646	199.847	-0.105	0.161
-568.631	-28.101	-0.161	0.093
-567.617	-114.446	0.120	0.023
-566.602	-200.000	0.020	-0.254
-565.588	587.864	0.037	-0.092
-564.573	12.591	-0.206	-0.159
-563.558	15.040	-0.017	0.013
-562.544	800.000	-0.115	0.364
-561.529	240.048	0.050	-0.083
-560.515	272.212	-0.151	-0.267
-559.500	800.000	0.135	-0.425
-558.485	-89.051	0.355	-0.105
-557.471	261.164	-0.065	0.113
-556.456	274.797	0.048	-0.085
-555.442	800.000	0.053	0.152
-554.427	242.563	-0.088	-0.148
-553.412	800.000	-0.026	-0.076
-552.398	79.205	0.124	-0.133
-551.383	-189.318	-0.087	-0.001
-550.369	-31.579	-0.067	-0.038
-549.354	800.000	0.096	0.272
-548.339	-94.292	0.182	-0.050
-547.325	-8.270	-0.169	-0.113
-546.310	-103.543	-0.352	0.083
-545.296	72.195	-0.196	0.204
-544.281	201.629	-0.079	-0.121
-543.266	800.000	-0.014	-0.053
-542.252	-96.711	-0.113	0.030
-541.237	-148.623	-0.342	0.028
-540.223	236.327	0.093	-0.154
-539.208	-7.082	-0.275	-0.186
-538.193	-22.803	0.162	-0.097
-537.179	-78.371	-0.209	-0.072
-536.164	-200.000	-0.006	-0.252
-535.150	-126.626	0.126	-0.019
-534.135	-81.746	-0.077	-0.025
-533.121	-200.000	0.007	0.031
-532.106	252.359	-0.037	0.063
-531.091	297.824	-0.094	-0.172
-530.077	-44.367	0.291	-0.146
-529.062	-200.000	-0.035	0.274
-528.048	302.356	0.113	-0.208
-527.033	66.584	-0.165	-0.167
-526.018	8.089	0.166	-0.124
-525.004	174.004	0.084	-0.121
-523.989	210.888	0.069	-0.108
-522.975	-71.139	-0.119	0.045
-521.960	800.000	0.066	-0.212
-520.945	382.974	0.077	0.157
-519.931	-28.561	0.138	-0.080
-518.916	42.086	-0.413	-0.374
-517.902	-193.965	0.222	-0.002
-516.887	48.860	-0.112	0.105
-515.872	-118.600	-0.087	-0.015
-514.858	24.541	0.307	0.253
-513.843	-73.237	0.338	0.123
-512.829	-42.096	-0.217	0.111
-511.814	155.056	0.115	-0.157
-510.799	-200.000	-0.057	0.259
-509.785	69.117	-0.022	-0.023
-508.770	184.917	0.176	0.260
-507.756	65.155	-0.128	-0.129
-506.741	-200.000	0.021	0.227
-505.726	787.789	0.079	-0.216
-504.712	-160.344	-0.260	0.014
-503.697	220.128	0.101	0.162
-502.683	316.545	-0.070	-0.131
-501.668	-200.000	0.020	0.129
-500.653	-49.419	0.051	-0.024
-499.639	-42.698	0.066	-0.034
-498.624	25.559	0.194	-0.161
-497.610	223.242	0.084	-0.135
-496.595	-18.286	0.164	-0.102
-495.581	17.753	-0.234	-0.186
-494.566	-6.094	0.138	-0.094
-493.551	-200.000	0.026	-0.179
-492.537	800.000	0.071	-0.200
-491.522	80.263	0.156	0.168
-490.508	392.652	0.139	0.289
-489.493	24.581	-0.405	-0.334
-488.478	42.031	-0.120	-0.109
-487.464	-7.569	0.122	0.083
-486.449	3.362	0.167	-0.121
-485.435	800.000	0.026	0.109
-484.420	-200.000	0.021	0.277
-483.405	-183.590	-0.239	0.004
-482.391	-96.593	-0.338	-0.089
-481.376	-135.857	0.511	0.060
-480.362	-140.787	0.360	0.037
-479.347	800.000	0.107	0.342
-478.332	-200.000	-0.039	-0.181
-477.318	-137.629	0.180	0.020
-476.303	-195.796	0.377	0.003
-475.289	1.806	-0.048	0.034
-474.274	-200.000	-0.041	-0.418
-473.259	-200.000	0.051	0.350
-472.245	-162.102	-0.223	0.011
-471.230	-53.816	0.027	-0.012
-470.216	-79.516	-0.328	-0.110
-469.201	38.574	-0.159	-0.142
-468.186	281.106	0.076	0.136
-467.172	3.903	0.020	0.014
-466.157	-57.438	-0.145	-0.063
-465.143	539.469	-0.098	0.231
-464.128	371.100	-0.024	-0.049
-463.113	-36.877	-0.479	-0.256
-462.099	783.739	0.030	0.083
-461.084	211.759	0.135	0.212
-460.070	-89.559	0.060	-0.018
-459.055	479.151	-0.069	-0.157
-458.040	-200.000	0.021	0.147
-457.026	-50.852	-0.064	-0.030
-456.011	-58.976	0.083	-0.035
-454.997	-52.287	-0.213	-0.098
-453.982	-53.369	-0.353	0.161
-452.968	438.012	0.076	-0.164
-451.953	-200.000	0.063	-0.334
-450.938	-98.108	-0.024	0.006
-449.924	-200.000	0.042	-0.304
-448.909	47.899	0.202	-0.188
-447.895	184.317	-0.233	-0.343
-446.880	43.546	0.274	0.250
-445.865	-200.000	-0.006	0.208
-444.851	272.535	-0.088	0.154
-443.836	-19.423	-0.021	0.013
-442.822	247.128	-0.082	0.138
-441.807	-200.000	-0.055	0.264
-440.792	121.220	-0.040	0.049
-439.778	-200.000	0.016	-0.204
-438.763	-24.743	0.226	0.133
-437.749	-200.000	-0.162	0.000
-436.734	-84.805	-0.384	0.120
-435.719	-160.345	0.446	-0.024
-434.705	93.649	0.239	-0.269
-433.690	800.000	0.066	0.284
-432.676	-137.129	0.078	0.009
-431.661	223.760	0.162	0.261
-430.646	-125.459	0.205	0.031
-429.632	-142.272	0.148	0.015
-428.617	211.056	0.162	0.254
-427.603	-149.628	-0.112	0.009
-426.588	117.372	-0.102	0.124
-425.573	166.132	0.033	0.046
-424.559	-156.243	-0.315	-0.020
-423.544	225.413	-0.157	0.252
-422.530	-148.691	-0.251	0.020
-421.515	66.949	-0.127	-0.129
-420.500	-200.000	0.040	0.363
-419.486	-159.872	0.169	-0.009
-418.471	-200.000	0.014	-0.626
-417.457	800.000	0.057	0.158
-416.442	362.911	-0.053	0.105
-415.428	24.153	-0.159	-0.131
-414.413	2.734	0.066	-0.048
-413.398	-45.119	-0.336	0.166
-412.384	660.905	-0.027	-0.070
-411.369	800.000	-0.032	-0.110
-410.355	-109.492	0.303	-0.063
-409.340	296.137	-0.073	0.133
-408.325	-200.000	0.030	0.218
-407.311	800.000	-0.091	0.390
-406.296	87.068	0.021	-0.023
-405.282	-88.732	0.286	0.084
-404.267	-45.096	0.155	-0.077
-403.252	-42.491	-0.382	0.193
-402.238	717.704	0.017	0.046
-401.223	-30.533	0.208	-0.117
-400.209	-200.000	0.050	0.285
-399.194	-86.468	-0.183	0.056
-398.179	800.000	-0.095	-0.288
-397.165	-131.372	0.367	-0.048
-396.150	-36.968	-0.397	-0.211
-395.136	-7.898	0.062	0.042
-394.121	-164.875	0.242	0.011
-393.106	-43.130	0.199	-0.100
-392.092	642.263	0.135	-0.342
-391.077	6.969	0.143	0.106
-390.063	17.965	0.146	0.116
-389.048	41.852	-0.133	0.119
-388.033	-136.455	0.240	0.028
-387.019	-200.000	0.009	-0.079
-386.004	460.431	-0.156	0.345
-384.990	800.000	-0.052	-0.163
-383.975	-175.567	-0.174	0.005
-382.960	-63.158	0.447	-0.183
-381.946	264.841	-0.166	-0.288
-380.931	-132.067	-0.277	-0.036
-379.917	274.378	-0.087	0.153
-378.902	167.956	0.217	-0.306
-377.888	800.000	-0.056	-0.230
-376.873	800.000	-0.121	-0.362
-375.858	449.558	0.059	-0.129
-374.844	-103.964	0.214	0.049
-373.829	362.896	0.212	0.422
-372.815	-170.394	-0.668	0.023
-371.800	-200.000	-0.023	-0.187
-370.785	357.299	-0.060	-0.119
-369.771	800.000	0.075	-0.219
-368.756	174.632	-0.074	0.106
-367.742	257.198	-0.183	0.311
-366.727	-122.369	-0.352	-0.057
-365.712	-68.659	0.193	0.074
-364.698	-200.000	-0.001	-0.009
-363.683	-200.000	-0.040	0.279
-362.669	153.424	-0.039	0.053
-361.654	38.055	0.061	0.054
-360.639	184.929	0.070	0.102
-359.625	-140.204	0.219	0.023
-358.610	47.167	-0.200	0.185
-357.596	187.376	-0.196	-0.290
-356.581	592.232	-0.027	-0.067
-355.566	184.195	-0.050	0.073
-354.552	-37.721	-0.104	0.055
-353.537	800.000	0.054	0.214
-352.523	-44.298	-0.421	-0.209
-351.508	800.000	-0.124	-0.404
-350.493	14.136	0.256	-0.198
-349.479	800.000	-0.048	0.180
-348.464	-197.578	0.191	-0.001
-347.450	800.000	-0.027	0.080
-346.435	-109.132	0.150	0.032
-345.420	-0.893	-0.199	0.140
-344.406	350.746	-0.058	0.113
-343.391	65.702	-0.149	-0.150
-342.377	-89.297	0.210	-0.061
-341.362	215.853	-0.041	-0.065
-340.348	4.060	-0.145	-0.105
-339.333	-79.845	0.227	0.076
-338.318	-200.000	-0.012	0.184
-337.304	-200.000	-0.020	-0.346
-336.289	800.000	-0.111	-0.345
-335.275	-23.502	-0.619	0.368
-334.260	-1.702	-0.048	0.033
-333.245	-200.000	-0.005	0.094
-332.231	-200.000	0.016	0.124
-331.216	511.032	0.057	0.131
-330.202	40.570	0.115	0.103
-329.187	-135.651	-0.056	0.007
-328.172	800.000	0.032	0.092
-327.158	-200.000	0.025	-0.164
-326.143	800.000	0.120	-0.371
-325.129	60.298	0.216	0.212
-324.114	-28.207	0.014	0.008
-323.099	-200.000	-0.008	-0.228
-322.085	324.192	0.195	-0.369
-321.070	-200.000	0.002	0.310
-320.056	-200.000	-0.001	-0.123
-319.041	-200.000	0.041	0.180
-318.026	-33.484	-0.114	-0.063
-317.012	257.082	0.131	-0.223
-315.997	-200.000	-0.004	-0.162
-314.983	103.320	0.219	0.255
-313.968	-200.000	-0.001	0.012
-312.953	-51.112	0.160	-0.074
-311.939	-21.174	-0.141	-0.085
-310.924	-32.246	0.242	0.134
-309.910	88.812	-0.179	-0.197
-308.895	-140.135	0.182	0.019
-307.880	-200.000	-0.038	0.260
-306.866	-200.000	0.047	-0.207
-305.851	109.572	0.055	-0.065
-304.837	-200.000	0.048	-0.324
-303.822	-77.428	0.371	0.127
-302.807	281.992	0.166	0.295
-301.793	204.574	0.053	0.082
-300.778	213.868	0.078	0.122
-299.764	28.677	0.043	-0.036
-298.749	91.667	-0.290	0.323
-297.735	-67.753	0.151	0.059
-296.720	-200.000	-0.070	0.340
-295.705	-200.000	0.031	-0.166
-294.691	-46.574	-0.415	0.201
-293.676	-81.409	0.313	0.102
-292.662	800.000	0.049	0.138
-291.647	-83.603	0.052	0.017
-290.632	83.047	0.151	-0.162
-289.618	-89.132	0.296	0.086
-288.603	-92.159	-0.090	-0.025
-287.589	232.907	0.045	0.073
-286.574	-200.000	0.024	-0.283
-285.559	-67.389	-0.200	0.078
-284.545	67.666	0.149	-0.151
-283.530	-200.000	0.010	0.155
-282.516	800.000	-0.064	-0.206
-281.501	40.114	-0.083	-0.074
-280.486	-13.908	-0.192	0.122
-279.472	224.353	0.123	0.196
-278.457	-200.000	0.007	0.349
-277.443	54.996	0.148	0.142
-276.428	-184.342	-0.170	0.003
-275.413	134.408	-0.021	-0.027
-274.399	-200.000	-0.117	0.573
-273.384	-200.000	-0.037	-0.180
-272.370	-84.134	0.259	0.081
-271.355	38.508	0.097	0.085
-270.340	61.325	-0.271	0.266
-269.326	-200.000	-0.000	-0.156
-268.311	-72.501	-0.346	0.126
-267.297	-16.504	0.146	-0.091
-266.282	144.518	-0.030	0.040
-265.267	-76.521	0.188	0.065
-264.253	-63.946	-0.163	-0.066
-263.238	-154.204	-0.216	0.014
-262.224	84.687	0.232	-0.251
-261.209	74.946	-0.205	-0.213
-260.195	-137.831	0.334	0.037
-259.180	-46.911	0.186	0.090
-258.165	-83.368	-0.103	0.033
-257.151	-159.921	0.127	0.007
-256.136	-75.855	-0.085	0.030
-255.122	800.000	0.050	0.169
-254.107	203.925	-0.112	0.170
-253.092	-28.973	0.050	-0.028
-252.078	-88.559	0.049	0.014
-251.063	800.000	-0.072	0.212
-250.049	-200.000	-0.018	0.368
-249.034	-200.000	0.019	0.319
-248.019	109.239	0.118	-0.139
-247.005	-81.039	-0.067	0.022
-245.990	-125.739	0.032	0.005
-244.976	-120.020	0.314	0.053
-243.961	172.467	-0.131	-0.186
-242.946	210.359	-0.131	0.203
-241.932	-66.833	-0.541	0.211
-240.917	-200.000	-0.067	0.401
-239.903	-130.220	0.115	0.015
-238.888	-200.000	-0.001	-0.274
-237.873	800.000	0.035	-0.142
-236.859	-25.947	-0.085	-0.049
-235.844	-200.000	0.027	-0.195
-234.830	800.000	-0.051	-0.186
-233.815	147.746	0.033	-0.044
-232.800	52.935	-0.223	-0.211
-231.786	-200.000	-0.004	0.038
-230.771	-94.699	-0.160	0.043
-229.757	-87.956	0.094	-0.028
-228.742	-127.241	0.176	0.025
-227.727	-53.900	-0.144	-0.065
-226.713	-172.005	0.372	0.012
-225.698	-200.000	0.022	-0.331
-224.684	-31.065	-0.323	-0.180
-223.669	393.902	-0.200	-0.411
-222.655	-12.455	0.196	-0.127
-221.640	800.000	-0.019	0.082
-220.625	-200.000	0.014	0.144
-219.611	-26.813	0.126	-0.073
-218.596	-20.389	-0.260	0.158
-217.582	-62.756	-0.150	0.061
-216.567	-81.555	-0.224	-0.073
-215.552	6.105	0.317	0.232
-214.538	290.064	0.044	0.079
-213.523	38.266	0.128	-0.112
-212.509	-200.000	0.021	0.189
-211.494	-55.490	-0.421	0.186
-210.479	82.364	0.032	-0.035
-209.465	38.611	0.264	0.232
-208.450	203.549	0.108	0.165
-207.436	90.079	0.262	0.289
-206.421	-2.843	-0.112	0.077
-205.406	-39.710	0.178	0.092
-204.392	133.226	-0.186	0.237
-203.377	108.400	-0.186	0.218
-202.363	2.960	0.238	-0.170
-201.348	-18.391	-0.128	-0.079
-200.333	304.030	-0.165	0.301
-199.319	123.864	0.090	-0.111
-198.304	-104.646	0.265	-0.060
-197.290	-161.975	0.130	-0.006
-196.275	-68.712	-0.436	0.166
-195.260	38.494	0.099	0.087
-194.246	105.018	0.158	-0.183
-193.231	52.815	-0.136	-0.128
-192.217	357.633	0.040	-0.079
-191.202	-200.000	-0.018	0.113
-190.187	-17.400	0.139	-0.086
-189.173	184.963	0.057	0.083
-188.158	324.616	-0.206	-0.388
-187.144	-137.478	0.252	0.028
-186.129	-15.974	-0.215	0.135
-185.114	-94.847	-0.237	0.063
-184.100	-200.000	0.029	-0.185
-183.085	-113.194	-0.389	0.075
-182.071	-200.000	-0.007	0.201
-181.056	-114.964	-0.153	-0.029
-180.042	-200.000	-0.019	0.111
-179.027	207.922	0.175	0.270
-178.012	-200.000	-0.015	0.334
-176.998	-35.421	0.099	-0.053
-175.983	-37.791	0.318	0.166
-174.969	-4.938	0.197	-0.134
-173.954	97.997	-0.135	-0.153
-172.939	146.661	-0.110	-0.146
-171.925	-99.311	-0.083	0.021
-170.910	-64.071	0.089	0.036
-169.896	33.664	-0.155	-0.132
-168.881	800.000	0.122	-0.408
-167.866	365.434	-0.066	-0.131
-166.852	-200.000	0.057	0.426
-165.837	800.000	-0.095	0.392
-164.823	5.036	0.244	-0.176
-163.808	278.356	0.072	0.126
-162.793	-33.517	0.339	0.184
-161.779	-99.065	0.051	0.013
-160.764	-106.046	-0.131	0.029
-159.750	-139.061	0.398	0.042
-158.735	77.328	0.196	-0.205
-157.720	-200.000	-0.011	0.213
-156.706	-96.735	0.476	0.123
-155.691	156.607	0.133	0.181
-154.677	-152.756	0.413	-0.029
-153.662	34.251	0.187	-0.160
-152.647	31.003	-0.255	0.215
-151.633	800.000	0.018	-0.050
-150.618	102.511	0.055	-0.064
-149.604	-14.865	-0.186	-0.117
-148.589	-200.000	0.016	-0.266
-147.574	-200.000	0.025	-0.380
-146.560	228.181	0.130	-0.209
-145.545	-81.847	0.101	0.032
-144.531	-29.863	-0.064	-0.036
-143.516	-65.367	0.156	-0.062
-142.502	-64.584	0.484	-0.193
-141.487	597.447	-0.017	-0.042
-140.472	-28.911	0.156	0.088
-139.458	800.000	-0.122	0.332
-138.443	-173.706	0.079	0.002
-137.429	-24.354	-0.200	-0.117
-136.414	214.018	-0.092	-0.143
-135.399	17.768	0.205	0.160
-134.385	-7.479	0.052	-0.035
-133.370	-200.000	0.005	0.297
-132.356	56.674	0.276	-0.264
-131.341	97.972	-0.452	0.511
-130.326	36.079	-0.187	0.162
-129.312	302.158	0.182	-0.331
-128.297	-102.949	-0.288	0.067
-127.283	58.475	0.225	0.217
-126.268	403.799	0.115	-0.237
-125.253	-103.959	-0.389	-0.089
-124.239	800.000	0.110	-0.395
-123.224	-11.519	-0.096	-0.062
-122.210	610.715	0.189	0.465
-121.195	140.945	-0.125	-0.162
-120.180	32.076	0.043	0.037
-119.166	800.000	-0.013	-0.044
-118.151	133.198	0.087	-0.111
-117.137	192.629	0.079	-0.117
-116.122	-200.000	0.016	0.194
-115.107	-84.782	-0.109	0.034
-114.093	152.958	0.043	0.058
-113.078	800.000	0.067	0.241
-112.064	-106.415	0.361	-0.079
-111.049	43.763	0.079	0.071
-110.034	241.310	0.200	0.329
-109.020	800.000	0.071	0.274
-108.005	-200.000	-0.009	-0.061
-106.991	34.212	-0.183	0.156
-105.976	-99.942	0.038	0.009
-104.962	-200.000	-0.045	-0.223
-103.947	-200.000	-0.005	-0.153
-102.932	419.727	-0.097	0.205
-101.918	-71.397	0.236	0.087
-100.903	-124.803	-0.127	-0.019
-99.889	800.000	0.038	0.130
-98.874	800.000	-0.122	0.368
-97.859	30.236	0.205	0.172
-96.845	-10.890	0.308	-0.199
-95.830	-113.363	0.292	-0.056
-94.816	-200.000	-0.005	0.142
-93.801	-200.000	-0.004	-0.056
-92.786	152.109	0.106	-0.142
-91.772	44.732	0.131	-0.118
-90.757	451.613	-0.112	0.243
-89.743	-200.000	0.008	0.179
-88.728	91.044	-0.193	-0.212
-87.713	116.451	-0.229	-0.276
-86.699	14.927	-0.218	0.167
-85.684	239.994	0.106	-0.173
-84.670	-200.000	-0.040	-0.405
-83.655	38.630	-0.041	-0.036
-82.640	100.137	-0.091	0.103
-81.626	8.059	-0.074	-0.055
-80.611	-200.000	0.023	-0.168
-79.597	707.524	0.148	-0.384
-78.582	-45.394	-0.152	0.074
-77.567	-163.188	-0.178	-0.008
-76.553	402.307	-0.071	-0.147
-75.538	73.162	0.119	0.122
-74.524	-13.447	0.064	-0.040
-73.509	-108.624	0.274	0.058
-72.494	211.112	-0.095	0.146
-71.480	4.572	-0.315	0.226
-70.465	267.314	-0.162	0.278
-69.451	-8.753	0.154	-0.102
-68.436	140.094	-0.012	0.016
-67.422	119.285	0.215	0.261
-66.407	-68.414	-0.082	0.031
-65.392	-1.722	0.308	0.213
-64.378	800.000	-0.097	-0.321
-63.363	-164.913	0.263	0.012
-62.349	522.960	0.077	0.176
-61.334	174.209	-0.795	-1.126
-60.319	416.063	0.251	0.524
-59.305	-200.000	-0.164	-1.030
-58.290	601.704	0.574	1.398
-57.276	723.318	0.726	1.895
-56.261	-200.000	114.040	652.866
-55.246	474.537	1508.884	3335.445
-54.232	147.357	2672.003	3524.182
-53.217	104.468	2151.818	2481.998
-52.203	38.914	1601.174	1401.309
-51.188	30.880	1347.604	1130.812
-50.173	27.954	1310.044	1081.954
-49.159	56.109	1365.667	1298.533
-48.144	54.215	1380.828	1301.498
-47.130	31.039	1336.166	1121.998
-46.115	27.624	1318.486	1086.789
-45.100	27.389	1313.784	1081.472
-44.086	27.340	1310.900	1078.764
-43.071	27.269	1309.056	1076.786
-42.057	27.259	1306.954	1074.958
-41.042	27.410	1305.731	1074.801
-40.027	27.399	1303.485	1072.845
-39.013	27.379	1301.707	1071.219
-37.998	27.497	1299.579	1070.116
-36.984	27.478	1297.503	1068.256
-35.969	27.487	1296.027	1067.052
-34.954	27.501	1294.824	1066.102
-33.940	27.483	1293.522	1064.881
-32.925	27.618	1291.925	1064.314
-31.911	27.642	1290.019	1062.840
-30.896	27.588	1288.900	1061.559
-29.881	27.568	1287.771	1060.469
-28.867	27.679	1285.959	1059.581
-27.852	27.690	1284.390	1058.309
-26.838	27.567	1283.581	1056.889
-25.823	27.562	1281.843	1055.390
-24.809	27.495	1281.273	1054.489
-23.794	27.524	1279.685	1053.306
-22.779	27.493	1278.392	1052.020
-21.765	27.534	1277.123	1051.174
-20.750	27.604	1275.350	1050.077
-19.736	27.529	1274.150	1048.616
-18.721	27.527	1272.997	1047.614
-17.706	27.504	1272.177	1046.761
-16.692	27.473	1271.294	1045.816
-15.677	27.563	1269.705	1044.982
-14.663	27.487	1268.648	1043.640
-13.648	27.369	1268.027	1042.409
-12.633	27.637	1266.205	1042.406
-11.619	27.447	1266.019	1041.122
-10.604	27.548	1264.762	1040.626
-9.590	27.436	1263.569	1038.964
-8.575	27.453	1262.890	1038.459
-7.560	27.528	1261.536	1037.731
-6.546	27.496	1261.284	1037.299
-5.531	27.376	1259.959	1035.486
-4.517	27.509	1259.306	1035.664
-3.502	27.522	1258.671	1035.174
-2.487	27.462	1257.731	1034.021
-1.473	27.438	1253.362	1030.251
-0.458	25.836	1238.545	1009.066
0.556	20.959	1221.913	971.657
1.571	17.254	1228.612	956.095
2.586	16.504	1243.897	963.629
3.600	16.650	1232.754	955.736
4.615	15.285	1166.044	896.640
5.629	12.302	1100.090	830.781
6.644	10.751	1083.246	810.254
7.659	10.715	1080.960	808.292
8.673	10.626	1079.879	806.971
9.688	10.659	1078.414	805.970
10.702	10.865	1076.333	805.366
11.717	12.493	1077.866	814.511
12.731	15.582	1081.585	832.579
13.746	17.532	1084.012	844.048
14.761	17.535	1083.199	843.358
15.775	16.659	1081.001	837.239
16.790	15.614	1079.379	830.748
17.804	14.796	1078.005	825.575
18.819	14.352	1076.753	822.349
19.834	14.247	1075.558	820.848
20.848	13.833	1075.010	818.318
21.863	13.707	1074.208	817.010
22.877	13.528	1073.083	815.205
23.892	13.484	1072.496	814.468
24.907	13.569	1071.440	814.014
25.921	13.617	1070.519	813.477
26.936	13.626	1069.378	812.583
27.950	13.756	1067.986	812.088
28.965	13.683	1066.542	810.564
29.980	13.771	1064.996	809.746
30.994	13.868	1063.903	809.314
32.009	13.836	1062.547	808.054
33.023	13.901	1061.258	807.321
34.038	13.737	1060.982	806.240
35.053	13.818	1060.028	805.836
36.067	13.694	1058.800	804.232
37.082	13.724	1058.150	803.812
38.096	13.719	1057.466	803.199
39.111	13.731	1056.741	802.632
40.126	13.622	1055.775	801.305
41.140	13.440	1054.362	799.279
42.155	13.477	1053.303	798.585
43.169	13.415	1051.990	797.220
44.184	13.412	1051.245	796.572
45.199	13.463	1049.757	795.617
46.213	13.506	1049.119	795.271
47.228	13.654	1047.657	794.803
48.242	13.536	1046.659	793.412
49.257	13.653	1045.505	793.026
50.271	13.751	1044.726	792.831
51.286	13.649	1044.107	791.803
52.301	13.560	1043.640	790.957
53.315	13.466	1042.526	789.592
54.330	13.545	1041.106	788.823
55.344	13.618	1040.151	788.375
56.359	13.503	1039.796	787.492
57.374	13.586	1038.599	786.911
58.388	13.546	1037.794	786.043
59.403	13.533	1036.871	785.210
60.417	13.467	1036.289	784.386
61.432	13.553	1035.426	784.074
62.447	13.430	1034.571	782.773
63.461	13.344	1033.936	781.815
64.476	13.434	1032.585	781.150
65.490	13.484	1031.919	780.816
66.505	13.401	1031.416	779.975
67.520	13.477	1030.461	779.540
68.534	13.538	1029.592	779.101
69.549	13.466	1028.607	777.949
70.563	13.581	1027.877	777.869
71.578	13.341	1027.402	776.312
72.593	13.417	1026.613	776.005
73.607	13.340	1026.038	775.140
74.622	13.206	1025.509	774.044
75.636	13.432	1024.569	774.324
76.651	13.397	1023.808	773.516
77.666	13.351	1023.018	772.638
78.680	13.322	1023.070	772.473
79.695	13.545	1021.732	772.435
80.709	13.384	1021.263	771.258
81.724	13.560	1020.294	771.279
82.739	13.573	1019.881	770.959
83.753	13.713	1019.189	771.017
84.768	13.745	1018.257	770.392
85.782	13.747	1017.497	769.761
86.797	13.684	1016.919	768.962
87.812	13.624	1015.552	767.584
88.826	13.716	1014.499	767.146
89.841	13.736	1013.598	766.489
90.855	13.815	1013.048	766.369
91.870	13.782	1012.326	765.605
92.884	13.789	1011.427	764.888
93.899	13.913	1010.101	764.390
94.914	13.851	1009.787	763.798
95.928	13.856	1008.858	763.048
96.943	13.800	1007.829	761.949
97.957	13.776	1007.111	761.229
98.972	13.747	1006.062	760.235
99.987	13.765	1005.125	759.539
101.001	13.788	1004.292	758.947
102.016	13.771	1003.532	758.231
103.030	13.852	1002.451	757.717
104.045	13.768	1002.021	756.940
105.060	13.747	1000.871	755.912
106.074	13.645	999.709	754.502
107.089	13.701	998.598	753.850
108.103	13.593	997.875	752.749
109.118	13.591	996.639	751.737
110.133	13.571	995.930	751.047
111.147	13.528	995.134	750.183
112.162	13.516	994.858	749.856
113.176	13.631	993.366	749.185
114.191	13.689	992.690	748.870
115.206	13.690	991.971	748.266
116.220	13.592	991.129	747.122
117.235	13.561	990.214	746.227
118.249	13.619	989.297	745.734
119.264	13.628	988.432	745.057
120.279	13.631	987.571	744.352
121.293	13.499	986.909	743.196
122.308	13.432	986.064	742.192
123.322	13.510	984.902	741.602
124.337	13.525	983.797	740.772
125.352	13.617	982.980	740.502
126.366	13.464	981.744	738.822
127.381	13.580	980.660	738.461
128.395	13.613	979.753	737.856
129.410	13.697	978.643	737.332
130.424	13.667	978.185	736.786
131.439	13.578	977.695	735.955
132.454	13.619	976.999	735.550
133.468	13.687	975.845	734.915
134.483	13.606	975.100	733.933
135.497	13.565	974.653	733.349
136.512	13.729	972.878	732.675
137.527	13.611	972.619	731.892
138.541	13.759	971.560	731.686
139.556	13.733	971.215	731.246
140.570	13.779	970.168	730.594
141.585	13.867	969.754	730.606
142.600	13.907	968.837	730.026
143.614	13.946	968.121	729.591
144.629	13.858	967.384	728.588
145.643	13.867	966.175	727.653
146.658	13.813	965.546	726.878
147.673	13.758	964.476	725.768
148.687	13.884	963.392	725.436
149.702	13.778	962.590	724.305
150.716	13.676	962.023	723.369
151.731	13.830	961.032	723.233
152.746	13.787	960.551	722.621
153.760	13.792	960.159	722.281
154.775	13.889	959.373	722.050
155.789	13.955	958.653	721.731
156.804	13.926	957.997	721.046
157.819	14.137	956.858	721.040
158.833	14.032	956.543	720.282
159.848	14.091	955.981	720.051
160.862	13.965	955.125	718.800
161.877	13.947	953.889	717.727
162.892	13.887	953.450	717.075
163.906	13.924	951.853	715.969
164.921	13.950	951.119	715.467
165.935	13.887	950.499	714.664
166.950	13.940	949.794	714.300
167.964	13.992	948.365	713.385
168.979	13.943	947.868	712.737
169.994	13.954	946.736	711.872
171.008	14.053	946.262	711.875
172.023	14.042	945.568	711.243
173.037	14.169	944.494	710.913
174.052	14.037	944.334	710.170
175.067	13.903	943.292	708.748
176.081	13.993	942.496	708.473
177.096	13.973	942.435	708.277
178.110	13.977	941.571	707.583
179.125	13.979	941.108	707.180
180.140	14.150	940.214	707.174
181.154	14.059	940.120	706.654
182.169	14.111	939.706	706.502
183.183	14.088	939.348	706.072
184.198	14.259	938.091	705.791
185.213	14.211	937.270	704.908
186.227	14.157	937.134	704.512
187.242	14.243	936.415	704.273
188.256	14.499	935.330	704.476
189.271	14.322	934.830	703.290
190.286	14.111	933.998	701.713
191.300	14.096	932.813	700.696
192.315	13.802	933.126	699.631
193.329	13.974	932.163	699.573
194.344	14.139	931.568	699.757
195.359	14.291	930.526	699.553
196.373	14.320	930.158	699.335
197.388	14.339	930.154	699.348
198.402	14.419	929.533	699.158
199.417	14.320	928.709	698.062
200.432	14.506	927.853	698.135
201.446	14.620	927.779	698.495
202.461	14.612	927.310	698.046
203.475	14.609	926.534	697.386
204.490	14.444	925.913	696.166
205.504	14.404	925.024	695.271
206.519	14.403	924.465	694.786
207.534	14.448	923.704	694.340
208.548	14.596	922.703	694.142
209.563	14.406	922.417	693.076
210.577	14.432	921.808	692.665
211.592	14.631	920.760	692.642
212.607	14.670	920.064	692.216
213.621	14.520	919.600	691.186
214.636	14.548	918.865	690.687
215.650	14.542	918.053	689.992
216.665	14.773	917.214	690.252
217.680	14.670	916.821	689.471
218.694	14.767	916.075	689.250
219.709	14.769	915.081	688.451
220.723	14.698	914.881	687.947
221.738	14.763	913.887	687.403
222.753	14.798	913.578	687.254
223.767	14.886	912.522	686.764
224.782	14.880	912.517	686.673
225.796	14.786	911.906	685.766
226.811	14.811	911.237	685.305
227.826	14.862	910.257	684.717
228.840	14.785	909.308	683.626
229.855	14.801	908.689	683.168
230.869	14.696	908.388	682.449
231.884	14.761	907.403	681.917
232.899	14.774	906.969	681.583
233.913	14.813	906.133	681.052
234.928	14.615	905.561	679.755
235.942	14.877	904.500	679.964
236.957	14.884	904.356	679.825
237.972	14.753	903.297	678.438
238.986	14.755	903.088	678.226
240.001	14.703	902.731	677.687
241.015	14.820	901.872	677.459
242.030	14.804	901.392	676.973
243.045	14.840	900.826	676.635
244.059	14.769	900.057	675.708
245.074	14.982	899.316	675.954
246.088	14.948	898.390	675.060
247.103	15.126	897.814	675.285
248.117	15.159	897.505	675.127
249.132	15.058	897.216	674.442
250.147	15.177	896.628	674.422
251.161	15.307	895.839	674.291
252.176	15.282	895.056	673.542
253.190	15.276	894.373	672.942
254.205	15.319	893.460	672.368
255.220	15.411	893.040	672.361
256.234	15.405	892.466	671.846
257.249	15.256	892.226	671.010
258.263	15.279	891.135	670.223
259.278	15.291	890.850	669.998
260.293	15.431	889.764	669.681
261.307	15.536	889.363	669.738
262.322	15.502	888.425	668.834
263.336	15.638	887.799	668.848
264.351	15.550	887.109	667.916
265.366	15.538	886.523	667.368
266.380	15.619	885.937	667.191
267.395	15.627	885.154	666.574
268.409	15.560	884.408	665.688
269.424	15.505	883.711	664.886
270.439	15.484	882.843	664.091
271.453	15.511	882.410	663.813
272.468	15.463	881.797	663.102
273.482	15.469	881.397	662.768
274.497	15.578	880.747	662.651
275.512	15.574	880.052	662.052
276.526	15.538	879.693	661.585
277.541	15.548	879.318	661.283
278.555	15.698	878.194	660.968
279.570	15.714	878.101	660.904
280.585	15.612	877.131	659.712
281.599	15.866	876.060	659.846
282.614	15.609	875.710	658.515
283.628	15.761	874.684	658.282
284.643	15.796	874.237	658.025
285.657	15.766	873.655	657.409
286.672	15.717	873.072	656.723
287.687	15.775	872.511	656.469
288.701	15.922	871.915	656.535
289.716	15.839	871.386	655.754
290.730	15.749	871.182	655.192
291.745	15.878	870.142	654.855
292.760	15.934	869.672	654.659
293.774	15.968	868.886	654.145
294.789	15.937	868.024	653.314
295.803	15.855	867.487	652.536
296.818	15.833	866.992	652.021
297.833	15.981	866.170	651.916
298.847	15.938	865.679	651.322
299.862	15.995	865.454	651.316
300.876	16.108	864.771	651.183
301.891	16.096	864.171	650.625
302.906	15.969	863.656	649.690
303.920	16.053	863.273	649.669
304.935	16.172	862.766	649.689
305.949	16.148	861.991	648.957
306.964	16.223	860.905	648.367
307.979	16.192	860.605	647.965
308.993	16.216	860.286	647.760
310.008	16.252	859.389	647.166
311.022	16.169	859.061	646.545
312.037	16.233	858.260	646.130
313.052	16.099	857.642	645.094
314.066	16.029	857.580	644.722
315.081	16.161	856.567	644.408
316.095	16.176	856.066	644.032
317.110	16.092	855.387	643.143
318.125	16.185	854.833	643.026
319.139	16.108	854.981	642.786
320.154	16.266	853.963	642.566
321.168	16.101	853.551	641.569
322.183	16.270	853.147	641.854
323.197	16.282	852.717	641.517
324.212	16.276	851.928	640.845
325.227	16.199	851.186	639.935
326.241	16.243	850.592	639.600
327.256	16.164	850.437	639.130
328.270	16.266	849.589	638.820
329.285	16.278	849.208	638.523
330.300	16.153	848.539	637.489
331.314	16.419	847.649	637.771
332.329	16.385	847.767	637.672
333.343	16.442	847.043	637.286
334.358	16.385	846.395	636.528
335.373	16.517	846.272	636.877
336.387	16.449	846.031	636.385
337.402	16.518	845.754	636.379
338.416	16.596	845.172	636.180
339.431	16.660	844.901	636.159
340.446	16.621	844.453	635.619
341.460	16.631	843.957	635.227
342.475	16.678	843.352	634.890
343.489	16.706	843.142	634.780
344.504	16.745	842.492	634.383
345.519	16.872	842.198	634.581
346.533	16.618	841.829	633.295
347.548	16.587	840.931	632.447
348.562	16.740	840.270	632.465
349.577	16.687	839.919	631.947
350.592	16.626	839.052	631.013
351.606	16.722	838.405	630.830
352.621	16.910	837.271	630.619
353.635	16.793	837.190	630.065
354.650	16.658	836.973	629.346
355.665	16.689	835.938	628.628
356.679	16.874	835.140	628.658
357.694	16.714	835.019	627.917
358.708	16.691	834.128	627.106
359.723	16.878	833.343	627.153
360.738	16.881	832.865	626.749
361.752	16.835	832.244	626.056
362.767	16.699	832.142	625.422
363.781	16.907	831.095	625.345
364.796	17.164	830.905	626.095
365.810	17.033	830.353	625.143
366.825	17.144	830.069	625.282
367.840	17.146	829.664	624.926
368.854	16.910	829.226	623.674
369.869	17.066	829.003	624.025
370.883	17.177	828.206	623.779
371.898	17.137	828.078	623.479
372.913	17.127	827.668	623.078
373.927	17.025	827.247	622.331
374.942	17.203	826.295	622.214
375.956	17.278	826.105	622.290
376.971	17.281	825.718	621.955
377.986	17.441	825.114	622.030
379.000	17.367	824.718	621.404
380.015	17.311	824.370	620.884
381.029	17.381	823.944	620.763
382.044	17.268	823.125	619.677
383.059	17.332	822.712	619.546
384.073	17.233	821.907	618.525
385.088	17.277	821.544	618.358
386.102	17.170	821.111	617.586
387.117	17.152	820.776	617.217
388.132	17.295	819.727	616.889
389.146	17.324	819.507	616.777
390.161	17.274	819.003	616.159
391.175	17.511	818.161	616.332
392.190	17.347	817.744	615.370
393.205	17.239	817.283	614.575
394.219	17.364	816.746	614.570
395.234	17.424	816.316	614.410
396.248	17.450	815.557	613.878
397.263	17.293	815.581	613.276
398.278	17.439	815.023	613.325
399.292	17.418	814.413	612.738
400.307	17.362	814.009	612.180
401.321	17.492	813.761	612.407
402.336	17.458	813.197	611.805
403.350	17.384	812.883	611.249
404.365	17.422	812.632	611.142
405.380	17.611	811.991	611.282
406.394	17.557	811.683	610.803
407.409	17.678	811.285	610.886
408.423	17.694	810.851	610.561
409.438	17.706	810.318	610.150
410.453	17.699	809.801	609.679
411.467	17.820	809.337	609.711
412.482	17.696	809.571	609.387
413.496	17.808	808.750	609.117
414.511	17.806	808.429	608.812
415.526	17.765	807.618	608.004
416.540	17.961	806.945	608.139
417.555	17.888	806.684	607.630
418.569	17.882	806.770	607.620
419.584	17.808	805.947	606.684
420.599	17.929	805.022	606.364
421.613	111.429	1295.162	1476.423
422.628	96.120	1366.523	1476.500
