DTS Sentinel unit serial number:	SN413079Multiplexer serial number:	ORYXHardware model number:	OX4-SRSoftware version number:	ORYX F/W v4.00 Oryx Data Collector v3.7.2.0data status	okinstallation	princeton_trtdifferential loss correction	single-endedforward channel	channel 1reverse channel	N/Adate	2019/09/10time	18:16:11forward acquisition time	60.00reverse acquisition time	0.00gamma	496.2192k internal	0.2304k external	0.2304temperature offset calibration	0.9930default loss term (dB/km)	0.3790temperature slope calibration	1.0000multiplexer offset coefficient	1.0000multiplexer slope coefficient	1.0000fibre end	0.00T internal ref (°C)	36.50T ext. ref 1 (°C)	-0.33T ext. ref 2 (°C)	28.48length (m)	temperature (°C)	Stokes	anti-Stokes-747.200	334.793	0.104	-0.205
-746.185	399.728	-0.100	-0.213
-745.171	-94.670	-0.327	0.090
-744.156	24.642	0.097	0.081
-743.142	-31.054	0.220	0.126
-742.127	73.812	0.244	0.260
-741.112	-200.000	0.003	-0.029
-740.098	-144.031	-0.079	0.008
-739.083	800.000	-0.029	0.099
-738.069	-20.070	0.140	0.088
-737.054	-150.200	0.247	-0.020
-736.039	-155.991	-0.257	0.017
-735.025	-45.110	0.251	0.127
-734.010	-200.000	0.014	0.079
-732.996	601.551	0.202	-0.510
-731.981	-110.705	-0.126	-0.027
-730.966	16.822	-0.251	0.202
-729.952	-24.075	-0.231	-0.141
-728.937	-134.563	-0.192	0.024
-727.923	-129.925	-0.286	-0.040
-726.908	145.505	0.052	-0.071
-725.894	-200.000	0.008	0.074
-724.879	-200.000	-0.027	0.417
-723.864	27.736	-0.124	0.107
-722.850	800.000	-0.024	0.074
-721.835	-61.105	0.111	0.047
-720.821	-56.145	0.277	0.126
-719.806	155.597	-0.099	-0.139
-718.791	194.268	-0.167	0.257
-717.777	800.000	0.061	-0.223
-716.762	232.647	-0.068	0.114
-715.748	91.535	-0.237	-0.271
-714.733	-38.228	-0.142	-0.077
-713.718	-110.563	-0.187	0.039
-712.704	-135.287	-0.050	-0.006
-711.689	-200.000	0.004	-0.230
-710.675	74.179	0.095	0.101
-709.660	-200.000	-0.050	0.374
-708.645	-83.176	-0.070	0.023
-707.631	-127.653	-0.370	0.054
-706.616	-200.000	-0.001	0.055
-705.602	283.889	0.043	-0.079
-704.587	800.000	-0.087	0.346
-703.572	-144.489	-0.457	-0.043
-702.558	-148.270	-0.322	0.027
-701.543	34.071	-0.263	-0.233
-700.529	-59.898	0.123	0.053
-699.514	-200.000	-0.030	-0.170
-698.499	-114.632	-0.198	0.039
-697.485	-200.000	-0.030	0.148
-696.470	-37.420	0.180	-0.098
-695.456	306.999	-0.164	-0.310
-694.441	-100.804	-0.175	-0.044
-693.426	141.143	-0.154	-0.207
-692.412	73.231	0.102	-0.108
-691.397	-200.000	0.030	-0.282
-690.383	-200.000	-0.004	0.170
-689.368	-59.896	0.182	0.079
-688.354	-127.605	-0.255	-0.037
-687.339	-27.785	-0.326	0.192
-686.324	-200.000	0.015	-0.193
-685.310	800.000	0.060	-0.179
-684.295	251.560	-0.227	-0.392
-683.281	39.583	0.205	-0.186
-682.266	425.851	-0.048	-0.105
-681.251	-57.632	-0.143	0.064
-680.237	-24.607	-0.078	-0.047
-679.222	-152.381	-0.077	0.006
-678.208	15.617	-0.179	0.143
-677.193	-104.220	-0.468	0.110
-676.178	77.403	0.185	0.200
-675.164	-54.706	0.190	0.087
-674.149	-115.546	0.381	0.073
-673.135	6.961	-0.280	-0.212
-672.120	470.735	0.071	-0.161
-671.105	-121.888	-0.249	-0.042
-670.091	-200.000	0.004	-0.182
-669.076	800.000	0.111	-0.495
-668.062	12.893	0.039	0.031
-667.047	-59.311	-0.173	-0.075
-666.032	-71.027	-0.295	-0.113
-665.018	135.387	-0.099	-0.130
-664.003	-172.935	-0.168	0.005
-662.989	669.972	-0.018	0.047
-661.974	71.642	0.262	-0.276
-660.959	-118.729	-0.052	0.009
-659.945	19.221	0.079	-0.064
-658.930	19.655	-0.196	-0.160
-657.916	-50.814	0.134	0.064
-656.901	-134.318	0.201	-0.025
-655.886	-36.640	0.382	-0.209
-654.872	-42.588	0.314	-0.162
-653.857	97.299	0.234	-0.272
-652.843	102.696	-0.148	0.176
-651.828	-17.909	0.199	0.127
-650.814	526.977	-0.114	-0.274
-649.799	34.190	-0.071	0.063
-648.784	800.000	-0.106	0.303
-647.770	-48.751	-0.307	-0.150
-646.755	-0.772	0.281	0.202
-645.741	-51.102	-0.255	0.121
-644.726	-200.000	0.011	0.221
-643.711	-17.123	0.272	0.174
-642.697	445.684	0.041	-0.092
-641.682	50.411	0.061	-0.058
-640.668	65.635	0.108	0.111
-639.653	-5.405	0.374	0.260
-638.638	69.638	-0.220	-0.229
-637.624	800.000	0.033	-0.113
-636.609	-200.000	-0.064	-0.330
-635.595	-200.000	-0.014	0.217
-634.580	3.237	-0.321	0.237
-633.565	-200.000	-0.013	0.219
-632.551	66.646	0.071	-0.073
-631.536	-35.115	0.226	-0.125
-630.522	173.658	0.314	-0.459
-629.507	29.234	0.046	0.040
-628.492	-151.770	0.287	-0.021
-627.478	-97.323	-0.217	-0.057
-626.463	-50.193	-0.331	-0.159
-625.449	39.700	-0.164	0.149
-624.434	219.277	-0.133	-0.215
-623.419	800.000	-0.047	-0.189
-622.405	231.342	-0.101	0.168
-621.390	-16.481	0.370	0.238
-620.376	800.000	0.109	-0.320
-619.361	293.889	-0.059	0.108
-618.346	-37.460	0.222	-0.120
-617.332	-97.684	-0.091	0.024
-616.317	-78.584	0.297	-0.103
-615.303	151.957	-0.254	-0.350
-614.288	23.325	-0.087	-0.072
-613.273	-75.023	-0.098	-0.036
-612.259	-47.767	-0.016	0.008
-611.244	-144.220	0.422	0.040
-610.230	150.850	0.077	0.106
-609.215	-200.000	0.002	0.216
-608.201	800.000	0.122	-0.364
-607.186	800.000	0.070	0.200
-606.171	-200.000	-0.011	-0.076
-605.157	-11.586	-0.369	0.246
-604.142	745.771	-0.087	-0.238
-603.128	21.087	0.048	-0.040
-602.113	-95.725	0.309	-0.084
-601.098	685.996	-0.037	0.098
-600.084	63.545	0.246	-0.250
-599.069	-51.173	-0.086	0.041
-598.055	-126.040	-0.174	-0.026
-597.040	-200.000	0.016	0.077
-596.025	22.344	0.323	-0.267
-595.011	267.915	0.060	-0.107
-593.996	-105.648	-0.166	-0.038
-592.982	267.024	-0.043	0.075
-591.967	123.388	0.120	-0.153
-590.952	-56.985	0.216	-0.097
-589.938	800.000	0.010	0.037
-588.923	-200.000	0.014	-0.080
-587.909	-81.804	-0.227	0.075
-586.894	110.740	0.072	-0.088
-585.879	1.687	-0.097	-0.071
-584.865	-108.005	0.242	-0.053
-583.850	399.721	-0.105	-0.223
-582.836	458.464	0.156	0.351
-581.821	159.682	-0.126	-0.178
-580.806	178.769	-0.134	-0.198
-579.792	54.460	-0.187	-0.182
-578.777	-200.000	-0.031	-0.420
-577.763	-62.379	0.194	-0.082
-576.748	412.566	0.017	-0.036
-575.733	-5.851	0.371	0.257
-574.719	405.155	-0.095	-0.203
-573.704	800.000	0.094	-0.405
-572.690	-200.000	-0.015	-0.107
-571.675	12.249	-0.127	0.099
-570.661	800.000	0.044	-0.142
-569.646	-91.560	0.177	0.051
-568.631	-102.676	0.083	-0.020
-567.617	-200.000	-0.018	-0.222
-566.602	465.119	0.067	-0.152
-565.588	-117.958	0.162	0.029
-564.573	23.217	0.174	0.144
-563.558	-9.641	0.224	-0.151
-562.544	317.251	-0.304	-0.582
-561.529	463.231	0.077	-0.174
-560.515	80.394	0.158	-0.172
-559.500	-200.000	0.015	0.133
-558.485	800.000	0.071	-0.233
-557.471	335.510	-0.032	0.064
-556.456	226.931	0.118	-0.194
-555.442	166.019	-0.209	0.299
-554.427	-191.470	0.300	0.003
-553.412	157.961	0.129	0.181
-552.398	259.524	-0.053	-0.092
-551.383	169.859	-0.036	0.052
-550.369	-30.700	-0.382	0.219
-549.354	138.324	-0.056	0.074
-548.339	150.731	-0.266	-0.366
-547.325	-18.189	0.282	-0.178
-546.310	-63.214	0.170	-0.071
-545.296	-200.000	-0.036	-0.286
-544.281	-200.000	-0.003	-0.099
-543.266	42.005	0.336	-0.308
-542.252	-2.495	-0.357	-0.252
-541.237	-200.000	-0.058	0.427
-540.223	-172.678	0.241	-0.008
-539.208	-150.297	-0.036	0.003
-538.193	-118.072	-0.179	-0.032
-537.179	-200.000	0.047	-0.408
-536.164	-200.000	-0.007	0.082
-535.150	800.000	-0.042	0.147
-534.135	6.372	-0.188	0.141
-533.121	232.184	-0.103	-0.170
-532.106	231.354	-0.150	0.248
-531.091	233.272	-0.166	0.275
-530.077	12.518	-0.092	-0.071
-529.062	-20.114	-0.270	0.168
-528.048	159.944	-0.164	-0.230
-527.033	422.786	0.087	-0.189
-526.018	-200.000	0.021	0.097
-525.004	32.416	-0.225	0.196
-523.989	-103.858	-0.249	0.059
-522.975	36.186	0.154	-0.137
-521.960	-26.900	-0.044	-0.026
-520.945	-200.000	-0.036	0.172
-519.931	132.668	-0.111	-0.144
-518.916	-93.434	-0.105	-0.029
-517.902	61.469	0.205	-0.205
-516.887	62.927	0.113	0.114
-515.872	-26.841	0.040	0.023
-514.858	-99.518	-0.427	-0.108
-513.843	15.025	-0.241	0.190
-512.829	-50.036	-0.262	-0.125
-511.814	134.361	0.228	0.298
-510.799	800.000	0.071	0.248
-509.785	90.725	-0.203	-0.230
-508.770	-99.177	-0.119	-0.030
-507.756	-17.915	-0.270	0.171
-506.741	-200.000	0.032	0.164
-505.726	800.000	0.050	0.159
-504.712	-23.862	-0.093	0.056
-503.697	-200.000	0.003	-0.076
-502.683	-95.912	0.266	-0.072
-501.668	1.387	-0.085	0.062
-500.653	-96.513	-0.330	-0.088
-499.639	-128.541	-0.348	-0.050
-498.624	-200.000	-0.009	-0.207
-497.610	33.366	0.067	-0.058
-496.595	271.262	0.021	0.037
-495.581	800.000	-0.061	0.236
-494.566	182.699	-0.154	0.230
-493.551	265.997	0.018	0.031
-492.537	800.000	-0.093	0.301
-491.522	-95.287	-0.460	-0.125
-490.508	-5.555	0.266	-0.184
-489.493	800.000	-0.085	0.362
-488.478	-106.960	-0.137	-0.031
-487.464	-200.000	0.004	0.180
-486.449	-21.206	-0.283	0.175
-485.435	-52.463	0.121	0.056
-484.420	800.000	0.108	0.350
-483.405	91.739	0.043	0.048
-482.391	167.698	-0.222	0.318
-481.376	-90.413	0.175	0.051
-480.362	-200.000	-0.040	0.217
-479.347	-169.194	0.185	-0.007
-478.332	800.000	0.026	-0.102
-477.318	-5.988	0.239	-0.165
-476.303	-14.493	-0.042	-0.027
-475.289	-25.607	-0.218	0.130
-474.274	303.013	0.169	0.315
-473.259	-127.169	0.561	-0.083
-472.245	800.000	-0.028	0.104
-471.230	461.611	-0.051	-0.115
-470.216	294.476	0.174	0.320
-469.201	-73.517	0.325	-0.120
-468.186	-102.335	0.073	0.018
-467.172	-109.300	-0.132	0.028
-466.157	-53.352	0.119	0.055
-465.143	15.513	0.185	0.146
-464.128	288.378	0.225	-0.410
-463.113	702.279	0.091	-0.242
-462.099	-200.000	-0.003	-0.051
-461.084	-81.729	-0.145	0.048
-460.070	-114.975	-0.243	-0.047
-459.055	-200.000	0.041	0.263
-458.040	259.780	0.095	0.164
-457.026	-22.183	-0.353	0.215
-456.011	21.782	0.079	0.065
-454.997	-68.384	0.310	0.121
-453.982	-200.000	0.019	0.167
-452.968	-56.218	-0.356	-0.159
-451.953	-51.550	-0.209	-0.098
-450.938	-200.000	-0.035	0.340
-449.924	800.000	-0.139	0.461
-448.909	345.765	0.067	0.133
-447.895	-78.132	0.087	0.030
-446.880	-115.633	0.076	-0.014
-445.865	-156.599	-0.100	-0.006
-444.851	109.670	0.078	-0.094
-443.836	161.333	-0.117	0.164
-442.822	502.239	-0.125	0.290
-441.807	-200.000	-0.001	-0.127
-440.792	-178.044	0.196	0.005
-439.778	241.255	-0.087	-0.146
-438.763	-70.123	0.279	-0.107
-437.749	-92.096	0.065	-0.018
-436.734	-147.669	0.229	-0.019
-435.719	-107.320	0.135	-0.030
-434.705	253.508	0.062	-0.106
-433.690	-28.074	0.092	-0.054
-432.676	-200.000	-0.050	0.442
-431.661	-200.000	-0.003	-0.030
-430.646	0.836	-0.287	-0.207
-429.632	-200.000	-0.028	-0.343
-428.617	173.250	0.105	-0.153
-427.603	-121.293	-0.339	-0.057
-426.588	-200.000	0.059	-0.275
-425.573	-64.602	0.347	0.142
-424.559	73.689	-0.256	-0.270
-423.544	-68.731	-0.427	0.166
-422.530	-15.705	0.217	-0.139
-421.515	800.000	-0.031	-0.094
-420.500	800.000	0.101	0.318
-419.486	86.132	-0.104	-0.115
-418.471	-44.417	0.249	0.126
-417.457	-118.463	0.522	0.093
-416.442	800.000	-0.067	-0.224
-415.428	-86.289	-0.209	-0.065
-414.413	437.043	0.109	0.238
-413.398	-97.007	0.098	-0.026
-412.384	-88.511	0.135	-0.041
-411.369	800.000	-0.112	-0.317
-410.355	166.496	0.129	0.184
-409.340	-200.000	-0.017	-0.192
-408.325	-104.037	0.144	-0.034
-407.311	233.868	-0.247	0.408
-406.296	-143.400	-0.110	-0.011
-405.282	-165.327	-0.383	0.017
-404.267	131.106	-0.148	-0.191
-403.252	-103.191	-0.362	-0.086
-402.238	391.873	-0.054	-0.113
-401.223	136.767	0.090	0.118
-400.209	-74.590	-0.100	0.036
-399.194	40.230	0.263	-0.238
-398.179	135.599	0.033	0.043
-397.165	1.361	0.142	0.102
-396.150	800.000	0.049	0.140
-395.136	-72.266	-0.140	0.052
-394.121	-200.000	0.007	0.240
-393.106	-137.597	-0.173	0.020
-392.092	-64.051	-0.069	0.028
-391.077	-63.376	0.124	0.051
-390.063	-111.621	0.483	-0.098
-389.048	800.000	-0.017	-0.061
-388.033	173.793	0.058	0.084
-387.019	-129.851	-0.190	-0.026
-386.004	-21.290	0.215	0.132
-384.990	800.000	0.075	-0.306
-383.975	-18.645	-0.127	-0.080
-382.960	602.077	-0.049	-0.122
-381.946	799.835	-0.054	-0.148
-380.931	-124.197	0.552	-0.087
-379.917	-103.390	0.327	0.077
-378.902	-97.216	-0.249	0.065
-377.888	-136.350	-0.169	-0.020
-376.873	70.887	0.070	0.073
-375.858	598.007	0.046	-0.113
-374.844	-200.000	-0.027	0.178
-373.829	-77.243	-0.096	0.034
-372.815	9.756	0.105	0.080
-371.800	-102.525	-0.422	-0.101
-370.785	-153.450	0.183	0.013
-369.771	-200.000	0.018	-0.115
-368.756	800.000	-0.092	0.399
-367.742	-200.000	0.012	0.371
-366.727	-154.181	0.197	-0.013
-365.712	-200.000	-0.025	-0.215
-364.698	225.568	-0.100	-0.163
-363.683	437.408	0.150	-0.329
-362.669	-200.000	0.004	0.328
-361.654	-124.952	0.301	0.047
-360.639	-96.680	-0.284	0.075
-359.625	112.921	-0.071	-0.087
-358.610	-153.372	-0.115	-0.008
-357.596	-129.598	-0.271	0.037
-356.581	191.480	-0.188	0.284
-355.566	404.926	-0.213	0.449
-354.552	800.000	0.079	-0.259
-353.537	367.344	0.089	-0.181
-352.523	-170.404	-0.174	-0.006
-351.508	-26.121	0.072	0.043
-350.493	69.675	0.093	-0.096
-349.479	48.809	-0.081	-0.076
-348.464	41.448	0.197	-0.179
-347.450	272.700	-0.121	-0.215
-346.435	13.455	0.189	0.147
-345.420	404.055	-0.091	0.192
-344.406	800.000	0.012	0.049
-343.391	-112.781	-0.173	0.035
-342.377	67.756	0.180	0.185
-341.362	-200.000	0.034	0.222
-340.348	-96.937	0.313	-0.082
-339.333	-200.000	-0.017	0.253
-338.318	-38.616	0.212	0.112
-337.304	141.719	0.105	-0.139
-336.289	800.000	0.007	-0.031
-335.275	-38.508	-0.208	0.110
-334.260	-58.894	-0.119	-0.051
-333.245	800.000	-0.101	-0.416
-332.231	-41.942	0.143	0.073
-331.216	-200.000	-0.006	0.061
-330.202	-200.000	0.008	0.268
-329.187	18.318	-0.101	-0.081
-328.172	-173.789	0.105	-0.003
-327.158	38.471	0.236	-0.210
-326.143	422.703	0.025	-0.054
-325.129	800.000	0.072	-0.296
-324.114	-127.846	0.331	0.048
-323.099	613.200	0.058	-0.144
-322.085	-200.000	0.002	-0.187
-321.070	-141.344	-0.221	0.023
-320.056	-200.000	-0.022	-0.121
-319.041	18.453	0.333	0.267
-318.026	123.255	0.125	-0.156
-317.012	-62.260	-0.201	-0.084
-315.997	-147.977	-0.419	0.035
-314.983	-200.000	-0.025	-0.214
-313.968	14.035	0.143	-0.112
-312.953	113.209	-0.077	-0.093
-311.939	23.571	-0.183	-0.151
-310.924	305.811	0.064	-0.120
-309.910	-68.295	-0.434	-0.169
-308.895	-200.000	-0.005	-0.152
-307.880	120.777	0.106	-0.132
-306.866	32.332	0.140	-0.121
-305.851	-200.000	0.019	-0.183
-304.837	81.055	-0.125	0.135
-303.822	275.496	0.267	0.474
-302.807	46.280	-0.314	0.291
-301.793	-101.272	0.206	-0.050
-300.778	619.010	-0.106	0.266
-299.764	-200.000	-0.006	0.028
-298.749	-23.504	-0.066	-0.040
-297.735	-200.000	-0.062	-0.358
-296.720	-99.423	-0.159	0.040
-295.705	-200.000	-0.066	-0.292
-294.691	-84.623	-0.238	-0.075
-293.676	-75.634	-0.182	-0.065
-292.662	160.088	0.089	-0.123
-291.647	163.360	-0.119	0.168
-290.632	-200.000	0.013	-0.130
-289.618	-121.611	-0.185	0.031
-288.603	800.000	0.044	0.146
-287.589	-200.000	0.008	0.132
-286.574	31.855	0.015	0.013
-285.559	-200.000	0.035	-0.208
-284.545	-85.605	-0.250	-0.078
-283.530	-200.000	0.003	-0.090
-282.516	259.141	-0.086	-0.148
-281.501	-75.303	0.333	0.119
-280.486	456.193	-0.106	0.235
-279.472	-56.934	0.105	-0.046
-278.457	31.724	0.186	0.160
-277.443	800.000	-0.056	-0.209
-276.428	28.820	0.196	-0.166
-275.413	12.216	0.232	0.178
-274.399	119.432	0.044	0.054
-273.384	-52.037	-0.318	-0.148
-272.370	170.453	-0.158	-0.226
-271.355	-200.000	0.055	0.282
-270.340	-38.935	-0.135	-0.071
-269.326	-109.030	-0.199	0.042
-268.311	-195.525	-0.231	-0.002
-267.297	800.000	0.099	0.307
-266.282	-200.000	0.016	0.190
-265.267	-37.794	0.395	-0.210
-264.253	-200.000	-0.012	-0.188
-263.238	85.257	-0.085	-0.093
-262.224	-26.220	0.172	0.101
-261.209	-200.000	0.007	0.242
-260.195	-9.873	0.181	0.121
-259.180	-35.622	0.133	-0.072
-258.165	800.000	0.027	-0.077
-257.151	26.045	0.063	-0.053
-256.136	-200.000	0.059	-0.296
-255.122	-200.000	0.000	-0.037
-254.107	-200.000	0.005	-0.112
-253.092	-200.000	-0.033	-0.198
-252.078	-148.463	0.315	0.026
-251.063	-160.415	-0.061	0.003
-250.049	133.852	0.138	-0.179
-249.034	40.100	0.312	-0.280
-248.019	800.000	-0.056	0.201
-247.005	11.182	-0.119	0.091
-245.990	84.228	-0.100	0.109
-244.976	-200.000	0.005	0.056
-243.961	-200.000	0.010	0.067
-242.946	219.523	-0.059	0.094
-241.932	72.305	0.197	0.205
-240.917	-200.000	0.007	-0.143
-239.903	306.640	0.125	-0.233
-238.888	-29.724	0.158	-0.090
-237.873	-200.000	0.005	0.201
-236.859	-200.000	-0.014	-0.066
-235.844	226.539	-0.060	0.097
-234.830	71.739	-0.218	0.226
-233.815	-172.740	0.222	0.007
-232.800	39.728	-0.130	0.117
-231.786	473.362	0.162	0.364
-230.771	-103.330	-0.282	0.066
-229.757	204.547	-0.242	0.375
-228.742	176.010	-0.077	0.112
-227.727	-200.000	0.006	0.138
-226.713	-82.889	-0.429	0.138
-225.698	-200.000	0.018	0.251
-224.684	71.330	0.213	0.221
-223.669	-61.287	-0.080	-0.034
-222.655	-27.591	-0.077	-0.045
-221.640	45.262	0.360	-0.331
-220.625	-78.593	-0.167	-0.057
-219.611	274.426	-0.039	-0.070
-218.596	-17.539	-0.099	0.062
-217.582	546.666	0.125	0.298
-216.567	133.380	0.257	-0.331
-215.552	32.661	-0.308	0.266
-214.538	-187.625	0.214	-0.003
-213.523	191.040	-0.076	-0.114
-212.509	625.729	0.029	-0.074
-211.494	10.031	-0.137	0.104
-210.479	-200.000	-0.053	-0.382
-209.465	166.233	0.140	-0.198
-208.450	368.908	0.212	0.428
-207.436	103.831	-0.099	0.116
-206.421	-57.914	-0.069	0.030
-205.406	-139.036	-0.384	-0.041
-204.392	751.870	-0.063	-0.171
-203.377	-85.636	0.297	0.092
-202.363	-76.086	-0.075	-0.026
-201.348	-46.270	0.231	-0.113
-200.333	-200.000	-0.023	0.195
-199.319	-200.000	0.028	-0.158
-198.304	-200.000	0.006	0.102
-197.290	-164.602	0.106	-0.005
-196.275	192.457	0.195	0.293
-195.260	-106.823	0.196	-0.043
-194.246	501.359	-0.063	0.144
-193.231	-124.633	-0.100	0.016
-192.217	23.035	-0.180	0.147
-191.202	392.160	-0.106	-0.220
-190.187	-132.596	-0.216	0.028
-189.173	117.840	-0.178	0.218
-188.158	-25.617	0.284	0.167
-187.144	-200.000	0.000	0.124
-186.129	-155.003	0.125	0.008
-185.114	209.781	-0.083	-0.129
-184.100	-79.737	0.237	0.080
-183.085	-12.578	0.042	-0.028
-182.071	648.050	-0.017	0.043
-181.056	-3.765	-0.157	-0.109
-180.042	-91.242	-0.280	0.080
-179.027	445.335	-0.070	-0.154
-178.012	163.894	-0.119	-0.167
-176.998	-147.277	0.294	0.025
-175.983	39.496	0.247	-0.220
-174.969	28.675	0.247	0.208
-173.954	-82.538	0.096	-0.031
-172.939	166.776	0.242	0.342
-171.925	-200.000	0.003	-0.031
-170.910	640.672	0.011	0.028
-169.896	-26.670	-0.274	-0.160
-168.881	-46.121	-0.406	-0.199
-167.866	108.287	-0.149	0.177
-166.852	-60.713	-0.135	0.057
-165.837	-94.823	0.170	-0.046
-164.823	-200.000	-0.011	-0.296
-163.808	-17.102	-0.039	-0.025
-162.793	26.353	-0.235	-0.196
-161.779	-200.000	0.048	0.496
-160.764	-68.349	0.208	-0.080
-159.750	800.000	-0.118	0.499
-158.735	-6.998	0.053	-0.036
-157.720	-193.189	-0.052	-0.000
-156.706	-200.000	0.016	-0.075
-155.691	129.133	0.110	-0.140
-154.677	-46.658	0.137	0.067
-153.662	800.000	-0.071	0.197
-152.647	-200.000	0.008	0.122
-151.633	43.095	-0.079	-0.071
-150.618	800.000	-0.066	-0.258
-149.604	-82.766	-0.322	-0.103
-148.589	211.666	0.083	0.131
-147.574	-60.622	-0.321	-0.136
-146.560	-112.542	0.264	-0.052
-145.545	-14.484	-0.162	-0.104
-144.531	-115.392	0.223	-0.042
-143.516	-200.000	-0.006	0.290
-142.502	51.250	0.277	0.262
-141.487	-200.000	-0.064	-0.288
-140.472	-200.000	0.042	-0.229
-139.458	-200.000	0.035	0.196
-138.443	-173.596	0.400	-0.012
-137.429	168.616	-0.077	0.108
-136.414	0.008	0.186	-0.132
-135.399	608.807	0.110	-0.273
-134.385	-8.770	-0.085	0.057
-133.370	-138.359	-0.181	-0.020
-132.356	-92.273	-0.104	0.029
-131.341	-200.000	-0.003	-0.152
-130.326	-98.984	-0.201	-0.051
-129.312	144.860	0.167	0.222
-128.297	797.596	0.064	0.175
-127.283	-19.811	0.104	0.064
-126.268	0.572	0.130	0.092
-125.253	-200.000	-0.076	-0.356
-124.239	177.166	0.089	0.128
-123.224	-12.475	0.107	-0.069
-122.210	-200.000	0.100	0.507
-121.195	440.843	0.217	0.471
-120.180	-200.000	-0.010	0.055
-119.166	6.119	-0.092	-0.068
-118.151	-200.000	-0.002	-0.105
-117.137	132.533	0.180	-0.231
-116.122	-6.751	0.160	-0.108
-115.107	48.299	0.085	0.079
-114.093	-64.557	-0.227	-0.092
-113.078	800.000	-0.118	-0.344
-112.064	800.000	-0.066	-0.280
-111.049	21.323	0.142	-0.114
-110.034	-135.391	0.151	0.018
-109.020	179.942	-0.155	-0.225
-108.005	800.000	-0.125	0.348
-106.991	-43.967	0.211	-0.105
-105.976	-103.324	-0.208	0.049
-104.962	214.804	0.031	0.050
-103.947	551.427	-0.026	-0.063
-102.932	-123.097	0.386	-0.061
-101.918	74.346	-0.105	-0.109
-100.903	-33.221	-0.314	-0.172
-99.889	55.484	-0.173	0.166
-98.874	-200.000	0.002	0.300
-97.859	-70.445	-0.062	-0.023
-96.845	317.238	-0.108	-0.203
-95.830	20.271	0.088	0.071
-94.816	-200.000	-0.015	-0.152
-93.801	419.191	-0.063	-0.134
-92.786	52.337	-0.254	0.241
-91.772	113.268	0.117	0.140
-90.757	-124.153	0.257	-0.040
-89.743	-122.489	-0.257	-0.041
-88.728	-71.863	-0.216	-0.080
-87.713	112.180	0.130	-0.156
-86.699	-200.000	0.015	-0.393
-85.684	92.299	-0.189	-0.211
-84.670	103.999	0.239	0.278
-83.655	-10.136	0.179	0.118
-82.640	-79.089	-0.084	-0.028
-81.626	28.451	0.212	0.177
-80.611	766.659	0.053	-0.142
-79.597	-200.000	-0.011	-0.131
-78.582	-200.000	0.012	-0.089
-77.567	429.188	0.069	-0.147
-76.553	147.415	-0.118	-0.158
-75.538	-153.650	-0.083	-0.006
-74.524	-200.000	-0.033	-0.193
-73.509	-200.000	0.003	0.049
-72.494	-68.817	-0.170	-0.065
-71.480	-73.569	-0.105	0.038
-70.465	-13.893	-0.382	0.245
-69.451	19.662	-0.327	0.261
-68.436	38.268	0.116	-0.102
-67.422	-104.005	-0.277	0.064
-66.407	-72.400	0.225	0.083
-65.392	337.146	0.213	-0.411
-64.378	-45.008	-0.169	-0.084
-63.363	-187.130	-0.059	-0.001
-62.349	239.753	-0.112	0.184
-61.334	-3.296	-1.123	-0.776
-60.319	0.507	0.449	0.318
-59.305	800.000	-0.300	-0.942
-58.290	-200.000	0.126	0.900
-57.276	800.000	0.449	1.538
-56.261	-200.000	92.347	509.669
-55.246	550.834	1377.064	3274.964
-54.232	182.198	2625.647	3834.742
-53.217	117.921	2218.017	2708.068
-52.203	47.538	1665.382	1539.027
-51.188	39.925	1395.517	1241.965
-50.173	36.644	1351.429	1182.657
-49.159	56.077	1398.247	1344.915
-48.144	60.505	1416.969	1390.400
-47.130	40.247	1371.638	1222.506
-46.115	36.605	1354.021	1184.500
-45.100	36.424	1349.053	1179.004
-44.086	36.303	1347.137	1176.542
-43.071	36.306	1344.178	1173.930
-42.057	36.155	1342.585	1171.574
-41.042	36.261	1340.935	1170.734
-40.027	36.434	1338.724	1169.804
-39.013	36.402	1336.852	1167.927
-37.998	36.469	1334.644	1166.356
-36.984	36.453	1333.085	1164.850
-35.969	36.510	1331.386	1163.663
-34.954	36.569	1329.771	1162.562
-33.940	36.452	1328.271	1160.501
-32.925	36.574	1326.404	1159.557
-31.911	36.612	1325.106	1158.601
-30.896	36.594	1323.765	1157.279
-29.881	36.661	1322.268	1156.324
-28.867	36.638	1320.808	1154.860
-27.852	36.618	1319.149	1153.249
-26.838	36.712	1317.300	1152.143
-25.823	36.465	1316.783	1150.178
-24.809	36.654	1314.852	1149.565
-23.794	36.546	1313.457	1147.659
-22.779	36.649	1312.037	1146.986
-21.765	36.615	1311.086	1145.909
-20.750	36.528	1309.779	1144.204
-19.736	36.483	1308.018	1142.353
-18.721	36.405	1307.115	1141.063
-17.706	36.477	1305.372	1139.916
-16.692	36.509	1304.605	1139.390
-15.677	36.451	1303.309	1137.873
-14.663	36.381	1302.509	1136.717
-13.648	36.403	1301.051	1135.532
-12.633	36.421	1299.985	1134.656
-11.619	36.388	1299.399	1133.908
-10.604	36.376	1298.758	1133.234
-9.590	36.519	1297.128	1132.605
-8.575	36.366	1296.445	1131.067
-7.560	36.476	1295.612	1130.939
-6.546	36.454	1294.412	1129.716
-5.531	36.418	1294.090	1129.181
-4.517	36.396	1292.712	1127.810
-3.502	36.444	1292.060	1127.476
-2.487	36.453	1290.613	1126.216
-1.473	36.398	1286.511	1122.273
-0.458	34.516	1270.440	1097.396
0.556	27.776	1249.557	1049.988
1.571	23.287	1253.382	1027.136
2.586	22.216	1268.385	1033.052
3.600	21.660	1257.811	1021.107
4.615	15.659	1183.883	927.976
5.629	4.980	1102.827	809.185
6.644	0.052	1079.760	767.099
7.659	-0.416	1077.172	762.813
8.673	-0.508	1075.935	761.399
9.688	-0.446	1074.624	760.724
10.702	-0.165	1072.978	760.912
11.717	5.726	1081.654	797.022
12.731	14.707	1094.859	852.727
13.746	17.682	1098.006	870.317
14.761	16.998	1096.558	865.604
15.775	16.937	1095.523	864.401
16.790	16.469	1094.844	861.405
17.804	16.405	1094.210	860.500
18.819	16.534	1093.306	860.374
19.834	16.529	1092.744	859.830
20.848	16.495	1092.052	859.036
21.863	16.454	1091.715	858.486
22.877	16.366	1091.054	857.441
23.892	16.323	1090.331	856.582
24.907	16.424	1089.635	856.470
25.921	16.516	1088.360	855.856
26.936	16.580	1086.759	854.848
27.950	16.437	1085.321	852.916
28.965	16.273	1083.045	850.228
29.980	16.331	1081.296	849.074
30.994	16.474	1080.749	849.287
32.009	16.451	1078.870	847.621
33.023	16.336	1076.974	845.480
34.038	16.440	1076.685	845.696
35.053	16.619	1075.917	845.915
36.067	16.487	1074.911	844.390
37.082	16.675	1073.884	844.446
38.096	16.729	1073.198	844.101
39.111	16.832	1071.993	843.589
40.126	16.605	1070.810	841.456
41.140	16.403	1068.940	838.911
42.155	16.223	1067.938	837.155
43.169	16.418	1066.473	836.897
44.184	16.319	1065.737	835.759
45.199	16.306	1064.266	834.467
46.213	16.244	1062.819	832.949
47.228	16.175	1062.297	832.129
48.242	16.289	1060.716	831.380
49.257	16.401	1060.044	831.329
50.271	16.447	1058.892	830.577
51.286	16.382	1058.025	829.504
52.301	16.326	1057.453	828.709
53.315	16.363	1056.274	827.894
54.330	16.444	1054.751	827.020
55.344	16.532	1054.152	826.910
56.359	16.535	1052.954	825.911
57.374	16.269	1052.163	823.919
58.388	16.437	1051.117	823.844
59.403	16.466	1050.377	823.337
60.417	16.233	1049.444	821.398
61.432	16.377	1048.971	821.656
62.447	16.404	1047.917	820.886
63.461	16.345	1047.064	819.862
64.476	16.302	1046.184	818.891
65.490	16.382	1045.130	818.381
66.505	16.469	1044.285	818.068
67.520	16.414	1043.506	817.119
68.534	16.422	1041.881	815.814
69.549	16.144	1041.192	813.859
70.563	16.202	1040.555	813.569
71.578	16.151	1040.109	812.903
72.593	16.138	1038.929	811.845
73.607	16.169	1038.414	811.522
74.622	16.362	1037.953	812.017
75.636	16.382	1037.058	811.340
76.651	16.213	1036.212	809.797
77.666	16.179	1035.627	809.106
78.680	16.290	1034.748	808.878
79.695	16.321	1034.176	808.507
80.709	16.280	1033.515	807.725
81.724	16.307	1032.282	806.817
82.739	16.413	1031.194	806.402
83.753	16.598	1030.830	806.930
84.768	16.625	1029.563	805.991
85.782	16.678	1028.370	805.241
86.797	16.442	1027.909	803.685
87.812	16.604	1026.382	803.189
88.826	16.681	1025.138	802.510
89.841	16.699	1024.135	801.740
90.855	16.482	1023.979	800.517
91.870	16.754	1022.270	800.396
92.884	16.547	1021.710	798.910
93.899	16.440	1020.591	797.459
94.914	16.606	1019.526	797.337
95.928	16.710	1018.357	796.847
96.943	16.390	1017.408	794.526
97.957	16.192	1016.384	792.726
98.972	16.009	1014.854	790.607
99.987	16.290	1014.337	791.450
101.001	16.405	1013.286	791.100
102.016	16.519	1012.507	790.954
103.030	16.375	1011.629	789.522
104.045	16.017	1010.790	787.126
105.060	16.047	1009.331	786.063
106.074	16.259	1008.760	786.536
107.089	16.606	1008.217	787.660
108.103	16.622	1007.114	786.802
109.118	16.335	1006.042	784.562
110.133	16.500	1004.875	784.349
111.147	16.354	1003.711	782.693
112.162	16.265	1002.457	781.233
113.176	16.296	1002.166	781.082
114.191	16.377	1000.567	780.138
115.206	16.152	999.430	778.148
116.220	16.072	998.931	777.320
117.235	16.318	997.734	777.452
118.249	16.292	996.706	776.463
119.264	16.170	996.358	775.564
120.279	16.350	995.529	775.674
121.293	16.311	994.290	774.461
122.308	16.359	993.534	774.028
123.322	16.265	992.504	772.723
124.337	16.188	991.289	771.360
125.352	15.857	989.317	768.247
126.366	15.831	987.622	766.744
127.381	16.275	987.652	768.719
128.395	16.601	986.845	769.508
129.410	16.620	985.726	768.652
130.424	16.691	984.419	767.887
131.439	16.545	983.700	766.597
132.454	16.442	983.097	765.594
133.468	16.391	982.607	764.911
134.483	16.651	981.268	764.978
135.497	16.903	980.268	765.268
136.512	16.766	979.437	763.935
137.527	16.852	978.373	763.425
138.541	16.737	977.679	762.295
139.556	16.822	976.794	761.922
140.570	16.766	975.934	760.933
141.585	16.789	974.419	759.787
142.600	16.741	973.428	758.732
143.614	16.860	972.710	758.635
144.629	16.798	971.925	757.681
145.643	16.895	970.185	756.692
146.658	16.686	969.553	755.197
147.673	16.817	968.329	754.760
148.687	16.801	967.359	753.868
149.702	16.842	965.920	752.860
150.716	16.548	965.756	751.361
151.731	16.713	965.105	751.519
152.746	16.764	964.646	751.324
153.760	16.812	964.192	751.116
154.775	16.820	963.366	750.442
155.789	16.885	962.136	749.704
156.804	16.707	961.357	748.245
157.819	16.968	959.855	748.161
158.833	16.945	959.211	747.490
159.848	16.847	958.333	746.311
160.862	16.747	957.269	744.976
161.877	16.871	956.577	744.916
162.892	17.016	955.483	744.635
163.906	16.861	954.426	743.063
164.921	16.877	953.644	742.460
165.935	16.903	952.658	741.741
166.950	16.887	951.437	740.654
167.964	16.898	950.474	739.886
168.979	16.915	949.165	738.879
169.994	16.775	948.355	737.574
171.008	16.919	948.044	737.889
172.023	16.942	946.725	736.898
173.037	16.643	945.566	734.634
174.052	16.555	944.751	733.553
175.067	16.744	944.623	734.211
176.081	16.811	944.192	734.099
177.096	16.777	943.107	733.045
178.110	16.567	941.895	731.129
179.125	16.435	941.333	730.058
180.140	16.654	940.604	730.372
181.154	16.606	940.600	730.099
182.169	16.770	940.130	730.376
183.183	16.979	939.221	730.506
184.198	16.863	938.486	729.368
185.213	17.009	937.563	729.218
186.227	16.989	937.110	728.715
187.242	16.991	935.816	727.651
188.256	16.944	935.412	727.070
189.271	16.854	934.684	726.053
190.286	16.823	933.650	725.057
191.300	16.560	932.147	722.701
192.315	15.828	931.444	718.966
193.329	15.847	930.896	718.561
194.344	16.467	930.798	721.066
195.359	16.836	930.392	722.261
196.373	16.847	929.847	721.821
197.388	16.646	928.974	720.223
198.402	16.632	928.327	719.599
199.417	16.694	927.446	719.117
200.432	16.497	925.852	716.979
201.446	16.141	925.586	715.203
202.461	16.264	924.998	715.206
203.475	15.678	923.228	711.294
204.490	15.152	922.294	708.290
205.504	16.023	922.392	711.985
206.519	16.353	922.560	713.445
207.534	16.558	921.627	713.525
208.548	16.970	921.209	714.875
209.563	16.684	920.523	713.075
210.577	16.522	919.662	711.663
211.592	16.868	919.156	712.663
212.607	16.858	918.186	711.805
213.621	16.845	917.999	711.544
214.636	16.933	916.915	711.007
215.650	16.842	916.266	710.063
216.665	17.070	915.127	710.070
217.680	16.919	914.588	708.958
218.694	16.584	912.913	706.199
219.709	16.476	912.523	705.385
220.723	16.764	912.505	706.508
221.738	16.943	911.420	706.352
222.753	16.951	910.622	705.706
223.767	16.925	910.486	705.428
224.782	16.962	909.996	705.142
225.796	17.079	909.150	704.907
226.811	16.666	907.501	701.856
227.826	15.977	907.025	698.571
228.840	16.300	906.016	699.068
229.855	16.195	905.599	698.249
230.869	16.066	904.338	696.683
231.884	16.506	903.645	697.905
232.899	16.973	904.115	700.130
233.913	17.044	902.954	699.462
234.928	17.015	902.518	698.943
235.942	17.085	902.058	698.815
236.957	16.941	900.762	697.157
237.972	16.717	900.363	695.868
238.986	16.944	899.880	696.364
240.001	16.825	899.149	695.249
241.015	16.947	897.774	694.623
242.030	16.929	897.530	694.300
243.045	17.159	897.295	694.995
244.059	17.205	896.639	694.616
245.074	16.876	895.828	692.582
246.088	16.590	894.457	690.293
247.103	16.786	893.990	690.671
248.117	17.003	894.443	691.843
249.132	17.144	893.349	691.512
250.147	17.150	892.500	690.818
251.161	17.463	891.424	691.198
252.176	17.433	890.643	690.407
253.190	17.524	890.168	690.346
254.205	17.571	889.824	690.207
255.220	17.635	889.263	689.973
256.234	17.619	888.318	689.114
257.249	17.389	887.277	687.317
258.263	17.445	886.932	687.213
259.278	17.591	886.019	687.036
260.293	17.473	885.461	686.066
261.307	17.611	884.376	685.719
262.322	17.204	883.529	683.364
263.336	16.568	881.569	679.237
264.351	15.792	879.793	674.699
265.366	15.924	879.315	674.798
266.380	16.813	879.964	678.802
267.395	17.176	879.864	680.118
268.409	17.194	878.810	679.314
269.424	17.472	878.651	680.242
270.439	17.578	877.594	679.786
271.453	17.585	877.135	679.401
272.468	17.607	876.841	679.197
273.482	17.649	876.111	678.740
274.497	17.188	875.190	676.133
275.512	17.083	873.839	674.610
276.526	17.407	873.676	675.715
277.541	17.502	873.366	675.790
278.555	17.172	871.951	673.327
279.570	17.144	871.266	672.631
280.585	17.221	870.758	672.482
281.599	17.322	870.045	672.272
282.614	16.855	868.976	669.541
283.628	16.888	868.487	669.237
284.643	17.250	867.798	670.072
285.657	16.889	866.386	667.505
286.672	16.600	865.882	665.916
287.687	17.008	865.684	667.313
288.701	17.163	865.202	667.491
289.716	16.856	864.196	665.451
290.730	16.728	863.621	664.447
291.745	16.412	862.775	662.500
292.760	16.688	862.670	663.442
293.774	17.574	862.422	666.660
294.789	17.950	861.987	667.735
295.803	18.010	861.535	667.562
296.818	18.089	860.810	667.249
297.833	17.754	859.560	664.914
298.847	17.572	859.080	663.775
299.862	17.861	858.475	664.375
300.876	17.908	858.383	664.426
301.891	17.755	857.501	663.089
302.906	17.224	856.510	660.202
303.920	17.464	855.748	660.490
304.935	17.664	855.473	660.993
305.949	17.842	854.577	660.933
306.964	17.693	854.093	659.922
307.979	17.769	853.961	660.058
308.993	18.045	853.586	660.776
310.008	17.906	853.223	659.900
311.022	17.890	851.844	658.714
312.037	17.681	851.474	657.561
313.052	17.563	850.802	656.532
314.066	17.045	849.555	653.515
315.081	16.677	848.522	651.247
316.095	17.473	848.624	654.330
317.110	17.889	848.396	655.693
318.125	17.292	847.183	652.408
319.139	16.548	846.232	648.766
320.154	16.541	845.786	648.341
321.168	17.165	845.660	650.576
322.183	17.701	845.604	652.529
323.197	17.747	845.102	652.259
324.212	17.877	844.518	652.247
325.227	17.970	844.077	652.203
326.241	17.974	843.054	651.372
327.256	17.859	842.619	650.537
328.270	17.896	841.931	650.091
329.285	17.642	841.572	648.789
330.300	17.526	840.756	647.660
331.314	17.624	840.452	647.744
332.329	17.843	839.892	648.087
333.343	18.029	839.446	648.388
334.358	18.016	838.645	647.663
335.373	18.154	838.495	648.016
336.387	18.382	838.473	648.803
337.402	18.100	838.368	647.597
338.416	17.983	837.770	646.634
339.431	18.153	837.279	646.843
340.446	18.186	837.010	646.700
341.460	18.226	836.050	646.055
342.475	18.017	835.470	644.759
343.489	18.005	835.080	644.355
344.504	18.437	834.875	645.769
345.519	18.248	834.741	644.895
346.533	18.462	834.260	645.274
347.548	18.509	833.541	644.836
348.562	18.470	833.166	644.344
349.577	18.450	832.833	643.955
350.592	18.564	831.629	643.395
351.606	18.702	831.017	643.382
352.621	18.436	830.516	641.938
353.635	18.463	829.629	641.298
354.650	17.931	828.348	638.264
355.665	17.255	826.541	634.292
356.679	17.480	826.076	634.720
357.694	17.783	825.961	635.704
358.708	17.766	825.363	635.124
359.723	18.136	825.274	636.374
360.738	18.537	824.800	637.446
361.752	18.469	824.220	636.690
362.767	18.667	823.836	637.071
363.781	18.656	823.540	636.745
364.796	18.830	822.930	636.862
365.810	18.776	821.997	635.884
366.825	18.839	821.693	635.824
367.840	18.571	821.471	634.603
368.854	18.335	820.287	632.762
369.869	18.397	820.257	632.913
370.883	18.338	819.592	632.123
371.898	17.996	819.350	630.622
372.913	18.248	818.707	630.999
373.927	18.405	818.578	631.422
374.942	18.575	818.263	631.751
375.956	18.608	817.680	631.364
376.971	18.874	817.016	631.775
377.986	18.939	816.657	631.678
379.000	18.672	816.239	630.319
380.015	18.555	815.930	629.595
381.029	18.787	814.933	629.622
382.044	18.783	814.538	629.244
383.059	18.648	814.101	628.357
384.073	18.824	813.331	628.354
385.088	18.855	813.274	628.367
386.102	18.815	812.526	627.588
387.117	18.869	811.619	627.029
388.132	18.566	810.611	625.088
389.146	18.112	809.594	622.598
390.161	18.269	809.494	623.035
391.175	18.582	808.886	623.653
392.190	18.441	808.422	622.724
393.205	17.441	806.847	617.829
394.219	16.500	805.484	613.320
395.234	16.443	805.368	612.970
396.248	17.599	806.511	617.981
397.263	18.735	806.972	622.399
398.278	18.861	806.594	622.510
399.292	18.548	806.107	620.948
400.307	18.828	805.141	621.159
401.321	18.854	804.857	620.979
402.336	18.794	805.104	620.897
403.350	19.096	804.427	621.410
404.365	19.237	804.049	621.571
405.380	19.368	803.756	621.765
406.394	19.253	802.994	620.704
407.409	19.428	801.992	620.504
408.423	19.181	801.747	619.373
409.438	19.302	801.703	619.720
410.453	19.367	801.260	619.555
411.467	19.442	800.676	619.317
412.482	19.416	800.437	618.983
413.496	19.495	799.869	618.775
414.511	19.583	799.348	618.633
415.526	19.699	798.839	618.599
416.540	19.426	798.413	617.237
417.555	18.998	797.639	615.054
418.569	19.057	797.341	614.979
419.584	19.108	796.760	614.660
420.599	18.953	796.138	613.572
421.613	153.150	1358.968	1787.700
422.628	132.761	1440.988	1787.783
