DTS Sentinel unit serial number:	SN413079Multiplexer serial number:	ORYXHardware model number:	OX4-SRSoftware version number:	ORYX F/W v4.00 Oryx Data Collector v3.7.2.0data status	okinstallation	princeton_trtdifferential loss correction	single-endedforward channel	channel 1reverse channel	N/Adate	2019/09/16time	18:50:35forward acquisition time	60.00reverse acquisition time	0.00gamma	496.2192k internal	0.2308k external	0.2308temperature offset calibration	0.9946default loss term (dB/km)	0.3790temperature slope calibration	1.0000multiplexer offset coefficient	1.0000multiplexer slope coefficient	1.0000fibre end	0.00T internal ref (°C)	35.94T ext. ref 1 (°C)	0.07T ext. ref 2 (°C)	29.24length (m)	temperature (°C)	Stokes	anti-Stokes-747.200	-98.692	-0.263	-0.068
-746.185	476.003	0.199	0.457
-745.171	144.735	0.046	0.062
-744.156	33.819	-0.320	-0.283
-743.142	13.943	0.023	0.018
-742.127	-140.832	0.473	-0.050
-741.112	39.979	-0.107	-0.098
-740.098	-102.840	-0.153	-0.037
-739.083	35.341	-0.043	0.038
-738.069	109.128	0.059	-0.071
-737.054	531.342	-0.131	-0.316
-736.039	800.000	0.044	0.177
-735.025	482.482	0.070	0.162
-734.010	-200.000	0.005	0.098
-732.996	795.290	-0.028	0.077
-731.981	800.000	-0.046	-0.143
-730.966	768.925	0.082	-0.225
-729.952	192.846	-0.127	0.195
-728.937	800.000	-0.114	0.325
-727.923	-194.847	-0.221	-0.002
-726.908	-200.000	0.023	0.113
-725.894	-200.000	0.023	-0.234
-724.879	86.623	-0.133	-0.149
-723.864	324.663	-0.027	-0.053
-722.850	-72.687	-0.210	-0.079
-721.835	417.819	-0.090	0.196
-720.821	-68.452	0.230	0.090
-719.806	800.000	-0.052	-0.225
-718.791	-172.467	0.207	0.007
-717.777	-50.816	0.099	0.047
-716.762	-64.846	-0.245	-0.101
-715.748	-63.214	-0.150	0.063
-714.733	46.070	-0.188	-0.176
-713.718	800.000	-0.071	-0.253
-712.704	-28.992	0.262	0.153
-711.689	800.000	0.044	0.187
-710.675	-200.000	-0.011	-0.346
-709.660	44.171	-0.131	0.122
-708.645	64.487	-0.266	-0.272
-707.631	785.847	-0.061	0.169
-706.616	172.937	0.080	0.116
-705.602	726.107	-0.107	0.290
-704.587	-200.000	-0.005	-0.148
-703.572	-11.012	-0.210	0.141
-702.558	-78.550	0.142	0.049
-701.543	-200.000	-0.050	-0.525
-700.529	-200.000	-0.006	-0.413
-699.514	-200.000	-0.012	0.080
-698.499	623.719	-0.073	0.188
-697.485	800.000	0.025	0.071
-696.470	102.207	0.127	0.150
-695.456	-93.120	-0.260	0.073
-694.441	-200.000	0.036	-0.443
-693.426	337.754	-0.073	0.145
-692.412	800.000	-0.170	-0.661
-691.397	167.591	0.052	-0.076
-690.383	-200.000	0.006	0.166
-689.368	473.929	-0.090	-0.207
-688.354	-68.329	0.107	0.042
-687.339	160.345	-0.070	-0.099
-686.324	-125.708	-0.331	-0.051
-685.310	-67.411	-0.044	0.018
-684.295	-32.186	-0.417	0.236
-683.281	-56.405	0.020	0.009
-682.266	-200.000	0.005	0.075
-681.251	-97.036	0.126	0.033
-680.237	-200.000	-0.062	-0.428
-679.222	52.182	0.130	0.125
-678.208	-177.607	-0.272	-0.007
-677.193	800.000	-0.058	-0.222
-676.178	398.233	0.023	-0.048
-675.164	-53.248	-0.129	0.060
-674.149	-200.000	-0.005	-0.062
-673.135	-200.000	-0.026	0.233
-672.120	448.996	-0.080	-0.178
-671.105	-200.000	0.039	-0.335
-670.091	-200.000	-0.007	0.279
-669.076	800.000	-0.016	-0.057
-668.062	-200.000	-0.023	0.220
-667.047	-96.221	-0.084	-0.023
-666.032	309.325	0.050	0.095
-665.018	95.283	-0.317	-0.366
-664.003	111.859	0.044	-0.054
-662.989	323.356	-0.015	-0.030
-661.974	800.000	-0.054	-0.195
-660.959	162.849	-0.200	0.285
-659.945	-200.000	-0.015	0.299
-658.930	-0.888	0.100	-0.071
-657.916	255.172	-0.104	0.180
-656.901	-23.250	0.280	-0.171
-655.886	800.000	-0.036	-0.115
-654.872	800.000	-0.022	-0.092
-653.857	158.165	-0.040	0.056
-652.843	-99.688	0.472	-0.120
-651.828	-74.879	0.376	0.137
-650.814	-200.000	0.054	-0.349
-649.799	-200.000	0.010	0.097
-648.784	68.608	-0.268	0.278
-647.770	-118.128	-0.330	0.060
-646.755	-125.480	-0.168	-0.026
-645.741	-26.680	0.127	0.075
-644.726	-130.420	-0.180	0.025
-643.711	800.000	-0.032	-0.091
-642.697	-156.711	-0.377	-0.024
-641.682	-33.938	0.199	0.111
-640.668	-6.464	0.213	0.147
-639.653	63.278	-0.229	0.232
-638.638	-76.735	0.204	-0.072
-637.624	29.062	0.207	-0.178
-636.609	800.000	-0.013	0.042
-635.595	-85.021	0.145	0.046
-634.580	800.000	-0.060	-0.258
-633.565	132.328	-0.141	-0.184
-632.551	-153.985	-0.105	-0.007
-631.536	-163.389	-0.219	-0.011
-630.522	-128.825	-0.369	0.053
-629.507	511.464	0.064	-0.151
-628.492	205.643	-0.126	-0.198
-627.478	129.816	-0.138	-0.179
-626.463	-76.586	-0.069	0.025
-625.449	800.000	-0.048	-0.186
-624.434	-200.000	0.024	0.120
-623.419	800.000	0.102	-0.349
-622.405	-33.265	0.347	0.194
-621.390	23.367	0.091	0.075
-620.376	-154.430	-0.123	0.008
-619.361	-42.153	0.336	0.174
-618.346	-200.000	-0.006	0.292
-617.332	0.100	0.354	-0.255
-616.317	401.499	-0.145	0.307
-615.303	256.726	-0.099	0.172
-614.288	-200.000	0.007	0.134
-613.273	25.897	-0.321	0.270
-612.259	692.129	0.076	0.201
-611.244	800.000	0.041	0.118
-610.230	-200.000	0.001	0.019
-609.215	-86.472	-0.109	-0.034
-608.201	-74.249	0.074	0.027
-607.186	-34.839	-0.093	0.051
-606.171	-200.000	0.022	0.144
-605.157	-93.632	-0.201	-0.056
-604.142	-200.000	-0.038	-0.326
-603.128	-200.000	0.039	0.258
-602.113	-136.224	0.337	0.040
-601.098	-200.000	-0.030	0.247
-600.084	-200.000	0.018	0.107
-599.069	167.165	0.149	0.213
-598.055	-85.587	0.253	0.080
-597.040	-200.000	-0.014	0.369
-596.025	47.268	0.187	0.176
-595.011	-33.663	-0.236	0.132
-593.996	-200.000	-0.018	-0.148
-592.982	118.388	-0.188	0.234
-591.967	-200.000	-0.018	0.266
-590.952	800.000	-0.159	0.445
-589.938	23.029	0.177	-0.147
-588.923	-69.938	-0.370	0.143
-587.909	-18.728	-0.161	0.101
-586.894	-200.000	0.004	-0.091
-585.879	5.569	-0.239	-0.179
-584.865	-103.014	-0.062	-0.015
-583.850	-200.000	-0.002	0.216
-582.836	311.318	0.038	-0.072
-581.821	-87.844	-0.268	0.081
-580.806	253.434	0.104	0.179
-579.792	239.754	-0.095	0.160
-578.777	736.677	-0.112	-0.303
-577.763	-56.835	-0.132	0.059
-576.748	172.296	0.033	-0.048
-575.733	-200.000	0.032	-0.232
-574.719	-200.000	0.045	-0.386
-573.704	-57.817	0.084	-0.037
-572.690	-109.340	-0.314	0.067
-571.675	264.408	-0.032	-0.056
-570.661	-187.203	-0.333	0.005
-569.646	-200.000	0.022	0.123
-568.631	681.390	0.140	-0.368
-567.617	-12.502	-0.409	-0.270
-566.602	-164.778	0.163	0.007
-565.588	-200.000	-0.026	-0.161
-564.573	-18.162	0.228	0.144
-563.558	-200.000	-0.006	-0.166
-562.544	253.482	-0.118	0.204
-561.529	-76.142	-0.364	0.130
-560.515	87.984	-0.075	-0.084
-559.500	707.146	0.083	-0.222
-558.485	83.769	0.058	-0.064
-557.471	408.351	-0.103	-0.219
-556.456	-200.000	0.020	-0.209
-555.442	384.950	0.119	0.248
-554.427	209.001	0.037	0.058
-553.412	105.775	0.105	-0.125
-552.398	-200.000	-0.001	-0.232
-551.383	145.948	-0.250	-0.338
-550.369	-129.192	-0.122	0.017
-549.354	-122.094	-0.225	-0.037
-548.339	89.380	0.080	0.090
-547.325	82.618	0.099	0.108
-546.310	-200.000	-0.015	-0.283
-545.296	800.000	-0.077	-0.232
-544.281	-200.000	0.020	0.135
-543.266	800.000	-0.097	-0.288
-542.252	-115.382	-0.484	-0.092
-541.237	-47.751	0.140	-0.068
-540.223	-200.000	-0.008	-0.170
-539.208	800.000	-0.096	-0.348
-538.193	51.449	-0.176	-0.168
-537.179	130.295	-0.114	-0.148
-536.164	160.902	0.060	0.084
-535.150	-53.815	-0.090	-0.041
-534.135	45.965	0.236	-0.220
-533.121	471.533	0.203	-0.461
-532.106	-150.588	-0.262	0.020
-531.091	800.000	0.032	-0.127
-530.077	-200.000	-0.006	0.380
-529.062	640.072	0.036	0.092
-528.048	25.348	-0.254	-0.213
-527.033	-200.000	-0.001	0.240
-526.018	-200.000	0.061	0.411
-525.004	-157.549	-0.218	-0.013
-523.989	-131.055	-0.228	-0.031
-522.975	-200.000	0.045	0.215
-521.960	234.680	-0.043	-0.072
-520.945	434.376	0.096	0.209
-519.931	109.214	0.066	-0.079
-518.916	-200.000	-0.013	0.393
-517.902	-135.405	0.238	0.029
-516.887	-161.553	-0.135	0.007
-515.872	141.246	-0.195	0.259
-514.858	-80.347	0.141	0.047
-513.843	355.873	0.033	0.067
-512.829	392.130	0.135	0.283
-511.814	-126.089	-0.123	-0.019
-510.799	-96.536	0.257	-0.068
-509.785	419.165	0.031	0.066
-508.770	-99.468	-0.146	0.037
-507.756	-200.000	0.008	-0.179
-506.741	84.250	-0.111	-0.122
-505.726	150.630	0.141	-0.193
-504.712	-53.562	-0.109	0.050
-503.697	-118.656	-0.320	-0.057
-502.683	-107.184	0.300	-0.067
-501.668	-188.842	-0.304	-0.004
-500.653	-200.000	-0.010	0.194
-499.639	187.554	-0.122	-0.184
-498.624	-200.000	0.062	-0.448
-497.610	-200.000	0.006	-0.192
-496.595	134.088	0.130	-0.170
-495.581	-200.000	0.025	-0.125
-494.566	21.909	-0.066	0.054
-493.551	4.154	-0.323	-0.238
-492.537	229.698	-0.170	-0.279
-491.522	-28.058	-0.118	-0.069
-490.508	-200.000	-0.023	0.231
-489.493	-70.588	-0.317	-0.121
-488.478	-32.948	0.178	-0.099
-487.464	-120.260	0.040	0.007
-486.449	-164.877	0.162	0.007
-485.435	66.796	0.240	0.246
-484.420	294.758	-0.158	-0.292
-483.405	-69.394	-0.067	-0.026
-482.391	-62.898	-0.046	-0.019
-481.376	615.332	-0.048	0.120
-480.362	-122.920	0.167	-0.027
-479.347	-144.506	-0.234	0.022
-478.332	-24.910	0.260	0.155
-477.318	447.845	0.015	0.032
-476.303	22.553	0.184	0.151
-475.289	-200.000	0.082	-0.381
-474.274	448.253	-0.115	0.254
-473.259	800.000	0.127	-0.354
-472.245	-177.635	0.275	0.007
-471.230	258.086	0.108	0.187
-470.216	-200.000	0.053	0.278
-469.201	-104.999	-0.124	-0.029
-468.186	-112.573	-0.276	0.055
-467.172	132.173	0.142	-0.184
-466.157	800.000	0.031	0.135
-465.143	-17.665	0.224	0.142
-464.128	-45.102	0.184	0.092
-463.113	800.000	0.057	0.173
-462.099	-122.805	-0.177	0.029
-461.084	800.000	-0.085	0.248
-460.070	49.962	-0.148	-0.140
-459.055	198.147	-0.149	-0.229
-458.040	800.000	-0.082	-0.352
-457.026	-159.352	0.137	0.008
-456.011	-155.763	0.092	-0.006
-454.997	800.000	-0.057	0.204
-453.982	-108.715	-0.160	0.034
-452.968	-200.000	0.011	-0.184
-451.953	-200.000	0.001	0.425
-450.938	126.695	-0.109	0.138
-449.924	-102.667	-0.184	-0.044
-448.909	158.814	0.177	-0.247
-447.895	-125.642	-0.180	0.027
-446.880	1.838	-0.148	0.107
-445.865	28.012	-0.015	-0.013
-444.851	45.497	0.084	0.078
-443.836	-200.000	0.015	0.204
-442.822	132.235	0.171	0.221
-441.807	160.321	0.212	0.297
-440.792	-200.000	-0.018	0.213
-439.778	-200.000	0.004	-0.199
-438.763	-118.337	-0.166	-0.030
-437.749	-14.068	-0.084	-0.055
-436.734	-86.310	0.131	-0.041
-435.719	-38.361	-0.169	-0.090
-434.705	344.327	-0.158	-0.311
-433.690	112.534	0.255	0.310
-432.676	46.139	-0.037	0.034
-431.661	-18.343	0.207	-0.130
-430.646	-200.000	0.016	0.106
-429.632	274.694	-0.111	-0.197
-428.617	-200.000	0.033	-0.298
-427.603	-200.000	-0.013	0.241
-426.588	88.766	0.130	-0.146
-425.573	-63.115	-0.207	-0.086
-424.559	-147.973	-0.229	0.019
-423.544	-74.007	-0.126	0.046
-422.530	330.668	-0.087	-0.169
-421.515	-31.990	0.167	0.094
-420.500	-49.930	-0.084	-0.040
-419.486	25.977	-0.098	0.082
-418.471	-25.776	-0.176	0.104
-417.457	80.241	0.168	-0.181
-416.442	-95.614	0.114	0.031
-415.428	-105.170	0.277	0.064
-414.413	-200.000	-0.019	0.163
-413.398	-72.622	-0.260	-0.096
-412.384	64.170	0.251	-0.253
-411.369	67.096	-0.058	0.060
-410.355	-70.946	0.042	0.016
-409.340	111.117	-0.043	0.052
-408.325	159.250	-0.128	-0.179
-407.311	-61.410	-0.193	-0.081
-406.296	-144.257	0.331	0.031
-405.282	-69.064	-0.078	-0.030
-404.267	-84.529	-0.228	-0.072
-403.252	194.226	-0.031	-0.047
-402.238	21.137	0.293	-0.239
-401.223	-23.403	-0.237	0.143
-400.209	-150.573	0.137	0.011
-399.194	-88.570	-0.148	0.044
-398.179	-64.122	0.180	-0.074
-397.165	-141.925	0.352	-0.035
-396.150	101.430	0.131	-0.153
-395.136	57.133	-0.098	-0.096
-394.121	151.692	0.046	-0.062
-393.106	445.718	-0.091	0.201
-392.092	146.951	0.094	-0.127
-391.077	-52.783	0.210	0.097
-390.063	98.719	-0.225	-0.260
-389.048	81.437	-0.078	0.084
-388.033	0.101	-0.430	0.307
-387.019	800.000	-0.043	-0.190
-386.004	-36.973	0.320	-0.172
-384.990	31.676	0.187	-0.161
-383.975	-144.819	-0.263	0.024
-382.960	113.580	-0.217	-0.264
-381.946	-200.000	0.050	0.249
-380.931	310.587	0.205	0.385
-379.917	-114.419	0.186	-0.036
-378.902	228.073	-0.030	0.048
-377.888	113.026	-0.080	0.097
-376.873	-200.000	0.004	-0.028
-375.858	356.487	-0.092	0.184
-374.844	272.449	0.022	0.039
-373.829	-64.987	0.323	-0.131
-372.815	37.497	-0.093	-0.082
-371.800	15.334	-0.025	-0.020
-370.785	-162.915	0.347	-0.017
-369.771	3.601	-0.050	0.036
-368.756	146.951	0.129	0.174
-367.742	-70.146	-0.278	0.106
-366.727	106.361	0.283	-0.336
-365.712	63.040	0.053	0.053
-364.698	100.501	0.087	-0.101
-363.683	66.919	-0.245	0.250
-362.669	-51.251	0.443	-0.208
-361.654	-88.481	0.190	-0.057
-360.639	-148.758	0.332	-0.027
-359.625	27.912	0.153	0.129
-358.610	762.896	-0.017	0.047
-357.596	-200.000	-0.021	-0.166
-356.581	-102.972	0.377	-0.090
-355.566	-200.000	-0.062	0.341
-354.552	-11.334	0.147	0.097
-353.537	-15.197	-0.174	0.112
-352.523	-200.000	0.001	-0.052
-351.508	544.473	0.137	-0.328
-350.493	-200.000	-0.093	-0.000
-349.479	-102.301	-0.245	-0.059
-348.464	-8.743	0.113	0.076
-347.450	-200.000	-0.016	0.276
-346.435	-19.350	-0.181	-0.112
-345.420	98.204	-0.104	0.120
-344.406	-6.539	-0.016	0.011
-343.391	309.842	-0.203	0.380
-342.377	140.458	0.083	-0.110
-341.362	40.255	0.240	-0.216
-340.348	-200.000	0.048	-0.215
-339.333	-200.000	0.007	-0.064
-338.318	28.185	0.155	-0.131
-337.304	-69.995	0.272	-0.104
-336.289	-156.340	-0.111	-0.007
-335.275	800.000	0.113	0.347
-334.260	506.690	-0.055	-0.127
-333.245	-30.740	0.278	0.157
-332.231	-75.267	-0.275	0.098
-331.216	-14.777	-0.050	0.032
-330.202	-51.490	-0.248	0.116
-329.187	-5.166	-0.204	-0.140
-328.172	93.024	-0.150	-0.169
-327.158	20.164	-0.407	-0.329
-326.143	-200.000	-0.010	-0.101
-325.129	69.523	0.316	0.325
-324.114	24.371	-0.134	0.111
-323.099	-89.851	0.229	0.067
-322.085	-200.000	0.048	-0.226
-321.070	-77.315	0.624	-0.217
-320.056	365.559	0.011	0.022
-319.041	75.534	-0.280	0.296
-318.026	-99.682	0.407	0.102
-317.012	-32.119	0.159	-0.089
-315.997	800.000	-0.106	0.439
-314.983	391.867	-0.071	0.147
-313.968	-115.818	0.138	-0.026
-312.953	-174.051	0.092	-0.003
-311.939	53.778	0.070	-0.067
-310.924	26.280	0.163	0.136
-309.910	-200.000	-0.075	-0.389
-308.895	2.806	0.280	-0.203
-307.880	-200.000	0.041	-0.327
-306.866	-109.433	0.166	0.035
-305.851	-0.174	0.263	-0.187
-304.837	-68.554	-0.050	-0.019
-303.822	800.000	0.082	-0.264
-302.807	-198.994	0.277	-0.002
-301.793	-148.754	0.209	0.017
-300.778	68.751	-0.151	0.155
-299.764	11.725	0.178	0.136
-298.749	98.485	0.110	-0.127
-297.735	-84.363	0.366	0.116
-296.720	84.035	-0.080	0.087
-295.705	511.825	0.093	0.215
-294.691	225.995	0.224	0.362
-293.676	-191.611	0.093	0.001
-292.662	42.297	-0.188	0.171
-291.647	-121.671	0.076	0.012
-290.632	-10.187	0.172	0.114
-289.618	360.467	-0.174	-0.349
-288.603	252.165	0.080	0.136
-287.589	-150.206	-0.252	0.019
-286.574	362.621	0.159	-0.318
-285.559	-21.591	0.056	-0.034
-284.545	-200.000	-0.025	-0.216
-283.530	-114.200	-0.093	-0.018
-282.516	-125.012	-0.171	-0.026
-281.501	139.856	0.123	0.161
-280.486	186.982	0.179	-0.266
-279.472	55.375	-0.093	-0.090
-278.457	152.195	0.235	0.320
-277.443	125.081	-0.106	-0.133
-276.428	-1.750	0.096	0.068
-275.413	800.000	0.144	-0.435
-274.399	214.401	0.034	-0.054
-273.384	-91.142	-0.158	-0.045
-272.370	162.956	0.058	0.082
-271.355	-200.000	0.007	0.044
-270.340	-200.000	-0.019	-0.257
-269.326	36.333	-0.175	0.154
-268.311	800.000	0.040	0.116
-267.297	634.756	0.071	-0.181
-266.282	-106.401	0.110	-0.024
-265.267	5.162	-0.243	-0.179
-264.253	800.000	-0.061	-0.196
-263.238	800.000	-0.054	0.158
-262.224	-166.930	-0.211	-0.009
-261.209	479.050	-0.066	-0.149
-260.195	-200.000	-0.005	-0.037
-259.180	-24.644	0.312	-0.185
-258.165	30.085	0.140	0.119
-257.151	239.133	-0.117	0.194
-256.136	43.558	-0.227	-0.207
-255.122	19.922	-0.121	0.097
-254.107	800.000	-0.055	0.211
-253.092	37.436	-0.214	0.189
-252.078	56.597	0.439	-0.425
-251.063	104.424	0.238	-0.279
-250.049	-200.000	0.014	-0.256
-249.034	-74.244	0.253	-0.091
-248.019	-200.000	0.008	0.252
-247.005	27.757	-0.058	-0.049
-245.990	800.000	0.131	-0.515
-244.976	16.017	-0.229	-0.180
-243.961	-172.806	-0.173	-0.005
-242.946	5.215	-0.347	0.255
-241.932	-200.000	-0.007	-0.147
-240.917	-63.239	-0.039	-0.016
-239.903	43.603	0.192	-0.175
-238.888	-54.417	-0.207	-0.094
-237.873	-200.000	0.017	0.108
-236.859	-4.050	0.165	-0.114
-235.844	-76.044	0.154	-0.054
-234.830	-190.818	0.243	0.003
-233.815	-200.000	-0.028	0.339
-232.800	-200.000	-0.005	0.045
-231.786	-37.824	0.347	0.184
-230.771	-70.438	-0.174	-0.066
-229.757	203.693	0.100	0.154
-228.742	-200.000	0.035	-0.189
-227.727	317.264	-0.079	0.149
-226.713	-43.174	0.315	0.159
-225.698	-200.000	-0.016	-0.182
-224.684	225.661	-0.100	0.161
-223.669	54.594	-0.105	0.101
-222.655	-40.717	0.278	-0.143
-221.640	203.910	-0.120	-0.185
-220.625	-117.689	0.051	0.009
-219.611	141.067	-0.063	-0.083
-218.596	561.269	-0.036	0.087
-217.582	-200.000	0.002	0.494
-216.567	-94.432	-0.080	-0.022
-215.552	-200.000	-0.031	-0.423
-214.538	-138.827	0.052	0.006
-213.523	51.392	-0.188	-0.177
-212.509	800.000	0.041	-0.139
-211.494	-49.658	0.085	0.040
-210.479	94.750	-0.102	0.116
-209.465	-40.359	-0.134	0.069
-208.450	-200.000	0.003	0.317
-207.436	-200.000	-0.019	-0.261
-206.421	-61.241	0.244	0.102
-205.406	326.230	0.217	-0.414
-204.392	115.833	-0.269	0.327
-203.377	-84.515	0.201	0.063
-202.363	-50.978	0.027	0.013
-201.348	167.866	0.171	0.242
-200.333	137.262	0.250	0.326
-199.319	-200.000	0.065	-0.423
-198.304	-33.064	-0.036	-0.020
-197.290	41.230	-0.271	0.244
-196.275	132.577	-0.114	0.146
-195.260	165.602	0.045	-0.063
-194.246	342.633	-0.125	0.243
-193.231	-99.419	-0.153	0.038
-192.217	86.914	0.167	0.183
-191.202	-88.981	0.198	-0.058
-190.187	-112.246	0.167	-0.033
-189.173	-143.363	-0.198	-0.019
-188.158	-54.599	-0.259	0.117
-187.144	-200.000	-0.031	0.213
-186.129	189.729	-0.084	-0.126
-185.114	-74.950	0.137	0.049
-184.100	-124.652	-0.227	-0.035
-183.085	192.682	0.158	0.238
-182.071	45.951	-0.036	-0.033
-181.056	-13.967	0.234	0.150
-180.042	-95.185	0.266	0.071
-179.027	-200.000	0.008	0.145
-178.012	800.000	-0.067	0.197
-176.998	-51.849	-0.303	0.140
-175.983	-40.475	-0.202	-0.104
-174.969	-200.000	-0.017	-0.100
-173.954	64.054	-0.090	0.090
-172.939	448.070	-0.078	-0.172
-171.925	-114.648	-0.104	0.020
-170.910	-115.856	-0.297	0.055
-169.896	-121.181	0.328	0.055
-168.881	-63.928	-0.100	-0.041
-167.866	-50.951	-0.020	0.009
-166.852	95.534	0.157	0.178
-165.837	475.753	-0.056	-0.125
-164.823	800.000	-0.090	0.307
-163.808	75.119	-0.125	0.131
-162.793	21.492	0.244	-0.197
-161.779	-13.146	-0.134	0.086
-160.764	735.389	0.038	-0.102
-159.750	271.061	-0.056	-0.097
-158.735	-155.482	0.160	-0.010
-157.720	-136.246	-0.065	-0.008
-156.706	205.455	0.059	0.091
-155.691	-200.000	0.000	-0.233
-154.677	-100.047	-0.242	0.060
-153.662	-200.000	0.001	0.181
-152.647	367.647	0.129	0.259
-151.633	-95.441	0.308	0.082
-150.618	-10.895	0.106	0.070
-149.604	475.502	-0.042	-0.093
-148.589	323.037	0.058	0.109
-147.574	-200.000	0.090	0.408
-146.560	262.866	-0.056	-0.096
-145.545	108.843	-0.040	0.048
-144.531	-17.583	-0.279	-0.174
-143.516	-200.000	-0.018	0.140
-142.502	-118.917	-0.390	-0.068
-141.487	68.212	-0.061	0.062
-140.472	-200.000	0.020	0.199
-139.458	-22.336	0.061	-0.036
-138.443	58.228	-0.192	-0.186
-137.429	31.677	0.123	0.105
-136.414	-13.609	0.207	0.133
-135.399	60.305	0.232	0.228
-134.385	-81.504	-0.170	-0.056
-133.370	354.390	-0.048	-0.094
-132.356	-200.000	-0.026	-0.198
-131.341	800.000	-0.046	-0.198
-130.326	765.403	-0.035	0.096
-129.312	-124.577	-0.300	-0.046
-128.297	800.000	0.057	0.186
-127.283	-124.613	0.066	-0.010
-126.268	215.407	0.112	-0.176
-125.253	-61.795	-0.081	0.034
-124.239	-200.000	-0.003	0.098
-123.224	274.246	-0.179	0.314
-122.210	-128.303	0.081	-0.011
-121.195	31.115	0.158	-0.134
-120.180	-99.269	-0.123	-0.031
-119.166	-149.014	-0.239	-0.019
-118.151	198.517	0.098	0.149
-117.137	-154.220	0.174	-0.012
-116.122	666.941	0.079	-0.202
-115.107	-200.000	0.030	0.395
-114.093	800.000	0.011	0.038
-113.078	-174.504	-0.242	0.007
-112.064	0.876	-0.053	-0.038
-111.049	446.208	-0.125	-0.272
-110.034	-114.041	-0.140	-0.027
-109.020	545.231	-0.084	-0.199
-108.005	125.450	0.093	0.117
-106.991	739.505	-0.116	0.310
-105.976	-65.700	0.237	0.094
-104.962	-98.073	-0.509	0.130
-103.947	-53.197	0.362	-0.165
-102.932	-45.643	-0.045	0.022
-101.918	-105.121	-0.080	0.018
-100.903	-86.066	-0.045	0.014
-99.889	369.084	0.033	0.067
-98.874	496.938	-0.151	-0.343
-97.859	380.466	0.057	-0.117
-96.845	-133.934	-0.102	-0.013
-95.830	18.913	-0.220	-0.175
-94.816	-200.000	0.003	0.292
-93.801	-200.000	0.016	-0.208
-92.786	-0.882	-0.173	-0.122
-91.772	800.000	0.014	0.054
-90.757	-200.000	0.014	0.061
-89.743	-138.607	0.252	-0.027
-88.728	-85.989	-0.207	-0.063
-87.713	-103.969	-0.019	0.004
-86.699	48.496	0.104	0.096
-85.684	158.933	0.090	0.124
-84.670	-200.000	-0.065	0.323
-83.655	-159.118	-0.225	0.013
-82.640	407.965	0.139	-0.292
-81.626	-44.584	-0.160	-0.079
-80.611	-120.599	0.309	-0.052
-79.597	-163.385	0.202	-0.010
-78.582	-200.000	-0.004	-0.039
-77.567	297.207	0.085	0.155
-76.553	51.482	-0.054	-0.051
-75.538	514.909	0.111	-0.256
-74.524	-93.275	-0.386	-0.106
-73.509	269.469	0.125	0.218
-72.494	-200.000	0.015	0.308
-71.480	800.000	0.051	-0.140
-70.465	97.110	0.378	-0.429
-69.451	-200.000	0.030	0.195
-68.436	-200.000	-0.023	-0.277
-67.422	-16.732	-0.374	0.234
-66.407	800.000	0.061	-0.263
-65.392	34.314	0.158	-0.137
-64.378	-14.886	-0.068	-0.043
-63.363	76.800	-0.123	0.129
-62.349	-200.000	-0.009	0.382
-61.334	62.228	-0.956	-0.944
-60.319	-200.000	0.031	0.843
-59.305	-200.000	-0.020	-0.849
-58.290	45.382	0.475	0.433
-57.276	469.326	0.784	1.741
-56.261	-200.000	94.825	563.538
-55.246	546.384	1380.201	3265.565
-54.232	153.174	2573.216	3482.888
-53.217	117.063	2173.451	2641.285
-52.203	47.799	1631.100	1506.408
-51.188	39.365	1367.618	1211.406
-50.173	36.105	1324.832	1153.978
-49.159	56.842	1372.777	1322.545
-48.144	61.352	1391.105	1367.598
-47.130	39.745	1345.956	1194.326
-46.115	36.114	1327.703	1156.349
-45.100	35.857	1323.167	1150.817
-44.086	35.902	1320.196	1148.460
-43.071	35.684	1318.207	1145.385
-42.057	35.740	1316.253	1143.974
-41.042	35.755	1314.454	1142.451
-40.027	35.794	1313.147	1141.503
-39.013	35.851	1310.980	1139.912
-37.998	35.880	1309.425	1138.683
-36.984	35.840	1307.574	1136.796
-35.969	36.020	1305.610	1136.104
-34.954	35.889	1304.292	1134.136
-33.940	35.994	1302.934	1133.533
-32.925	36.059	1301.619	1132.726
-31.911	36.102	1299.971	1131.495
-30.896	36.029	1298.456	1129.707
-29.881	36.123	1297.167	1129.090
-28.867	35.966	1295.894	1127.019
-27.852	36.076	1294.155	1126.103
-26.838	35.998	1293.111	1124.694
-25.823	36.053	1291.537	1123.602
-24.809	36.001	1290.179	1122.072
-23.794	36.036	1288.879	1121.100
-22.779	36.036	1287.256	1119.648
-21.765	35.984	1286.123	1118.317
-20.750	35.987	1285.354	1117.619
-19.736	36.011	1283.974	1116.513
-18.721	36.001	1282.718	1115.317
-17.706	35.865	1281.671	1113.576
-16.692	35.832	1280.259	1112.115
-15.677	35.893	1278.769	1111.133
-14.663	35.970	1277.541	1110.466
-13.648	35.825	1276.931	1109.054
-12.633	35.966	1275.272	1108.381
-11.619	35.841	1275.002	1107.384
-10.604	35.839	1274.049	1106.499
-9.590	35.793	1273.511	1105.723
-8.575	35.855	1272.081	1104.793
-7.560	35.922	1271.362	1104.507
-6.546	35.799	1270.765	1103.243
-5.531	35.767	1269.984	1102.338
-4.517	35.742	1268.885	1101.197
-3.502	35.859	1268.109	1101.150
-2.487	35.845	1266.733	1099.831
-1.473	35.715	1262.756	1095.595
-0.458	34.034	1246.958	1072.376
0.556	27.883	1228.340	1029.132
1.571	23.689	1232.072	1008.411
2.586	22.420	1246.997	1013.238
3.600	21.934	1236.284	1001.666
4.615	16.294	1162.495	911.440
5.629	6.012	1082.878	796.991
6.644	0.494	1060.256	752.802
7.659	0.047	1057.526	748.570
8.673	-0.100	1056.241	746.864
9.688	-0.169	1054.949	745.546
10.702	0.207	1053.234	746.130
11.717	6.097	1061.949	781.597
12.731	15.371	1073.798	836.701
13.746	18.350	1076.200	853.363
14.761	17.143	1074.022	845.555
15.775	15.882	1072.066	837.669
16.790	14.957	1069.783	831.219
17.804	14.144	1068.331	825.979
18.819	13.828	1067.367	823.595
19.834	13.576	1066.110	821.303
20.848	13.342	1065.038	819.247
21.863	13.240	1063.838	817.743
22.877	12.903	1064.082	816.193
23.892	12.889	1063.058	815.266
24.907	12.948	1062.473	815.039
25.921	13.046	1061.488	814.694
26.936	13.034	1060.798	814.030
27.950	13.092	1059.581	813.315
28.965	13.176	1058.756	813.020
29.980	13.189	1057.273	811.875
30.994	13.139	1056.665	811.087
32.009	13.204	1055.315	810.299
33.023	13.141	1054.515	809.306
34.038	13.092	1053.611	808.300
35.053	13.099	1052.758	807.610
36.067	12.985	1052.090	806.469
37.082	13.152	1051.303	806.608
38.096	13.276	1050.250	806.333
39.111	13.238	1049.385	805.411
40.126	13.069	1048.332	803.710
41.140	12.922	1047.501	802.289
42.155	12.928	1046.073	801.152
43.169	12.946	1045.132	800.449
44.184	12.959	1043.894	799.494
45.199	12.905	1042.999	798.476
46.213	12.903	1042.396	797.932
47.228	12.974	1041.422	797.461
48.242	13.167	1039.746	797.038
49.257	13.042	1039.132	795.894
50.271	13.012	1038.354	795.083
51.286	13.074	1037.420	794.594
52.301	13.080	1036.124	793.564
53.315	13.077	1035.227	792.790
54.330	13.005	1034.190	791.580
55.344	12.871	1033.898	790.643
56.359	12.823	1032.959	789.628
57.374	12.908	1031.759	789.043
58.388	12.820	1031.246	788.163
59.403	12.889	1030.408	787.782
60.417	12.900	1029.347	786.956
61.432	12.946	1028.469	786.431
62.447	12.962	1027.547	785.731
63.461	12.798	1027.015	784.476
64.476	12.831	1026.446	784.129
65.490	12.869	1025.164	783.261
66.505	12.856	1024.679	782.759
67.520	12.869	1023.872	782.135
68.534	12.904	1023.164	781.691
69.549	13.002	1021.983	781.186
70.563	12.819	1021.560	779.923
71.578	12.885	1020.464	779.330
72.593	12.730	1020.336	778.431
73.607	12.779	1019.317	777.818
74.622	12.792	1018.973	777.549
75.636	12.779	1018.303	776.906
76.651	12.790	1017.480	776.264
77.666	12.796	1016.709	775.632
78.680	12.906	1016.139	775.646
79.695	12.815	1015.508	774.669
80.709	12.886	1014.502	774.166
81.724	13.055	1013.587	774.193
82.739	12.949	1013.368	773.460
83.753	13.020	1012.623	773.155
84.768	13.078	1011.781	772.714
85.782	13.107	1010.513	771.812
86.797	13.071	1009.503	770.806
87.812	12.952	1008.805	769.650
88.826	12.917	1008.070	768.859
89.841	13.052	1006.796	768.448
90.855	13.104	1005.996	768.012
91.870	13.041	1005.452	767.235
92.884	13.150	1004.748	767.132
93.899	13.174	1003.514	766.238
94.914	13.155	1002.959	765.658
95.928	13.197	1001.948	765.012
96.943	13.189	1001.277	764.395
97.957	13.170	1000.401	763.571
98.972	13.138	999.680	762.805
99.987	13.145	998.687	762.012
101.001	13.128	997.767	761.165
102.016	13.243	996.951	761.004
103.030	13.083	996.317	759.716
104.045	13.221	995.405	759.586
105.060	13.057	994.670	758.208
106.074	12.902	993.554	756.580
107.089	12.934	992.575	755.912
108.103	12.934	991.879	755.315
109.118	13.005	990.762	754.723
110.133	13.006	989.787	753.919
111.147	12.953	989.065	753.060
112.162	12.998	987.937	752.339
113.176	13.111	987.363	752.351
114.191	13.051	986.935	751.682
115.206	12.973	986.051	750.591
116.220	13.059	984.999	750.111
117.235	13.029	983.957	749.118
118.249	13.003	983.639	748.688
119.264	12.988	982.597	747.763
120.279	13.077	981.586	747.332
121.293	13.001	981.253	746.668
122.308	12.931	980.322	745.575
123.322	13.050	979.020	745.059
124.337	12.972	978.089	743.933
125.352	13.056	977.000	743.413
126.366	13.053	976.048	742.610
127.381	12.987	975.247	741.639
128.395	12.908	974.639	740.757
129.410	13.036	973.437	740.352
130.424	13.122	972.552	740.001
131.439	13.078	971.981	739.303
132.454	13.081	970.728	738.299
133.468	13.108	970.531	738.204
134.483	13.131	969.672	737.586
135.497	13.136	968.781	736.867
136.512	13.120	967.534	735.782
137.527	13.115	966.928	735.232
138.541	13.146	966.575	735.036
139.556	13.099	965.696	734.095
140.570	13.255	964.749	734.004
141.585	13.367	964.108	733.948
142.600	13.314	962.932	732.753
143.614	13.384	962.434	732.616
144.629	13.438	961.386	731.994
145.643	13.289	960.832	730.849
146.658	13.201	959.441	729.339
147.673	13.286	958.489	728.927
148.687	13.008	958.218	727.428
149.702	13.218	956.837	727.241
150.716	13.027	956.207	725.855
151.731	13.178	955.538	725.948
152.746	13.297	954.803	725.850
153.760	13.207	954.177	724.913
154.775	13.366	953.672	725.161
155.789	13.268	953.391	724.456
156.804	13.199	952.351	723.300
157.819	13.329	951.636	723.258
158.833	13.441	951.200	723.353
159.848	13.409	950.369	722.518
160.862	13.359	949.017	721.209
161.877	13.407	948.070	720.634
162.892	13.343	946.967	719.455
163.906	13.217	945.893	718.029
164.921	13.255	945.570	717.883
165.935	13.194	944.273	716.570
166.950	13.310	943.512	716.432
167.964	13.465	942.390	716.186
168.979	13.442	941.799	715.574
169.994	13.353	940.846	714.406
171.008	13.465	940.349	714.447
172.023	13.400	939.721	713.624
173.037	13.400	939.157	713.134
174.052	13.300	938.753	712.336
175.067	13.413	937.942	712.143
176.081	13.298	937.328	711.119
177.096	13.250	936.676	710.354
178.110	13.376	935.734	710.118
179.125	13.450	935.149	709.928
180.140	13.368	935.066	709.452
181.154	13.272	934.905	708.854
182.169	13.518	934.404	709.467
183.183	13.516	933.463	708.679
184.198	13.580	932.190	707.925
185.213	13.621	931.511	707.522
186.227	13.591	931.116	707.032
187.242	13.704	930.055	706.642
188.256	13.639	929.956	706.229
189.271	13.611	928.987	705.310
190.286	13.538	927.992	704.186
191.300	13.460	927.420	703.355
192.315	13.277	927.580	702.638
193.329	13.335	926.700	702.157
194.344	13.598	925.937	702.628
195.359	13.606	925.131	701.991
196.373	13.525	924.996	701.481
197.388	13.746	923.854	701.490
198.402	13.792	923.317	701.215
199.417	13.905	922.489	701.000
200.432	13.792	922.532	700.493
201.446	13.877	922.061	700.432
202.461	13.885	921.414	699.915
203.475	13.953	920.809	699.678
204.490	13.770	920.173	698.363
205.504	13.620	919.521	697.174
206.519	13.930	918.251	697.454
207.534	13.663	917.750	695.891
208.548	13.767	917.256	695.890
209.563	13.846	916.580	695.647
210.577	13.870	915.599	694.940
211.592	14.048	915.167	695.295
212.607	14.063	914.317	694.650
213.621	13.855	914.029	693.500
214.636	13.968	913.330	693.383
215.650	13.966	912.446	692.642
216.665	13.956	911.644	691.929
217.680	14.044	911.394	692.044
218.694	13.910	910.967	691.102
219.709	13.941	910.344	690.696
220.723	13.984	909.207	689.952
221.738	14.153	908.534	690.080
222.753	14.043	907.975	689.141
223.767	14.135	907.220	688.888
224.782	14.178	906.915	688.773
225.796	14.225	906.064	688.260
226.811	14.147	905.716	687.613
227.826	14.137	904.905	686.893
228.840	14.138	904.360	686.422
229.855	14.064	903.349	685.289
230.869	14.050	902.596	684.599
231.884	13.973	902.152	683.885
232.899	14.094	901.271	683.655
233.913	14.081	900.588	683.022
234.928	13.973	900.213	682.237
235.942	14.069	899.236	681.826
236.957	14.132	898.562	681.513
237.972	14.168	897.987	681.168
238.986	14.099	897.349	680.340
240.001	14.102	897.108	680.108
241.015	14.191	896.040	679.603
242.030	14.244	895.566	679.398
243.045	14.224	894.795	678.671
244.059	14.302	894.619	678.796
245.074	14.154	894.174	677.796
246.088	14.256	893.291	677.482
247.103	14.365	892.355	677.156
248.117	14.382	892.044	676.930
249.132	14.526	891.292	676.884
250.147	14.580	890.980	676.805
251.161	14.504	890.242	675.874
252.176	14.686	889.252	675.803
253.190	14.614	888.836	675.136
254.205	14.591	888.018	674.360
255.220	14.653	887.362	674.054
256.234	14.779	886.710	674.005
257.249	14.760	885.796	673.173
258.263	14.627	885.462	672.327
259.278	14.761	884.453	672.039
260.293	14.639	884.604	671.602
261.307	14.815	883.632	671.516
262.322	14.721	883.071	670.651
263.336	14.730	882.538	670.222
264.351	14.731	881.926	669.704
265.366	14.824	881.144	669.421
266.380	14.900	880.439	669.131
267.395	14.985	879.406	668.626
268.409	14.943	878.641	667.820
269.424	14.878	878.035	667.038
270.439	14.837	877.396	666.330
271.453	14.750	877.077	665.685
272.468	14.956	875.909	665.559
273.482	14.831	875.852	664.957
274.497	15.009	875.202	665.112
275.512	14.829	874.801	664.036
276.526	14.858	874.126	663.577
277.541	14.915	873.660	663.392
278.555	15.010	873.223	663.380
279.570	14.956	872.665	662.683
280.585	15.043	871.569	662.136
281.599	14.972	870.934	661.313
282.614	14.915	870.454	660.663
283.628	15.036	869.482	660.347
284.643	15.083	869.107	660.189
285.657	15.170	868.493	660.005
286.672	15.100	867.199	658.688
287.687	15.246	866.757	658.868
288.701	15.149	866.551	658.274
289.716	15.182	865.966	657.900
290.730	15.191	865.248	657.332
291.745	15.208	864.659	656.892
292.760	15.122	864.499	656.376
293.774	15.238	863.628	656.111
294.789	15.286	862.859	655.655
295.803	15.193	862.190	654.726
296.818	15.208	861.702	654.358
297.833	15.232	861.255	654.054
298.847	15.184	860.643	653.343
299.862	15.305	859.907	653.198
300.876	15.370	859.110	652.787
301.891	15.390	858.731	652.521
302.906	15.376	858.204	652.005
303.920	15.572	857.687	652.317
304.935	15.505	857.372	651.762
305.949	15.445	856.731	650.984
306.964	15.531	855.924	650.646
307.979	15.490	855.370	650.010
308.993	15.577	854.434	649.577
310.008	15.606	853.920	649.240
311.022	15.635	853.172	648.727
312.037	15.454	853.042	647.869
313.052	15.515	852.017	647.271
314.066	15.427	851.775	646.690
315.081	15.290	851.795	646.121
316.095	15.427	850.534	645.633
317.110	15.479	850.093	645.441
318.125	15.510	849.501	645.053
319.139	15.566	849.225	645.003
320.154	15.609	848.640	644.665
321.168	15.563	848.010	643.952
322.183	15.584	847.652	643.707
323.197	15.651	846.889	643.327
324.212	15.549	846.513	642.594
325.227	15.679	845.790	642.484
326.241	15.632	845.238	641.828
327.256	15.658	844.787	641.528
328.270	15.531	844.228	640.563
329.285	15.692	843.065	640.236
330.300	15.558	842.608	639.323
331.314	15.605	842.567	639.415
332.329	15.670	842.099	639.250
333.343	15.648	841.921	638.975
334.358	15.671	841.336	638.560
335.373	15.704	841.027	638.394
336.387	15.785	840.574	638.303
337.402	15.868	840.138	638.229
338.416	15.825	839.993	637.899
339.431	15.972	839.411	637.957
340.446	15.793	838.990	636.904
341.460	15.940	838.977	637.393
342.475	15.959	838.174	636.801
343.489	16.028	837.730	636.666
344.504	16.123	837.085	636.478
345.519	16.196	836.550	636.292
346.533	16.077	836.286	635.586
347.548	16.020	835.932	635.043
348.562	15.975	835.207	634.270
349.577	16.004	834.467	633.758
350.592	16.047	833.713	633.294
351.606	15.952	833.116	632.425
352.621	16.015	832.275	631.970
353.635	15.925	831.970	631.344
354.650	16.109	831.564	631.667
355.665	16.104	830.857	631.058
356.679	16.075	830.357	630.515
357.694	16.075	829.522	629.822
358.708	16.139	828.866	629.508
359.723	16.145	827.969	628.795
360.738	16.178	827.948	628.846
361.752	16.109	827.320	628.057
362.767	16.351	826.559	628.324
363.781	16.302	826.469	628.018
364.796	16.344	825.875	627.665
365.810	16.240	825.494	626.936
366.825	16.366	825.017	626.982
367.840	16.501	824.341	626.917
368.854	16.373	823.942	626.084
369.869	16.319	823.564	625.540
370.883	16.485	823.169	625.798
371.898	16.400	822.914	625.234
372.913	16.450	822.419	624.989
373.927	16.438	821.967	624.545
374.942	16.587	821.229	624.481
375.956	16.432	821.120	623.767
376.971	16.464	820.893	623.660
377.986	16.735	819.831	623.797
379.000	16.684	819.347	623.185
380.015	16.640	818.949	622.666
381.029	16.546	818.744	622.110
382.044	16.742	818.008	622.213
383.059	16.631	817.535	621.391
384.073	16.825	816.329	621.131
385.088	16.705	816.227	620.560
386.102	16.694	815.068	619.583
387.117	16.754	814.995	619.693
388.132	16.640	814.076	618.520
389.146	16.646	813.896	618.351
390.161	16.648	813.608	618.087
391.175	16.741	813.216	618.073
392.190	16.749	812.323	617.370
393.205	16.655	811.957	616.692
394.219	16.570	811.716	616.146
395.234	16.751	811.004	616.210
396.248	16.584	811.041	615.577
397.263	16.733	810.554	615.692
398.278	16.744	809.772	615.083
399.292	16.648	809.485	614.462
400.307	16.690	808.751	614.005
401.321	16.766	808.262	613.856
402.336	16.758	808.027	613.592
403.350	16.783	807.743	613.412
404.365	16.767	807.359	613.009
405.380	16.998	806.775	613.346
406.394	17.012	806.085	612.820
407.409	17.036	805.667	612.532
408.423	17.152	805.464	612.744
409.438	17.054	805.023	611.999
410.453	17.106	804.770	611.941
411.467	16.989	804.198	611.029
412.482	17.237	803.713	611.502
413.496	16.974	804.034	610.744
414.511	17.145	803.611	610.984
415.526	17.326	802.644	610.843
416.540	17.254	801.876	609.948
417.555	16.956	801.679	608.675
418.569	17.041	801.900	609.096
419.584	17.377	800.722	609.351
420.599	17.193	800.444	608.424
421.613	101.995	1282.860	1434.837
422.628	87.498	1353.151	1434.958
