DTS Sentinel unit serial number:	SN413079Multiplexer serial number:	ORYXHardware model number:	OX4-SRSoftware version number:	ORYX F/W v4.00 Oryx Data Collector v3.7.2.0data status	okinstallation	princeton_trtdifferential loss correction	single-endedforward channel	channel 1reverse channel	N/Adate	2019/09/11time	00:00:11forward acquisition time	60.00reverse acquisition time	0.00gamma	496.2192k internal	0.2331k external	0.2331temperature offset calibration	0.9936default loss term (dB/km)	0.3790temperature slope calibration	1.0000multiplexer offset coefficient	1.0000multiplexer slope coefficient	1.0000fibre end	0.00T internal ref (°C)	29.44T ext. ref 1 (°C)	-0.32T ext. ref 2 (°C)	23.02length (m)	temperature (°C)	Stokes	anti-Stokes-747.200	183.485	0.189	-0.281
-746.185	-105.507	-0.212	-0.048
-745.171	129.304	0.087	0.112
-744.156	13.065	-0.200	0.156
-743.142	300.481	-0.143	0.265
-742.127	647.100	-0.119	0.306
-741.112	-29.183	-0.215	0.124
-740.098	-38.139	-0.135	-0.072
-739.083	-130.295	0.172	-0.024
-738.069	-121.253	-0.404	-0.068
-737.054	18.636	-0.384	0.309
-736.039	-0.862	-0.175	-0.125
-735.025	-32.493	-0.225	-0.126
-734.010	-146.472	-0.332	-0.029
-732.996	-127.001	-0.181	0.027
-731.981	159.161	0.110	-0.154
-730.966	713.111	-0.143	-0.381
-729.952	-50.903	0.015	0.007
-728.937	296.807	0.096	0.176
-727.923	-200.000	-0.025	-0.133
-726.908	-20.654	-0.084	0.052
-725.894	-86.057	0.253	-0.079
-724.879	-128.939	-0.194	-0.027
-723.864	-25.002	0.100	-0.060
-722.850	-96.967	-0.206	-0.054
-721.835	-31.591	-0.215	0.122
-720.821	68.547	-0.237	-0.245
-719.806	122.579	-0.093	-0.117
-718.791	-96.703	-0.112	-0.030
-717.777	800.000	0.059	-0.171
-716.762	-104.040	0.136	0.032
-715.748	-112.211	-0.229	-0.046
-714.733	-14.708	0.148	0.095
-713.718	800.000	-0.032	-0.099
-712.704	800.000	-0.093	-0.294
-711.689	800.000	-0.096	0.412
-710.675	41.723	-0.328	-0.299
-709.660	800.000	0.116	-0.326
-708.645	-31.174	0.198	-0.112
-707.631	82.028	0.131	-0.143
-706.616	362.695	0.146	0.295
-705.602	68.138	-0.057	-0.059
-704.587	-116.204	0.350	-0.065
-703.572	184.950	-0.168	-0.251
-702.558	203.142	0.033	-0.051
-701.543	416.666	0.102	0.219
-700.529	-53.982	0.046	-0.021
-699.514	170.994	0.083	-0.120
-698.499	-14.602	-0.068	0.044
-697.485	-190.509	-0.090	0.001
-696.470	466.812	-0.090	-0.204
-695.456	124.093	0.125	0.158
-694.441	204.894	0.029	0.044
-693.426	166.020	0.036	-0.051
-692.412	-189.459	0.210	0.002
-691.397	123.555	-0.042	-0.053
-690.383	-145.732	0.103	-0.009
-689.368	133.711	0.110	0.144
-688.354	-67.824	-0.152	-0.060
-687.339	175.452	-0.150	0.218
-686.324	220.063	0.210	-0.338
-685.310	109.781	0.239	0.287
-684.295	-7.626	0.094	-0.064
-683.281	-200.000	-0.001	-0.090
-682.266	-139.644	-0.295	0.032
-681.251	488.585	0.166	0.380
-680.237	14.973	-0.381	0.299
-679.222	800.000	0.089	-0.276
-678.208	-200.000	-0.027	-0.185
-677.193	-92.920	-0.166	-0.046
-676.178	-94.257	-0.203	0.056
-675.164	13.504	0.187	-0.145
-674.149	-200.000	0.058	0.429
-673.135	800.000	0.034	-0.099
-672.120	512.019	-0.148	0.347
-671.105	800.000	0.098	0.322
-670.091	-200.000	-0.025	0.261
-669.076	0.163	0.037	0.026
-668.062	45.339	0.035	0.033
-667.047	-115.507	-0.271	-0.051
-666.032	-14.351	-0.049	-0.032
-665.018	469.658	-0.114	0.257
-664.003	-66.258	-0.249	-0.099
-662.989	800.000	-0.018	0.068
-661.974	-191.515	0.169	-0.002
-660.959	20.819	-0.049	0.040
-659.945	-7.344	-0.217	0.147
-658.930	335.626	0.083	0.161
-657.916	-117.189	-0.072	-0.013
-656.901	161.578	0.174	-0.243
-655.886	800.000	0.111	0.363
-654.872	-200.000	-0.053	-0.258
-653.857	174.243	-0.106	-0.153
-652.843	-100.545	-0.051	0.013
-651.828	693.475	0.069	-0.182
-650.814	-200.000	-0.002	0.034
-649.799	366.004	0.107	0.215
-648.784	396.775	0.087	-0.181
-647.770	-97.037	-0.083	-0.022
-646.755	-200.000	-0.021	-0.180
-645.741	800.000	0.063	0.269
-644.726	-73.987	-0.181	0.066
-643.711	-53.089	-0.209	0.096
-642.697	-200.000	0.008	0.179
-641.682	-200.000	-0.022	0.422
-640.668	-73.479	0.077	-0.028
-639.653	40.139	0.244	0.219
-638.638	177.258	-0.075	-0.109
-637.624	2.298	-0.075	0.054
-636.609	-140.589	0.226	-0.023
-635.595	-109.937	-0.174	-0.037
-634.580	195.661	-0.037	-0.057
-633.565	-27.777	-0.238	-0.138
-632.551	5.856	-0.084	-0.063
-631.536	-57.639	-0.231	-0.101
-630.522	800.000	-0.046	0.155
-629.507	-108.611	-0.333	-0.072
-628.492	-74.073	0.159	0.058
-627.478	-200.000	0.021	-0.380
-626.463	-200.000	-0.057	-0.275
-625.449	1.338	0.222	-0.160
-624.434	116.649	-0.128	-0.157
-623.419	382.352	-0.030	-0.062
-622.405	137.872	-0.080	-0.105
-621.390	67.531	0.120	-0.122
-620.376	295.230	0.077	-0.141
-619.361	800.000	-0.041	-0.176
-618.346	536.486	-0.083	-0.198
-617.332	-78.187	-0.167	0.058
-616.317	800.000	-0.083	0.304
-615.303	-93.263	-0.302	0.084
-614.288	-200.000	0.013	-0.180
-613.273	-145.319	0.230	-0.021
-612.259	-46.344	0.457	0.225
-611.244	-40.233	-0.237	-0.123
-610.230	71.398	0.273	-0.284
-609.215	-99.411	-0.266	0.067
-608.201	800.000	0.015	-0.043
-607.186	115.350	-0.078	0.096
-606.171	159.596	-0.015	-0.022
-605.157	800.000	0.081	-0.269
-604.142	697.782	-0.102	-0.268
-603.128	-29.328	-0.211	-0.121
-602.113	235.240	0.121	0.199
-601.098	-99.210	-0.337	0.085
-600.084	6.949	-0.259	0.193
-599.069	-32.002	-0.088	0.049
-598.055	-30.669	-0.139	0.079
-597.040	-172.195	-0.247	0.008
-596.025	800.000	0.047	0.158
-595.011	-102.222	0.140	0.034
-593.996	-15.767	0.053	-0.034
-592.982	-119.985	-0.181	-0.031
-591.967	-158.232	0.276	0.016
-590.952	75.998	0.075	0.079
-589.938	119.579	0.231	0.286
-588.923	-200.000	0.007	0.059
-587.909	38.164	0.176	0.156
-586.894	-200.000	-0.035	-0.399
-585.879	-93.418	-0.494	-0.137
-584.865	-75.410	0.185	-0.066
-583.850	312.618	-0.074	0.140
-582.836	-200.000	-0.008	0.091
-581.821	-93.165	-0.212	-0.059
-580.806	-200.000	-0.007	0.075
-579.792	800.000	0.062	0.238
-578.777	138.795	0.145	0.190
-577.763	-200.000	0.002	-0.473
-576.748	50.582	-0.190	-0.180
-575.733	641.852	0.029	0.073
-574.719	-109.598	-0.352	0.074
-573.704	-122.070	-0.067	-0.011
-572.690	352.522	0.161	-0.318
-571.675	-200.000	-0.010	0.113
-570.661	88.933	0.176	-0.196
-569.646	28.479	-0.142	0.120
-568.631	800.000	-0.051	0.152
-567.617	-91.113	0.232	-0.067
-566.602	800.000	0.075	0.320
-565.588	-169.611	-0.297	0.011
-564.573	-200.000	-0.006	0.423
-563.558	-176.887	0.548	-0.014
-562.544	-200.000	-0.035	-0.196
-561.529	130.260	0.028	-0.036
-560.515	197.880	-0.164	0.250
-559.500	52.056	0.123	0.117
-558.485	125.130	0.085	0.107
-557.471	2.825	-0.165	-0.120
-556.456	-75.561	-0.125	-0.045
-555.442	-86.817	-0.461	-0.141
-554.427	-157.563	0.110	-0.007
-553.412	-200.000	0.085	0.393
-552.398	540.544	0.043	0.103
-551.383	-200.000	0.027	-0.222
-550.369	264.961	0.070	-0.122
-549.354	-88.268	-0.103	-0.031
-548.339	-30.608	0.243	0.137
-547.325	800.000	0.049	-0.167
-546.310	-164.860	-0.117	-0.005
-545.296	-83.471	-0.424	0.136
-544.281	101.195	0.233	0.270
-543.266	673.667	-0.071	0.184
-542.252	451.962	-0.070	-0.153
-541.237	439.594	0.095	-0.206
-540.223	800.000	-0.036	0.103
-539.208	800.000	0.036	-0.104
-538.193	-172.003	-0.099	0.003
-537.179	-200.000	0.007	-0.167
-536.164	7.766	-0.071	-0.053
-535.150	40.582	0.105	-0.094
-534.135	55.373	0.162	0.157
-533.121	131.318	0.031	-0.040
-532.106	-74.498	-0.116	0.042
-531.091	-100.513	-0.268	-0.066
-530.077	84.367	0.238	0.260
-529.062	142.802	0.065	-0.087
-528.048	106.856	-0.186	-0.221
-527.033	-55.897	0.286	0.127
-526.018	-200.000	-0.001	-0.135
-525.004	-30.261	-0.045	0.026
-523.989	-120.976	-0.195	-0.033
-522.975	-200.000	-0.014	0.063
-521.960	-200.000	0.030	0.146
-520.945	800.000	0.086	-0.271
-519.931	-38.852	-0.205	-0.108
-518.916	11.520	0.092	-0.071
-517.902	7.213	0.338	0.252
-516.887	-4.434	-0.109	-0.075
-515.872	85.004	0.239	0.261
-514.858	549.512	-0.088	0.211
-513.843	287.591	-0.056	0.101
-512.829	455.239	-0.047	0.104
-511.814	-200.000	-0.007	-0.044
-510.799	-111.609	-0.045	0.009
-509.785	489.375	0.112	-0.256
-508.770	-85.356	-0.300	-0.093
-507.756	34.457	0.192	-0.167
-506.741	627.087	0.109	-0.275
-505.726	-200.000	-0.047	-0.219
-504.712	800.000	-0.027	0.095
-503.697	800.000	-0.029	-0.081
-502.683	-200.000	0.027	-0.135
-501.668	205.664	0.170	0.264
-500.653	800.000	-0.136	0.406
-499.639	301.459	-0.027	-0.050
-498.624	261.945	0.058	0.100
-497.610	-61.914	0.171	-0.071
-496.595	67.900	0.260	-0.265
-495.581	307.335	0.051	-0.095
-494.566	223.180	0.107	0.171
-493.551	-200.000	0.080	0.395
-492.537	-51.187	0.224	-0.104
-491.522	225.276	-0.121	-0.195
-490.508	75.232	-0.171	0.179
-489.493	-87.839	0.042	0.013
-488.478	279.481	0.047	-0.083
-487.464	11.338	0.293	-0.224
-486.449	-32.428	0.322	-0.179
-485.435	-200.000	0.036	-0.267
-484.420	110.781	-0.196	0.235
-483.405	148.286	-0.267	0.359
-482.391	-200.000	-0.002	-0.285
-481.376	376.575	-0.035	-0.071
-480.362	-161.360	-0.246	0.013
-479.347	100.243	-0.133	0.154
-478.332	-200.000	0.011	0.092
-477.318	-143.369	0.060	-0.006
-476.303	584.020	0.072	0.177
-475.289	133.981	0.255	0.329
-474.274	682.308	0.109	-0.283
-473.259	-200.000	0.013	-0.205
-472.245	800.000	-0.047	0.180
-471.230	-129.639	0.441	-0.061
-470.216	-200.000	0.051	0.237
-469.201	800.000	0.058	0.193
-468.186	389.442	-0.103	-0.213
-467.172	464.117	0.085	-0.189
-466.157	-195.289	0.232	0.002
-465.143	-78.888	0.373	-0.126
-464.128	-8.692	-0.167	0.112
-463.113	46.430	0.256	-0.236
-462.099	104.570	-0.256	-0.300
-461.084	-200.000	0.234	-0.001
-460.070	-76.091	-0.118	0.042
-459.055	70.533	-0.238	0.245
-458.040	-69.539	-0.242	-0.092
-457.026	-200.000	-0.008	-0.130
-456.011	38.467	0.133	-0.118
-454.997	-60.977	-0.064	0.027
-453.982	-124.427	0.396	-0.061
-452.968	65.261	0.132	0.133
-451.953	135.842	-0.145	-0.187
-450.938	-139.447	0.109	-0.012
-449.924	78.736	-0.100	0.107
-448.909	-200.000	-0.011	-0.317
-447.895	-143.121	0.272	0.026
-446.880	-22.561	0.048	-0.029
-445.865	-200.000	-0.005	0.063
-444.851	110.732	0.112	0.134
-443.836	654.824	-0.161	0.410
-442.822	-74.141	0.547	-0.197
-441.807	800.000	0.029	0.108
-440.792	-200.000	-0.039	-0.216
-439.778	106.200	0.103	-0.122
-438.763	202.260	-0.066	-0.102
-437.749	-32.592	0.106	-0.059
-436.734	-125.730	-0.264	0.040
-435.719	-6.937	-0.052	0.035
-434.705	114.777	-0.062	-0.075
-433.690	113.730	0.049	0.059
-432.676	-149.984	0.322	-0.025
-431.661	-53.704	0.069	-0.031
-430.646	146.840	-0.041	0.055
-429.632	14.987	-0.119	-0.093
-428.617	0.696	0.149	0.106
-427.603	-7.508	0.159	-0.107
-426.588	-79.998	-0.278	-0.093
-425.573	31.960	-0.161	-0.138
-424.559	35.581	-0.240	0.210
-423.544	-152.642	-0.197	-0.014
-422.530	-200.000	0.001	-0.066
-421.515	800.000	-0.058	-0.204
-420.500	800.000	-0.058	0.195
-419.486	-52.671	-0.142	-0.065
-418.471	75.866	0.136	-0.143
-417.457	-35.460	-0.135	-0.073
-416.442	-96.489	-0.213	-0.056
-415.428	104.834	-0.054	-0.063
-414.413	285.447	-0.118	-0.211
-413.398	-200.000	-0.048	0.322
-412.384	562.025	0.139	0.335
-411.369	-153.244	0.168	0.012
-410.355	-87.968	0.168	0.050
-409.340	68.054	-0.163	-0.166
-408.325	63.135	0.167	0.166
-407.311	49.856	-0.184	0.172
-406.296	-200.000	-0.043	0.210
-405.282	-75.671	0.234	-0.083
-404.267	-200.000	-0.020	0.265
-403.252	53.272	-0.323	0.307
-402.238	646.130	-0.060	0.153
-401.223	-42.562	0.156	-0.079
-400.209	-40.777	-0.315	-0.162
-399.194	266.543	-0.103	-0.179
-398.179	521.334	-0.040	-0.092
-397.165	98.449	0.022	-0.026
-396.150	-13.000	-0.127	0.082
-395.136	594.714	0.130	-0.320
-394.121	800.000	-0.152	-0.435
-393.106	-200.000	-0.044	0.218
-392.092	10.674	-0.220	-0.167
-391.077	-76.911	-0.273	-0.095
-390.063	101.718	0.125	0.144
-389.048	-15.669	0.189	-0.120
-388.033	-34.957	-0.224	0.121
-387.019	-21.148	-0.202	-0.122
-386.004	-200.000	-0.049	0.462
-384.990	-200.000	0.018	0.133
-383.975	519.304	0.061	-0.141
-382.960	-137.458	0.313	-0.035
-381.946	191.610	0.105	-0.157
-380.931	133.244	0.101	0.129
-379.917	-92.924	0.091	0.025
-378.902	-200.000	-0.003	-0.063
-377.888	171.956	-0.111	0.158
-376.873	-22.884	-0.207	0.124
-375.858	30.436	0.108	-0.091
-374.844	800.000	0.082	-0.257
-373.829	-145.188	0.278	0.025
-372.815	-170.783	-0.180	-0.006
-371.800	-196.351	-0.141	-0.001
-370.785	-86.624	-0.150	-0.045
-369.771	203.390	-0.046	0.070
-368.756	537.657	0.038	0.089
-367.742	253.161	0.031	-0.053
-366.727	-111.993	0.112	0.022
-365.712	-131.170	0.439	0.058
-364.698	-129.433	0.367	0.051
-363.683	-130.042	0.150	-0.020
-362.669	-3.130	0.119	0.082
-361.654	-23.197	0.247	-0.147
-360.639	-31.810	-0.387	0.215
-359.625	40.781	0.210	-0.187
-358.610	10.450	0.237	-0.179
-357.596	305.200	-0.078	0.143
-356.581	399.547	-0.121	0.252
-355.566	160.577	0.093	0.129
-354.552	-11.679	0.039	0.025
-353.537	-200.000	-0.032	0.320
-352.523	164.074	-0.241	-0.337
-351.508	-74.657	0.198	0.071
-350.493	-171.982	0.252	0.008
-349.479	191.387	0.114	0.171
-348.464	-43.844	0.303	0.151
-347.450	464.514	-0.093	-0.206
-346.435	748.600	0.052	0.140
-345.420	36.807	-0.245	-0.214
-344.406	-200.000	-0.003	0.052
-343.391	-200.000	-0.037	-0.245
-342.377	-200.000	-0.019	0.159
-341.362	163.249	0.214	0.298
-340.348	-200.000	0.013	-0.336
-339.333	798.874	-0.012	-0.033
-338.318	461.230	0.059	0.130
-337.304	-200.000	-0.125	-0.544
-336.289	-36.873	0.109	-0.058
-335.275	93.335	-0.112	0.125
-334.260	-7.274	-0.060	-0.040
-333.245	-144.698	0.421	0.038
-332.231	68.863	-0.099	0.101
-331.216	25.343	-0.082	0.068
-330.202	-64.614	0.150	-0.060
-329.187	-55.960	0.199	-0.088
-328.172	-200.000	-0.064	0.535
-327.158	61.317	-0.123	-0.121
-326.143	249.350	0.185	0.311
-325.129	-159.595	-0.096	-0.005
-324.114	-78.121	0.147	-0.050
-323.099	-40.221	0.482	0.248
-322.085	-200.000	0.002	-0.118
-321.070	-200.000	-0.036	-0.310
-320.056	-179.959	0.073	-0.002
-319.041	-79.734	0.151	-0.051
-318.026	240.079	-0.030	0.050
-317.012	-200.000	0.031	-0.231
-315.997	-123.909	-0.189	0.029
-314.983	113.939	-0.135	-0.162
-313.968	127.577	0.143	0.180
-312.953	-15.242	0.075	0.047
-311.939	52.891	0.144	-0.137
-310.924	56.453	0.175	-0.168
-309.910	800.000	0.059	-0.166
-308.895	800.000	-0.082	-0.238
-307.880	-200.000	0.010	0.377
-306.866	0.921	0.091	-0.065
-305.851	59.272	-0.090	0.088
-304.837	800.000	0.069	-0.240
-303.822	37.050	0.100	-0.088
-302.807	-200.000	0.005	-0.209
-301.793	768.382	0.054	0.145
-300.778	-153.681	0.219	0.015
-299.764	-77.592	-0.169	-0.058
-298.749	800.000	0.056	-0.167
-297.735	-200.000	0.053	-0.231
-296.720	-16.848	0.130	-0.081
-295.705	747.243	0.025	0.067
-294.691	157.918	-0.113	0.155
-293.676	800.000	0.087	-0.240
-292.662	-17.636	-0.279	-0.173
-291.647	-106.186	-0.233	0.052
-290.632	33.665	-0.271	-0.233
-289.618	-200.000	-0.007	-0.150
-288.603	22.722	0.050	0.040
-287.589	-152.265	0.103	0.007
-286.574	80.304	0.143	0.152
-285.559	-59.726	-0.180	-0.076
-284.545	-27.415	0.137	-0.079
-283.530	41.585	-0.175	-0.157
-282.516	23.922	-0.203	0.165
-281.501	-200.000	-0.015	0.121
-280.486	-80.095	-0.243	0.080
-279.472	154.474	0.074	0.101
-278.457	-94.326	0.046	0.013
-277.443	800.000	-0.039	-0.122
-276.428	-200.000	-0.007	-0.164
-275.413	221.763	0.126	-0.200
-274.399	-68.585	-0.168	0.064
-273.384	-152.640	-0.075	0.005
-272.370	-85.141	0.207	0.064
-271.355	82.071	-0.089	0.095
-270.340	405.310	-0.127	-0.264
-269.326	284.051	0.022	-0.040
-268.311	48.043	-0.114	0.106
-267.297	-200.000	0.031	0.223
-266.282	-60.413	-0.289	-0.121
-265.267	-67.403	0.149	-0.058
-264.253	-8.433	0.318	0.211
-263.238	600.182	-0.042	0.103
-262.224	-200.000	-0.026	-0.219
-261.209	-119.848	-0.077	0.013
-260.195	-61.765	-0.295	-0.122
-259.180	85.947	0.251	0.272
-258.165	125.052	0.121	0.151
-257.151	251.917	0.059	0.100
-256.136	-123.716	-0.106	0.017
-255.122	75.211	-0.265	-0.276
-254.107	-200.000	-0.014	0.062
-253.092	68.625	0.055	-0.056
-252.078	-141.392	0.207	-0.021
-251.063	155.550	0.094	0.128
-250.049	-163.655	-0.053	0.002
-249.034	800.000	0.083	-0.236
-248.019	197.360	-0.195	-0.294
-247.005	257.239	-0.014	-0.023
-245.990	-62.850	-0.427	-0.174
-244.976	800.000	0.044	-0.184
-243.961	800.000	-0.013	-0.046
-242.946	-109.768	0.162	0.034
-241.932	-42.099	0.212	-0.107
-240.917	-185.220	-0.256	-0.004
-239.903	-106.519	-0.042	-0.009
-238.888	5.158	0.225	0.163
-237.873	-200.000	-0.007	0.296
-236.859	800.000	-0.080	-0.283
-235.844	6.396	-0.120	-0.088
-234.830	-11.194	0.228	-0.148
-233.815	-35.123	-0.074	-0.040
-232.800	-86.923	-0.034	0.010
-231.786	-166.414	0.321	0.013
-230.771	-200.000	0.307	-0.001
-229.757	137.764	0.152	0.197
-228.742	-154.360	-0.146	-0.010
-227.727	460.712	0.059	-0.130
-226.713	370.364	-0.189	0.379
-225.698	-104.894	-0.122	-0.028
-224.684	324.531	-0.196	0.369
-223.669	-200.000	-0.017	-0.151
-222.655	-132.372	-0.220	-0.028
-221.640	19.505	-0.247	-0.196
-220.625	800.000	-0.043	0.172
-219.611	-50.506	0.259	0.121
-218.596	175.089	0.021	-0.030
-217.582	800.000	-0.017	0.067
-216.567	391.785	0.072	-0.147
-215.552	-150.315	0.145	-0.011
-214.538	16.093	-0.049	-0.038
-213.523	-113.587	0.042	0.008
-212.509	106.625	0.141	0.165
-211.494	-137.253	0.150	-0.017
-210.479	-92.010	0.239	0.067
-209.465	-35.695	0.314	0.168
-208.450	-89.864	-0.390	-0.112
-207.436	-200.000	-0.017	0.386
-206.421	180.633	0.146	-0.211
-205.406	-90.574	0.193	0.055
-204.392	547.633	-0.050	0.118
-203.377	-3.144	-0.179	0.123
-202.363	-52.632	-0.342	0.156
-201.348	-37.114	0.181	-0.095
-200.333	-200.000	-0.037	0.168
-199.319	-1.544	-0.222	0.155
-198.304	-35.783	-0.218	-0.116
-197.290	241.956	-0.100	-0.164
-196.275	-95.785	0.250	-0.066
-195.260	241.566	-0.155	-0.254
-194.246	741.771	-0.134	-0.355
-193.231	-73.672	0.169	0.061
-192.217	-200.000	0.027	-0.293
-191.202	213.616	-0.052	0.081
-190.187	-116.270	-0.161	0.029
-189.173	-90.156	-0.206	-0.059
-188.158	62.277	0.206	0.203
-187.144	-139.631	-0.207	-0.022
-186.129	-67.662	0.348	0.134
-185.114	-36.398	0.121	-0.064
-184.100	-200.000	-0.024	-0.182
-183.085	246.114	-0.147	0.244
-182.071	23.236	0.064	0.052
-181.056	-157.275	-0.410	-0.024
-180.042	-200.000	-0.030	0.137
-179.027	410.596	0.208	0.434
-178.012	114.452	-0.073	0.088
-176.998	-94.247	-0.326	-0.088
-175.983	688.078	-0.076	0.196
-174.969	-61.735	-0.040	-0.016
-173.954	-87.834	0.120	0.036
-172.939	-189.424	-0.188	0.002
-171.925	-200.000	0.024	0.189
-170.910	706.237	0.148	0.385
-169.896	-200.000	0.003	0.165
-168.881	-43.893	-0.013	-0.007
-167.866	19.660	-0.241	0.191
-166.852	119.364	0.030	0.036
-165.837	109.008	0.252	-0.296
-164.823	-160.587	-0.214	0.011
-163.808	99.322	-0.219	0.250
-162.793	361.465	0.126	0.249
-161.779	-156.863	-0.180	-0.011
-160.764	-180.962	-0.289	0.006
-159.750	-200.000	-0.018	0.223
-158.735	-200.000	-0.002	0.290
-157.720	132.106	0.225	0.285
-156.706	387.949	-0.048	0.097
-155.691	203.107	0.088	-0.134
-154.677	354.084	-0.143	-0.280
-153.662	800.000	0.126	-0.380
-152.647	-200.000	0.000	0.074
-151.633	85.665	-0.092	-0.099
-150.618	-68.051	0.422	0.162
-149.604	-200.000	0.021	-0.191
-148.589	337.497	-0.075	-0.144
-147.574	-89.995	-0.381	0.109
-146.560	-200.000	-0.042	-0.373
-145.545	377.034	0.082	0.164
-144.531	-95.821	0.072	0.019
-143.516	-69.298	0.333	0.126
-142.502	-200.000	0.028	0.287
-141.487	288.913	-0.088	0.157
-140.472	493.508	-0.106	0.238
-139.458	800.000	0.117	0.331
-138.443	227.347	-0.058	0.092
-137.429	51.243	-0.031	-0.029
-136.414	384.859	0.141	0.285
-135.399	-111.825	0.306	0.061
-134.385	502.673	0.136	-0.308
-133.370	138.980	-0.053	0.068
-132.356	-17.432	-0.293	-0.181
-131.341	-101.650	0.209	-0.050
-130.326	-147.794	0.203	-0.017
-129.312	395.118	-0.110	0.225
-128.297	165.540	-0.091	-0.126
-127.283	-200.000	0.021	-0.196
-126.268	-88.153	-0.167	0.049
-125.253	-102.882	-0.107	0.025
-124.239	-63.209	0.328	-0.133
-123.224	69.750	0.120	0.121
-122.210	-2.554	0.203	0.140
-121.195	145.147	-0.210	0.276
-120.180	-42.543	-0.076	0.038
-119.166	-200.000	0.036	0.183
-118.151	-71.353	0.050	-0.018
-117.137	-200.000	-0.030	0.201
-116.122	-200.000	0.006	-0.119
-115.107	-55.654	0.227	-0.100
-114.093	-53.478	0.301	-0.135
-113.078	-200.000	-0.025	0.261
-112.064	8.453	0.180	-0.133
-111.049	-133.179	0.319	-0.040
-110.034	28.894	-0.271	-0.226
-109.020	-46.953	0.357	0.171
-108.005	-174.940	0.191	-0.005
-106.991	-200.000	-0.008	0.038
-105.976	-16.477	0.089	0.055
-104.962	486.382	0.134	0.301
-103.947	441.396	-0.247	0.530
-102.932	-200.000	0.016	0.354
-101.918	-57.684	0.147	-0.063
-100.903	-75.900	0.050	0.017
-99.889	58.258	0.322	0.310
-98.874	-145.119	0.142	-0.013
-97.859	-200.000	0.041	0.234
-96.845	479.155	-0.134	0.299
-95.830	116.467	-0.104	0.125
-94.816	-12.726	0.268	0.171
-93.801	108.674	-0.272	0.319
-92.786	-30.878	-0.097	0.054
-91.772	90.985	-0.198	-0.218
-90.757	502.197	0.102	-0.231
-89.743	-200.000	-0.015	0.097
-88.728	-63.453	-0.217	0.087
-87.713	800.000	0.089	0.356
-86.699	-59.085	-0.197	0.083
-85.684	800.000	-0.024	-0.070
-84.670	-65.985	0.235	0.092
-83.655	504.250	0.087	0.196
-82.640	800.000	0.033	0.110
-81.626	-42.611	0.031	-0.016
-80.611	109.159	-0.328	0.385
-79.597	25.175	-0.189	0.153
-78.582	800.000	-0.052	-0.215
-77.567	784.384	0.102	-0.274
-76.553	41.888	0.107	0.095
-75.538	-22.917	-0.184	-0.109
-74.524	139.782	-0.196	0.253
-73.509	26.859	-0.240	-0.197
-72.494	539.827	0.215	0.502
-71.480	17.764	0.040	-0.031
-70.465	800.000	-0.018	-0.052
-69.451	-26.099	0.484	0.279
-68.436	-47.505	-0.111	-0.053
-67.422	340.561	-0.005	0.010
-66.407	-98.073	-0.276	0.070
-65.392	707.950	0.148	0.383
-64.378	134.467	0.098	0.125
-63.363	-27.483	-0.245	0.140
-62.349	-200.000	0.000	0.505
-61.334	13.143	-1.340	-1.016
-60.319	0.843	0.822	0.577
-59.305	-200.000	-0.203	-1.069
-58.290	310.515	0.822	1.507
-57.276	800.000	0.528	1.476
-56.261	-200.000	106.306	623.492
-55.246	526.847	1503.814	3471.053
-54.232	177.483	2694.850	3845.378
-53.217	112.240	2156.605	2553.869
-52.203	41.370	1596.082	1414.054
-51.188	33.056	1332.640	1131.101
-50.173	29.929	1291.711	1078.140
-49.159	54.339	1346.270	1269.477
-48.144	54.366	1361.801	1284.234
-47.130	33.004	1316.703	1117.092
-46.115	29.655	1298.506	1082.037
-45.100	29.384	1293.904	1076.579
-44.086	29.306	1291.336	1073.941
-43.071	29.283	1288.578	1071.471
-42.057	29.389	1286.120	1070.000
-41.042	29.274	1285.374	1068.671
-40.027	29.376	1283.308	1067.504
-39.013	29.375	1281.242	1065.735
-37.998	29.407	1279.666	1064.569
-36.984	29.427	1277.963	1063.220
-35.969	29.431	1276.134	1061.684
-34.954	29.455	1274.510	1060.429
-33.940	29.452	1273.146	1059.232
-32.925	29.546	1271.494	1058.357
-31.911	29.542	1270.484	1057.452
-30.896	29.505	1269.031	1055.985
-29.881	29.470	1267.825	1054.740
-28.867	29.596	1266.417	1054.250
-27.852	29.540	1264.668	1052.428
-26.838	29.627	1263.157	1051.627
-25.823	29.566	1262.480	1050.676
-24.809	29.431	1261.163	1048.772
-23.794	29.456	1260.071	1047.960
-22.779	29.505	1258.138	1046.590
-21.765	29.493	1257.143	1045.656
-20.750	29.501	1255.928	1044.645
-19.736	29.458	1254.507	1043.181
-18.721	29.464	1252.785	1041.738
-17.706	29.464	1251.977	1041.024
-16.692	29.400	1251.271	1040.036
-15.677	29.380	1250.191	1038.987
-14.663	29.335	1249.129	1037.807
-13.648	29.294	1247.808	1036.440
-12.633	29.376	1247.393	1036.515
-11.619	29.367	1246.191	1035.423
-10.604	29.390	1245.216	1034.705
-9.590	29.351	1244.389	1033.755
-8.575	29.288	1243.432	1032.565
-7.560	29.434	1242.478	1032.549
-6.546	29.368	1241.806	1031.582
-5.531	29.399	1240.810	1030.889
-4.517	29.410	1240.009	1030.243
-3.502	29.389	1239.101	1029.331
-2.487	29.356	1238.448	1028.561
-1.473	29.304	1234.190	1024.694
-0.458	27.812	1219.056	1003.891
0.556	22.163	1202.351	967.026
1.571	18.559	1207.698	951.284
2.586	17.883	1221.956	958.637
3.600	17.639	1211.184	948.742
4.615	12.877	1140.622	868.367
5.629	4.100	1066.418	768.418
6.644	-0.049	1047.290	734.327
7.659	-0.391	1044.413	730.581
8.673	-0.384	1043.298	729.768
9.688	-0.444	1041.998	728.502
10.702	-0.163	1040.669	728.875
11.717	5.521	1047.829	761.542
12.731	14.610	1060.562	815.317
13.746	19.129	1066.202	841.729
14.761	19.963	1067.045	846.397
15.775	19.891	1066.594	845.612
16.790	19.595	1065.689	843.375
17.804	19.647	1065.039	843.038
18.819	19.715	1064.744	843.062
19.834	19.863	1064.463	843.490
20.848	19.797	1063.878	842.626
21.863	19.744	1063.441	841.948
22.877	19.675	1063.222	841.368
23.892	19.539	1062.233	839.849
24.907	19.838	1061.194	840.405
25.921	19.692	1059.964	838.648
26.936	19.709	1058.959	837.858
27.950	19.693	1056.920	836.093
28.965	19.456	1055.497	833.748
29.980	19.644	1053.615	833.096
30.994	19.797	1052.515	832.891
32.009	19.698	1051.545	831.575
33.023	19.537	1050.123	829.600
34.038	19.719	1049.484	829.899
35.053	19.921	1048.802	830.251
36.067	19.861	1048.042	829.290
37.082	19.860	1047.323	828.645
38.096	19.941	1046.548	828.345
39.111	20.123	1045.581	828.377
40.126	19.932	1044.307	826.381
41.140	19.527	1042.439	822.901
42.155	19.516	1040.741	821.435
43.169	19.581	1040.237	821.275
44.184	19.579	1039.293	820.446
45.199	19.620	1037.788	819.379
46.213	19.542	1036.804	818.162
47.228	19.512	1036.465	817.679
48.242	19.675	1035.353	817.499
49.257	19.739	1034.424	816.998
50.271	19.800	1033.918	816.814
51.286	19.803	1033.168	816.163
52.301	19.681	1032.315	814.842
53.315	19.842	1031.073	814.547
54.330	19.657	1030.280	812.977
55.344	19.791	1029.714	813.088
56.359	19.610	1028.797	811.442
57.374	19.649	1027.345	810.411
58.388	19.631	1026.722	809.760
59.403	19.597	1025.782	808.791
60.417	19.658	1024.452	807.952
61.432	19.513	1024.029	806.871
62.447	19.734	1023.161	807.149
63.461	19.607	1023.024	806.377
64.476	19.488	1021.846	804.823
65.490	19.555	1020.554	804.044
66.505	19.660	1020.407	804.348
67.520	19.644	1019.436	803.434
68.534	19.451	1018.218	801.509
69.549	19.226	1016.596	799.116
70.563	19.200	1015.963	798.427
71.578	19.356	1015.268	798.533
72.593	19.048	1014.632	796.536
73.607	19.300	1013.991	797.127
74.622	19.502	1013.816	797.857
75.636	19.553	1012.840	797.252
76.651	19.402	1012.071	795.880
77.666	19.199	1011.602	794.502
78.680	19.385	1010.156	794.152
79.695	19.386	1010.069	794.020
80.709	19.433	1009.239	793.515
81.724	19.396	1008.253	792.499
82.739	19.530	1007.192	792.207
83.753	19.945	1006.790	793.728
84.768	20.047	1005.651	793.225
85.782	19.919	1005.546	792.484
86.797	20.010	1004.202	791.773
87.812	20.017	1002.892	790.704
88.826	20.033	1001.735	789.791
89.841	19.978	1001.410	789.213
90.855	20.034	1000.099	788.365
91.870	19.972	999.336	787.416
92.884	19.864	998.189	785.949
93.899	19.822	997.132	784.859
94.914	20.013	996.420	785.095
95.928	19.842	995.062	783.181
96.943	19.665	993.766	781.290
97.957	19.312	993.455	779.382
98.972	19.377	991.322	777.934
99.987	19.512	991.256	778.421
101.001	19.631	990.792	778.525
102.016	19.678	989.514	777.663
103.030	19.648	988.493	776.655
104.045	19.502	987.322	775.012
105.060	19.296	986.200	773.137
106.074	19.603	985.716	774.065
107.089	19.988	984.949	775.121
108.103	19.813	984.032	773.547
109.118	19.607	982.639	771.463
110.133	19.722	981.492	771.007
111.147	19.480	980.307	768.931
112.162	19.333	979.243	767.376
113.176	19.529	978.874	767.890
114.191	19.387	977.844	766.380
115.206	19.200	976.675	764.567
116.220	19.296	975.409	763.935
117.235	19.347	975.241	763.961
118.249	19.366	974.319	763.255
119.264	19.207	973.309	761.692
120.279	19.384	972.516	761.789
121.293	19.415	972.044	761.487
122.308	19.451	970.941	760.716
123.322	19.388	969.364	759.134
124.337	19.323	968.416	758.038
125.352	18.866	966.666	754.596
126.366	18.837	965.943	753.838
127.381	19.561	965.454	756.561
128.395	19.891	964.972	757.562
129.410	19.927	964.517	757.298
130.424	19.835	963.075	755.697
131.439	19.777	962.247	754.725
132.454	19.723	961.455	753.802
133.468	19.798	960.031	752.944
134.483	19.882	959.771	753.042
135.497	20.038	958.732	752.838
136.512	20.094	958.294	752.668
137.527	20.012	957.204	751.392
138.541	20.090	956.374	751.011
139.556	19.980	955.948	750.134
140.570	19.983	955.027	749.356
141.585	20.132	953.567	748.791
142.600	20.000	952.945	747.665
143.614	20.147	952.168	747.623
144.629	20.279	951.249	747.405
145.643	20.139	949.791	745.589
146.658	19.983	948.527	743.863
147.673	20.099	947.409	743.415
148.687	19.795	946.948	741.685
149.702	19.836	945.717	740.830
150.716	19.817	944.908	740.052
151.731	20.032	943.903	740.118
152.746	20.169	943.566	740.371
153.760	20.223	943.051	740.134
154.775	20.153	942.464	739.309
155.789	20.148	941.630	738.569
156.804	20.193	940.067	737.466
157.819	20.260	939.362	737.136
158.833	20.345	938.938	737.097
159.848	20.269	937.918	735.910
160.862	20.047	936.850	734.067
161.877	20.212	935.793	733.872
162.892	20.336	934.931	733.655
163.906	20.233	933.839	732.296
164.921	20.107	933.024	731.062
165.935	20.219	932.398	730.977
166.950	20.264	931.225	730.186
167.964	20.153	930.733	729.266
168.979	20.195	928.793	727.859
169.994	19.951	928.473	726.520
171.008	20.218	927.877	727.111
172.023	20.252	926.588	726.175
173.037	20.171	925.240	724.715
174.052	19.941	924.986	723.495
175.067	19.947	924.518	723.090
176.081	20.128	923.811	723.227
177.096	19.995	923.249	722.168
178.110	19.767	921.616	719.876
179.125	19.644	921.335	719.082
180.140	19.722	920.977	719.066
181.154	19.758	920.660	718.904
182.169	20.102	920.340	720.017
183.183	20.190	919.707	719.825
184.198	20.127	918.858	718.835
185.213	20.058	917.979	717.797
186.227	20.204	917.193	717.724
187.242	20.210	916.528	717.166
188.256	20.256	915.908	716.805
189.271	20.295	914.950	716.155
190.286	19.941	914.400	714.202
191.300	19.506	912.734	711.046
192.315	18.765	911.274	706.795
193.329	18.615	911.483	706.277
194.344	19.533	911.186	709.759
195.359	20.059	911.235	711.897
196.373	20.270	910.092	711.809
197.388	19.934	910.270	710.508
198.402	19.952	909.340	709.792
199.417	19.966	908.310	708.981
200.432	19.704	907.288	707.049
201.446	19.510	906.528	705.602
202.461	19.747	905.769	705.916
203.475	18.772	904.604	700.969
204.490	18.107	903.145	697.065
205.504	18.979	903.543	700.866
206.519	19.593	903.590	703.343
207.534	19.819	902.909	703.667
208.548	20.185	902.418	704.712
209.563	19.952	901.572	703.043
210.577	19.877	901.095	702.303
211.592	20.248	900.489	703.275
212.607	20.216	899.399	702.230
213.621	20.234	898.814	701.786
214.636	20.314	898.319	701.658
215.650	20.214	897.261	700.366
216.665	20.183	897.243	700.165
217.680	20.240	896.295	699.595
218.694	19.800	894.858	696.638
219.709	19.737	893.979	695.639
220.723	20.076	893.679	696.707
221.738	20.148	893.238	696.591
222.753	20.144	892.497	695.937
223.767	20.130	891.929	695.376
224.782	20.304	891.572	695.732
225.796	20.469	890.984	695.874
226.811	19.716	889.992	692.024
227.826	19.140	888.523	688.517
228.840	19.260	888.087	688.597
229.855	19.356	887.054	688.118
230.869	19.089	885.882	686.084
231.884	19.513	886.083	687.871
232.899	20.146	886.184	690.410
233.913	19.960	885.307	688.924
234.928	20.111	884.560	688.882
235.942	19.962	884.073	687.850
236.957	19.694	883.180	686.030
237.972	19.713	882.540	685.550
238.986	19.906	881.639	685.553
240.001	19.787	881.442	684.870
241.015	19.949	880.687	684.863
242.030	19.951	880.374	684.566
243.045	19.966	880.223	684.449
244.059	20.216	879.334	684.683
245.074	19.941	878.273	682.712
246.088	19.749	877.243	681.095
247.103	20.023	876.891	681.840
248.117	20.539	877.002	683.897
249.132	20.736	876.292	684.058
250.147	20.666	875.881	683.398
251.161	20.866	875.377	683.732
252.176	20.877	874.785	683.250
253.190	20.919	874.160	682.869
254.205	21.213	873.700	683.600
255.220	20.991	873.027	682.143
256.234	20.902	871.904	680.857
257.249	20.884	871.251	680.215
258.263	20.893	870.321	679.467
259.278	20.946	870.113	679.450
260.293	20.977	869.362	678.925
261.307	20.811	868.429	677.491
262.322	20.759	867.688	676.648
263.336	19.892	865.855	671.797
264.351	18.767	863.668	665.682
265.366	18.992	863.586	666.430
266.380	20.096	864.323	671.222
267.395	20.618	863.822	672.791
268.409	20.544	863.057	671.849
269.424	20.691	862.761	672.127
270.439	20.674	862.624	671.898
271.453	20.712	862.459	671.856
272.468	20.936	861.612	671.998
273.482	20.952	861.133	671.629
274.497	20.646	859.921	669.444
275.512	20.252	859.060	667.200
276.526	20.613	859.011	668.493
277.541	20.922	858.087	668.901
278.555	20.680	857.283	667.285
279.570	20.396	856.987	665.907
280.585	20.581	856.317	666.039
281.599	20.590	855.309	665.228
282.614	20.119	854.050	662.390
283.628	20.095	853.535	661.839
284.643	20.481	853.398	663.149
285.657	19.962	852.283	660.246
286.672	19.780	851.263	658.705
287.687	20.352	851.192	660.770
288.701	20.476	850.237	660.442
289.716	20.048	849.660	658.308
290.730	20.009	848.986	657.578
291.745	19.825	848.062	656.109
292.760	20.142	848.048	657.240
293.774	21.077	848.155	660.807
294.789	21.405	847.666	661.611
295.803	21.352	847.274	661.046
296.818	21.385	847.065	660.948
297.833	21.039	845.702	658.522
298.847	20.830	845.134	657.232
299.862	21.186	844.464	657.995
300.876	21.432	844.436	658.840
301.891	21.187	843.699	657.287
302.906	20.718	842.701	654.687
303.920	20.892	842.733	655.309
304.935	21.177	842.165	655.877
305.949	21.289	841.168	655.466
306.964	20.998	840.632	653.898
307.979	21.230	840.159	654.341
308.993	21.544	840.153	655.456
310.008	21.484	839.106	654.355
311.022	21.151	838.800	652.815
312.037	21.051	838.149	651.876
313.052	20.879	837.029	650.307
314.066	20.102	835.785	646.386
315.081	19.746	835.288	644.615
316.095	20.672	835.035	647.813
317.110	20.975	835.180	648.997
318.125	20.225	833.385	644.756
319.139	19.303	832.100	640.284
320.154	19.294	831.955	640.081
321.168	20.257	832.169	643.765
322.183	20.715	832.286	645.496
323.197	20.870	832.018	645.807
324.212	21.144	831.688	646.509
325.227	21.223	830.841	646.085
326.241	21.074	830.228	645.002
327.256	20.892	829.744	643.896
328.270	20.963	828.739	643.318
329.285	20.718	828.178	641.923
330.300	20.548	827.331	640.584
331.314	20.800	826.931	641.146
332.329	21.056	826.894	642.004
333.343	21.191	826.435	642.087
334.358	21.147	826.444	641.876
335.373	21.243	825.766	641.645
336.387	21.613	825.768	642.946
337.402	21.687	825.364	642.848
338.416	21.387	825.414	641.729
339.431	21.540	824.737	641.707
340.446	21.838	824.273	642.380
341.460	21.526	823.935	640.918
342.475	21.436	823.125	639.901
343.489	21.447	822.888	639.700
344.504	21.864	822.271	640.686
345.519	21.875	822.320	640.709
346.533	21.828	821.959	640.200
347.548	22.018	821.302	640.325
348.562	21.895	820.755	639.393
349.577	22.042	819.850	639.166
350.592	21.959	819.337	638.411
351.606	21.922	818.509	637.572
352.621	21.822	817.859	636.648
353.635	21.739	816.949	635.582
354.650	20.953	815.430	631.496
355.665	20.203	813.954	627.585
356.679	20.635	814.192	629.276
357.694	21.048	813.707	630.339
358.708	20.947	813.140	629.478
359.723	21.505	812.939	631.281
360.738	21.589	812.639	631.296
361.752	21.814	812.044	631.588
362.767	22.038	811.443	631.871
363.781	22.140	811.338	632.100
364.796	22.261	810.892	632.130
365.810	22.274	810.209	631.591
366.825	22.169	810.379	631.288
367.840	21.963	809.292	629.648
368.854	21.570	808.695	627.717
369.869	21.646	807.928	627.339
370.883	21.779	807.602	627.509
371.898	21.545	807.012	626.155
372.913	21.572	806.908	626.117
373.927	21.697	806.824	626.444
374.942	21.969	806.073	626.776
375.956	22.085	805.728	626.866
376.971	21.934	805.614	626.185
377.986	22.268	804.907	626.768
379.000	22.144	804.355	625.841
380.015	21.996	803.724	624.771
381.029	22.146	803.082	624.747
382.044	22.277	802.614	624.794
383.059	22.193	802.242	624.151
384.073	22.255	801.558	623.784
385.088	22.161	801.257	623.162
386.102	22.038	800.355	621.968
387.117	22.216	799.411	621.810
388.132	21.571	798.766	618.973
389.146	21.334	797.549	617.139
390.161	21.582	797.534	617.947
391.175	22.011	797.379	619.285
392.190	21.774	796.534	617.739
393.205	20.485	794.284	611.408
394.219	19.169	792.838	605.616
395.234	19.217	792.740	605.657
396.248	20.784	793.932	612.026
397.263	21.994	794.688	616.810
398.278	21.778	794.322	615.713
399.292	21.689	793.471	614.687
400.307	21.661	793.158	614.289
401.321	21.984	792.461	614.828
402.336	22.058	792.681	615.203
403.350	22.600	792.493	616.898
404.365	22.844	792.443	617.659
405.380	22.953	791.750	617.445
406.394	22.969	791.337	617.125
407.409	22.805	790.887	616.149
408.423	22.765	790.702	615.810
409.438	22.840	790.502	615.860
410.453	22.798	789.834	615.140
411.467	23.001	789.033	615.167
412.482	22.904	788.935	614.701
413.496	22.934	788.473	614.388
414.511	23.114	787.756	614.401
415.526	23.026	787.487	613.833
416.540	22.820	786.932	612.631
417.555	22.591	786.068	611.109
418.569	22.572	785.960	610.906
419.584	22.406	785.105	609.612
420.599	22.531	784.365	609.415
421.613	159.000	1363.174	1799.167
422.628	137.578	1447.509	1799.258
