DTS Sentinel unit serial number:	SN413079Multiplexer serial number:	ORYXHardware model number:	OX4-SRSoftware version number:	ORYX F/W v4.00 Oryx Data Collector v3.7.2.0data status	okinstallation	princeton_trtdifferential loss correction	single-endedforward channel	channel 1reverse channel	N/Adate	2019/09/12time	12:40:11forward acquisition time	60.00reverse acquisition time	0.00gamma	496.2192k internal	0.2291k external	0.2291temperature offset calibration	1.0044default loss term (dB/km)	0.3790temperature slope calibration	1.0000multiplexer offset coefficient	1.0000multiplexer slope coefficient	1.0000fibre end	0.00T internal ref (°C)	40.48T ext. ref 1 (°C)	2.03T ext. ref 2 (°C)	36.42length (m)	temperature (°C)	Stokes	anti-Stokes-747.200	-42.276	0.160	-0.084
-746.185	-22.568	-0.094	0.058
-745.171	162.848	0.219	-0.314
-744.156	-200.000	0.016	0.253
-743.142	430.800	0.027	0.060
-742.127	-82.228	-0.404	-0.135
-741.112	462.965	0.113	-0.258
-740.098	-200.000	0.042	-0.319
-739.083	-200.000	-0.016	-0.401
-738.069	-73.334	0.064	-0.024
-737.054	-200.000	-0.002	-0.110
-736.039	-148.980	0.158	0.013
-735.025	305.485	0.081	-0.155
-734.010	-34.626	-0.218	-0.122
-732.996	-62.974	0.236	0.100
-731.981	3.468	-0.287	-0.214
-730.966	-27.388	0.127	0.076
-729.952	-200.000	0.094	-0.510
-728.937	-4.557	-0.090	-0.064
-727.923	-200.000	0.054	-0.487
-726.908	-200.000	0.026	-0.188
-725.894	5.054	-0.199	-0.150
-724.879	-137.028	-0.305	-0.036
-723.864	-27.868	-0.313	0.185
-722.850	597.092	-0.152	-0.386
-721.835	112.477	-0.089	-0.110
-720.821	-200.000	-0.071	0.332
-719.806	-92.969	-0.376	0.107
-718.791	578.640	-0.144	-0.361
-717.777	360.472	0.286	-0.585
-716.762	14.371	-0.070	-0.056
-715.748	-200.000	0.002	0.099
-714.733	-200.000	0.020	-0.364
-713.718	213.551	0.080	0.130
-712.704	-105.634	0.191	-0.044
-711.689	-200.000	-0.015	-0.181
-710.675	-112.136	-0.188	-0.039
-709.660	-49.481	0.326	0.159
-708.645	-82.355	0.313	-0.104
-707.631	-58.946	0.045	0.020
-706.616	-97.950	-0.380	0.100
-705.602	166.747	-0.104	-0.151
-704.587	-21.515	-0.171	0.107
-703.572	129.504	0.120	-0.157
-702.558	-101.941	0.050	-0.012
-701.543	425.407	0.023	0.051
-700.529	-200.000	-0.029	-0.159
-699.514	139.103	-0.105	0.141
-698.499	-9.175	0.078	-0.053
-697.485	-154.963	0.132	0.009
-696.470	58.356	0.172	0.173
-695.456	-97.390	-0.159	0.042
-694.441	569.957	0.137	0.340
-693.426	500.788	0.126	0.297
-692.412	-200.000	0.013	-0.120
-691.397	-172.520	-0.441	-0.014
-690.383	76.238	-0.053	-0.057
-689.368	349.186	-0.203	0.410
-688.354	-39.897	-0.214	0.114
-687.339	-186.733	-0.083	0.001
-686.324	-138.862	-0.196	0.022
-685.310	-92.255	0.166	0.048
-684.295	-200.000	0.001	0.256
-683.281	-97.102	-0.347	-0.093
-682.266	115.252	-0.085	-0.106
-681.251	770.969	0.084	-0.234
-680.237	105.027	-0.139	-0.168
-679.222	-200.000	0.011	-0.269
-678.208	157.637	-0.070	0.098
-677.193	-183.435	0.092	-0.002
-676.178	190.027	-0.191	0.293
-675.164	-170.485	-0.387	-0.014
-674.149	800.000	0.089	0.290
-673.135	-200.000	-0.017	0.382
-672.120	800.000	0.029	-0.096
-671.105	22.876	-0.079	0.066
-670.091	103.734	-0.056	0.067
-669.076	608.468	-0.056	-0.142
-668.062	-7.115	-0.325	-0.225
-667.047	64.311	-0.231	0.238
-666.032	-84.846	-0.191	0.061
-665.018	-93.353	0.184	-0.052
-664.003	789.625	0.036	-0.101
-662.989	-149.191	-0.309	-0.025
-661.974	-200.000	0.020	0.217
-660.959	635.451	-0.072	-0.186
-659.945	-200.000	-0.008	-0.122
-658.930	-200.000	-0.052	0.270
-657.916	142.987	-0.138	-0.187
-656.901	-200.000	-0.004	0.159
-655.886	-185.657	0.087	-0.001
-654.872	-4.760	0.165	-0.116
-653.857	-137.803	-0.375	0.043
-652.843	69.110	0.144	-0.151
-651.828	-10.677	0.110	0.074
-650.814	-20.514	-0.013	0.008
-649.799	-200.000	0.030	0.134
-648.784	-102.352	-0.170	-0.042
-647.770	47.050	0.123	-0.116
-646.755	-104.623	0.162	0.038
-645.741	-92.053	0.353	0.102
-644.726	-33.369	-0.250	-0.141
-643.711	559.586	0.074	-0.182
-642.697	127.199	-0.140	0.181
-641.682	166.745	0.112	0.161
-640.668	-200.000	-0.005	0.148
-639.653	23.133	0.333	0.278
-638.638	-15.825	0.218	0.142
-637.624	160.819	-0.102	0.145
-636.609	800.000	-0.031	0.123
-635.595	-182.994	0.277	0.005
-634.580	32.595	-0.167	-0.147
-633.565	-123.936	-0.212	0.034
-632.551	-94.131	-0.110	-0.031
-631.536	-28.164	-0.084	-0.050
-630.522	-91.759	0.275	-0.080
-629.507	-172.712	0.269	-0.009
-628.492	800.000	0.026	-0.073
-627.478	-200.000	-0.023	-0.212
-626.463	-200.000	0.039	-0.440
-625.449	88.801	0.027	0.031
-624.434	-37.235	0.105	0.057
-623.419	211.309	0.134	0.214
-622.405	-131.776	-0.337	-0.045
-621.390	-51.995	0.211	0.100
-620.376	-73.364	-0.401	0.149
-619.361	-121.237	0.196	0.033
-618.346	800.000	0.010	0.036
-617.332	127.583	-0.155	0.201
-616.317	800.000	0.090	-0.320
-615.303	120.900	0.136	-0.172
-614.288	39.875	0.272	-0.249
-613.273	55.005	0.196	-0.193
-612.259	-43.884	-0.164	-0.084
-611.244	-101.666	-0.297	0.073
-610.230	322.299	0.119	0.230
-609.215	-34.702	-0.093	0.052
-608.201	-200.000	0.076	0.000
-607.186	197.642	-0.196	-0.305
-606.171	-200.000	0.010	0.175
-605.157	-97.347	0.128	-0.034
-604.142	410.036	0.046	-0.099
-603.128	-36.392	0.222	0.122
-602.113	75.281	-0.268	0.288
-601.098	-59.610	-0.218	-0.095
-600.084	17.496	-0.164	-0.133
-599.069	-43.671	-0.124	-0.064
-598.055	-163.431	0.316	0.015
-597.040	-200.000	-0.006	0.223
-596.025	30.566	0.348	-0.303
-595.011	226.029	0.093	-0.154
-593.996	7.620	0.177	0.135
-592.982	-125.298	0.167	0.026
-591.967	139.909	0.087	0.117
-590.952	30.616	0.145	-0.126
-589.938	-167.850	0.348	-0.014
-588.923	-104.843	0.358	0.084
-587.909	339.630	0.199	0.396
-586.894	137.188	-0.258	-0.343
-585.879	268.634	0.085	-0.151
-584.865	-37.634	0.356	-0.193
-583.850	499.454	-0.091	0.213
-582.836	661.403	0.032	-0.083
-581.821	-200.000	-0.063	-0.474
-580.806	-22.124	0.114	-0.070
-579.792	45.692	0.098	-0.093
-578.777	177.000	-0.152	-0.226
-577.763	-200.000	0.009	-0.087
-576.748	257.843	0.172	-0.302
-575.733	-200.000	-0.016	-0.121
-574.719	14.307	0.099	0.079
-573.704	120.876	-0.097	0.123
-572.690	-22.348	0.112	-0.069
-571.675	-75.413	0.192	0.069
-570.661	-200.000	0.004	-0.071
-569.646	262.274	-0.135	-0.238
-568.631	48.804	0.217	0.207
-567.617	-60.514	0.197	0.085
-566.602	7.138	-0.351	-0.266
-565.588	2.586	-0.213	0.157
-564.573	48.734	-0.031	0.030
-563.558	-43.699	0.223	-0.114
-562.544	140.058	-0.156	0.209
-561.529	-102.811	0.328	0.079
-560.515	-200.000	0.016	-0.263
-559.500	800.000	0.071	-0.213
-558.485	-156.439	-0.131	0.008
-557.471	87.921	-0.154	0.173
-556.456	109.365	0.105	-0.128
-555.442	-200.000	0.059	-0.316
-554.427	279.544	0.043	-0.078
-553.412	196.789	-0.220	-0.341
-552.398	-60.899	0.105	-0.045
-551.383	152.852	0.144	0.200
-550.369	-68.544	0.085	0.033
-549.354	1.645	-0.287	0.210
-548.339	-112.253	0.123	0.025
-547.325	-49.345	0.411	-0.200
-546.310	-166.460	0.091	0.004
-545.296	-77.010	0.028	-0.010
-544.281	-1.444	-0.121	0.087
-543.266	-124.017	-0.127	-0.020
-542.252	-33.412	0.193	-0.108
-541.237	116.790	0.133	-0.166
-540.223	-57.969	-0.298	-0.132
-539.208	-157.167	-0.327	0.020
-538.193	-200.000	0.014	0.201
-537.179	137.473	0.112	0.149
-536.164	-60.092	-0.139	-0.060
-535.150	-200.000	0.020	0.187
-534.135	-63.658	-0.089	0.037
-533.121	-104.354	-0.369	0.087
-532.106	-151.434	-0.342	-0.026
-531.091	126.178	-0.056	0.072
-530.077	286.520	-0.177	-0.324
-529.062	-200.000	-0.018	0.261
-528.048	-65.472	-0.246	0.100
-527.033	60.760	0.326	0.328
-526.018	-200.000	0.124	0.000
-525.004	-105.018	-0.213	0.049
-523.989	-200.000	0.024	-0.461
-522.975	-200.000	0.021	0.153
-521.960	1.642	-0.412	0.301
-520.945	499.727	0.032	0.075
-519.931	-68.975	-0.130	0.051
-518.916	-13.918	-0.149	-0.098
-517.902	21.382	0.091	-0.075
-516.887	-48.777	-0.048	0.023
-515.872	800.000	-0.076	0.322
-514.858	180.017	-0.119	0.177
-513.843	-200.000	-0.015	-0.241
-512.829	-200.000	0.034	-0.444
-511.814	-117.065	0.211	0.039
-510.799	429.864	-0.028	0.061
-509.785	-35.740	-0.200	-0.110
-508.770	159.840	-0.180	-0.255
-507.756	147.970	-0.056	0.077
-506.741	-200.000	0.010	0.199
-505.726	-136.689	0.104	-0.012
-504.712	197.869	-0.094	0.145
-503.697	27.654	-0.173	-0.148
-502.683	-181.235	-0.244	0.005
-501.668	-4.446	-0.154	0.108
-500.653	390.704	-0.157	0.330
-499.639	-62.245	0.110	0.046
-498.624	520.684	-0.030	0.072
-497.610	-200.000	0.029	-0.180
-496.595	251.289	0.035	0.060
-495.581	58.948	-0.199	0.199
-494.566	-38.192	0.093	-0.050
-493.551	-37.852	0.387	0.209
-492.537	176.430	-0.264	0.389
-491.522	800.000	0.028	-0.103
-490.508	114.188	-0.167	-0.206
-489.493	-200.000	0.031	-0.217
-488.478	-107.663	0.278	-0.062
-487.464	63.971	-0.125	0.127
-486.449	134.969	0.053	-0.069
-485.435	800.000	-0.017	-0.067
-484.420	-200.000	0.030	0.199
-483.405	-200.000	0.046	-0.211
-482.391	-200.000	-0.020	-0.096
-481.376	206.157	0.097	0.152
-480.362	-136.069	-0.274	-0.033
-479.347	800.000	0.039	-0.161
-478.332	-200.000	0.006	-0.102
-477.318	800.000	0.111	0.317
-476.303	10.248	-0.182	0.140
-475.289	53.213	-0.105	-0.102
-474.274	23.704	0.163	0.136
-473.259	61.128	-0.176	0.177
-472.245	-172.973	-0.090	0.003
-471.230	381.750	-0.140	0.292
-470.216	-101.415	0.219	-0.054
-469.201	-147.218	0.074	0.006
-468.186	800.000	0.018	-0.072
-467.172	659.473	0.073	-0.190
-466.157	-124.389	-0.205	0.032
-465.143	85.687	-0.167	0.185
-464.128	800.000	-0.080	0.269
-463.113	8.304	-0.242	0.184
-462.099	-200.000	-0.005	0.026
-461.084	-188.150	-0.126	0.002
-460.070	800.000	0.060	-0.213
-459.055	-17.369	0.227	-0.145
-458.040	-76.644	-0.242	0.086
-457.026	800.000	0.009	0.041
-456.011	182.800	-0.052	-0.077
-454.997	800.000	-0.131	-0.380
-453.982	291.971	0.194	-0.357
-452.968	9.261	-0.112	0.086
-451.953	60.945	-0.121	-0.122
-450.938	268.658	0.114	-0.202
-449.924	-29.258	0.099	-0.057
-448.909	-142.779	0.214	-0.021
-447.895	-16.555	0.152	-0.098
-446.880	-152.627	-0.275	0.020
-445.865	-200.000	-0.026	0.173
-444.851	-115.208	0.103	-0.020
-443.836	-200.000	-0.044	0.238
-442.822	351.839	-0.116	0.232
-441.807	-200.000	-0.018	-0.155
-440.792	-102.402	-0.186	0.045
-439.778	-200.000	0.032	-0.355
-438.763	-200.000	0.019	0.353
-437.749	361.640	-0.048	0.098
-436.734	9.753	0.186	0.142
-435.719	-59.147	0.287	-0.125
-434.705	51.843	-0.287	0.276
-433.690	-131.701	0.224	0.030
-432.676	-53.818	-0.207	-0.096
-431.661	-101.873	-0.274	0.067
-430.646	800.000	0.026	-0.084
-429.632	-74.119	-0.237	-0.087
-428.617	800.000	-0.090	0.284
-427.603	336.184	0.140	0.276
-426.588	-16.275	0.250	-0.161
-425.573	528.544	0.013	-0.030
-424.559	800.000	-0.023	-0.079
-423.544	-200.000	0.016	0.221
-422.530	800.000	-0.041	0.148
-421.515	-110.896	0.259	0.054
-420.500	154.773	-0.132	0.184
-419.486	517.806	-0.062	0.147
-418.471	46.101	0.156	0.146
-417.457	-200.000	-0.020	0.306
-416.442	239.257	0.085	-0.142
-415.428	725.297	-0.085	-0.229
-414.413	182.873	0.052	-0.077
-413.398	266.649	-0.096	-0.170
-412.384	-30.068	0.053	-0.031
-411.369	800.000	0.082	0.260
-410.355	-147.453	0.040	-0.003
-409.340	645.765	0.099	0.256
-408.325	-156.099	-0.416	0.027
-407.311	559.197	-0.076	-0.185
-406.296	7.038	0.156	-0.118
-405.282	54.650	0.299	-0.292
-404.267	-84.109	-0.136	-0.044
-403.252	-158.296	0.250	0.015
-402.238	800.000	0.098	-0.351
-401.223	8.313	0.092	0.070
-400.209	-136.080	0.210	0.025
-399.194	800.000	-0.004	-0.018
-398.179	-200.000	0.024	0.152
-397.165	-200.000	0.051	0.404
-396.150	-15.637	-0.309	-0.199
-395.136	-118.667	0.017	-0.003
-394.121	-98.751	0.483	-0.124
-393.106	-84.381	0.446	-0.142
-392.092	-98.097	0.104	-0.027
-391.077	-86.269	-0.125	-0.039
-390.063	-38.266	-0.072	0.039
-389.048	-123.354	0.075	-0.012
-388.033	20.852	0.576	0.471
-387.019	-169.010	0.181	0.007
-386.004	237.086	-0.112	0.187
-384.990	75.380	-0.099	0.106
-383.975	299.219	-0.157	-0.293
-382.960	-200.000	0.026	0.178
-381.946	-54.108	0.091	0.042
-380.931	-200.000	0.018	0.226
-379.917	800.000	-0.093	0.262
-378.902	-136.882	-0.073	-0.008
-377.888	-103.735	-0.294	-0.069
-376.873	225.642	0.185	0.303
-375.858	-200.000	0.006	-0.103
-374.844	202.824	0.119	-0.186
-373.829	217.662	-0.105	-0.169
-372.815	685.224	-0.040	-0.106
-371.800	76.866	0.264	0.283
-370.785	-68.089	-0.371	0.146
-369.771	-102.437	0.081	0.020
-368.756	-96.881	-0.181	-0.048
-367.742	-200.000	-0.004	-0.034
-366.727	125.217	-0.307	-0.390
-365.712	-8.088	-0.271	-0.184
-364.698	-127.068	-0.160	0.024
-363.683	-103.114	0.385	0.092
-362.669	304.562	0.143	-0.269
-361.654	346.143	-0.185	-0.367
-360.639	-151.413	-0.293	0.022
-359.625	-169.380	0.172	-0.006
-358.610	-200.000	-0.033	0.188
-357.596	-37.830	0.124	-0.066
-356.581	67.515	0.276	-0.284
-355.566	-102.575	0.267	0.064
-354.552	-129.684	0.350	-0.049
-353.537	-7.840	-0.184	-0.125
-352.523	189.108	-0.259	0.392
-351.508	-170.805	0.180	0.006
-350.493	-128.377	-0.142	0.020
-349.479	-150.817	0.192	0.015
-348.464	-121.539	0.187	0.031
-347.450	171.526	0.088	0.128
-346.435	632.120	0.136	0.348
-345.420	482.783	-0.138	0.316
-344.406	132.152	-0.121	-0.157
-343.391	800.000	-0.079	-0.330
-342.377	-200.000	0.043	-0.368
-341.362	800.000	0.049	0.198
-340.348	206.906	0.049	-0.077
-339.333	-128.772	-0.483	-0.069
-338.318	-200.000	0.009	0.050
-337.304	57.136	-0.320	0.314
-336.289	-72.299	-0.245	0.091
-335.275	-139.791	0.440	0.047
-334.260	-98.108	-0.249	-0.065
-333.245	-18.087	-0.047	0.029
-332.231	753.132	0.126	-0.343
-331.216	-97.632	0.319	0.083
-330.202	52.203	0.160	0.154
-329.187	-125.635	0.242	-0.037
-328.172	646.438	-0.037	-0.094
-327.158	-65.610	-0.274	-0.111
-326.143	-197.105	0.274	-0.002
-325.129	170.540	0.137	0.198
-324.114	800.000	-0.123	0.489
-323.099	-93.080	-0.285	0.080
-322.085	94.530	-0.272	0.311
-321.070	-97.091	0.281	-0.074
-320.056	-200.000	0.075	-0.344
-319.041	-107.547	0.382	0.084
-318.026	-62.224	-0.056	-0.023
-317.012	-103.101	0.324	-0.077
-315.997	731.813	-0.021	0.057
-314.983	-58.183	0.310	-0.136
-313.968	-200.000	0.032	0.170
-312.953	59.428	0.023	-0.023
-311.939	90.573	0.151	0.170
-310.924	-53.721	0.208	-0.096
-309.910	257.224	0.041	-0.072
-308.895	54.340	-0.149	0.144
-307.880	-144.924	-0.187	-0.017
-306.866	-200.000	0.011	-0.168
-305.851	-118.793	0.164	0.029
-304.837	-200.000	-0.011	-0.086
-303.822	165.036	-0.277	-0.394
-302.807	195.629	-0.051	0.078
-301.793	504.837	0.134	0.312
-300.778	-96.988	0.089	0.023
-299.764	-200.000	-0.002	-0.070
-298.749	50.808	-0.240	0.228
-297.735	-200.000	0.013	0.284
-296.720	-200.000	-0.019	-0.176
-295.705	-192.453	-0.189	-0.002
-294.691	108.837	0.134	0.161
-293.676	-8.685	-0.083	-0.056
-292.662	-46.751	0.130	-0.064
-291.647	55.083	-0.219	-0.213
-290.632	-26.760	-0.203	-0.119
-289.618	62.130	0.287	0.288
-288.603	-10.556	0.112	-0.075
-287.589	138.367	-0.133	-0.175
-286.574	48.788	0.216	-0.204
-285.559	171.841	-0.061	0.088
-284.545	34.657	0.198	0.174
-283.530	800.000	0.079	0.282
-282.516	-27.458	-0.202	0.118
-281.501	-154.841	-0.179	0.012
-280.486	800.000	-0.050	0.183
-279.472	-107.905	-0.054	0.012
-278.457	-200.000	-0.038	-0.174
-277.443	-39.124	0.068	-0.036
-276.428	-200.000	0.003	0.147
-275.413	-132.688	0.090	-0.012
-274.399	800.000	0.089	-0.346
-273.384	407.053	0.052	0.111
-272.370	-34.359	-0.168	0.093
-271.355	-72.254	0.325	-0.121
-270.340	-200.000	0.011	-0.175
-269.326	1.018	0.064	-0.046
-268.311	-124.320	-0.395	0.062
-267.297	17.325	0.147	-0.117
-266.282	128.756	-0.185	0.237
-265.267	678.387	0.099	-0.258
-264.253	89.663	0.057	-0.064
-263.238	112.731	0.198	-0.241
-262.224	-29.925	0.091	-0.052
-261.209	-152.474	0.142	-0.010
-260.195	-156.209	-0.289	-0.018
-259.180	53.744	-0.035	0.034
-258.165	-200.000	-0.038	0.266
-257.151	17.690	-0.125	0.100
-256.136	221.244	-0.091	-0.146
-255.122	-70.977	-0.369	-0.140
-254.107	495.072	-0.105	0.241
-253.092	-110.871	-0.189	-0.039
-252.078	-199.965	-0.356	0.002
-251.063	56.671	-0.194	0.189
-250.049	800.000	0.051	0.212
-249.034	-200.000	-0.001	-0.050
-248.019	434.938	0.080	0.174
-247.005	-200.000	-0.008	0.156
-245.990	-17.932	0.210	-0.132
-244.976	-77.790	-0.086	0.030
-243.961	-141.894	-0.137	-0.014
-242.946	104.492	0.287	0.339
-241.932	800.000	-0.042	-0.135
-240.917	731.505	-0.061	-0.164
-239.903	800.000	-0.039	-0.137
-238.888	151.864	0.155	-0.212
-237.873	-129.685	-0.161	-0.022
-236.859	29.170	-0.143	-0.122
-235.844	-27.704	-0.078	0.046
-234.830	-74.673	-0.334	0.121
-233.815	1.789	-0.012	0.008
-232.800	-200.000	0.052	-0.400
-231.786	-105.855	0.079	0.018
-230.771	1.479	0.155	-0.112
-229.757	-113.448	-0.159	0.031
-228.742	800.000	-0.022	0.063
-227.727	176.355	-0.096	0.139
-226.713	-67.621	-0.298	0.117
-225.698	72.817	0.111	0.117
-224.684	84.754	-0.166	-0.182
-223.669	-200.000	-0.048	-0.287
-222.655	-105.037	-0.410	0.094
-221.640	31.391	-0.284	0.245
-220.625	-102.191	0.054	-0.013
-219.611	712.004	-0.058	0.153
-218.596	20.421	0.075	-0.061
-217.582	56.994	0.254	-0.249
-216.567	596.585	-0.069	-0.172
-215.552	-200.000	-0.001	-0.213
-214.538	162.356	-0.158	0.223
-213.523	-59.696	0.191	0.082
-212.509	32.064	0.118	0.102
-211.494	-57.524	-0.414	0.182
-210.479	22.049	-0.119	-0.097
-209.465	800.000	-0.068	0.247
-208.450	-200.000	0.002	-0.100
-207.436	-148.086	-0.421	-0.035
-206.421	-200.000	0.005	0.153
-205.406	431.623	-0.095	0.206
-204.392	105.727	-0.046	-0.055
-203.377	156.181	0.193	-0.267
-202.363	43.666	-0.056	-0.052
-201.348	32.920	0.094	0.081
-200.333	150.728	0.030	-0.040
-199.319	-200.000	0.010	0.160
-198.304	-4.314	0.254	0.176
-197.290	667.877	0.014	0.037
-196.275	51.829	0.144	-0.137
-195.260	-200.000	0.030	-0.473
-194.246	197.935	-0.158	-0.241
-193.231	110.753	-0.171	0.206
-192.217	800.000	-0.102	-0.391
-191.202	-200.000	-0.033	0.275
-190.187	50.843	0.300	-0.285
-189.173	0.616	-0.236	-0.169
-188.158	163.104	0.155	0.218
-187.144	-71.062	-0.270	0.102
-186.129	316.886	-0.062	0.118
-185.114	800.000	0.024	0.075
-184.100	800.000	0.145	-0.435
-183.085	-55.304	0.157	-0.071
-182.071	629.652	0.100	0.254
-181.056	108.214	0.091	-0.109
-180.042	-200.000	0.004	-0.198
-179.027	781.997	0.035	0.096
-178.012	-72.359	-0.107	0.040
-176.998	82.357	-0.131	-0.142
-175.983	332.964	0.131	-0.254
-174.969	-54.571	-0.173	0.078
-173.954	800.000	-0.198	-0.554
-172.939	-200.000	0.026	0.152
-171.925	5.872	0.231	0.171
-170.910	112.178	-0.188	0.227
-169.896	592.024	0.088	0.218
-168.881	-200.000	0.041	-0.238
-167.866	16.731	0.142	0.112
-166.852	16.090	0.088	-0.069
-165.837	41.511	0.148	0.134
-164.823	-83.208	0.180	-0.058
-163.808	-75.912	-0.188	0.066
-162.793	-200.000	0.029	-0.157
-161.779	800.000	-0.050	0.192
-160.764	800.000	0.019	-0.079
-159.750	-101.561	0.283	0.069
-158.735	-193.084	-0.133	-0.001
-157.720	132.777	0.037	-0.048
-156.706	197.299	0.039	-0.060
-155.691	-65.665	-0.084	-0.034
-154.677	-31.619	-0.078	0.044
-153.662	-119.835	-0.193	0.033
-152.647	-76.665	0.209	-0.073
-151.633	-138.096	0.176	-0.020
-150.618	-200.000	-0.005	-0.213
-149.604	169.838	0.199	-0.285
-148.589	-23.821	0.112	-0.067
-147.574	-65.469	-0.258	0.104
-146.560	-200.000	0.010	0.181
-145.545	177.517	-0.136	-0.198
-144.531	-168.401	0.406	-0.016
-143.516	-182.670	-0.106	0.002
-142.502	98.551	0.297	-0.343
-141.487	-89.337	0.108	-0.032
-140.472	97.194	-0.054	0.061
-139.458	-190.011	0.106	0.001
-138.443	800.000	0.034	-0.116
-137.429	518.327	0.093	0.217
-136.414	-200.000	0.010	-0.146
-135.399	-42.268	-0.177	-0.090
-134.385	-77.034	0.266	0.093
-133.370	336.815	0.085	-0.165
-132.356	-200.000	-0.001	0.025
-131.341	-200.000	-0.008	-0.167
-130.326	-51.742	0.050	0.023
-129.312	-200.000	0.048	-0.230
-128.297	-200.000	-0.073	0.407
-127.283	305.086	0.122	-0.227
-126.268	320.170	0.112	0.213
-125.253	-130.478	-0.187	-0.025
-124.239	85.142	0.191	-0.209
-123.224	-37.693	-0.310	-0.165
-122.210	-139.796	-0.300	0.032
-121.195	37.261	0.159	0.140
-120.180	39.477	-0.133	-0.119
-119.166	140.695	-0.080	-0.105
-118.151	-200.000	0.001	0.258
-117.137	90.984	0.169	0.189
-116.122	-200.000	0.002	0.101
-115.107	143.255	-0.175	-0.233
-114.093	-64.808	0.165	0.067
-113.078	-200.000	0.065	-0.311
-112.064	-67.489	0.169	0.066
-111.049	44.981	0.264	-0.243
-110.034	-200.000	-0.056	0.432
-109.020	-200.000	-0.022	-0.206
-108.005	800.000	0.048	-0.201
-106.991	-131.096	0.240	-0.032
-105.976	800.000	0.038	0.131
-104.962	800.000	0.094	-0.333
-103.947	-149.061	-0.083	0.007
-102.932	-195.404	0.141	0.001
-101.918	800.000	0.034	0.123
-100.903	17.357	0.265	0.210
-99.889	-128.052	-0.090	0.013
-98.874	-168.174	0.195	0.008
-97.859	-200.000	0.022	0.213
-96.845	-200.000	-0.059	0.266
-95.830	-15.604	0.114	0.073
-94.816	-94.613	-0.291	0.079
-93.801	117.393	-0.121	0.148
-92.786	2.762	0.272	-0.197
-91.772	-159.867	-0.228	0.012
-90.757	298.989	0.011	-0.021
-89.743	184.953	0.180	-0.266
-88.728	-75.596	0.255	-0.090
-87.713	11.917	-0.135	-0.103
-86.699	-90.720	0.530	0.153
-85.684	-97.109	0.155	-0.041
-84.670	800.000	-0.029	0.115
-83.655	-89.272	-0.150	0.044
-82.640	-133.449	0.453	-0.057
-81.626	-74.643	0.181	0.065
-80.611	-111.183	-0.151	-0.031
-79.597	-131.705	0.368	0.048
-78.582	800.000	-0.019	-0.070
-77.567	47.689	0.170	-0.158
-76.553	-200.000	0.106	-0.533
-75.538	-56.038	0.135	-0.060
-74.524	-51.544	-0.098	-0.046
-73.509	-73.185	-0.336	0.123
-72.494	144.543	-0.143	0.190
-71.480	60.495	-0.213	0.210
-70.465	229.979	-0.233	0.380
-69.451	-25.157	0.229	0.135
-68.436	-131.186	0.367	0.049
-67.422	800.000	0.112	-0.441
-66.407	-92.525	0.505	0.141
-65.392	-50.591	-0.316	-0.148
-64.378	27.429	0.391	-0.328
-63.363	800.000	-0.075	-0.314
-62.349	-200.000	-0.020	-0.117
-61.334	29.117	-0.913	-0.772
-60.319	85.896	0.464	0.509
-59.305	-200.000	0.194	-0.996
-58.290	96.931	0.651	0.744
-57.276	800.000	0.435	1.768
-56.261	-200.000	77.266	515.201
-55.246	515.427	1337.064	3112.286
-54.232	145.488	2567.598	3427.232
-53.217	116.332	2231.301	2725.349
-52.203	52.168	1677.335	1593.434
-51.188	44.211	1402.188	1282.020
-50.173	40.750	1356.194	1218.726
-49.159	59.281	1391.367	1365.459
-48.144	65.743	1410.333	1423.974
-47.130	44.772	1372.509	1258.152
-46.115	40.695	1356.497	1218.466
-45.100	40.494	1351.504	1212.703
-44.086	40.290	1349.514	1209.619
-43.071	40.342	1347.099	1207.727
-42.057	40.199	1344.806	1204.750
-41.042	40.303	1343.150	1203.854
-40.027	40.401	1341.315	1202.758
-39.013	40.310	1339.750	1200.753
-37.998	40.361	1337.806	1199.274
-36.984	40.439	1335.805	1197.905
-35.969	40.517	1334.003	1196.711
-34.954	40.589	1332.218	1195.493
-33.940	40.516	1331.251	1194.141
-32.925	40.479	1330.137	1192.872
-31.911	40.546	1328.704	1191.941
-30.896	40.596	1326.515	1190.228
-29.881	40.608	1325.282	1189.151
-28.867	40.629	1323.963	1188.043
-27.852	40.562	1322.571	1186.345
-26.838	40.682	1320.904	1185.522
-25.823	40.579	1319.780	1183.853
-24.809	40.567	1318.586	1182.664
-23.794	40.534	1316.831	1180.841
-22.779	40.519	1315.502	1179.513
-21.765	40.577	1313.997	1178.463
-20.750	40.614	1312.586	1177.370
-19.736	40.451	1311.559	1175.436
-18.721	40.438	1310.027	1173.940
-17.706	40.417	1309.042	1172.888
-16.692	40.470	1308.044	1172.262
-15.677	40.426	1306.787	1170.827
-14.663	40.516	1305.527	1170.185
-13.648	40.399	1304.555	1168.577
-12.633	40.490	1303.145	1167.801
-11.619	40.368	1302.844	1166.769
-10.604	40.345	1302.270	1166.070
-9.590	40.498	1300.694	1165.513
-8.575	40.428	1299.522	1164.005
-7.560	40.381	1298.840	1163.073
-6.546	40.424	1298.242	1162.742
-5.531	40.444	1296.858	1161.576
-4.517	40.330	1296.362	1160.419
-3.502	40.436	1295.399	1160.130
-2.487	40.523	1293.926	1159.272
-1.473	40.493	1290.559	1156.037
-0.458	39.489	1275.759	1136.943
0.556	35.824	1255.700	1094.989
1.571	31.418	1259.329	1072.838
2.586	29.954	1273.870	1076.621
3.600	28.309	1262.444	1057.385
4.615	20.444	1184.562	949.268
5.629	8.205	1101.040	819.720
6.644	2.467	1076.928	772.794
7.659	2.068	1073.522	768.278
8.673	1.819	1072.040	765.894
9.688	1.768	1071.085	764.890
10.702	2.091	1069.945	765.630
11.717	9.061	1080.364	808.212
12.731	20.288	1096.884	877.596
13.746	25.262	1102.377	907.126
14.761	25.430	1102.231	907.771
15.775	25.313	1101.952	906.871
16.790	25.144	1101.045	905.189
17.804	25.061	1100.370	904.137
18.819	25.081	1100.169	903.996
19.834	25.386	1099.327	904.758
20.848	25.433	1098.530	904.259
21.863	25.377	1098.272	903.683
22.877	25.256	1097.542	902.393
23.892	25.330	1096.616	901.925
24.907	25.325	1095.938	901.261
25.921	25.292	1094.823	900.100
26.936	25.255	1093.733	898.941
27.950	25.108	1092.227	896.886
28.965	25.036	1090.410	894.955
29.980	25.158	1088.730	894.108
30.994	25.251	1088.320	894.154
32.009	25.326	1087.319	893.627
33.023	25.163	1085.501	891.246
34.038	25.142	1085.102	890.734
35.053	25.319	1084.649	891.158
36.067	25.359	1083.478	890.317
37.082	25.341	1083.110	889.850
38.096	25.527	1082.360	890.074
39.111	25.643	1081.717	890.040
40.126	25.381	1080.411	887.593
41.140	24.971	1078.808	884.175
42.155	24.901	1076.707	882.030
43.169	24.889	1076.316	881.571
44.184	24.866	1075.351	880.587
45.199	24.885	1074.110	879.591
46.213	24.906	1073.427	879.055
47.228	25.015	1072.911	879.087
48.242	25.080	1071.813	878.430
49.257	25.291	1070.920	878.652
50.271	25.235	1070.534	877.987
51.286	25.275	1069.976	877.644
52.301	25.343	1068.547	876.729
53.315	25.337	1067.616	875.859
54.330	25.256	1066.690	874.625
55.344	25.297	1066.094	874.260
56.359	25.211	1065.153	872.991
57.374	24.978	1064.352	871.126
58.388	24.951	1063.652	870.344
59.403	24.924	1062.656	869.320
60.417	24.813	1061.855	868.048
61.432	24.813	1061.421	867.616
62.447	25.059	1060.316	867.830
63.461	25.039	1059.891	867.309
64.476	24.936	1058.544	865.630
65.490	24.996	1057.567	865.044
66.505	24.996	1057.411	864.842
67.520	25.003	1056.920	864.397
68.534	24.751	1055.861	862.239
69.549	24.474	1054.496	859.712
70.563	24.490	1053.272	858.718
71.578	24.468	1052.687	858.059
72.593	24.322	1051.903	856.641
73.607	24.370	1051.787	856.702
74.622	24.662	1051.363	857.682
75.636	24.686	1050.601	857.102
76.651	24.614	1049.417	855.712
77.666	24.548	1048.496	854.573
78.680	24.552	1048.081	854.177
79.695	24.691	1047.303	854.133
80.709	24.807	1046.743	854.152
81.724	24.801	1045.687	853.188
82.739	24.826	1045.249	852.875
83.753	25.235	1044.582	854.199
84.768	25.552	1043.844	855.031
85.782	25.600	1043.111	854.580
86.797	25.551	1042.246	853.567
87.812	25.410	1041.173	851.941
88.826	25.327	1040.386	850.830
89.841	25.485	1039.579	850.841
90.855	25.601	1037.987	850.013
91.870	25.431	1037.725	848.921
92.884	25.363	1036.254	847.322
93.899	25.330	1034.761	845.870
94.914	25.406	1034.449	845.897
95.928	25.398	1033.102	844.684
96.943	25.107	1032.204	842.506
97.957	24.806	1031.412	840.373
98.972	24.862	1029.306	838.845
99.987	25.072	1029.111	839.596
101.001	25.223	1028.174	839.464
102.016	25.172	1026.995	838.186
103.030	25.133	1026.659	837.658
104.045	25.024	1025.496	836.125
105.060	24.910	1024.480	834.691
106.074	25.008	1024.139	834.797
107.089	25.330	1023.660	835.830
108.103	25.173	1022.639	834.195
109.118	24.937	1021.092	831.761
110.133	24.879	1020.459	830.903
111.147	24.805	1018.873	829.198
112.162	24.603	1017.880	827.379
113.176	24.903	1017.890	828.704
114.191	24.865	1016.496	827.318
115.206	24.469	1015.364	824.495
116.220	24.429	1014.635	823.646
117.235	24.649	1013.995	824.071
118.249	24.606	1013.444	823.349
119.264	24.479	1012.294	821.756
120.279	24.580	1011.577	821.566
121.293	24.757	1010.560	821.481
122.308	24.661	1010.069	820.570
123.322	24.574	1008.525	818.846
124.337	24.497	1007.632	817.692
125.352	23.894	1005.850	813.418
126.366	23.923	1004.933	812.737
127.381	24.597	1004.990	815.789
128.395	25.116	1004.430	817.633
129.410	25.187	1003.527	817.147
130.424	25.191	1002.438	816.206
131.439	25.239	1001.727	815.773
132.454	25.156	1000.604	814.409
133.468	25.155	999.884	813.747
134.483	25.169	999.694	813.583
135.497	25.316	998.765	813.423
136.512	25.500	997.345	813.027
137.527	25.473	996.714	812.319
138.541	25.383	996.268	811.475
139.556	25.521	994.975	810.973
140.570	25.566	994.238	810.506
141.585	25.560	993.383	809.710
142.600	25.468	992.230	808.281
143.614	25.702	991.880	808.977
144.629	25.857	990.705	808.646
145.643	25.629	989.777	806.795
146.658	25.475	988.310	804.837
147.673	25.415	987.204	803.597
148.687	25.322	986.282	802.357
149.702	25.134	985.353	800.690
150.716	25.131	984.468	799.890
151.731	25.367	983.517	800.095
152.746	25.516	983.130	800.377
153.760	25.493	982.537	799.718
154.775	25.576	982.246	799.780
155.789	25.625	980.963	798.880
156.804	25.590	980.261	798.084
157.819	25.590	979.108	797.076
158.833	25.801	978.236	797.231
159.848	25.872	977.333	796.735
160.862	25.675	976.412	795.047
161.877	25.589	975.508	793.858
162.892	25.575	974.427	792.849
163.906	25.442	973.235	791.221
164.921	25.619	972.135	791.035
165.935	25.600	971.661	790.498
166.950	25.638	970.465	789.620
167.964	25.564	969.705	788.609
168.979	25.391	968.648	786.923
169.994	25.335	968.072	786.140
171.008	25.548	967.610	786.624
172.023	25.760	966.261	786.385
173.037	25.337	965.570	783.908
174.052	25.296	964.149	782.507
175.067	25.250	964.027	782.135
176.081	25.356	963.342	781.974
177.096	25.228	962.961	781.036
178.110	25.043	961.898	779.303
179.125	24.854	961.320	777.943
180.140	24.964	960.974	778.074
181.154	25.050	960.545	778.031
182.169	25.342	960.247	778.985
183.183	25.568	960.003	779.698
184.198	25.502	959.005	778.533
185.213	25.419	958.396	777.612
186.227	25.506	957.730	777.379
187.242	25.506	956.378	776.212
188.256	25.758	955.915	776.854
189.271	25.688	955.656	776.273
190.286	25.493	953.810	773.865
191.300	24.671	952.565	769.254
192.315	23.873	951.042	764.523
193.329	23.752	950.723	763.681
194.344	24.823	950.773	768.254
195.359	25.411	950.880	770.797
196.373	25.515	950.565	770.918
197.388	25.457	950.058	770.190
198.402	25.389	949.595	769.455
199.417	25.527	948.864	769.386
200.432	25.160	948.256	767.254
201.446	25.032	947.288	765.857
202.461	25.026	946.596	765.202
203.475	24.296	944.410	760.258
204.490	23.558	943.110	755.999
205.504	24.322	943.874	759.802
206.519	25.044	943.413	762.435
207.534	25.067	943.114	762.225
208.548	25.576	942.925	764.171
209.563	25.203	942.187	761.918
210.577	25.200	941.224	761.060
211.592	25.826	940.993	763.459
212.607	25.766	940.084	762.403
213.621	25.670	939.327	761.316
214.636	25.664	938.830	760.819
215.650	25.533	938.126	759.627
216.665	25.707	937.551	759.828
217.680	25.613	936.952	758.879
218.694	25.187	935.373	755.741
219.709	25.063	934.646	754.565
220.723	25.388	934.516	755.757
221.738	25.499	933.820	755.596
222.753	25.524	932.968	754.947
223.767	25.492	933.010	754.779
224.782	25.707	932.741	755.396
225.796	25.813	931.659	754.897
226.811	25.116	930.579	751.035
227.826	24.437	929.138	746.968
228.840	24.483	929.027	747.001
229.855	24.778	927.611	747.030
230.869	24.470	926.870	745.083
231.884	24.957	926.731	746.936
232.899	25.431	927.032	749.089
233.913	25.408	926.461	748.467
234.928	25.440	925.645	747.872
235.942	25.375	925.250	747.218
236.957	25.033	924.158	744.848
237.972	25.014	923.853	744.458
238.986	25.104	923.296	744.316
240.001	25.114	922.622	743.752
241.015	25.163	922.326	743.650
242.030	25.350	921.774	743.913
243.045	25.634	921.014	744.410
244.059	25.668	920.814	744.321
245.074	25.342	919.957	742.214
246.088	24.988	919.182	740.063
247.103	25.474	918.232	741.239
248.117	25.972	918.649	743.562
249.132	26.265	918.348	744.460
250.147	26.221	917.990	743.923
251.161	26.390	917.712	744.326
252.176	26.306	916.714	743.106
253.190	26.408	916.416	743.219
254.205	26.611	915.564	743.297
255.220	26.481	914.948	742.198
256.234	26.311	914.546	741.109
257.249	26.179	913.607	739.742
258.263	26.337	912.752	739.629
259.278	26.314	912.528	739.290
260.293	26.407	911.557	738.818
261.307	26.280	911.090	737.854
262.322	26.202	910.027	736.611
263.336	25.458	908.623	732.376
264.351	24.395	906.265	726.088
265.366	24.495	905.991	726.213
266.380	25.545	907.105	731.314
267.395	26.012	906.414	732.590
268.409	25.917	905.877	731.703
269.424	26.104	905.202	731.851
270.439	26.093	904.585	731.242
271.453	26.227	904.056	731.295
272.468	26.195	903.925	730.993
273.482	26.413	903.410	731.396
274.497	26.072	902.108	728.901
275.512	25.664	901.110	726.380
276.526	26.133	901.216	728.298
277.541	26.286	900.809	728.518
278.555	25.950	900.358	726.736
279.570	25.917	899.117	725.536
280.585	26.049	898.586	725.573
281.599	25.885	897.723	724.154
282.614	25.408	896.516	721.203
283.628	25.412	895.730	720.521
284.643	25.652	895.965	721.612
285.657	25.448	894.620	719.646
286.672	25.007	893.740	717.108
287.687	25.661	894.038	719.903
288.701	25.632	893.305	719.132
289.716	25.442	892.362	717.551
290.730	25.355	891.650	716.568
291.745	25.078	891.027	714.899
292.760	25.344	890.675	715.617
293.774	26.345	891.124	719.900
294.789	26.739	890.774	721.122
295.803	26.726	890.081	720.446
296.818	26.839	889.643	720.475
297.833	26.279	888.442	717.220
298.847	26.189	887.547	716.076
299.862	26.580	887.298	717.359
300.876	26.693	887.045	717.543
301.891	26.598	886.380	716.562
302.906	26.279	885.436	714.474
303.920	26.315	885.104	714.286
304.935	26.680	884.975	715.559
305.949	26.727	884.115	714.988
306.964	26.430	883.320	713.112
307.979	26.370	883.183	712.701
308.993	26.863	882.765	714.240
310.008	26.796	882.254	713.501
311.022	26.473	881.515	711.571
312.037	26.424	880.617	710.589
313.052	26.229	879.927	709.203
314.066	25.271	878.216	704.008
315.081	25.054	877.385	702.430
316.095	25.791	877.868	705.640
317.110	26.233	877.941	707.370
318.125	25.518	875.832	702.814
319.139	24.491	874.579	697.737
320.154	24.399	874.073	696.911
321.168	25.234	874.560	700.496
322.183	26.000	874.847	703.656
323.197	26.286	874.425	704.371
324.212	26.493	873.983	704.755
325.227	26.408	873.614	704.066
326.241	26.412	872.483	703.109
327.256	26.217	872.318	702.155
328.270	26.097	871.431	700.915
329.285	25.804	870.550	699.005
330.300	25.687	869.627	697.750
331.314	26.020	869.525	698.896
332.329	26.437	869.197	700.187
333.343	26.540	869.202	700.525
334.358	26.514	868.865	700.091
335.373	26.535	868.277	699.635
336.387	26.830	868.588	700.964
337.402	27.081	867.995	701.395
338.416	26.827	868.066	700.410
339.431	26.990	867.786	700.750
340.446	27.256	867.172	701.220
341.460	27.125	866.513	700.117
342.475	26.949	866.040	698.995
343.489	26.848	865.810	698.362
344.504	27.174	865.570	699.360
345.519	27.367	865.062	699.631
346.533	27.410	864.466	699.252
347.548	27.552	863.888	699.265
348.562	27.390	863.375	698.168
349.577	27.292	862.673	697.162
350.592	27.294	861.967	696.538
351.606	27.260	861.476	695.949
352.621	27.061	860.745	694.536
353.635	27.070	859.799	693.745
354.650	26.296	858.192	689.435
355.665	25.500	856.752	685.185
356.679	25.838	856.630	686.314
357.694	26.413	856.291	688.171
358.708	26.300	855.512	687.056
359.723	26.633	855.250	688.050
360.738	27.000	854.954	689.145
361.752	27.009	854.853	689.035
362.767	27.445	854.179	690.085
363.781	27.606	853.650	690.206
364.796	27.612	853.550	690.085
365.810	27.805	852.805	690.153
366.825	27.536	852.739	689.019
367.840	27.364	852.084	687.781
368.854	27.023	851.002	685.560
369.869	27.140	850.299	685.374
370.883	27.066	850.491	685.188
371.898	27.014	850.031	684.560
372.913	26.951	849.729	684.020
373.927	27.298	849.005	684.681
374.942	27.244	848.905	684.339
375.956	27.365	848.240	684.197
376.971	27.619	847.719	684.669
377.986	27.646	847.567	684.590
379.000	27.627	847.107	684.087
380.015	27.464	846.214	682.694
381.029	27.643	845.585	682.796
382.044	27.714	845.285	682.758
383.059	27.852	844.203	682.338
384.073	27.843	843.979	682.063
385.088	27.803	843.362	681.355
386.102	27.605	842.077	679.520
387.117	27.456	841.749	678.639
388.132	27.006	840.722	676.077
389.146	26.663	839.666	673.891
390.161	26.972	839.516	674.861
391.175	27.583	839.258	676.864
392.190	27.171	838.383	674.569
393.205	25.766	836.612	667.876
394.219	24.160	834.823	660.440
395.234	24.201	834.317	660.135
396.248	25.659	835.821	666.674
397.263	27.191	836.640	672.942
398.278	27.241	836.075	672.612
399.292	27.049	835.511	671.389
400.307	26.835	835.016	670.143
401.321	27.000	834.658	670.405
402.336	27.465	834.563	671.984
403.350	27.869	834.464	673.338
404.365	28.073	834.288	673.889
405.380	28.437	834.272	675.155
406.394	28.387	833.627	674.388
407.409	28.298	833.072	673.554
408.423	28.228	833.004	673.182
409.438	28.268	832.590	672.937
410.453	28.561	831.796	673.307
411.467	28.368	831.348	672.179
412.482	28.322	830.864	671.559
413.496	28.391	830.647	671.576
414.511	28.396	830.091	671.085
415.526	28.449	829.221	670.519
416.540	28.209	829.012	669.412
417.555	28.016	828.115	667.923
418.569	27.999	827.865	667.601
419.584	27.862	827.674	666.886
420.599	27.869	826.791	666.140
421.613	94.984	1267.562	1379.184
422.628	81.997	1331.810	1379.270
