DTS Sentinel unit serial number:	SN413079Multiplexer serial number:	ORYXHardware model number:	OX4-SRSoftware version number:	ORYX F/W v4.00 Oryx Data Collector v3.7.2.0data status	okinstallation	princeton_trtdifferential loss correction	single-endedforward channel	channel 1reverse channel	N/Adate	2019/09/12time	13:48:11forward acquisition time	60.00reverse acquisition time	0.00gamma	496.2192k internal	0.2292k external	0.2292temperature offset calibration	1.0054default loss term (dB/km)	0.3790temperature slope calibration	1.0000multiplexer offset coefficient	1.0000multiplexer slope coefficient	1.0000fibre end	0.00T internal ref (°C)	40.94T ext. ref 1 (°C)	2.16T ext. ref 2 (°C)	35.41length (m)	temperature (°C)	Stokes	anti-Stokes-747.200	-94.464	-0.206	0.058
-746.185	-91.494	-0.286	0.083
-745.171	125.646	0.156	0.201
-744.156	-38.875	0.110	-0.059
-743.142	-200.000	-0.010	0.155
-742.127	-200.000	-0.003	-0.049
-741.112	397.584	0.059	0.126
-740.098	-200.000	0.004	0.357
-739.083	-200.000	0.012	0.331
-738.069	166.648	0.374	0.542
-737.054	-200.000	-0.050	0.318
-736.039	-11.569	-0.259	-0.174
-735.025	319.203	-0.039	-0.076
-734.010	-200.000	0.048	0.404
-732.996	-99.012	-0.092	-0.024
-731.981	-200.000	-0.035	-0.227
-730.966	105.012	0.253	0.306
-729.952	-200.000	0.005	-0.072
-728.937	323.357	0.059	-0.115
-727.923	-126.214	-0.145	0.022
-726.908	478.689	-0.006	0.015
-725.894	121.473	-0.178	0.227
-724.879	67.822	-0.164	-0.172
-723.864	195.570	0.151	-0.235
-722.850	-200.000	0.001	-0.170
-721.835	573.672	-0.043	-0.108
-720.821	800.000	-0.094	-0.364
-719.806	-140.363	0.076	-0.008
-718.791	285.456	0.091	-0.168
-717.777	-125.765	-0.312	0.048
-716.762	151.777	-0.055	-0.076
-715.748	-97.615	-0.127	0.034
-714.733	46.798	-0.146	0.139
-713.718	-0.839	0.131	-0.095
-712.704	800.000	0.019	-0.057
-711.689	-6.527	0.161	-0.112
-710.675	800.000	-0.067	0.246
-709.660	-113.213	-0.209	-0.042
-708.645	-200.000	-0.001	-0.147
-707.631	-53.846	0.275	-0.128
-706.616	-119.350	0.360	-0.064
-705.602	-123.398	-0.488	-0.080
-704.587	25.454	0.046	0.039
-703.572	-200.000	-0.003	-0.345
-702.558	-200.000	-0.030	0.334
-701.543	-151.051	-0.365	0.028
-700.529	-8.563	0.416	-0.285
-699.514	-10.695	0.062	0.042
-698.499	-200.000	0.029	-0.173
-697.485	-123.586	-0.176	0.029
-696.470	73.909	-0.080	-0.086
-695.456	363.294	0.085	0.174
-694.441	205.489	-0.107	0.170
-693.426	253.868	-0.135	0.235
-692.412	195.092	0.075	-0.117
-691.397	162.958	0.092	-0.133
-690.383	-200.000	0.026	0.160
-689.368	-157.179	-0.327	-0.020
-688.354	143.444	0.139	-0.190
-687.339	422.743	-0.045	0.098
-686.324	-119.075	-0.165	-0.030
-685.310	134.839	0.060	-0.079
-684.295	-38.962	0.255	0.137
-683.281	-200.000	0.027	0.150
-682.266	-200.000	0.046	-0.296
-681.251	142.682	-0.107	-0.145
-680.237	30.354	-0.242	0.211
-679.222	-184.843	-0.336	-0.005
-678.208	536.917	-0.054	0.130
-677.193	-200.000	0.030	-0.134
-676.178	266.610	-0.055	0.098
-675.164	-103.906	0.054	-0.013
-674.149	15.135	-0.276	-0.220
-673.135	-22.784	0.335	0.206
-672.120	-200.000	-0.057	0.503
-671.105	-200.000	-0.073	0.385
-670.091	8.681	-0.070	-0.054
-669.076	209.265	0.151	-0.241
-668.062	669.971	-0.105	-0.279
-667.047	401.418	-0.217	-0.465
-666.032	-200.000	-0.082	0.402
-665.018	-200.000	-0.019	0.155
-664.003	-88.845	0.050	-0.015
-662.989	-200.000	-0.001	0.092
-661.974	-29.380	-0.206	0.120
-660.959	-8.046	0.193	-0.133
-659.945	-200.000	0.089	-0.000
-658.930	55.914	0.110	0.109
-657.916	50.710	0.077	-0.074
-656.901	-200.000	0.001	0.107
-655.886	-200.000	-0.035	-0.175
-654.872	173.958	-0.076	0.112
-653.857	-200.000	0.016	0.140
-652.843	800.000	-0.025	0.110
-651.828	-149.665	-0.362	-0.029
-650.814	800.000	0.046	-0.156
-649.799	-200.000	0.019	-0.540
-648.784	800.000	0.021	-0.079
-647.770	78.126	0.149	0.162
-646.755	99.439	0.094	0.111
-645.741	-17.252	-0.319	-0.205
-644.726	47.623	-0.110	-0.105
-643.711	-49.856	-0.281	0.136
-642.697	800.000	-0.032	-0.106
-641.682	-37.368	-0.249	-0.136
-640.668	570.306	0.074	0.184
-639.653	-24.115	0.301	-0.183
-638.638	-84.997	-0.298	-0.095
-637.624	800.000	0.055	-0.189
-636.609	800.000	-0.066	-0.191
-635.595	-200.000	0.044	0.292
-634.580	-165.258	0.166	0.007
-633.565	190.899	0.092	-0.141
-632.551	109.633	0.163	-0.199
-631.536	-200.000	0.002	0.115
-630.522	-200.000	0.005	-0.135
-629.507	24.914	-0.181	-0.153
-628.492	-200.000	0.044	0.235
-627.478	-90.490	0.226	0.067
-626.463	-200.000	0.041	0.240
-625.449	-200.000	-0.001	-0.077
-624.434	24.538	0.235	-0.198
-623.419	625.094	-0.033	-0.086
-622.405	-144.031	0.204	0.019
-621.390	256.182	0.048	0.085
-620.376	-54.776	0.187	0.086
-619.361	-174.087	0.284	-0.008
-618.346	-103.343	0.211	-0.051
-617.332	152.744	0.122	-0.169
-616.317	-0.922	-0.158	-0.114
-615.303	-200.000	0.036	-0.172
-614.288	800.000	-0.074	0.295
-613.273	-38.955	-0.137	0.073
-612.259	-18.762	0.235	0.149
-611.244	-148.611	0.279	-0.023
-610.230	407.570	-0.046	-0.098
-609.215	-44.577	0.160	-0.081
-608.201	135.408	0.081	-0.107
-607.186	-200.000	0.011	0.136
-606.171	-200.000	0.017	-0.109
-605.157	-136.410	0.339	0.040
-604.142	-200.000	-0.002	0.263
-603.128	-178.662	0.153	0.004
-602.113	-77.640	-0.180	0.064
-601.098	10.249	-0.081	-0.062
-600.084	-200.000	0.052	-0.274
-599.069	306.732	-0.133	-0.252
-598.055	800.000	-0.035	-0.150
-597.040	800.000	-0.078	0.227
-596.025	-200.000	0.024	-0.151
-595.011	43.984	0.231	-0.215
-593.996	-123.303	-0.101	0.016
-592.982	-200.000	0.033	0.242
-591.967	3.345	-0.316	0.234
-590.952	300.993	0.013	0.024
-589.938	5.450	-0.229	-0.172
-588.923	-122.916	-0.235	0.039
-587.909	111.525	-0.114	-0.139
-586.894	664.784	0.104	0.274
-585.879	800.000	-0.076	0.257
-584.865	39.703	-0.150	-0.137
-583.850	-68.903	0.192	0.075
-582.836	198.696	-0.224	0.348
-581.821	-97.575	-0.236	0.062
-580.806	46.192	-0.152	0.144
-579.792	-5.846	0.176	-0.123
-578.777	29.789	0.168	0.146
-577.763	27.216	-0.168	-0.144
-576.748	-180.276	0.432	0.009
-575.733	638.820	-0.014	0.037
-574.719	-174.950	-0.334	0.010
-573.704	-200.000	0.041	0.467
-572.690	-11.702	0.116	-0.077
-571.675	16.072	0.103	0.082
-570.661	-105.838	0.080	-0.018
-569.646	-16.261	-0.313	-0.202
-568.631	800.000	-0.098	-0.337
-567.617	62.104	0.158	-0.160
-566.602	61.040	-0.110	0.111
-565.588	174.700	-0.143	-0.211
-564.573	-200.000	-0.026	0.134
-563.558	-62.848	-0.050	-0.021
-562.544	-124.435	-0.103	-0.016
-561.529	-200.000	-0.018	0.110
-560.515	718.128	-0.125	0.337
-559.500	-55.213	-0.096	0.044
-558.485	-131.261	-0.246	0.033
-557.471	800.000	-0.110	0.312
-556.456	482.713	0.026	0.060
-555.442	645.249	0.095	0.245
-554.427	800.000	-0.102	-0.326
-553.412	53.720	-0.017	0.016
-552.398	-50.174	0.166	-0.080
-551.383	-38.992	-0.266	-0.142
-550.369	-102.465	-0.063	-0.015
-549.354	-200.000	0.055	0.460
-548.339	56.083	-0.068	-0.067
-547.325	-127.627	-0.204	0.030
-546.310	-143.528	0.251	-0.024
-545.296	-139.231	0.187	0.021
-544.281	800.000	-0.005	0.021
-543.266	197.341	-0.097	0.151
-542.252	-189.404	0.238	0.003
-541.237	91.135	-0.140	-0.160
-540.223	-116.318	0.161	-0.030
-539.208	-18.372	0.033	-0.021
-538.193	-98.865	-0.206	0.053
-537.179	113.420	-0.219	0.269
-536.164	-200.000	0.016	-0.331
-535.150	-119.390	-0.304	0.054
-534.135	91.958	0.281	0.321
-533.121	-104.092	0.339	0.080
-532.106	386.948	0.111	0.232
-531.091	198.898	0.166	-0.259
-530.077	-50.312	0.329	0.158
-529.062	800.000	-0.073	-0.316
-528.048	157.030	-0.022	-0.030
-527.033	-200.000	-0.010	0.146
-526.018	-82.541	-0.301	0.099
-525.004	124.692	-0.094	0.120
-523.989	60.901	0.226	-0.228
-522.975	-200.000	-0.012	-0.164
-521.960	17.618	-0.159	-0.129
-520.945	-5.070	-0.137	0.095
-519.931	800.000	-0.074	0.229
-518.916	-32.851	-0.132	0.074
-517.902	168.502	0.238	-0.344
-516.887	-112.494	-0.668	0.135
-515.872	-40.203	0.149	0.079
-514.858	-109.847	-0.445	-0.095
-513.843	487.115	0.139	0.321
-512.829	-200.000	0.019	0.263
-511.814	47.026	0.049	-0.046
-510.799	46.521	-0.146	0.137
-509.785	263.658	0.067	-0.118
-508.770	178.712	0.105	-0.156
-507.756	-94.907	0.292	0.080
-506.741	130.556	-0.083	-0.107
-505.726	-78.323	-0.271	-0.094
-504.712	-144.905	-0.084	-0.008
-503.697	34.285	-0.315	0.279
-502.683	-79.822	-0.080	0.027
-501.668	459.608	0.037	0.084
-500.653	-200.000	0.033	-0.290
-499.639	5.780	-0.338	0.253
-498.624	800.000	0.039	-0.112
-497.610	-143.879	-0.020	-0.002
-496.595	-81.416	0.150	0.050
-495.581	-40.173	0.035	-0.019
-494.566	246.218	-0.038	0.064
-493.551	-103.644	0.238	0.057
-492.537	-87.737	0.151	0.046
-491.522	-200.000	0.022	0.196
-490.508	110.662	0.329	-0.401
-489.493	-24.982	0.123	0.074
-488.478	-161.035	0.213	0.011
-487.464	-88.375	0.168	-0.051
-486.449	100.781	-0.116	0.137
-485.435	-95.298	0.280	-0.076
-484.420	-130.398	0.220	0.030
-483.405	-200.000	-0.013	-0.107
-482.391	-1.923	0.218	0.155
-481.376	-27.070	-0.219	0.130
-480.362	-121.286	-0.144	0.024
-479.347	47.809	0.095	0.090
-478.332	-83.355	-0.128	-0.042
-477.318	698.414	-0.022	0.059
-476.303	-105.418	0.199	0.046
-475.289	-22.468	-0.113	-0.069
-474.274	-145.279	-0.227	-0.021
-473.259	51.175	-0.378	-0.363
-472.245	21.845	-0.230	-0.190
-471.230	-49.018	0.181	-0.088
-470.216	-1.620	0.051	-0.036
-469.201	-90.298	-0.300	-0.088
-468.186	-82.530	-0.222	-0.073
-467.172	-80.253	-0.181	0.061
-466.157	229.388	0.109	0.179
-465.143	800.000	-0.045	-0.148
-464.128	-161.084	0.124	0.007
-463.113	43.402	-0.231	-0.214
-462.099	-62.580	0.224	0.094
-461.084	-112.025	-0.101	-0.021
-460.070	-200.000	-0.012	0.181
-459.055	-57.669	0.116	0.052
-458.040	-165.631	0.197	0.009
-457.026	364.270	0.093	-0.189
-456.011	48.167	0.204	-0.193
-454.997	-200.000	0.027	-0.135
-453.982	20.331	-0.152	-0.124
-452.968	102.433	0.029	0.035
-451.953	-104.163	0.199	-0.047
-450.938	-140.882	0.234	-0.024
-449.924	-200.000	0.014	0.105
-448.909	87.288	-0.077	0.086
-447.895	800.000	-0.033	-0.100
-446.880	165.122	0.105	-0.149
-445.865	-200.000	0.023	0.191
-444.851	31.653	0.115	0.100
-443.836	-65.423	0.164	-0.067
-442.822	456.913	0.049	0.109
-441.807	-200.000	0.027	-0.223
-440.792	38.329	0.061	-0.055
-439.778	150.597	-0.092	0.126
-438.763	688.202	0.086	-0.227
-437.749	532.074	-0.043	-0.102
-436.734	-88.066	-0.234	0.071
-435.719	-20.652	0.210	-0.130
-434.705	-134.007	-0.250	0.031
-433.690	754.141	0.048	0.131
-432.676	-122.592	-0.270	0.044
-431.661	-96.402	-0.284	-0.076
-430.646	139.808	0.119	0.158
-429.632	-200.000	-0.039	-0.268
-428.617	252.469	-0.086	-0.149
-427.603	425.829	0.154	-0.335
-426.588	111.110	0.125	-0.152
-425.573	-35.758	0.198	-0.109
-424.559	-26.874	-0.242	0.143
-423.544	409.573	-0.086	0.185
-422.530	-62.861	-0.165	0.069
-421.515	-200.000	0.001	0.055
-420.500	662.412	0.118	-0.308
-419.486	-200.000	0.000	-0.054
-418.471	-200.000	0.001	-0.247
-417.457	193.927	-0.128	-0.196
-416.442	-24.998	-0.246	-0.147
-415.428	-138.788	0.279	0.031
-414.413	34.699	-0.171	-0.151
-413.398	30.392	-0.046	-0.040
-412.384	-28.720	0.151	-0.088
-411.369	-1.069	-0.042	0.030
-410.355	150.954	0.085	-0.117
-409.340	800.000	-0.100	0.386
-408.325	800.000	-0.083	0.265
-407.311	77.348	-0.131	-0.141
-406.296	-200.000	-0.019	-0.134
-405.282	-200.000	0.061	-0.407
-404.267	-169.432	-0.101	0.004
-403.252	64.991	0.153	-0.156
-402.238	18.857	-0.097	-0.078
-401.223	164.685	-0.081	-0.116
-400.209	-200.000	0.077	-0.498
-399.194	-200.000	0.006	-0.254
-398.179	-38.051	-0.170	-0.091
-397.165	271.819	-0.043	-0.077
-396.150	189.047	0.133	-0.201
-395.136	800.000	0.020	0.076
-394.121	111.648	-0.194	0.237
-393.106	109.137	0.040	-0.048
-392.092	31.399	0.124	0.107
-391.077	55.984	-0.230	0.226
-390.063	-200.000	0.016	-0.094
-389.048	-200.000	-0.036	0.310
-388.033	-30.195	0.365	0.209
-387.019	-200.000	-0.002	0.312
-386.004	172.095	-0.228	-0.330
-384.990	800.000	0.040	0.135
-383.975	-74.552	0.041	-0.015
-382.960	171.087	-0.150	0.217
-381.946	-49.609	-0.057	0.028
-380.931	-80.213	0.052	0.018
-379.917	-144.606	-0.067	-0.006
-378.902	38.717	0.342	0.308
-377.888	800.000	0.018	-0.072
-376.873	800.000	-0.076	-0.271
-375.858	299.964	0.128	-0.237
-374.844	-200.000	-0.019	0.258
-373.829	-56.624	-0.304	-0.136
-372.815	-107.457	-0.165	0.037
-371.800	60.930	-0.102	-0.102
-370.785	-86.485	0.296	0.092
-369.771	-65.648	-0.372	0.151
-368.756	402.520	0.085	0.181
-367.742	361.657	0.122	-0.247
-366.727	-21.958	-0.369	0.226
-365.712	-164.020	0.117	-0.005
-364.698	-103.079	0.243	-0.058
-363.683	30.591	0.161	0.139
-362.669	459.233	0.139	-0.312
-361.654	-129.655	-0.084	-0.012
-360.639	-200.000	0.002	-0.022
-359.625	-40.764	0.374	-0.195
-358.610	190.386	0.175	-0.265
-357.596	-200.000	-0.037	0.191
-356.581	231.141	0.275	-0.454
-355.566	109.422	0.170	-0.205
-354.552	-30.533	-0.176	-0.101
-353.537	-168.312	-0.302	0.012
-352.523	-91.406	-0.088	-0.025
-351.508	24.702	-0.046	0.038
-350.493	-40.733	0.089	-0.046
-349.479	-0.536	-0.073	-0.052
-348.464	29.603	0.261	0.224
-347.450	25.714	-0.372	-0.312
-346.435	-120.694	0.128	0.022
-345.420	-200.000	0.056	0.395
-344.406	191.898	-0.033	0.050
-343.391	-73.382	0.297	-0.110
-342.377	-200.000	-0.019	-0.277
-341.362	800.000	-0.135	-0.520
-340.348	102.488	0.192	-0.226
-339.333	-55.260	-0.159	-0.072
-338.318	-67.123	0.182	0.072
-337.304	681.631	-0.061	0.161
-336.289	68.355	-0.022	-0.023
-335.275	61.812	0.056	-0.056
-334.260	-35.680	-0.011	-0.006
-333.245	-200.000	-0.012	0.231
-332.231	-96.632	0.169	-0.045
-331.216	99.415	-0.268	0.312
-330.202	-121.601	-0.265	-0.044
-329.187	-84.647	0.360	0.114
-328.172	-1.521	0.063	0.045
-327.158	-107.740	-0.159	-0.035
-326.143	-200.000	0.014	-0.152
-325.129	-6.242	-0.146	-0.100
-324.114	-6.825	-0.213	-0.146
-323.099	-4.503	0.056	0.039
-322.085	-5.693	0.105	-0.072
-321.070	4.145	-0.141	0.104
-320.056	-96.713	-0.306	-0.081
-319.041	-132.175	0.415	0.054
-318.026	319.095	-0.213	0.407
-317.012	-11.066	0.178	0.118
-315.997	-200.000	0.013	0.349
-314.983	-200.000	-0.031	0.270
-313.968	-200.000	0.014	0.285
-312.953	800.000	0.038	0.108
-311.939	88.133	0.068	0.076
-310.924	-95.095	0.175	0.048
-309.910	253.671	0.083	0.143
-308.895	800.000	-0.066	-0.188
-307.880	-73.374	0.602	-0.221
-306.866	-27.728	-0.109	-0.063
-305.851	-99.641	0.367	0.093
-304.837	207.908	-0.114	0.179
-303.822	-90.554	0.221	-0.064
-302.807	-200.000	-0.032	-0.226
-301.793	-8.073	0.218	-0.148
-300.778	427.945	-0.079	0.171
-299.764	164.510	0.119	0.169
-298.749	111.355	0.276	-0.335
-297.735	-159.826	0.409	0.023
-296.720	-52.586	-0.255	-0.118
-295.705	-7.690	-0.243	-0.165
-294.691	-188.037	-0.127	0.002
-293.676	154.324	0.172	0.238
-292.662	800.000	0.023	0.083
-291.647	2.107	0.146	0.106
-290.632	-92.463	-0.066	0.019
-289.618	800.000	-0.059	0.171
-288.603	-36.816	-0.108	-0.058
-287.589	-200.000	0.070	0.388
-286.574	126.929	0.164	-0.209
-285.559	548.931	0.056	0.135
-284.545	-58.291	0.470	0.205
-283.530	-75.531	0.238	0.085
-282.516	718.095	-0.094	0.251
-281.501	-125.249	-0.256	0.039
-280.486	148.903	0.163	0.222
-279.472	314.419	0.012	0.023
-278.457	-85.882	-0.392	0.122
-277.443	127.689	-0.222	-0.284
-276.428	238.368	-0.060	-0.100
-275.413	-129.883	-0.131	-0.018
-274.399	73.722	-0.008	0.008
-273.384	-52.340	-0.295	-0.137
-272.370	-134.806	0.067	-0.008
-271.355	133.917	-0.181	0.235
-270.340	-94.929	0.066	-0.018
-269.326	265.539	-0.076	-0.134
-268.311	-22.672	0.419	0.254
-267.297	-67.086	-0.292	0.116
-266.282	419.883	-0.182	0.391
-265.267	-140.650	-0.499	-0.052
-264.253	-200.000	-0.006	-0.210
-263.238	182.406	0.205	-0.303
-262.224	-0.504	-0.152	0.108
-261.209	-90.626	0.546	0.158
-260.195	483.084	0.039	-0.088
-259.180	-200.000	-0.043	0.223
-258.165	-173.012	-0.197	0.006
-257.151	-200.000	-0.001	0.085
-256.136	-60.909	-0.356	0.151
-255.122	387.734	-0.128	0.266
-254.107	-195.319	-0.058	-0.000
-253.092	-135.470	0.328	0.039
-252.078	29.788	-0.281	0.240
-251.063	-136.450	0.238	-0.028
-250.049	258.574	-0.234	0.405
-249.034	-124.578	-0.205	-0.032
-248.019	-172.260	0.124	-0.004
-247.005	-181.532	-0.214	0.004
-245.990	18.160	-0.288	0.231
-244.976	-200.000	-0.035	-0.198
-243.961	-200.000	0.002	0.079
-242.946	63.137	0.179	-0.180
-241.932	18.920	-0.216	0.174
-240.917	131.062	-0.164	-0.211
-239.903	32.498	0.180	-0.156
-238.888	307.414	0.151	0.283
-237.873	185.611	0.130	-0.194
-236.859	-26.790	0.091	0.053
-235.844	-166.355	0.211	-0.009
-234.830	-0.906	0.220	-0.156
-233.815	634.640	0.097	0.246
-232.800	227.012	-0.105	0.171
-231.786	-200.000	-0.012	0.105
-230.771	800.000	-0.113	-0.487
-229.757	42.842	-0.092	-0.084
-228.742	800.000	0.106	0.324
-227.727	-200.000	0.023	-0.168
-226.713	141.356	-0.249	-0.331
-225.698	-0.452	0.264	0.188
-224.684	652.340	0.027	0.068
-223.669	-128.496	-0.357	-0.051
-222.655	-61.534	0.141	-0.059
-221.640	800.000	-0.085	-0.237
-220.625	800.000	0.064	0.274
-219.611	-200.000	0.031	0.232
-218.596	-18.131	-0.156	-0.098
-217.582	330.213	0.056	-0.109
-216.567	168.028	0.238	-0.339
-215.552	800.000	-0.083	-0.261
-214.538	-86.123	-0.255	0.079
-213.523	355.821	0.086	-0.173
-212.509	-110.523	0.217	-0.045
-211.494	-118.655	-0.148	-0.026
-210.479	95.742	-0.207	-0.236
-209.465	-200.000	0.024	0.226
-208.450	-142.284	-0.084	-0.008
-207.436	18.357	0.144	0.115
-206.421	117.512	-0.035	-0.043
-205.406	397.618	-0.146	-0.306
-204.392	-137.833	0.106	0.012
-203.377	24.018	0.208	0.172
-202.363	157.133	-0.206	0.285
-201.348	-200.000	0.013	-0.151
-200.333	90.922	-0.275	-0.309
-199.319	141.643	-0.037	-0.049
-198.304	-37.700	0.235	0.125
-197.290	-200.000	-0.009	0.316
-196.275	-141.195	-0.201	0.021
-195.260	606.408	0.058	0.144
-194.246	800.000	-0.073	0.226
-193.231	-73.610	0.185	0.067
-192.217	-130.496	-0.195	0.026
-191.202	167.998	-0.068	0.097
-190.187	-39.162	-0.198	0.104
-189.173	130.004	0.180	0.231
-188.158	-128.879	-0.283	-0.040
-187.144	-72.768	0.095	-0.035
-186.129	317.919	0.101	-0.192
-185.114	27.718	0.161	0.136
-184.100	47.687	-0.075	-0.070
-183.085	-71.627	0.083	0.031
-182.071	-51.382	0.071	0.033
-181.056	800.000	0.045	-0.183
-180.042	47.003	0.126	-0.117
-179.027	800.000	0.036	-0.140
-178.012	73.290	0.041	0.043
-176.998	-164.856	0.155	-0.007
-175.983	567.950	0.051	0.123
-174.969	-113.680	-0.017	-0.003
-173.954	-0.953	-0.252	0.179
-172.939	-200.000	-0.026	0.465
-171.925	245.948	0.131	0.221
-170.910	-126.750	0.167	0.025
-169.896	800.000	0.104	-0.442
-168.881	-200.000	0.009	-0.096
-167.866	-200.000	0.061	-0.422
-166.852	-100.077	-0.119	0.030
-165.837	-51.618	0.455	-0.213
-164.823	-200.000	-0.008	0.252
-163.808	210.268	-0.261	-0.409
-162.793	800.000	-0.102	-0.320
-161.779	-61.453	-0.359	0.151
-160.764	-120.729	0.146	-0.025
-159.750	-163.597	0.195	0.009
-158.735	399.736	0.041	-0.085
-157.720	114.314	0.384	0.468
-156.706	-81.704	-0.242	0.079
-155.691	82.273	-0.245	0.266
-154.677	-16.884	0.205	0.130
-153.662	-145.155	-0.172	0.016
-152.647	-174.170	0.188	-0.005
-151.633	-200.000	-0.004	-0.171
-150.618	157.559	-0.180	0.249
-149.604	-200.000	-0.024	0.190
-148.589	100.151	0.072	-0.083
-147.574	800.000	0.016	0.051
-146.560	-70.197	-0.150	0.057
-145.545	-35.702	-0.285	0.155
-144.531	-200.000	-0.069	0.331
-143.516	125.945	0.104	0.131
-142.502	242.347	-0.167	0.280
-141.487	800.000	-0.053	-0.209
-140.472	-55.072	-0.152	0.068
-139.458	-200.000	0.055	0.272
-138.443	438.142	0.094	-0.206
-137.429	-200.000	-0.027	-0.308
-136.414	-160.226	0.132	0.007
-135.399	-44.831	-0.341	-0.170
-134.385	-122.643	0.294	0.048
-133.370	651.930	0.107	-0.275
-132.356	-200.000	0.036	-0.294
-131.341	-56.059	0.075	0.034
-130.326	-39.856	-0.059	-0.031
-129.312	564.270	0.164	-0.397
-128.297	210.931	0.179	0.282
-127.283	-200.000	0.023	0.156
-126.268	-115.852	0.196	0.037
-125.253	231.021	-0.141	0.231
-124.239	120.635	-0.139	0.172
-123.224	3.106	-0.064	-0.047
-122.210	-9.017	0.156	0.105
-121.195	-47.701	-0.151	0.073
-120.180	-200.000	0.013	-0.156
-119.166	-200.000	-0.062	0.321
-118.151	108.795	0.315	-0.376
-117.137	-200.000	-0.004	-0.103
-116.122	-133.692	-0.166	0.021
-115.107	-56.887	0.206	-0.091
-114.093	309.331	-0.053	0.099
-113.078	-60.355	-0.206	0.088
-112.064	234.736	0.043	0.072
-111.049	30.066	-0.115	-0.098
-110.034	-200.000	0.051	-0.399
-109.020	800.000	-0.062	-0.235
-108.005	-20.727	-0.330	-0.202
-106.991	-50.894	0.338	-0.159
-105.976	73.765	0.218	-0.228
-104.962	-200.000	0.037	0.252
-103.947	-200.000	-0.045	0.328
-102.932	95.157	0.125	0.142
-101.918	131.999	-0.089	-0.114
-100.903	800.000	0.048	-0.158
-99.889	165.406	0.190	0.268
-98.874	-74.788	-0.115	-0.041
-97.859	99.572	-0.083	0.096
-96.845	49.031	-0.027	-0.025
-95.830	-101.581	-0.255	-0.062
-94.816	693.417	0.035	0.092
-93.801	800.000	-0.040	-0.153
-92.786	170.562	-0.035	0.050
-91.772	-75.224	-0.359	0.128
-90.757	-112.659	-0.245	0.049
-89.743	68.409	0.218	-0.223
-88.728	-22.326	-0.077	-0.047
-87.713	-12.140	0.201	0.131
-86.699	-44.235	0.159	-0.079
-85.684	59.581	0.198	0.195
-84.670	-200.000	0.010	-0.418
-83.655	-172.265	-0.144	0.005
-82.640	-115.596	0.336	0.063
-81.626	-200.000	-0.052	-0.282
-80.611	-24.969	-0.039	0.023
-79.597	-200.000	-0.013	0.065
-78.582	-200.000	-0.051	0.368
-77.567	330.186	0.099	0.189
-76.553	-186.471	0.456	-0.006
-75.538	457.159	0.071	-0.157
-74.524	104.703	0.101	0.119
-73.509	424.645	0.158	0.338
-72.494	-129.796	-0.308	-0.042
-71.480	-51.019	-0.202	-0.095
-70.465	5.682	-0.111	-0.082
-69.451	-5.817	-0.106	-0.072
-68.436	25.024	-0.165	0.136
-67.422	-200.000	0.004	0.160
-66.407	-200.000	-0.022	0.180
-65.392	426.924	0.068	-0.146
-64.378	800.000	-0.073	-0.225
-63.363	-154.058	0.202	0.014
-62.349	34.496	0.143	-0.125
-61.334	100.514	-0.677	-0.784
-60.319	752.938	0.122	0.330
-59.305	-200.000	-0.074	-0.835
-58.290	46.311	0.698	0.645
-57.276	800.000	0.437	1.903
-56.261	-200.000	76.277	511.692
-55.246	519.278	1325.470	3093.777
-54.232	146.999	2554.911	3423.788
-53.217	117.435	2226.740	2728.726
-52.203	52.716	1673.516	1593.390
-51.188	44.708	1398.467	1281.344
-50.173	41.079	1353.104	1217.577
-49.159	59.559	1387.927	1363.354
-48.144	66.345	1406.917	1423.776
-47.130	45.172	1369.241	1257.226
-46.115	41.063	1353.090	1217.275
-45.100	40.959	1348.066	1212.072
-44.086	40.782	1345.762	1208.878
-43.071	40.816	1343.374	1206.892
-42.057	40.654	1341.625	1204.290
-41.042	40.767	1339.326	1202.861
-40.027	40.863	1338.162	1202.348
-39.013	40.807	1336.352	1200.338
-37.998	40.845	1334.244	1198.624
-36.984	40.901	1332.701	1197.529
-35.969	40.932	1330.870	1196.024
-34.954	40.999	1328.485	1194.235
-33.940	40.938	1327.673	1193.093
-32.925	41.016	1326.524	1192.476
-31.911	40.960	1325.282	1190.980
-30.896	41.032	1323.344	1189.619
-29.881	40.924	1322.241	1187.935
-28.867	40.993	1320.911	1187.109
-27.852	40.962	1319.437	1185.547
-26.838	41.134	1317.861	1185.110
-25.823	40.956	1316.590	1182.865
-24.809	41.154	1314.626	1182.229
-23.794	41.073	1313.327	1180.529
-22.779	41.023	1311.704	1178.729
-21.765	41.027	1310.746	1177.848
-20.750	41.058	1309.323	1176.704
-19.736	40.951	1308.235	1175.047
-18.721	40.918	1306.504	1173.253
-17.706	40.863	1305.929	1172.361
-16.692	40.812	1304.613	1170.831
-15.677	40.773	1303.837	1169.859
-14.663	40.861	1302.148	1168.816
-13.648	40.827	1301.932	1168.379
-12.633	40.904	1300.079	1167.120
-11.619	40.970	1299.013	1166.504
-10.604	40.931	1298.521	1165.788
-9.590	40.926	1297.585	1164.872
-8.575	40.899	1296.238	1163.459
-7.560	40.904	1295.464	1162.747
-6.546	40.895	1294.773	1162.029
-5.531	40.948	1293.561	1161.202
-4.517	41.030	1292.599	1160.771
-3.502	40.888	1292.037	1159.396
-2.487	40.983	1290.798	1158.786
-1.473	40.910	1286.804	1154.735
-0.458	39.448	1271.688	1132.722
0.556	35.353	1250.372	1086.328
1.571	31.046	1253.557	1064.480
2.586	29.711	1268.876	1069.675
3.600	28.409	1257.790	1052.763
4.615	20.648	1180.727	946.137
5.629	8.288	1096.995	816.128
6.644	2.692	1072.807	770.020
7.659	2.092	1069.892	764.855
8.673	1.953	1068.415	763.034
9.688	1.926	1066.856	761.717
10.702	2.361	1065.093	762.562
11.717	9.156	1076.092	804.499
12.731	20.279	1091.757	872.370
13.746	25.241	1097.708	902.065
14.761	25.527	1098.076	903.724
15.775	25.520	1097.646	903.255
16.790	25.377	1096.682	901.661
17.804	25.292	1096.147	900.715
18.819	25.442	1095.486	900.846
19.834	25.507	1095.362	900.990
20.848	25.517	1094.786	900.487
21.863	25.481	1093.995	899.577
22.877	25.422	1093.541	898.829
23.892	25.425	1092.735	898.099
24.907	25.556	1091.793	897.900
25.921	25.559	1090.472	896.749
26.936	25.470	1089.405	895.352
27.950	25.489	1087.926	894.151
28.965	25.229	1086.400	891.525
29.980	25.426	1084.443	890.819
30.994	25.550	1083.906	890.912
32.009	25.483	1082.783	889.578
33.023	25.362	1081.182	887.586
34.038	25.570	1080.616	888.068
35.053	25.521	1080.409	887.581
36.067	25.557	1079.262	886.738
37.082	25.680	1078.376	886.535
38.096	25.641	1078.306	886.208
39.111	25.786	1077.633	886.293
40.126	25.569	1076.098	883.881
41.140	25.306	1074.263	881.007
42.155	25.075	1072.691	878.508
43.169	25.042	1072.532	878.139
44.184	25.040	1071.504	877.211
45.199	24.925	1070.683	875.897
46.213	25.114	1069.208	875.536
47.228	25.253	1068.802	875.807
48.242	25.355	1068.018	875.581
49.257	25.413	1067.291	875.189
50.271	25.463	1066.426	874.646
51.286	25.564	1065.749	874.504
52.301	25.590	1064.855	873.821
53.315	25.460	1063.709	872.172
54.330	25.268	1062.678	870.320
55.344	25.402	1062.109	870.427
56.359	25.409	1061.187	869.625
57.374	25.222	1060.425	868.020
58.388	25.124	1059.795	866.953
59.403	25.020	1058.619	865.412
60.417	24.971	1057.807	864.436
61.432	25.139	1057.067	864.568
62.447	25.238	1056.405	864.424
63.461	25.114	1056.277	863.649
64.476	25.097	1055.247	862.648
65.490	25.067	1053.911	861.334
66.505	25.183	1053.323	861.333
67.520	25.189	1052.689	860.767
68.534	24.882	1051.819	858.508
69.549	24.638	1050.466	856.162
70.563	24.638	1049.642	855.414
71.578	24.762	1048.846	855.278
72.593	24.623	1047.665	853.577
73.607	24.712	1047.269	853.607
74.622	25.030	1046.532	854.445
75.636	25.094	1045.801	854.075
76.651	24.894	1045.272	852.619
77.666	24.759	1044.553	851.314
78.680	24.803	1044.061	851.048
79.695	24.852	1043.648	850.868
80.709	25.070	1042.596	850.969
81.724	24.956	1041.636	849.572
82.739	25.033	1041.347	849.622
83.753	25.402	1040.634	850.716
84.768	25.733	1040.012	851.697
85.782	25.758	1039.338	851.189
86.797	25.746	1037.824	849.817
87.812	25.581	1037.022	848.304
88.826	25.732	1035.729	847.885
89.841	25.672	1035.640	847.454
90.855	25.725	1034.316	846.548
91.870	25.639	1033.655	845.528
92.884	25.508	1032.057	843.529
93.899	25.599	1030.991	843.011
94.914	25.841	1030.462	843.637
95.928	25.520	1029.741	841.471
96.943	25.294	1027.975	838.895
97.957	25.295	1026.779	837.851
98.972	24.935	1025.905	835.385
99.987	25.214	1025.390	836.189
101.001	25.333	1024.539	835.978
102.016	25.401	1023.441	835.323
103.030	25.289	1022.836	834.236
104.045	25.297	1021.234	832.890
105.060	25.055	1020.587	831.170
106.074	25.164	1020.227	831.308
107.089	25.444	1019.958	832.309
108.103	25.423	1018.268	830.761
109.118	25.195	1017.356	828.890
110.133	25.102	1016.613	827.780
111.147	24.815	1015.378	825.378
112.162	24.937	1014.013	824.761
113.176	25.121	1013.767	825.332
114.191	24.972	1012.947	823.905
115.206	24.713	1012.248	822.073
116.220	24.622	1011.263	820.786
117.235	24.884	1010.060	820.938
118.249	24.854	1009.646	820.391
119.264	24.637	1009.166	818.936
120.279	24.711	1008.463	818.628
121.293	24.893	1007.602	818.691
122.308	24.743	1006.458	817.005
123.322	24.746	1005.336	816.034
124.337	24.651	1004.108	814.532
125.352	24.105	1002.714	810.841
126.366	24.009	1001.820	809.611
127.381	24.978	1001.272	813.503
128.395	25.404	1000.962	815.113
129.410	25.423	1000.274	814.563
130.424	25.367	999.413	813.538
131.439	25.294	998.423	812.328
132.454	25.387	997.264	811.737
133.468	25.275	997.115	811.037
134.483	25.476	996.473	811.349
135.497	25.618	995.552	811.168
136.512	25.733	994.327	810.617
137.527	25.704	993.423	809.675
138.541	25.767	992.585	809.206
139.556	25.675	991.869	808.137
140.570	25.637	991.765	807.812
141.585	25.883	989.964	807.375
142.600	25.663	989.153	805.654
143.614	25.679	989.092	805.605
144.629	25.935	988.186	805.943
145.643	25.848	986.462	804.075
146.658	25.560	985.779	802.165
147.673	25.567	984.292	800.916
148.687	25.566	982.993	799.783
149.702	25.426	981.871	798.178
150.716	25.372	981.152	797.282
151.731	25.530	980.676	797.526
152.746	25.588	980.356	797.453
153.760	25.769	979.338	797.354
154.775	25.781	978.717	796.834
155.789	25.857	977.674	796.248
156.804	25.784	976.887	795.216
157.819	25.763	976.152	794.454
158.833	25.934	975.377	794.504
159.848	25.942	974.580	793.823
160.862	25.868	973.125	792.240
161.877	25.833	972.282	791.332
162.892	25.776	971.621	790.473
163.906	25.786	970.354	789.416
164.921	25.709	969.223	788.088
165.935	25.738	968.411	787.484
166.950	25.838	967.151	786.827
167.964	25.952	966.418	786.660
168.979	25.682	965.722	784.846
169.994	25.494	965.126	783.473
171.008	25.713	964.343	783.721
172.023	25.821	963.586	783.509
173.037	25.548	962.481	781.351
174.052	25.476	961.589	780.247
175.067	25.517	960.541	779.505
176.081	25.474	960.321	779.074
177.096	25.508	959.648	778.605
178.110	25.166	959.076	776.590
179.125	25.110	958.215	775.581
180.140	25.214	957.152	775.102
181.154	25.398	957.090	775.780
182.169	25.551	957.285	776.528
183.183	25.899	956.547	777.363
184.198	25.729	955.509	775.720
185.213	25.670	955.181	775.128
186.227	25.778	954.268	774.784
187.242	25.843	953.499	774.369
188.256	25.874	952.964	773.999
189.271	25.890	952.311	773.470
190.286	25.485	951.420	770.943
191.300	24.844	949.653	766.696
192.315	23.994	948.239	761.849
193.329	24.040	947.847	761.666
194.344	25.042	948.329	766.270
195.359	25.631	948.121	768.551
196.373	25.747	947.862	768.768
197.388	25.656	947.260	767.825
198.402	25.684	946.366	767.152
199.417	25.631	946.117	766.656
200.432	25.476	944.783	764.848
201.446	25.179	944.439	763.238
202.461	25.241	943.545	762.712
203.475	24.609	941.431	758.254
204.490	23.830	940.219	753.910
205.504	24.591	940.495	757.289
206.519	25.298	940.787	760.455
207.534	25.248	940.434	759.888
208.548	25.766	939.778	761.483
209.563	25.508	938.726	759.473
210.577	25.395	938.519	758.761
211.592	25.926	938.092	760.591
212.607	25.775	937.669	759.546
213.621	25.893	936.628	759.132
214.636	25.795	936.227	758.326
215.650	25.906	934.933	757.679
216.665	25.870	934.687	757.260
217.680	25.937	933.679	756.658
218.694	25.417	933.073	753.916
219.709	25.364	931.966	752.736
220.723	25.619	931.562	753.410
221.738	25.659	931.048	753.095
222.753	25.678	930.520	752.680
223.767	25.795	930.136	752.794
224.782	25.896	929.925	752.974
225.796	25.985	929.435	752.884
226.811	25.336	927.703	748.709
227.826	24.546	926.631	744.486
228.840	24.816	926.147	745.157
229.855	24.943	925.242	744.891
230.869	24.498	924.359	742.265
231.884	24.951	924.274	744.013
232.899	25.509	924.351	746.328
233.913	25.609	923.635	746.097
234.928	25.642	922.885	745.563
235.942	25.484	922.273	744.348
236.957	25.269	921.096	742.442
237.972	25.300	920.930	742.372
238.986	25.252	920.540	741.794
240.001	25.229	919.823	741.055
241.015	25.420	919.118	741.207
242.030	25.631	918.514	741.526
243.045	25.818	918.137	741.925
244.059	25.821	917.997	741.759
245.074	25.776	916.464	740.271
246.088	25.337	915.625	737.726
247.103	25.528	915.620	738.439
248.117	26.102	915.944	740.992
249.132	26.369	915.376	741.563
250.147	26.472	914.850	741.495
251.161	26.465	914.725	741.298
252.176	26.579	913.556	740.752
253.190	26.671	913.611	741.109
254.205	26.864	912.936	741.283
255.220	26.600	912.396	739.700
256.234	26.414	911.661	738.280
257.249	26.406	910.742	737.437
258.263	26.542	909.795	737.159
259.278	26.610	909.035	736.755
260.293	26.721	908.414	736.636
261.307	26.464	908.371	735.492
262.322	26.252	907.490	733.852
263.336	25.544	905.248	729.108
264.351	24.616	903.306	723.722
265.366	24.817	902.774	724.045
266.380	25.795	904.005	728.930
267.395	26.117	903.818	730.014
268.409	26.147	902.792	729.242
269.424	26.318	902.523	729.652
270.439	26.420	901.935	729.521
271.453	26.387	901.206	728.734
272.468	26.610	900.762	729.211
273.482	26.695	900.277	729.094
274.497	26.355	898.819	726.486
275.512	25.848	898.369	724.019
276.526	26.308	898.436	725.859
277.541	26.417	898.063	725.929
278.555	26.318	896.710	724.376
279.570	26.094	896.117	722.933
280.585	26.222	895.597	722.962
281.599	26.240	894.708	722.253
282.614	25.544	893.770	718.651
283.628	25.628	893.345	718.582
284.643	25.918	892.847	719.275
285.657	25.593	891.892	717.146
286.672	25.253	890.776	714.830
287.687	25.968	890.563	717.444
288.701	26.024	890.192	717.302
289.716	25.704	889.756	715.616
290.730	25.592	888.574	714.157
291.745	25.275	887.812	712.226
292.760	25.580	887.789	713.353
293.774	26.536	888.183	717.398
294.789	26.850	887.760	718.237
295.803	26.900	887.053	717.801
296.818	26.754	886.990	717.105
297.833	26.453	885.743	714.848
298.847	26.248	885.097	713.451
299.862	26.689	884.486	714.637
300.876	26.909	884.078	715.112
301.891	26.927	883.265	714.462
302.906	26.400	882.636	711.814
303.920	26.518	882.435	712.056
304.935	26.875	882.143	713.158
305.949	26.921	881.467	712.730
306.964	26.549	880.602	710.508
307.979	26.708	880.711	711.156
308.993	27.035	879.961	711.770
310.008	26.958	879.496	711.028
311.022	26.757	878.445	709.329
312.037	26.606	878.069	708.372
313.052	26.418	876.708	706.477
314.066	25.527	875.276	701.785
315.081	25.197	874.365	699.706
316.095	26.156	874.774	703.711
317.110	26.595	874.637	705.250
318.125	25.850	873.182	701.115
319.139	24.613	872.256	695.499
320.154	24.617	871.522	694.868
321.168	25.504	871.820	698.493
322.183	26.377	871.790	701.798
323.197	26.413	871.851	701.925
324.212	26.581	871.187	701.978
325.227	26.626	870.657	701.664
326.241	26.489	869.844	700.414
327.256	26.402	869.532	699.765
328.270	26.346	868.731	698.844
329.285	26.206	867.448	697.207
330.300	25.936	866.724	695.525
331.314	26.142	866.526	696.097
332.329	26.535	866.611	697.619
333.343	26.780	866.355	698.296
334.358	26.733	865.700	697.525
335.373	26.902	865.260	697.759
336.387	27.191	865.347	698.878
337.402	27.286	865.484	699.293
338.416	27.144	864.615	697.981
339.431	27.287	864.543	698.413
340.446	27.442	864.167	698.641
341.460	27.284	863.751	697.636
342.475	27.108	863.256	696.500
343.489	27.174	862.957	696.450
344.504	27.383	862.519	696.834
345.519	27.514	862.473	697.239
346.533	27.627	861.564	696.872
347.548	27.637	861.110	696.485
348.562	27.604	860.311	695.649
349.577	27.405	860.111	694.665
350.592	27.368	859.618	694.066
351.606	27.364	858.579	693.151
352.621	27.321	857.465	692.026
353.635	27.397	856.677	691.620
354.650	26.681	855.166	687.621
355.665	25.617	853.959	682.556
356.679	26.094	853.538	683.967
357.694	26.680	853.316	685.948
358.708	26.428	852.844	684.555
359.723	26.847	852.423	685.740
360.738	27.131	852.327	686.675
361.752	27.242	851.883	686.674
362.767	27.767	851.118	687.978
363.781	27.859	851.164	688.300
364.796	27.963	850.507	688.102
365.810	28.110	850.148	688.301
366.825	27.899	849.998	687.327
367.840	27.556	848.959	685.134
368.854	27.286	848.124	683.385
369.869	27.187	847.842	682.726
370.883	27.262	847.677	682.817
371.898	27.087	847.245	681.751
372.913	27.236	846.854	681.935
373.927	27.309	846.270	681.680
374.942	27.464	845.639	681.689
375.956	27.603	845.430	681.982
376.971	27.766	844.880	682.087
377.986	27.953	844.232	682.199
379.000	28.076	843.573	682.068
380.015	27.835	843.167	680.779
381.029	27.752	842.645	679.990
382.044	27.966	842.289	680.438
383.059	27.873	841.616	679.489
384.073	27.898	841.214	679.198
385.088	27.760	840.645	678.164
386.102	27.513	839.750	676.466
387.117	27.604	839.036	676.169
388.132	27.280	837.841	673.945
389.146	26.853	836.922	671.564
390.161	27.044	837.462	672.645
391.175	27.467	837.027	673.802
392.190	27.401	835.555	672.313
393.205	25.900	833.684	665.213
394.219	24.396	831.770	658.086
395.234	24.352	831.572	657.710
396.248	25.874	832.928	664.339
397.263	27.353	834.146	670.709
398.278	27.341	833.582	670.151
399.292	27.180	833.019	669.046
400.307	27.085	832.302	668.061
401.321	27.249	831.942	668.315
402.336	27.699	831.320	669.410
403.350	28.067	832.061	671.299
404.365	28.323	832.045	672.164
405.380	28.665	831.314	672.768
406.394	28.694	830.687	672.308
407.409	28.442	830.494	671.171
408.423	28.535	829.779	670.871
409.438	28.695	829.514	671.185
410.453	28.635	829.172	670.629
411.467	28.601	828.756	670.107
412.482	28.599	828.521	669.851
413.496	28.654	828.077	669.633
414.511	28.749	827.517	669.468
415.526	28.592	827.210	668.589
416.540	28.448	826.092	667.102
417.555	28.294	825.733	666.194
418.569	28.434	825.091	666.125
419.584	28.368	824.468	665.322
420.599	28.058	823.878	663.665
421.613	95.136	1265.253	1375.742
422.628	82.098	1329.609	1375.844
