DTS Sentinel unit serial number:	SN413079Multiplexer serial number:	ORYXHardware model number:	OX4-SRSoftware version number:	ORYX F/W v4.00 Oryx Data Collector v3.7.2.0data status	okinstallation	princeton_trtdifferential loss correction	single-endedforward channel	channel 1reverse channel	N/Adate	2019/09/12time	09:56:11forward acquisition time	60.00reverse acquisition time	0.00gamma	496.2192k internal	0.2299k external	0.2299temperature offset calibration	1.0045default loss term (dB/km)	0.3790temperature slope calibration	1.0000multiplexer offset coefficient	1.0000multiplexer slope coefficient	1.0000fibre end	0.00T internal ref (°C)	36.12T ext. ref 1 (°C)	1.82T ext. ref 2 (°C)	32.59length (m)	temperature (°C)	Stokes	anti-Stokes-747.200	-99.890	-0.190	-0.049
-746.185	128.770	-0.214	0.278
-745.171	5.711	-0.190	0.143
-744.156	-22.003	-0.236	0.146
-743.142	-179.354	0.421	-0.009
-742.127	113.037	-0.098	0.121
-741.112	51.214	0.144	0.140
-740.098	-151.874	-0.127	-0.009
-739.083	-130.916	0.336	0.046
-738.069	17.392	-0.140	0.114
-737.054	-93.146	0.296	-0.084
-736.039	548.774	0.157	-0.383
-735.025	-200.000	-0.000	0.087
-734.010	281.760	-0.132	-0.242
-732.996	334.622	0.109	-0.215
-731.981	201.378	0.105	-0.166
-730.966	103.849	0.174	-0.209
-729.952	710.560	0.016	-0.043
-728.937	-200.000	-0.042	-0.209
-727.923	-128.511	-0.267	-0.039
-726.908	-106.974	-0.311	0.070
-725.894	87.224	0.217	0.245
-724.879	6.043	-0.306	0.231
-723.864	20.175	0.155	-0.127
-722.850	800.000	-0.097	-0.388
-721.835	-200.000	0.006	-0.029
-720.821	-18.352	0.373	-0.238
-719.806	-200.000	-0.035	0.228
-718.791	-200.000	0.003	0.145
-717.777	-82.747	-0.083	0.027
-716.762	-108.939	-0.086	-0.019
-715.748	-10.117	0.237	-0.161
-714.733	-43.193	0.162	0.083
-713.718	201.931	-0.143	0.224
-712.704	-36.941	-0.379	0.207
-711.689	-127.656	0.403	0.059
-710.675	263.810	0.093	-0.165
-709.660	214.564	0.219	-0.354
-708.645	-76.010	0.178	0.064
-707.631	-65.199	-0.147	0.060
-706.616	306.222	-0.095	-0.181
-705.602	-33.755	0.278	0.156
-704.587	86.999	-0.206	-0.232
-703.572	-98.074	-0.172	0.045
-702.558	547.692	-0.101	0.246
-701.543	-200.000	-0.014	0.194
-700.529	706.194	-0.112	-0.300
-699.514	126.318	0.160	-0.206
-698.499	-200.000	-0.028	-0.251
-697.485	47.482	0.110	-0.105
-696.470	-124.144	-0.061	-0.010
-695.456	-197.464	-0.072	0.000
-694.441	-200.000	-0.019	-0.469
-693.426	-2.558	0.274	-0.195
-692.412	-25.879	0.522	-0.313
-691.397	3.970	-0.238	-0.177
-690.383	32.157	0.150	0.132
-689.368	374.523	-0.250	-0.519
-688.354	158.736	-0.104	-0.148
-687.339	-200.000	-0.006	0.189
-686.324	-200.000	0.030	0.302
-685.310	-19.995	-0.506	0.318
-684.295	162.377	-0.054	0.077
-683.281	-13.818	-0.050	0.033
-682.266	-59.586	-0.217	-0.095
-681.251	-200.000	-0.021	0.105
-680.237	153.626	-0.156	0.217
-679.222	335.910	0.059	-0.117
-678.208	-200.000	-0.003	-0.284
-677.193	86.635	0.178	0.200
-676.178	187.026	0.190	0.288
-675.164	-200.000	-0.050	0.000
-674.149	272.225	-0.045	-0.080
-673.135	800.000	0.077	-0.268
-672.120	62.388	-0.093	-0.094
-671.105	-16.360	0.209	-0.135
-670.091	144.127	-0.120	-0.163
-669.076	89.079	-0.196	0.222
-668.062	417.617	-0.129	0.280
-667.047	-184.074	0.078	-0.001
-666.032	-200.000	0.038	-0.169
-665.018	-121.846	-0.407	0.068
-664.003	-200.000	-0.013	0.465
-662.989	-180.174	0.298	0.006
-661.974	-37.430	0.401	-0.218
-660.959	-108.538	-0.181	0.040
-659.945	-200.000	-0.001	-0.022
-658.930	117.898	-0.047	-0.059
-657.916	-200.000	-0.056	-0.292
-656.901	-200.000	0.030	0.441
-655.886	-19.724	-0.327	-0.205
-654.872	-63.454	-0.150	0.062
-653.857	-155.235	0.190	-0.013
-652.843	800.000	0.042	-0.178
-651.828	58.854	0.247	-0.247
-650.814	-200.000	-0.034	-0.253
-649.799	-147.023	0.327	-0.028
-648.784	588.858	-0.041	-0.102
-647.770	-200.000	-0.002	-0.068
-646.755	-32.404	-0.196	0.111
-645.741	800.000	-0.065	-0.194
-644.726	-156.111	-0.238	-0.015
-643.711	243.259	-0.057	0.097
-642.697	-200.000	0.016	-0.210
-641.682	225.112	0.228	-0.375
-640.668	800.000	0.008	-0.036
-639.653	38.881	-0.223	0.203
-638.638	284.718	0.127	-0.233
-637.624	147.979	-0.184	0.252
-636.609	218.224	-0.124	0.202
-635.595	-82.956	0.288	0.094
-634.580	-125.894	0.250	0.038
-633.565	800.000	-0.075	-0.306
-632.551	-200.000	-0.044	-0.203
-631.536	-26.954	-0.125	-0.074
-630.522	-200.000	-0.007	0.047
-629.507	800.000	0.063	-0.193
-628.492	-32.707	-0.269	0.152
-627.478	-157.957	0.039	-0.002
-626.463	-156.307	-0.324	0.021
-625.449	-200.000	0.007	0.115
-624.434	-172.044	-0.222	0.007
-623.419	116.678	-0.054	-0.068
-622.405	-72.983	0.146	0.054
-621.390	401.664	-0.068	0.146
-620.376	-49.355	-0.068	0.033
-619.361	-112.739	0.266	-0.054
-618.346	-125.199	0.089	-0.014
-617.332	80.461	0.111	-0.121
-616.317	-101.017	-0.145	-0.036
-615.303	-58.812	-0.189	0.083
-614.288	-200.000	0.015	-0.222
-613.273	800.000	-0.041	-0.115
-612.259	368.347	0.085	0.175
-611.244	-29.743	-0.240	-0.139
-610.230	258.305	0.197	-0.344
-609.215	800.000	0.105	-0.356
-608.201	437.099	0.166	0.368
-607.186	740.116	-0.104	0.283
-606.171	-69.522	-0.067	-0.026
-605.157	30.343	0.061	0.053
-604.142	65.518	0.160	-0.164
-603.128	-75.541	0.224	-0.081
-602.113	-6.174	-0.207	0.144
-601.098	-68.131	-0.349	0.138
-600.084	3.637	-0.063	-0.047
-599.069	-166.522	-0.115	-0.005
-598.055	-98.755	-0.138	0.036
-597.040	-74.785	-0.058	0.021
-596.025	-108.645	0.332	0.072
-595.011	129.094	0.247	-0.320
-593.996	-42.293	-0.051	-0.026
-592.982	157.300	0.109	-0.153
-591.967	800.000	-0.065	-0.207
-590.952	324.940	-0.079	-0.154
-589.938	-99.571	-0.223	0.057
-588.923	-24.760	-0.356	-0.215
-587.909	-28.519	0.257	0.150
-586.894	-159.326	-0.225	-0.013
-585.879	-165.765	0.167	0.007
-584.865	-14.896	0.039	0.026
-583.850	-155.030	0.183	-0.012
-582.836	-139.796	0.215	0.023
-581.821	-200.000	-0.002	0.492
-580.806	-36.425	0.027	0.015
-579.792	-200.000	0.041	0.254
-578.777	-156.346	-0.201	0.013
-577.763	-200.000	0.052	0.241
-576.748	-78.394	-0.149	-0.052
-575.733	162.585	0.037	-0.053
-574.719	-161.944	0.264	0.014
-573.704	-107.611	0.119	0.026
-572.690	75.338	0.116	0.124
-571.675	562.068	0.044	-0.109
-570.661	461.829	0.111	0.251
-569.646	-190.415	-0.284	0.003
-568.631	82.802	-0.198	0.218
-567.617	800.000	-0.043	0.164
-566.602	-66.886	0.075	0.030
-565.588	-200.000	0.012	-0.200
-564.573	-2.364	0.182	-0.129
-563.558	185.625	-0.123	-0.185
-562.544	24.644	-0.131	0.110
-561.529	59.546	-0.208	-0.208
-560.515	800.000	-0.031	0.106
-559.500	800.000	-0.044	0.126
-558.485	-96.015	-0.322	0.087
-557.471	82.157	-0.064	-0.070
-556.456	222.398	-0.056	-0.091
-555.442	30.651	0.091	0.079
-554.427	-56.404	-0.284	0.128
-553.412	-200.000	0.014	0.083
-552.398	15.953	-0.232	-0.185
-551.383	-143.173	0.338	0.033
-550.369	-112.419	-0.223	0.045
-549.354	-50.726	0.088	-0.042
-548.339	-102.253	-0.264	-0.064
-547.325	217.046	0.144	-0.233
-546.310	800.000	-0.018	0.060
-545.296	-26.086	0.115	-0.068
-544.281	-53.099	0.254	0.118
-543.266	76.625	0.089	-0.096
-542.252	701.610	-0.100	0.266
-541.237	-68.122	0.149	0.059
-540.223	16.900	-0.088	0.071
-539.208	-200.000	-0.066	-0.357
-538.193	120.430	-0.314	-0.395
-537.179	676.922	0.138	-0.362
-536.164	-86.441	-0.160	0.050
-535.150	-56.015	0.210	0.095
-534.135	49.019	0.365	0.347
-533.121	-104.561	-0.240	0.056
-532.106	33.248	0.117	0.102
-531.091	-200.000	-0.006	-0.088
-530.077	637.059	0.068	0.176
-529.062	800.000	0.076	-0.265
-528.048	648.828	0.034	0.087
-527.033	-200.000	-0.011	0.155
-526.018	-200.000	0.022	0.124
-525.004	800.000	0.061	0.264
-523.989	-200.000	0.004	-0.094
-522.975	25.898	-0.197	-0.166
-521.960	150.992	0.107	0.148
-520.945	-200.000	0.099	0.454
-519.931	-104.868	-0.429	-0.100
-518.916	-58.393	-0.296	-0.130
-517.902	-200.000	0.006	-0.046
-516.887	216.138	-0.119	-0.192
-515.872	268.340	0.147	0.260
-514.858	-82.015	0.247	-0.081
-513.843	28.306	0.174	-0.149
-512.829	22.322	0.091	0.075
-511.814	-200.000	0.053	0.323
-510.799	-8.487	-0.149	0.101
-509.785	-86.311	0.208	-0.065
-508.770	238.499	-0.218	-0.366
-507.756	775.244	-0.063	0.175
-506.741	-126.120	0.195	0.030
-505.726	-200.000	-0.044	-0.303
-504.712	481.080	0.100	0.229
-503.697	-200.000	0.024	-0.202
-502.683	-200.000	0.014	-0.089
-501.668	-200.000	-0.010	0.056
-500.653	5.502	0.147	-0.110
-499.639	28.253	-0.177	0.151
-498.624	-1.534	0.137	-0.097
-497.610	800.000	-0.079	0.309
-496.595	-160.476	-0.080	0.004
-495.581	53.047	-0.149	0.144
-494.566	800.000	0.105	0.348
-493.551	-172.127	0.237	0.008
-492.537	84.524	-0.227	-0.251
-491.522	95.979	-0.156	-0.180
-490.508	-118.896	0.108	-0.019
-489.493	-16.014	-0.366	-0.235
-488.478	16.349	-0.323	-0.257
-487.464	800.000	-0.072	-0.244
-486.449	-51.990	0.113	-0.053
-485.435	-44.163	-0.162	-0.082
-484.420	-123.930	0.066	-0.011
-483.405	-61.876	-0.150	0.064
-482.391	385.693	0.043	0.089
-481.376	800.000	0.137	0.408
-480.362	800.000	-0.044	0.167
-479.347	125.946	0.113	-0.144
-478.332	-120.020	0.219	-0.038
-477.318	800.000	0.042	0.170
-476.303	-116.600	0.139	-0.026
-475.289	231.780	-0.272	-0.451
-474.274	50.962	0.015	0.015
-473.259	5.732	0.184	-0.138
-472.245	-200.000	-0.004	0.096
-471.230	-47.163	-0.029	-0.014
-470.216	-200.000	0.024	0.130
-469.201	755.022	-0.111	0.304
-468.186	-56.993	-0.184	0.082
-467.172	-116.406	0.118	-0.022
-466.157	-0.269	0.188	0.135
-465.143	-200.000	0.024	-0.184
-464.128	-200.000	0.033	-0.161
-463.113	-8.844	0.207	0.140
-462.099	-153.640	0.407	-0.028
-461.084	-88.328	-0.181	-0.055
-460.070	203.950	0.194	-0.304
-459.055	-200.000	-0.003	0.091
-458.040	-200.000	-0.011	-0.139
-457.026	-73.775	0.298	-0.110
-456.011	-30.875	0.244	-0.139
-454.997	800.000	0.034	-0.107
-453.982	-160.090	0.232	-0.013
-452.968	-200.000	0.033	-0.199
-451.953	-36.586	0.029	0.016
-450.938	333.214	0.015	0.029
-449.924	-108.128	-0.151	0.033
-448.909	392.696	0.077	-0.162
-447.895	-74.877	-0.324	-0.117
-446.880	-62.914	0.307	0.128
-445.865	-23.772	0.063	0.038
-444.851	800.000	0.120	-0.373
-443.836	-133.702	-0.170	-0.021
-442.822	800.000	0.062	0.249
-441.807	-165.689	0.320	0.014
-440.792	170.092	0.185	0.267
-439.778	-155.405	-0.384	0.025
-438.763	-200.000	-0.013	0.270
-437.749	-200.000	-0.017	-0.148
-436.734	211.502	-0.149	-0.236
-435.719	800.000	-0.038	-0.125
-434.705	-9.977	0.069	0.046
-433.690	185.463	-0.181	-0.271
-432.676	-142.742	0.301	0.030
-431.661	-200.000	-0.000	0.312
-430.646	4.865	0.046	0.034
-429.632	800.000	-0.089	-0.251
-428.617	800.000	0.146	-0.511
-427.603	-8.863	0.069	0.046
-426.588	-107.876	-0.234	0.051
-425.573	-200.000	-0.085	0.496
-424.559	688.494	0.102	0.268
-423.544	-14.885	-0.121	0.078
-422.530	446.205	0.046	-0.102
-421.515	800.000	-0.129	-0.410
-420.500	-101.569	-0.375	-0.092
-419.486	-147.766	-0.227	0.019
-418.471	-200.000	-0.001	0.298
-417.457	-151.197	0.334	-0.025
-416.442	-200.000	0.025	0.225
-415.428	800.000	0.042	-0.180
-414.413	129.479	0.052	0.067
-413.398	-140.550	-0.350	-0.037
-412.384	-42.016	0.043	0.022
-411.369	-57.452	0.282	0.125
-410.355	-200.000	-0.008	0.363
-409.340	-74.323	-0.249	-0.091
-408.325	10.629	0.185	0.142
-407.311	-18.824	0.276	-0.173
-406.296	54.192	0.220	-0.213
-405.282	-129.456	0.320	-0.045
-404.267	-200.000	-0.027	0.150
-403.252	218.138	0.155	0.250
-402.238	-35.561	0.099	-0.054
-401.223	-158.112	0.430	0.025
-400.209	-126.529	-0.294	0.044
-399.194	-130.809	0.215	-0.029
-398.179	12.588	-0.214	0.166
-397.165	-200.000	-0.005	0.143
-396.150	-17.600	-0.341	0.216
-395.136	-39.026	-0.214	-0.113
-394.121	-125.873	0.320	0.049
-393.106	-181.500	0.046	0.001
-392.092	-137.787	0.150	0.017
-391.077	-200.000	0.021	-0.268
-390.063	43.593	-0.449	-0.414
-389.048	-25.571	-0.111	-0.066
-388.033	-200.000	0.004	0.189
-387.019	710.007	-0.055	-0.146
-386.004	-82.335	0.284	0.093
-384.990	209.530	0.047	-0.075
-383.975	30.631	0.109	-0.094
-382.960	126.652	0.129	0.164
-381.946	-130.605	0.260	0.035
-380.931	356.034	-0.156	0.313
-379.917	182.001	0.129	0.191
-378.902	-53.770	-0.231	-0.106
-377.888	-40.865	0.137	-0.071
-376.873	-108.779	0.174	0.038
-375.858	800.000	0.074	0.293
-374.844	-71.143	0.188	-0.071
-373.829	260.354	-0.108	-0.187
-372.815	-14.364	-0.139	0.090
-371.800	800.000	0.085	-0.334
-370.785	-128.830	0.281	0.040
-369.771	800.000	0.091	0.366
-368.756	43.393	0.072	0.066
-367.742	-85.135	-0.420	-0.132
-366.727	-200.000	0.058	-0.288
-365.712	-111.616	0.248	0.051
-364.698	401.264	-0.096	0.202
-363.683	341.402	0.026	-0.051
-362.669	-46.274	0.285	-0.141
-361.654	21.209	-0.112	-0.092
-360.639	-78.777	0.193	-0.066
-359.625	-10.728	0.209	-0.139
-358.610	174.619	-0.108	0.157
-357.596	76.316	0.214	0.228
-356.581	-52.193	-0.062	0.029
-355.566	511.071	-0.150	-0.352
-354.552	-114.724	-0.236	0.045
-353.537	287.547	0.112	0.204
-352.523	800.000	-0.084	-0.313
-351.508	-13.014	0.254	-0.166
-350.493	-200.000	0.003	-0.120
-349.479	141.523	0.124	-0.165
-348.464	-136.418	0.249	0.029
-347.450	493.885	0.027	0.062
-346.435	89.792	-0.015	-0.017
-345.420	76.061	0.094	0.100
-344.406	143.768	0.133	-0.179
-343.391	800.000	-0.099	0.287
-342.377	51.132	-0.111	0.106
-341.362	121.469	0.098	0.123
-340.348	96.251	-0.261	0.299
-339.333	-61.465	0.220	0.093
-338.318	-74.106	0.122	0.044
-337.304	-150.957	0.164	-0.012
-336.289	-101.871	0.247	-0.060
-335.275	201.427	-0.093	0.144
-334.260	-200.000	0.025	0.298
-333.245	99.540	0.114	0.132
-332.231	44.370	-0.062	-0.057
-331.216	-20.745	-0.134	-0.082
-330.202	317.988	-0.181	-0.344
-329.187	-33.592	0.063	-0.035
-328.172	18.383	-0.172	-0.138
-327.158	209.469	0.172	0.271
-326.143	-200.000	-0.006	-0.075
-325.129	155.876	0.139	-0.192
-324.114	115.376	0.267	0.328
-323.099	-200.000	-0.003	0.170
-322.085	535.815	0.046	-0.110
-321.070	119.969	0.055	0.068
-320.056	99.066	-0.220	-0.255
-319.041	174.808	0.139	-0.202
-318.026	158.990	-0.195	0.272
-317.012	-87.422	-0.236	-0.072
-315.997	-66.962	-0.230	0.091
-314.983	-90.366	0.324	-0.094
-313.968	47.761	-0.155	0.145
-312.953	800.000	-0.096	-0.310
-311.939	125.147	-0.024	-0.030
-310.924	-15.346	0.152	0.098
-309.910	800.000	0.057	0.206
-308.895	107.757	0.037	-0.044
-307.880	-200.000	-0.054	-0.257
-306.866	-200.000	-0.006	-0.038
-305.851	-200.000	0.001	0.129
-304.837	82.917	0.054	0.059
-303.822	800.000	0.075	0.243
-302.807	-24.204	-0.093	-0.056
-301.793	800.000	-0.036	0.146
-300.778	669.134	-0.050	-0.130
-299.764	185.448	0.139	0.206
-298.749	-101.007	-0.099	0.024
-297.735	256.644	-0.059	0.102
-296.720	-102.821	0.169	-0.040
-295.705	-130.987	-0.161	0.022
-294.691	47.345	-0.108	0.100
-293.676	64.766	-0.032	-0.032
-292.662	413.757	-0.041	-0.088
-291.647	-34.724	-0.122	0.067
-290.632	-200.000	-0.015	0.248
-289.618	800.000	0.020	0.081
-288.603	100.957	-0.310	0.361
-287.589	171.473	0.216	-0.311
-286.574	800.000	0.020	-0.080
-285.559	-106.435	0.388	-0.087
-284.545	800.000	-0.125	0.366
-283.530	-200.000	-0.053	0.370
-282.516	-200.000	0.001	-0.074
-281.501	-24.702	0.129	-0.077
-280.486	-96.047	-0.255	0.068
-279.472	-83.928	-0.180	-0.057
-278.457	800.000	0.040	0.150
-277.443	800.000	0.020	-0.070
-276.428	425.670	0.044	0.095
-275.413	-16.624	-0.047	0.030
-274.399	-31.124	-0.153	-0.087
-273.384	-89.459	-0.255	-0.075
-272.370	49.206	0.076	-0.072
-271.355	-26.427	-0.067	-0.040
-270.340	-200.000	-0.012	-0.111
-269.326	-106.624	-0.351	-0.078
-268.311	271.194	-0.185	0.326
-267.297	-200.000	-0.006	0.120
-266.282	-38.635	-0.486	-0.257
-265.267	350.808	0.102	-0.203
-264.253	-91.543	0.221	-0.063
-263.238	-137.831	-0.409	-0.046
-262.224	467.342	-0.116	-0.261
-261.209	-82.572	-0.248	-0.081
-260.195	-200.000	0.045	0.243
-259.180	11.425	-0.300	0.230
-258.165	-141.614	-0.197	-0.020
-257.151	-200.000	-0.012	0.420
-256.136	-135.001	0.313	0.038
-255.122	128.688	0.121	-0.154
-254.107	789.852	-0.022	0.060
-253.092	284.169	-0.231	-0.416
-252.078	-200.000	0.002	-0.295
-251.063	10.907	0.177	-0.136
-250.049	-200.000	-0.004	0.126
-249.034	107.830	0.168	-0.200
-248.019	800.000	0.075	-0.210
-247.005	-200.000	0.004	0.254
-245.990	-113.788	-0.164	0.032
-244.976	56.107	0.184	0.178
-243.961	800.000	-0.058	0.171
-242.946	-44.219	0.178	-0.089
-241.932	800.000	0.051	-0.155
-240.917	31.815	-0.147	0.127
-239.903	300.569	0.040	-0.073
-238.888	105.630	0.196	-0.232
-237.873	166.156	-0.160	0.226
-236.859	-2.185	0.145	0.102
-235.844	-200.000	-0.001	0.131
-234.830	-105.548	0.241	-0.055
-233.815	-151.260	-0.141	-0.011
-232.800	349.715	0.026	-0.051
-231.786	-15.634	-0.057	-0.036
-230.771	-51.166	-0.032	-0.015
-229.757	16.669	-0.318	-0.252
-228.742	800.000	-0.063	0.195
-227.727	717.146	-0.188	0.500
-226.713	-107.835	-0.358	-0.078
-225.698	-156.005	-0.288	-0.018
-224.684	42.300	-0.153	0.139
-223.669	756.780	-0.073	-0.196
-222.655	-179.525	-0.313	0.007
-221.640	-13.163	0.260	-0.169
-220.625	-200.000	0.002	-0.041
-219.611	-136.819	0.281	-0.032
-218.596	188.630	-0.057	-0.085
-217.582	-200.000	0.026	-0.299
-216.567	125.556	0.025	-0.032
-215.552	-200.000	0.019	-0.258
-214.538	800.000	-0.035	0.119
-213.523	-69.968	0.186	-0.071
-212.509	261.724	0.194	0.336
-211.494	143.025	0.106	-0.141
-210.479	-10.159	0.013	0.009
-209.465	-200.000	0.020	-0.148
-208.450	125.056	0.079	0.100
-207.436	-109.456	-0.282	-0.060
-206.421	-142.831	-0.281	0.027
-205.406	-75.144	-0.337	0.120
-204.392	800.000	0.150	-0.414
-203.377	350.378	-0.059	-0.116
-202.363	11.326	-0.224	-0.172
-201.348	-64.262	0.330	-0.134
-200.333	721.753	0.055	-0.145
-199.319	294.967	0.174	-0.317
-198.304	-81.059	-0.330	-0.109
-197.290	126.746	0.017	0.021
-196.275	-200.000	-0.036	0.215
-195.260	-39.210	0.165	-0.087
-194.246	-101.999	0.278	-0.067
-193.231	16.532	-0.131	0.103
-192.217	-111.017	-0.408	0.084
-191.202	-112.703	0.330	-0.065
-190.187	650.297	-0.148	0.378
-189.173	12.488	0.125	0.096
-188.158	800.000	0.077	0.258
-187.144	-84.217	0.390	-0.123
-186.129	-9.969	-0.263	-0.175
-185.114	-200.000	0.060	0.265
-184.100	117.362	-0.117	0.143
-183.085	164.850	0.102	0.143
-182.071	-117.049	0.250	0.046
-181.056	169.847	-0.251	0.358
-180.042	-83.490	-0.153	-0.049
-179.027	-98.928	-0.194	-0.049
-178.012	-53.097	-0.019	-0.009
-176.998	-80.227	-0.230	-0.077
-175.983	388.773	-0.140	0.289
-174.969	713.559	-0.169	-0.447
-173.954	-200.000	-0.037	0.222
-172.939	56.105	-0.217	-0.211
-171.925	163.989	-0.068	-0.096
-170.910	-104.489	0.517	-0.119
-169.896	-2.744	0.273	0.191
-168.881	9.080	0.116	-0.087
-167.866	800.000	0.070	-0.257
-166.852	-165.140	-0.188	-0.008
-165.837	28.694	0.135	0.114
-164.823	27.404	0.234	0.196
-163.808	-89.648	-0.137	0.040
-162.793	800.000	-0.030	-0.103
-161.779	-200.000	-0.062	0.318
-160.764	3.402	0.129	0.094
-159.750	655.509	0.076	-0.194
-158.735	221.355	-0.114	-0.183
-157.720	-1.785	-0.173	0.122
-156.706	-101.673	-0.381	-0.092
-155.691	-82.940	0.111	0.036
-154.677	8.021	0.037	0.027
-153.662	-106.803	0.131	-0.029
-152.647	359.198	0.087	0.174
-151.633	-170.183	0.648	0.023
-150.618	-98.360	-0.222	-0.057
-149.604	-200.000	-0.005	0.087
-148.589	-85.042	0.183	0.057
-147.574	123.109	0.134	0.167
-146.560	-105.148	0.487	0.111
-145.545	36.136	-0.222	-0.195
-144.531	800.000	0.075	-0.285
-143.516	351.257	-0.140	0.275
-142.502	117.136	-0.199	0.244
-141.487	212.014	0.158	0.248
-140.472	-141.943	-0.151	-0.015
-139.458	-38.974	0.204	0.107
-138.443	81.527	-0.201	0.217
-137.429	40.024	-0.258	0.231
-136.414	427.962	0.149	0.321
-135.399	95.474	-0.151	-0.172
-134.385	-200.000	-0.043	0.201
-133.370	-6.402	-0.323	-0.219
-132.356	-200.000	0.038	-0.246
-131.341	579.704	-0.051	-0.124
-130.326	-140.997	0.474	0.048
-129.312	-100.865	-0.322	-0.079
-128.297	-200.000	-0.001	0.225
-127.283	-53.405	0.137	-0.062
-126.268	-200.000	-0.055	-0.272
-125.253	-200.000	-0.061	-0.428
-124.239	327.269	0.110	0.210
-123.224	-38.092	0.085	0.045
-122.210	-40.091	-0.094	-0.049
-121.195	-64.795	0.070	-0.028
-120.180	800.000	-0.063	-0.264
-119.166	-200.000	0.034	0.471
-118.151	-200.000	0.043	0.253
-117.137	-130.235	-0.217	0.029
-116.122	74.554	-0.256	-0.268
-115.107	800.000	-0.006	0.021
-114.093	489.740	0.085	0.193
-113.078	-200.000	-0.044	0.357
-112.064	800.000	-0.046	0.168
-111.049	-200.000	-0.110	-0.668
-110.034	800.000	-0.175	-0.682
-109.020	-200.000	0.072	-0.366
-108.005	-200.000	-0.006	0.352
-106.991	-200.000	0.015	0.319
-105.976	196.926	0.024	-0.037
-104.962	-18.933	0.195	-0.121
-103.947	521.716	-0.053	-0.123
-102.932	-31.785	-0.161	0.090
-101.918	800.000	0.105	-0.323
-100.903	-200.000	0.033	0.292
-99.889	-200.000	0.006	0.000
-98.874	-16.959	0.211	-0.133
-97.859	-68.638	0.209	-0.080
-96.845	800.000	-0.102	-0.314
-95.830	207.918	0.087	0.135
-94.816	-200.000	-0.011	0.234
-93.801	-79.879	-0.103	0.034
-92.786	177.255	-0.049	-0.072
-91.772	-200.000	-0.017	-0.107
-90.757	-154.672	0.110	0.007
-89.743	800.000	0.069	0.199
-88.728	169.288	0.083	-0.118
-87.713	70.242	0.213	0.219
-86.699	-200.000	0.022	0.243
-85.684	-200.000	0.032	0.249
-84.670	-142.741	0.032	-0.003
-83.655	-159.055	0.079	-0.004
-82.640	-200.000	0.035	0.232
-81.626	12.616	-0.043	-0.033
-80.611	-53.346	0.192	-0.088
-79.597	-200.000	0.023	0.109
-78.582	126.696	0.157	-0.197
-77.567	800.000	-0.090	0.378
-76.553	800.000	0.018	0.069
-75.538	49.388	0.089	0.083
-74.524	148.349	-0.179	-0.240
-73.509	-46.737	-0.216	-0.105
-72.494	79.076	-0.114	-0.121
-71.480	-200.000	-0.051	-0.240
-70.465	-28.538	-0.116	0.067
-69.451	-200.000	0.362	0.001
-68.436	-200.000	0.000	-0.035
-67.422	23.532	0.159	0.130
-66.407	-100.649	-0.117	0.029
-65.392	-93.081	0.301	-0.083
-64.378	296.305	-0.083	0.151
-63.363	60.834	0.223	-0.219
-62.349	70.844	0.177	-0.182
-61.334	42.886	-0.725	-0.657
-60.319	10.456	0.362	0.274
-59.305	-200.000	-0.090	-0.884
-58.290	211.924	0.494	0.774
-57.276	800.000	0.627	1.725
-56.261	-200.000	90.090	522.539
-55.246	482.694	1389.856	3137.045
-54.232	147.802	2598.900	3479.317
-53.217	112.250	2203.766	2646.227
-52.203	47.135	1651.634	1526.430
-51.188	39.328	1383.561	1230.080
-50.173	36.221	1340.050	1172.499
-49.159	56.061	1386.578	1336.282
-48.144	60.569	1404.438	1381.284
-47.130	39.943	1361.109	1213.706
-46.115	36.237	1343.396	1175.337
-45.100	36.003	1338.518	1169.602
-44.086	35.966	1335.720	1166.885
-43.071	35.900	1333.586	1164.579
-42.057	36.018	1331.018	1163.000
-41.042	35.966	1329.069	1160.940
-40.027	36.108	1327.515	1160.388
-39.013	36.046	1326.122	1158.756
-37.998	35.986	1323.717	1156.243
-36.984	36.093	1322.318	1155.622
-35.969	36.210	1320.099	1154.337
-34.954	36.180	1318.647	1152.842
-33.940	36.249	1317.064	1151.824
-32.925	36.193	1315.968	1150.485
-31.911	36.253	1314.057	1149.128
-30.896	36.228	1313.064	1148.060
-29.881	36.316	1311.753	1147.391
-28.867	36.348	1309.660	1145.706
-27.852	36.299	1308.639	1144.479
-26.838	36.342	1306.678	1142.975
-25.823	36.218	1305.543	1141.201
-24.809	36.227	1304.121	1139.963
-23.794	36.199	1302.452	1138.297
-22.779	36.213	1301.298	1137.324
-21.765	36.103	1300.483	1135.920
-20.750	36.160	1298.961	1134.881
-19.736	36.167	1297.292	1133.419
-18.721	36.043	1295.993	1131.508
-17.706	36.030	1294.945	1130.473
-16.692	36.163	1293.436	1129.890
-15.677	36.095	1292.206	1128.372
-14.663	36.054	1291.725	1127.670
-13.648	36.044	1290.614	1126.598
-12.633	36.019	1289.289	1125.247
-11.619	36.027	1288.619	1124.664
-10.604	35.979	1287.861	1123.678
-9.590	35.981	1286.732	1122.659
-8.575	35.964	1285.878	1121.775
-7.560	36.066	1284.892	1121.462
-6.546	36.006	1284.049	1120.334
-5.531	35.988	1283.388	1119.606
-4.517	36.087	1282.078	1118.994
-3.502	36.042	1281.300	1118.011
-2.487	36.165	1279.774	1117.347
-1.473	36.099	1275.887	1113.527
-0.458	34.996	1260.999	1094.185
0.556	31.430	1243.147	1055.379
1.571	27.817	1247.852	1038.759
2.586	26.842	1262.866	1045.548
3.600	25.844	1250.787	1029.753
4.615	18.347	1174.763	926.671
5.629	7.007	1093.719	805.226
6.644	2.198	1071.357	764.666
7.659	1.688	1068.533	760.036
8.673	1.747	1066.990	759.165
9.688	1.649	1065.654	757.662
10.702	1.888	1064.227	757.768
11.717	8.361	1074.226	797.217
12.731	19.123	1090.028	863.112
13.746	24.259	1096.119	893.683
14.761	25.082	1096.663	898.170
15.775	25.087	1096.382	897.885
16.790	24.872	1095.431	895.952
17.804	24.719	1094.945	894.711
18.819	24.864	1094.512	895.000
19.834	25.022	1094.230	895.480
20.848	25.053	1093.900	895.289
21.863	25.031	1093.114	894.454
22.877	24.893	1092.463	893.157
23.892	24.960	1091.690	892.776
24.907	25.012	1091.290	892.629
25.921	24.917	1090.297	891.267
26.936	24.970	1088.097	889.652
27.950	24.976	1086.677	888.444
28.965	24.776	1084.992	885.997
29.980	24.953	1083.063	885.218
30.994	25.069	1082.600	885.334
32.009	25.176	1080.993	884.470
33.023	24.910	1080.077	882.332
34.038	25.021	1079.398	882.245
35.053	25.116	1078.904	882.229
36.067	25.126	1077.961	881.430
37.082	25.161	1077.482	881.134
38.096	25.276	1076.589	880.889
39.111	25.362	1075.812	880.597
40.126	25.249	1074.115	878.578
41.140	24.810	1073.039	875.470
42.155	24.477	1071.904	872.840
43.169	24.667	1070.670	872.688
44.184	24.636	1069.875	871.808
45.199	24.611	1068.387	870.396
46.213	24.742	1067.970	870.619
47.228	24.879	1067.144	870.536
48.242	24.946	1066.186	870.001
49.257	24.961	1065.566	869.492
50.271	25.096	1064.610	869.287
51.286	25.111	1063.831	868.651
52.301	25.126	1062.959	867.931
53.315	24.883	1062.342	866.179
54.330	24.881	1061.474	865.383
55.344	24.891	1060.235	864.343
56.359	25.000	1059.250	863.989
57.374	24.792	1058.060	861.942
58.388	24.827	1057.528	861.600
59.403	24.668	1056.499	859.922
60.417	24.557	1055.391	858.407
61.432	24.751	1054.770	858.758
62.447	24.826	1054.448	858.780
63.461	24.736	1053.845	857.782
64.476	24.736	1052.540	856.647
65.490	24.683	1051.880	855.777
66.505	24.635	1051.391	855.076
67.520	24.747	1050.848	855.096
68.534	24.565	1049.158	852.775
69.549	24.312	1048.060	850.601
70.563	24.322	1047.547	850.157
71.578	24.233	1046.659	848.936
72.593	24.059	1045.652	847.214
73.607	24.348	1044.751	847.786
74.622	24.453	1045.078	848.473
75.636	24.569	1044.489	848.470
76.651	24.443	1043.233	846.779
77.666	24.411	1042.717	846.132
78.680	24.520	1041.915	845.924
79.695	24.458	1041.574	845.277
80.709	24.504	1040.678	844.695
81.724	24.601	1039.323	843.979
82.739	24.669	1038.945	843.918
83.753	24.965	1038.489	844.868
84.768	25.296	1037.573	845.609
85.782	25.425	1036.903	845.593
86.797	25.228	1035.717	843.625
87.812	25.091	1034.922	842.262
88.826	25.255	1034.215	842.382
89.841	25.302	1032.794	841.369
90.855	25.226	1032.365	840.591
91.870	25.288	1030.782	839.516
92.884	25.221	1029.779	838.312
93.899	25.112	1028.620	836.784
94.914	25.181	1028.316	836.786
95.928	25.143	1026.945	835.422
96.943	24.857	1025.924	833.185
97.957	24.572	1024.465	830.599
98.972	24.456	1023.448	829.161
99.987	24.668	1023.048	829.750
101.001	25.009	1022.319	830.668
102.016	25.046	1021.326	829.960
103.030	24.910	1020.563	828.635
104.045	24.886	1019.619	827.685
105.060	24.692	1018.495	825.804
106.074	24.680	1018.218	825.448
107.089	25.027	1017.298	826.232
108.103	24.964	1016.071	824.871
109.118	24.812	1014.402	822.746
110.133	24.873	1013.449	822.180
111.147	24.540	1012.566	819.860
112.162	24.364	1011.959	818.490
113.176	24.673	1011.421	819.398
114.191	24.550	1010.738	818.210
115.206	24.321	1009.340	815.960
116.220	24.208	1008.579	814.753
117.235	24.480	1007.778	815.277
118.249	24.419	1006.923	814.233
119.264	24.309	1006.076	812.975
120.279	24.369	1005.778	812.938
121.293	24.462	1004.792	812.494
122.308	24.581	1003.442	811.869
123.322	24.394	1002.832	810.455
124.337	24.174	1001.545	808.343
125.352	23.878	999.479	805.267
126.366	23.626	998.990	803.657
127.381	24.282	999.465	806.941
128.395	24.819	998.631	808.625
129.410	24.916	998.135	808.586
130.424	24.988	996.592	807.591
131.439	24.855	996.084	806.508
132.454	25.005	994.891	806.147
133.468	24.867	994.386	805.045
134.483	25.077	993.364	805.092
135.497	25.269	992.513	805.189
136.512	25.248	991.907	804.536
137.527	25.189	990.956	803.429
138.541	25.246	990.292	803.072
139.556	25.086	990.092	802.125
140.570	25.147	988.963	801.411
141.585	25.481	987.721	801.826
142.600	25.238	987.008	800.091
143.614	25.451	985.949	800.110
144.629	25.558	985.379	800.053
145.643	25.339	983.882	797.795
146.658	25.288	982.536	796.405
147.673	25.176	981.623	795.099
148.687	24.981	980.609	793.343
149.702	25.041	978.925	792.176
150.716	24.940	978.647	791.434
151.731	25.084	978.153	791.601
152.746	25.271	977.717	792.005
153.760	25.446	976.901	792.045
154.775	25.350	976.752	791.427
155.789	25.306	975.700	790.315
156.804	25.379	974.330	789.456
157.819	25.293	973.850	788.619
158.833	25.442	973.156	788.638
159.848	25.557	971.989	788.128
160.862	25.515	970.453	786.632
161.877	25.382	969.459	785.174
162.892	25.378	968.758	784.519
163.906	25.353	967.453	783.285
164.921	25.166	966.797	781.868
165.935	25.319	965.758	781.625
166.950	25.433	964.754	781.240
167.964	25.340	964.304	780.404
168.979	25.101	963.164	778.373
169.994	25.170	962.058	777.709
171.008	25.436	961.586	778.411
172.023	25.467	960.604	777.682
173.037	25.198	959.983	775.945
174.052	24.928	959.334	774.185
175.067	25.063	958.097	773.703
176.081	25.225	957.963	774.225
177.096	25.120	957.187	773.074
178.110	24.834	956.289	771.051
179.125	24.624	955.325	769.302
180.140	24.692	955.329	769.530
181.154	24.855	954.988	769.888
182.169	25.199	954.546	770.942
183.183	25.520	953.887	771.720
184.198	25.261	953.039	769.852
185.213	25.341	952.174	769.431
186.227	25.366	951.662	769.055
187.242	25.336	951.076	768.385
188.256	25.487	950.266	768.309
189.271	25.455	949.639	767.598
190.286	25.155	948.450	765.288
191.300	24.518	946.599	761.014
192.315	23.614	945.239	756.002
193.329	23.614	945.045	755.783
194.344	24.426	945.845	759.811
195.359	25.080	945.314	762.099
196.373	25.332	944.815	762.700
197.388	25.217	943.836	761.356
198.402	25.182	943.882	761.176
199.417	25.257	942.753	760.519
200.432	24.929	941.920	758.390
201.446	24.859	941.202	757.448
202.461	24.897	940.606	757.060
203.475	24.053	938.765	751.951
204.490	23.306	937.264	747.529
205.504	24.063	937.972	751.223
206.519	24.771	937.773	753.983
207.534	24.914	937.085	753.964
208.548	25.424	937.028	755.998
209.563	24.981	936.312	753.492
210.577	24.917	935.630	752.606
211.592	25.341	935.480	754.201
212.607	25.378	934.471	753.478
213.621	25.583	933.400	753.407
214.636	25.432	933.003	752.387
215.650	25.436	932.177	751.671
216.665	25.511	931.238	751.161
217.680	25.439	930.787	750.430
218.694	24.962	929.828	747.601
219.709	24.814	928.766	746.062
220.723	25.070	928.823	747.111
221.738	25.293	927.825	747.168
222.753	24.993	927.964	745.967
223.767	25.368	926.946	746.638
224.782	25.487	926.885	747.019
225.796	25.535	926.103	746.521
226.811	24.860	924.771	742.581
227.826	24.254	923.183	738.731
228.840	24.323	923.130	738.911
229.855	24.476	922.105	738.656
230.869	24.132	920.999	736.283
231.884	24.567	920.844	737.892
232.899	25.289	921.241	741.129
233.913	25.060	920.405	739.443
234.928	25.067	919.950	739.042
235.942	24.964	919.288	738.023
236.957	24.736	918.302	736.226
237.972	24.760	918.334	736.286
238.986	25.066	916.870	736.305
240.001	24.779	916.663	734.894
241.015	24.930	916.134	735.021
242.030	25.127	915.474	735.237
243.045	25.254	915.382	735.619
244.059	25.460	914.739	735.880
245.074	25.204	913.620	733.870
246.088	24.832	912.970	731.761
247.103	25.167	912.335	732.554
248.117	25.626	912.608	734.584
249.132	25.989	912.302	735.756
250.147	25.999	911.535	735.111
251.161	26.095	911.238	735.196
252.176	26.059	910.637	734.502
253.190	26.224	909.944	734.547
254.205	26.417	909.342	734.781
255.220	26.181	908.699	733.239
256.234	26.079	907.990	732.188
257.249	26.020	907.190	731.237
258.263	26.044	906.831	730.984
259.278	26.159	905.866	730.606
260.293	26.219	905.281	730.312
261.307	25.964	904.721	728.765
262.322	25.906	903.760	727.693
263.336	25.053	901.874	722.671
264.351	24.069	900.281	717.368
265.366	24.288	899.750	717.762
266.380	25.381	900.601	722.778
267.395	25.808	900.399	724.268
268.409	25.603	899.741	722.854
269.424	25.978	898.770	723.515
270.439	25.963	898.390	723.084
271.453	26.022	897.731	722.728
272.468	26.090	897.829	723.014
273.482	26.180	897.186	722.793
274.497	25.751	895.870	719.955
275.512	25.545	894.675	718.105
276.526	25.855	895.096	719.620
277.541	25.946	894.827	719.702
278.555	25.726	893.902	718.017
279.570	25.564	893.317	716.838
280.585	25.753	892.477	716.855
281.599	25.625	891.904	715.819
282.614	25.224	889.961	712.604
283.628	25.101	889.935	712.032
284.643	25.573	889.442	713.448
285.657	25.250	888.013	710.958
286.672	24.906	887.377	709.027
287.687	25.438	887.420	711.105
288.701	25.507	886.905	710.901
289.716	25.266	885.921	709.098
290.730	25.105	885.471	708.040
291.745	24.730	884.327	705.583
292.760	25.230	884.047	707.269
293.774	26.269	884.661	711.791
294.789	26.570	884.322	712.640
295.803	26.513	883.819	711.947
296.818	26.520	883.166	711.388
297.833	26.104	882.263	708.962
298.847	25.946	881.371	707.563
299.862	26.261	881.247	708.636
300.876	26.501	880.851	709.195
301.891	26.411	880.223	708.275
302.906	25.969	879.229	705.686
303.920	26.118	879.227	706.202
304.935	26.395	878.921	706.976
305.949	26.443	877.790	706.194
306.964	26.095	877.237	704.325
307.979	26.291	876.707	704.605
308.993	26.545	876.947	705.723
310.008	26.497	876.076	704.775
311.022	26.255	875.181	703.051
312.037	26.200	874.451	702.186
313.052	25.974	873.508	700.492
314.066	25.030	872.028	695.580
315.081	24.724	871.280	693.734
316.095	25.593	871.798	697.458
317.110	25.834	871.964	698.462
318.125	25.241	869.835	694.401
319.139	24.167	868.389	689.033
320.154	24.196	868.232	688.960
321.168	25.064	868.693	692.622
322.183	25.613	868.947	694.885
323.197	25.964	868.421	695.755
324.212	26.219	867.840	696.214
325.227	26.076	867.509	695.336
326.241	25.970	866.737	694.246
327.256	25.880	865.730	693.034
328.270	25.959	865.101	692.771
329.285	25.753	864.314	691.287
330.300	25.469	863.755	689.691
331.314	25.707	863.432	690.282
332.329	26.214	863.461	692.191
333.343	26.403	863.032	692.508
334.358	26.190	862.677	691.348
335.373	26.281	862.638	691.602
336.387	26.569	862.300	692.373
337.402	26.638	862.245	692.531
338.416	26.700	861.668	692.243
339.431	26.733	861.322	692.030
340.446	26.950	861.000	692.537
341.460	26.735	860.505	691.258
342.475	26.606	859.809	690.146
343.489	26.761	859.021	690.043
344.504	26.975	859.131	690.886
345.519	27.228	858.435	691.225
346.533	27.150	858.452	690.881
347.548	27.144	857.867	690.326
348.562	27.022	857.567	689.561
349.577	27.092	856.661	689.039
350.592	26.987	856.017	688.061
351.606	27.114	855.016	687.678
352.621	27.055	854.225	686.755
353.635	26.930	853.199	685.398
354.650	26.084	852.165	681.315
355.665	25.287	850.238	676.709
356.679	25.733	850.210	678.310
357.694	26.045	850.286	679.484
358.708	26.035	849.319	678.614
359.723	26.316	849.499	679.756
360.738	26.743	848.896	680.817
361.752	26.860	848.653	680.999
362.767	27.152	848.107	681.597
363.781	27.545	847.746	682.721
364.796	27.359	847.638	681.877
365.810	27.502	847.271	682.056
366.825	27.497	846.616	681.450
367.840	27.262	845.558	679.659
368.854	26.929	844.716	677.678
369.869	26.714	844.414	676.573
370.883	26.976	843.673	676.897
371.898	26.624	843.877	675.690
372.913	26.779	843.664	676.035
373.927	26.900	843.071	675.953
374.942	27.080	842.468	676.081
375.956	27.233	842.043	676.245
376.971	27.261	841.626	675.957
377.986	27.506	841.184	676.453
379.000	27.437	840.731	675.770
380.015	27.102	840.276	674.103
381.029	27.272	839.371	673.948
382.044	27.434	838.840	674.061
383.059	27.564	838.627	674.311
384.073	27.445	837.887	673.217
385.088	27.443	836.894	672.351
386.102	27.168	835.960	670.526
387.117	27.239	835.508	670.367
388.132	26.828	834.528	668.008
389.146	26.365	833.518	665.435
390.161	26.663	833.662	666.589
391.175	27.104	833.618	668.119
392.190	26.771	832.430	665.882
393.205	25.507	830.143	659.362
394.219	23.994	828.623	652.553
395.234	23.913	828.484	652.090
396.248	25.500	829.708	658.816
397.263	27.027	830.559	665.030
398.278	27.017	830.044	664.522
399.292	26.529	829.728	662.424
400.307	26.585	829.158	662.116
401.321	26.889	828.399	662.564
402.336	27.175	828.571	663.684
403.350	27.631	828.318	665.089
404.365	27.850	828.490	665.967
405.380	28.159	828.098	666.718
406.394	28.250	827.700	666.669
407.409	28.054	826.953	665.295
408.423	28.098	826.538	665.065
409.438	28.194	826.267	665.137
410.453	28.302	825.429	664.793
411.467	28.021	824.953	663.334
412.482	28.182	824.741	663.686
413.496	28.120	824.575	663.269
414.511	28.030	824.113	662.516
415.526	28.266	823.359	662.703
416.540	28.020	822.900	661.385
417.555	27.772	822.084	659.773
418.569	27.856	821.519	659.565
419.584	27.917	821.128	659.413
420.599	27.643	820.533	657.889
421.613	103.430	1280.935	1431.306
422.628	89.434	1348.007	1431.431
