DTS Sentinel unit serial number:	SN413079Multiplexer serial number:	ORYXHardware model number:	OX4-SRSoftware version number:	ORYX F/W v4.00 Oryx Data Collector v3.7.2.0data status	okinstallation	princeton_trtdifferential loss correction	single-endedforward channel	channel 1reverse channel	N/Adate	2019/09/19time	14:30:35forward acquisition time	60.00reverse acquisition time	0.00gamma	496.2192k internal	0.2321k external	0.2321temperature offset calibration	1.0017default loss term (dB/km)	0.3790temperature slope calibration	1.0000multiplexer offset coefficient	1.0000multiplexer slope coefficient	1.0000fibre end	0.00T internal ref (°C)	32.19T ext. ref 1 (°C)	1.07T ext. ref 2 (°C)	29.31length (m)	temperature (°C)	Stokes	anti-Stokes-747.200	800.000	0.055	-0.242
-746.185	69.413	-0.239	0.249
-745.171	264.706	0.057	-0.100
-744.156	-16.541	-0.262	-0.168
-743.142	-115.806	0.055	0.010
-742.127	-200.000	-0.004	-0.058
-741.112	123.181	-0.047	0.059
-740.098	151.045	-0.134	0.184
-739.083	-55.263	0.175	-0.079
-738.069	235.034	-0.247	0.412
-737.054	-200.000	-0.001	0.214
-736.039	-45.272	-0.221	0.111
-735.025	-200.000	0.004	-0.148
-734.010	-22.686	-0.095	0.058
-732.996	5.338	-0.078	-0.058
-731.981	126.233	-0.328	-0.419
-730.966	-48.848	0.312	0.151
-729.952	800.000	-0.071	-0.278
-728.937	-170.096	-0.151	-0.005
-727.923	135.276	-0.008	-0.010
-726.908	-200.000	0.042	0.280
-725.894	800.000	-0.046	-0.166
-724.879	800.000	0.103	-0.303
-723.864	-146.109	-0.306	0.027
-722.850	-102.792	0.259	0.062
-721.835	157.844	-0.158	-0.221
-720.821	52.350	-0.201	0.194
-719.806	-136.564	-0.104	-0.012
-718.791	-200.000	-0.020	0.227
-717.777	-142.016	0.151	-0.015
-716.762	-92.834	0.193	-0.054
-715.748	-79.400	-0.099	-0.034
-714.733	-85.071	0.436	-0.138
-713.718	-16.515	0.237	0.152
-712.704	418.453	0.214	0.463
-711.689	12.306	-0.063	-0.049
-710.675	-200.000	-0.035	0.362
-709.660	-13.226	-0.202	0.133
-708.645	-95.585	-0.235	0.063
-707.631	229.690	-0.177	-0.292
-706.616	82.378	0.150	-0.164
-705.602	-200.000	0.027	0.213
-704.587	72.329	0.065	0.068
-703.572	-24.882	-0.240	0.144
-702.558	204.837	-0.087	0.136
-701.543	-80.077	-0.146	0.050
-700.529	-59.594	0.202	-0.087
-699.514	800.000	0.126	-0.395
-698.499	-120.452	0.229	-0.039
-697.485	121.940	-0.100	0.127
-696.470	-23.539	0.216	0.131
-695.456	800.000	0.019	0.054
-694.441	-143.249	-0.356	-0.034
-693.426	-58.034	0.553	0.243
-692.412	763.117	0.130	0.355
-691.397	324.673	0.127	-0.245
-690.383	800.000	-0.021	-0.070
-689.368	800.000	0.088	-0.257
-688.354	-10.081	-0.344	-0.230
-687.339	9.053	-0.200	-0.152
-686.324	19.880	0.149	0.121
-685.310	426.683	-0.106	0.231
-684.295	-53.630	0.114	0.052
-683.281	162.555	-0.300	-0.425
-682.266	-200.000	-0.001	0.025
-681.251	-154.217	0.811	-0.055
-680.237	211.101	-0.195	0.309
-679.222	800.000	0.136	-0.490
-678.208	-200.000	0.003	-0.236
-677.193	-200.000	0.010	0.197
-676.178	-43.509	0.411	0.209
-675.164	-200.000	-0.018	-0.155
-674.149	263.051	0.154	-0.270
-673.135	-117.802	-0.213	-0.039
-672.120	116.711	-0.150	-0.186
-671.105	-156.263	0.214	-0.014
-670.091	-200.000	0.044	-0.275
-669.076	64.335	-0.168	-0.170
-668.062	-200.000	0.079	0.353
-667.047	-112.022	0.166	0.034
-666.032	-200.000	0.032	0.265
-665.018	221.419	0.110	0.178
-664.003	231.037	0.116	0.192
-662.989	-23.875	-0.357	0.215
-661.974	-200.000	-0.015	0.103
-660.959	-200.000	0.037	0.243
-659.945	800.000	0.025	-0.087
-658.930	689.531	0.080	-0.210
-657.916	241.271	-0.105	-0.177
-656.901	495.232	0.037	0.085
-655.886	252.962	-0.216	-0.371
-654.872	-179.920	0.043	-0.001
-653.857	76.679	-0.133	-0.142
-652.843	800.000	0.064	-0.244
-651.828	-171.633	-0.288	-0.010
-650.814	-43.425	0.355	0.181
-649.799	-98.772	0.297	0.076
-648.784	-14.446	-0.186	-0.121
-647.770	58.167	-0.152	-0.150
-646.755	-113.957	0.259	0.051
-645.741	-126.021	0.182	0.028
-644.726	-200.000	-0.014	-0.108
-643.711	-49.438	-0.234	0.112
-642.697	165.592	0.154	-0.219
-641.682	800.000	-0.088	0.305
-640.668	800.000	-0.046	-0.187
-639.653	-40.075	0.036	0.019
-638.638	259.749	-0.126	0.220
-637.624	-50.411	0.226	-0.107
-636.609	-80.951	-0.341	0.114
-635.595	11.820	-0.294	0.227
-634.580	211.449	0.117	0.185
-633.565	-200.000	-0.034	0.195
-632.551	800.000	-0.038	-0.118
-631.536	800.000	-0.027	-0.077
-630.522	176.554	-0.084	0.123
-629.507	198.262	0.099	0.152
-628.492	590.831	0.088	-0.219
-627.478	-114.818	0.166	-0.032
-626.463	-57.789	0.214	-0.094
-625.449	-200.000	0.003	-0.051
-624.434	-200.000	0.046	-0.241
-623.419	174.875	0.103	-0.149
-622.405	800.000	0.057	-0.192
-621.390	-200.000	-0.038	-0.207
-620.376	89.886	0.121	-0.135
-619.361	80.665	-0.112	0.121
-618.346	-113.983	0.202	-0.040
-617.332	-80.835	-0.216	-0.072
-616.317	-77.362	-0.216	-0.075
-615.303	-17.438	-0.146	0.092
-614.288	-109.067	-0.116	0.025
-613.273	-83.588	0.069	0.022
-612.259	-106.481	-0.508	0.114
-611.244	-116.246	0.429	-0.080
-610.230	-59.462	-0.487	0.210
-609.215	442.251	0.130	-0.285
-608.201	-200.000	0.018	-0.238
-607.186	-122.995	-0.372	-0.060
-606.171	-200.000	0.035	-0.246
-605.157	800.000	-0.050	-0.149
-604.142	800.000	-0.082	-0.279
-603.128	-173.277	-0.221	0.007
-602.113	-189.027	0.114	-0.001
-601.098	8.209	0.042	-0.031
-600.084	95.075	-0.114	-0.130
-599.069	-200.000	-0.030	0.216
-598.055	783.545	-0.076	0.210
-597.040	-37.224	0.223	0.120
-596.025	128.201	0.161	0.206
-595.011	-71.977	0.291	0.109
-593.996	209.027	0.185	0.291
-592.982	-198.301	0.397	0.002
-591.967	800.000	-0.116	-0.389
-590.952	-69.379	0.032	0.012
-589.938	81.236	0.085	0.092
-588.923	-65.528	-0.248	-0.100
-587.909	21.661	0.182	0.149
-586.894	-34.830	-0.180	0.099
-585.879	-200.000	-0.061	-0.295
-584.865	140.035	0.168	-0.222
-583.850	-64.210	-0.132	-0.054
-582.836	652.688	-0.040	-0.102
-581.821	800.000	-0.048	-0.154
-580.806	-86.117	-0.121	0.038
-579.792	800.000	-0.058	0.162
-578.777	-1.146	0.170	0.120
-577.763	-118.053	-0.367	-0.066
-576.748	-116.000	0.218	0.041
-575.733	584.746	0.113	0.280
-574.719	121.791	-0.123	0.154
-573.704	62.054	-0.183	0.183
-572.690	66.591	-0.277	-0.283
-571.675	-40.319	-0.212	-0.111
-570.661	20.977	0.082	-0.067
-569.646	-40.445	-0.149	0.078
-568.631	-200.000	0.005	0.273
-567.617	-200.000	0.045	0.439
-566.602	-43.072	-0.159	0.081
-565.588	-200.000	-0.039	0.192
-564.573	800.000	0.048	0.169
-563.558	-93.954	-0.258	0.071
-562.544	-123.195	-0.232	0.037
-561.529	17.479	-0.053	-0.043
-560.515	-200.000	0.018	0.387
-559.500	-200.000	-0.039	-0.265
-558.485	122.089	-0.207	0.260
-557.471	-180.099	0.302	-0.006
-556.456	217.491	-0.130	-0.208
-555.442	800.000	-0.034	-0.094
-554.427	215.972	-0.120	0.191
-553.412	-49.409	-0.331	-0.158
-552.398	1.708	-0.219	0.158
-551.383	81.535	-0.064	0.069
-550.369	-0.882	-0.097	-0.069
-549.354	-200.000	-0.016	-0.281
-548.339	-200.000	0.010	-0.108
-547.325	-35.383	0.132	0.072
-546.310	-168.024	0.169	0.007
-545.296	71.675	-0.186	-0.194
-544.281	-111.585	-0.153	-0.031
-543.266	-88.161	0.279	0.084
-542.252	-41.202	0.294	-0.152
-541.237	-35.981	0.280	0.152
-540.223	-16.244	-0.126	0.080
-539.208	-131.646	0.075	-0.010
-538.193	375.741	0.087	-0.177
-537.179	-78.962	0.122	0.042
-536.164	-42.053	-0.192	0.099
-535.150	-41.148	0.096	0.050
-534.135	-200.000	0.069	-0.366
-533.121	-71.080	0.302	0.114
-532.106	-6.714	0.078	0.053
-531.091	-200.000	0.050	0.363
-530.077	211.425	0.122	0.193
-529.062	800.000	0.094	0.285
-528.048	-137.819	-0.188	-0.021
-527.033	800.000	0.018	-0.055
-526.018	69.950	0.198	-0.205
-525.004	-60.973	-0.143	-0.061
-523.989	-200.000	0.002	-0.099
-522.975	-99.159	-0.242	-0.061
-521.960	-18.210	-0.166	0.104
-520.945	-49.715	0.017	-0.008
-519.931	-185.242	-0.445	0.007
-518.916	-88.761	0.146	-0.043
-517.902	17.371	-0.044	-0.035
-516.887	183.289	-0.091	-0.134
-515.872	229.256	0.148	-0.242
-514.858	546.070	-0.083	0.200
-513.843	-45.906	-0.237	0.117
-512.829	800.000	-0.078	0.308
-511.814	333.822	-0.053	0.103
-510.799	187.327	0.174	0.260
-509.785	-81.233	-0.218	-0.072
-508.770	541.734	0.041	0.098
-507.756	303.703	0.090	0.166
-506.741	800.000	0.093	-0.280
-505.726	-200.000	0.125	0.573
-504.712	-147.074	0.315	0.027
-503.697	-66.793	-0.357	-0.141
-502.683	800.000	-0.053	-0.228
-501.668	-150.572	0.265	0.020
-500.653	122.365	0.157	-0.196
-499.639	-122.631	-0.093	-0.015
-498.624	-100.148	-0.229	-0.057
-497.610	-61.520	-0.161	-0.068
-496.595	439.073	-0.091	0.200
-495.581	800.000	0.082	-0.268
-494.566	-200.000	0.005	-0.082
-493.551	210.473	-0.144	0.227
-492.537	73.067	-0.178	0.187
-491.522	414.778	-0.103	-0.219
-490.508	-158.875	0.075	0.004
-489.493	-71.768	-0.362	-0.135
-488.478	145.382	0.120	0.161
-487.464	55.719	0.081	0.079
-486.449	-49.712	0.231	-0.110
-485.435	253.784	-0.219	0.374
-484.420	-59.310	0.177	-0.076
-483.405	-107.325	0.132	0.029
-482.391	-38.867	0.195	-0.103
-481.376	800.000	0.060	-0.197
-480.362	49.440	-0.147	-0.138
-479.347	-51.145	-0.110	-0.052
-478.332	59.186	-0.137	-0.134
-477.318	-106.263	0.061	-0.014
-476.303	94.502	0.110	0.125
-475.289	106.530	0.144	0.171
-474.274	266.101	0.106	0.185
-473.259	196.139	-0.180	0.274
-472.245	-19.823	-0.171	-0.105
-471.230	-93.539	0.278	0.077
-470.216	-131.783	0.159	-0.021
-469.201	800.000	0.057	0.229
-468.186	52.818	0.251	0.240
-467.172	-178.110	0.054	0.001
-466.157	-79.602	0.073	-0.025
-465.143	-200.000	-0.002	-0.061
-464.128	-24.081	0.060	-0.036
-463.113	800.000	-0.095	-0.367
-462.099	-200.000	-0.006	0.056
-461.084	209.407	-0.018	-0.028
-460.070	800.000	-0.043	-0.127
-459.055	29.717	-0.194	0.165
-458.040	-124.249	0.310	-0.049
-457.026	597.999	0.101	0.251
-456.011	-44.723	0.089	0.044
-454.997	-200.000	-0.004	0.213
-453.982	-200.000	-0.009	-0.102
-452.968	-139.018	-0.094	-0.010
-451.953	-200.000	0.036	0.331
-450.938	-75.778	0.180	0.064
-449.924	-84.504	0.141	-0.045
-448.909	96.368	-0.171	-0.196
-447.895	-137.696	0.475	0.053
-446.880	-38.938	0.220	-0.116
-445.865	545.332	0.105	0.251
-444.851	-29.519	-0.118	0.067
-443.836	-200.000	0.017	-0.222
-442.822	92.880	-0.226	-0.255
-441.807	81.350	-0.023	0.025
-440.792	800.000	0.028	-0.093
-439.778	-97.823	-0.130	-0.034
-438.763	-53.028	-0.085	0.039
-437.749	-200.000	-0.021	-0.108
-436.734	-78.312	-0.166	0.057
-435.719	800.000	-0.089	0.256
-434.705	-200.000	0.021	-0.283
-433.690	192.265	-0.065	-0.098
-432.676	-200.000	-0.085	0.406
-431.661	200.839	-0.192	-0.295
-430.646	800.000	0.063	-0.196
-429.632	170.123	-0.195	-0.278
-428.617	-116.435	0.128	0.024
-427.603	-26.776	0.228	0.133
-426.588	-200.000	0.020	0.200
-425.573	-17.041	-0.171	0.108
-424.559	606.564	0.079	0.196
-423.544	32.613	0.138	-0.119
-422.530	282.932	-0.114	0.204
-421.515	38.309	0.191	-0.169
-420.500	-200.000	0.027	-0.401
-419.486	288.775	0.116	-0.211
-418.471	731.745	-0.081	-0.217
-417.457	85.910	-0.117	0.129
-416.442	401.941	-0.033	0.070
-415.428	299.247	-0.156	0.287
-414.413	-200.000	0.029	0.153
-413.398	-200.000	0.083	0.382
-412.384	8.870	0.144	0.108
-411.369	-139.646	-0.142	0.015
-410.355	342.943	0.102	-0.199
-409.340	-200.000	0.055	0.422
-408.325	-200.000	0.055	0.267
-407.311	-200.000	-0.085	0.461
-406.296	-200.000	-0.019	-0.295
-405.282	800.000	-0.119	-0.335
-404.267	-66.675	0.188	0.074
-403.252	800.000	-0.097	0.363
-402.238	-200.000	0.036	-0.232
-401.223	51.374	-0.090	-0.085
-400.209	-115.522	0.378	0.071
-399.194	-144.492	0.208	0.019
-398.179	-0.600	0.208	-0.147
-397.165	121.286	-0.170	0.211
-396.150	-57.677	-0.109	-0.048
-395.136	-29.287	0.198	-0.113
-394.121	-200.000	-0.035	-0.199
-393.106	-132.111	0.124	-0.016
-392.092	-93.287	0.164	-0.045
-391.077	-200.000	-0.004	0.030
-390.063	-159.430	0.255	-0.014
-389.048	-200.000	-0.007	-0.186
-388.033	91.522	0.094	-0.106
-387.019	-73.988	0.054	-0.020
-386.004	-200.000	0.025	-0.209
-384.990	-109.152	0.083	-0.018
-383.975	-0.871	0.071	-0.050
-382.960	-200.000	0.029	-0.145
-381.946	-11.300	-0.142	-0.093
-380.931	550.934	0.027	0.064
-379.917	245.205	0.188	0.315
-378.902	-25.455	-0.076	-0.045
-377.888	-54.377	-0.301	0.136
-376.873	-138.804	-0.244	0.027
-375.858	-33.939	0.202	-0.111
-374.844	7.477	0.156	-0.116
-373.829	-200.000	-0.034	-0.237
-372.815	-158.997	-0.211	-0.012
-371.800	81.730	0.043	0.046
-370.785	116.520	-0.050	0.061
-369.771	-200.000	0.001	-0.134
-368.756	95.961	-0.119	-0.136
-367.742	642.204	-0.125	0.318
-366.727	-200.000	-0.016	0.100
-365.712	-49.293	0.231	0.110
-364.698	-200.000	0.016	-0.097
-363.683	-146.913	-0.243	0.021
-362.669	-26.399	-0.044	-0.025
-361.654	-45.264	-0.324	-0.160
-360.639	48.161	0.101	-0.094
-359.625	29.064	-0.114	0.096
-358.610	627.604	0.052	-0.132
-357.596	229.932	-0.230	-0.374
-356.581	25.721	-0.338	0.280
-355.566	-162.736	0.254	-0.012
-354.552	123.109	0.110	-0.137
-353.537	-87.043	0.112	0.034
-352.523	800.000	-0.110	0.322
-351.508	-109.086	0.149	0.032
-350.493	-156.982	-0.302	0.018
-349.479	-50.947	-0.246	0.115
-348.464	527.395	0.104	0.244
-347.450	-90.685	-0.098	0.028
-346.435	-200.000	-0.015	0.090
-345.420	-200.000	-0.006	0.182
-344.406	800.000	0.046	-0.173
-343.391	652.938	-0.121	-0.309
-342.377	-200.000	0.016	-0.133
-341.362	72.081	0.114	-0.118
-340.348	-95.899	-0.097	0.026
-339.333	-93.990	0.119	-0.033
-338.318	41.914	-0.110	0.100
-337.304	-200.000	0.065	0.336
-336.289	-3.286	0.110	-0.077
-335.275	-11.883	0.203	0.133
-334.260	-147.218	-0.278	0.024
-333.245	103.656	0.139	-0.162
-332.231	-161.820	0.104	-0.005
-331.216	-200.000	0.044	-0.288
-330.202	21.480	-0.237	-0.191
-329.187	596.738	0.141	-0.347
-328.172	68.363	-0.035	0.036
-327.158	142.130	-0.110	-0.145
-326.143	-83.642	0.292	-0.093
-325.129	105.341	-0.096	-0.112
-324.114	-37.735	0.216	-0.115
-323.099	-200.000	0.007	-0.132
-322.085	-95.882	0.439	0.116
-321.070	-26.570	0.110	0.064
-320.056	800.000	-0.103	0.436
-319.041	94.498	0.099	0.112
-318.026	-91.049	-0.307	-0.088
-317.012	98.303	-0.268	-0.307
-315.997	421.241	-0.138	-0.295
-314.983	-200.000	-0.014	-0.114
-313.968	229.925	0.028	-0.046
-312.953	-28.940	0.253	0.145
-311.939	227.652	-0.155	0.250
-310.924	-115.509	-0.438	0.082
-309.910	800.000	0.086	-0.331
-308.895	800.000	-0.102	-0.310
-307.880	84.308	-0.128	0.139
-306.866	-72.369	0.156	0.057
-305.851	-200.000	-0.011	-0.421
-304.837	800.000	0.066	-0.195
-303.822	-200.000	-0.040	0.208
-302.807	335.111	-0.154	0.297
-301.793	-64.935	0.241	0.097
-300.778	-200.000	0.010	-0.161
-299.764	-68.262	-0.135	-0.052
-298.749	-100.711	-0.446	-0.109
-297.735	327.416	0.043	-0.081
-296.720	-123.405	-0.097	0.015
-295.705	800.000	0.134	-0.373
-294.691	-82.008	0.127	-0.041
-293.676	89.410	0.106	0.118
-292.662	-31.556	0.184	0.103
-291.647	-123.702	-0.157	-0.025
-290.632	800.000	-0.072	-0.272
-289.618	-200.000	-0.194	-0.000
-288.603	-138.734	0.181	-0.020
-287.589	18.207	0.258	0.204
-286.574	356.670	0.151	0.298
-285.559	29.977	-0.232	0.197
-284.545	-52.993	0.245	-0.112
-283.530	174.442	-0.157	0.225
-282.516	-6.762	-0.124	0.084
-281.501	134.469	-0.070	0.090
-280.486	-53.567	-0.111	0.050
-279.472	800.000	0.046	0.194
-278.457	800.000	0.054	0.211
-277.443	758.826	-0.037	0.099
-276.428	524.835	0.077	-0.179
-275.413	-200.000	0.033	-0.186
-274.399	-200.000	0.009	0.229
-273.384	800.000	0.075	-0.239
-272.370	288.536	0.083	-0.150
-271.355	-13.147	-0.310	-0.200
-270.340	257.568	0.254	0.434
-269.326	-13.722	-0.029	-0.019
-268.311	-100.491	-0.214	0.052
-267.297	157.746	0.111	0.152
-266.282	8.013	0.084	0.063
-265.267	-132.983	0.019	0.002
-264.253	25.978	-0.170	0.140
-263.238	670.372	0.098	-0.253
-262.224	-131.170	-0.182	-0.024
-261.209	-200.000	0.048	0.253
-260.195	-200.000	-0.050	-0.245
-259.180	-200.000	0.012	-0.182
-258.165	-8.772	0.358	-0.238
-257.151	800.000	-0.014	-0.055
-256.136	649.845	-0.228	-0.580
-255.122	800.000	0.110	-0.340
-254.107	14.933	0.185	-0.144
-253.092	-164.386	-0.133	0.006
-252.078	-68.597	-0.144	0.055
-251.063	-200.000	0.007	-0.115
-250.049	-33.500	-0.085	-0.047
-249.034	11.270	-0.200	0.152
-248.019	-18.648	-0.099	0.061
-247.005	-102.090	0.122	0.029
-245.990	-3.100	0.249	0.172
-244.976	107.468	0.379	0.447
-243.961	117.411	0.106	0.129
-242.946	-200.000	-0.389	-0.002
-241.932	35.987	0.215	-0.187
-240.917	432.188	0.042	0.090
-239.903	546.097	-0.106	0.251
-238.888	-200.000	0.293	-0.000
-237.873	-175.912	-0.171	-0.005
-236.859	276.312	0.024	-0.043
-235.844	-70.261	0.204	0.077
-234.830	435.311	0.027	-0.059
-233.815	-20.455	0.164	0.100
-232.800	-93.161	-0.337	0.093
-231.786	6.433	-0.207	0.152
-230.771	-115.097	0.152	-0.029
-229.757	85.648	-0.119	-0.130
-228.742	-200.000	-0.027	-0.254
-227.727	-71.224	0.148	-0.055
-226.713	28.163	-0.064	-0.054
-225.698	-200.000	0.058	-0.460
-224.684	-60.785	-0.214	0.090
-223.669	-6.219	0.192	0.130
-222.655	221.747	0.164	0.261
-221.640	-133.013	-0.432	0.054
-220.625	26.171	0.109	-0.090
-219.611	378.027	-0.062	-0.126
-218.596	-102.292	-0.167	-0.040
-217.582	800.000	0.073	0.216
-216.567	-70.690	0.186	0.070
-215.552	-200.000	-0.038	-0.268
-214.538	507.548	0.140	-0.321
-213.523	33.029	-0.144	-0.123
-212.509	21.721	0.236	0.190
-211.494	-200.000	0.220	0.001
-210.479	-4.040	0.170	-0.117
-209.465	47.317	0.184	0.170
-208.450	-56.870	0.270	0.118
-207.436	-67.786	-0.198	0.077
-206.421	-3.017	-0.150	0.104
-205.406	7.250	0.242	0.179
-204.392	-15.704	0.159	-0.101
-203.377	313.977	-0.099	-0.184
-202.363	-200.000	-0.023	-0.138
-201.348	-200.000	-0.013	0.067
-200.333	-200.000	0.036	-0.236
-199.319	-86.529	0.199	-0.060
-198.304	130.277	-0.032	0.040
-197.290	-200.000	-0.052	0.284
-196.275	-200.000	-0.025	0.126
-195.260	-26.108	-0.119	-0.069
-194.246	792.772	-0.081	-0.221
-193.231	800.000	-0.005	0.020
-192.217	-75.917	-0.009	0.003
-191.202	-56.336	0.235	0.103
-190.187	46.264	-0.208	-0.191
-189.173	-162.077	-0.165	-0.008
-188.158	-200.000	0.023	-0.229
-187.144	551.480	0.148	-0.352
-186.129	-107.535	-0.318	0.069
-185.114	-71.580	0.440	-0.163
-184.100	-102.063	0.075	-0.018
-183.085	660.220	-0.103	0.263
-182.071	397.528	-0.168	0.346
-181.056	-137.967	0.208	0.023
-180.042	45.064	0.254	-0.232
-179.027	-52.584	0.194	-0.089
-178.012	178.489	0.234	-0.338
-176.998	-200.000	-0.047	-0.253
-175.983	-200.000	-0.018	-0.169
-174.969	-111.387	0.644	-0.130
-173.954	-140.342	-0.311	-0.032
-172.939	143.520	-0.162	0.213
-171.925	-111.563	-0.105	-0.021
-170.910	-19.880	0.097	0.059
-169.896	-117.883	-0.076	-0.013
-168.881	319.387	-0.209	0.393
-167.866	238.562	0.054	0.088
-166.852	-200.000	-0.042	0.258
-165.837	-200.000	-0.005	0.309
-164.823	-166.236	0.243	-0.010
-163.808	-37.902	0.166	-0.087
-162.793	-13.177	-0.269	0.172
-161.779	-200.000	-0.013	0.173
-160.764	-146.262	-0.215	-0.019
-159.750	-82.328	0.127	0.041
-158.735	-85.197	-0.280	0.086
-157.720	800.000	-0.086	0.259
-156.706	307.057	-0.031	0.057
-155.691	77.895	0.220	-0.231
-154.677	-116.954	0.119	-0.021
-153.662	197.597	-0.193	0.292
-152.647	-108.489	-0.094	0.020
-151.633	10.090	0.165	-0.123
-150.618	-122.069	0.420	-0.068
-149.604	-20.093	0.301	0.183
-148.589	-100.541	0.063	0.015
-147.574	31.904	-0.031	-0.026
-146.560	-200.000	-0.012	-0.119
-145.545	-169.783	-0.153	0.005
-144.531	-108.890	0.304	-0.064
-143.516	79.201	0.157	-0.166
-142.502	-118.102	0.285	-0.050
-141.487	13.580	-0.152	0.116
-140.472	-173.505	0.112	0.003
-139.458	77.912	0.153	0.161
-138.443	163.603	0.091	0.127
-137.429	800.000	0.035	-0.104
-136.414	167.652	0.157	-0.220
-135.399	-32.035	0.034	-0.019
-134.385	366.251	0.101	0.202
-133.370	59.378	-0.051	0.050
-132.356	201.752	-0.053	-0.081
-131.341	-149.028	0.087	0.007
-130.326	211.405	-0.108	-0.168
-129.312	-100.593	0.315	0.077
-128.297	-18.017	0.170	-0.105
-127.283	-200.000	-0.019	-0.124
-126.268	-53.753	0.066	0.030
-125.253	-78.569	-0.267	-0.090
-124.239	144.020	0.073	0.095
-123.224	-24.377	0.245	0.144
-122.210	50.445	0.244	0.228
-121.195	59.160	0.046	0.045
-120.180	-200.000	-0.015	0.087
-119.166	-38.208	-0.143	-0.075
-118.151	74.151	-0.082	0.085
-117.137	800.000	0.025	0.077
-116.122	-200.000	-0.004	-0.141
-115.107	-160.240	0.091	0.005
-114.093	398.433	0.077	0.160
-113.078	-98.707	-0.164	-0.041
-112.064	138.076	-0.138	0.179
-111.049	-200.000	-0.025	0.215
-110.034	-2.033	0.327	0.226
-109.020	-99.352	0.238	-0.059
-108.005	228.176	-0.195	0.313
-106.991	-133.558	-0.162	-0.020
-105.976	-110.700	-0.327	-0.067
-104.962	9.493	0.341	0.254
-103.947	-200.000	-0.031	0.275
-102.932	-113.065	-0.265	-0.052
-101.918	52.112	0.239	0.224
-100.903	-15.995	0.181	0.113
-99.889	-110.685	-0.063	0.013
-98.874	800.000	-0.051	0.201
-97.859	-200.000	0.092	-0.470
-96.845	-57.899	0.125	-0.054
-95.830	102.000	0.239	-0.275
-94.816	800.000	-0.035	-0.135
-93.801	-144.022	0.345	-0.032
-92.786	18.878	-0.177	0.140
-91.772	76.328	0.249	-0.260
-90.757	-150.684	-0.320	0.024
-89.743	-56.508	0.120	0.052
-88.728	135.249	-0.084	-0.108
-87.713	-109.554	0.256	-0.053
-86.699	-138.501	-0.304	0.033
-85.684	-200.000	-0.014	-0.120
-84.670	85.476	0.094	0.102
-83.655	-46.149	0.164	-0.080
-82.640	-200.000	-0.050	0.350
-81.626	472.306	-0.083	-0.185
-80.611	-102.043	-0.273	0.065
-79.597	-112.087	-0.197	0.039
-78.582	68.184	0.131	-0.132
-77.567	40.193	0.093	-0.082
-76.553	-129.945	-0.214	0.029
-75.538	-167.329	0.260	0.010
-74.524	-200.000	0.047	0.233
-73.509	-200.000	-0.033	0.284
-72.494	213.749	-0.079	-0.123
-71.480	16.526	0.139	0.108
-70.465	29.736	-0.198	-0.166
-69.451	11.511	0.195	0.147
-68.436	800.000	-0.031	0.084
-67.422	-130.678	0.325	-0.043
-66.407	-200.000	0.011	0.405
-65.392	-200.000	0.029	0.229
-64.378	-125.568	-0.130	-0.019
-63.363	164.082	-0.123	-0.170
-62.349	-39.026	0.065	-0.034
-61.334	103.529	-0.824	-0.952
-60.319	240.726	0.339	0.556
-59.305	454.470	-0.240	-0.523
-58.290	166.082	0.596	0.831
-57.276	-200.000	0.284	1.696
-56.261	-200.000	93.925	550.387
-55.246	499.150	1412.878	3203.996
-54.232	151.362	2619.601	3509.092
-53.217	110.715	2203.685	2608.181
-52.203	44.295	1647.156	1487.443
-51.188	35.811	1377.576	1191.683
-50.173	32.491	1335.534	1135.291
-49.159	54.193	1381.380	1307.658
-48.144	55.978	1397.555	1333.836
-47.130	35.875	1357.827	1174.806
-46.115	32.447	1340.182	1138.797
-45.100	32.231	1335.443	1133.418
-44.086	32.086	1332.962	1130.397
-43.071	32.079	1330.987	1128.632
-42.057	32.062	1328.226	1126.144
-41.042	32.105	1326.775	1125.128
-40.027	32.160	1325.052	1123.951
-39.013	32.055	1323.079	1121.610
-37.998	32.088	1320.931	1119.937
-36.984	32.200	1319.492	1119.341
-35.969	32.149	1317.903	1117.648
-34.954	32.170	1315.941	1116.059
-33.940	32.285	1314.320	1115.325
-32.925	32.296	1313.016	1114.238
-31.911	32.341	1311.242	1112.957
-30.896	32.286	1310.034	1111.563
-29.881	32.298	1308.707	1110.461
-28.867	32.307	1307.295	1109.275
-27.852	32.283	1305.753	1107.778
-26.838	32.388	1304.331	1107.146
-25.823	32.367	1303.171	1105.995
-24.809	32.159	1301.799	1103.568
-23.794	32.308	1300.321	1103.140
-22.779	32.359	1298.684	1102.011
-21.765	32.254	1297.928	1100.708
-20.750	32.321	1296.222	1099.610
-19.736	32.198	1294.665	1097.525
-18.721	32.194	1293.845	1096.768
-17.706	32.173	1292.767	1095.687
-16.692	32.128	1291.467	1094.279
-15.677	32.192	1290.466	1093.761
-14.663	32.114	1289.042	1092.057
-13.648	32.096	1288.094	1091.104
-12.633	32.087	1287.136	1090.199
-11.619	32.103	1286.609	1089.798
-10.604	32.054	1285.764	1088.759
-9.590	32.157	1284.364	1088.126
-8.575	32.128	1282.878	1086.656
-7.560	32.009	1283.423	1086.385
-6.546	32.021	1281.869	1085.099
-5.531	32.025	1280.725	1084.108
-4.517	32.035	1280.034	1083.537
-3.502	32.097	1278.888	1082.882
-2.487	32.182	1277.727	1082.346
-1.473	32.297	1273.834	1079.667
-0.458	31.173	1259.664	1061.226
0.556	27.147	1242.456	1023.924
1.571	22.981	1247.347	1004.250
2.586	21.215	1261.091	1005.071
3.600	19.839	1248.781	987.323
4.615	14.502	1173.428	898.968
5.629	5.510	1096.064	794.162
6.644	1.367	1074.746	757.997
7.659	1.018	1072.800	754.823
8.673	0.922	1071.514	753.372
9.688	0.984	1070.415	752.842
10.702	1.191	1068.499	752.452
11.717	5.908	1074.520	780.119
12.731	13.580	1084.553	825.697
13.746	17.159	1088.763	846.705
14.761	17.590	1088.712	848.736
15.775	16.759	1087.004	843.195
16.790	15.755	1084.966	836.546
17.804	15.129	1083.593	832.307
18.819	14.783	1082.277	829.506
19.834	14.362	1081.419	826.685
20.848	14.051	1080.859	824.642
21.863	13.976	1079.458	823.127
22.877	13.788	1078.825	821.640
23.892	13.764	1077.858	820.713
24.907	13.765	1077.127	820.091
25.921	13.770	1076.658	819.683
26.936	13.829	1075.823	819.264
27.950	13.786	1074.561	818.020
28.965	13.947	1073.188	817.695
29.980	14.017	1071.972	817.040
30.994	13.923	1071.157	815.887
32.009	14.067	1070.179	815.774
33.023	13.934	1069.147	814.264
34.038	13.952	1067.990	813.397
35.053	13.912	1067.704	812.913
36.067	13.866	1066.743	811.885
37.082	13.859	1065.780	811.044
38.096	13.868	1065.109	810.509
39.111	13.878	1063.929	809.585
40.126	13.732	1063.277	808.307
41.140	13.744	1061.849	807.207
42.155	13.841	1060.164	806.329
43.169	13.791	1059.554	805.550
44.184	13.743	1058.323	804.309
45.199	13.739	1057.636	803.696
46.213	13.601	1056.534	802.121
47.228	13.716	1055.708	801.981
48.242	13.832	1054.069	801.225
49.257	13.876	1052.859	800.444
50.271	13.827	1052.195	799.635
51.286	13.885	1051.511	799.323
52.301	13.987	1050.188	798.734
53.315	13.827	1049.548	797.411
54.330	13.868	1048.425	796.685
55.344	13.734	1047.658	795.387
56.359	13.814	1046.319	794.680
57.374	13.705	1045.785	793.685
58.388	13.733	1045.148	793.264
59.403	13.707	1044.174	792.333
60.417	13.748	1043.335	791.820
61.432	13.752	1042.277	790.965
62.447	13.773	1041.721	790.574
63.461	13.596	1041.072	789.171
64.476	13.652	1040.393	788.853
65.490	13.679	1039.165	787.978
66.505	13.820	1038.243	787.881
67.520	13.814	1037.766	787.421
68.534	13.746	1037.299	786.672
69.549	13.746	1036.592	786.067
70.563	13.851	1035.552	785.704
71.578	13.747	1034.695	784.494
72.593	13.645	1034.435	783.745
73.607	13.620	1033.773	783.056
74.622	13.714	1033.227	783.018
75.636	13.729	1032.223	782.260
76.651	13.619	1031.628	781.220
77.666	13.562	1031.096	780.480
78.680	13.778	1029.790	780.439
79.695	13.727	1029.377	779.817
80.709	13.724	1029.193	779.595
81.724	13.694	1028.210	778.638
82.739	13.717	1027.313	777.997
83.753	13.811	1026.911	778.064
84.768	13.896	1025.814	777.566
85.782	13.971	1024.883	777.140
86.797	13.873	1024.123	776.037
87.812	13.801	1023.212	774.940
88.826	13.818	1022.261	774.234
89.841	13.837	1021.361	773.573
90.855	13.958	1020.434	773.364
91.870	13.890	1019.912	772.585
92.884	14.014	1018.639	772.128
93.899	13.872	1018.285	771.132
94.914	13.924	1017.516	770.722
95.928	14.028	1016.004	769.988
96.943	13.950	1015.356	769.072
97.957	13.945	1014.739	768.509
98.972	14.064	1013.331	767.927
99.987	14.051	1012.394	767.088
101.001	13.937	1011.237	765.620
102.016	13.946	1010.322	764.900
103.030	14.046	1009.630	764.768
104.045	14.012	1009.070	764.122
105.060	13.955	1008.127	763.078
106.074	13.998	1007.193	762.499
107.089	13.984	1005.968	761.439
108.103	13.862	1005.408	760.392
109.118	13.920	1004.430	759.846
110.133	13.874	1003.302	758.716
111.147	13.940	1002.201	758.120
112.162	13.959	1002.143	758.097
113.176	13.919	1001.180	757.117
114.191	13.987	999.986	756.459
115.206	13.801	1000.112	755.639
116.220	14.028	998.507	755.390
117.235	13.982	997.571	754.405
118.249	13.890	997.227	753.660
119.264	13.775	996.501	752.528
120.279	13.934	995.285	752.262
121.293	13.942	994.657	751.758
122.308	13.925	993.568	750.788
123.322	13.976	992.522	750.164
124.337	14.040	991.157	749.353
125.352	13.862	990.890	748.284
126.366	13.862	989.875	747.448
127.381	13.930	988.614	746.740
128.395	13.834	988.054	745.815
129.410	13.911	987.163	745.424
130.424	13.915	986.336	744.752
131.439	14.019	985.233	744.320
132.454	13.960	984.452	743.401
133.468	14.096	983.590	743.290
134.483	14.102	982.374	742.333
135.497	13.951	981.722	741.102
136.512	14.012	980.772	740.588
137.527	13.951	980.313	739.906
138.541	14.047	978.934	739.228
139.556	13.991	978.933	738.913
140.570	14.134	977.806	738.632
141.585	14.177	976.973	738.126
142.600	14.170	975.691	737.062
143.614	14.093	974.955	736.101
144.629	14.167	974.320	735.884
145.643	14.254	973.204	735.360
146.658	14.102	972.277	733.925
147.673	13.963	971.603	732.736
148.687	14.049	971.423	732.916
149.702	13.973	970.393	731.737
150.716	14.108	969.353	731.484
151.731	14.129	968.148	730.603
152.746	13.984	968.215	729.948
153.760	14.107	967.072	729.563
154.775	14.200	966.547	729.511
155.789	14.159	966.192	728.996
156.804	14.255	965.203	728.608
157.819	14.163	964.805	727.838
158.833	14.180	964.177	727.377
159.848	14.205	963.148	726.647
160.862	14.190	962.373	725.928
161.877	14.133	961.418	724.897
162.892	14.221	960.125	724.240
163.906	14.252	959.265	723.666
164.921	14.144	958.619	722.644
165.935	14.148	957.625	721.849
166.950	14.370	956.555	721.938
167.964	14.101	955.912	720.226
168.979	14.245	954.959	720.066
169.994	14.288	954.107	719.547
171.008	14.267	953.459	718.902
172.023	14.301	952.873	718.546
173.037	14.355	952.000	718.053
174.052	14.378	951.195	717.483
175.067	14.332	950.610	716.779
176.081	14.163	950.465	715.882
177.096	14.333	949.588	715.888
178.110	14.275	948.972	715.108
179.125	14.347	948.017	714.638
180.140	14.455	947.395	714.569
181.154	14.483	947.296	714.550
182.169	14.464	946.877	714.088
183.183	14.411	946.420	713.454
184.198	14.542	944.984	712.867
185.213	14.394	944.550	711.844
186.227	14.320	944.378	711.335
187.242	14.412	943.435	710.957
188.256	14.412	942.973	710.544
189.271	14.489	941.833	709.953
190.286	14.551	940.959	709.492
191.300	14.490	940.403	708.752
192.315	14.564	939.680	708.460
193.329	14.440	939.569	707.784
194.344	14.490	938.617	707.219
195.359	14.545	938.039	706.952
196.373	14.582	937.124	706.358
197.388	14.592	936.878	706.152
198.402	14.619	936.261	705.737
199.417	14.708	935.704	705.631
200.432	14.644	935.098	704.845
201.446	14.762	934.867	705.105
202.461	14.769	934.169	704.543
203.475	14.720	933.834	704.024
204.490	14.875	932.815	703.844
205.504	14.745	932.016	702.633
206.519	14.720	931.317	701.941
207.534	14.573	930.644	700.751
208.548	14.708	929.931	700.719
209.563	14.766	929.142	700.309
210.577	14.810	928.416	699.881
211.592	14.738	928.137	699.310
212.607	14.932	926.746	699.010
213.621	14.941	926.118	698.511
214.636	14.975	925.694	698.274
215.650	14.863	924.845	697.103
216.665	14.866	924.415	696.729
217.680	14.856	923.718	696.100
218.694	14.978	922.684	695.767
219.709	14.831	922.273	694.783
220.723	14.949	921.178	694.387
221.738	15.007	920.689	694.199
222.753	14.928	920.241	693.474
223.767	15.070	919.156	693.182
224.782	14.938	919.360	692.729
225.796	15.057	918.663	692.633
226.811	15.048	917.948	691.995
227.826	15.144	916.706	691.395
228.840	15.068	916.166	690.613
229.855	15.184	915.305	690.381
230.869	15.189	914.598	689.807
231.884	15.093	913.909	688.831
232.899	15.018	913.063	687.824
233.913	15.071	912.446	687.515
234.928	15.127	912.067	687.398
235.942	15.117	911.846	687.132
236.957	15.019	911.208	686.187
237.972	15.051	910.415	685.661
238.986	15.153	909.819	685.570
240.001	15.080	909.121	684.681
241.015	15.216	908.125	684.427
242.030	15.342	907.381	684.322
243.045	15.187	907.687	683.858
244.059	15.204	906.551	683.011
245.074	15.341	905.842	682.977
246.088	15.167	905.558	681.994
247.103	15.321	904.389	681.678
248.117	15.399	904.095	681.714
249.132	15.330	903.424	680.867
250.147	15.347	902.731	680.352
251.161	15.414	902.188	680.156
252.176	15.446	901.489	679.699
253.190	15.474	900.754	679.197
254.205	15.321	900.352	678.214
255.220	15.613	899.062	678.361
256.234	15.593	898.700	677.949
257.249	15.607	898.188	677.559
258.263	15.528	897.347	676.546
259.278	15.560	896.754	676.169
260.293	15.573	896.173	675.720
261.307	15.729	895.283	675.617
262.322	15.709	894.937	675.217
263.336	15.721	894.272	674.703
264.351	15.847	892.838	674.066
265.366	15.770	892.906	673.749
266.380	15.781	892.458	673.394
267.395	15.766	891.487	672.544
268.409	15.636	890.821	671.461
269.424	15.909	890.071	671.928
270.439	15.744	889.471	670.755
271.453	15.783	888.745	670.304
272.468	15.709	888.377	669.675
273.482	15.796	887.724	669.469
274.497	15.776	887.474	669.142
275.512	15.810	886.705	668.635
276.526	15.824	886.272	668.307
277.541	15.959	885.710	668.361
278.555	15.957	884.861	667.654
279.570	15.963	884.067	667.018
280.585	16.067	883.134	666.668
281.599	15.991	882.871	666.109
282.614	16.099	881.662	665.565
283.628	16.009	880.880	664.561
284.643	16.044	880.786	664.567
285.657	16.035	879.913	663.816
286.672	16.103	879.105	663.415
287.687	16.174	878.695	663.325
288.701	16.141	878.171	662.740
289.716	16.050	878.063	662.242
290.730	16.037	877.504	661.713
291.745	16.112	876.450	661.152
292.760	16.183	875.644	660.765
293.774	16.194	875.432	660.589
294.789	16.232	874.721	660.141
295.803	16.117	873.830	658.963
296.818	16.205	872.963	658.593
297.833	16.257	872.332	658.261
298.847	16.137	871.906	657.416
299.862	16.178	871.571	657.265
300.876	16.162	871.362	656.986
301.891	16.292	870.240	656.586
302.906	16.328	869.815	656.349
303.920	16.468	869.011	656.228
304.935	16.514	868.228	655.758
305.949	16.514	867.578	655.208
306.964	16.448	867.233	654.634
307.979	16.385	866.766	653.978
308.993	16.341	866.270	653.376
310.008	16.552	865.355	653.443
311.022	16.497	864.950	652.868
312.037	16.453	864.237	652.101
313.052	16.375	863.608	651.270
314.066	16.483	863.021	651.185
315.081	16.438	862.725	650.730
316.095	16.571	861.883	650.548
317.110	16.395	861.638	649.629
318.125	16.473	861.189	649.536
319.139	16.681	860.224	649.549
320.154	16.466	859.920	648.433
321.168	16.543	859.590	648.423
322.183	16.521	858.826	647.705
323.197	16.620	858.052	647.444
324.212	16.574	857.670	646.921
325.227	16.497	857.206	646.222
326.241	16.636	856.449	646.123
327.256	16.430	856.185	645.081
328.270	16.477	855.613	644.773
329.285	16.486	854.980	644.271
330.300	16.532	854.588	644.095
331.314	16.756	853.541	644.103
332.329	16.583	853.410	643.290
333.343	16.701	852.609	643.074
334.358	16.738	852.228	642.873
335.373	16.683	852.196	642.582
336.387	16.698	852.079	642.494
337.402	16.629	851.439	641.694
338.416	16.775	851.300	642.086
339.431	16.774	850.582	641.483
340.446	17.022	849.765	641.749
341.460	16.823	849.930	641.063
342.475	16.877	849.228	640.679
343.489	16.983	848.474	640.456
344.504	17.069	848.145	640.476
345.519	16.941	848.261	640.023
346.533	17.040	847.227	639.558
347.548	17.111	846.719	639.385
348.562	16.926	846.352	638.356
349.577	16.875	845.673	637.596
350.592	16.916	845.453	637.528
351.606	17.026	844.250	636.975
352.621	17.137	843.380	636.679
353.635	17.086	843.086	636.211
354.650	16.884	842.806	635.185
355.665	17.037	841.967	635.070
356.679	17.241	840.873	634.951
357.694	17.114	840.532	634.163
358.708	17.148	840.093	633.903
359.723	17.093	839.151	632.932
360.738	17.274	838.066	632.730
361.752	17.247	837.888	632.440
362.767	17.353	837.161	632.228
363.781	17.245	836.812	631.509
364.796	17.322	836.616	631.590
365.810	17.305	836.082	631.068
366.825	17.418	835.787	631.209
367.840	17.315	835.779	630.766
368.854	17.277	835.230	630.154
369.869	17.330	834.331	629.615
370.883	17.276	834.403	629.414
371.898	17.332	833.785	629.102
372.913	17.451	833.479	629.253
373.927	17.514	832.582	628.753
374.942	17.443	832.324	628.240
375.956	17.527	832.160	628.370
376.971	17.538	831.447	627.817
377.986	17.376	831.245	627.012
379.000	17.562	830.999	627.456
380.015	17.518	830.463	626.835
381.029	17.627	829.367	626.353
382.044	17.757	828.665	626.245
383.059	17.728	828.046	625.617
384.073	17.706	827.433	625.017
385.088	17.707	826.992	624.631
386.102	17.646	826.658	624.099
387.117	17.602	825.861	623.282
388.132	17.768	825.033	623.209
389.146	17.766	824.590	622.814
390.161	17.753	824.338	622.521
391.175	17.682	823.757	621.767
392.190	17.641	823.453	621.331
393.205	17.569	822.779	620.505
394.219	17.619	822.810	620.657
395.234	17.672	822.470	620.537
396.248	17.672	821.827	620.000
397.263	17.782	821.449	620.059
398.278	17.764	821.033	619.626
399.292	17.801	820.663	619.425
400.307	17.785	820.184	618.950
401.321	17.761	819.657	618.409
402.336	17.830	818.935	618.061
403.350	17.866	818.654	617.923
404.365	17.803	818.204	617.304
405.380	17.769	817.750	616.781
406.394	17.856	817.224	616.646
407.409	17.918	816.301	616.119
408.423	17.919	816.550	616.255
409.438	18.078	816.193	616.505
410.453	17.979	815.278	615.403
411.467	18.135	814.774	615.531
412.482	18.283	814.320	615.663
413.496	18.141	814.130	614.954
414.511	18.144	814.098	614.886
415.526	18.150	813.324	614.269
416.540	18.089	812.846	613.635
417.555	18.186	812.393	613.587
418.569	18.051	811.861	612.647
419.584	18.124	811.725	612.752
420.599	18.186	811.038	612.401
421.613	109.255	1289.906	1461.087
422.628	94.382	1359.669	1461.194
