DTS Sentinel unit serial number:	SN413079Multiplexer serial number:	ORYXHardware model number:	OX4-SRSoftware version number:	ORYX F/W v4.00 Oryx Data Collector v3.7.2.0data status	okinstallation	princeton_trtdifferential loss correction	single-endedforward channel	channel 1reverse channel	N/Adate	2019/09/15time	12:10:35forward acquisition time	60.00reverse acquisition time	0.00gamma	496.2192k internal	0.2305k external	0.2305temperature offset calibration	0.9983default loss term (dB/km)	0.3790temperature slope calibration	1.0000multiplexer offset coefficient	1.0000multiplexer slope coefficient	1.0000fibre end	0.00T internal ref (°C)	34.56T ext. ref 1 (°C)	5.04T ext. ref 2 (°C)	31.16length (m)	temperature (°C)	Stokes	anti-Stokes-747.200	63.055	-0.233	-0.238
-746.185	439.103	0.174	0.387
-745.171	244.430	0.149	0.254
-744.156	-121.081	-0.503	-0.086
-743.142	-1.129	0.178	-0.128
-742.127	31.376	-0.340	0.298
-741.112	66.001	-0.151	0.155
-740.098	-200.000	-0.015	0.143
-739.083	-140.612	-0.130	-0.014
-738.069	679.999	-0.083	0.221
-737.054	-171.638	0.121	-0.004
-736.039	49.154	-0.094	0.090
-735.025	-58.940	0.057	-0.025
-734.010	-26.363	-0.152	-0.091
-732.996	-200.000	0.007	0.165
-731.981	800.000	-0.059	0.192
-730.966	-14.232	-0.202	0.133
-729.952	-200.000	-0.030	-0.234
-728.937	-29.806	0.269	-0.156
-727.923	-200.000	-0.053	-0.246
-726.908	-77.994	0.170	-0.060
-725.894	-53.216	0.036	0.017
-724.879	256.191	-0.033	-0.058
-723.864	499.311	-0.124	0.291
-722.850	339.840	0.065	-0.128
-721.835	-73.271	-0.257	0.096
-720.821	-200.000	0.018	-0.346
-719.806	243.901	0.191	0.327
-718.791	-200.000	-0.003	-0.188
-717.777	90.431	0.177	-0.201
-716.762	800.000	-0.033	-0.117
-715.748	563.856	-0.065	-0.159
-714.733	-92.433	-0.077	0.022
-713.718	42.908	-0.157	-0.145
-712.704	-164.726	0.304	0.014
-711.689	80.253	0.117	0.128
-710.675	800.000	0.083	0.243
-709.660	155.321	-0.150	0.210
-708.645	0.100	0.160	-0.116
-707.631	-200.000	-0.013	0.211
-706.616	-119.618	-0.138	-0.024
-705.602	-98.828	0.175	0.045
-704.587	-148.325	-0.166	0.014
-703.572	331.543	0.076	-0.149
-702.558	-181.010	0.053	-0.001
-701.543	800.000	-0.181	-0.512
-700.529	28.225	0.210	-0.181
-699.514	409.311	-0.088	0.189
-698.499	230.143	0.117	-0.195
-697.485	615.544	-0.081	-0.207
-696.470	-200.000	0.012	0.278
-695.456	-164.116	0.339	0.016
-694.441	-200.000	0.014	-0.157
-693.426	-99.197	0.296	0.076
-692.412	125.493	-0.198	-0.254
-691.397	32.585	0.280	-0.245
-690.383	323.896	0.083	-0.160
-689.368	87.662	0.088	-0.099
-688.354	106.267	-0.136	0.163
-687.339	-88.762	0.120	0.036
-686.324	-55.154	-0.351	-0.160
-685.310	-7.293	0.247	-0.170
-684.295	83.920	-0.110	0.122
-683.281	102.490	-0.189	0.224
-682.266	216.866	-0.026	0.042
-681.251	-58.371	0.269	-0.119
-680.237	468.459	0.131	0.299
-679.222	74.815	0.043	0.045
-678.208	-43.333	-0.366	-0.188
-677.193	44.773	0.061	-0.057
-676.178	800.000	0.015	-0.045
-675.164	-188.317	0.413	-0.005
-674.149	102.692	0.104	-0.124
-673.135	-121.588	-0.131	-0.022
-672.120	-110.277	0.281	0.059
-671.105	-200.000	-0.044	-0.341
-670.091	177.124	0.170	-0.252
-669.076	800.000	-0.059	-0.169
-668.062	800.000	0.087	0.348
-667.047	258.320	0.081	0.142
-666.032	44.220	-0.327	0.304
-665.018	-105.279	0.337	-0.078
-664.003	40.969	-0.134	-0.122
-662.989	286.341	-0.085	0.155
-661.974	-61.154	-0.238	0.102
-660.959	-200.000	0.051	-0.345
-659.945	-105.714	0.378	0.087
-658.930	-46.207	-0.293	0.146
-657.916	-124.365	-0.067	0.011
-656.901	18.066	-0.104	-0.084
-655.886	127.024	0.194	-0.250
-654.872	800.000	-0.120	-0.358
-653.857	-19.454	0.044	-0.028
-652.843	39.212	0.160	-0.145
-651.828	-51.547	0.246	-0.116
-650.814	-200.000	0.014	-0.126
-649.799	-200.000	0.000	0.067
-648.784	538.127	-0.085	-0.204
-647.770	304.896	-0.056	-0.105
-646.755	-60.317	0.349	-0.151
-645.741	-200.000	0.047	-0.251
-644.726	-11.963	-0.079	-0.052
-643.711	-200.000	0.001	-0.226
-642.697	-200.000	-0.031	-0.306
-641.682	-200.000	0.006	-0.273
-640.668	-194.096	0.314	-0.003
-639.653	800.000	-0.131	0.373
-638.638	-71.695	0.044	0.017
-637.624	442.538	-0.080	-0.179
-636.609	145.923	-0.114	-0.155
-635.595	-93.513	-0.183	0.051
-634.580	-200.000	0.021	0.323
-633.565	-200.000	0.058	0.385
-632.551	-106.772	-0.185	0.042
-631.536	222.703	0.127	0.207
-630.522	-200.000	-0.015	-0.197
-629.507	-105.108	-0.178	-0.041
-628.492	51.318	0.164	0.158
-627.478	2.181	0.317	-0.232
-626.463	1.675	0.101	0.074
-625.449	51.850	-0.082	-0.079
-624.434	-59.802	0.039	0.017
-623.419	187.808	0.233	0.353
-622.405	-157.919	0.188	-0.011
-621.390	-108.880	-0.350	0.076
-620.376	-27.004	-0.464	-0.274
-619.361	-200.000	-0.015	0.121
-618.346	800.000	-0.099	0.280
-617.332	-17.937	-0.073	-0.047
-616.317	-200.000	-0.026	-0.148
-615.303	-17.109	-0.121	-0.077
-614.288	-175.957	0.213	-0.006
-613.273	414.124	0.088	-0.189
-612.259	-50.514	0.222	-0.106
-611.244	9.853	-0.054	0.042
-610.230	-144.607	0.133	-0.012
-609.215	344.675	-0.072	0.143
-608.201	-95.332	0.208	0.057
-607.186	39.348	0.366	0.332
-606.171	-148.614	0.053	-0.004
-605.157	157.145	-0.108	-0.151
-604.142	-11.786	-0.152	-0.101
-603.128	800.000	0.067	0.188
-602.113	-134.830	-0.104	-0.013
-601.098	287.348	-0.130	0.238
-600.084	256.680	-0.146	-0.253
-599.069	66.813	0.126	-0.129
-598.055	114.794	0.078	0.096
-597.040	-167.138	-0.201	0.008
-596.025	-21.812	-0.257	0.158
-595.011	201.330	-0.082	0.128
-593.996	235.776	0.052	0.088
-592.982	800.000	-0.032	-0.133
-591.967	-200.000	0.069	-0.373
-590.952	48.944	0.302	-0.287
-589.938	42.584	0.184	0.169
-588.923	800.000	0.056	0.160
-587.909	-49.991	-0.083	-0.040
-586.894	135.998	-0.026	0.035
-585.879	271.618	-0.080	0.142
-584.865	-89.499	-0.225	-0.067
-583.850	-155.098	-0.248	-0.016
-582.836	-5.221	-0.230	0.160
-581.821	-60.958	0.251	0.107
-580.806	314.642	-0.129	-0.246
-579.792	4.972	0.206	-0.153
-578.777	-146.702	-0.123	-0.011
-577.763	-200.000	-0.037	-0.369
-576.748	25.019	0.206	0.173
-575.733	-104.354	-0.087	0.020
-574.719	7.904	-0.042	-0.032
-573.704	-59.261	0.181	0.079
-572.690	-200.000	0.008	0.122
-571.675	210.895	0.029	-0.047
-570.661	-61.476	0.088	0.038
-569.646	77.158	-0.089	-0.095
-568.631	-200.000	-0.022	0.118
-567.617	46.112	0.160	-0.149
-566.602	-200.000	0.007	-0.438
-565.588	-87.299	-0.114	-0.035
-564.573	471.208	-0.069	-0.157
-563.558	200.546	-0.117	-0.181
-562.544	-200.000	-0.044	-0.217
-561.529	-36.039	0.193	0.106
-560.515	174.706	-0.145	-0.212
-559.500	-70.354	0.233	0.089
-558.485	142.383	-0.054	-0.073
-557.471	332.986	0.077	-0.149
-556.456	15.695	-0.117	-0.093
-555.442	-186.874	0.229	-0.003
-554.427	800.000	-0.045	-0.135
-553.412	-153.192	-0.396	-0.028
-552.398	-143.262	0.228	0.022
-551.383	68.616	-0.169	0.175
-550.369	-200.000	-0.007	0.034
-549.354	534.145	0.080	0.191
-548.339	-200.000	-0.010	0.123
-547.325	-52.398	0.075	0.035
-546.310	-82.187	-0.141	0.046
-545.296	243.779	-0.095	-0.160
-544.281	800.000	0.023	-0.081
-543.266	-158.860	0.260	-0.015
-542.252	-15.005	0.444	0.287
-541.237	-200.000	0.002	-0.198
-540.223	122.515	0.158	0.199
-539.208	25.909	-0.094	0.079
-538.193	-92.597	0.118	0.034
-537.179	183.109	0.130	0.193
-536.164	226.520	0.239	0.392
-535.150	120.747	-0.210	0.263
-534.135	-126.851	0.121	0.018
-533.121	311.588	-0.129	0.244
-532.106	-161.564	0.095	-0.005
-531.091	189.480	0.085	0.129
-530.077	148.669	0.151	0.206
-529.062	-52.462	0.294	0.137
-528.048	-139.780	-0.231	-0.025
-527.033	1.583	-0.043	-0.031
-526.018	23.505	-0.203	-0.169
-525.004	29.485	-0.089	-0.077
-523.989	306.929	-0.151	-0.284
-522.975	10.665	0.227	-0.175
-521.960	104.736	-0.051	-0.061
-520.945	386.153	0.077	0.161
-519.931	-165.295	-0.170	0.008
-518.916	800.000	0.105	0.301
-517.902	-59.537	0.278	0.120
-516.887	800.000	0.057	0.216
-515.872	-200.000	0.011	-0.054
-514.858	-200.000	0.009	0.125
-513.843	-200.000	0.018	0.084
-512.829	203.218	0.084	-0.132
-511.814	-200.000	0.082	-0.414
-510.799	38.007	-0.136	-0.122
-509.785	800.000	-0.014	0.056
-508.770	800.000	0.063	0.266
-507.756	-109.775	0.104	-0.022
-506.741	-200.000	0.013	-0.161
-505.726	476.923	0.055	-0.127
-504.712	54.770	0.195	-0.190
-503.697	-200.000	-0.022	-0.125
-502.683	-164.803	0.191	0.009
-501.668	-132.869	0.201	0.026
-500.653	47.615	0.087	-0.082
-499.639	-200.000	-0.030	-0.243
-498.624	467.674	0.104	-0.235
-497.610	-43.779	-0.093	-0.047
-496.595	-55.880	0.136	0.061
-495.581	-64.928	-0.319	-0.130
-494.566	414.669	0.032	0.070
-493.551	-200.000	0.025	-0.119
-492.537	800.000	0.050	0.161
-491.522	-83.693	0.217	-0.070
-490.508	6.906	0.168	-0.126
-489.493	-200.000	0.008	-0.079
-488.478	-200.000	-0.010	0.101
-487.464	549.318	-0.015	-0.036
-486.449	-200.000	0.007	0.062
-485.435	-85.856	0.130	-0.041
-484.420	-200.000	0.019	0.109
-483.405	-76.782	0.205	-0.072
-482.391	42.511	0.206	0.189
-481.376	-200.000	-0.041	-0.346
-480.362	232.388	0.085	-0.141
-479.347	-101.496	-0.209	-0.051
-478.332	-122.091	-0.330	-0.055
-477.318	-200.000	0.044	0.243
-476.303	19.665	0.086	0.069
-475.289	-18.302	-0.163	-0.103
-474.274	-57.579	0.127	-0.056
-473.259	321.091	-0.103	-0.198
-472.245	226.734	-0.099	0.162
-471.230	311.264	0.067	0.127
-470.216	166.712	0.218	0.311
-469.201	-200.000	0.002	-0.022
-468.186	800.000	-0.098	-0.355
-467.172	-200.000	-0.030	0.185
-466.157	-29.439	-0.015	0.009
-465.143	800.000	0.063	0.222
-464.128	-64.432	-0.216	0.089
-463.113	800.000	-0.036	-0.141
-462.099	484.404	-0.019	0.043
-461.084	87.793	-0.088	-0.098
-460.070	-129.507	-0.459	0.064
-459.055	-200.000	0.019	0.169
-458.040	-200.000	0.036	-0.180
-457.026	330.304	-0.116	-0.225
-456.011	-200.000	-0.018	-0.125
-454.997	-55.606	-0.109	0.049
-453.982	-180.688	0.111	0.002
-452.968	-145.269	-0.226	0.021
-451.953	5.053	-0.259	-0.192
-450.938	-23.222	0.179	0.108
-449.924	413.918	-0.121	0.259
-448.909	-11.565	0.108	-0.071
-447.895	14.274	0.202	0.159
-446.880	268.769	0.125	-0.220
-445.865	-16.306	0.151	0.097
-444.851	518.466	-0.085	-0.199
-443.836	-125.983	0.078	-0.012
-442.822	-200.000	-0.039	0.182
-441.807	-200.000	0.021	0.118
-440.792	-20.774	0.159	-0.098
-439.778	-144.599	-0.335	0.031
-438.763	-27.067	-0.270	0.159
-437.749	-164.297	0.491	-0.023
-436.734	-15.213	-0.156	-0.100
-435.719	-50.393	-0.217	0.103
-434.705	800.000	-0.014	0.049
-433.690	800.000	-0.059	-0.229
-432.676	158.965	0.195	0.273
-431.661	-132.711	-0.438	-0.056
-430.646	-200.000	-0.011	-0.291
-429.632	-128.903	-0.163	-0.023
-428.617	-106.004	-0.384	0.087
-427.603	800.000	0.105	0.353
-426.588	-60.920	0.063	-0.027
-425.573	148.893	-0.158	0.215
-424.559	-200.000	-0.019	-0.199
-423.544	464.842	0.025	-0.056
-422.530	-93.657	0.111	-0.031
-421.515	-114.303	-0.248	-0.048
-420.500	197.445	-0.231	-0.355
-419.486	-200.000	-0.021	0.136
-418.471	-57.569	-0.125	0.055
-417.457	-94.588	-0.344	0.094
-416.442	-148.301	0.182	-0.015
-415.428	126.468	-0.131	-0.166
-414.413	105.941	0.157	-0.186
-413.398	-200.000	0.032	0.191
-412.384	535.994	0.040	0.096
-411.369	161.500	-0.088	0.124
-410.355	-144.163	0.071	0.007
-409.340	117.941	0.137	-0.169
-408.325	476.928	0.087	-0.199
-407.311	-54.719	-0.281	-0.128
-406.296	61.976	-0.092	0.092
-405.282	-200.000	-0.027	0.146
-404.267	-107.204	-0.177	0.039
-403.252	-118.694	-0.265	-0.047
-402.238	87.567	-0.019	-0.021
-401.223	34.147	0.091	0.079
-400.209	800.000	0.083	0.345
-399.194	-22.914	-0.174	-0.105
-398.179	609.417	-0.128	-0.321
-397.165	326.592	0.107	-0.207
-396.150	800.000	0.039	-0.153
-395.136	-65.044	0.188	0.076
-394.121	2.332	-0.298	-0.216
-393.106	52.546	-0.089	0.086
-392.092	-78.068	-0.238	-0.082
-391.077	645.045	-0.101	-0.259
-390.063	429.151	0.084	-0.182
-389.048	-18.023	-0.271	-0.170
-388.033	270.782	0.083	0.147
-387.019	-49.172	0.169	-0.081
-386.004	-200.000	0.004	-0.413
-384.990	535.846	-0.117	-0.278
-383.975	33.478	-0.039	-0.034
-382.960	-94.001	-0.188	0.052
-381.946	85.236	-0.304	0.335
-380.931	-125.956	0.250	-0.038
-379.917	800.000	-0.161	-0.565
-378.902	101.822	0.118	0.138
-377.888	-200.000	0.014	0.232
-376.873	475.796	-0.101	-0.228
-375.858	-74.542	-0.207	0.075
-374.844	6.357	0.259	0.193
-373.829	223.284	0.110	-0.178
-372.815	201.895	-0.060	-0.093
-371.800	-178.105	0.321	-0.008
-370.785	-200.000	0.017	-0.212
-369.771	-74.708	-0.362	-0.131
-368.756	800.000	-0.005	-0.021
-367.742	-72.354	0.204	-0.076
-366.727	-48.460	-0.163	-0.079
-365.712	-198.308	-0.325	0.002
-364.698	-200.000	-0.048	0.283
-363.683	112.447	-0.137	-0.166
-362.669	-122.214	-0.144	0.024
-361.654	-200.000	0.006	-0.234
-360.639	800.000	0.041	-0.146
-359.625	348.908	-0.044	0.087
-358.610	-32.514	-0.079	-0.044
-357.596	348.199	-0.055	-0.109
-356.581	110.846	0.200	0.241
-355.566	7.434	0.121	0.090
-354.552	258.858	-0.055	-0.094
-353.537	106.796	-0.321	0.382
-352.523	-27.894	-0.181	0.105
-351.508	-124.111	-0.224	-0.035
-350.493	-200.000	0.025	-0.181
-349.479	-200.000	0.016	-0.330
-348.464	273.721	-0.122	-0.215
-347.450	2.115	0.127	0.092
-346.435	800.000	0.013	-0.038
-345.420	164.301	-0.267	-0.377
-344.406	-200.000	-0.022	0.123
-343.391	-123.125	-0.133	-0.021
-342.377	-40.851	-0.286	-0.148
-341.362	-11.260	0.334	0.221
-340.348	56.155	0.067	0.065
-339.333	56.715	-0.193	0.188
-338.318	105.905	-0.071	0.084
-337.304	800.000	-0.011	-0.048
-336.289	116.962	0.341	0.420
-335.275	-200.000	-0.002	0.179
-334.260	27.877	-0.128	0.108
-333.245	-139.480	0.411	0.044
-332.231	130.243	-0.216	-0.277
-331.216	800.000	-0.065	0.279
-330.202	19.695	-0.158	0.128
-329.187	606.804	0.095	0.237
-328.172	93.738	-0.112	-0.127
-327.158	397.496	0.242	-0.506
-326.143	-130.243	0.207	0.028
-325.129	-200.000	-0.006	0.356
-324.114	-131.170	0.281	-0.037
-323.099	800.000	0.054	0.213
-322.085	112.269	-0.016	-0.019
-321.070	800.000	-0.118	0.331
-320.056	4.077	-0.183	0.134
-319.041	37.910	0.028	0.025
-318.026	800.000	0.047	0.154
-317.012	-200.000	-0.023	-0.160
-315.997	-139.338	0.310	0.033
-314.983	-200.000	0.238	0.001
-313.968	77.007	-0.140	-0.149
-312.953	142.747	0.272	-0.362
-311.939	36.298	-0.180	0.159
-310.924	152.004	0.136	0.185
-309.910	376.699	0.048	0.099
-308.895	440.098	-0.057	0.125
-307.880	51.855	0.162	0.155
-306.866	-200.000	0.001	0.107
-305.851	50.015	-0.048	0.045
-304.837	-47.311	0.214	0.104
-303.822	48.355	-0.075	0.070
-302.807	126.623	0.074	0.094
-301.793	-64.520	0.134	-0.054
-300.778	18.822	-0.168	0.135
-299.764	94.984	-0.204	-0.233
-298.749	-47.617	0.201	0.097
-297.735	800.000	-0.013	0.038
-296.720	-200.000	-0.003	0.254
-295.705	-97.510	0.230	0.060
-294.691	67.348	0.055	-0.056
-293.676	-200.000	0.009	-0.200
-292.662	20.674	0.102	-0.083
-291.647	-200.000	-0.062	-0.331
-290.632	-115.798	0.191	0.036
-289.618	145.666	-0.216	-0.290
-288.603	-124.465	-0.095	-0.015
-287.589	-200.000	-0.016	-0.121
-286.574	-93.427	-0.104	0.029
-285.559	-200.000	0.070	0.445
-284.545	-17.910	-0.140	0.088
-283.530	800.000	0.010	-0.031
-282.516	-20.989	0.275	0.168
-281.501	-132.656	0.258	-0.033
-280.486	-95.131	0.404	0.109
-279.472	800.000	-0.083	-0.250
-278.457	6.339	0.098	0.073
-277.443	15.674	-0.216	0.170
-276.428	-96.264	0.032	0.009
-275.413	-88.564	0.050	0.015
-274.399	169.696	0.083	0.119
-273.384	-200.000	0.031	-0.180
-272.370	-81.559	-0.050	0.016
-271.355	260.325	0.129	-0.223
-270.340	-77.759	0.067	0.023
-269.326	-200.000	-0.034	-0.422
-268.311	92.113	-0.103	0.116
-267.297	-102.247	-0.268	-0.064
-266.282	149.736	-0.199	-0.269
-265.267	72.717	-0.033	-0.034
-264.253	-4.895	-0.179	0.123
-263.238	800.000	0.019	-0.073
-262.224	-157.420	-0.198	-0.012
-261.209	800.000	0.056	0.160
-260.195	-200.000	0.006	0.047
-259.180	-140.715	0.267	0.028
-258.165	-200.000	-0.006	0.049
-257.151	-37.716	-0.043	0.023
-256.136	8.537	-0.119	0.089
-255.122	45.798	-0.195	0.180
-254.107	84.383	-0.085	0.093
-253.092	-129.998	0.150	0.021
-252.078	-104.982	-0.132	0.030
-251.063	-151.539	-0.376	0.028
-250.049	-123.704	-0.201	0.032
-249.034	-85.915	-0.223	-0.069
-248.019	-151.768	-0.106	-0.008
-247.005	-97.438	0.266	0.069
-245.990	-56.777	-0.122	0.054
-244.976	-200.000	0.050	-0.388
-243.961	5.022	-0.121	0.089
-242.946	525.583	0.095	0.224
-241.932	-92.890	0.266	0.074
-240.917	106.122	-0.073	0.086
-239.903	800.000	-0.043	-0.181
-238.888	800.000	-0.046	0.134
-237.873	-186.075	-0.023	-0.000
-236.859	-30.695	0.121	-0.069
-235.844	444.648	0.173	0.379
-234.830	-200.000	-0.030	-0.223
-233.815	-200.000	-0.010	0.067
-232.800	106.468	0.294	0.348
-231.786	800.000	0.011	0.041
-230.771	589.354	0.112	-0.276
-229.757	663.311	0.066	-0.169
-228.742	-93.755	0.253	0.070
-227.727	-200.000	-0.049	-0.350
-226.713	-200.000	-0.022	0.294
-225.698	-151.324	-0.157	0.012
-224.684	800.000	-0.105	0.294
-223.669	159.344	0.210	0.291
-222.655	358.204	-0.143	-0.285
-221.640	-123.858	0.420	0.066
-220.625	436.948	-0.028	0.061
-219.611	-83.205	-0.050	0.016
-218.596	36.818	0.054	0.048
-217.582	231.897	-0.048	0.078
-216.567	634.692	-0.104	0.264
-215.552	-200.000	-0.045	0.347
-214.538	-200.000	-0.040	-0.362
-213.523	129.886	0.140	-0.178
-212.509	-26.720	-0.410	-0.239
-211.494	6.976	0.433	-0.321
-210.479	-200.000	-0.001	0.106
-209.465	-81.640	0.065	-0.021
-208.450	-85.385	0.249	-0.077
-207.436	183.050	-0.189	0.277
-206.421	0.085	0.107	-0.076
-205.406	800.000	-0.076	0.312
-204.392	608.861	-0.121	0.301
-203.377	800.000	-0.018	0.071
-202.363	-200.000	-0.017	0.091
-201.348	-83.660	0.065	0.021
-200.333	-71.114	-0.273	0.102
-199.319	559.739	0.107	-0.257
-198.304	-14.294	0.178	0.114
-197.290	17.883	0.129	0.102
-196.275	13.791	0.142	-0.110
-195.260	99.781	-0.152	-0.175
-194.246	-23.479	0.111	0.066
-193.231	25.349	0.107	0.089
-192.217	-200.000	-0.207	0.000
-191.202	-78.668	0.045	0.015
-190.187	-200.000	-0.026	-0.206
-189.173	50.855	0.221	-0.209
-188.158	150.159	-0.145	0.195
-187.144	-200.000	-0.014	0.065
-186.129	-63.613	0.292	-0.119
-185.114	-86.144	-0.131	-0.040
-184.100	60.233	-0.174	0.171
-183.085	-20.974	0.383	0.234
-182.071	384.581	0.107	0.220
-181.056	800.000	-0.009	-0.026
-180.042	800.000	0.046	0.191
-179.027	-60.086	-0.219	-0.093
-178.012	-152.957	0.289	-0.020
-176.998	69.948	-0.190	-0.195
-175.983	61.073	-0.033	-0.032
-174.969	13.699	0.188	0.145
-173.954	-200.000	0.017	-0.234
-172.939	766.684	0.072	-0.196
-171.925	-67.432	0.291	0.114
-170.910	-33.671	0.365	-0.200
-169.896	-69.006	0.138	0.053
-168.881	800.000	-0.026	-0.092
-167.866	414.604	-0.052	0.110
-166.852	-200.000	-0.014	0.099
-165.837	-200.000	0.155	0.000
-164.823	33.018	0.236	0.203
-163.808	79.444	-0.200	0.213
-162.793	97.803	0.099	0.113
-161.779	-26.540	-0.316	0.184
-160.764	445.605	-0.125	0.272
-159.750	26.773	-0.093	-0.078
-158.735	800.000	0.020	-0.054
-157.720	16.236	0.107	-0.084
-156.706	-117.486	-0.107	-0.019
-155.691	367.108	-0.062	-0.124
-154.677	-124.432	-0.178	-0.028
-153.662	45.504	0.198	-0.181
-152.647	316.103	-0.189	0.354
-151.633	-153.798	-0.058	-0.004
-150.618	106.966	0.038	0.045
-149.604	161.819	0.226	-0.315
-148.589	401.770	-0.072	-0.151
-147.574	542.159	0.046	0.109
-146.560	-97.897	0.166	0.043
-145.545	-18.456	0.147	0.091
-144.531	299.359	0.069	0.127
-143.516	-200.000	-0.012	0.077
-142.502	32.324	-0.312	0.268
-141.487	91.867	0.121	0.136
-140.472	157.398	-0.126	0.173
-139.458	8.107	0.108	0.080
-138.443	-109.303	-0.112	-0.024
-137.429	800.000	-0.076	0.214
-136.414	27.449	-0.138	-0.115
-135.399	286.295	-0.085	0.152
-134.385	-19.889	0.278	0.171
-133.370	83.816	-0.083	-0.090
-132.356	-14.817	-0.195	0.124
-131.341	-153.213	-0.066	-0.005
-130.326	172.380	-0.075	-0.107
-129.312	307.044	0.079	-0.147
-128.297	-11.424	0.318	0.208
-127.283	800.000	-0.046	0.181
-126.268	17.336	0.119	0.094
-125.253	-200.000	0.040	0.221
-124.239	194.636	-0.103	0.155
-123.224	-200.000	-0.030	-0.189
-122.210	-200.000	-0.086	-0.390
-121.195	-200.000	0.049	-0.268
-120.180	33.380	-0.240	0.207
-119.166	196.068	0.151	0.228
-118.151	-47.373	-0.222	-0.107
-117.137	344.684	0.031	-0.060
-116.122	-200.000	0.023	-0.263
-115.107	-30.945	0.231	0.129
-114.093	33.274	-0.339	0.292
-113.078	-53.333	-0.069	-0.032
-112.064	-121.085	-0.103	0.017
-111.049	-159.810	-0.146	-0.008
-110.034	-3.427	0.169	-0.117
-109.020	-200.000	-0.058	-0.458
-108.005	-200.000	0.006	-0.073
-106.991	-50.953	0.158	-0.074
-105.976	-142.003	0.145	0.014
-104.962	-92.753	-0.195	-0.054
-103.947	-29.047	-0.083	0.047
-102.932	-26.200	0.230	-0.134
-101.918	104.706	-0.046	-0.053
-100.903	484.506	0.041	-0.092
-99.889	-25.740	0.116	-0.068
-98.874	34.297	-0.284	-0.246
-97.859	315.257	0.138	-0.258
-96.845	430.951	0.180	0.386
-95.830	274.431	-0.259	0.455
-94.816	151.204	-0.056	-0.075
-93.801	-200.000	0.038	0.208
-92.786	686.202	0.120	-0.312
-91.772	-139.589	-0.265	0.028
-90.757	119.517	0.166	0.203
-89.743	94.502	0.154	0.174
-88.728	-145.359	0.059	-0.005
-87.713	-7.944	0.235	0.157
-86.699	-94.826	0.082	0.022
-85.684	-200.000	0.064	-0.286
-84.670	-193.897	0.388	-0.003
-83.655	-103.775	-0.180	-0.042
-82.640	-20.883	0.203	0.123
-81.626	-111.295	0.148	-0.030
-80.611	-200.000	-0.037	0.507
-79.597	321.116	-0.194	0.366
-78.582	7.415	0.110	0.081
-77.567	-41.605	0.254	0.129
-76.553	-74.621	0.187	-0.067
-75.538	-200.000	-0.005	0.131
-74.524	800.000	0.069	-0.207
-73.509	-111.166	0.137	0.028
-72.494	800.000	-0.060	0.186
-71.480	158.270	0.142	0.196
-70.465	-91.091	-0.040	0.011
-69.451	-46.194	-0.191	-0.093
-68.436	-43.172	-0.242	0.121
-67.422	800.000	0.065	-0.192
-66.407	491.043	-0.110	-0.249
-65.392	-73.904	-0.108	0.039
-64.378	-96.254	0.239	0.063
-63.363	-160.158	0.299	-0.016
-62.349	457.283	0.254	0.559
-61.334	50.470	-0.889	-0.832
-60.319	-51.447	0.395	0.183
-59.305	744.381	-0.340	-0.906
-58.290	729.324	0.450	1.191
-57.276	272.874	0.886	1.549
-56.261	-200.000	95.583	558.220
-55.246	630.195	1382.541	3464.313
-54.232	187.920	2593.656	3837.032
-53.217	121.049	2184.397	2692.206
-52.203	46.232	1636.771	1502.042
-51.188	37.974	1371.526	1207.732
-50.173	34.666	1328.822	1150.196
-49.159	55.644	1376.828	1320.798
-48.144	59.865	1394.937	1363.962
-47.130	38.390	1349.818	1190.961
-46.115	34.687	1331.764	1152.692
-45.100	34.443	1327.111	1147.148
-44.086	34.357	1324.878	1144.656
-43.071	34.398	1322.789	1143.052
-42.057	34.391	1320.542	1141.022
-41.042	34.435	1318.404	1139.395
-40.027	34.422	1317.157	1138.190
-39.013	34.454	1314.960	1136.441
-37.998	34.453	1313.132	1134.808
-36.984	34.617	1311.088	1133.972
-35.969	34.663	1309.456	1132.787
-34.954	34.600	1307.860	1130.990
-33.940	34.561	1306.527	1129.560
-32.925	34.711	1305.496	1129.514
-31.911	34.662	1303.942	1127.833
-30.896	34.676	1302.325	1126.470
-29.881	34.704	1301.078	1125.511
-28.867	34.748	1299.517	1124.379
-27.852	34.611	1298.203	1122.390
-26.838	34.657	1296.772	1121.378
-25.823	34.605	1295.519	1119.945
-24.809	34.656	1293.930	1118.828
-23.794	34.666	1292.294	1117.426
-22.779	34.667	1291.321	1116.544
-21.765	34.600	1290.061	1115.020
-20.750	34.536	1288.800	1113.513
-19.736	34.617	1287.609	1112.914
-18.721	34.410	1286.327	1110.552
-17.706	34.498	1285.063	1109.933
-16.692	34.539	1283.543	1108.810
-15.677	34.464	1282.537	1107.467
-14.663	34.500	1281.303	1106.565
-13.648	34.567	1280.476	1106.193
-12.633	34.537	1279.522	1105.154
-11.619	34.465	1278.815	1104.080
-10.604	34.542	1277.520	1103.364
-9.590	34.512	1276.908	1102.619
-8.575	34.522	1275.532	1101.443
-7.560	34.427	1275.136	1100.510
-6.546	34.445	1274.224	1099.783
-5.531	34.457	1273.653	1099.315
-4.517	34.536	1272.498	1098.729
-3.502	34.486	1271.610	1097.635
-2.487	34.459	1270.726	1096.670
-1.473	34.618	1266.190	1093.623
-0.458	33.583	1251.800	1075.285
0.556	29.135	1233.950	1038.338
1.571	25.426	1238.293	1020.871
2.586	24.260	1253.686	1026.756
3.600	23.529	1242.510	1013.341
4.615	18.177	1169.285	924.684
5.629	9.450	1092.304	819.468
6.644	5.321	1071.117	782.852
7.659	5.084	1068.163	779.440
8.673	4.867	1067.629	777.899
9.688	4.880	1066.096	776.778
10.702	5.193	1064.566	777.155
11.717	10.462	1072.088	808.929
12.731	17.704	1082.744	853.272
13.746	19.503	1083.440	862.746
14.761	18.058	1080.936	853.466
15.775	16.903	1079.027	846.122
16.790	15.803	1076.925	838.915
17.804	15.083	1075.510	834.155
18.819	14.723	1074.371	831.402
19.834	14.438	1073.132	828.953
20.848	14.118	1072.315	826.662
21.863	14.058	1071.400	825.582
22.877	13.895	1070.369	823.909
23.892	14.038	1069.848	824.141
24.907	13.882	1069.228	822.819
25.921	13.814	1068.378	821.753
26.936	13.890	1066.940	820.953
27.950	13.990	1065.499	820.266
28.965	13.933	1063.986	818.745
29.980	13.982	1062.410	817.701
30.994	14.049	1061.426	817.203
32.009	14.140	1060.712	817.026
33.023	14.071	1059.189	815.446
34.038	14.075	1058.113	814.560
35.053	14.084	1057.027	813.697
36.067	14.025	1056.411	812.863
37.082	14.087	1055.557	812.439
38.096	14.143	1054.807	812.064
39.111	14.114	1053.835	811.099
40.126	14.053	1052.237	809.502
41.140	13.879	1051.374	807.918
42.155	13.755	1050.522	806.591
43.169	13.821	1049.278	805.883
44.184	13.824	1047.938	804.799
45.199	13.804	1047.115	803.996
46.213	13.926	1046.055	803.704
47.228	14.013	1045.044	803.275
48.242	13.916	1044.037	801.963
49.257	13.966	1043.435	801.668
50.271	14.099	1042.265	801.341
51.286	14.045	1041.186	800.179
52.301	13.984	1040.434	799.241
53.315	13.983	1039.236	798.244
54.330	14.006	1037.972	797.312
55.344	13.903	1037.458	796.354
56.359	13.913	1036.207	795.372
57.374	13.776	1035.914	794.421
58.388	13.810	1034.749	793.619
59.403	13.710	1034.035	792.521
60.417	13.839	1033.097	792.351
61.432	13.838	1031.958	791.402
62.447	13.744	1031.676	790.667
63.461	13.649	1030.646	789.356
64.476	13.591	1030.129	788.611
65.490	13.696	1029.107	788.262
66.505	13.824	1027.955	787.914
67.520	13.777	1027.267	787.097
68.534	13.729	1026.885	786.505
69.549	13.767	1025.816	785.799
70.563	13.695	1025.035	784.790
71.578	13.626	1024.504	783.988
72.593	13.771	1023.244	783.638
73.607	13.683	1023.081	783.029
74.622	13.616	1022.317	782.057
75.636	13.699	1021.472	781.734
76.651	13.773	1020.873	781.553
77.666	13.742	1020.198	780.820
78.680	13.664	1019.387	779.763
79.695	13.764	1018.604	779.567
80.709	13.737	1018.421	779.229
81.724	13.766	1017.556	778.637
82.739	13.879	1016.654	778.406
83.753	13.982	1016.259	778.520
84.768	14.064	1015.179	778.005
85.782	14.156	1014.371	777.747
86.797	14.120	1013.438	776.795
87.812	14.093	1012.175	775.634
88.826	14.194	1011.393	775.438
89.841	14.044	1010.930	774.316
90.855	14.094	1009.810	773.621
91.870	14.067	1008.872	772.709
92.884	14.111	1008.132	772.276
93.899	14.180	1007.381	771.953
94.914	14.068	1006.826	770.941
95.928	14.209	1005.603	770.590
96.943	14.165	1004.709	769.635
97.957	14.016	1004.251	768.526
98.972	14.089	1002.984	767.823
99.987	14.087	1002.372	767.280
101.001	14.018	1001.531	766.248
102.016	14.074	1000.076	765.324
103.030	14.141	999.510	765.134
104.045	14.065	998.554	763.985
105.060	13.995	997.993	763.164
106.074	13.911	997.175	762.087
107.089	13.911	995.776	760.952
108.103	13.908	994.709	760.054
109.118	13.807	994.269	759.188
110.133	13.849	993.532	758.751
111.147	13.836	992.813	758.074
112.162	13.804	992.100	757.317
113.176	13.934	990.951	756.967
114.191	13.954	990.312	756.503
115.206	13.948	989.445	755.745
116.220	13.920	988.765	755.033
117.235	13.996	987.692	754.492
118.249	13.929	987.036	753.619
119.264	14.007	986.451	753.461
120.279	13.929	985.552	752.354
121.293	13.817	984.719	751.141
122.308	13.832	983.976	750.576
123.322	13.795	982.820	749.460
124.337	13.754	982.121	748.678
125.352	13.875	980.604	748.001
126.366	13.785	979.760	746.888
127.381	13.996	978.354	746.698
128.395	13.891	977.888	745.802
129.410	13.817	977.326	744.976
130.424	13.927	976.045	744.428
131.439	13.990	975.373	744.131
132.454	14.015	974.765	743.715
133.468	14.047	973.914	743.141
134.483	14.029	973.027	742.318
135.497	13.977	972.482	741.604
136.512	14.108	971.353	741.264
137.527	14.043	970.722	740.427
138.541	13.977	969.764	739.334
139.556	14.025	969.133	739.002
140.570	14.167	968.333	738.956
141.585	14.289	967.339	738.675
142.600	14.327	966.602	738.215
143.614	14.218	966.001	737.207
144.629	14.389	964.937	737.088
145.643	14.312	964.078	736.025
146.658	14.074	963.256	734.282
147.673	14.189	962.152	733.881
148.687	14.085	961.707	733.021
149.702	14.170	960.399	732.332
150.716	14.030	959.611	731.052
151.731	14.114	959.443	731.228
152.746	14.060	958.702	730.361
153.760	14.139	957.403	729.651
154.775	14.234	957.214	729.860
155.789	14.235	956.771	729.463
156.804	14.334	955.782	729.080
157.819	14.209	955.523	728.269
158.833	14.310	955.006	728.254
159.848	14.536	953.705	728.182
160.862	14.293	952.906	726.447
161.877	14.323	951.545	725.476
162.892	14.120	950.573	723.789
163.906	14.172	949.632	723.234
164.921	14.168	949.141	722.780
165.935	14.187	947.920	721.866
166.950	14.071	947.341	720.859
167.964	14.394	945.854	721.064
168.979	14.189	945.408	719.771
169.994	14.351	944.637	719.823
171.008	14.247	943.693	718.590
172.023	14.252	943.583	718.464
173.037	14.391	943.075	718.612
174.052	14.367	941.990	717.620
175.067	14.223	941.031	716.206
176.081	14.284	940.669	716.129
177.096	14.203	939.994	715.202
178.110	14.316	939.287	715.088
179.125	14.310	938.676	714.534
180.140	14.342	938.705	714.627
181.154	14.210	938.423	713.787
182.169	14.532	937.497	714.397
183.183	14.487	936.682	713.522
184.198	14.626	935.625	713.247
185.213	14.402	935.286	711.968
186.227	14.583	934.799	712.306
187.242	14.654	933.998	711.936
188.256	14.733	933.057	711.491
189.271	14.490	932.126	709.687
190.286	14.453	931.670	709.118
191.300	14.262	931.085	707.798
192.315	14.218	930.440	707.057
193.329	14.279	929.873	706.824
194.344	14.319	929.717	706.814
195.359	14.427	928.148	706.014
196.373	14.583	927.665	706.245
197.388	14.606	927.685	706.293
198.402	14.770	927.009	706.412
199.417	14.898	926.004	706.122
200.432	14.801	925.837	705.525
201.446	14.822	925.295	705.139
202.461	14.857	924.558	704.663
203.475	14.822	924.080	704.087
204.490	14.978	922.614	703.565
205.504	14.598	922.677	701.953
206.519	14.836	921.485	701.982
207.534	14.724	921.012	701.090
208.548	14.791	920.293	700.761
209.563	14.841	919.415	700.239
210.577	14.737	919.291	699.650
211.592	14.922	918.575	699.816
212.607	15.029	917.563	699.428
213.621	14.994	917.199	698.943
214.636	14.950	916.052	697.825
215.650	14.989	915.589	697.575
216.665	14.977	915.271	697.220
217.680	14.837	914.969	696.345
218.694	15.025	913.770	696.152
219.709	14.985	913.338	695.593
220.723	14.942	912.828	694.965
221.738	14.969	911.932	694.335
222.753	15.214	910.991	694.574
223.767	15.040	910.761	693.612
224.782	15.299	909.655	693.784
225.796	15.195	909.556	693.217
226.811	15.129	908.917	692.393
227.826	14.982	908.069	691.080
228.840	15.076	907.488	690.964
229.855	15.123	906.873	690.628
230.869	15.119	905.794	689.728
231.884	15.065	905.031	688.865
232.899	14.967	904.758	688.193
233.913	14.912	903.982	687.317
234.928	15.067	903.093	687.216
235.942	15.067	902.487	686.694
236.957	15.112	901.754	686.260
237.972	15.060	901.240	685.596
238.986	15.138	900.392	685.210
240.001	15.032	900.176	684.551
241.015	15.021	899.540	683.960
242.030	15.220	898.710	684.083
243.045	15.185	898.145	683.450
244.059	15.250	897.452	683.125
245.074	15.202	897.208	682.685
246.088	15.220	896.607	682.241
247.103	15.116	896.462	681.644
248.117	15.390	895.176	681.722
249.132	15.473	895.096	681.935
250.147	15.595	894.020	681.553
251.161	15.613	893.309	681.024
252.176	15.683	892.627	680.727
253.190	15.566	892.526	680.114
254.205	15.666	891.331	679.548
255.220	15.626	891.229	679.248
256.234	15.825	890.106	679.137
257.249	15.749	889.325	678.175
258.263	15.764	888.769	677.748
259.278	15.712	887.897	676.815
260.293	15.789	887.422	676.704
261.307	15.894	886.677	676.497
262.322	15.809	886.470	675.937
263.336	15.838	885.741	675.439
264.351	15.783	884.803	674.441
265.366	15.938	884.166	674.521
266.380	15.915	883.657	673.977
267.395	15.849	883.099	673.230
268.409	15.873	882.131	672.528
269.424	15.958	881.052	671.984
270.439	15.888	880.820	671.470
271.453	15.867	880.223	670.869
272.468	15.816	879.842	670.316
273.482	15.847	878.950	669.704
274.497	15.747	878.644	669.013
275.512	16.002	877.626	669.191
276.526	15.764	877.731	668.266
277.541	15.930	877.280	668.523
278.555	16.064	876.305	668.253
279.570	15.972	875.956	667.564
280.585	16.011	874.893	666.848
281.599	16.018	874.366	666.415
282.614	15.903	873.680	665.378
283.628	16.001	872.912	665.119
284.643	15.927	872.443	664.414
285.657	15.919	871.931	663.931
286.672	15.950	871.215	663.451
287.687	15.937	870.885	663.090
288.701	16.023	869.901	662.619
289.716	16.086	869.416	662.438
290.730	16.060	869.052	662.002
291.745	16.241	867.913	661.784
292.760	16.216	867.615	661.400
293.774	16.279	867.056	661.164
294.789	16.190	866.458	660.300
295.803	16.015	865.554	658.871
296.818	16.244	864.835	659.157
297.833	16.141	864.152	658.176
298.847	16.158	863.610	657.774
299.862	16.072	863.374	657.199
300.876	16.302	862.476	657.355
301.891	16.247	862.121	656.811
302.906	16.385	861.275	656.645
303.920	16.430	860.896	656.471
304.935	16.441	860.525	656.175
305.949	16.423	859.742	655.447
306.964	16.393	859.254	654.902
307.979	16.390	858.859	654.532
308.993	16.612	857.911	654.608
310.008	16.667	857.029	654.090
311.022	16.526	857.185	653.608
312.037	16.351	856.481	652.339
313.052	16.340	855.832	651.743
314.066	16.210	855.733	651.108
315.081	16.399	854.964	651.195
316.095	16.432	853.936	650.482
317.110	16.337	853.327	649.593
318.125	16.493	852.667	649.632
319.139	16.342	852.809	649.104
320.154	16.488	851.964	648.963
321.168	16.380	851.687	648.280
322.183	16.612	850.863	648.486
323.197	16.421	850.722	647.587
324.212	16.520	849.647	647.092
325.227	16.438	849.260	646.425
326.241	16.490	848.796	646.213
327.256	16.536	848.125	645.823
328.270	16.568	847.279	645.245
329.285	16.670	846.693	645.128
330.300	16.634	846.148	644.517
331.314	16.505	845.814	643.716
332.329	16.570	845.557	643.710
333.343	16.548	845.023	643.163
334.358	16.740	844.362	643.335
335.373	16.699	843.993	642.838
336.387	16.686	843.765	642.559
337.402	16.704	843.508	642.374
338.416	16.840	843.218	642.614
339.431	16.857	842.966	642.429
340.446	16.941	842.073	642.010
341.460	16.815	842.333	641.675
342.475	16.952	841.532	641.525
343.489	17.023	840.845	641.213
344.504	17.011	840.351	640.733
345.519	17.094	839.863	640.619
346.533	17.032	839.532	640.075
347.548	16.830	839.504	639.236
348.562	16.891	838.621	638.737
349.577	16.906	837.790	638.106
350.592	16.790	837.157	637.128
351.606	16.914	836.454	637.003
352.621	16.843	835.745	636.141
353.635	16.945	835.395	636.199
354.650	16.964	834.663	635.657
355.665	17.102	833.999	635.612
356.679	17.114	833.214	635.005
357.694	17.047	832.883	634.444
358.708	16.961	832.506	633.778
359.723	16.996	831.900	633.393
360.738	17.073	831.062	632.986
361.752	17.191	830.529	632.964
362.767	17.146	830.108	632.419
363.781	17.235	829.455	632.195
364.796	17.476	828.951	632.652
365.810	17.416	828.565	632.080
366.825	17.486	828.207	632.009
367.840	17.287	827.868	630.957
368.854	17.333	827.509	630.798
369.869	17.181	827.345	630.053
370.883	17.442	826.345	630.202
371.898	17.402	826.560	630.164
372.913	17.398	825.900	629.590
373.927	17.425	825.123	629.043
374.942	17.324	824.688	628.280
375.956	17.457	824.214	628.355
376.971	17.652	823.784	628.691
377.986	17.642	823.255	628.197
379.000	17.669	823.093	628.114
380.015	17.701	822.435	627.677
381.029	17.637	821.629	626.770
382.044	17.725	820.973	626.536
383.059	17.691	820.387	625.908
384.073	17.547	820.030	625.052
385.088	17.558	819.226	624.427
386.102	17.440	818.905	623.694
387.117	17.589	818.648	623.988
388.132	17.491	818.076	623.138
389.146	17.619	817.143	622.842
390.161	17.621	817.118	622.772
391.175	17.657	816.516	622.391
392.190	17.518	816.228	621.610
393.205	17.532	815.508	621.057
394.219	17.604	815.181	621.014
395.234	17.617	814.668	620.617
396.248	17.517	813.989	619.681
397.263	17.538	813.862	619.606
398.278	17.569	813.236	619.186
399.292	17.673	812.804	619.181
400.307	17.552	812.454	618.422
401.321	17.593	812.101	618.244
402.336	17.761	811.247	618.150
403.350	17.680	811.066	617.663
404.365	17.815	810.440	617.622
405.380	17.837	810.048	617.347
406.394	17.878	809.744	617.208
407.409	17.854	809.157	616.621
408.423	18.077	808.654	616.988
409.438	17.952	808.683	616.504
410.453	17.922	808.130	615.919
411.467	17.972	807.568	615.615
412.482	18.068	807.332	615.728
413.496	18.065	807.082	615.471
414.511	18.240	806.188	615.364
415.526	18.169	805.708	614.688
416.540	18.024	805.726	614.126
417.555	18.099	805.257	613.986
418.569	18.079	804.685	613.423
419.584	18.071	804.086	612.884
420.599	18.129	804.301	613.199
421.613	152.718	1370.240	1789.631
422.628	132.425	1452.704	1789.723
