DTS Sentinel unit serial number:	SN413079Multiplexer serial number:	ORYXHardware model number:	OX4-SRSoftware version number:	ORYX F/W v4.00 Oryx Data Collector v3.7.2.0data status	okinstallation	princeton_trtdifferential loss correction	single-endedforward channel	channel 1reverse channel	N/Adate	2019/09/12time	20:03:34forward acquisition time	15.00reverse acquisition time	0.00gamma	496.2192k internal	0.2324k external	0.2324temperature offset calibration	1.0133default loss term (dB/km)	0.3790temperature slope calibration	1.0000multiplexer offset coefficient	1.0000multiplexer slope coefficient	1.0000fibre end	0.00T internal ref (°C)	31.69T ext. ref 1 (°C)	3.44T ext. ref 2 (°C)	26.39length (m)	temperature (°C)	Stokes	anti-Stokes-747.200	-116.401	-0.310	0.058
-746.185	-29.508	-0.439	-0.254
-745.171	106.395	0.891	1.066
-744.156	-41.658	-0.578	0.300
-743.142	248.313	0.277	-0.473
-742.127	-200.000	0.012	0.360
-741.112	-157.954	-0.456	0.027
-740.098	-49.703	-0.386	-0.185
-739.083	48.062	1.065	-1.005
-738.069	-2.187	0.685	0.486
-737.054	157.402	0.440	0.615
-736.039	-9.931	0.377	-0.253
-735.025	28.215	-0.141	-0.120
-734.010	-139.934	-1.097	0.117
-732.996	21.512	-0.964	0.791
-731.981	-103.208	-1.011	0.241
-730.966	226.134	-0.411	0.673
-729.952	37.754	-0.423	0.380
-728.937	85.486	-0.700	-0.775
-727.923	88.438	-0.571	-0.640
-726.908	800.000	-0.111	-0.464
-725.894	605.850	-0.284	-0.714
-724.879	-116.377	-0.593	-0.111
-723.864	-200.000	-0.046	-0.319
-722.850	-127.662	-0.164	-0.024
-721.835	-106.187	0.793	0.179
-720.821	-200.000	0.035	0.232
-719.806	-0.509	0.440	0.315
-718.791	304.132	-0.278	-0.520
-717.777	24.808	0.175	0.146
-716.762	338.562	0.086	-0.169
-715.748	645.274	-0.114	-0.293
-714.733	270.511	0.206	0.366
-713.718	-50.497	0.451	0.214
-712.704	-198.363	0.840	-0.005
-711.689	87.125	0.866	0.965
-710.675	-200.000	-0.016	0.416
-709.660	-200.000	-0.003	-0.087
-708.645	543.010	-0.098	0.236
-707.631	-30.864	-1.368	0.780
-706.616	-130.700	0.283	0.038
-705.602	800.000	0.110	0.320
-704.587	-51.931	-0.374	0.175
-703.572	-64.517	-0.213	-0.087
-702.558	-31.385	-0.308	-0.174
-701.543	670.303	-0.161	0.421
-700.529	54.330	0.262	-0.254
-699.514	7.416	-0.507	-0.382
-698.499	-26.785	0.681	0.402
-697.485	-0.266	0.347	-0.249
-696.470	56.917	0.359	-0.352
-695.456	34.807	0.409	0.361
-694.441	-72.033	-0.923	-0.345
-693.426	-108.166	-1.152	-0.251
-692.412	86.933	-0.467	-0.520
-691.397	-54.337	-0.640	-0.293
-690.383	-56.572	-0.828	-0.370
-689.368	-200.000	0.011	0.097
-688.354	5.431	-0.267	-0.198
-687.339	-63.872	-0.427	-0.176
-686.324	-200.000	-0.006	-0.716
-685.310	800.000	0.012	-0.046
-684.295	-200.000	-0.126	0.756
-683.281	800.000	0.084	-0.306
-682.266	397.633	-0.219	0.461
-681.251	30.379	-0.072	0.062
-680.237	83.545	0.340	-0.373
-679.222	490.672	-0.162	-0.374
-678.208	184.202	0.194	-0.289
-677.193	-71.490	-0.315	-0.119
-676.178	-15.422	-0.877	0.564
-675.164	80.058	-0.150	-0.162
-674.149	-96.291	0.380	-0.101
-673.135	337.823	0.309	0.606
-672.120	800.000	0.277	-0.865
-671.105	-170.745	-0.437	-0.015
-670.091	52.460	-0.287	-0.275
-669.076	169.224	0.197	-0.283
-668.062	-200.000	-0.062	-0.315
-667.047	-50.987	0.512	0.242
-666.032	-200.000	0.014	0.326
-665.018	-200.000	-0.036	-0.234
-664.003	-158.927	-0.188	-0.011
-662.989	624.626	-0.127	0.322
-661.974	-142.355	0.180	-0.018
-660.959	-50.321	0.391	-0.186
-659.945	-200.000	0.153	0.708
-658.930	-23.081	-0.584	0.354
-657.916	306.382	0.309	0.579
-656.901	119.447	-0.111	-0.139
-655.886	599.109	0.071	-0.177
-654.872	186.158	-0.417	0.624
-653.857	184.778	0.559	-0.834
-652.843	66.728	0.217	-0.222
-651.828	731.501	0.183	-0.493
-650.814	158.861	-0.192	0.269
-649.799	323.012	-0.211	-0.405
-648.784	-35.210	-1.253	0.686
-647.770	87.114	0.294	0.327
-646.755	-189.449	0.818	0.010
-645.741	125.055	0.037	-0.047
-644.726	-185.064	0.163	0.003
-643.711	54.758	-0.406	-0.394
-642.697	21.435	0.190	-0.155
-641.682	504.170	-0.407	0.947
-640.668	-10.229	-0.922	-0.616
-639.653	350.422	-0.120	0.238
-638.638	-200.000	-0.094	1.051
-637.624	92.384	-0.476	-0.540
-636.609	-43.928	1.208	0.611
-635.595	800.000	-0.104	-0.363
-634.580	-75.591	-1.024	-0.366
-633.565	-49.227	0.089	0.043
-632.551	594.903	-0.427	-1.061
-631.536	-15.600	0.680	-0.436
-630.522	-200.000	0.036	0.197
-629.507	-161.150	-0.909	0.048
-628.492	800.000	-0.099	-0.321
-627.478	-125.631	-0.788	0.120
-626.463	129.258	-0.870	1.117
-625.449	-98.357	0.839	-0.216
-624.434	-162.130	-0.766	0.039
-623.419	95.137	-0.340	-0.389
-622.405	-155.234	0.140	0.009
-621.390	-59.310	0.134	0.058
-620.376	-172.154	-0.221	-0.007
-619.361	18.207	-0.251	-0.201
-618.346	-30.228	-0.610	-0.348
-617.332	-36.859	-0.345	-0.186
-616.317	-190.315	-0.901	-0.010
-615.303	-200.000	-0.019	0.978
-614.288	-200.000	0.009	0.281
-613.273	77.107	-0.586	0.625
-612.259	-43.955	-0.235	0.119
-611.244	-113.745	-0.907	-0.178
-610.230	-26.428	0.309	0.182
-609.215	-18.859	-0.416	0.260
-608.201	168.433	-0.508	0.727
-607.186	-126.398	0.595	0.089
-606.171	-20.447	-0.411	-0.254
-605.157	-200.000	-0.089	-0.479
-604.142	96.910	0.085	-0.098
-603.128	-83.088	-0.383	-0.124
-602.113	687.659	0.115	0.301
-601.098	136.277	-0.614	0.803
-600.084	157.619	0.593	-0.825
-599.069	141.977	0.254	-0.339
-598.055	-153.852	0.138	-0.009
-597.040	-112.012	0.184	-0.037
-596.025	-52.957	-0.434	0.200
-595.011	245.207	0.062	-0.105
-593.996	-97.966	-0.226	-0.058
-592.982	-47.143	0.165	0.081
-591.967	-42.088	-0.542	0.278
-590.952	84.448	-0.285	-0.313
-589.938	715.284	0.247	-0.657
-588.923	-200.000	0.015	0.346
-587.909	-200.000	-0.003	-0.358
-586.894	-130.746	-1.190	-0.160
-585.879	700.339	0.269	0.710
-584.865	-200.000	-0.006	-0.291
-583.850	-124.020	0.632	0.100
-582.836	403.903	-0.355	0.750
-581.821	200.509	0.237	0.366
-580.806	9.031	0.464	0.352
-579.792	-6.869	0.265	-0.181
-578.777	-200.000	-0.002	0.155
-577.763	18.140	-0.841	0.673
-576.748	-200.000	-0.032	0.714
-575.733	-70.666	-0.347	0.132
-574.719	-136.675	0.454	0.053
-573.704	800.000	0.104	-0.423
-572.690	38.181	-0.213	0.190
-571.675	-127.863	-0.489	0.071
-570.661	-200.000	-0.089	-0.537
-569.646	444.180	-0.083	0.183
-568.631	353.130	-0.228	0.454
-567.617	-138.118	0.648	0.072
-566.602	-200.000	-0.055	-0.263
-565.588	282.738	-0.271	-0.487
-564.573	-25.695	-0.080	-0.047
-563.558	-106.607	0.031	0.007
-562.544	11.926	-0.771	-0.594
-561.529	-102.631	-0.714	0.171
-560.515	589.064	-0.181	-0.448
-559.500	-137.888	-0.097	0.011
-558.485	633.435	-0.059	-0.150
-557.471	374.473	-0.182	0.371
-556.456	-19.638	-0.452	0.280
-555.442	-200.000	0.057	-0.332
-554.427	622.715	0.202	0.509
-553.412	-200.000	0.017	0.241
-552.398	-160.173	0.274	0.015
-551.383	-140.538	0.685	0.071
-550.369	-111.849	-0.208	0.042
-549.354	-138.747	0.578	-0.063
-548.339	99.732	0.316	0.367
-547.325	-200.000	-0.063	-0.498
-546.310	-45.663	-0.521	0.258
-545.296	-92.762	-0.712	-0.200
-544.281	162.826	-0.303	-0.425
-543.266	6.874	0.547	-0.408
-542.252	800.000	0.265	0.858
-541.237	800.000	-0.047	0.184
-540.223	-200.000	-0.001	-0.934
-539.208	800.000	0.137	-0.512
-538.193	-200.000	-0.013	0.307
-537.179	-115.536	0.225	-0.042
-536.164	-119.622	-0.500	-0.087
-535.150	-109.080	0.291	-0.062
-534.135	-149.034	-0.413	-0.033
-533.121	545.226	0.397	-0.949
-532.106	-81.002	-0.327	0.108
-531.091	31.100	-0.529	-0.454
-530.077	-107.257	0.869	0.191
-529.062	-200.000	0.002	0.393
-528.048	-89.395	0.474	0.140
-527.033	-200.000	0.002	0.059
-526.018	-12.514	0.807	0.528
-525.004	-156.234	-0.568	0.036
-523.989	104.590	-0.057	0.068
-522.975	800.000	0.166	-0.487
-521.960	-200.000	0.124	0.614
-520.945	-132.798	0.191	0.024
-519.931	241.175	0.364	0.609
-518.916	12.766	0.558	0.431
-517.902	-200.000	0.027	0.290
-516.887	485.897	0.301	-0.687
-515.872	224.915	0.283	-0.458
-514.858	-124.092	-0.434	0.068
-513.843	800.000	-0.208	-0.765
-512.829	170.931	-0.174	-0.249
-511.814	-179.432	-0.440	-0.010
-510.799	14.953	-0.474	-0.371
-509.785	48.383	0.205	-0.192
-508.770	-40.014	-0.067	-0.035
-507.756	-3.360	0.146	0.101
-506.741	-200.000	0.266	1.200
-505.726	-149.939	0.350	-0.027
-504.712	25.647	0.670	0.558
-503.697	75.810	0.255	-0.270
-502.683	-151.937	-0.959	-0.070
-501.668	303.912	-0.231	0.428
-500.653	-43.032	0.576	-0.292
-499.639	-11.612	0.412	-0.271
-498.624	-0.794	-0.412	0.292
-497.610	41.875	0.353	0.320
-496.595	-200.000	-0.014	0.386
-495.581	293.684	-0.104	0.190
-494.566	-50.266	0.775	-0.366
-493.551	-76.242	0.890	-0.314
-492.537	-200.000	0.099	0.435
-491.522	167.119	0.204	0.289
-490.508	800.000	-0.081	-0.332
-489.493	44.682	0.364	0.335
-488.478	-149.364	0.008	-0.001
-487.464	-58.221	-0.484	0.211
-486.449	110.250	0.533	-0.640
-485.435	-72.245	-0.682	-0.252
-484.420	800.000	-0.161	-0.703
-483.405	-138.218	0.541	0.060
-482.391	-49.585	-0.491	-0.233
-481.376	-56.662	-0.835	0.370
-480.362	-200.000	0.011	0.420
-479.347	-99.664	0.565	0.142
-478.332	25.587	0.311	-0.259
-477.318	-114.179	-0.537	-0.104
-476.303	-48.246	0.248	-0.119
-475.289	271.480	-0.210	0.369
-474.274	772.390	0.158	0.429
-473.259	-127.009	-0.132	0.019
-472.245	378.627	-0.073	0.149
-471.230	-80.277	0.470	0.157
-470.216	-200.000	-0.255	1.241
-469.201	-171.976	-0.855	-0.028
-468.186	-93.236	-0.219	0.061
-467.172	-165.313	0.598	0.026
-466.157	412.001	-0.288	0.610
-465.143	-146.424	-0.532	0.046
-464.128	-200.000	0.066	-0.459
-463.113	-48.023	1.155	-0.558
-462.099	-200.000	0.090	-0.455
-461.084	-112.199	-0.017	-0.003
-460.070	-161.791	1.140	-0.058
-459.055	19.733	0.524	-0.421
-458.040	-200.000	0.099	0.894
-457.026	493.304	-0.201	-0.459
-456.011	-133.677	0.488	0.061
-454.997	-78.823	-0.521	-0.177
-453.982	16.490	0.784	-0.618
-452.968	4.847	-0.447	0.328
-451.953	26.352	0.716	-0.597
-450.938	-42.946	0.150	0.076
-449.924	-90.740	-1.325	0.382
-448.909	216.982	0.186	0.295
-447.895	-84.046	0.802	-0.254
-446.880	-58.984	-0.714	0.308
-445.865	139.903	0.188	0.247
-444.851	-200.000	-0.086	-0.871
-443.836	-33.030	-0.442	-0.245
-442.822	-157.439	0.434	0.026
-441.807	-31.039	0.525	-0.295
-440.792	-137.582	-0.624	0.070
-439.778	-200.000	-0.094	-0.755
-438.763	405.042	-0.065	0.137
-437.749	70.174	-0.519	0.535
-436.734	-46.779	0.694	0.339
-435.719	800.000	0.163	-0.475
-434.705	-200.000	0.646	-0.002
-433.690	79.233	0.377	0.403
-432.676	-77.926	0.466	-0.160
-431.661	-170.511	0.922	-0.032
-430.646	-200.000	-0.015	0.211
-429.632	-56.390	-0.365	-0.162
-428.617	357.511	-0.208	0.414
-427.603	-200.000	-0.111	0.816
-426.588	6.944	-0.355	0.264
-425.573	-10.764	0.431	-0.284
-424.559	-181.307	0.393	0.008
-423.544	96.950	-0.630	-0.720
-422.530	-30.274	0.352	-0.199
-421.515	423.095	-0.308	-0.660
-420.500	800.000	-0.145	0.583
-419.486	-73.323	-0.667	-0.243
-418.471	-55.178	-0.426	0.191
-417.457	34.928	0.373	0.326
-416.442	-117.609	0.963	-0.173
-415.428	-200.000	-0.023	0.316
-414.413	718.163	0.314	-0.832
-413.398	-42.487	-0.730	0.371
-412.384	-200.000	0.017	-0.722
-411.369	260.392	-0.118	0.203
-410.355	-107.019	0.490	0.108
-409.340	800.000	0.079	0.245
-408.325	-78.549	0.549	-0.187
-407.311	-200.000	0.030	-0.863
-406.296	-200.000	-0.129	-0.850
-405.282	-200.000	0.059	-0.486
-404.267	206.862	0.383	-0.594
-403.252	800.000	-0.356	-1.074
-402.238	36.901	0.665	0.586
-401.223	609.077	0.297	-0.738
-400.209	65.106	-0.095	-0.096
-399.194	-79.051	1.222	-0.414
-398.179	-43.483	1.104	-0.555
-397.165	-91.068	0.448	0.128
-396.150	499.353	0.162	-0.372
-395.136	-41.165	-0.305	0.157
-394.121	-126.230	-0.349	0.052
-393.106	800.000	0.071	0.282
-392.092	96.399	-0.130	-0.148
-391.077	-39.954	0.151	-0.078
-390.063	-93.100	0.839	-0.233
-389.048	-200.000	-0.001	0.260
-388.033	800.000	0.163	0.552
-387.019	118.192	-0.116	0.142
-386.004	-200.000	-0.016	0.095
-384.990	221.420	0.128	-0.204
-383.975	18.459	-0.651	-0.518
-382.960	800.000	0.158	0.500
-381.946	-64.460	-0.418	-0.169
-380.931	133.714	0.174	0.224
-379.917	800.000	0.099	-0.333
-378.902	-2.045	-0.645	0.451
-377.888	-4.043	-0.215	0.148
-376.873	-200.000	0.107	0.652
-375.858	42.968	-0.565	-0.512
-374.844	-146.782	0.400	-0.034
-373.829	300.975	-0.213	-0.392
-372.815	-31.985	-1.145	0.638
-371.800	133.265	-0.377	-0.485
-370.785	-6.301	0.886	-0.601
-369.771	61.351	0.420	0.415
-368.756	-19.487	0.893	-0.551
-367.742	481.670	0.216	-0.488
-366.727	800.000	0.298	-0.831
-365.712	382.714	-0.209	0.428
-364.698	564.670	-0.054	0.130
-363.683	109.990	-0.466	-0.556
-362.669	269.242	-0.317	0.553
-361.654	-30.469	0.238	-0.134
-360.639	84.339	-0.544	-0.592
-359.625	-110.600	-0.489	-0.101
-358.610	218.694	-0.389	-0.618
-357.596	-168.069	0.791	-0.031
-356.581	-98.189	0.578	-0.148
-355.566	-163.250	-0.750	0.036
-354.552	800.000	0.044	0.127
-353.537	-194.897	-0.702	0.005
-352.523	-108.297	0.472	0.101
-351.508	143.788	0.557	0.738
-350.493	800.000	0.174	-0.663
-349.479	78.101	0.144	0.153
-348.464	-200.000	-0.147	0.807
-347.450	440.468	0.335	0.728
-346.435	-200.000	-0.023	0.374
-345.420	-120.159	-0.369	0.063
-344.406	1.822	0.932	0.668
-343.391	-48.217	-1.017	-0.488
-342.377	588.050	0.312	-0.764
-341.362	-160.454	-0.638	-0.034
-340.348	258.850	0.193	-0.331
-339.333	-105.871	0.109	-0.025
-338.318	171.401	-0.189	0.269
-337.304	161.919	0.450	0.627
-336.289	-200.000	0.045	0.358
-335.275	467.093	0.227	-0.506
-334.260	28.981	0.434	0.366
-333.245	-200.000	-0.036	0.769
-332.231	-141.217	-0.265	0.027
-331.216	-106.980	0.957	0.210
-330.202	-141.480	-0.791	-0.079
-329.187	-12.210	0.173	0.112
-328.172	420.421	0.356	0.758
-327.158	-90.858	0.646	0.185
-326.143	-152.072	-0.551	-0.040
-325.129	210.848	0.634	-0.990
-324.114	327.136	0.096	-0.183
-323.099	-75.844	0.415	0.146
-322.085	-37.184	-0.312	0.166
-321.070	162.972	-0.254	-0.354
-320.056	139.820	-0.335	-0.438
-319.041	-130.859	-0.439	0.058
-318.026	298.746	0.234	-0.428
-317.012	800.000	-0.146	-0.410
-315.997	-6.112	0.646	-0.438
-314.983	12.163	0.222	0.170
-313.968	-200.000	-0.020	0.612
-312.953	208.136	0.257	-0.399
-311.939	756.129	0.129	-0.347
-310.924	78.948	-0.203	-0.215
-309.910	365.672	0.063	-0.125
-308.895	-10.093	0.569	0.375
-307.880	599.586	0.162	-0.399
-306.866	-18.156	0.395	0.245
-305.851	-17.462	-0.328	0.205
-304.837	800.000	-0.094	-0.376
-303.822	698.787	0.150	-0.391
-302.807	-162.796	-1.019	-0.049
-301.793	-29.652	0.507	0.287
-300.778	97.658	-0.251	-0.286
-299.764	-142.970	-0.344	0.033
-298.749	-130.600	-0.148	-0.020
-297.735	-200.000	0.116	-0.823
-296.720	11.993	-0.091	-0.069
-295.705	219.903	0.348	-0.553
-294.691	-136.478	0.819	-0.094
-293.676	-137.197	-0.202	0.023
-292.662	-87.350	0.208	0.063
-291.647	-200.000	0.007	-0.342
-290.632	-91.679	0.502	-0.142
-289.618	800.000	-0.095	-0.309
-288.603	315.795	0.461	-0.863
-287.589	-77.203	0.497	0.172
-286.574	800.000	0.107	0.437
-285.559	141.343	0.352	-0.462
-284.545	34.610	-0.158	-0.137
-283.530	-200.000	-0.027	0.532
-282.516	-200.000	0.208	0.918
-281.501	161.513	-0.675	0.936
-280.486	240.978	0.193	-0.319
-279.472	517.122	0.061	0.142
-278.457	17.403	0.835	-0.657
-277.443	161.471	0.148	-0.206
-276.428	-200.000	-0.107	-0.690
-275.413	800.000	0.394	-1.272
-274.399	37.922	0.616	-0.543
-273.384	-26.990	-0.839	0.485
-272.370	800.000	-0.272	0.819
-271.355	16.010	-0.376	0.293
-270.340	-200.000	-0.031	-0.201
-269.326	104.926	-0.210	-0.246
-268.311	800.000	-0.244	-0.725
-267.297	-8.519	-0.827	0.551
-266.282	-46.639	-0.537	-0.261
-265.267	16.576	0.908	0.711
-264.253	-200.000	-0.009	-0.154
-263.238	477.192	0.166	-0.372
-262.224	-114.652	0.526	0.100
-261.209	13.843	-0.297	-0.229
-260.195	-67.178	-0.443	0.173
-259.180	800.000	0.148	-0.474
-258.165	-104.794	0.649	0.148
-257.151	-200.000	-0.036	0.552
-256.136	69.229	0.062	0.063
-255.122	-75.799	0.765	0.268
-254.107	-124.499	-0.186	0.029
-253.092	-57.848	0.522	0.226
-252.078	-200.000	0.019	-0.885
-251.063	-177.070	0.837	0.021
-250.049	100.118	0.302	-0.346
-249.034	2.551	-0.236	0.170
-248.019	27.516	0.382	0.318
-247.005	177.002	-0.241	-0.348
-245.990	-92.989	-0.167	0.046
-244.976	-25.885	-0.206	0.120
-243.961	-45.118	0.501	0.247
-242.946	784.848	-0.197	0.535
-241.932	138.353	-0.332	0.432
-240.917	242.552	-0.239	-0.396
-239.903	65.059	-0.474	0.474
-238.888	653.208	0.121	0.307
-237.873	48.957	-0.411	0.382
-236.859	227.793	0.069	0.112
-235.844	-25.533	0.398	-0.233
-234.830	-137.182	0.544	0.061
-233.815	-9.697	-0.946	0.624
-232.800	77.972	0.552	0.583
-231.786	-13.583	-0.128	0.082
-230.771	800.000	0.117	0.441
-229.757	800.000	-0.090	0.274
-228.742	-136.448	-0.526	-0.060
-227.727	96.131	-0.348	-0.394
-226.713	-108.821	-0.775	-0.164
-225.698	109.386	-0.273	0.324
-224.684	29.390	-0.216	-0.181
-223.669	13.435	-0.519	0.398
-222.655	335.289	0.169	-0.324
-221.640	175.091	0.099	0.141
-220.625	-200.000	0.040	-0.175
-219.611	46.678	-0.150	0.138
-218.596	-75.294	-0.283	0.100
-217.582	-200.000	0.015	0.253
-216.567	-200.000	-0.108	0.547
-215.552	-14.812	0.170	0.108
-214.538	150.760	0.112	-0.150
-213.523	-126.321	-0.263	0.039
-212.509	-19.313	-0.885	-0.543
-211.494	793.430	0.184	-0.501
-210.479	-24.502	-0.419	-0.247
-209.465	30.332	0.422	0.357
-208.450	550.585	-0.630	1.495
-207.436	800.000	-0.120	-0.442
-206.421	-45.154	-0.390	-0.192
-205.406	-200.000	-0.064	-0.337
-204.392	-200.000	-0.027	-0.546
-203.377	-97.668	0.327	0.084
-202.363	90.891	-0.201	-0.223
-201.348	800.000	0.159	0.505
-200.333	-4.869	0.042	0.028
-199.319	-176.150	0.362	0.009
-198.304	-200.000	0.024	0.555
-197.290	-135.808	0.590	0.069
-196.275	299.598	-0.225	-0.409
-195.260	-200.000	0.032	0.627
-194.246	-152.892	0.557	-0.039
-193.231	541.168	0.097	0.228
-192.217	500.521	-0.142	-0.323
-191.202	-35.676	-0.676	-0.362
-190.187	800.000	-0.154	0.550
-189.173	-200.000	0.016	-0.203
-188.158	-189.699	-0.295	-0.003
-187.144	-11.886	1.072	0.695
-186.129	800.000	-0.268	0.837
-185.114	50.605	-0.252	-0.235
-184.100	-48.031	0.488	0.233
-183.085	-200.000	-0.079	0.671
-182.071	-174.093	0.545	0.016
-181.056	800.000	-0.258	-1.115
-180.042	-165.342	0.412	-0.018
-179.027	800.000	-0.195	0.592
-178.012	-130.277	-0.511	0.069
-176.998	639.036	-0.247	-0.620
-175.983	800.000	-0.072	-0.308
-174.969	-106.517	-0.049	-0.011
-173.954	-128.848	0.945	-0.131
-172.939	-35.383	-0.194	0.104
-171.925	800.000	0.140	0.407
-170.910	229.073	-0.312	-0.502
-169.896	6.595	0.702	-0.515
-168.881	192.904	0.224	-0.335
-167.866	-52.630	-0.846	0.386
-166.852	650.397	0.104	-0.264
-165.837	-11.919	-0.238	0.154
-164.823	800.000	0.164	-0.488
-163.808	-75.898	0.538	0.188
-162.793	-37.711	-0.244	-0.128
-161.779	8.747	0.318	0.237
-160.764	534.070	0.094	0.219
-159.750	-43.943	-0.335	0.166
-158.735	-2.653	-0.184	0.127
-157.720	-103.960	-0.215	0.050
-156.706	703.636	-0.301	0.782
-155.691	-200.000	0.023	-0.167
-154.677	-200.000	0.058	-0.256
-153.662	-133.197	0.660	0.082
-152.647	389.083	-0.579	1.183
-151.633	-125.384	-0.960	0.144
-150.618	258.845	-0.339	-0.577
-149.604	-21.519	-0.250	0.150
-148.589	-129.170	1.242	0.171
-147.574	-96.337	-0.381	-0.100
-146.560	317.834	0.338	-0.631
-145.545	-105.510	-0.449	-0.101
-144.531	-98.424	-0.505	-0.128
-143.516	-77.772	0.842	0.287
-142.502	177.591	0.028	0.041
-141.487	543.306	0.062	0.146
-140.472	10.332	0.371	-0.278
-139.458	62.631	0.450	-0.443
-138.443	268.236	-0.250	-0.431
-137.429	5.827	0.402	-0.293
-136.414	116.043	0.123	0.149
-135.399	-200.000	0.155	0.851
-134.385	354.992	0.347	-0.680
-133.370	-1.687	0.593	0.412
-132.356	-2.355	0.201	-0.139
-131.341	-35.873	-1.189	0.635
-130.326	82.863	-0.328	-0.352
-129.312	-162.580	0.152	0.007
-128.297	-96.509	0.186	-0.048
-127.283	-23.017	-0.552	0.328
-126.268	-62.328	0.736	0.302
-125.253	-200.000	-0.101	-0.937
-124.239	-136.757	0.877	-0.100
-123.224	-83.155	-0.351	0.111
-122.210	9.692	0.590	0.441
-121.195	-2.269	0.628	-0.434
-120.180	32.232	0.258	0.219
-119.166	-87.487	0.266	-0.079
-118.151	317.084	0.314	-0.584
-117.137	-200.000	-0.006	0.091
-116.122	141.875	0.306	0.399
-115.107	800.000	-0.375	-1.063
-114.093	-170.757	0.874	-0.030
-113.078	800.000	0.178	-0.573
-112.064	498.457	-0.180	0.407
-111.049	-39.243	-0.152	0.079
-110.034	800.000	-0.064	0.179
-109.020	-18.704	-0.273	0.168
-108.005	-112.693	0.066	0.013
-106.991	-186.460	0.206	-0.003
-105.976	-37.366	-0.241	-0.127
-104.962	-104.271	-0.443	-0.101
-103.947	-101.725	0.733	-0.175
-102.932	133.188	-0.429	-0.546
-101.918	274.293	-0.102	-0.178
-100.903	-141.200	0.767	-0.077
-99.889	52.253	-0.438	-0.411
-98.874	800.000	-0.205	-0.676
-97.859	-61.963	0.573	0.236
-96.845	800.000	-0.179	0.511
-95.830	-132.063	-0.375	0.048
-94.816	-120.978	0.594	-0.098
-93.801	697.122	-0.328	-0.847
-92.786	65.153	0.779	0.775
-91.772	337.748	0.173	0.331
-90.757	-139.602	-0.519	0.054
-89.743	-9.617	-0.332	-0.218
-88.728	245.256	0.360	0.596
-87.713	-51.516	-0.389	-0.179
-86.699	254.229	0.458	-0.771
-85.684	413.192	-0.051	0.107
-84.670	463.893	-0.318	-0.698
-83.655	172.491	0.122	-0.173
-82.640	-91.061	-0.449	-0.127
-81.626	-63.805	-0.359	-0.145
-80.611	-57.718	0.341	0.147
-79.597	-200.000	-0.055	0.605
-78.582	-75.896	-0.346	0.120
-77.567	789.576	-0.092	0.249
-76.553	-82.038	-0.206	-0.066
-75.538	-200.000	0.009	-0.618
-74.524	-129.293	-0.359	-0.049
-73.509	240.440	0.237	0.389
-72.494	-6.786	-0.363	0.242
-71.480	-200.000	0.141	-0.645
-70.465	570.213	-0.319	0.762
-69.451	40.049	-0.722	-0.638
-68.436	-200.000	0.025	0.177
-67.422	38.578	-0.304	0.266
-66.407	-87.985	-0.511	-0.151
-65.392	220.179	0.038	-0.060
-64.378	298.875	0.156	-0.281
-63.363	207.281	-0.062	-0.095
-62.349	800.000	-0.091	-0.326
-61.334	3.025	-1.414	-1.010
-60.319	23.305	1.156	0.934
-59.305	-63.339	-0.946	-0.383
-58.290	800.000	0.405	1.705
-57.276	189.228	1.178	1.735
-56.261	-200.000	98.820	603.777
-55.246	617.460	1376.628	3395.641
-54.232	200.832	2541.564	3841.441
-53.217	118.026	2118.073	2564.897
-52.203	43.759	1583.991	1424.813
-51.188	35.149	1323.922	1139.882
-50.173	32.140	1282.408	1086.717
-49.159	56.130	1333.621	1272.140
-48.144	56.758	1349.797	1291.215
-47.130	35.407	1306.228	1125.986
-46.115	32.232	1289.041	1092.701
-45.100	31.720	1284.097	1085.500
-44.086	31.521	1282.698	1083.123
-43.071	31.233	1280.166	1079.278
-42.057	31.621	1277.019	1078.817
-41.042	31.541	1276.081	1077.521
-40.027	31.816	1274.111	1077.398
-39.013	31.613	1273.261	1075.468
-37.998	31.746	1269.912	1073.359
-36.984	31.893	1269.010	1073.395
-35.969	31.471	1268.898	1070.841
-34.954	31.734	1266.013	1069.869
-33.940	32.010	1263.274	1069.080
-32.925	31.820	1263.155	1067.860
-31.911	31.798	1260.970	1065.843
-30.896	31.890	1259.815	1065.346
-29.881	31.683	1259.744	1064.069
-28.867	31.716	1257.827	1062.593
-27.852	32.142	1255.413	1062.923
-26.838	32.011	1253.618	1060.620
-25.823	31.885	1253.113	1059.438
-24.809	31.534	1252.528	1056.922
-23.794	31.620	1251.330	1056.353
-22.779	31.661	1250.299	1055.671
-21.765	31.776	1248.545	1054.798
-20.750	31.745	1246.087	1052.507
-19.736	31.302	1246.800	1050.573
-18.721	31.666	1244.205	1050.386
-17.706	31.538	1242.998	1048.609
-16.692	31.600	1242.660	1048.630
-15.677	31.774	1240.898	1048.074
-14.663	31.708	1239.773	1046.715
-13.648	31.612	1240.537	1046.785
-12.633	31.629	1238.564	1045.169
-11.619	31.316	1237.854	1042.784
-10.604	31.659	1236.456	1043.476
-9.590	31.682	1236.054	1043.225
-8.575	31.663	1234.298	1041.592
-7.560	31.576	1233.017	1039.989
-6.546	31.710	1232.030	1039.858
-5.531	31.408	1231.986	1038.106
-4.517	31.507	1231.138	1037.899
-3.502	31.620	1230.326	1037.797
-2.487	31.642	1228.760	1036.559
-1.473	31.607	1225.027	1033.175
-0.458	30.020	1210.462	1012.188
0.556	27.703	1192.882	973.552
1.571	23.879	1196.695	956.062
2.586	22.890	1212.311	963.062
3.600	22.348	1201.243	951.254
4.615	17.036	1130.220	867.845
5.629	7.868	1055.275	766.260
6.644	3.967	1034.838	732.910
7.659	3.434	1032.765	728.857
8.673	3.054	1032.731	726.970
9.688	3.308	1030.349	726.426
10.702	3.925	1028.397	727.890
11.717	9.314	1038.126	760.251
12.731	18.805	1050.027	814.087
13.746	23.361	1055.175	839.650
14.761	24.195	1055.368	843.678
15.775	23.805	1054.496	841.062
16.790	23.248	1053.293	837.393
17.804	22.901	1052.481	835.034
18.819	22.824	1051.792	834.049
19.834	23.082	1051.756	835.165
20.848	23.027	1051.242	834.427
21.863	22.724	1050.171	832.073
22.877	22.877	1049.517	832.203
23.892	22.852	1049.389	831.909
24.907	23.332	1046.997	832.196
25.921	22.497	1046.383	827.712
26.936	22.461	1045.571	826.828
27.950	22.427	1044.308	825.594
28.965	22.711	1043.445	826.168
29.980	22.602	1042.044	824.477
30.994	22.711	1040.406	823.619
32.009	22.726	1040.001	823.292
33.023	22.920	1039.149	823.450
34.038	22.842	1038.077	822.165
35.053	22.474	1037.725	820.102
36.067	22.556	1035.809	818.897
37.082	22.332	1035.715	817.708
38.096	22.674	1035.357	818.940
39.111	22.706	1034.651	818.459
40.126	22.903	1033.026	818.014
41.140	22.493	1031.519	814.852
42.155	22.165	1029.573	811.727
43.169	21.932	1028.490	809.728
44.184	21.940	1028.503	809.702
45.199	21.930	1027.659	808.920
46.213	22.259	1027.837	810.506
47.228	22.614	1027.305	811.649
48.242	23.225	1024.387	812.074
49.257	22.849	1024.259	810.177
50.271	22.893	1023.831	809.968
51.286	23.273	1022.276	810.406
52.301	22.990	1022.654	809.340
53.315	22.893	1021.709	808.074
54.330	22.812	1020.228	806.460
55.344	22.552	1019.243	804.427
56.359	22.429	1018.874	803.504
57.374	22.544	1017.720	803.046
58.388	22.415	1015.900	800.951
59.403	22.131	1015.669	799.405
60.417	22.280	1015.067	799.538
61.432	22.455	1013.414	798.961
62.447	22.167	1012.993	797.253
63.461	22.182	1013.192	797.407
64.476	21.994	1011.905	795.471
65.490	21.810	1010.571	793.517
66.505	22.227	1010.150	795.004
67.520	22.168	1010.526	794.962
68.534	22.200	1007.969	793.026
69.549	21.822	1007.434	790.831
70.563	21.549	1007.279	789.408
71.578	21.175	1007.632	787.926
72.593	21.353	1005.403	786.916
73.607	21.389	1004.931	786.639
74.622	21.896	1003.477	787.707
75.636	21.725	1003.540	786.919
76.651	21.520	1003.301	785.741
77.666	21.630	1002.315	785.392
78.680	22.089	1001.140	786.460
79.695	21.515	1001.548	784.138
80.709	21.582	1000.968	783.916
81.724	21.876	1000.657	784.917
82.739	22.180	999.346	785.180
83.753	22.792	999.011	787.579
84.768	23.120	999.085	789.030
85.782	23.168	997.272	787.743
86.797	23.288	996.911	787.923
87.812	23.153	995.513	786.144
88.826	23.162	995.272	785.927
89.841	23.326	993.987	785.567
90.855	23.348	992.874	784.716
91.870	23.471	992.085	784.568
92.884	23.231	991.008	782.587
93.899	23.252	989.680	781.559
94.914	23.215	990.051	781.622
95.928	23.116	988.196	779.654
96.943	22.890	987.534	778.064
97.957	22.760	986.301	776.454
98.972	23.007	985.273	776.658
99.987	23.017	985.366	776.709
101.001	22.952	984.440	775.627
102.016	22.780	982.963	773.637
103.030	22.974	981.822	773.520
104.045	22.933	982.391	773.723
105.060	22.941	980.672	772.333
106.074	22.703	979.729	770.485
107.089	22.690	978.867	769.681
108.103	22.322	977.691	767.083
109.118	21.854	976.694	764.197
110.133	22.084	975.352	764.078
111.147	21.900	973.876	762.057
112.162	21.715	973.651	761.008
113.176	22.133	972.723	762.031
114.191	22.158	972.978	762.269
115.206	22.137	970.776	760.385
116.220	22.124	970.453	760.010
117.235	22.305	969.137	759.696
118.249	22.153	967.551	757.729
119.264	21.552	967.700	755.183
120.279	21.333	967.390	753.931
121.293	21.755	965.878	754.502
122.308	21.506	965.660	753.196
123.322	21.424	964.498	751.871
124.337	21.363	963.291	750.601
125.352	21.280	962.084	749.240
126.366	21.502	962.096	750.132
127.381	21.446	961.904	749.676
128.395	21.721	960.837	749.955
129.410	21.818	959.539	749.290
130.424	21.954	959.371	749.674
131.439	22.361	958.589	750.733
132.454	22.402	957.282	749.818
133.468	22.108	956.604	747.971
134.483	22.278	956.077	748.215
135.497	22.393	954.884	747.705
136.512	22.564	954.393	747.978
137.527	22.130	954.177	745.899
138.541	22.209	952.641	744.968
139.556	22.464	952.277	745.698
140.570	22.539	952.405	746.049
141.585	22.789	950.921	745.879
142.600	22.828	950.449	745.606
143.614	23.281	950.077	747.159
144.629	23.177	948.894	745.725
145.643	23.215	947.276	744.549
146.658	22.914	946.798	742.843
147.673	22.632	945.610	740.660
148.687	22.541	944.360	739.233
149.702	22.504	942.811	737.801
150.716	22.361	941.502	736.112
151.731	22.269	942.749	736.636
152.746	22.423	941.766	736.448
153.760	22.433	941.031	735.849
154.775	22.780	940.204	736.586
155.789	22.695	940.552	736.438
156.804	22.916	939.298	736.315
157.819	23.041	938.576	736.201
158.833	23.087	937.966	735.850
159.848	23.361	937.374	736.458
160.862	23.163	935.840	734.368
161.877	22.746	934.236	731.316
162.892	22.545	932.730	729.240
163.906	22.124	932.160	726.990
164.921	21.959	931.142	725.450
165.935	22.434	930.510	726.855
166.950	22.440	930.279	726.635
167.964	22.753	927.850	725.962
168.979	22.297	928.404	724.453
169.994	22.112	927.830	723.179
171.008	22.481	927.343	724.253
172.023	22.830	926.518	724.978
173.037	23.213	925.052	725.338
174.052	23.089	924.424	724.274
175.067	22.369	923.935	720.877
176.081	22.326	921.488	718.728
177.096	22.055	922.126	718.053
178.110	22.200	921.645	718.208
179.125	22.224	920.818	717.598
180.140	22.215	921.017	717.653
181.154	22.814	919.920	719.177
182.169	22.821	920.051	719.246
183.183	22.658	920.399	718.787
184.198	22.911	918.569	718.326
185.213	22.336	919.132	716.360
186.227	22.727	917.322	716.473
187.242	22.899	916.915	716.790
188.256	23.081	916.469	717.117
189.271	23.213	916.562	717.662
190.286	22.676	914.633	713.916
191.300	22.232	913.391	711.088
192.315	21.943	912.204	708.931
193.329	21.903	911.628	708.262
194.344	22.230	911.772	709.630
195.359	22.367	911.095	709.594
196.373	22.545	911.123	710.267
197.388	22.871	911.153	711.546
198.402	23.120	910.924	712.306
199.417	23.322	910.955	713.078
200.432	23.304	909.978	712.180
201.446	23.491	908.826	711.967
202.461	23.487	908.841	711.898
203.475	23.396	907.055	710.070
204.490	22.465	906.773	706.058
205.504	22.842	905.053	706.162
206.519	22.858	904.701	705.893
207.534	22.803	904.593	705.524
208.548	23.073	903.231	705.475
209.563	22.887	903.356	704.770
210.577	23.303	901.305	704.762
211.592	23.226	901.819	704.796
212.607	23.809	900.852	706.296
213.621	23.435	900.455	704.436
214.636	22.858	900.692	702.265
215.650	23.053	899.553	702.090
216.665	23.233	898.120	701.623
217.680	23.463	897.771	702.198
218.694	23.352	897.837	701.749
219.709	22.871	896.721	698.911
220.723	22.730	896.687	698.264
221.738	23.025	894.879	697.958
222.753	23.012	894.454	697.514
223.767	22.853	894.603	696.942
224.782	23.258	894.388	698.310
225.796	23.355	893.757	698.139
226.811	23.164	892.257	696.152
227.826	22.839	891.493	694.219
228.840	22.686	891.380	693.468
229.855	22.948	890.014	693.371
230.869	22.568	889.983	691.793
231.884	22.375	889.752	690.795
232.899	22.546	889.422	691.151
233.913	22.549	888.133	690.100
234.928	22.275	886.878	687.989
235.942	22.366	885.908	687.532
236.957	22.137	885.922	686.589
237.972	22.381	885.545	687.187
238.986	22.225	885.419	686.420
240.001	22.120	884.440	685.191
241.015	22.469	883.297	685.605
242.030	22.702	883.203	686.379
243.045	22.838	882.183	686.054
244.059	22.716	882.699	685.917
245.074	23.114	880.831	685.952
246.088	22.792	881.438	685.112
247.103	23.326	880.868	686.681
248.117	23.660	880.696	687.779
249.132	24.042	880.430	688.990
250.147	23.836	880.187	687.941
251.161	24.555	879.762	690.329
252.176	24.210	879.383	688.636
253.190	24.384	879.375	689.240
254.205	24.274	878.500	688.070
255.220	24.199	877.843	687.207
256.234	23.904	876.742	685.146
257.249	24.342	875.965	686.166
258.263	24.122	874.699	684.266
259.278	24.151	874.679	684.303
260.293	23.956	874.113	683.051
261.307	23.906	873.538	682.347
262.322	24.343	872.176	682.898
263.336	24.248	870.651	681.280
264.351	24.053	871.110	680.832
265.366	23.994	870.406	679.997
266.380	24.208	870.182	680.581
267.395	24.141	869.382	679.640
268.409	24.010	868.635	678.495
269.424	23.821	867.184	676.583
270.439	23.699	867.311	676.157
271.453	23.737	866.658	675.733
272.468	23.499	866.668	674.775
273.482	24.003	865.671	675.852
274.497	23.743	865.167	674.414
275.512	23.635	864.261	673.237
276.526	23.655	864.269	673.261
277.541	23.843	864.045	673.739
278.555	24.108	863.881	674.554
279.570	23.924	863.138	673.218
280.585	24.307	861.886	673.632
281.599	23.406	861.186	669.622
282.614	23.655	859.908	669.507
283.628	23.479	860.022	668.872
284.643	23.602	859.336	668.743
285.657	23.626	857.910	667.666
286.672	23.929	857.799	668.658
287.687	23.648	858.380	667.997
288.701	23.729	857.710	667.718
289.716	23.985	856.322	667.538
290.730	23.871	855.429	666.357
291.745	23.836	855.837	666.484
292.760	24.155	854.824	666.831
293.774	24.989	853.984	669.235
294.789	24.297	854.225	666.779
295.803	24.176	853.222	665.486
296.818	24.081	852.039	664.149
297.833	23.437	851.090	660.951
298.847	23.851	850.804	662.210
299.862	23.968	850.969	662.716
300.876	24.202	850.773	663.379
301.891	24.765	849.178	664.168
302.906	24.426	849.317	662.956
303.920	24.432	849.508	663.068
304.935	24.661	848.813	663.317
305.949	24.626	847.799	662.337
306.964	24.046	847.617	659.985
307.979	24.010	846.628	659.025
308.993	24.350	846.693	660.277
310.008	24.575	845.600	660.196
311.022	24.146	845.894	658.781
312.037	23.866	844.074	656.274
313.052	24.003	843.277	656.099
314.066	23.602	842.177	653.709
315.081	23.790	842.157	654.330
316.095	23.499	842.371	653.366
317.110	23.935	840.625	653.557
318.125	23.504	839.757	651.239
319.139	23.452	839.225	650.580
320.154	23.487	838.978	650.460
321.168	23.789	839.060	651.573
322.183	23.517	838.634	650.187
323.197	23.888	838.372	651.287
324.212	23.831	838.061	650.776
325.227	23.454	837.410	648.835
326.241	23.749	836.173	648.899
327.256	23.506	835.534	647.456
328.270	23.454	835.136	646.903
329.285	23.311	834.582	645.894
330.300	23.284	833.823	645.151
331.314	23.313	834.208	645.499
332.329	24.116	832.811	647.278
333.343	24.047	832.320	646.590
334.358	24.136	832.472	646.973
335.373	23.912	832.358	646.013
336.387	24.287	832.214	647.206
337.402	24.120	832.674	646.901
338.416	24.648	832.768	648.833
339.431	24.731	832.054	648.521
340.446	24.863	830.734	647.912
341.460	24.468	832.281	647.627
342.475	24.491	830.584	646.333
343.489	24.840	830.555	647.517
344.504	24.955	830.124	647.540
345.519	24.783	829.951	646.725
346.533	24.979	829.046	646.671
347.548	24.543	828.309	644.467
348.562	24.722	827.512	644.436
349.577	24.445	825.847	642.085
350.592	24.435	824.776	641.158
351.606	24.074	825.105	640.061
352.621	23.760	824.068	638.074
353.635	24.408	822.483	639.110
354.650	24.248	822.311	638.349
355.665	24.452	821.418	638.327
356.679	24.592	821.396	638.753
357.694	24.466	821.205	638.098
358.708	24.505	819.456	636.824
359.723	24.168	819.409	635.528
360.738	24.225	819.491	635.738
361.752	24.301	819.761	636.161
362.767	24.889	818.765	637.428
363.781	24.973	818.449	637.425
364.796	24.947	817.173	636.283
365.810	24.878	818.013	636.635
366.825	25.181	817.467	637.229
367.840	25.027	816.263	635.690
368.854	24.798	815.920	634.551
369.869	24.554	816.147	633.808
370.883	24.901	814.684	633.844
371.898	24.859	814.974	633.864
372.913	25.025	814.753	634.226
373.927	24.763	813.779	632.483
374.942	24.622	813.403	631.636
375.956	25.026	813.288	632.920
376.971	25.310	812.297	633.095
377.986	25.737	811.604	634.004
379.000	25.018	812.973	632.478
380.015	25.035	812.320	631.976
381.029	24.920	811.157	630.607
382.044	25.464	809.890	631.481
383.059	25.438	809.324	630.891
384.073	24.960	809.235	629.089
385.088	24.751	807.803	627.187
386.102	24.385	806.876	625.130
387.117	24.327	807.028	624.987
388.132	24.566	807.081	625.811
389.146	24.597	806.179	625.163
390.161	24.904	805.602	625.735
391.175	25.080	805.494	626.212
392.190	24.997	804.218	624.873
393.205	24.415	803.330	622.100
394.219	24.401	802.593	621.424
395.234	24.056	802.420	620.037
396.248	24.478	802.772	621.723
397.263	24.714	801.738	621.686
398.278	24.544	800.251	619.890
399.292	24.428	800.458	619.591
400.307	24.288	799.927	618.639
401.321	24.267	799.490	618.176
402.336	24.669	799.454	619.485
403.350	24.946	799.067	620.090
404.365	25.103	799.415	620.849
405.380	25.224	799.890	621.582
406.394	25.863	797.951	622.229
407.409	25.491	797.928	620.870
408.423	25.467	797.796	620.630
409.438	25.857	798.286	622.303
410.453	25.557	797.055	620.254
411.467	25.783	796.545	620.581
412.482	25.288	797.055	619.216
413.496	25.815	795.976	620.137
414.511	25.762	794.799	618.983
415.526	25.825	794.902	619.226
416.540	25.634	794.748	618.394
417.555	25.311	794.435	616.988
418.569	25.780	793.277	617.642
419.584	25.813	792.645	617.208
420.599	25.106	793.249	615.198
421.613	162.545	1369.575	1795.067
422.628	140.961	1453.540	1795.158
