DTS Sentinel unit serial number:	SN413079Multiplexer serial number:	ORYXHardware model number:	OX4-SRSoftware version number:	ORYX F/W v4.00 Oryx Data Collector v3.7.2.0data status	okinstallation	princeton_trtdifferential loss correction	single-endedforward channel	channel 1reverse channel	N/Adate	2019/09/11time	02:56:11forward acquisition time	60.00reverse acquisition time	0.00gamma	496.2192k internal	0.2332k external	0.2332temperature offset calibration	0.9926default loss term (dB/km)	0.3790temperature slope calibration	1.0000multiplexer offset coefficient	1.0000multiplexer slope coefficient	1.0000fibre end	0.00T internal ref (°C)	29.28T ext. ref 1 (°C)	-0.30T ext. ref 2 (°C)	23.81length (m)	temperature (°C)	Stokes	anti-Stokes-747.200	162.900	0.078	-0.110
-746.185	181.564	0.154	0.227
-745.171	-6.670	-0.217	0.149
-744.156	-28.235	-0.211	-0.123
-743.142	-126.077	0.204	-0.031
-742.127	-159.235	0.248	0.014
-741.112	800.000	-0.067	-0.201
-740.098	-91.098	-0.206	0.059
-739.083	-175.817	0.201	-0.005
-738.069	-63.789	0.193	0.080
-737.054	58.948	-0.047	-0.046
-736.039	-200.000	0.018	-0.200
-735.025	139.654	-0.097	-0.128
-734.010	599.139	0.114	0.284
-732.996	189.715	-0.101	0.152
-731.981	-80.088	0.606	-0.204
-730.966	-91.306	0.151	-0.044
-729.952	-48.666	-0.253	-0.122
-728.937	-182.322	-0.361	-0.007
-727.923	-118.468	0.084	0.015
-726.908	-160.534	-0.288	-0.016
-725.894	-160.564	-0.206	-0.011
-724.879	-76.944	0.344	0.121
-723.864	-112.267	-0.174	-0.035
-722.850	92.022	-0.260	0.294
-721.835	-200.000	0.049	-0.296
-720.821	482.101	-0.082	0.186
-719.806	-200.000	0.019	-0.225
-718.791	-57.924	0.408	0.179
-717.777	-78.036	-0.154	-0.053
-716.762	-135.978	0.247	0.029
-715.748	128.807	-0.089	-0.114
-714.733	-200.000	-0.034	0.168
-713.718	-99.352	0.465	0.118
-712.704	-156.226	-0.295	-0.019
-711.689	567.068	-0.082	0.201
-710.675	800.000	-0.004	0.012
-709.660	-200.000	-0.025	0.204
-708.645	-200.000	-0.001	-0.137
-707.631	-11.715	-0.283	-0.186
-706.616	337.374	0.200	0.391
-705.602	-200.000	0.030	0.173
-704.587	151.425	0.042	-0.057
-703.572	800.000	-0.080	0.264
-702.558	-80.260	0.156	-0.052
-701.543	302.799	-0.122	-0.226
-700.529	44.538	-0.238	-0.219
-699.514	59.071	0.132	-0.131
-698.499	435.151	0.073	0.159
-697.485	-200.000	-0.013	-0.116
-696.470	-200.000	-0.039	-0.273
-695.456	-83.333	-0.056	0.018
-694.441	-68.148	0.154	0.060
-693.426	-200.000	0.020	0.226
-692.412	-200.000	0.012	-0.190
-691.397	420.765	-0.088	-0.189
-690.383	127.554	0.131	-0.167
-689.368	-200.000	-0.002	-0.047
-688.354	370.029	-0.158	-0.320
-687.339	81.675	-0.185	0.201
-686.324	199.574	-0.090	-0.139
-685.310	-73.579	-0.173	0.063
-684.295	800.000	0.044	-0.189
-683.281	-38.613	-0.346	-0.183
-682.266	-21.146	-0.126	-0.077
-681.251	-107.468	-0.348	-0.077
-680.237	-68.617	-0.153	-0.059
-679.222	43.285	-0.059	0.055
-678.208	22.472	-0.161	0.132
-677.193	31.632	-0.246	-0.213
-676.178	800.000	-0.184	-0.627
-675.164	374.835	0.149	-0.304
-674.149	717.687	0.175	-0.466
-673.135	-40.615	-0.142	0.074
-672.120	-200.000	-0.005	0.134
-671.105	94.044	-0.212	-0.241
-670.091	-158.553	0.076	0.004
-669.076	-52.538	0.106	-0.049
-668.062	105.706	-0.144	-0.171
-667.047	-97.485	-0.134	0.035
-666.032	74.109	0.041	0.043
-665.018	-55.361	-0.177	0.080
-664.003	-200.000	0.036	0.316
-662.989	147.479	-0.107	-0.144
-661.974	44.536	0.118	-0.109
-660.959	-92.463	-0.152	0.043
-659.945	60.581	-0.142	0.141
-658.930	96.332	-0.178	0.204
-657.916	103.934	0.099	-0.117
-656.901	-141.183	0.261	-0.027
-655.886	-200.000	-0.001	-0.185
-654.872	-200.000	0.006	-0.173
-653.857	-146.237	-0.292	0.026
-652.843	-175.204	0.116	-0.003
-651.828	194.187	-0.145	0.221
-650.814	172.340	-0.103	-0.148
-649.799	-19.926	0.308	0.191
-648.784	-200.000	-0.027	-0.241
-647.770	408.072	-0.168	-0.356
-646.755	5.346	-0.014	-0.011
-645.741	250.087	-0.037	0.064
-644.726	94.897	0.126	-0.144
-643.711	361.261	-0.100	0.200
-642.697	245.784	0.128	-0.216
-641.682	38.329	-0.264	0.236
-640.668	-44.983	-0.140	0.070
-639.653	-200.000	-0.016	-0.135
-638.638	77.270	0.142	-0.151
-637.624	232.865	-0.113	0.186
-636.609	800.000	-0.032	-0.118
-635.595	772.002	0.055	0.150
-634.580	92.094	-0.153	0.173
-633.565	-63.390	0.391	0.161
-632.551	800.000	0.078	0.221
-631.536	800.000	-0.039	0.117
-630.522	-200.000	-0.010	0.164
-629.507	45.494	-0.125	0.116
-628.492	319.526	0.082	-0.156
-627.478	-150.300	-0.170	-0.013
-626.463	-39.503	0.159	-0.084
-625.449	229.734	-0.123	0.201
-624.434	-172.285	0.131	0.004
-623.419	23.611	-0.356	0.293
-622.405	-67.759	-0.132	0.052
-621.390	103.803	0.100	0.117
-620.376	-45.585	0.142	0.070
-619.361	485.533	0.223	0.508
-618.346	-200.000	-0.021	0.115
-617.332	-114.493	-0.281	-0.054
-616.317	-178.372	0.314	0.007
-615.303	-56.469	-0.224	-0.100
-614.288	-130.190	-0.261	0.036
-613.273	-48.605	-0.252	-0.121
-612.259	-200.000	0.005	-0.070
-611.244	-60.019	-0.082	-0.035
-610.230	800.000	-0.158	-0.549
-609.215	-190.935	0.106	-0.001
-608.201	-200.000	0.034	0.190
-607.186	43.345	-0.255	-0.233
-606.171	153.266	0.325	-0.445
-605.157	62.211	-0.225	-0.225
-604.142	42.106	-0.127	-0.115
-603.128	33.714	0.068	-0.059
-602.113	-103.287	-0.033	0.008
-601.098	-51.013	0.159	-0.075
-600.084	-200.000	-0.009	-0.239
-599.069	-27.198	-0.277	-0.161
-598.055	-168.964	-0.132	0.005
-597.040	-8.495	-0.186	0.125
-596.025	23.012	-0.095	0.078
-595.011	-58.117	-0.141	0.062
-593.996	273.835	-0.102	0.181
-592.982	-78.721	0.069	-0.024
-591.967	-135.682	0.076	-0.009
-590.952	172.348	-0.135	0.194
-589.938	-50.165	-0.131	0.062
-588.923	22.351	-0.234	0.191
-587.909	262.918	-0.104	0.180
-586.894	800.000	0.029	-0.124
-585.879	140.280	0.075	0.099
-584.865	-33.624	-0.455	-0.251
-583.850	166.333	-0.114	-0.161
-582.836	800.000	0.129	-0.490
-581.821	-169.585	-0.272	-0.010
-580.806	-49.087	0.212	0.101
-579.792	-107.976	0.259	-0.056
-578.777	-138.516	0.214	0.024
-577.763	800.000	0.089	-0.268
-576.748	-200.000	-0.046	0.391
-575.733	199.728	-0.340	-0.522
-574.719	180.086	0.114	0.167
-573.704	-54.889	-0.018	0.008
-572.690	-200.000	0.019	0.249
-571.675	44.031	0.339	0.310
-570.661	84.637	0.056	0.061
-569.646	388.735	-0.090	-0.187
-568.631	-64.802	0.021	-0.009
-567.617	-200.000	0.006	0.166
-566.602	73.513	0.117	0.122
-565.588	427.500	-0.076	-0.164
-564.573	800.000	0.053	-0.210
-563.558	86.826	-0.217	-0.240
-562.544	-88.570	-0.322	-0.096
-561.529	32.188	-0.288	0.248
-560.515	-115.240	-0.031	-0.006
-559.500	-7.249	0.170	0.115
-558.485	-200.000	-0.015	-0.309
-557.471	-75.118	-0.067	0.024
-556.456	-158.082	-0.037	-0.002
-555.442	32.688	0.212	0.183
-554.427	-145.266	-0.181	-0.016
-553.412	188.340	-0.046	-0.069
-552.398	154.738	-0.114	-0.156
-551.383	-123.863	0.092	0.014
-550.369	64.792	-0.149	0.150
-549.354	20.664	-0.122	-0.099
-548.339	-68.692	0.254	0.098
-547.325	-200.000	0.016	0.080
-546.310	128.049	0.130	0.165
-545.296	-200.000	-0.025	-0.142
-544.281	227.789	0.029	0.047
-543.266	-200.000	0.031	0.318
-542.252	204.488	0.081	-0.125
-541.237	91.286	-0.094	-0.106
-540.223	20.159	0.124	-0.100
-539.208	708.876	-0.103	-0.273
-538.193	0.393	0.123	0.087
-537.179	94.574	-0.191	-0.217
-536.164	-200.000	-0.008	0.214
-535.150	275.739	0.124	0.220
-534.135	-101.823	0.222	0.053
-533.121	13.555	-0.048	-0.037
-532.106	-200.000	-0.066	-0.378
-531.091	800.000	0.074	-0.225
-530.077	-154.069	-0.154	0.010
-529.062	312.934	0.105	-0.197
-528.048	-200.000	0.004	0.156
-527.033	248.656	0.081	0.138
-526.018	-17.231	0.362	-0.228
-525.004	106.925	0.138	0.163
-523.989	-84.391	0.299	0.094
-522.975	-33.751	-0.105	0.058
-521.960	-200.000	0.045	0.566
-520.945	-32.463	0.234	0.130
-519.931	-200.000	0.017	-0.168
-518.916	-200.000	-0.023	0.261
-517.902	501.432	-0.043	0.099
-516.887	-46.653	-0.124	0.061
-515.872	105.509	0.141	0.166
-514.858	37.470	-0.184	-0.162
-513.843	60.942	-0.268	-0.266
-512.829	382.738	-0.062	-0.127
-511.814	800.000	0.066	0.270
-510.799	-100.845	0.146	-0.036
-509.785	-96.126	-0.321	0.085
-508.770	-200.000	-0.345	-0.001
-507.756	-33.600	-0.252	0.139
-506.741	272.965	0.144	0.254
-505.726	200.801	-0.138	-0.212
-504.712	9.513	0.056	0.042
-503.697	-173.930	0.346	-0.010
-502.683	-25.060	0.106	0.063
-501.668	336.855	-0.130	-0.252
-500.653	178.003	0.096	-0.140
-499.639	-114.053	0.083	0.016
-498.624	800.000	0.140	0.411
-497.610	-22.127	0.414	0.251
-496.595	-105.361	0.212	-0.048
-495.581	-200.000	-0.012	0.128
-494.566	38.330	-0.192	-0.170
-493.551	53.015	0.148	0.141
-492.537	0.096	0.199	-0.141
-491.522	-200.000	-0.084	0.499
-490.508	-102.857	-0.052	0.012
-489.493	358.587	-0.077	0.154
-488.478	-29.021	-0.095	0.054
-487.464	-101.375	-0.222	0.054
-486.449	464.345	-0.040	0.090
-485.435	-200.000	0.122	0.000
-484.420	-61.866	-0.282	-0.118
-483.405	58.779	-0.065	0.064
-482.391	-200.000	0.067	0.317
-481.376	-73.768	-0.433	-0.157
-480.362	-80.954	-0.223	-0.074
-479.347	-200.000	-0.002	0.056
-478.332	-198.825	-0.226	0.001
-477.318	-200.000	0.012	0.150
-476.303	36.455	0.068	0.060
-475.289	-200.000	-0.008	0.053
-474.274	-10.818	0.278	0.183
-473.259	-120.810	-0.226	0.038
-472.245	-93.063	-0.294	-0.082
-471.230	-200.000	-0.457	-0.001
-470.216	-167.995	0.520	0.020
-469.201	18.079	-0.197	-0.156
-468.186	-104.775	0.193	0.044
-467.172	498.162	0.120	0.275
-466.157	-0.477	0.168	-0.119
-465.143	697.132	0.119	-0.312
-464.128	-97.843	0.277	0.071
-463.113	-153.412	0.179	0.012
-462.099	54.831	-0.114	0.109
-461.084	-20.424	-0.287	0.176
-460.070	25.596	-0.201	-0.167
-459.055	256.612	-0.331	0.565
-458.040	5.911	-0.181	-0.134
-457.026	81.371	0.324	-0.348
-456.011	-177.704	0.047	-0.001
-454.997	-7.184	-0.233	-0.157
-453.982	800.000	0.036	-0.114
-452.968	-6.494	0.169	-0.114
-451.953	16.278	0.096	0.076
-450.938	-200.000	-0.024	-0.185
-449.924	-146.810	-0.284	0.024
-448.909	-92.084	-0.256	0.072
-447.895	253.993	0.155	-0.264
-446.880	-200.000	0.004	0.213
-445.865	800.000	0.042	0.156
-444.851	270.234	0.138	-0.241
-443.836	-200.000	-0.092	0.463
-442.822	-147.145	0.438	0.037
-441.807	81.462	-0.049	-0.053
-440.792	-100.405	0.327	0.081
-439.778	723.573	-0.078	0.207
-438.763	-200.000	0.021	0.332
-437.749	-200.000	-0.005	0.086
-436.734	121.873	0.169	-0.209
-435.719	-1.722	-0.311	0.218
-434.705	-73.000	-0.412	-0.150
-433.690	-52.516	-0.155	-0.071
-432.676	-81.727	-0.312	-0.102
-431.661	161.028	-0.163	-0.226
-430.646	800.000	-0.046	-0.147
-429.632	-44.468	-0.056	0.028
-428.617	69.775	0.100	-0.102
-427.603	-125.421	0.103	0.016
-426.588	132.511	0.086	0.110
-425.573	-77.473	-0.164	-0.057
-424.559	800.000	-0.061	0.239
-423.544	9.785	0.124	-0.093
-422.530	-200.000	-0.037	-0.353
-421.515	-117.775	-0.201	0.036
-420.500	-200.000	0.001	-0.066
-419.486	-85.633	-0.273	-0.084
-418.471	305.340	0.065	0.120
-417.457	800.000	-0.016	-0.061
-416.442	-200.000	-0.002	-0.151
-415.428	800.000	-0.029	-0.087
-414.413	62.872	0.159	0.158
-413.398	-163.260	0.095	-0.005
-412.384	57.879	0.373	-0.362
-411.369	-21.754	0.156	0.094
-410.355	-60.169	0.417	0.176
-409.340	-64.568	0.228	0.092
-408.325	46.501	0.233	0.214
-407.311	-200.000	-0.295	0.000
-406.296	-163.675	-0.100	0.005
-405.282	-44.725	0.148	-0.073
-404.267	-148.151	-0.068	0.006
-403.252	-44.188	-0.154	0.076
-402.238	-200.000	-0.004	-0.034
-401.223	-200.000	0.072	0.321
-400.209	220.775	-0.144	0.229
-399.194	80.132	-0.076	0.081
-398.179	-131.635	0.250	-0.033
-397.165	-200.000	-0.016	-0.085
-396.150	-1.285	-0.095	0.067
-395.136	-50.165	-0.120	0.057
-394.121	-200.000	-0.049	0.227
-393.106	-124.999	-0.131	-0.020
-392.092	-188.248	-0.077	0.001
-391.077	77.946	-0.191	-0.202
-390.063	-142.146	-0.049	-0.005
-389.048	126.968	0.056	-0.070
-388.033	71.562	0.095	0.097
-387.019	-70.389	0.235	-0.089
-386.004	573.692	0.146	-0.353
-384.990	-200.000	0.038	0.165
-383.975	-200.000	0.025	0.187
-382.960	-125.876	-0.271	0.041
-381.946	255.779	0.168	-0.285
-380.931	-29.261	-0.216	-0.123
-379.917	-200.000	-0.004	0.049
-378.902	1.638	0.267	-0.191
-377.888	-74.478	-0.210	0.075
-376.873	-51.223	0.470	-0.218
-375.858	800.000	-0.050	0.151
-374.844	-21.274	0.129	0.078
-373.829	-200.000	-0.022	0.165
-372.815	-47.938	-0.257	0.124
-371.800	84.495	0.307	0.333
-370.785	-200.000	-0.014	0.140
-369.771	-200.000	-0.020	0.148
-368.756	-127.812	0.192	0.028
-367.742	514.661	0.094	-0.218
-366.727	-84.907	0.308	0.096
-365.712	-155.515	-0.356	-0.023
-364.698	463.739	-0.070	0.155
-363.683	588.877	-0.128	0.313
-362.669	-73.950	-0.088	-0.032
-361.654	800.000	-0.038	-0.103
-360.639	-109.044	-0.168	0.036
-359.625	-200.000	0.008	-0.094
-358.610	58.415	0.136	-0.132
-357.596	800.000	0.076	-0.227
-356.581	-163.396	0.284	0.013
-355.566	-133.147	-0.230	0.029
-354.552	88.130	-0.110	0.121
-353.537	11.878	0.167	0.127
-352.523	800.000	-0.028	-0.091
-351.508	3.843	0.050	0.036
-350.493	-44.202	0.105	0.052
-349.479	-200.000	0.007	0.188
-348.464	-19.938	-0.129	0.079
-347.450	510.817	-0.105	0.243
-346.435	155.203	0.064	-0.088
-345.420	-2.883	0.102	-0.071
-344.406	-58.921	-0.014	-0.006
-343.391	15.814	0.191	0.149
-342.377	800.000	-0.119	-0.327
-341.362	-200.000	0.043	0.357
-340.348	-200.000	-0.035	0.172
-339.333	73.434	0.042	-0.044
-338.318	41.558	0.253	-0.227
-337.304	277.812	0.162	-0.286
-336.289	-30.243	-0.265	-0.149
-335.275	-54.365	0.083	0.037
-334.260	-92.073	0.178	-0.050
-333.245	-200.000	-0.015	-0.144
-332.231	-130.312	-0.450	-0.060
-331.216	-200.000	0.012	-0.224
-330.202	20.456	0.265	-0.212
-329.187	-51.779	0.358	-0.165
-328.172	799.583	-0.128	-0.351
-327.158	-200.000	0.006	0.085
-326.143	-200.000	-0.019	-0.142
-325.129	69.677	0.078	0.079
-324.114	800.000	-0.012	0.037
-323.099	-45.823	0.146	-0.072
-322.085	8.231	0.050	0.037
-321.070	-60.656	-0.046	-0.019
-320.056	800.000	-0.085	-0.246
-319.041	207.454	-0.203	-0.313
-318.026	-200.000	0.014	-0.305
-317.012	-117.053	-0.358	-0.065
-315.997	-38.232	0.259	-0.136
-314.983	-18.007	-0.254	-0.158
-313.968	-32.314	-0.239	-0.132
-312.953	-89.030	-0.174	-0.051
-311.939	-22.339	0.115	0.069
-310.924	-200.000	-0.010	-0.279
-309.910	169.648	0.050	-0.070
-308.895	-4.724	-0.011	-0.008
-307.880	-119.433	0.285	-0.049
-306.866	800.000	-0.087	-0.252
-305.851	188.997	-0.061	0.091
-304.837	-200.000	0.018	-0.090
-303.822	-200.000	-0.006	-0.105
-302.807	800.000	0.052	-0.198
-301.793	78.786	0.165	-0.175
-300.778	-200.000	-0.022	0.161
-299.764	-24.920	-0.458	0.269
-298.749	-74.830	-0.277	-0.098
-297.735	586.047	0.144	0.350
-296.720	42.581	-0.212	0.191
-295.705	800.000	0.092	0.280
-294.691	-24.224	-0.176	0.104
-293.676	28.014	-0.174	0.145
-292.662	45.599	-0.264	0.241
-291.647	266.256	-0.069	0.119
-290.632	-37.473	0.035	0.018
-289.618	800.000	-0.128	-0.368
-288.603	575.447	0.033	0.079
-287.589	-17.621	-0.309	-0.192
-286.574	-200.000	0.001	0.076
-285.559	-17.647	0.320	-0.199
-284.545	-13.067	0.200	-0.128
-283.530	-200.000	-0.047	0.324
-282.516	-200.000	0.018	0.253
-281.501	708.346	0.059	-0.154
-280.486	-182.255	0.061	0.001
-279.472	-200.000	-0.007	0.233
-278.457	800.000	-0.048	-0.182
-277.443	42.348	0.091	0.082
-276.428	-31.153	0.099	0.055
-275.413	-200.000	-0.005	0.085
-274.399	-200.000	0.020	-0.260
-273.384	4.883	-0.101	0.073
-272.370	-86.045	0.304	0.093
-271.355	-66.845	-0.319	0.124
-270.340	35.570	0.112	-0.098
-269.326	744.608	0.129	-0.344
-268.311	-200.000	0.004	0.060
-267.297	118.199	0.220	0.268
-266.282	90.602	-0.250	-0.277
-265.267	-116.112	0.291	0.053
-264.253	209.729	0.080	0.123
-263.238	-18.645	-0.253	-0.156
-262.224	181.665	-0.061	-0.089
-261.209	153.408	0.082	-0.111
-260.195	800.000	0.065	0.220
-259.180	326.647	0.016	-0.030
-258.165	800.000	-0.151	-0.510
-257.151	453.919	0.090	0.198
-256.136	-200.000	-0.016	-0.100
-255.122	-74.189	-0.315	0.112
-254.107	-3.971	-0.166	0.114
-253.092	-31.331	-0.163	0.090
-252.078	-5.446	-0.173	0.117
-251.063	-116.067	0.385	0.071
-250.049	-170.915	-0.310	-0.010
-249.034	53.192	-0.112	-0.105
-248.019	-116.095	0.358	-0.066
-247.005	249.347	-0.092	0.153
-245.990	800.000	0.028	-0.086
-244.976	-200.000	-0.004	-0.247
-243.961	-84.504	0.167	-0.052
-242.946	349.253	0.078	-0.153
-241.932	754.328	-0.058	-0.156
-240.917	-119.124	0.054	-0.009
-239.903	80.093	0.023	0.024
-238.888	-156.553	0.532	-0.033
-237.873	15.519	0.225	-0.174
-236.859	321.095	-0.092	-0.172
-235.844	-190.690	0.373	-0.004
-234.830	56.121	-0.102	-0.098
-233.815	-200.000	-0.009	-0.192
-232.800	-74.948	0.145	0.051
-231.786	55.354	0.189	0.180
-230.771	98.880	-0.081	0.092
-229.757	-8.156	0.114	-0.076
-228.742	302.900	-0.122	0.223
-227.727	-200.000	0.000	-0.201
-226.713	800.000	-0.142	0.462
-225.698	-200.000	0.021	-0.216
-224.684	224.478	0.278	-0.443
-223.669	-167.273	0.222	-0.009
-222.655	-200.000	-0.027	0.206
-221.640	60.123	0.119	0.116
-220.625	-200.000	-0.014	0.197
-219.611	64.264	0.089	0.088
-218.596	375.091	-0.067	-0.134
-217.582	-200.000	0.012	0.087
-216.567	703.488	-0.186	0.483
-215.552	-97.886	0.106	-0.027
-214.538	-141.286	-0.267	0.027
-213.523	61.718	0.248	-0.243
-212.509	800.000	0.083	-0.231
-211.494	-44.781	0.132	0.065
-210.479	800.000	-0.056	0.171
-209.465	-5.856	-0.362	0.244
-208.450	-19.195	0.214	-0.131
-207.436	800.000	-0.026	-0.075
-206.421	25.484	-0.238	0.195
-205.406	247.903	0.158	-0.263
-204.392	140.409	0.120	-0.156
-203.377	-16.751	-0.293	-0.183
-202.363	390.737	0.244	0.499
-201.348	-200.000	-0.025	0.225
-200.333	-5.808	0.063	0.043
-199.319	255.152	0.107	-0.181
-198.304	-86.653	0.080	-0.024
-197.290	293.827	0.078	0.140
-196.275	-114.727	-0.204	0.038
-195.260	618.789	-0.063	0.156
-194.246	800.000	-0.012	-0.034
-193.231	-200.000	0.033	0.144
-192.217	-154.652	0.223	0.015
-191.202	-84.999	-0.089	-0.028
-190.187	-123.914	0.232	0.036
-189.173	-85.927	0.166	0.051
-188.158	379.058	0.058	0.118
-187.144	14.154	0.202	0.155
-186.129	-63.261	-0.441	0.179
-185.114	800.000	0.066	-0.284
-184.100	90.398	0.136	0.150
-183.085	17.012	0.146	-0.114
-182.071	-66.477	0.354	0.138
-181.056	8.217	0.094	-0.070
-180.042	-122.843	0.421	-0.067
-179.027	-200.000	0.002	-0.029
-178.012	359.218	0.126	0.248
-176.998	-9.168	-0.221	-0.145
-175.983	-111.819	0.210	0.042
-174.969	-129.884	0.263	0.036
-173.954	-90.211	-0.561	0.161
-172.939	-108.602	0.243	-0.051
-171.925	131.265	0.199	-0.251
-170.910	-136.550	0.156	-0.018
-169.896	-29.765	0.331	0.186
-168.881	-124.429	-0.197	0.030
-167.866	-200.000	-0.020	-0.246
-166.852	-41.811	-0.099	-0.050
-165.837	-200.000	-0.069	0.392
-164.823	-200.000	0.009	-0.279
-163.808	35.226	0.125	-0.108
-162.793	-200.000	-0.007	0.122
-161.779	138.467	-0.113	-0.146
-160.764	220.342	0.067	0.105
-159.750	196.938	0.021	-0.031
-158.735	-200.000	0.060	-0.364
-157.720	207.409	0.086	0.131
-156.706	800.000	-0.094	-0.352
-155.691	126.640	-0.175	-0.218
-154.677	554.978	0.112	-0.264
-153.662	195.044	-0.104	-0.155
-152.647	132.273	-0.114	-0.145
-151.633	-107.054	-0.185	0.040
-150.618	-52.195	0.266	0.121
-149.604	800.000	0.060	0.222
-148.589	346.162	-0.018	-0.036
-147.574	165.224	-0.144	0.200
-146.560	-200.000	-0.037	0.397
-145.545	-70.926	0.087	-0.032
-144.531	-173.331	0.326	0.010
-143.516	-6.075	0.352	-0.236
-142.502	39.049	-0.175	-0.154
-141.487	-133.132	-0.282	0.035
-140.472	6.939	-0.134	0.098
-139.458	-200.000	-0.012	0.146
-138.443	-20.808	0.227	-0.137
-137.429	-58.194	0.093	0.040
-136.414	314.921	0.275	0.509
-135.399	-78.942	0.218	-0.073
-134.385	-51.107	-0.034	0.016
-133.370	675.269	-0.138	0.352
-132.356	800.000	0.039	-0.106
-131.341	151.662	0.132	-0.176
-130.326	519.308	0.028	-0.064
-129.312	-162.122	-0.240	-0.012
-128.297	782.118	0.084	0.225
-127.283	15.974	-0.047	0.037
-126.268	42.711	-0.047	0.042
-125.253	-17.790	-0.297	-0.183
-124.239	4.231	0.100	-0.072
-123.224	-50.978	-0.181	0.083
-122.210	-88.752	-0.090	-0.026
-121.195	370.053	-0.123	-0.245
-120.180	800.000	0.065	0.276
-119.166	-200.000	-0.005	0.090
-118.151	-106.922	0.114	0.025
-117.137	55.635	0.096	0.091
-116.122	-4.445	0.064	0.043
-115.107	800.000	-0.139	0.411
-114.093	-200.000	0.042	-0.236
-113.078	-200.000	-0.051	-0.291
-112.064	707.204	-0.075	0.195
-111.049	38.499	-0.162	0.142
-110.034	-7.126	-0.079	0.052
-109.020	-85.325	-0.228	0.070
-108.005	-95.781	0.209	0.055
-106.991	-96.316	-0.221	0.057
-105.976	36.467	0.047	0.041
-104.962	-102.366	-0.222	0.052
-103.947	-100.223	0.230	0.056
-102.932	-145.127	-0.351	-0.031
-101.918	-200.000	-0.016	0.313
-100.903	24.292	0.228	0.185
-99.889	319.200	-0.171	0.318
-98.874	27.303	0.177	0.146
-97.859	96.110	-0.271	0.304
-96.845	-200.000	-0.031	0.170
-95.830	555.195	-0.022	-0.051
-94.816	-88.644	0.182	-0.053
-93.801	193.999	-0.163	0.242
-92.786	-75.068	0.151	-0.053
-91.772	71.706	-0.352	0.359
-90.757	-159.764	0.204	0.011
-89.743	-3.842	-0.320	-0.218
-88.728	336.418	-0.095	0.180
-87.713	-200.000	0.053	-0.276
-86.699	-200.000	-0.018	-0.104
-85.684	-200.000	-0.030	-0.218
-84.670	-200.000	-0.012	-0.215
-83.655	59.426	-0.283	-0.273
-82.640	8.043	0.393	0.289
-81.626	800.000	0.059	0.240
-80.611	-85.772	0.302	0.092
-79.597	-32.241	-0.214	0.117
-78.582	-125.997	-0.079	0.012
-77.567	-23.585	0.087	-0.051
-76.553	-129.679	0.347	-0.047
-75.538	-142.874	-0.202	-0.019
-74.524	-42.868	-0.157	-0.078
-73.509	164.621	-0.051	0.071
-72.494	31.625	-0.210	0.177
-71.480	-15.370	-0.180	-0.113
-70.465	-26.129	0.421	0.242
-69.451	54.205	0.093	-0.087
-68.436	-200.000	0.106	0.001
-67.422	86.410	0.107	0.115
-66.407	-25.643	0.138	-0.080
-65.392	-115.251	-0.277	0.051
-64.378	-47.638	0.300	0.143
-63.363	-149.119	0.231	-0.018
-62.349	-105.951	-0.291	0.064
-61.334	9.365	-1.203	-0.892
-60.319	-10.804	0.700	0.453
-59.305	800.000	-0.287	-0.998
-58.290	166.223	0.877	1.217
-57.276	565.947	0.633	1.505
-56.261	-200.000	106.267	617.756
-55.246	512.997	1511.154	3449.394
-54.232	176.237	2703.533	3845.236
-53.217	111.231	2165.257	2554.947
-52.203	41.212	1601.036	1417.033
-51.188	32.933	1335.919	1132.919
-50.173	29.720	1294.745	1079.237
-49.159	54.320	1349.533	1272.186
-48.144	54.425	1364.532	1286.903
-47.130	32.850	1319.266	1118.128
-46.115	29.387	1301.310	1082.582
-45.100	29.280	1296.244	1077.702
-44.086	29.111	1294.707	1075.395
-43.071	29.086	1292.068	1073.011
-42.057	29.108	1289.611	1071.057
-41.042	29.214	1287.762	1070.093
-40.027	29.202	1286.024	1068.540
-39.013	29.164	1284.493	1067.003
-37.998	29.217	1282.800	1065.864
-36.984	29.208	1280.812	1064.118
-35.969	29.272	1279.067	1062.993
-34.954	29.340	1277.223	1061.811
-33.940	29.260	1276.167	1060.427
-32.925	29.381	1274.397	1059.612
-31.911	29.427	1273.346	1058.962
-30.896	29.291	1272.210	1057.194
-29.881	29.461	1270.540	1056.738
-28.867	29.377	1268.667	1054.657
-27.852	29.369	1267.634	1053.711
-26.838	29.379	1266.564	1052.839
-25.823	29.366	1265.368	1051.726
-24.809	29.354	1263.604	1050.152
-23.794	29.312	1262.773	1049.178
-22.779	29.376	1261.003	1048.033
-21.765	29.451	1259.561	1047.217
-20.750	29.409	1258.396	1045.970
-19.736	29.278	1256.807	1043.864
-18.721	29.151	1256.435	1042.797
-17.706	29.279	1254.712	1042.046
-16.692	29.204	1254.022	1041.011
-15.677	29.139	1253.010	1039.759
-14.663	29.185	1251.608	1038.816
-13.648	29.282	1250.176	1038.132
-12.633	29.265	1249.710	1037.607
-11.619	29.235	1248.558	1036.443
-10.604	29.171	1247.973	1035.554
-9.590	29.179	1247.071	1034.811
-8.575	29.231	1245.663	1033.894
-7.560	29.272	1245.022	1033.552
-6.546	29.231	1244.520	1032.863
-5.531	29.272	1242.920	1031.720
-4.517	29.229	1242.782	1031.326
-3.502	29.255	1241.721	1030.553
-2.487	29.225	1240.938	1029.693
-1.473	29.245	1236.813	1026.340
-0.458	27.886	1221.880	1006.425
0.556	22.254	1204.832	970.339
1.571	18.846	1210.952	956.249
2.586	18.175	1225.550	963.907
3.600	18.141	1214.885	955.243
4.615	13.260	1144.549	874.115
5.629	4.435	1069.683	773.087
6.644	0.100	1049.294	737.081
7.659	-0.330	1046.493	732.950
8.673	-0.501	1045.419	731.297
9.688	-0.458	1044.033	730.472
10.702	0.105	1042.847	732.315
11.717	5.964	1051.587	767.079
12.731	14.977	1064.447	820.794
13.746	19.439	1069.177	846.303
14.761	20.404	1070.448	851.974
15.775	20.489	1069.839	851.832
16.790	19.990	1069.836	849.306
17.804	20.184	1068.389	849.031
18.819	20.328	1067.939	849.301
19.834	20.356	1067.615	849.109
20.848	20.236	1067.775	848.573
21.863	20.380	1066.718	848.360
22.877	20.215	1066.444	847.262
23.892	20.207	1065.501	846.398
24.907	20.181	1065.059	845.844
25.921	20.229	1063.627	844.867
26.936	20.326	1061.926	843.912
27.950	20.347	1060.070	842.467
28.965	20.091	1058.918	840.235
29.980	20.129	1057.294	839.056
30.994	20.287	1056.706	839.281
32.009	20.369	1055.137	838.356
33.023	20.098	1053.832	835.937
34.038	20.325	1052.774	836.115
35.053	20.353	1052.907	836.283
36.067	20.313	1051.821	835.156
37.082	20.389	1050.642	834.510
38.096	20.477	1050.409	834.673
39.111	20.569	1049.076	833.983
40.126	20.509	1047.866	832.659
41.140	20.179	1045.841	829.397
42.155	19.965	1044.731	827.422
43.169	19.952	1043.824	826.566
44.184	20.009	1042.923	826.056
45.199	19.863	1041.903	824.476
46.213	20.011	1040.544	824.033
47.228	20.011	1040.020	823.544
48.242	20.174	1038.890	823.350
49.257	20.265	1038.426	823.342
50.271	20.247	1037.685	822.596
51.286	20.288	1036.580	821.842
52.301	20.436	1035.126	821.316
53.315	20.358	1034.676	820.518
54.330	20.210	1033.885	819.120
55.344	20.311	1033.086	818.891
56.359	20.205	1032.201	817.615
57.374	20.047	1031.409	816.171
58.388	20.213	1030.198	815.926
59.403	20.089	1029.186	814.468
60.417	19.852	1028.757	812.944
61.432	20.022	1028.031	813.093
62.447	20.172	1027.500	813.305
63.461	20.184	1026.855	812.782
64.476	20.144	1025.580	811.513
65.490	19.886	1025.171	809.910
66.505	20.088	1024.431	810.196
67.520	20.034	1023.659	809.261
68.534	19.952	1022.467	807.864
69.549	19.605	1021.677	805.551
70.563	19.663	1020.504	804.826
71.578	19.724	1019.586	804.315
72.593	19.599	1018.537	802.834
73.607	19.729	1018.277	803.166
74.622	19.846	1018.235	803.604
75.636	20.015	1017.178	803.482
76.651	19.978	1016.379	802.609
77.666	19.784	1015.597	801.021
78.680	19.775	1015.153	800.558
79.695	19.955	1014.037	800.440
80.709	20.005	1013.727	800.357
81.724	20.000	1012.525	799.311
82.739	20.083	1011.616	798.906
83.753	20.266	1011.397	799.507
84.768	20.552	1010.785	800.267
85.782	20.639	1009.600	799.661
86.797	20.636	1008.577	798.763
87.812	20.430	1007.510	796.904
88.826	20.550	1006.747	796.780
89.841	20.522	1005.958	795.955
90.855	20.517	1004.852	794.988
91.870	20.531	1004.032	794.334
92.884	20.375	1002.977	792.715
93.899	20.347	1002.291	791.974
94.914	20.536	1001.018	791.763
95.928	20.407	999.536	789.933
96.943	20.245	998.972	788.678
97.957	20.000	997.635	786.444
98.972	19.742	996.348	784.191
99.987	20.059	995.939	785.234
101.001	20.252	994.892	785.212
102.016	20.316	994.250	784.927
103.030	20.232	993.121	783.585
104.045	20.095	991.950	781.973
105.060	19.863	991.385	780.414
106.074	20.174	990.362	780.941
107.089	20.458	989.805	781.708
108.103	20.207	989.063	779.926
109.118	20.180	987.378	778.407
110.133	20.157	986.615	777.634
111.147	20.070	985.175	776.039
112.162	19.874	984.803	774.803
113.176	20.176	983.894	775.366
114.191	20.004	982.930	773.770
115.206	19.664	982.049	771.491
116.220	19.729	981.330	771.148
117.235	19.788	980.318	770.546
118.249	19.805	979.134	769.625
119.264	19.749	978.166	768.547
120.279	19.693	978.054	768.142
121.293	19.963	976.977	768.426
122.308	19.817	976.498	767.336
123.322	19.904	974.804	766.318
124.337	19.828	973.633	764.994
125.352	19.284	971.879	761.146
126.366	19.165	970.828	759.734
127.381	19.912	971.061	763.143
128.395	20.288	970.512	764.301
129.410	20.439	969.101	763.785
130.424	20.190	968.915	762.475
131.439	20.278	967.345	761.560
132.454	20.161	966.913	760.638
133.468	20.204	965.629	759.751
134.483	20.350	964.905	759.751
135.497	20.568	963.971	759.905
136.512	20.623	962.977	759.291
137.527	20.541	962.042	758.131
138.541	20.509	961.569	757.549
139.556	20.512	960.857	756.937
140.570	20.687	959.920	756.891
141.585	20.721	958.449	755.812
142.600	20.499	957.570	754.088
143.614	20.683	957.139	754.481
144.629	20.822	956.103	754.200
145.643	20.760	954.719	752.774
146.658	20.470	953.557	750.539
147.673	20.322	953.091	749.467
148.687	20.450	951.657	748.823
149.702	20.264	950.624	747.142
150.716	20.314	950.232	746.983
151.731	20.413	949.840	747.035
152.746	20.531	948.998	746.814
153.760	20.738	948.434	747.195
154.775	20.788	947.415	746.540
155.789	20.725	946.657	745.606
156.804	20.645	945.882	744.588
157.819	20.732	944.917	744.135
158.833	20.750	944.538	743.846
159.848	20.807	942.695	742.572
160.862	20.621	941.521	740.789
161.877	20.714	941.056	740.753
162.892	20.815	940.002	740.291
163.906	20.797	938.866	739.253
164.921	20.534	938.563	737.832
165.935	20.786	937.164	737.737
166.950	20.748	936.341	736.860
167.964	20.639	935.685	735.817
168.979	20.632	934.530	734.814
169.994	20.563	933.691	733.800
171.008	20.755	933.171	734.137
172.023	20.743	932.215	733.270
173.037	20.470	930.782	730.928
174.052	20.376	930.142	729.967
175.067	20.462	929.482	729.744
176.081	20.554	928.981	729.673
177.096	20.568	928.098	728.975
178.110	20.370	926.827	727.079
179.125	20.083	926.564	725.608
180.140	20.199	926.129	725.690
181.154	20.343	925.198	725.496
182.169	20.582	925.314	726.523
183.183	20.703	925.155	726.839
184.198	20.656	923.746	725.471
185.213	20.657	923.145	724.938
186.227	20.730	922.701	724.830
187.242	20.797	921.946	724.452
188.256	20.744	921.097	723.500
189.271	20.848	920.222	723.182
190.286	20.435	919.012	720.455
191.300	19.870	918.038	717.284
192.315	19.100	916.766	713.040
193.329	19.247	915.977	712.971
194.344	20.115	916.483	716.896
195.359	20.532	916.254	718.376
196.373	20.674	915.224	718.091
197.388	20.423	915.241	717.006
198.402	20.572	914.275	716.799
199.417	20.554	913.772	716.268
200.432	20.258	912.877	714.281
201.446	20.071	911.648	712.487
202.461	20.115	911.366	712.386
203.475	19.185	909.628	707.150
204.490	18.627	908.363	703.814
205.504	19.700	908.830	708.513
206.519	20.191	908.849	710.481
207.534	20.374	908.046	710.537
208.548	20.683	908.038	711.730
209.563	20.494	906.614	709.782
210.577	20.402	906.047	708.898
211.592	20.841	905.985	710.579
212.607	20.892	904.665	709.688
213.621	20.876	904.142	709.151
214.636	20.753	903.566	708.135
215.650	20.697	903.017	707.416
216.665	20.906	902.181	707.549
217.680	20.831	901.313	706.500
218.694	20.257	900.353	703.358
219.709	20.278	899.679	702.853
220.723	20.473	899.320	703.302
221.738	20.547	898.362	702.788
222.753	20.699	897.728	702.844
223.767	20.761	897.562	702.903
224.782	20.849	897.485	703.137
225.796	20.830	896.781	702.442
226.811	20.144	894.826	698.091
227.826	19.601	893.907	695.126
228.840	19.785	893.594	695.562
229.855	19.867	892.681	695.120
230.869	19.479	891.583	692.645
231.884	19.961	891.746	694.643
232.899	20.692	891.659	697.447
233.913	20.689	890.809	696.709
234.928	20.565	890.739	696.098
235.942	20.526	889.880	695.208
236.957	20.241	888.746	693.122
237.972	20.261	888.233	692.737
238.986	20.293	887.740	692.420
240.001	20.254	886.930	691.571
241.015	20.393	886.800	691.962
242.030	20.517	885.670	691.514
243.045	20.617	885.466	691.690
244.059	20.789	885.242	692.137
245.074	20.654	884.007	690.574
246.088	20.324	882.885	688.329
247.103	20.479	882.603	688.665
248.117	21.050	882.783	691.008
249.132	21.285	882.201	691.421
250.147	21.276	881.819	691.023
251.161	21.585	881.067	691.593
252.176	21.341	880.631	690.229
253.190	21.332	880.179	689.774
254.205	21.640	879.549	690.435
255.220	21.588	878.896	689.656
256.234	21.444	878.039	688.356
257.249	21.439	876.780	687.292
258.263	21.456	876.489	687.066
259.278	21.585	875.757	686.939
260.293	21.469	875.478	686.203
261.307	21.369	874.252	684.790
262.322	21.185	873.571	683.479
263.336	20.528	871.131	678.941
264.351	19.445	869.435	673.334
265.366	19.628	869.548	674.077
266.380	20.680	870.111	678.561
267.395	21.085	869.562	679.648
268.409	20.938	869.050	678.618
269.424	21.246	868.654	679.447
270.439	21.148	868.013	678.502
271.453	21.225	867.707	678.505
272.468	21.484	866.936	678.845
273.482	21.536	866.703	678.805
274.497	21.169	865.343	676.260
275.512	20.832	864.517	674.249
276.526	21.177	864.610	675.599
277.541	21.223	864.485	675.617
278.555	21.048	862.999	673.719
279.570	20.954	862.018	672.533
280.585	21.208	861.387	672.958
281.599	21.119	860.765	672.072
282.614	20.522	859.410	668.659
283.628	20.488	859.350	668.420
284.643	20.901	858.940	669.629
285.657	20.640	857.413	667.379
286.672	20.349	856.420	665.434
287.687	20.994	856.777	668.123
288.701	20.769	856.592	667.060
289.716	20.513	855.484	665.156
290.730	20.482	854.989	664.592
291.745	20.226	854.186	662.934
292.760	20.609	853.816	664.051
293.774	21.579	853.993	667.830
294.789	21.748	853.921	668.361
295.803	21.953	853.180	668.504
296.818	21.861	852.684	667.704
297.833	21.452	851.436	665.111
298.847	21.338	850.747	664.083
299.862	21.667	850.332	664.947
300.876	21.855	850.205	665.505
301.891	21.747	849.309	664.336
302.906	21.270	848.171	661.579
303.920	21.499	847.736	662.049
304.935	21.752	847.645	662.875
305.949	21.674	847.222	662.190
306.964	21.488	846.217	660.645
307.979	21.669	845.985	661.089
308.993	21.846	845.809	661.561
310.008	21.867	845.018	660.961
311.022	21.558	844.375	659.239
312.037	21.571	843.479	658.530
313.052	21.305	842.502	656.709
314.066	20.379	841.164	652.132
315.081	20.223	840.666	651.101
316.095	21.020	841.425	654.623
317.110	21.484	840.991	655.970
318.125	20.734	839.115	651.642
319.139	19.682	837.990	646.774
320.154	19.782	837.624	646.808
321.168	20.641	837.914	650.188
322.183	21.318	837.550	652.375
323.197	21.447	837.040	652.401
324.212	21.554	837.376	653.007
325.227	21.577	836.882	652.651
326.241	21.472	835.961	651.482
327.256	21.402	835.260	650.617
328.270	21.279	834.563	649.560
329.285	20.987	833.858	647.871
330.300	20.784	833.130	646.491
331.314	21.238	832.583	647.693
332.329	21.600	832.343	648.792
333.343	21.584	832.301	648.643
334.358	21.651	831.461	648.178
335.373	21.726	831.343	648.306
336.387	22.056	831.558	649.640
337.402	22.142	831.183	649.606
338.416	21.981	830.649	648.536
339.431	21.992	830.104	648.093
340.446	22.147	830.116	648.619
341.460	21.956	829.351	647.257
342.475	21.860	828.834	646.445
343.489	21.973	828.673	646.677
344.504	22.228	827.998	647.031
345.519	22.506	827.747	647.801
346.533	22.504	827.306	647.391
347.548	22.437	826.968	646.822
348.562	22.375	826.624	646.268
349.577	22.390	825.581	645.452
350.592	22.562	825.026	645.590
351.606	22.410	824.250	644.368
352.621	22.177	823.606	642.956
353.635	22.151	822.729	642.122
354.650	21.556	820.843	638.421
355.665	20.768	819.698	634.605
356.679	21.170	819.592	635.929
357.694	21.395	819.077	636.295
358.708	21.556	818.094	636.058
359.723	21.894	818.616	637.638
360.738	22.160	817.954	638.030
361.752	22.222	817.710	638.010
362.767	22.392	817.553	638.445
363.781	22.707	816.834	638.971
364.796	22.794	816.568	639.019
365.810	22.795	816.104	638.603
366.825	22.786	815.661	638.170
367.840	22.401	815.025	636.224
368.854	22.098	814.100	634.352
369.869	22.120	813.315	633.764
370.883	22.119	813.312	633.702
371.898	22.048	812.787	632.982
372.913	22.160	812.235	632.899
373.927	22.247	811.760	632.784
374.942	22.289	812.099	633.144
375.956	22.550	811.042	633.201
376.971	22.574	810.806	633.046
377.986	22.730	810.466	633.284
379.000	22.744	809.583	632.589
380.015	22.576	809.343	631.744
381.029	22.583	808.858	631.335
382.044	22.668	808.546	631.339
383.059	22.751	807.542	630.798
384.073	22.748	807.288	630.533
385.088	22.931	806.306	630.362
386.102	22.548	805.714	628.478
387.117	22.471	805.310	627.831
388.132	22.168	804.352	625.950
389.146	21.630	803.076	622.989
390.161	22.011	803.538	624.650
391.175	22.436	802.953	625.650
392.190	22.084	801.825	623.466
393.205	20.948	799.420	617.519
394.219	19.460	798.289	611.323
395.234	19.467	798.270	611.278
396.248	21.057	799.716	617.971
397.263	22.409	800.258	623.124
398.278	22.270	799.987	622.366
399.292	22.017	799.264	620.851
400.307	22.198	798.677	620.982
401.321	22.225	798.288	620.717
402.336	22.655	798.057	622.000
403.350	23.043	798.184	623.413
404.365	23.166	797.807	623.496
405.380	23.364	797.850	624.174
406.394	23.602	796.972	624.271
407.409	23.415	796.384	623.097
408.423	23.386	795.940	622.591
409.438	23.413	795.679	622.426
410.453	23.369	795.370	621.977
411.467	23.519	794.414	621.698
412.482	23.313	794.420	620.927
413.496	23.451	794.128	621.129
414.511	23.350	794.111	620.704
415.526	23.363	793.322	620.078
416.540	23.259	792.224	618.804
417.555	23.227	791.559	618.116
418.569	23.265	791.153	617.875
419.584	23.154	790.668	617.056
420.599	22.884	789.982	615.527
421.613	158.204	1364.870	1799.097
422.628	137.019	1448.615	1799.175
