DTS Sentinel unit serial number:	SN413079Multiplexer serial number:	ORYXHardware model number:	OX4-SRSoftware version number:	ORYX F/W v4.00 Oryx Data Collector v3.7.2.0data status	okinstallation	princeton_trtdifferential loss correction	single-endedforward channel	channel 1reverse channel	N/Adate	2019/09/13time	06:14:35forward acquisition time	60.00reverse acquisition time	0.00gamma	496.2192k internal	0.2335k external	0.2335temperature offset calibration	1.0160default loss term (dB/km)	0.3790temperature slope calibration	1.0000multiplexer offset coefficient	1.0000multiplexer slope coefficient	1.0000fibre end	0.00T internal ref (°C)	26.12T ext. ref 1 (°C)	4.08T ext. ref 2 (°C)	20.86length (m)	temperature (°C)	Stokes	anti-Stokes-747.200	-39.976	-0.171	-0.090
-746.185	287.346	-0.178	0.324
-745.171	-34.906	-0.259	0.142
-744.156	106.739	0.259	0.308
-743.142	-25.855	0.251	-0.149
-742.127	494.578	0.106	0.245
-741.112	-99.833	0.467	0.117
-740.098	152.333	0.023	-0.031
-739.083	-167.933	-0.109	0.004
-738.069	800.000	-0.112	0.358
-737.054	211.227	-0.099	0.156
-736.039	-200.000	-0.007	-0.188
-735.025	660.679	0.137	0.354
-734.010	-174.255	-0.295	0.009
-732.996	-173.883	-0.315	-0.009
-731.981	-27.467	-0.167	0.098
-730.966	53.423	0.123	-0.118
-729.952	-36.382	-0.113	0.061
-728.937	-114.668	-0.152	-0.029
-727.923	-10.204	0.213	0.142
-726.908	8.023	-0.185	0.139
-725.894	-200.000	-0.047	-0.375
-724.879	158.949	-0.171	0.238
-723.864	-200.000	0.007	-0.279
-722.850	-43.368	0.162	0.082
-721.835	-11.645	-0.099	-0.065
-720.821	800.000	0.085	-0.281
-719.806	-140.295	-0.316	-0.033
-718.791	-39.825	-0.112	-0.059
-717.777	-109.045	-0.125	0.027
-716.762	-118.352	0.334	0.060
-715.748	110.055	-0.246	-0.296
-714.733	-200.000	0.012	0.314
-713.718	-172.856	-0.218	0.007
-712.704	-182.190	0.103	-0.002
-711.689	-126.702	-0.477	0.071
-710.675	145.267	0.069	0.093
-709.660	-70.561	0.208	-0.079
-708.645	292.893	-0.083	-0.151
-707.631	-33.309	-0.120	-0.067
-706.616	165.161	0.120	0.170
-705.602	-200.000	-0.027	0.317
-704.587	-89.643	-0.164	-0.048
-703.572	-200.000	-0.005	0.149
-702.558	-46.426	-0.322	-0.159
-701.543	-13.753	0.133	0.086
-700.529	153.337	0.106	0.145
-699.514	277.236	-0.233	-0.415
-698.499	-18.965	-0.089	0.055
-697.485	800.000	-0.048	-0.149
-696.470	-52.644	-0.195	0.090
-695.456	-46.922	-0.182	0.089
-694.441	52.698	0.194	-0.186
-693.426	556.675	-0.129	0.311
-692.412	-200.000	0.068	0.408
-691.397	-45.675	-0.119	-0.059
-690.383	-66.750	0.079	-0.031
-689.368	133.608	-0.013	-0.016
-688.354	-85.144	-0.044	0.014
-687.339	-200.000	-0.027	-0.287
-686.324	-35.452	0.242	-0.132
-685.310	-40.462	-0.034	-0.018
-684.295	-55.296	-0.130	-0.059
-683.281	-186.654	0.254	-0.004
-682.266	-101.137	-0.266	-0.065
-681.251	-149.695	0.229	0.018
-680.237	-29.884	0.042	-0.024
-679.222	-59.649	0.249	-0.107
-678.208	462.354	-0.044	-0.097
-677.193	42.164	-0.120	-0.109
-676.178	17.185	0.100	0.080
-675.164	-148.560	0.191	-0.016
-674.149	296.382	-0.246	-0.451
-673.135	-200.000	0.005	-0.094
-672.120	-200.000	-0.006	0.159
-671.105	150.037	-0.053	0.072
-670.091	-200.000	-0.017	-0.140
-669.076	-82.050	0.099	-0.032
-668.062	-134.752	-0.332	0.040
-667.047	-88.139	0.524	-0.157
-666.032	17.585	-0.035	-0.028
-665.018	-44.213	-0.179	0.090
-664.003	-31.338	-0.214	-0.121
-662.989	-118.741	0.208	-0.037
-661.974	800.000	-0.033	-0.128
-660.959	-181.813	-0.288	-0.006
-659.945	32.483	0.079	0.068
-658.930	-49.709	-0.313	-0.149
-657.916	-96.626	0.197	-0.052
-656.901	327.043	-0.064	-0.123
-655.886	800.000	-0.051	0.147
-654.872	353.303	-0.187	-0.372
-653.857	-32.611	-0.160	-0.089
-652.843	-200.000	-0.027	0.248
-651.828	197.930	0.115	-0.176
-650.814	-1.657	-0.052	-0.037
-649.799	193.129	-0.181	-0.274
-648.784	125.994	0.143	0.181
-647.770	-200.000	0.035	-0.232
-646.755	-17.174	-0.048	-0.030
-645.741	169.875	0.063	0.090
-644.726	-83.389	-0.093	-0.030
-643.711	-200.000	0.017	-0.081
-642.697	-28.711	0.142	0.082
-641.682	-78.480	0.198	-0.068
-640.668	132.008	0.018	-0.023
-639.653	800.000	0.063	-0.209
-638.638	473.286	-0.067	-0.150
-637.624	-200.000	-0.273	0.001
-636.609	27.187	-0.168	-0.141
-635.595	-68.189	-0.061	-0.024
-634.580	-200.000	0.014	0.165
-633.565	122.216	-0.043	-0.054
-632.551	-200.000	-0.105	0.513
-631.536	-200.000	0.324	0.001
-630.522	130.323	-0.193	-0.247
-629.507	-32.848	0.046	-0.025
-628.492	-200.000	0.070	-0.357
-627.478	-66.075	0.218	-0.087
-626.463	-70.347	-0.070	0.027
-625.449	282.554	0.080	-0.144
-624.434	-200.000	0.007	-0.062
-623.419	59.582	-0.014	-0.014
-622.405	46.875	0.164	-0.152
-621.390	-52.159	-0.338	0.157
-620.376	0.352	-0.063	0.045
-619.361	584.484	0.123	0.301
-618.346	-116.556	0.117	0.022
-617.332	800.000	-0.047	-0.197
-616.317	-48.748	-0.238	-0.114
-615.303	-110.817	0.347	0.071
-614.288	60.134	-0.123	-0.122
-613.273	580.499	0.049	0.119
-612.259	-95.046	-0.247	0.067
-611.244	-200.000	-0.047	0.269
-610.230	-68.895	0.246	-0.095
-609.215	-81.230	-0.197	-0.065
-608.201	-44.400	0.128	0.064
-607.186	-200.000	0.033	-0.240
-606.171	-94.478	0.473	0.129
-605.157	112.421	-0.191	-0.231
-604.142	83.281	0.211	-0.230
-603.128	-124.420	0.324	0.051
-602.113	717.681	0.061	0.163
-601.098	-106.561	0.184	-0.041
-600.084	800.000	-0.065	0.264
-599.069	-200.000	0.003	-0.064
-598.055	-179.213	-0.233	0.005
-597.040	-147.223	-0.274	-0.023
-596.025	60.967	0.132	-0.130
-595.011	118.064	0.194	-0.239
-593.996	-177.682	0.050	-0.001
-592.982	13.663	-0.189	-0.147
-591.967	-124.104	-0.129	-0.020
-590.952	-150.156	0.280	0.022
-589.938	63.638	0.121	-0.121
-588.923	21.382	-0.238	0.193
-587.909	-200.000	0.054	-0.376
-586.894	-200.000	-0.041	-0.231
-585.879	-80.976	-0.301	-0.099
-584.865	303.094	0.137	0.254
-583.850	-200.000	-0.016	0.243
-582.836	-200.000	0.072	-0.344
-581.821	676.245	0.142	0.369
-580.806	-200.000	-0.023	-0.194
-579.792	35.854	0.141	0.124
-578.777	122.795	-0.063	0.079
-577.763	-53.026	-0.344	-0.158
-576.748	231.898	-0.075	-0.123
-575.733	-16.935	0.157	-0.099
-574.719	-149.144	-0.145	-0.012
-573.704	21.052	-0.152	0.123
-572.690	13.758	0.237	-0.184
-571.675	171.604	0.303	0.435
-570.661	106.547	-0.140	0.166
-569.646	-121.046	0.152	0.025
-568.631	622.107	0.081	-0.203
-567.617	-193.765	0.092	-0.001
-566.602	-200.000	-0.014	0.266
-565.588	-200.000	0.015	0.275
-564.573	800.000	0.010	-0.028
-563.558	-116.612	-0.372	-0.068
-562.544	-148.273	0.235	0.019
-561.529	-49.286	-0.164	0.078
-560.515	-85.007	-0.212	-0.066
-559.500	-104.782	0.078	-0.018
-558.485	800.000	-0.028	-0.111
-557.471	667.586	0.049	0.128
-556.456	-110.192	0.094	-0.020
-555.442	-200.000	0.006	-0.180
-554.427	33.853	0.353	-0.306
-553.412	45.420	0.061	-0.056
-552.398	-67.181	-0.203	0.080
-551.383	-66.244	0.241	-0.096
-550.369	-127.443	0.222	0.032
-549.354	-122.077	-0.153	-0.025
-548.339	-200.000	-0.023	0.109
-547.325	98.137	-0.207	0.237
-546.310	-200.000	0.016	-0.264
-545.296	25.834	-0.182	-0.151
-544.281	46.209	-0.195	0.180
-543.266	-200.000	0.029	0.207
-542.252	81.445	-0.068	0.074
-541.237	-111.082	-0.189	-0.039
-540.223	208.524	0.064	-0.100
-539.208	173.265	0.087	-0.125
-538.193	299.829	0.056	0.103
-537.179	-154.618	-0.172	0.011
-536.164	-107.914	0.157	0.034
-535.150	-87.411	0.274	0.083
-534.135	51.668	-0.035	0.033
-533.121	-200.000	0.015	0.186
-532.106	800.000	-0.047	0.175
-531.091	-200.000	-0.025	-0.117
-530.077	-200.000	-0.057	0.267
-529.062	81.588	-0.156	0.169
-528.048	-200.000	-0.032	0.194
-527.033	-91.686	-0.078	-0.022
-526.018	15.595	-0.307	0.240
-525.004	36.900	0.100	0.088
-523.989	-8.018	0.521	0.350
-522.975	-148.039	-0.235	0.019
-521.960	15.062	0.222	0.173
-520.945	357.111	-0.291	-0.577
-519.931	296.433	-0.006	-0.010
-518.916	-200.000	0.024	0.143
-517.902	38.068	0.132	-0.117
-516.887	800.000	0.019	-0.057
-515.872	158.988	-0.133	0.184
-514.858	-60.581	0.063	-0.027
-513.843	721.980	-0.145	-0.383
-512.829	800.000	0.122	-0.355
-511.814	-200.000	0.013	0.117
-510.799	91.384	-0.017	0.019
-509.785	16.852	0.301	-0.237
-508.770	-135.584	0.018	-0.002
-507.756	222.303	-0.091	-0.146
-506.741	-200.000	-0.021	0.114
-505.726	-56.810	-0.087	-0.038
-504.712	184.357	0.048	-0.071
-503.697	313.985	-0.055	0.102
-502.683	-151.616	-0.122	-0.009
-501.668	46.924	-0.042	-0.039
-500.653	89.955	-0.135	0.150
-499.639	-1.045	0.089	-0.062
-498.624	800.000	0.043	-0.182
-497.610	29.490	-0.069	-0.058
-496.595	800.000	-0.051	0.143
-495.581	135.307	-0.090	-0.117
-494.566	-140.107	0.245	-0.026
-493.551	-79.349	-0.165	-0.056
-492.537	-200.000	0.014	-0.111
-491.522	-97.533	0.330	0.085
-490.508	188.060	-0.203	-0.301
-489.493	198.377	0.237	-0.361
-488.478	1.977	-0.207	-0.148
-487.464	-200.000	-0.077	0.351
-486.449	69.891	-0.241	0.247
-485.435	224.593	-0.204	0.328
-484.420	7.098	-0.075	0.056
-483.405	16.506	0.206	0.162
-482.391	-150.867	0.069	0.005
-481.376	-130.185	-0.408	0.055
-480.362	73.721	0.188	-0.196
-479.347	674.847	-0.056	0.145
-478.332	-61.362	-0.105	0.044
-477.318	-163.198	-0.218	-0.010
-476.303	800.000	-0.099	-0.304
-475.289	-67.563	-0.212	-0.083
-474.274	-139.576	0.261	-0.028
-473.259	73.917	-0.166	-0.173
-472.245	292.697	0.137	-0.248
-471.230	-193.098	-0.453	-0.004
-470.216	200.259	0.156	-0.238
-469.201	14.166	0.147	0.114
-468.186	258.855	0.021	0.037
-467.172	22.084	-0.021	-0.017
-466.157	-42.431	0.212	0.108
-465.143	87.783	-0.108	-0.119
-464.128	-200.000	-0.010	0.089
-463.113	-61.689	0.139	0.058
-462.099	63.168	0.265	-0.264
-461.084	-200.000	-0.033	0.286
-460.070	42.590	0.125	0.113
-459.055	-200.000	-0.015	-0.145
-458.040	66.387	0.075	0.075
-457.026	-118.568	-0.291	-0.051
-456.011	163.001	0.152	0.212
-454.997	327.439	-0.072	0.136
-453.982	-23.592	0.088	-0.052
-452.968	282.138	0.073	0.130
-451.953	41.018	0.078	-0.070
-450.938	-53.405	-0.238	-0.108
-449.924	-200.000	-0.018	-0.096
-448.909	494.516	-0.071	-0.161
-447.895	-126.386	-0.122	0.018
-446.880	-200.000	-0.030	0.135
-445.865	-200.000	-0.083	-0.365
-444.851	659.510	0.069	-0.176
-443.836	-200.000	-0.053	0.387
-442.822	-54.532	-0.280	0.126
-441.807	-164.369	0.246	-0.011
-440.792	-162.249	-0.075	0.004
-439.778	42.521	-0.056	-0.051
-438.763	-50.012	0.333	-0.157
-437.749	-19.716	-0.337	-0.207
-436.734	-110.552	-0.020	0.004
-435.719	266.867	-0.057	0.098
-434.705	-200.000	-0.023	0.132
-433.690	-92.991	0.159	-0.044
-432.676	13.312	-0.345	0.266
-431.661	-103.342	-0.460	0.108
-430.646	46.483	-0.162	0.149
-429.632	353.188	0.088	0.172
-428.617	103.064	0.023	-0.027
-427.603	688.044	-0.109	0.283
-426.588	-58.302	0.054	0.023
-425.573	-178.880	-0.180	-0.004
-424.559	-200.000	0.017	-0.164
-423.544	94.948	-0.096	0.109
-422.530	93.443	0.132	-0.148
-421.515	750.082	0.076	0.204
-420.500	-175.770	0.268	0.007
-419.486	-200.000	-0.017	-0.117
-418.471	800.000	-0.021	-0.081
-417.457	443.088	-0.097	0.212
-416.442	-62.701	-0.404	-0.166
-415.428	27.736	0.190	-0.159
-414.413	-111.050	-0.285	0.058
-413.398	162.674	0.149	0.207
-412.384	76.804	-0.143	-0.151
-411.369	800.000	0.018	-0.069
-410.355	128.369	0.084	-0.107
-409.340	-200.000	0.026	-0.173
-408.325	51.003	-0.144	-0.136
-407.311	-171.248	-0.308	-0.010
-406.296	-200.000	-0.034	0.383
-405.282	-128.930	0.421	-0.059
-404.267	-136.472	0.257	0.030
-403.252	-200.000	0.046	-0.208
-402.238	800.000	-0.057	-0.192
-401.223	-164.220	0.188	0.009
-400.209	86.370	0.232	0.253
-399.194	106.881	-0.200	-0.236
-398.179	323.979	-0.142	-0.269
-397.165	49.869	-0.262	0.244
-396.150	-200.000	0.004	-0.021
-395.136	-130.805	0.220	-0.029
-394.121	-200.000	0.018	-0.127
-393.106	182.656	0.163	-0.238
-392.092	-200.000	0.008	0.110
-391.077	-135.587	-0.241	0.028
-390.063	-115.099	0.113	-0.021
-389.048	542.177	-0.019	-0.044
-388.033	36.936	0.185	0.162
-387.019	435.383	-0.109	-0.234
-386.004	53.256	0.201	-0.190
-384.990	-91.664	-0.237	-0.067
-383.975	-200.000	0.020	-0.285
-382.960	12.857	0.076	0.058
-381.946	800.000	-0.069	-0.265
-380.931	137.471	0.238	-0.308
-379.917	470.416	-0.095	0.212
-378.902	-11.627	0.055	0.036
-377.888	-200.000	-0.020	0.276
-376.873	800.000	0.051	-0.152
-375.858	136.423	-0.140	-0.181
-374.844	285.763	-0.068	0.122
-373.829	-70.494	-0.334	-0.125
-372.815	-11.471	0.182	-0.119
-371.800	390.568	-0.105	-0.216
-370.785	-67.345	0.132	0.052
-369.771	-200.000	0.011	-0.293
-368.756	194.808	0.107	-0.161
-367.742	541.341	-0.087	-0.206
-366.727	459.561	0.114	0.250
-365.712	327.034	0.090	0.171
-364.698	22.735	0.246	-0.200
-363.683	42.478	0.167	-0.150
-362.669	641.917	-0.026	-0.066
-361.654	629.263	0.146	-0.365
-360.639	8.138	0.053	0.039
-359.625	-114.417	-0.357	0.068
-358.610	-71.693	-0.242	-0.089
-357.596	-200.000	-0.026	0.320
-356.581	75.390	-0.193	-0.201
-355.566	-200.000	-0.016	0.273
-354.552	65.427	-0.219	0.219
-353.537	-46.379	-0.231	0.112
-352.523	-200.000	0.039	0.365
-351.508	-38.479	0.142	-0.074
-350.493	-184.853	0.518	0.008
-349.479	-16.295	-0.227	0.143
-348.464	-113.700	0.126	0.024
-347.450	-200.000	-0.040	0.322
-346.435	257.583	0.147	-0.250
-345.420	-143.659	-0.166	0.016
-344.406	-200.000	0.013	0.104
-343.391	23.989	0.198	0.162
-342.377	31.041	0.254	-0.215
-341.362	41.944	0.105	0.094
-340.348	250.993	0.147	0.246
-339.333	36.571	-0.120	-0.104
-338.318	-51.489	-0.248	0.115
-337.304	-0.555	-0.296	0.207
-336.289	-73.481	-0.073	-0.026
-335.275	9.603	0.293	-0.219
-334.260	800.000	0.068	-0.237
-333.245	-200.000	-0.075	-0.473
-332.231	-0.986	0.187	0.131
-331.216	-111.498	0.061	0.012
-330.202	-113.854	-0.343	0.066
-329.187	-139.442	0.097	0.010
-328.172	-58.366	0.148	-0.063
-327.158	-200.000	0.023	-0.141
-326.143	-28.580	-0.303	0.172
-325.129	-93.396	-0.135	0.037
-324.114	160.441	-0.087	0.119
-323.099	-40.884	-0.176	0.090
-322.085	71.770	0.053	0.055
-321.070	-200.000	-0.033	0.333
-320.056	-200.000	0.058	0.287
-319.041	-63.835	-0.390	0.158
-318.026	95.283	0.086	0.097
-317.012	-200.000	-0.001	0.035
-315.997	-6.715	0.288	-0.194
-314.983	746.175	-0.100	0.267
-313.968	93.275	-0.119	0.133
-312.953	165.486	-0.187	-0.262
-311.939	-103.883	0.358	-0.082
-310.924	-73.321	0.107	0.039
-309.910	-158.262	0.155	-0.009
-308.895	29.194	0.216	0.181
-307.880	-137.690	-0.120	0.013
-306.866	-123.940	-0.115	-0.018
-305.851	22.864	-0.073	0.059
-304.837	800.000	-0.036	0.100
-303.822	12.351	-0.086	0.065
-302.807	-47.662	0.081	-0.039
-301.793	-120.878	-0.213	0.035
-300.778	-25.079	0.237	-0.139
-299.764	-200.000	0.049	-0.246
-298.749	25.398	0.117	-0.096
-297.735	-192.297	0.235	0.002
-296.720	-142.039	-0.174	-0.017
-295.705	-115.219	0.140	-0.026
-294.691	-105.086	0.357	-0.081
-293.676	-36.328	-0.179	0.096
-292.662	150.800	0.073	-0.098
-291.647	-200.000	-0.027	0.365
-290.632	210.256	-0.084	-0.131
-289.618	3.016	0.219	-0.157
-288.603	800.000	-0.030	-0.116
-287.589	74.651	0.131	0.136
-286.574	-200.000	-0.019	-0.100
-285.559	-200.000	-0.029	-0.228
-284.545	-200.000	0.047	-0.220
-283.530	-161.339	-0.230	-0.012
-282.516	81.541	-0.194	0.207
-281.501	762.579	-0.204	0.547
-280.486	70.471	-0.250	0.255
-279.472	262.257	-0.079	0.135
-278.457	39.172	0.230	0.203
-277.443	-200.000	0.046	-0.206
-276.428	800.000	0.045	-0.136
-275.413	307.894	-0.072	0.132
-274.399	-45.765	0.572	0.279
-273.384	55.381	-0.329	0.314
-272.370	-86.570	-0.246	0.074
-271.355	-80.311	-0.103	0.034
-270.340	-49.866	-0.069	0.032
-269.326	-40.572	-0.092	-0.047
-268.311	149.400	0.138	0.184
-267.297	800.000	0.025	-0.079
-266.282	-57.361	-0.124	0.054
-265.267	-161.493	0.266	0.013
-264.253	64.010	-0.200	-0.198
-263.238	598.408	0.080	-0.196
-262.224	-200.000	-0.044	0.275
-261.209	-69.372	-0.242	-0.091
-260.195	-183.764	-0.496	-0.008
-259.180	-200.000	0.068	0.317
-258.165	440.413	0.084	0.181
-257.151	-114.340	-0.246	0.047
-256.136	-186.380	0.272	0.004
-255.122	-84.145	0.049	-0.015
-254.107	-200.000	0.021	0.106
-253.092	43.508	0.080	0.072
-252.078	-61.628	0.087	-0.036
-251.063	-123.749	0.214	0.033
-250.049	586.291	0.119	0.289
-249.034	800.000	0.113	-0.315
-248.019	-28.539	0.075	-0.042
-247.005	-200.000	-0.026	-0.241
-245.990	800.000	0.117	-0.372
-244.976	6.072	-0.207	0.151
-243.961	-91.353	-0.109	-0.031
-242.946	-58.893	0.117	-0.050
-241.932	62.014	0.262	0.258
-240.917	-32.536	0.094	0.051
-239.903	-99.750	0.214	0.053
-238.888	37.899	0.086	0.075
-237.873	800.000	-0.029	-0.116
-236.859	29.218	-0.098	-0.082
-235.844	-72.650	-0.442	0.160
-234.830	37.599	-0.209	0.183
-233.815	-200.000	0.045	0.305
-232.800	-110.136	0.341	-0.070
-231.786	28.684	-0.203	0.169
-230.771	-62.563	-0.463	0.189
-229.757	-30.076	-0.193	-0.108
-228.742	-164.151	0.163	0.007
-227.727	-53.910	0.334	-0.150
-226.713	-135.093	0.082	-0.010
-225.698	371.129	0.064	-0.129
-224.684	800.000	0.029	-0.122
-223.669	104.974	0.066	-0.076
-222.655	-90.443	-0.168	0.048
-221.640	-2.815	-0.184	0.127
-220.625	-55.700	-0.055	-0.024
-219.611	-11.626	-0.242	0.157
-218.596	-200.000	-0.020	-0.160
-217.582	42.226	0.322	-0.288
-216.567	27.593	-0.305	-0.253
-215.552	-87.876	0.416	-0.123
-214.538	620.361	0.063	0.155
-213.523	395.676	0.139	-0.285
-212.509	-120.326	-0.177	-0.030
-211.494	129.256	0.052	0.065
-210.479	124.010	0.088	-0.108
-209.465	-137.586	-0.243	0.027
-208.450	-200.000	-0.043	0.281
-207.436	302.805	0.206	0.374
-206.421	800.000	-0.081	0.345
-205.406	-22.655	-0.283	0.169
-204.392	-19.332	0.108	-0.066
-203.377	-149.064	0.263	-0.021
-202.363	-20.298	0.214	-0.129
-201.348	-71.449	0.149	0.055
-200.333	279.528	-0.174	0.305
-199.319	-102.682	0.271	0.063
-198.304	-93.206	0.077	0.021
-197.290	167.793	0.160	0.224
-196.275	302.476	0.016	-0.030
-195.260	-200.000	-0.008	-0.258
-194.246	252.346	0.257	0.430
-193.231	-179.879	0.437	-0.009
-192.217	-16.399	-0.074	0.046
-191.202	-200.000	-0.019	0.095
-190.187	-114.439	-0.431	-0.081
-189.173	800.000	-0.046	-0.166
-188.158	355.804	0.089	-0.174
-187.144	-74.540	0.308	-0.109
-186.129	91.382	-0.191	0.211
-185.114	-32.386	0.047	0.026
-184.100	215.382	-0.148	-0.230
-183.085	-25.595	-0.248	-0.144
-182.071	273.053	0.210	0.365
-181.056	-200.000	-0.027	-0.327
-180.042	683.705	0.084	-0.216
-179.027	-80.372	0.094	-0.031
-178.012	6.492	0.090	-0.066
-176.998	-161.492	-0.059	-0.003
-175.983	-108.478	-0.297	-0.063
-174.969	-25.888	0.283	-0.164
-173.954	315.018	-0.144	0.267
-172.939	-78.589	-0.407	0.137
-171.925	208.056	-0.065	0.100
-170.910	225.370	-0.064	0.101
-169.896	-26.629	0.312	0.180
-168.881	500.267	0.219	0.497
-167.866	464.495	-0.196	-0.431
-166.852	34.719	0.147	0.126
-165.837	44.745	-0.300	-0.271
-164.823	593.156	0.042	0.102
-163.808	-150.504	0.148	-0.011
-162.793	-85.285	-0.290	0.089
-161.779	-74.311	0.140	-0.050
-160.764	-99.741	0.137	0.034
-159.750	800.000	0.090	0.279
-158.735	-200.000	0.011	0.063
-157.720	800.000	0.084	-0.335
-156.706	-200.000	0.005	-0.347
-155.691	544.572	0.027	0.062
-154.677	-150.415	0.368	-0.028
-153.662	523.250	0.145	-0.335
-152.647	138.813	-0.042	-0.055
-151.633	33.695	0.065	-0.055
-150.618	-2.575	-0.090	0.062
-149.604	73.792	-0.109	-0.112
-148.589	-144.321	-0.172	0.016
-147.574	-167.512	0.425	-0.017
-146.560	800.000	-0.093	0.344
-145.545	554.141	0.017	0.040
-144.531	-65.053	0.451	0.179
-143.516	-50.854	0.595	-0.274
-142.502	34.703	-0.180	-0.155
-141.487	-13.610	-0.053	-0.034
-140.472	-119.590	0.230	0.039
-139.458	-157.183	-0.461	0.027
-138.443	137.648	-0.057	-0.074
-137.429	202.258	-0.101	0.153
-136.414	-164.888	0.135	0.006
-135.399	318.367	0.036	-0.068
-134.385	77.804	0.280	0.293
-133.370	68.904	0.142	-0.143
-132.356	9.700	0.332	-0.247
-131.341	730.019	-0.008	-0.020
-130.326	206.238	0.031	-0.047
-129.312	-73.925	0.329	-0.117
-128.297	-60.131	-0.143	-0.060
-127.283	-20.188	0.283	-0.171
-126.268	-200.000	-0.066	-0.284
-125.253	-58.373	-0.146	0.062
-124.239	800.000	0.071	-0.211
-123.224	-138.346	0.256	-0.028
-122.210	-200.000	0.068	-0.475
-121.195	136.046	-0.127	-0.163
-120.180	-200.000	-0.022	-0.105
-119.166	79.139	0.085	0.089
-118.151	43.711	0.251	-0.225
-117.137	800.000	0.027	-0.075
-116.122	-16.307	0.521	0.324
-115.107	-7.135	-0.260	0.173
-114.093	207.096	-0.134	-0.204
-113.078	-82.255	0.188	0.060
-112.064	-42.372	0.171	0.086
-111.049	-52.194	-0.208	0.095
-110.034	-200.000	0.025	-0.207
-109.020	324.673	0.028	0.053
-108.005	-25.395	0.337	0.195
-106.991	800.000	-0.022	-0.072
-105.976	-85.422	-0.061	0.019
-104.962	656.728	-0.106	-0.267
-103.947	-200.000	0.042	0.190
-102.932	102.496	0.383	0.439
-101.918	-143.443	-0.189	-0.018
-100.903	-116.030	-0.125	0.023
-99.889	-109.905	0.129	0.026
-98.874	-74.674	0.263	-0.093
-97.859	-25.218	-0.152	0.088
-96.845	-200.000	-0.013	-0.091
-95.830	-37.771	-0.212	0.110
-94.816	800.000	0.073	0.232
-93.801	800.000	-0.023	-0.065
-92.786	-200.000	0.004	-0.204
-91.772	800.000	-0.027	0.107
-90.757	-25.106	-0.252	-0.146
-89.743	-23.227	0.242	-0.142
-88.728	-13.502	0.063	-0.040
-87.713	29.595	0.111	0.092
-86.699	800.000	0.057	-0.203
-85.684	-65.469	0.069	-0.027
-84.670	-115.443	0.107	-0.020
-83.655	-99.826	0.115	-0.028
-82.640	-37.942	-0.282	0.146
-81.626	-200.000	-0.003	0.253
-80.611	405.581	-0.115	-0.238
-79.597	-13.743	0.073	0.046
-78.582	-140.585	0.163	-0.017
-77.567	-89.693	0.333	0.096
-76.553	-76.733	-0.123	-0.042
-75.538	-129.493	0.212	0.029
-74.524	188.004	0.113	-0.165
-73.509	-200.000	0.037	-0.235
-72.494	800.000	0.030	-0.111
-71.480	8.504	-0.188	-0.138
-70.465	137.037	0.068	-0.087
-69.451	7.063	-0.099	0.072
-68.436	800.000	0.045	-0.163
-67.422	346.681	-0.132	-0.255
-66.407	-79.469	0.183	0.060
-65.392	800.000	-0.085	-0.362
-64.378	551.478	-0.082	-0.192
-63.363	800.000	0.015	-0.040
-62.349	262.154	0.232	0.393
-61.334	232.270	-0.787	-1.264
-60.319	52.164	0.730	0.681
-59.305	397.819	-0.486	-0.994
-58.290	515.036	0.710	1.622
-57.276	375.759	0.939	1.873
-56.261	-200.000	117.695	643.748
-55.246	483.656	1553.616	3455.733
-54.232	173.799	2721.266	3841.820
-53.217	103.532	2153.272	2471.172
-52.203	37.661	1585.881	1376.600
-51.188	29.547	1329.133	1105.355
-50.173	26.637	1290.799	1056.488
-49.159	51.935	1350.563	1257.318
-48.144	50.804	1362.849	1261.959
-47.130	29.559	1316.813	1095.003
-46.115	26.198	1298.859	1060.335
-45.100	26.021	1294.004	1055.293
-44.086	25.901	1291.444	1052.465
-43.071	25.908	1289.043	1050.510
-42.057	25.825	1287.283	1048.549
-41.042	25.944	1285.544	1047.785
-40.027	25.981	1283.603	1046.373
-39.013	26.016	1281.837	1045.098
-37.998	25.981	1280.008	1043.360
-36.984	26.067	1278.480	1042.572
-35.969	26.176	1276.373	1041.440
-34.954	26.169	1274.489	1039.820
-33.940	26.099	1273.415	1038.501
-32.925	26.265	1271.615	1037.946
-31.911	26.149	1270.597	1036.408
-30.896	26.151	1269.228	1035.264
-29.881	26.184	1267.707	1034.166
-28.867	26.225	1266.416	1033.311
-27.852	26.234	1265.331	1032.433
-26.838	26.199	1263.871	1031.002
-25.823	26.135	1262.482	1029.463
-24.809	26.254	1261.053	1028.934
-23.794	26.266	1259.453	1027.657
-22.779	26.190	1258.454	1026.371
-21.765	26.211	1257.642	1025.787
-20.750	26.117	1256.401	1024.197
-19.736	26.096	1254.878	1022.798
-18.721	26.052	1253.699	1021.544
-17.706	26.125	1252.255	1020.744
-16.692	26.147	1251.020	1019.819
-15.677	26.101	1250.524	1019.114
-14.663	26.095	1249.378	1018.107
-13.648	26.075	1247.868	1016.725
-12.633	26.170	1246.882	1016.413
-11.619	26.163	1246.050	1015.658
-10.604	26.007	1245.662	1014.425
-9.590	26.100	1244.298	1013.796
-8.575	26.009	1243.454	1012.556
-7.560	26.011	1242.729	1011.938
-6.546	26.064	1241.516	1011.208
-5.531	26.180	1240.975	1011.373
-4.517	26.107	1239.610	1009.811
-3.502	26.065	1238.908	1008.969
-2.487	26.063	1238.292	1008.411
-1.473	26.135	1233.862	1005.166
-0.458	24.547	1219.637	984.793
0.556	22.773	1202.720	947.775
1.571	19.145	1208.911	932.946
2.586	18.149	1223.883	938.954
3.600	18.101	1211.776	929.321
4.615	14.093	1141.666	854.906
5.629	7.385	1070.594	769.180
6.644	4.447	1052.968	742.418
7.659	4.164	1050.599	739.334
8.673	3.836	1049.572	736.981
9.688	3.875	1048.399	736.277
10.702	4.427	1046.064	737.197
11.717	8.766	1051.706	761.779
12.731	16.301	1062.649	805.723
13.746	21.115	1068.926	833.459
14.761	22.225	1069.764	839.343
15.775	21.457	1068.018	834.239
16.790	20.563	1066.101	828.409
17.804	19.952	1064.421	824.123
18.819	19.748	1063.565	822.416
19.834	19.725	1063.233	821.979
20.848	19.640	1062.617	821.024
21.863	19.386	1061.651	818.997
22.877	19.259	1060.778	817.648
23.892	19.225	1060.417	817.139
24.907	19.194	1059.283	816.046
25.921	19.175	1058.276	815.108
26.936	19.197	1057.011	814.163
27.950	19.230	1056.040	813.499
28.965	19.319	1054.352	812.548
29.980	19.406	1053.129	811.942
30.994	19.580	1052.232	812.000
32.009	19.578	1051.260	811.166
33.023	19.542	1050.204	810.111
34.038	19.351	1049.422	808.542
35.053	19.323	1048.246	807.435
36.067	19.259	1047.291	806.327
37.082	19.353	1046.660	806.208
38.096	19.364	1046.688	806.211
39.111	19.492	1045.116	805.525
40.126	19.186	1044.045	803.202
41.140	19.089	1042.103	801.183
42.155	18.751	1041.599	799.156
43.169	18.749	1040.328	798.100
44.184	18.803	1039.320	797.505
45.199	18.825	1038.260	796.723
46.213	18.934	1037.736	796.754
47.228	19.251	1036.586	797.271
48.242	19.213	1035.958	796.539
49.257	19.319	1034.665	795.965
50.271	19.431	1033.964	795.870
51.286	19.369	1033.396	795.078
52.301	19.408	1031.976	794.098
53.315	19.076	1031.344	792.010
54.330	18.839	1030.220	789.989
55.344	19.034	1029.072	789.933
56.359	19.117	1027.772	789.249
57.374	19.052	1026.924	788.227
58.388	18.839	1026.059	786.518
59.403	18.687	1025.647	785.437
60.417	18.671	1025.126	784.899
61.432	18.733	1024.141	784.356
62.447	18.625	1023.468	783.281
63.461	18.578	1022.440	782.210
64.476	18.454	1021.761	781.055
65.490	18.521	1020.931	780.657
66.505	18.639	1020.180	780.550
67.520	18.642	1019.474	779.953
68.534	18.601	1018.925	779.277
69.549	18.633	1017.827	778.514
70.563	18.458	1017.239	777.204
71.578	18.311	1015.948	775.481
72.593	18.268	1015.107	774.576
73.607	18.269	1014.590	774.120
74.622	18.353	1013.961	773.948
75.636	18.368	1013.484	773.583
76.651	18.445	1012.828	773.364
77.666	18.484	1012.072	772.895
78.680	18.543	1011.500	772.654
79.695	18.535	1010.855	772.058
80.709	18.709	1010.531	772.526
81.724	18.758	1010.022	772.288
82.739	18.964	1008.991	772.357
83.753	19.226	1009.043	773.502
84.768	19.602	1008.142	774.432
85.782	19.746	1007.094	774.200
86.797	19.688	1006.415	773.354
87.812	19.431	1005.332	771.303
88.826	19.527	1004.329	770.895
89.841	19.462	1003.713	770.064
90.855	19.582	1002.618	769.691
91.870	19.593	1002.372	769.483
92.884	19.523	1001.441	768.386
93.899	19.617	1000.443	767.973
94.914	19.739	999.314	767.579
95.928	19.682	998.579	766.691
96.943	19.426	998.225	765.219
97.957	19.377	996.611	763.698
98.972	19.548	995.885	763.829
99.987	19.507	995.476	763.264
101.001	19.251	994.537	761.346
102.016	19.407	993.318	761.037
103.030	19.532	992.628	760.993
104.045	19.524	991.946	760.368
105.060	19.239	991.062	758.364
106.074	19.080	989.599	756.480
107.089	18.729	988.303	753.883
108.103	18.607	987.777	752.878
109.118	18.743	986.608	752.518
110.133	18.593	985.562	750.996
111.147	18.594	984.311	749.980
112.162	18.712	984.035	750.221
113.176	18.949	983.378	750.689
114.191	18.895	982.874	750.002
115.206	18.833	982.264	749.199
116.220	18.717	981.598	748.119
117.235	18.731	980.102	746.976
118.249	18.769	979.119	746.325
119.264	18.595	978.409	744.962
120.279	18.554	977.537	744.051
121.293	18.573	976.894	743.578
122.308	18.418	975.901	742.088
123.322	18.306	974.764	740.672
124.337	18.386	973.644	740.099
125.352	18.443	972.676	739.544
126.366	18.471	971.497	738.704
127.381	18.334	970.743	737.477
128.395	18.496	969.884	737.455
129.410	18.571	968.910	736.972
130.424	18.613	968.433	736.725
131.439	18.852	967.903	737.281
132.454	18.721	967.396	736.270
133.468	18.740	966.176	735.354
134.483	18.848	965.559	735.284
135.497	18.932	964.701	734.924
136.512	18.904	963.591	733.896
137.527	18.921	962.766	733.274
138.541	18.720	962.707	732.306
139.556	18.825	961.866	732.047
140.570	19.107	961.068	732.579
141.585	19.390	960.461	733.251
142.600	19.423	959.563	732.641
143.614	19.502	958.817	732.345
144.629	19.439	958.401	731.693
145.643	19.483	957.277	730.957
146.658	19.233	956.190	729.006
147.673	19.074	955.203	727.518
148.687	18.976	954.126	726.219
149.702	18.935	953.212	725.283
150.716	19.045	951.781	724.596
151.731	18.920	951.706	723.947
152.746	19.064	950.999	723.952
153.760	19.104	950.381	723.586
154.775	19.060	950.238	723.228
155.789	19.256	949.389	723.339
156.804	19.307	948.531	722.834
157.819	19.396	947.997	722.738
158.833	19.557	947.857	723.242
159.848	19.544	946.908	722.398
160.862	19.388	945.528	720.630
161.877	19.110	944.475	718.603
162.892	18.996	942.943	716.902
163.906	18.852	942.146	715.631
164.921	18.840	941.437	714.980
165.935	19.100	940.883	715.574
166.950	19.155	940.074	715.125
167.964	19.050	939.135	713.914
168.979	18.923	938.183	712.601
169.994	19.067	936.965	712.209
171.008	19.018	936.726	711.761
172.023	19.302	936.045	712.353
173.037	19.459	935.647	712.638
174.052	19.340	934.705	711.363
175.067	19.042	933.617	709.244
176.081	18.903	933.200	708.292
177.096	18.887	932.690	707.777
178.110	18.892	932.143	707.320
179.125	18.822	931.748	706.671
180.140	19.047	931.189	707.109
181.154	19.281	931.081	707.926
182.169	19.433	930.620	708.138
183.183	19.517	929.505	707.569
184.198	19.440	928.979	706.791
185.213	19.309	928.317	705.689
186.227	19.504	927.765	706.005
187.242	19.766	926.791	706.273
188.256	19.735	926.637	705.964
189.271	19.711	925.884	705.230
190.286	19.354	924.879	702.946
191.300	18.869	923.374	699.769
192.315	18.841	922.811	699.162
193.329	18.746	922.338	698.355
194.344	19.085	921.908	699.346
195.359	19.118	921.398	699.035
196.373	19.196	921.413	699.300
197.388	19.533	920.780	700.123
198.402	19.760	920.457	700.737
199.417	19.877	919.977	700.783
200.432	20.012	919.077	700.581
201.446	20.093	918.715	700.570
202.461	20.162	918.217	700.408
203.475	19.979	917.704	699.216
204.490	19.810	916.405	697.482
205.504	19.551	915.781	695.900
206.519	19.522	914.867	695.029
207.534	19.483	914.397	694.456
208.548	19.506	913.592	693.875
209.563	19.480	913.056	693.301
210.577	19.620	912.579	693.440
211.592	19.790	912.408	693.931
212.607	19.908	911.662	693.775
213.621	19.875	910.624	692.793
214.636	19.776	909.861	691.753
215.650	19.754	909.214	691.110
216.665	20.022	908.523	691.598
217.680	20.124	908.204	691.701
218.694	19.986	907.757	690.745
219.709	20.022	906.897	690.177
220.723	19.972	905.963	689.203
221.738	19.987	905.285	688.685
222.753	19.956	904.655	688.022
223.767	19.894	904.683	687.738
224.782	20.166	903.917	688.176
225.796	20.171	903.467	687.789
226.811	20.163	902.377	686.868
227.826	19.899	901.569	685.148
228.840	19.743	901.045	684.072
229.855	19.815	900.167	683.628
230.869	19.746	899.460	682.758
231.884	19.783	898.579	682.177
232.899	19.609	898.191	681.135
233.913	19.535	897.193	680.028
234.928	19.513	896.654	679.472
235.942	19.433	896.465	678.954
236.957	19.490	895.331	678.256
237.972	19.432	894.900	677.643
238.986	19.492	894.637	677.620
240.001	19.616	893.446	677.144
241.015	19.636	893.223	676.993
242.030	19.807	892.808	677.290
243.045	19.739	892.521	676.746
244.059	19.838	891.813	676.534
245.074	20.015	891.131	676.651
246.088	20.169	890.357	676.602
247.103	20.247	889.889	676.494
248.117	20.344	889.840	676.774
249.132	20.587	889.663	677.524
250.147	20.786	889.344	677.999
251.161	20.784	888.845	677.548
252.176	20.881	888.130	677.321
253.190	20.991	887.422	677.151
254.205	21.043	886.601	676.662
255.220	21.023	886.099	676.145
256.234	20.823	885.436	674.805
257.249	20.904	884.690	674.490
258.263	20.770	884.201	673.536
259.278	20.889	883.245	673.209
260.293	20.841	883.069	672.832
261.307	21.063	882.123	672.907
262.322	21.081	881.683	672.580
263.336	21.157	880.864	672.187
264.351	21.015	880.400	671.231
265.366	21.041	879.945	670.925
266.380	21.049	879.080	670.234
267.395	20.901	878.150	668.897
268.409	20.839	877.275	667.935
269.424	20.840	876.746	667.478
270.439	20.737	876.014	666.467
271.453	20.702	875.164	665.626
272.468	20.623	874.804	664.992
273.482	20.609	874.269	664.474
274.497	20.719	873.427	664.192
275.512	20.582	873.128	663.386
276.526	20.676	872.700	663.361
277.541	20.731	872.458	663.326
278.555	20.904	871.878	663.486
279.570	21.213	871.346	664.198
280.585	21.136	870.547	663.237
281.599	20.918	869.179	661.311
282.614	20.624	868.924	659.941
283.628	20.674	868.611	659.836
284.643	20.827	867.369	659.412
285.657	20.880	866.625	658.989
286.672	20.844	866.335	658.573
287.687	20.917	865.756	658.351
288.701	20.788	865.067	657.283
289.716	20.942	864.681	657.512
290.730	21.115	864.161	657.711
291.745	21.179	863.033	657.032
292.760	21.133	862.945	656.734
293.774	21.227	862.589	656.759
294.789	21.062	861.971	655.611
295.803	20.884	860.914	654.081
296.818	20.916	859.909	653.381
297.833	20.879	859.861	653.147
298.847	20.909	859.044	652.580
299.862	21.027	858.710	652.713
300.876	21.116	858.252	652.639
301.891	21.185	857.549	652.305
302.906	21.310	857.353	652.563
303.920	21.531	856.770	652.886
304.935	21.551	855.944	652.276
305.949	21.577	855.417	651.913
306.964	21.315	854.721	650.348
307.979	21.399	854.064	650.105
308.993	21.474	853.725	650.068
310.008	21.241	853.521	648.990
311.022	21.305	853.029	648.793
312.037	21.195	851.787	647.384
313.052	21.004	850.906	645.951
314.066	20.901	850.678	645.338
315.081	20.840	850.271	644.746
316.095	21.008	849.539	644.757
317.110	20.815	848.923	643.517
318.125	20.754	848.835	643.170
319.139	20.775	848.135	642.660
320.154	20.976	847.367	642.761
321.168	20.971	847.120	642.501
322.183	21.098	846.439	642.392
323.197	21.137	845.751	641.959
324.212	21.089	845.414	641.468
325.227	21.127	844.608	640.939
326.241	20.987	843.670	639.658
327.256	20.926	843.333	639.124
328.270	21.002	843.158	639.211
329.285	20.951	842.034	638.117
330.300	20.972	841.775	637.939
331.314	20.953	841.557	637.650
332.329	21.130	841.145	637.926
333.343	21.284	840.679	638.080
334.358	21.184	840.425	637.467
335.373	21.253	840.128	637.437
336.387	21.404	839.665	637.581
337.402	21.497	839.493	637.732
338.416	21.691	838.739	637.810
339.431	21.888	838.742	638.471
340.446	21.817	838.516	637.985
341.460	21.888	837.811	637.649
342.475	22.013	837.728	637.986
343.489	21.900	837.532	637.369
344.504	21.969	837.156	637.275
345.519	22.143	836.467	637.326
346.533	21.965	835.964	636.242
347.548	21.754	835.042	634.721
348.562	21.574	834.278	633.430
349.577	21.368	833.779	632.250
350.592	21.374	832.820	631.491
351.606	21.440	831.557	630.715
352.621	21.376	831.522	630.403
353.635	21.410	830.950	630.033
354.650	21.716	830.092	630.429
355.665	21.559	830.137	629.844
356.679	21.834	829.705	630.447
357.694	21.668	828.884	629.172
358.708	21.687	828.182	628.651
359.723	21.625	827.718	628.020
360.738	21.594	827.026	627.331
361.752	21.798	826.476	627.586
362.767	22.104	825.779	628.096
363.781	22.105	825.373	627.737
364.796	22.331	825.064	628.253
365.810	22.323	825.042	628.151
366.825	22.188	824.703	627.355
367.840	22.304	823.648	626.913
368.854	22.173	823.484	626.265
369.869	22.012	822.990	625.259
370.883	22.090	822.580	625.172
371.898	22.215	822.325	625.366
372.913	22.486	821.711	625.806
373.927	22.142	820.995	623.985
374.942	22.189	820.618	623.811
375.956	22.335	820.331	624.053
376.971	22.536	819.840	624.340
377.986	22.532	819.631	624.110
379.000	22.453	819.262	623.495
380.015	22.404	818.456	622.651
381.029	22.351	817.846	621.945
382.044	22.541	817.220	622.085
383.059	22.538	816.721	621.641
384.073	22.479	815.850	620.716
385.088	22.112	815.183	618.859
386.102	21.973	814.811	618.033
387.117	22.106	813.972	617.810
388.132	21.889	813.531	616.657
389.146	22.203	812.980	617.289
390.161	22.337	812.910	617.650
391.175	22.451	812.365	617.583
392.190	22.261	811.262	616.021
393.205	22.219	811.113	615.708
394.219	22.222	810.393	615.117
395.234	22.025	810.417	614.392
396.248	21.906	809.800	613.454
397.263	21.808	809.121	612.543
398.278	21.756	808.513	611.846
399.292	21.814	808.429	611.932
400.307	21.786	807.623	611.171
401.321	21.966	807.217	611.436
402.336	22.080	806.869	611.516
403.350	22.255	806.618	611.879
404.365	22.356	806.347	611.972
405.380	22.652	805.975	612.664
406.394	22.525	805.563	611.856
407.409	22.687	805.235	612.115
408.423	22.697	804.945	611.874
409.438	22.927	804.393	612.197
410.453	22.908	804.086	611.842
411.467	22.978	803.558	611.631
412.482	23.044	803.388	611.676
413.496	23.055	803.112	611.449
414.511	22.878	802.685	610.457
415.526	22.829	802.294	609.937
416.540	22.975	801.271	609.609
417.555	22.730	801.438	608.837
418.569	22.929	800.736	608.935
419.584	22.859	800.407	608.391
420.599	22.991	799.827	608.351
421.613	165.503	1371.458	1797.732
422.628	143.825	1454.716	1797.793
