DTS Sentinel unit serial number:	SN413079Multiplexer serial number:	ORYXHardware model number:	OX4-SRSoftware version number:	ORYX F/W v4.00 Oryx Data Collector v3.7.2.0data status	okinstallation	princeton_trtdifferential loss correction	single-endedforward channel	channel 1reverse channel	N/Adate	2019/09/12time	04:32:11forward acquisition time	60.00reverse acquisition time	0.00gamma	496.2192k internal	0.2324k external	0.2324temperature offset calibration	1.0087default loss term (dB/km)	0.3790temperature slope calibration	1.0000multiplexer offset coefficient	1.0000multiplexer slope coefficient	1.0000fibre end	0.00T internal ref (°C)	31.61T ext. ref 1 (°C)	2.29T ext. ref 2 (°C)	26.62length (m)	temperature (°C)	Stokes	anti-Stokes-747.200	-60.128	0.026	0.011
-746.185	-200.000	0.038	0.533
-745.171	-38.883	-0.373	0.199
-744.156	32.414	-0.170	0.148
-743.142	-200.000	0.020	0.279
-742.127	1.438	-0.106	-0.077
-741.112	286.211	-0.100	-0.181
-740.098	79.960	-0.159	0.172
-739.083	-151.435	0.218	0.016
-738.069	-89.597	0.325	0.096
-737.054	-200.000	0.008	0.239
-736.039	139.137	-0.094	-0.125
-735.025	-7.464	-0.089	0.061
-734.010	-200.000	-0.020	-0.099
-732.996	-200.000	-0.015	0.121
-731.981	-200.000	-0.095	0.442
-730.966	82.183	-0.321	-0.351
-729.952	30.529	0.117	0.101
-728.937	324.292	-0.107	-0.205
-727.923	-200.000	-0.018	-0.149
-726.908	-200.000	-0.016	-0.149
-725.894	264.493	0.168	-0.294
-724.879	86.882	0.090	-0.100
-723.864	-114.818	-0.228	0.044
-722.850	-136.382	0.536	-0.063
-721.835	-200.000	-0.061	-0.325
-720.821	-200.000	-0.010	-0.087
-719.806	800.000	0.042	-0.134
-718.791	800.000	-0.033	0.134
-717.777	-135.972	-0.114	0.013
-716.762	-4.221	0.155	0.108
-715.748	-200.000	-0.020	0.149
-714.733	452.865	0.021	0.047
-713.718	800.000	-0.044	0.184
-712.704	800.000	-0.108	-0.402
-711.689	-200.000	-0.020	0.105
-710.675	-63.932	0.289	0.119
-709.660	79.210	-0.057	0.061
-708.645	-159.465	0.478	-0.027
-707.631	123.168	0.094	0.119
-706.616	299.186	0.188	-0.350
-705.602	453.212	-0.111	-0.247
-704.587	124.237	-0.070	0.089
-703.572	-144.094	-0.150	-0.014
-702.558	-138.207	-0.144	0.016
-701.543	-113.732	0.064	-0.012
-700.529	585.917	-0.161	-0.398
-699.514	-172.487	0.218	0.007
-698.499	406.619	-0.127	-0.270
-697.485	-148.795	-0.575	-0.047
-696.470	-59.376	-0.121	0.052
-695.456	-67.248	-0.147	0.058
-694.441	-69.786	-0.249	-0.096
-693.426	800.000	0.028	-0.108
-692.412	-200.000	0.006	-0.121
-691.397	-24.399	-0.178	-0.107
-690.383	28.411	0.303	0.258
-689.368	-106.562	-0.218	-0.049
-688.354	-200.000	0.029	-0.229
-687.339	-23.111	-0.138	0.084
-686.324	0.293	0.110	0.079
-685.310	314.316	-0.144	0.272
-684.295	-63.722	0.019	0.008
-683.281	-200.000	-0.010	0.118
-682.266	-72.623	0.113	0.042
-681.251	331.978	0.056	-0.108
-680.237	-68.299	-0.242	-0.095
-679.222	39.324	-0.095	0.086
-678.208	-4.631	0.040	0.028
-677.193	-65.769	0.110	0.044
-676.178	-4.890	-0.089	0.061
-675.164	60.990	-0.148	-0.148
-674.149	-3.121	-0.067	-0.047
-673.135	516.923	-0.134	0.317
-672.120	-112.655	-0.148	0.030
-671.105	-94.163	-0.173	0.048
-670.091	-145.065	0.214	0.020
-669.076	-62.157	-0.196	0.082
-668.062	-92.445	-0.012	-0.003
-667.047	-200.000	0.012	-0.136
-666.032	182.574	0.192	0.285
-665.018	507.247	-0.046	-0.106
-664.003	-192.109	-0.186	0.002
-662.989	-200.000	-0.020	0.364
-661.974	-170.955	-0.221	0.008
-660.959	146.198	0.019	-0.026
-659.945	-67.320	-0.218	0.086
-658.930	-62.443	0.158	-0.066
-657.916	274.515	-0.163	0.290
-656.901	800.000	0.043	0.155
-655.886	800.000	-0.049	-0.203
-654.872	-96.562	-0.097	0.026
-653.857	101.155	-0.303	-0.354
-652.843	-77.344	0.267	0.093
-651.828	194.058	0.195	0.298
-650.814	-200.000	0.074	0.355
-649.799	33.368	-0.067	-0.058
-648.784	-200.000	0.014	-0.307
-647.770	-123.753	0.080	-0.013
-646.755	141.670	0.208	-0.278
-645.741	-61.414	0.238	-0.101
-644.726	-126.816	0.149	-0.022
-643.711	-200.000	0.006	-0.146
-642.697	299.329	-0.155	-0.287
-641.682	-44.172	0.288	0.145
-640.668	-147.971	-0.220	0.018
-639.653	-54.223	0.076	-0.035
-638.638	476.593	0.030	-0.068
-637.624	-70.826	-0.325	-0.123
-636.609	-200.000	0.022	-0.391
-635.595	186.629	0.010	-0.014
-634.580	-200.000	0.024	0.284
-633.565	-200.000	-0.069	-0.335
-632.551	-12.149	0.201	-0.132
-631.536	-40.872	-0.343	0.178
-630.522	-200.000	0.044	0.223
-629.507	106.699	0.035	-0.041
-628.492	-58.161	0.513	-0.224
-627.478	800.000	0.085	-0.367
-626.463	-147.646	-0.338	-0.029
-625.449	-98.918	-0.135	-0.034
-624.434	-200.000	0.040	-0.375
-623.419	-74.369	-0.190	-0.069
-622.405	-121.211	-0.104	0.017
-621.390	-149.044	0.106	-0.009
-620.376	-35.393	0.130	0.071
-619.361	-157.183	0.297	0.018
-618.346	383.956	0.093	-0.192
-617.332	75.337	0.259	-0.274
-616.317	-200.000	-0.043	0.244
-615.303	-200.000	-0.014	0.333
-614.288	167.679	0.231	-0.329
-613.273	278.829	-0.269	0.482
-612.259	-9.297	-0.196	0.131
-611.244	-31.629	0.237	-0.134
-610.230	-200.000	-0.047	-0.319
-609.215	-200.000	0.003	0.160
-608.201	800.000	0.044	0.142
-607.186	-173.960	-0.461	-0.014
-606.171	-35.895	-0.220	0.120
-605.157	132.484	-0.086	-0.112
-604.142	-200.000	0.002	-0.156
-603.128	800.000	0.019	0.081
-602.113	243.270	-0.029	0.049
-601.098	400.554	-0.217	0.457
-600.084	-200.000	0.024	0.185
-599.069	-77.439	-0.127	-0.044
-598.055	82.857	0.098	0.107
-597.040	-28.877	0.122	0.070
-596.025	-71.276	-0.146	-0.055
-595.011	-65.647	-0.199	0.080
-593.996	-115.492	0.315	0.059
-592.982	-60.116	-0.231	-0.099
-591.967	-164.306	0.144	0.007
-590.952	-100.505	-0.090	-0.022
-589.938	92.166	0.259	0.292
-588.923	-200.000	0.035	-0.181
-587.909	19.711	-0.205	0.165
-586.894	-62.035	-0.135	0.057
-585.879	800.000	0.100	-0.281
-584.865	-58.575	-0.375	-0.163
-583.850	276.378	-0.055	0.098
-582.836	739.504	0.008	-0.021
-581.821	-72.922	-0.278	-0.102
-580.806	238.339	-0.159	0.265
-579.792	276.465	0.122	0.218
-578.777	-200.000	0.028	0.159
-577.763	-9.718	-0.326	0.218
-576.748	70.070	0.187	0.193
-575.733	-88.576	-0.064	-0.019
-574.719	36.211	0.111	-0.098
-573.704	-200.000	0.026	-0.143
-572.690	-161.790	0.201	-0.010
-571.675	-74.950	0.278	0.100
-570.661	330.151	-0.129	-0.249
-569.646	77.185	-0.078	0.083
-568.631	25.727	0.155	-0.129
-567.617	29.220	-0.062	0.053
-566.602	-200.000	0.023	-0.115
-565.588	79.980	0.245	0.264
-564.573	800.000	-0.095	0.333
-563.558	-88.318	-0.073	-0.022
-562.544	-67.487	0.225	-0.088
-561.529	-34.723	-0.137	-0.075
-560.515	32.067	0.141	0.122
-559.500	-200.000	-0.038	0.247
-558.485	-125.385	-0.304	-0.046
-557.471	-74.537	0.125	-0.045
-556.456	-23.956	-0.289	0.173
-555.442	-15.245	0.296	0.189
-554.427	-115.513	-0.260	-0.049
-553.412	-86.347	0.278	-0.086
-552.398	-138.387	0.266	0.029
-551.383	-200.000	-0.011	0.229
-550.369	-75.512	-0.406	-0.145
-549.354	186.471	-0.051	0.076
-548.339	-1.640	0.292	-0.206
-547.325	-200.000	0.009	-0.310
-546.310	-139.592	-0.178	0.019
-545.296	-36.187	-0.187	0.101
-544.281	84.230	0.058	-0.063
-543.266	-5.407	-0.281	-0.193
-542.252	344.477	-0.113	0.222
-541.237	359.551	0.067	0.134
-540.223	23.615	-0.214	0.177
-539.208	800.000	0.096	0.293
-538.193	103.253	-0.197	-0.231
-537.179	-200.000	-0.003	-0.085
-536.164	800.000	0.061	0.199
-535.150	205.973	0.142	-0.220
-534.135	49.185	0.233	0.220
-533.121	148.190	0.035	-0.048
-532.106	17.958	-0.201	0.160
-531.091	96.135	-0.125	-0.143
-530.077	-200.000	-0.021	0.168
-529.062	-74.892	-0.058	0.021
-528.048	17.055	-0.159	-0.126
-527.033	137.034	-0.128	0.167
-526.018	291.005	0.080	0.145
-525.004	800.000	0.078	-0.327
-523.989	-4.577	0.172	0.119
-522.975	-200.000	-0.041	0.235
-521.960	170.951	-0.256	0.367
-520.945	2.929	0.072	0.052
-519.931	161.868	-0.106	-0.148
-518.916	-26.386	-0.207	-0.121
-517.902	185.041	0.033	0.049
-516.887	98.879	0.145	0.167
-515.872	187.045	-0.200	-0.299
-514.858	-200.000	0.027	0.123
-513.843	-65.907	-0.073	0.029
-512.829	-200.000	-0.052	0.271
-511.814	-200.000	-0.022	-0.260
-510.799	163.994	-0.033	-0.047
-509.785	-107.365	-0.058	0.013
-508.770	-13.764	-0.138	0.089
-507.756	-44.216	-0.280	-0.140
-506.741	-110.684	0.239	-0.049
-505.726	-31.786	0.335	0.188
-504.712	120.514	-0.091	-0.113
-503.697	-26.988	-0.224	-0.130
-502.683	258.980	-0.164	-0.282
-501.668	-7.404	0.203	-0.137
-500.653	122.380	0.104	0.129
-499.639	-7.018	-0.427	-0.290
-498.624	42.650	-0.092	-0.084
-497.610	-200.000	0.003	-0.070
-496.595	3.205	0.127	0.093
-495.581	800.000	0.091	0.290
-494.566	389.607	-0.152	0.315
-493.551	50.625	0.058	-0.055
-492.537	129.405	0.123	-0.156
-491.522	-200.000	0.041	-0.206
-490.508	15.517	-0.098	0.077
-489.493	800.000	-0.038	0.144
-488.478	-26.315	0.188	0.110
-487.464	-91.314	-0.066	-0.019
-486.449	-77.245	0.081	0.028
-485.435	800.000	-0.069	0.225
-484.420	800.000	-0.048	0.140
-483.405	-200.000	-0.016	-0.181
-482.391	11.409	0.162	-0.124
-481.376	-90.358	0.031	-0.009
-480.362	-36.689	-0.148	0.079
-479.347	331.404	-0.044	0.084
-478.332	58.612	-0.266	0.261
-477.318	-53.999	0.096	-0.043
-476.303	-175.918	0.202	-0.005
-475.289	209.353	-0.080	-0.125
-474.274	146.256	-0.240	-0.322
-473.259	-200.000	-0.076	-0.434
-472.245	800.000	-0.030	0.132
-471.230	-39.625	0.321	0.168
-470.216	325.890	0.125	0.238
-469.201	165.385	0.196	-0.276
-468.186	679.590	-0.024	-0.063
-467.172	-200.000	0.000	0.352
-466.157	324.208	0.092	-0.176
-465.143	22.954	-0.241	0.197
-464.128	493.546	0.162	0.372
-463.113	-121.772	-0.135	-0.022
-462.099	74.542	0.257	0.269
-461.084	-77.564	0.128	-0.044
-460.070	-84.487	-0.228	-0.072
-459.055	-46.040	-0.284	0.140
-458.040	-200.000	0.067	0.307
-457.026	800.000	0.119	0.379
-456.011	248.248	-0.047	-0.079
-454.997	800.000	0.043	0.134
-453.982	-26.586	-0.308	0.180
-452.968	-14.055	0.207	-0.134
-451.953	149.264	-0.219	-0.296
-450.938	94.187	-0.026	0.029
-449.924	-59.320	0.160	-0.069
-448.909	167.451	-0.029	-0.041
-447.895	-122.776	-0.098	0.016
-446.880	-17.011	-0.322	0.203
-445.865	570.661	-0.125	-0.304
-444.851	114.973	-0.157	0.191
-443.836	153.669	-0.103	0.141
-442.822	134.746	-0.084	0.109
-441.807	-3.485	0.143	-0.099
-440.792	-200.000	0.063	-0.414
-439.778	404.071	0.067	0.141
-438.763	-22.997	-0.145	-0.087
-437.749	-200.000	-0.011	0.053
-436.734	348.668	-0.095	-0.187
-435.719	-200.000	0.041	-0.222
-434.705	-200.000	0.131	0.000
-433.690	663.446	0.090	-0.231
-432.676	84.802	-0.174	-0.190
-431.661	-200.000	0.075	-0.431
-430.646	-200.000	-0.071	0.343
-429.632	-200.000	-0.049	-0.274
-428.617	-138.763	-0.411	0.045
-427.603	-3.917	0.185	-0.128
-426.588	-115.496	0.085	0.016
-425.573	-200.000	-0.031	-0.163
-424.559	800.000	0.094	-0.389
-423.544	-200.000	0.031	-0.286
-422.530	740.212	-0.118	-0.317
-421.515	-144.638	0.507	0.047
-420.500	-88.117	0.083	0.025
-419.486	68.279	-0.153	0.156
-418.471	-200.000	0.012	0.104
-417.457	-53.261	-0.282	0.129
-416.442	35.948	0.084	0.074
-415.428	-40.963	-0.074	-0.038
-414.413	-137.259	0.119	0.014
-413.398	-163.540	-0.113	0.005
-412.384	83.333	-0.367	-0.399
-411.369	30.998	0.069	0.059
-410.355	-119.779	0.148	-0.025
-409.340	159.891	-0.155	-0.215
-408.325	185.567	-0.035	0.052
-407.311	800.000	0.051	-0.185
-406.296	116.680	-0.062	0.075
-405.282	498.309	-0.049	-0.112
-404.267	-12.836	0.205	-0.133
-403.252	27.790	0.149	-0.125
-402.238	800.000	-0.103	-0.313
-401.223	137.513	-0.110	-0.143
-400.209	-129.725	-0.270	0.037
-399.194	-60.006	0.078	-0.033
-398.179	800.000	-0.068	0.192
-397.165	235.739	0.076	0.125
-396.150	-35.869	0.076	-0.041
-395.136	-21.510	-0.276	0.168
-394.121	-200.000	0.021	-0.203
-393.106	166.591	-0.319	0.450
-392.092	-72.003	0.170	-0.063
-391.077	566.860	0.107	0.260
-390.063	135.296	-0.209	-0.271
-389.048	151.007	-0.062	-0.084
-388.033	800.000	-0.027	0.080
-387.019	-200.000	-0.008	0.074
-386.004	23.479	0.104	0.085
-384.990	487.613	0.050	0.115
-383.975	60.752	0.133	0.131
-382.960	-60.390	-0.133	0.056
-381.946	-98.063	-0.317	0.081
-380.931	-54.135	-0.187	0.084
-379.917	62.397	-0.254	0.252
-378.902	5.675	0.080	0.059
-377.888	8.229	0.110	-0.082
-376.873	-150.843	-0.170	-0.013
-375.858	800.000	-0.036	0.125
-374.844	800.000	-0.148	0.451
-373.829	-65.891	-0.373	-0.148
-372.815	-112.897	-0.052	-0.010
-371.800	239.210	0.128	-0.211
-370.785	800.000	0.058	-0.191
-369.771	800.000	-0.041	0.159
-368.756	-200.000	-0.072	-0.376
-367.742	-200.000	-0.033	-0.210
-366.727	759.520	0.131	-0.353
-365.712	129.996	0.238	-0.303
-364.698	6.039	-0.271	0.200
-363.683	-2.425	0.205	-0.143
-362.669	199.764	-0.071	-0.109
-361.654	404.448	-0.135	0.283
-360.639	-103.302	-0.119	-0.028
-359.625	-200.000	0.033	0.380
-358.610	-43.111	0.208	0.105
-357.596	-200.000	0.310	0.001
-356.581	103.891	0.100	0.116
-355.566	800.000	-0.111	-0.334
-354.552	133.514	0.225	-0.289
-353.537	-200.000	0.043	-0.201
-352.523	9.002	-0.143	-0.107
-351.508	800.000	-0.022	-0.078
-350.493	41.572	0.222	-0.200
-349.479	-127.409	-0.176	0.025
-348.464	-200.000	-0.042	0.266
-347.450	0.524	0.270	0.191
-346.435	-64.697	0.173	0.070
-345.420	-121.770	0.195	-0.032
-344.406	-182.466	0.042	-0.001
-343.391	-15.498	0.394	0.250
-342.377	-109.050	-0.043	0.009
-341.362	-144.867	0.209	0.019
-340.348	-116.777	-0.402	-0.073
-339.333	19.869	0.270	0.216
-338.318	42.648	0.151	0.136
-337.304	-200.000	0.025	-0.329
-336.289	135.880	-0.179	0.231
-335.275	94.489	0.205	0.232
-334.260	136.305	0.128	-0.166
-333.245	-115.452	0.119	-0.022
-332.231	-200.000	-0.024	0.370
-331.216	-200.000	-0.030	-0.309
-330.202	-118.790	-0.527	-0.092
-329.187	282.678	-0.094	0.167
-328.172	-31.865	0.053	-0.030
-327.158	17.579	-0.218	0.172
-326.143	-18.309	0.185	-0.115
-325.129	-90.869	-0.132	-0.038
-324.114	2.515	-0.196	0.141
-323.099	324.460	0.034	0.065
-322.085	-24.631	0.192	-0.113
-321.070	-30.061	-0.384	-0.217
-320.056	-121.793	0.253	0.042
-319.041	75.174	0.085	-0.089
-318.026	-200.000	-0.018	-0.086
-317.012	-200.000	-0.019	0.115
-315.997	-1.008	0.172	-0.121
-314.983	531.458	-0.121	0.283
-313.968	-70.993	-0.196	0.073
-312.953	482.304	0.013	0.030
-311.939	-136.354	-0.260	0.030
-310.924	-46.787	-0.207	-0.100
-309.910	454.845	-0.097	-0.214
-308.895	140.107	0.093	-0.122
-307.880	-95.394	0.568	0.151
-306.866	-3.699	0.082	-0.056
-305.851	-98.935	0.046	0.012
-304.837	-104.433	0.085	0.019
-303.822	800.000	0.011	-0.048
-302.807	-108.070	-0.283	-0.061
-301.793	747.458	0.063	0.168
-300.778	46.495	0.084	-0.077
-299.764	-200.000	-0.001	0.070
-298.749	-0.850	0.049	-0.034
-297.735	15.666	-0.322	0.251
-296.720	-132.903	0.277	0.035
-295.705	124.798	-0.142	-0.177
-294.691	561.720	0.080	0.193
-293.676	-116.981	0.060	0.011
-292.662	-58.467	0.309	-0.133
-291.647	112.633	-0.143	0.172
-290.632	1.813	0.236	0.169
-289.618	-139.789	-0.056	0.006
-288.603	-159.428	-0.113	0.006
-287.589	-152.113	-0.195	0.014
-286.574	51.278	0.295	-0.278
-285.559	800.000	-0.057	-0.187
-284.545	800.000	0.080	-0.346
-283.530	-35.640	0.236	-0.127
-282.516	800.000	0.042	0.167
-281.501	-43.106	-0.226	-0.113
-280.486	-42.136	-0.089	0.045
-279.472	179.586	-0.234	0.339
-278.457	-0.736	-0.300	-0.211
-277.443	239.018	-0.121	-0.200
-276.428	-18.276	-0.355	0.220
-275.413	-99.240	0.331	-0.083
-274.399	-200.000	-0.063	-0.297
-273.384	312.823	-0.138	-0.256
-272.370	304.983	0.143	0.264
-271.355	-28.694	0.066	-0.038
-270.340	-94.794	0.177	0.048
-269.326	-121.854	0.200	-0.033
-268.311	-143.192	0.176	-0.017
-267.297	-200.000	-0.044	0.306
-266.282	673.921	-0.043	0.110
-265.267	800.000	0.028	-0.092
-264.253	8.727	0.279	0.208
-263.238	-200.000	-0.003	-0.236
-262.224	611.245	-0.039	0.097
-261.209	800.000	-0.064	-0.278
-260.195	-200.000	0.049	-0.306
-259.180	187.062	0.121	0.179
-258.165	-173.008	0.499	-0.015
-257.151	19.628	0.075	0.060
-256.136	800.000	0.140	0.406
-255.122	250.812	0.130	-0.218
-254.107	-186.500	-0.253	0.004
-253.092	800.000	0.032	0.118
-252.078	-200.000	0.013	-0.093
-251.063	113.115	-0.245	0.295
-250.049	210.121	-0.190	-0.294
-249.034	800.000	0.095	0.338
-248.019	-200.000	-0.061	0.365
-247.005	117.472	-0.013	-0.016
-245.990	158.027	-0.138	-0.189
-244.976	800.000	-0.108	0.299
-243.961	800.000	-0.129	0.356
-242.946	-17.767	-0.342	0.212
-241.932	-152.231	0.340	-0.024
-240.917	-24.369	0.201	0.119
-239.903	-200.000	0.022	0.260
-238.888	-138.684	-0.237	0.026
-237.873	-200.000	0.039	0.379
-236.859	-4.485	0.210	0.144
-235.844	-200.000	0.349	0.001
-234.830	-143.188	-0.144	-0.014
-233.815	193.015	-0.025	0.037
-232.800	209.723	-0.182	0.283
-231.786	-88.717	-0.165	-0.049
-230.771	-4.935	0.273	-0.186
-229.757	141.188	-0.043	0.056
-228.742	-200.000	-0.036	-0.369
-227.727	-89.744	0.280	-0.081
-226.713	-115.427	0.321	0.060
-225.698	800.000	0.063	0.241
-224.684	800.000	-0.114	-0.402
-223.669	-132.649	0.159	-0.020
-222.655	-200.000	0.030	0.233
-221.640	61.048	0.179	-0.176
-220.625	-200.000	-0.068	0.300
-219.611	-47.697	-0.396	0.190
-218.596	-200.000	0.026	0.123
-217.582	-101.020	0.226	0.055
-216.567	-164.662	-0.014	-0.001
-215.552	-22.153	0.318	-0.191
-214.538	-200.000	0.019	-0.245
-213.523	-47.551	0.082	0.039
-212.509	-45.363	0.227	-0.111
-211.494	238.232	0.197	-0.324
-210.479	10.450	-0.380	0.286
-209.465	-200.000	0.003	-0.014
-208.450	33.505	-0.198	-0.170
-207.436	-7.816	0.297	0.198
-206.421	800.000	-0.041	-0.118
-205.406	97.320	0.132	0.150
-204.392	-200.000	-0.031	-0.224
-203.377	-74.040	0.287	-0.103
-202.363	268.084	-0.170	-0.293
-201.348	-44.845	-0.370	0.182
-200.333	58.239	0.260	0.252
-199.319	-134.582	-0.326	0.039
-198.304	-200.000	-0.002	0.049
-197.290	-200.000	0.004	-0.078
-196.275	800.000	-0.144	-0.461
-195.260	458.003	0.125	0.274
-194.246	-170.932	-0.076	-0.003
-193.231	-32.879	-0.286	0.157
-192.217	197.617	-0.175	0.264
-191.202	-200.000	-0.013	-0.159
-190.187	-66.958	-0.067	-0.026
-189.173	800.000	-0.038	-0.152
-188.158	267.679	0.151	0.262
-187.144	-23.387	-0.250	-0.148
-186.129	771.173	0.019	0.051
-185.114	50.499	0.315	0.294
-184.100	-1.644	0.347	0.242
-183.085	-126.432	0.146	0.022
-182.071	-200.000	-0.016	-0.088
-181.056	141.290	-0.148	-0.193
-180.042	29.248	-0.209	0.175
-179.027	800.000	-0.108	-0.378
-178.012	326.795	0.046	0.088
-176.998	-82.302	0.179	0.058
-175.983	231.131	0.065	-0.105
-174.969	-117.862	0.290	-0.051
-173.954	-94.289	0.345	0.093
-172.939	-200.000	0.043	-0.227
-171.925	-65.985	0.217	-0.086
-170.910	668.717	0.117	-0.299
-169.896	-81.867	0.126	-0.041
-168.881	33.123	-0.149	0.127
-167.866	112.498	0.264	-0.315
-166.852	1.895	0.158	0.113
-165.837	-50.690	0.135	0.063
-164.823	209.297	0.069	-0.107
-163.808	-160.597	-0.129	0.007
-162.793	-41.591	-0.055	0.028
-161.779	-23.103	0.042	-0.025
-160.764	-35.962	0.080	0.043
-159.750	-26.303	0.404	-0.234
-158.735	-100.883	0.057	-0.014
-157.720	227.020	0.075	-0.121
-156.706	-76.401	0.376	0.131
-155.691	664.431	0.105	0.267
-154.677	-200.000	0.011	0.074
-153.662	-153.010	-0.176	-0.012
-152.647	-152.716	0.063	-0.004
-151.633	115.005	-0.163	-0.197
-150.618	-50.526	0.187	0.087
-149.604	-154.159	0.122	0.008
-148.589	800.000	-0.059	-0.235
-147.574	93.062	0.051	0.056
-146.560	417.721	-0.117	0.247
-145.545	800.000	0.079	-0.259
-144.531	800.000	0.082	0.266
-143.516	80.263	0.064	-0.068
-142.502	-200.000	-0.031	0.329
-141.487	180.745	0.021	0.030
-140.472	42.044	-0.120	0.107
-139.458	196.953	0.054	0.081
-138.443	439.131	-0.085	-0.183
-137.429	-200.000	-0.047	0.251
-136.414	-174.546	-0.259	0.007
-135.399	-137.908	-0.118	0.013
-134.385	-0.264	0.268	0.188
-133.370	311.908	0.020	-0.037
-132.356	-158.337	-0.407	0.023
-131.341	729.468	0.202	0.533
-130.326	92.576	-0.131	-0.146
-129.312	82.827	-0.083	0.088
-128.297	-88.575	0.246	0.072
-127.283	152.860	0.034	0.046
-126.268	285.731	-0.063	-0.112
-125.253	-28.501	-0.226	-0.129
-124.239	-42.459	-0.041	0.020
-123.224	-200.000	-0.022	0.280
-122.210	102.619	0.366	0.422
-121.195	-37.432	0.286	-0.151
-120.180	-4.750	-0.300	0.204
-119.166	-112.393	0.256	-0.050
-118.151	-4.442	0.166	-0.113
-117.137	373.207	0.036	-0.073
-116.122	-200.000	0.004	0.329
-115.107	227.757	-0.278	0.445
-114.093	-200.000	0.059	0.385
-113.078	124.995	0.163	0.203
-112.064	-200.000	-0.022	0.118
-111.049	-200.000	0.003	0.163
-110.034	800.000	-0.070	0.255
-109.020	-200.000	-0.016	0.359
-108.005	54.488	0.188	0.178
-106.991	-53.198	0.132	-0.060
-105.976	208.048	0.041	0.063
-104.962	-57.274	-0.265	0.115
-103.947	318.403	-0.038	0.071
-102.932	-124.718	-0.067	-0.010
-101.918	536.014	0.023	-0.054
-100.903	-200.000	-0.057	0.305
-99.889	592.871	0.120	-0.292
-98.874	800.000	-0.063	0.233
-97.859	-107.054	-0.259	0.056
-96.845	73.067	-0.125	-0.128
-95.830	-74.511	0.276	-0.098
-94.816	-59.364	0.219	-0.093
-93.801	800.000	0.031	-0.122
-92.786	65.671	-0.245	0.244
-91.772	666.157	-0.053	-0.136
-90.757	-158.883	-0.248	0.014
-89.743	74.326	-0.058	0.060
-88.728	-114.965	-0.132	0.025
-87.713	-66.968	-0.039	-0.015
-86.699	-44.135	-0.043	0.021
-85.684	-72.582	0.354	0.129
-84.670	-200.000	0.064	0.357
-83.655	101.335	0.170	0.195
-82.640	29.667	0.118	0.098
-81.626	47.263	0.235	-0.215
-80.611	269.352	-0.050	-0.086
-79.597	128.106	0.103	-0.129
-78.582	489.564	-0.043	-0.097
-77.567	-190.438	0.249	-0.003
-76.553	-200.000	0.061	-0.312
-75.538	-101.658	-0.678	-0.162
-74.524	84.937	-0.088	-0.095
-73.509	27.597	0.199	0.165
-72.494	-135.738	-0.538	-0.063
-71.480	0.329	0.230	-0.161
-70.465	226.372	-0.055	0.087
-69.451	800.000	-0.054	0.221
-68.436	441.432	0.079	0.170
-67.422	-79.806	-0.129	0.043
-66.407	-200.000	-0.040	0.272
-65.392	364.526	0.208	0.412
-64.378	-15.306	-0.305	0.192
-63.363	227.916	0.088	-0.141
-62.349	-44.712	0.200	-0.098
-61.334	3.883	-0.971	-0.697
-60.319	86.461	0.473	0.513
-59.305	800.000	-0.339	-1.039
-58.290	69.354	0.811	0.820
-57.276	634.855	0.541	1.348
-56.261	-200.000	97.628	597.823
-55.246	546.281	1374.978	3230.551
-54.232	161.654	2552.192	3509.397
-53.217	112.979	2131.236	2537.787
-52.203	43.566	1592.367	1430.637
-51.188	35.202	1330.433	1145.526
-50.173	31.950	1288.990	1090.925
-49.159	54.324	1337.371	1264.851
-48.144	56.442	1353.688	1292.761
-47.130	35.275	1312.167	1130.048
-46.115	31.830	1294.370	1094.605
-45.100	31.553	1289.469	1088.806
-44.086	31.551	1286.769	1086.469
-43.071	31.519	1284.580	1084.390
-42.057	31.538	1282.619	1082.804
-41.042	31.521	1281.193	1081.460
-40.027	31.616	1279.170	1080.256
-39.013	31.631	1277.285	1078.709
-37.998	31.562	1275.960	1077.152
-36.984	31.656	1273.971	1075.966
-35.969	31.643	1272.532	1074.635
-34.954	31.561	1270.780	1072.643
-33.940	31.704	1269.096	1071.995
-32.925	31.657	1268.438	1071.132
-31.911	31.709	1266.985	1070.157
-30.896	31.682	1265.289	1068.530
-29.881	31.689	1264.103	1067.523
-28.867	31.577	1263.059	1065.965
-27.852	31.756	1260.829	1065.055
-26.838	31.653	1259.637	1063.424
-25.823	31.654	1258.412	1062.348
-24.809	31.728	1256.858	1061.416
-23.794	31.653	1255.994	1060.223
-22.779	31.615	1254.797	1058.953
-21.765	31.763	1253.373	1058.544
-20.750	31.687	1251.690	1056.652
-19.736	31.736	1250.082	1055.532
-18.721	31.573	1249.376	1053.974
-17.706	31.553	1248.369	1052.973
-16.692	31.521	1247.380	1051.913
-15.677	31.553	1246.275	1051.119
-14.663	31.565	1244.892	1049.980
-13.648	31.462	1244.075	1048.673
-12.633	31.537	1243.049	1048.186
-11.619	31.603	1241.913	1047.557
-10.604	31.537	1241.356	1046.677
-9.590	31.519	1240.114	1045.485
-8.575	31.601	1239.077	1045.029
-7.560	31.539	1238.329	1044.006
-6.546	31.560	1237.277	1043.199
-5.531	31.511	1236.789	1042.474
-4.517	31.574	1235.597	1041.776
-3.502	31.608	1234.621	1041.104
-2.487	31.544	1233.809	1040.019
-1.473	31.578	1229.697	1036.702
-0.458	30.222	1215.075	1016.904
0.556	27.778	1198.957	983.140
1.571	24.698	1204.904	971.225
2.586	24.113	1220.197	980.242
3.600	23.493	1209.592	968.256
4.615	17.201	1136.779	877.495
5.629	7.021	1060.579	769.315
6.644	2.699	1040.127	733.768
7.659	2.241	1038.181	730.142
8.673	2.067	1036.938	728.375
9.688	2.154	1035.350	727.607
10.702	2.477	1033.463	727.751
11.717	8.537	1041.926	762.617
12.731	18.773	1056.849	822.756
13.746	24.266	1063.606	854.347
14.761	25.481	1064.330	860.676
15.775	25.565	1064.383	861.046
16.790	25.243	1063.749	858.917
17.804	25.313	1062.564	858.218
18.819	25.389	1062.649	858.576
19.834	25.399	1062.441	858.376
20.848	25.606	1061.648	858.649
21.863	25.634	1061.264	858.396
22.877	25.491	1060.310	856.866
23.892	25.380	1059.805	855.855
24.907	25.536	1059.218	856.047
25.921	25.492	1057.936	854.727
26.936	25.506	1056.518	853.573
27.950	25.386	1055.019	851.714
28.965	25.236	1053.566	849.758
29.980	25.478	1051.774	849.380
30.994	25.576	1051.024	849.164
32.009	25.540	1050.125	848.191
33.023	25.331	1049.233	846.408
34.038	25.448	1048.287	846.124
35.053	25.588	1047.184	845.818
36.067	25.588	1046.628	845.295
37.082	25.673	1045.843	844.983
38.096	25.628	1045.888	844.734
39.111	25.830	1044.452	844.446
40.126	25.583	1043.200	842.202
41.140	25.339	1041.195	839.369
42.155	25.036	1040.165	837.051
43.169	25.149	1039.335	836.835
44.184	25.257	1038.249	836.387
45.199	25.008	1037.296	834.387
46.213	25.147	1036.795	834.559
47.228	25.291	1035.835	834.381
48.242	25.518	1034.881	834.595
49.257	25.491	1034.525	834.107
50.271	25.604	1033.234	833.517
51.286	25.685	1032.660	833.352
52.301	25.586	1031.955	832.255
53.315	25.556	1030.893	831.183
54.330	25.510	1029.788	830.006
55.344	25.607	1029.134	829.855
56.359	25.545	1028.367	828.876
57.374	25.259	1027.699	826.947
58.388	25.205	1027.039	826.093
59.403	25.335	1025.186	825.130
60.417	25.097	1024.557	823.456
61.432	25.196	1024.305	823.636
62.447	25.284	1023.787	823.550
63.461	25.404	1022.675	823.133
64.476	25.318	1021.775	821.942
65.490	25.168	1021.094	820.636
66.505	25.329	1020.285	820.646
67.520	25.249	1020.014	819.993
68.534	24.944	1019.151	817.833
69.549	24.803	1017.465	815.767
70.563	24.705	1017.236	815.060
71.578	24.723	1016.002	814.084
72.593	24.574	1014.948	812.490
73.607	24.791	1014.488	813.036
74.622	24.985	1014.562	813.904
75.636	25.000	1013.630	813.150
76.651	24.957	1012.445	811.937
77.666	24.980	1011.502	811.210
78.680	24.986	1011.175	810.902
79.695	25.077	1010.569	810.757
80.709	25.006	1010.297	810.146
81.724	25.008	1009.447	809.404
82.739	25.204	1008.382	809.361
83.753	25.606	1008.034	810.821
84.768	25.722	1007.385	810.751
85.782	25.951	1006.569	811.054
86.797	25.818	1005.486	809.512
87.812	25.576	1004.855	807.844
88.826	25.657	1003.843	807.324
89.841	25.793	1002.678	806.926
90.855	25.789	1001.825	806.147
91.870	25.702	1001.335	805.295
92.884	25.790	999.519	804.153
93.899	25.628	998.735	802.732
94.914	25.857	998.139	803.201
95.928	25.582	997.238	801.181
96.943	25.344	996.082	799.121
97.957	25.221	994.500	797.235
98.972	25.060	993.634	795.756
99.987	25.311	993.338	796.564
101.001	25.455	992.852	796.740
102.016	25.521	991.667	796.012
103.030	25.304	990.903	794.368
104.045	25.165	990.081	793.022
105.060	25.169	988.873	792.003
106.074	25.227	988.130	791.595
107.089	25.585	987.824	792.857
108.103	25.392	986.851	791.158
109.118	25.265	985.498	789.446
110.133	25.262	984.447	788.516
111.147	25.108	983.421	786.950
112.162	24.960	982.326	785.356
113.176	25.164	982.070	785.977
114.191	25.238	981.123	785.472
115.206	24.834	980.046	782.775
116.220	24.762	979.312	781.804
117.235	24.990	978.778	782.303
118.249	24.947	977.654	781.148
119.264	24.796	977.065	779.951
120.279	24.786	976.619	779.482
121.293	24.970	975.852	779.601
122.308	24.894	974.509	778.131
123.322	24.761	973.555	776.722
124.337	24.726	971.940	775.214
125.352	24.181	970.593	771.711
126.366	24.129	969.944	770.900
127.381	25.016	970.015	774.725
128.395	25.360	969.153	775.454
129.410	25.341	968.523	774.799
130.424	25.438	967.380	774.235
131.439	25.352	966.433	773.040
132.454	25.498	965.227	772.633
133.468	25.508	964.141	771.741
134.483	25.457	964.371	771.636
135.497	25.705	963.524	771.952
136.512	25.636	962.585	770.838
137.527	25.772	961.503	770.486
138.541	25.651	960.692	769.252
139.556	25.748	959.815	768.894
140.570	25.745	959.270	768.377
141.585	25.767	958.127	767.485
142.600	25.604	957.689	766.374
143.614	25.920	956.666	766.830
144.629	26.057	955.818	766.665
145.643	25.897	954.565	764.913
146.658	25.617	953.456	762.772
147.673	25.716	952.268	762.173
148.687	25.554	951.609	760.891
149.702	25.302	950.964	759.245
150.716	25.462	949.357	758.570
151.731	25.505	949.336	758.667
152.746	25.863	948.264	759.251
153.760	25.808	948.195	758.897
154.775	25.947	947.079	758.523
155.789	25.835	946.276	757.342
156.804	25.913	945.481	756.967
157.819	25.786	945.142	756.095
158.833	25.955	944.425	756.159
159.848	26.050	943.429	755.694
160.862	25.778	941.919	753.281
161.877	25.799	941.069	752.623
162.892	25.955	940.092	752.425
163.906	25.731	939.062	750.600
164.921	25.883	937.952	750.279
165.935	25.964	937.165	749.920
166.950	25.845	936.395	748.745
167.964	25.756	935.790	747.825
168.979	25.723	934.649	746.712
169.994	25.724	933.264	745.544
171.008	26.009	932.923	746.381
172.023	25.949	932.144	745.445
173.037	25.726	931.248	743.740
174.052	25.566	930.204	742.180
175.067	25.562	929.827	741.798
176.081	25.631	929.406	741.683
177.096	25.644	928.696	741.103
178.110	25.340	927.916	739.162
179.125	25.034	927.359	737.396
180.140	25.194	926.803	737.546
181.154	25.555	926.197	738.481
182.169	25.674	926.505	739.150
183.183	25.795	925.908	739.105
184.198	25.888	924.422	738.237
185.213	25.786	923.886	737.323
186.227	25.848	923.615	737.298
187.242	26.029	922.835	737.346
188.256	25.901	922.483	736.479
189.271	26.148	921.056	736.280
190.286	25.675	920.859	734.131
191.300	25.019	918.839	729.785
192.315	24.276	917.421	725.572
193.329	24.136	917.026	724.624
194.344	25.301	917.218	729.448
195.359	25.727	917.169	731.074
196.373	25.893	916.893	731.463
197.388	25.796	916.017	730.307
198.402	25.816	915.901	730.231
199.417	25.745	915.228	729.345
200.432	25.506	914.007	727.340
201.446	25.221	913.801	725.958
202.461	25.373	913.288	726.099
203.475	24.514	911.002	720.754
204.490	23.800	909.906	716.943
205.504	24.817	910.256	721.259
206.519	25.384	910.078	723.334
207.534	25.404	909.617	722.987
208.548	25.786	909.630	724.470
209.563	25.627	908.276	722.687
210.577	25.462	907.900	721.663
211.592	25.922	907.600	723.205
212.607	26.097	906.628	723.069
213.621	25.919	906.223	721.968
214.636	25.904	905.462	721.241
215.650	25.899	904.492	720.381
216.665	26.054	903.968	720.521
217.680	25.964	903.160	719.455
218.694	25.571	902.050	716.941
219.709	25.326	901.566	715.516
220.723	25.712	900.935	716.487
221.738	25.813	900.472	716.459
222.753	25.752	899.949	715.738
223.767	25.921	899.214	715.760
224.782	26.212	899.078	716.741
225.796	26.109	898.567	715.865
226.811	25.383	896.812	711.526
227.826	24.938	895.267	708.477
228.840	25.008	895.181	708.626
229.855	24.907	894.420	707.559
230.869	24.601	893.589	705.631
231.884	25.087	893.571	707.472
232.899	25.814	893.716	710.395
233.913	25.835	892.713	709.618
234.928	25.675	892.554	708.797
235.942	25.496	891.938	707.541
236.957	25.210	891.184	705.754
237.972	25.292	890.638	705.582
238.986	25.502	889.684	705.589
240.001	25.450	889.193	704.933
241.015	25.576	888.611	704.905
242.030	25.647	888.227	704.816
243.045	25.737	888.226	705.103
244.059	25.914	887.260	704.966
245.074	25.673	886.437	703.308
246.088	25.392	885.385	701.314
247.103	25.566	885.788	702.252
248.117	26.320	885.197	704.663
249.132	26.541	884.618	705.000
250.147	26.539	884.159	704.565
251.161	26.686	884.005	704.952
252.176	26.580	883.812	704.323
253.190	26.665	882.921	703.880
254.205	26.946	882.345	704.452
255.220	26.776	881.460	703.022
256.234	26.483	881.147	701.574
257.249	26.620	880.380	701.431
258.263	26.637	879.486	700.722
259.278	26.738	878.865	700.559
260.293	26.696	878.287	699.874
261.307	26.564	878.035	699.100
262.322	26.556	876.815	698.036
263.336	25.687	874.639	692.897
264.351	24.659	873.290	687.814
265.366	24.821	872.988	688.138
266.380	25.952	873.435	692.777
267.395	26.249	873.393	693.825
268.409	26.310	872.713	693.458
269.424	26.477	872.062	693.519
270.439	26.573	871.236	693.169
271.453	26.542	870.941	692.753
272.468	26.668	870.865	693.115
273.482	26.831	870.021	693.004
274.497	26.347	868.982	690.268
275.512	25.978	868.195	688.174
276.526	26.545	868.065	690.172
277.541	26.404	868.124	689.621
278.555	26.343	866.759	688.241
279.570	26.131	866.441	687.121
280.585	26.325	865.669	687.187
281.599	26.279	864.870	686.315
282.614	25.687	863.469	682.901
283.628	25.759	863.277	682.959
284.643	26.105	863.052	684.034
285.657	25.677	861.828	681.383
286.672	25.458	861.197	679.994
287.687	25.953	861.037	681.680
288.701	26.018	860.763	681.649
289.716	25.794	859.612	679.830
290.730	25.672	859.254	679.026
291.745	25.416	858.390	677.319
292.760	25.760	858.358	678.532
293.774	26.760	858.626	682.450
294.789	27.040	857.839	682.818
295.803	27.055	857.463	682.516
296.818	26.973	857.047	681.814
297.833	26.525	855.617	678.937
298.847	26.497	855.110	678.370
299.862	26.727	855.293	679.316
300.876	26.993	855.005	680.024
301.891	26.821	854.350	678.798
302.906	26.562	852.831	676.563
303.920	26.625	852.744	676.669
304.935	27.061	852.313	677.896
305.949	26.908	851.792	676.852
306.964	26.739	851.039	675.563
307.979	26.704	850.537	674.976
308.993	27.204	850.448	676.707
310.008	27.185	849.990	676.212
311.022	26.820	849.163	674.137
312.037	26.693	848.504	673.083
313.052	26.535	847.398	671.560
314.066	25.537	845.954	666.655
315.081	25.204	845.288	664.837
316.095	26.193	845.702	668.772
317.110	26.442	845.508	669.481
318.125	25.786	843.958	665.768
319.139	24.791	842.503	660.889
320.154	24.765	842.040	660.370
321.168	25.519	843.126	663.950
322.183	26.266	842.923	666.489
323.197	26.591	842.110	666.984
324.212	26.726	841.886	667.246
325.227	26.644	841.791	666.806
326.241	26.624	840.544	665.687
327.256	26.502	840.094	664.823
328.270	26.410	839.122	663.657
329.285	26.286	838.391	662.568
330.300	26.057	837.434	660.914
331.314	26.260	837.712	661.819
332.329	26.821	837.456	663.611
333.343	26.900	837.091	663.551
334.358	26.828	836.811	663.009
335.373	26.929	836.155	662.798
336.387	27.218	836.306	663.917
337.402	27.375	835.877	664.088
338.416	27.346	835.641	663.738
339.431	27.420	835.525	663.854
340.446	27.618	835.015	664.114
341.460	27.299	834.726	662.664
342.475	27.142	833.894	661.371
343.489	27.357	833.243	661.580
344.504	27.596	833.152	662.316
345.519	27.737	832.725	662.430
346.533	27.747	832.264	662.041
347.548	27.673	831.854	661.390
348.562	27.662	831.601	661.090
349.577	27.597	831.094	660.393
350.592	27.534	830.359	659.520
351.606	27.672	829.288	659.111
352.621	27.398	828.525	657.459
353.635	27.391	827.906	656.884
354.650	26.778	826.223	653.281
355.665	25.786	825.155	648.806
356.679	26.323	824.702	650.326
357.694	26.646	824.552	651.312
358.708	26.605	823.951	650.633
359.723	26.894	823.928	651.595
360.738	27.396	823.483	652.986
361.752	27.505	823.024	652.956
362.767	27.713	822.616	653.318
363.781	27.842	822.757	653.836
364.796	28.052	822.020	653.941
365.810	28.133	821.725	653.941
366.825	28.065	820.982	653.047
367.840	27.640	820.642	651.202
368.854	27.405	819.681	649.544
369.869	27.339	819.072	648.768
370.883	27.484	818.565	648.827
371.898	27.341	818.328	648.071
372.913	27.431	817.790	647.908
373.927	27.488	817.511	647.833
374.942	27.759	817.115	648.425
375.956	27.727	816.658	647.889
376.971	27.849	816.041	647.775
377.986	28.005	815.971	648.217
379.000	27.958	815.721	647.795
380.015	27.884	814.726	646.686
381.029	27.836	814.524	646.298
382.044	28.077	813.877	646.580
383.059	28.159	813.084	646.180
384.073	28.093	812.784	645.654
385.088	28.126	811.702	644.852
386.102	27.855	810.928	643.227
387.117	27.792	810.471	642.585
388.132	27.268	809.364	639.807
389.146	26.753	808.731	637.442
390.161	27.233	808.461	638.859
391.175	27.756	808.388	640.580
392.190	27.465	807.256	638.606
393.205	25.862	805.533	631.573
394.219	24.475	803.639	625.180
395.234	24.426	803.361	624.735
396.248	26.155	804.803	631.858
397.263	27.595	805.512	637.397
398.278	27.596	804.822	636.801
399.292	27.144	804.823	635.164
400.307	27.188	804.126	634.712
401.321	27.343	803.886	635.007
402.336	27.597	803.966	635.902
403.350	28.044	803.634	637.139
404.365	28.532	803.504	638.681
405.380	28.709	803.189	638.989
406.394	28.812	802.561	638.792
407.409	28.800	801.852	638.128
408.423	28.623	801.850	637.457
409.438	28.714	801.625	637.539
410.453	28.725	800.995	637.018
411.467	28.566	800.650	636.135
412.482	28.726	800.299	636.355
413.496	28.888	799.456	636.188
414.511	28.757	799.210	635.484
415.526	28.497	799.094	634.435
416.540	28.477	798.325	633.701
417.555	28.324	797.462	632.430
418.569	28.457	797.001	632.468
419.584	28.432	796.517	631.944
420.599	28.203	795.844	630.562
421.613	112.573	1286.762	1461.443
422.628	97.054	1358.272	1461.541
