DTS Sentinel unit serial number:	SN413079Multiplexer serial number:	ORYXHardware model number:	OX4-SRSoftware version number:	ORYX F/W v4.00 Oryx Data Collector v3.7.2.0data status	okinstallation	princeton_trtdifferential loss correction	single-endedforward channel	channel 1reverse channel	N/Adate	2019/09/11time	13:28:11forward acquisition time	60.00reverse acquisition time	0.00gamma	496.2192k internal	0.2294k external	0.2294temperature offset calibration	0.9985default loss term (dB/km)	0.3790temperature slope calibration	1.0000multiplexer offset coefficient	1.0000multiplexer slope coefficient	1.0000fibre end	0.00T internal ref (°C)	41.94T ext. ref 1 (°C)	0.83T ext. ref 2 (°C)	37.08length (m)	temperature (°C)	Stokes	anti-Stokes-747.200	-103.211	0.379	0.092
-746.185	-200.000	0.021	0.418
-745.171	180.720	-0.147	-0.220
-744.156	800.000	0.047	0.179
-743.142	206.300	0.071	0.113
-742.127	471.642	-0.081	0.187
-741.112	130.769	0.045	-0.059
-740.098	458.163	-0.139	0.317
-739.083	77.567	0.091	0.099
-738.069	156.042	-0.199	0.281
-737.054	363.938	0.084	0.172
-736.039	-95.253	-0.292	0.080
-735.025	-200.000	0.008	0.175
-734.010	-122.620	-0.039	-0.006
-732.996	-51.928	0.210	-0.100
-731.981	-136.292	0.216	-0.026
-730.966	-200.000	-0.003	0.297
-729.952	-15.052	-0.072	0.047
-728.937	177.220	-0.030	-0.044
-727.923	-158.227	0.155	0.009
-726.908	151.842	-0.314	0.437
-725.894	234.731	-0.158	-0.266
-724.879	-125.795	0.161	0.025
-723.864	-105.201	-0.325	-0.076
-722.850	62.039	-0.208	0.212
-721.835	800.000	-0.061	-0.213
-720.821	-200.000	0.013	-0.068
-719.806	462.101	-0.009	-0.020
-718.791	209.703	0.034	0.055
-717.777	-200.000	0.041	0.487
-716.762	122.005	-0.220	-0.281
-715.748	-200.000	-0.046	-0.319
-714.733	-97.314	-0.045	-0.012
-713.718	-200.000	0.014	-0.151
-712.704	800.000	-0.057	-0.237
-711.689	16.647	0.016	0.013
-710.675	-43.554	0.210	0.108
-709.660	336.164	-0.024	-0.047
-708.645	12.235	0.138	-0.108
-707.631	-200.000	-0.007	-0.066
-706.616	-10.628	-0.124	-0.084
-705.602	800.000	0.031	-0.107
-704.587	-154.927	-0.588	0.040
-703.572	-200.000	0.016	0.282
-702.558	-153.860	-0.210	-0.015
-701.543	-200.000	-0.058	-0.317
-700.529	800.000	-0.073	0.303
-699.514	-128.957	-0.294	-0.042
-698.499	317.343	0.161	0.311
-697.485	77.064	0.095	0.103
-696.470	-82.038	0.029	0.010
-695.456	22.456	-0.090	-0.075
-694.441	-134.527	-0.228	-0.028
-693.426	800.000	-0.016	-0.048
-692.412	20.448	0.166	0.137
-691.397	33.823	0.199	-0.176
-690.383	-5.628	-0.111	-0.078
-689.368	-22.977	-0.161	0.099
-688.354	292.565	0.080	0.149
-687.339	800.000	0.092	0.261
-686.324	543.983	0.058	-0.142
-685.310	-100.977	0.428	-0.107
-684.295	79.464	0.016	0.018
-683.281	-94.375	-0.225	0.063
-682.266	-124.267	-0.263	-0.042
-681.251	201.441	-0.123	-0.194
-680.237	141.861	0.099	-0.133
-679.222	800.000	-0.012	-0.038
-678.208	290.003	-0.128	-0.236
-677.193	-200.000	0.010	0.317
-676.178	-86.926	-0.125	0.039
-675.164	-200.000	0.028	-0.274
-674.149	61.192	-0.076	-0.077
-673.135	511.045	0.126	-0.299
-672.120	800.000	0.107	-0.369
-671.105	-157.972	-0.414	-0.025
-670.091	-200.000	0.007	0.302
-669.076	51.390	0.084	0.081
-668.062	800.000	0.091	0.365
-667.047	-102.329	-0.110	0.027
-666.032	13.392	-0.308	0.243
-665.018	-200.000	-0.008	0.076
-664.003	37.038	-0.235	0.212
-662.989	-99.013	-0.274	-0.071
-661.974	256.888	-0.078	0.136
-660.959	-129.881	-0.111	0.016
-659.945	-68.228	-0.159	0.063
-658.930	-75.890	-0.069	0.025
-657.916	-200.000	0.008	0.060
-656.901	-75.714	0.350	-0.126
-655.886	385.304	-0.049	-0.103
-654.872	118.304	-0.228	-0.287
-653.857	800.000	-0.043	-0.166
-652.843	-88.450	-0.124	0.038
-651.828	125.061	0.189	0.243
-650.814	136.980	-0.116	0.155
-649.799	800.000	0.093	0.277
-648.784	-64.897	0.335	0.138
-647.770	-200.000	0.070	0.541
-646.755	-141.352	0.275	-0.028
-645.741	161.180	-0.249	-0.354
-644.726	105.482	-0.208	-0.250
-643.711	117.552	0.023	-0.028
-642.697	291.352	0.071	-0.131
-641.682	-80.990	0.354	0.120
-640.668	-200.000	-0.046	-0.340
-639.653	800.000	-0.068	-0.229
-638.638	18.840	0.174	-0.142
-637.624	-200.000	0.021	-0.133
-636.609	-200.000	-0.008	-0.158
-635.595	405.542	0.107	-0.231
-634.580	-51.876	0.086	0.041
-633.565	35.564	-0.376	-0.337
-632.551	-200.000	-0.012	0.069
-631.536	-12.880	0.365	0.242
-630.522	-41.421	0.183	0.096
-629.507	-79.848	0.049	0.017
-628.492	151.442	-0.157	0.217
-627.478	237.955	0.023	-0.038
-626.463	-200.000	0.009	-0.184
-625.449	800.000	0.017	0.051
-624.434	-119.915	0.419	0.073
-623.419	187.734	0.140	0.213
-622.405	-85.458	-0.052	-0.016
-621.390	-200.000	-0.033	-0.196
-620.376	233.003	0.073	-0.122
-619.361	-47.347	0.068	0.033
-618.346	481.659	0.049	0.114
-617.332	-200.000	-0.079	0.407
-616.317	-81.303	-0.315	0.106
-615.303	12.389	0.309	-0.242
-614.288	-41.519	-0.176	-0.092
-613.273	20.609	-0.329	0.271
-612.259	330.176	-0.096	0.189
-611.244	-200.000	-0.016	-0.323
-610.230	22.617	0.341	0.284
-609.215	417.798	0.028	0.060
-608.201	-200.000	0.005	-0.153
-607.186	750.762	-0.101	0.278
-606.171	-46.118	-0.190	-0.095
-605.157	-55.407	-0.078	-0.035
-604.142	-26.790	-0.258	0.153
-603.128	-135.616	-0.532	-0.064
-602.113	231.454	-0.084	-0.140
-601.098	-200.000	0.007	0.086
-600.084	272.974	-0.075	0.135
-599.069	-158.792	-0.249	0.014
-598.055	-138.049	0.158	0.018
-597.040	13.537	-0.201	0.159
-596.025	-103.090	-0.404	-0.097
-595.011	-115.950	-0.182	0.034
-593.996	-200.000	0.035	0.239
-592.982	-200.000	-0.012	0.151
-591.967	95.165	-0.040	0.047
-590.952	-161.150	0.270	0.014
-589.938	800.000	-0.122	0.470
-588.923	428.119	-0.007	-0.016
-587.909	-33.584	-0.447	-0.251
-586.894	-116.551	-0.282	-0.053
-585.879	10.386	-0.123	0.095
-584.865	-23.447	-0.367	-0.224
-583.850	-153.969	0.097	0.007
-582.836	487.770	-0.055	-0.128
-581.821	-190.921	0.396	0.004
-580.806	-200.000	0.007	-0.032
-579.792	-86.126	-0.096	0.030
-578.777	-200.000	0.034	-0.157
-577.763	-200.000	-0.006	0.239
-576.748	-200.000	0.086	0.408
-575.733	72.615	-0.168	0.178
-574.719	218.937	0.121	-0.196
-573.704	24.530	-0.065	-0.055
-572.690	-28.268	-0.062	-0.036
-571.675	-59.256	-0.089	0.039
-570.661	-44.604	0.418	-0.212
-569.646	31.623	0.147	0.128
-568.631	800.000	-0.036	-0.129
-567.617	68.550	-0.286	-0.297
-566.602	29.466	0.147	-0.127
-565.588	-9.215	-0.109	0.074
-564.573	800.000	0.135	0.435
-563.558	-83.426	-0.208	0.068
-562.544	-89.336	0.221	-0.066
-561.529	-200.000	0.021	-0.356
-560.515	370.971	-0.139	0.286
-559.500	-200.000	-0.075	-0.395
-558.485	185.406	-0.082	-0.123
-557.471	0.111	-0.153	0.111
-556.456	483.717	-0.146	0.336
-555.442	-100.970	-0.315	0.078
-554.427	-95.932	0.132	-0.036
-553.412	-200.000	0.008	0.278
-552.398	80.988	0.055	0.060
-551.383	-22.465	0.280	0.172
-550.369	-200.000	0.007	-0.189
-549.354	-128.824	0.271	0.039
-548.339	-74.154	0.112	0.041
-547.325	10.397	0.161	0.124
-546.310	-73.026	0.211	-0.079
-545.296	6.361	-0.187	0.141
-544.281	-200.000	0.069	-0.403
-543.266	278.804	0.280	-0.506
-542.252	-61.951	0.152	0.064
-541.237	-200.000	-0.022	-0.130
-540.223	80.519	-0.161	-0.176
-539.208	76.821	-0.290	-0.312
-538.193	81.178	-0.106	0.116
-537.179	330.173	0.032	0.062
-536.164	-130.452	0.297	-0.041
-535.150	326.436	-0.168	0.326
-534.135	48.971	0.161	0.153
-533.121	507.250	-0.021	0.050
-532.106	7.892	-0.154	-0.117
-531.091	800.000	-0.110	-0.350
-530.077	800.000	0.029	-0.112
-529.062	45.324	0.064	0.060
-528.048	177.033	-0.053	0.079
-527.033	5.154	0.181	-0.135
-526.018	-99.202	0.202	0.052
-525.004	-97.627	-0.141	0.037
-523.989	64.617	-0.088	0.090
-522.975	800.000	0.099	0.369
-521.960	258.721	-0.024	-0.043
-520.945	-200.000	-0.015	-0.346
-519.931	800.000	0.061	-0.182
-518.916	-200.000	0.057	-0.467
-517.902	37.116	-0.086	-0.077
-516.887	479.239	-0.055	0.125
-515.872	30.855	-0.333	-0.289
-514.858	27.928	0.295	0.252
-513.843	44.241	0.220	0.204
-512.829	26.188	-0.059	-0.050
-511.814	-60.175	0.049	-0.021
-510.799	-75.818	-0.187	0.067
-509.785	5.082	0.063	0.047
-508.770	-95.785	0.095	0.026
-507.756	-200.000	0.098	-0.494
-506.741	-180.028	0.169	-0.004
-505.726	-45.735	0.131	-0.065
-504.712	82.133	0.109	-0.120
-503.697	495.364	-0.101	-0.236
-502.683	-200.000	0.002	0.081
-501.668	-135.812	0.134	0.016
-500.653	110.357	0.092	0.112
-499.639	365.822	-0.113	-0.231
-498.624	420.971	-0.035	0.075
-497.610	32.650	-0.258	0.226
-496.595	745.751	0.018	0.050
-495.581	166.598	0.019	-0.027
-494.566	800.000	-0.084	-0.323
-493.551	126.863	0.129	0.165
-492.537	-130.876	0.276	0.037
-491.522	-200.000	-0.040	0.347
-490.508	-140.626	-0.045	-0.005
-489.493	489.598	0.044	0.102
-488.478	-160.567	0.221	0.012
-487.464	366.299	0.096	-0.195
-486.449	-65.006	0.263	0.107
-485.435	-57.172	0.065	-0.029
-484.420	92.922	0.272	-0.311
-483.405	800.000	-0.023	0.088
-482.391	-93.562	0.118	-0.033
-481.376	-200.000	0.005	-0.033
-480.362	-17.954	0.269	-0.171
-479.347	-26.395	-0.264	-0.156
-478.332	216.598	-0.094	0.152
-477.318	-95.527	-0.076	-0.021
-476.303	-126.927	0.061	-0.009
-475.289	173.539	-0.136	0.199
-474.274	-77.128	-0.194	-0.069
-473.259	-147.620	0.076	0.006
-472.245	-67.531	0.321	-0.127
-471.230	-98.690	-0.335	0.086
-470.216	-81.321	0.386	-0.129
-469.201	-100.661	-0.079	0.020
-468.186	62.597	0.191	-0.193
-467.172	-59.370	-0.140	0.061
-466.157	-200.000	-0.030	0.215
-465.143	24.270	-0.144	0.121
-464.128	-45.751	0.165	-0.082
-463.113	-130.410	-0.507	-0.069
-462.099	-55.815	-0.212	0.096
-461.084	22.274	-0.347	0.286
-460.070	-75.631	0.144	-0.052
-459.055	-15.057	0.235	0.152
-458.040	-132.732	-0.153	0.020
-457.026	450.527	-0.120	0.267
-456.011	-17.182	-0.156	-0.100
-454.997	-146.438	0.164	-0.015
-453.982	46.863	0.150	0.141
-452.968	-200.000	0.060	-0.327
-451.953	-58.810	-0.433	-0.189
-450.938	-117.466	0.332	0.061
-449.924	800.000	0.054	0.202
-448.909	800.000	0.084	0.254
-447.895	384.717	-0.182	0.379
-446.880	-106.149	0.201	-0.046
-445.865	800.000	0.033	-0.095
-444.851	84.881	-0.186	-0.206
-443.836	-14.104	-0.132	-0.086
-442.822	280.340	0.013	-0.024
-441.807	-140.028	-0.429	0.046
-440.792	-17.541	0.062	0.039
-439.778	32.574	0.069	0.060
-438.763	11.996	-0.131	0.102
-437.749	-14.627	0.267	-0.174
-436.734	-91.810	0.178	-0.051
-435.719	5.588	-0.133	-0.099
-434.705	100.146	-0.012	0.014
-433.690	-200.000	0.049	0.367
-432.676	-57.096	0.105	0.047
-431.661	24.505	0.267	0.223
-430.646	-136.188	-0.426	0.050
-429.632	388.011	-0.095	-0.198
-428.617	245.402	0.145	0.247
-427.603	-200.000	0.053	-0.295
-426.588	527.873	-0.058	0.137
-425.573	30.145	-0.224	0.193
-424.559	61.417	-0.382	-0.383
-423.544	-200.000	-0.018	-0.088
-422.530	469.453	-0.096	-0.218
-421.515	-200.000	0.024	-0.133
-420.500	563.989	-0.118	-0.288
-419.486	-93.661	-0.439	-0.122
-418.471	-72.821	-0.112	0.042
-417.457	800.000	-0.015	0.060
-416.442	199.512	0.036	-0.056
-415.428	800.000	-0.139	-0.395
-414.413	-68.728	0.181	-0.071
-413.398	241.956	0.167	0.282
-412.384	-198.033	0.256	0.002
-411.369	-200.000	0.001	0.191
-410.355	-84.596	0.184	0.058
-409.340	-174.893	0.469	0.013
-408.325	-146.393	-0.143	-0.013
-407.311	-200.000	-0.020	0.356
-406.296	-120.097	0.182	-0.031
-405.282	-200.000	0.017	-0.190
-404.267	-200.000	-0.019	0.098
-403.252	-105.580	-0.264	-0.060
-402.238	-200.000	0.008	-0.217
-401.223	-200.000	0.048	0.425
-400.209	-200.000	0.048	-0.362
-399.194	-200.000	0.071	0.326
-398.179	304.151	-0.096	-0.180
-397.165	-127.483	0.108	0.016
-396.150	-200.000	0.012	-0.119
-395.136	800.000	0.054	0.191
-394.121	-200.000	0.017	0.115
-393.106	773.552	-0.084	-0.231
-392.092	-69.895	-0.265	-0.102
-391.077	473.831	-0.043	0.099
-390.063	-200.000	-0.019	-0.108
-389.048	-200.000	0.014	-0.225
-388.033	48.308	-0.158	0.149
-387.019	-35.892	-0.286	0.156
-386.004	387.798	-0.055	-0.114
-384.990	191.396	0.062	-0.094
-383.975	-200.000	0.000	-0.268
-382.960	-61.402	-0.432	0.183
-381.946	8.884	0.186	0.141
-380.931	-89.594	0.218	0.065
-379.917	-117.246	-0.074	-0.013
-378.902	-80.414	0.110	0.037
-377.888	47.388	0.134	0.126
-376.873	-48.869	-0.216	-0.105
-375.858	-200.000	-0.072	0.349
-374.844	800.000	-0.087	0.258
-373.829	701.611	-0.047	0.124
-372.815	-125.947	0.095	0.014
-371.800	-60.675	0.318	0.136
-370.785	-200.000	0.046	0.318
-369.771	70.872	-0.161	0.168
-368.756	-200.000	0.012	0.160
-367.742	73.412	0.165	-0.174
-366.727	-164.582	-0.300	0.014
-365.712	-200.000	-0.034	-0.243
-364.698	-31.607	-0.369	-0.209
-363.683	-136.793	0.172	0.020
-362.669	-200.000	-0.020	-0.286
-361.654	-200.000	-0.007	0.064
-360.639	-42.100	0.323	-0.166
-359.625	527.444	0.041	0.097
-358.610	25.688	-0.177	0.149
-357.596	-157.616	-0.317	0.019
-356.581	-90.452	0.288	0.084
-355.566	-25.740	-0.100	0.059
-354.552	689.374	0.176	-0.465
-353.537	-200.000	-0.017	-0.178
-352.523	758.526	0.059	0.161
-351.508	-61.029	-0.330	-0.140
-350.493	-200.000	-0.001	-0.428
-349.479	-64.514	-0.335	0.137
-348.464	800.000	-0.067	0.194
-347.450	-144.963	-0.125	-0.012
-346.435	800.000	0.115	-0.427
-345.420	800.000	-0.055	-0.213
-344.406	411.347	0.092	0.197
-343.391	-121.744	0.197	0.033
-342.377	144.143	0.018	-0.024
-341.362	167.899	-0.063	0.090
-340.348	70.091	-0.224	-0.232
-339.333	800.000	0.064	-0.209
-338.318	7.345	-0.170	0.128
-337.304	-141.991	0.058	0.006
-336.289	2.864	0.073	0.053
-335.275	-200.000	0.027	-0.183
-334.260	-200.000	-0.022	-0.247
-333.245	-171.578	0.137	-0.005
-332.231	250.582	0.104	0.178
-331.216	99.964	0.398	-0.465
-330.202	-57.793	0.314	-0.138
-329.187	800.000	-0.020	-0.064
-328.172	-41.278	0.083	-0.043
-327.158	-126.783	0.156	-0.023
-326.143	-200.000	0.005	-0.381
-325.129	331.332	0.043	0.084
-324.114	-23.534	-0.024	0.015
-323.099	-150.966	0.171	0.013
-322.085	-200.000	-0.019	0.521
-321.070	-19.328	0.088	0.055
-320.056	-200.000	-0.015	-0.261
-319.041	-122.612	0.464	0.076
-318.026	-103.267	-0.088	0.021
-317.012	-50.161	0.091	0.043
-315.997	-200.000	-0.007	-0.320
-314.983	-114.187	-0.390	0.076
-313.968	-200.000	0.033	-0.221
-312.953	-200.000	-0.006	0.277
-311.939	800.000	-0.104	-0.422
-310.924	40.031	0.222	0.201
-309.910	-110.282	-0.271	-0.057
-308.895	-41.726	-0.284	0.146
-307.880	35.078	-0.198	-0.174
-306.866	-102.559	0.138	-0.033
-305.851	-53.883	-0.220	-0.101
-304.837	38.344	0.282	0.253
-303.822	-81.319	0.293	0.097
-302.807	-95.399	-0.196	-0.053
-301.793	-79.605	-0.256	-0.087
-300.778	-200.000	-0.012	-0.088
-299.764	800.000	0.073	0.250
-298.749	800.000	0.018	0.054
-297.735	-114.509	-0.192	-0.037
-296.720	-126.228	-0.461	-0.069
-295.705	71.196	-0.225	-0.235
-294.691	800.000	0.038	0.112
-293.676	-1.263	0.234	-0.166
-292.662	800.000	-0.073	-0.221
-291.647	-200.000	-0.021	0.137
-290.632	-23.932	0.072	-0.043
-289.618	-154.102	-0.269	0.018
-288.603	91.706	-0.206	0.233
-287.589	262.689	0.126	0.220
-286.574	-73.859	0.111	0.041
-285.559	-200.000	-0.028	0.151
-284.545	-58.679	0.076	-0.033
-283.530	56.029	0.210	0.205
-282.516	-155.285	0.338	-0.022
-281.501	221.765	0.045	0.072
-280.486	160.323	0.148	0.207
-279.472	-200.000	0.010	0.129
-278.457	113.326	-0.082	-0.100
-277.443	423.319	-0.032	0.069
-276.428	19.116	-0.142	-0.115
-275.413	-200.000	0.064	0.382
-274.399	80.748	0.109	0.118
-273.384	162.133	0.096	0.135
-272.370	-161.646	0.135	-0.007
-271.355	-15.895	0.281	-0.179
-270.340	800.000	-0.089	0.330
-269.326	40.467	0.167	0.151
-268.311	59.455	-0.108	0.107
-267.297	-119.945	-0.213	-0.037
-266.282	127.666	0.107	0.137
-265.267	427.304	0.009	-0.019
-264.253	-200.000	-0.035	-0.189
-263.238	-127.845	0.272	0.039
-262.224	31.075	-0.064	-0.055
-261.209	-200.000	0.050	0.404
-260.195	-93.300	0.257	-0.072
-259.180	-11.357	0.325	-0.214
-258.165	-87.832	0.501	-0.151
-257.151	547.129	-0.026	0.062
-256.136	103.418	-0.107	-0.126
-255.122	-200.000	0.015	0.124
-254.107	60.702	-0.322	-0.320
-253.092	-68.113	-0.078	0.031
-252.078	-6.174	-0.077	0.053
-251.063	-200.000	-0.033	-0.247
-250.049	58.683	-0.034	-0.033
-249.034	35.041	-0.459	0.404
-248.019	-200.000	-0.010	-0.250
-247.005	-2.804	0.397	-0.279
-245.990	-81.609	0.049	-0.016
-244.976	245.238	0.150	-0.254
-243.961	-151.143	-0.179	-0.013
-242.946	474.138	0.137	-0.310
-241.932	181.758	0.090	0.133
-240.917	-58.745	-0.305	-0.133
-239.903	-200.000	-0.045	0.220
-238.888	-99.221	-0.311	0.079
-237.873	-36.180	0.356	-0.193
-236.859	-74.875	-0.070	-0.025
-235.844	168.575	-0.092	-0.132
-234.830	14.163	-0.166	0.130
-233.815	-50.356	-0.199	-0.094
-232.800	20.437	0.277	-0.224
-231.786	800.000	-0.040	-0.158
-230.771	-4.786	0.325	0.224
-229.757	286.155	0.074	-0.133
-228.742	-58.485	-0.294	-0.128
-227.727	-138.539	-0.140	-0.015
-226.713	-200.000	0.013	-0.187
-225.698	-200.000	-0.052	0.266
-224.684	46.661	0.286	0.266
-223.669	34.632	0.322	0.282
-222.655	-200.000	0.039	-0.178
-221.640	373.326	-0.060	0.122
-220.625	-200.000	-0.030	0.278
-219.611	17.370	-0.052	-0.041
-218.596	704.531	-0.070	0.185
-217.582	534.970	-0.219	-0.519
-216.567	-13.244	0.134	-0.087
-215.552	-111.891	0.110	-0.022
-214.538	800.000	0.139	-0.486
-213.523	-160.195	0.423	-0.023
-212.509	-0.814	-0.116	-0.082
-211.494	-39.936	0.110	0.058
-210.479	2.778	-0.291	-0.212
-209.465	-53.410	-0.143	-0.066
-208.450	-43.107	0.295	-0.150
-207.436	-45.495	-0.090	-0.045
-206.421	-22.212	0.109	-0.066
-205.406	589.575	0.066	0.162
-204.392	-66.058	-0.076	0.030
-203.377	-200.000	0.011	0.231
-202.363	-160.467	-0.325	0.017
-201.348	-65.850	0.113	0.045
-200.333	650.127	-0.135	0.347
-199.319	181.956	0.067	0.099
-198.304	-31.074	0.093	-0.052
-197.290	-35.462	0.024	-0.013
-196.275	-200.000	0.005	-0.140
-195.260	291.858	0.046	0.083
-194.246	-89.930	0.209	0.061
-193.231	65.409	-0.074	0.074
-192.217	186.181	0.164	0.244
-191.202	-92.384	0.233	-0.066
-190.187	-200.000	-0.008	-0.378
-189.173	-70.862	-0.121	0.045
-188.158	-200.000	-0.032	-0.143
-187.144	-60.425	0.307	0.131
-186.129	13.274	-0.473	0.367
-185.114	174.304	-0.295	-0.427
-184.100	-132.601	-0.186	0.024
-183.085	175.635	0.232	-0.336
-182.071	-14.891	-0.151	0.097
-181.056	-200.000	0.005	0.064
-180.042	800.000	0.039	0.134
-179.027	15.069	0.152	-0.119
-178.012	380.582	0.141	0.289
-176.998	76.270	0.114	0.121
-175.983	191.913	-0.135	-0.204
-174.969	-142.223	-0.274	-0.027
-173.954	-200.000	-0.013	0.154
-172.939	-85.996	0.286	0.089
-171.925	268.752	0.109	0.191
-170.910	521.660	0.101	0.237
-169.896	255.100	0.103	-0.176
-168.881	-142.905	-0.498	-0.048
-167.866	-110.716	0.009	0.002
-166.852	-200.000	-0.022	0.350
-165.837	96.611	-0.175	0.201
-164.823	409.213	-0.094	0.200
-163.808	800.000	0.041	0.175
-162.793	11.877	0.233	0.179
-161.779	656.843	-0.118	0.303
-160.764	42.110	-0.087	-0.079
-159.750	-95.196	-0.086	0.023
-158.735	800.000	0.068	0.208
-157.720	-86.364	0.476	0.146
-156.706	800.000	-0.090	0.392
-155.691	135.353	0.150	-0.195
-154.677	46.551	-0.065	0.060
-153.662	800.000	-0.044	0.153
-152.647	27.096	-0.254	-0.213
-151.633	-200.000	0.033	-0.180
-150.618	49.300	0.009	0.008
-149.604	-42.675	0.034	-0.017
-148.589	-122.510	0.261	-0.042
-147.574	800.000	0.107	-0.315
-146.560	-200.000	-0.002	-0.025
-145.545	-200.000	-0.004	0.331
-144.531	3.509	-0.047	0.034
-143.516	-40.727	0.173	-0.089
-142.502	-107.149	-0.253	0.056
-141.487	-200.000	-0.018	0.237
-140.472	-117.602	-0.110	-0.020
-139.458	800.000	0.023	0.071
-138.443	719.121	-0.095	0.251
-137.429	-200.000	-0.000	-0.092
-136.414	800.000	-0.032	0.119
-135.399	22.015	-0.185	0.151
-134.385	-200.000	-0.012	0.086
-133.370	-68.511	0.142	0.055
-132.356	-51.758	0.226	0.105
-131.341	-14.421	0.182	-0.117
-130.326	-200.000	0.027	-0.167
-129.312	6.676	-0.102	0.076
-128.297	782.493	-0.088	-0.242
-127.283	800.000	-0.071	-0.283
-126.268	733.836	-0.060	-0.162
-125.253	104.010	0.089	-0.105
-124.239	-200.000	0.044	-0.264
-123.224	-149.668	-0.050	-0.004
-122.210	-10.737	0.074	0.049
-121.195	-143.230	-0.242	-0.023
-120.180	-90.952	0.102	0.029
-119.166	-110.099	-0.471	-0.098
-118.151	-6.084	-0.161	-0.110
-117.137	-24.959	-0.306	-0.181
-116.122	333.314	0.176	-0.340
-115.107	-15.664	-0.237	0.151
-114.093	-200.000	0.021	0.187
-113.078	34.187	-0.130	0.113
-112.064	-6.004	0.364	-0.248
-111.049	625.081	-0.077	0.193
-110.034	139.409	-0.203	-0.267
-109.020	4.836	-0.129	-0.095
-108.005	-200.000	-0.033	0.335
-106.991	-61.950	-0.296	-0.123
-105.976	-151.862	0.400	-0.029
-104.962	111.651	0.204	-0.245
-103.947	-51.016	-0.129	0.060
-102.932	9.618	-0.181	0.137
-101.918	59.190	0.273	0.268
-100.903	158.016	-0.099	0.136
-99.889	-200.000	-0.005	-0.201
-98.874	30.384	0.251	-0.214
-97.859	635.633	0.191	-0.482
-96.845	325.354	-0.067	-0.127
-95.830	412.275	0.192	0.406
-94.816	-200.000	0.009	0.112
-93.801	-200.000	-0.011	0.175
-92.786	-200.000	-0.045	-0.196
-91.772	-10.310	-0.092	-0.061
-90.757	66.508	0.113	0.114
-89.743	-200.000	-0.033	0.272
-88.728	-200.000	0.008	0.206
-87.713	-136.180	0.185	0.022
-86.699	9.238	0.228	0.172
-85.684	-31.751	0.140	-0.078
-84.670	77.988	0.057	0.061
-83.655	-160.690	0.249	-0.013
-82.640	-73.899	-0.121	0.044
-81.626	-57.036	0.111	-0.049
-80.611	-29.218	-0.276	-0.157
-79.597	199.397	-0.270	-0.412
-78.582	-111.460	0.227	0.046
-77.567	800.000	-0.037	-0.146
-76.553	-200.000	0.016	-0.170
-75.538	40.507	-0.096	-0.086
-74.524	-200.000	0.048	0.247
-73.509	-200.000	0.003	0.023
-72.494	72.912	-0.216	0.225
-71.480	-81.725	-0.031	0.010
-70.465	-186.538	0.320	-0.005
-69.451	206.281	-0.030	-0.046
-68.436	-75.501	0.139	-0.049
-67.422	-200.000	0.001	0.072
-66.407	800.000	-0.031	0.085
-65.392	-123.229	-0.058	0.009
-64.378	-101.361	-0.179	-0.043
-63.363	-200.000	-0.040	-0.232
-62.349	-200.000	-0.256	0.001
-61.334	126.976	-0.681	-0.860
-60.319	266.804	0.405	0.705
-59.305	-200.000	-0.060	-0.658
-58.290	99.899	0.708	0.817
-57.276	467.353	0.700	1.562
-56.261	-200.000	75.793	534.764
-55.246	558.167	1310.141	3145.795
-54.232	145.417	2552.792	3402.349
-53.217	120.173	2238.866	2765.221
-52.203	54.690	1676.783	1609.616
-51.188	46.101	1395.492	1286.086
-50.173	42.182	1348.783	1219.208
-49.159	60.546	1383.534	1363.700
-48.144	67.877	1402.161	1426.899
-47.130	46.286	1364.234	1258.213
-46.115	42.037	1348.347	1217.740
-45.100	41.848	1343.221	1211.915
-44.086	41.801	1340.648	1209.263
-43.071	41.821	1337.939	1206.893
-42.057	41.610	1336.171	1203.978
-41.042	41.777	1333.768	1202.767
-40.027	41.854	1332.561	1202.093
-39.013	41.808	1331.072	1200.428
-37.998	41.943	1328.406	1198.786
-36.984	41.933	1326.890	1197.312
-35.969	41.862	1325.786	1195.844
-34.954	42.081	1323.069	1194.652
-33.940	41.905	1321.968	1192.562
-32.925	41.937	1320.848	1191.691
-31.911	41.918	1319.448	1190.268
-30.896	42.047	1317.538	1189.263
-29.881	42.156	1315.645	1188.155
-28.867	42.011	1314.107	1185.863
-27.852	42.043	1312.540	1184.588
-26.838	42.067	1310.964	1183.261
-25.823	42.096	1309.870	1182.396
-24.809	42.019	1308.715	1180.853
-23.794	41.974	1307.384	1179.341
-22.779	42.089	1305.675	1178.433
-21.765	41.975	1304.961	1177.071
-20.750	42.081	1303.253	1176.101
-19.736	41.946	1301.886	1174.033
-18.721	42.001	1300.379	1172.946
-17.706	41.962	1299.431	1171.817
-16.692	41.911	1298.337	1170.488
-15.677	41.902	1297.359	1169.503
-14.663	41.933	1295.330	1167.808
-13.648	41.813	1294.799	1166.585
-12.633	41.822	1293.866	1165.749
-11.619	41.866	1292.600	1164.818
-10.604	41.755	1292.055	1163.636
-9.590	41.940	1290.761	1163.500
-8.575	41.946	1289.509	1162.364
-7.560	41.878	1288.709	1161.198
-6.546	41.800	1288.081	1160.137
-5.531	41.693	1287.446	1158.898
-4.517	41.719	1286.355	1158.021
-3.502	41.880	1285.257	1157.915
-2.487	41.923	1284.372	1157.325
-1.473	41.911	1280.620	1153.824
-0.458	40.883	1265.691	1134.466
0.556	36.329	1245.841	1094.289
1.571	32.622	1249.115	1075.948
2.586	31.401	1264.233	1081.812
3.600	29.610	1252.583	1061.469
4.615	20.540	1173.883	945.593
5.629	7.295	1088.430	809.439
6.644	1.226	1063.700	760.624
7.659	0.863	1060.628	756.544
8.673	0.595	1059.560	754.374
9.688	0.627	1057.709	753.153
10.702	1.195	1056.949	755.370
11.717	8.928	1068.938	802.702
12.731	19.997	1084.857	870.531
13.746	23.378	1088.625	890.500
14.761	23.156	1087.511	888.398
15.775	23.055	1087.219	887.570
16.790	22.778	1086.223	885.290
17.804	22.764	1085.328	884.413
18.819	22.846	1085.203	884.646
19.834	22.914	1084.534	884.362
20.848	22.865	1084.512	884.019
21.863	22.833	1083.953	883.325
22.877	22.826	1082.994	882.429
23.892	22.772	1082.536	881.712
24.907	22.726	1082.010	880.975
25.921	22.889	1080.347	880.353
26.936	22.900	1078.603	878.909
27.950	22.762	1077.851	877.531
28.965	22.572	1075.702	874.763
29.980	22.672	1074.519	874.219
30.994	22.919	1073.123	874.227
32.009	22.898	1072.300	873.375
33.023	22.700	1071.033	871.288
34.038	22.799	1070.319	871.118
35.053	22.955	1069.380	871.049
36.067	22.888	1068.293	869.755
37.082	22.957	1067.901	869.698
38.096	22.945	1067.752	869.443
39.111	23.181	1066.501	869.504
40.126	22.850	1064.881	866.485
41.140	22.677	1063.176	864.170
42.155	22.558	1061.740	862.348
43.169	22.533	1061.378	861.854
44.184	22.545	1060.117	860.815
45.199	22.407	1059.152	859.277
46.213	22.510	1057.884	858.675
47.228	22.702	1057.424	859.165
48.242	22.736	1056.553	858.545
49.257	22.735	1056.180	858.161
50.271	22.952	1054.799	858.017
51.286	22.883	1054.220	857.135
52.301	22.991	1053.442	856.949
53.315	22.852	1052.348	855.309
54.330	22.873	1051.285	854.474
55.344	22.871	1050.636	853.860
56.359	22.896	1049.145	852.693
57.374	22.754	1048.509	851.417
58.388	22.649	1048.072	850.477
59.403	22.637	1046.929	849.419
60.417	22.408	1046.360	847.781
61.432	22.462	1045.834	847.540
62.447	22.811	1044.665	848.193
63.461	22.843	1044.018	847.748
64.476	22.625	1043.484	846.191
65.490	22.581	1042.142	844.818
66.505	22.660	1041.417	844.533
67.520	22.694	1040.922	844.219
68.534	22.424	1039.990	842.099
69.549	22.054	1038.738	839.242
70.563	22.201	1037.453	838.834
71.578	22.185	1036.958	838.280
72.593	21.982	1036.057	836.510
73.607	22.155	1035.270	836.623
74.622	22.538	1035.225	838.336
75.636	22.540	1034.781	837.915
76.651	22.411	1033.601	836.269
77.666	22.171	1032.723	834.349
78.680	22.386	1032.002	834.712
79.695	22.472	1031.218	834.410
80.709	22.510	1030.703	834.099
81.724	22.515	1030.122	833.580
82.739	22.549	1029.288	832.991
83.753	22.868	1028.765	834.000
84.768	23.127	1027.959	834.498
85.782	23.347	1026.715	834.448
86.797	23.204	1025.479	832.696
87.812	22.974	1024.941	831.106
88.826	23.143	1024.017	831.075
89.841	23.054	1023.511	830.174
90.855	23.135	1022.211	829.428
91.870	23.105	1020.999	828.230
92.884	22.905	1020.428	826.759
93.899	22.902	1019.428	825.859
94.914	23.205	1018.532	826.477
95.928	23.002	1017.373	824.517
96.943	22.592	1016.579	821.886
97.957	22.500	1015.341	820.387
98.972	22.340	1014.142	818.598
99.987	22.624	1013.645	819.447
101.001	22.795	1012.668	819.377
102.016	22.852	1011.339	818.492
103.030	22.787	1010.951	817.809
104.045	22.508	1009.729	815.453
105.060	22.480	1008.582	814.328
106.074	22.738	1007.857	814.861
107.089	23.094	1007.486	816.131
108.103	23.057	1005.593	814.355
109.118	22.714	1004.643	811.938
110.133	22.633	1003.955	810.936
111.147	22.516	1002.886	809.463
112.162	22.321	1001.895	807.696
113.176	22.406	1001.818	807.952
114.191	22.536	1000.084	807.081
115.206	22.288	998.882	804.903
116.220	22.161	998.416	803.877
117.235	22.395	997.149	803.854
118.249	22.299	996.395	802.736
119.264	22.272	995.760	802.028
120.279	22.267	995.266	801.540
121.293	22.409	994.545	801.533
122.308	22.469	993.613	800.985
123.322	22.201	992.546	798.838
124.337	22.211	991.269	797.783
125.352	21.780	989.665	794.469
126.366	21.600	988.642	792.762
127.381	22.362	988.504	796.029
128.395	22.805	988.026	797.576
129.410	23.041	986.923	797.680
130.424	22.898	986.064	796.270
131.439	22.879	985.522	795.675
132.454	22.980	984.358	795.120
133.468	22.776	983.835	793.711
134.483	22.988	982.979	793.904
135.497	23.162	982.414	794.156
136.512	23.241	981.342	793.574
137.527	23.226	980.221	792.532
138.541	23.363	979.437	792.437
139.556	23.121	978.858	790.819
140.570	23.306	978.154	791.005
141.585	23.205	977.174	789.692
142.600	23.215	975.591	788.387
143.614	23.458	975.208	789.092
144.629	23.395	975.012	788.581
145.643	23.323	973.506	786.973
146.658	23.083	972.504	785.031
147.673	23.025	970.843	783.363
148.687	23.022	969.872	782.495
149.702	22.948	968.828	781.257
150.716	22.844	967.975	780.041
151.731	23.060	967.075	780.202
152.746	23.310	966.558	780.817
153.760	23.299	965.996	780.243
154.775	23.347	965.425	779.924
155.789	23.119	965.036	778.538
156.804	23.188	963.918	777.871
157.819	23.375	962.643	777.594
158.833	23.354	962.076	776.977
159.848	23.471	961.494	776.949
160.862	23.121	960.354	774.430
161.877	23.303	959.453	774.427
162.892	23.341	958.355	773.641
163.906	23.275	956.872	772.086
164.921	23.275	956.321	771.573
165.935	23.256	955.578	770.825
166.950	23.328	954.523	770.218
167.964	23.291	953.710	769.331
168.979	23.073	952.831	767.611
169.994	23.028	951.920	766.612
171.008	23.215	951.093	766.688
172.023	23.363	950.203	766.542
173.037	23.112	949.325	764.682
174.052	22.890	948.434	762.939
175.067	22.992	947.690	762.714
176.081	23.085	947.461	762.862
177.096	23.117	946.444	762.115
178.110	22.830	945.401	759.972
179.125	22.554	944.650	758.115
180.140	22.760	944.409	758.737
181.154	22.914	944.112	759.093
182.169	23.025	943.911	759.340
183.183	23.410	943.199	760.354
184.198	23.168	942.339	758.555
185.213	23.212	941.365	757.892
186.227	23.236	941.210	757.806
187.242	23.348	939.901	757.162
188.256	23.366	939.287	756.675
189.271	23.300	939.234	756.287
190.286	23.018	938.143	754.137
191.300	22.550	936.379	750.659
192.315	21.723	934.870	745.864
193.329	21.687	934.215	745.125
194.344	22.505	934.620	748.860
195.359	23.105	934.519	751.263
196.373	23.327	934.019	751.736
197.388	23.099	933.452	750.247
198.402	23.314	932.515	750.336
199.417	23.191	932.222	749.516
200.432	22.964	930.835	747.374
201.446	22.787	930.246	746.088
202.461	22.886	929.512	745.849
203.475	22.006	928.017	740.869
204.490	21.276	926.667	736.652
205.504	22.038	926.991	740.057
206.519	22.851	926.746	743.218
207.534	22.801	926.676	742.887
208.548	23.354	926.175	744.743
209.563	23.101	925.207	742.838
210.577	22.958	924.443	741.559
211.592	23.366	924.354	743.132
212.607	23.247	923.455	741.846
213.621	23.215	923.032	741.306
214.636	23.413	922.288	741.473
215.650	23.297	921.348	740.167
216.665	23.555	920.491	740.488
217.680	23.372	919.855	739.147
218.694	22.907	918.721	736.234
219.709	22.827	917.906	735.182
220.723	23.064	917.548	735.816
221.738	23.244	916.898	735.979
222.753	23.130	916.513	735.132
223.767	23.296	915.803	735.187
224.782	23.420	915.400	735.310
225.796	23.536	914.845	735.281
226.811	22.901	913.365	731.400
227.826	22.220	911.920	727.361
228.840	22.334	911.574	727.491
229.855	22.390	910.718	726.975
230.869	22.121	909.983	725.215
231.884	22.390	910.166	726.407
232.899	23.243	909.812	729.578
233.913	23.201	909.038	728.719
234.928	23.080	908.706	727.888
235.942	23.020	907.744	726.810
236.957	22.707	907.152	724.983
237.972	22.644	907.115	724.629
238.986	22.842	905.845	724.363
240.001	22.664	905.534	723.323
241.015	22.933	904.857	723.819
242.030	23.210	904.512	724.613
243.045	23.189	904.014	724.062
244.059	23.161	903.837	723.743
245.074	23.185	902.400	722.626
246.088	22.848	901.369	720.365
247.103	23.114	901.006	721.093
248.117	23.586	901.250	723.151
249.132	23.632	901.066	723.125
250.147	23.983	900.038	723.665
251.161	24.109	899.355	723.562
252.176	24.093	898.681	722.893
253.190	24.079	898.604	722.707
254.205	24.200	898.053	722.692
255.220	24.192	897.065	721.801
256.234	24.130	896.420	720.969
257.249	23.915	895.690	719.445
258.263	24.079	894.932	719.435
259.278	23.960	894.815	718.800
260.293	24.081	893.829	718.431
261.307	23.997	892.905	717.285
262.322	23.876	892.068	716.064
263.336	23.050	890.596	711.495
264.351	21.950	888.660	705.467
265.366	21.987	888.054	705.073
266.380	23.358	888.566	710.923
267.395	23.762	888.282	712.252
268.409	23.665	887.563	711.224
269.424	23.758	887.082	711.149
270.439	23.841	886.698	711.110
271.453	23.915	886.207	710.948
272.468	24.112	886.033	711.532
273.482	24.174	885.260	711.096
274.497	23.768	884.092	708.475
275.512	23.339	883.242	706.024
276.526	23.808	883.380	707.938
277.541	23.987	882.934	708.234
278.555	23.774	881.664	706.303
279.570	23.564	881.075	704.937
280.585	23.698	880.592	705.019
281.599	23.672	879.523	703.998
282.614	23.096	878.249	700.634
283.628	23.037	877.902	700.062
284.643	23.565	877.655	701.894
285.657	23.152	876.680	699.420
286.672	22.795	875.685	697.153
287.687	23.413	875.770	699.598
288.701	23.571	874.897	699.462
289.716	23.225	873.622	697.018
290.730	23.077	873.325	696.140
291.745	22.954	872.341	694.807
292.760	23.218	872.182	695.660
293.774	24.078	872.998	699.630
294.789	24.379	872.669	700.484
295.803	24.263	872.454	699.795
296.818	24.501	871.641	700.015
297.833	24.080	870.442	697.343
298.847	23.784	869.479	695.349
299.862	24.139	869.307	696.540
300.876	24.339	868.935	696.961
301.891	24.317	867.987	696.052
302.906	24.039	867.025	694.137
303.920	24.026	866.695	693.760
304.935	24.301	866.763	694.827
305.949	24.327	865.814	694.106
306.964	24.182	865.006	692.830
307.979	24.258	864.613	692.749
308.993	24.556	864.445	693.713
310.008	24.560	864.020	693.326
311.022	24.236	863.221	691.365
312.037	24.193	861.937	690.110
313.052	23.949	861.282	688.579
314.066	23.193	859.786	684.400
315.081	22.569	859.367	681.595
316.095	23.517	859.354	685.188
317.110	24.058	859.031	686.956
318.125	23.206	857.785	682.618
319.139	22.225	856.406	677.678
320.154	22.312	855.894	677.550
321.168	23.034	856.451	680.713
322.183	23.701	856.885	683.565
323.197	24.016	855.844	683.886
324.212	24.204	855.853	684.551
325.227	24.202	855.052	683.846
326.241	24.056	854.422	682.718
327.256	23.953	853.755	681.733
328.270	23.807	853.345	680.783
329.285	23.639	852.583	679.472
330.300	23.571	851.270	678.106
331.314	23.757	850.999	678.544
332.329	24.179	851.363	680.383
333.343	24.313	850.795	680.381
334.358	24.323	850.001	679.723
335.373	24.569	849.920	680.538
336.387	24.557	850.163	680.624
337.402	24.569	850.085	680.549
338.416	24.604	849.585	680.220
339.431	24.693	849.359	680.321
340.446	24.893	848.388	680.242
341.460	24.870	847.806	679.626
342.475	24.543	847.610	678.169
343.489	24.618	847.448	678.261
344.504	24.938	847.063	679.108
345.519	25.082	846.573	679.200
346.533	25.026	846.152	678.592
347.548	25.181	845.648	678.714
348.562	25.143	844.776	677.810
349.577	24.931	844.388	676.640
350.592	25.012	843.673	676.311
351.606	25.005	842.901	675.605
352.621	25.020	841.968	674.854
353.635	24.884	841.555	673.952
354.650	24.122	840.059	669.829
355.665	23.291	837.969	664.986
356.679	23.629	838.192	666.373
357.694	23.996	838.300	667.778
358.708	23.913	837.650	666.888
359.723	24.236	837.319	667.775
360.738	24.672	836.866	668.987
361.752	24.714	836.504	668.795
362.767	25.062	836.023	669.656
363.781	25.318	835.737	670.323
364.796	25.451	835.327	670.429
365.810	25.332	835.286	669.893
366.825	25.445	834.553	669.666
367.840	25.110	833.841	667.788
368.854	24.668	832.865	665.305
369.869	24.707	832.648	665.218
370.883	24.893	831.582	664.998
371.898	24.916	831.025	664.578
372.913	24.735	831.201	663.990
373.927	24.929	830.744	664.284
374.942	24.953	830.231	663.903
375.956	25.006	829.938	663.806
376.971	25.133	829.608	663.955
377.986	25.440	828.927	664.486
379.000	25.343	828.464	663.698
380.015	25.240	827.902	662.808
381.029	25.185	827.570	662.281
382.044	25.386	827.053	662.551
383.059	25.366	826.272	661.795
384.073	25.459	825.665	661.591
385.088	25.308	825.076	660.504
386.102	25.273	824.278	659.679
387.117	25.169	823.438	658.565
388.132	24.878	822.421	656.628
389.146	24.380	821.478	653.991
390.161	24.784	821.356	655.316
391.175	25.140	821.309	656.525
392.190	24.871	820.464	654.808
393.205	23.470	818.545	648.100
394.219	22.102	816.760	641.637
395.234	22.013	816.310	640.901
396.248	23.583	817.608	647.599
397.263	25.036	818.676	653.693
398.278	25.083	818.033	653.295
399.292	24.641	817.300	651.040
400.307	24.770	816.779	651.037
401.321	24.921	816.198	651.065
402.336	25.285	816.539	652.605
403.350	25.595	816.080	653.304
404.365	25.881	816.327	654.485
405.380	26.036	816.117	654.821
406.394	26.033	815.458	654.221
407.409	26.052	814.804	653.709
408.423	25.972	814.486	653.107
409.438	26.121	813.993	653.192
410.453	26.177	813.774	653.160
411.467	26.002	813.288	652.080
412.482	26.031	813.064	651.948
413.496	26.238	812.358	652.071
414.511	26.070	812.101	651.203
415.526	26.233	811.219	651.023
416.540	26.140	810.547	650.091
417.555	25.819	809.906	648.365
418.569	25.772	809.761	648.024
419.584	25.774	809.117	647.458
420.599	25.464	808.937	646.141
421.613	91.316	1255.828	1354.252
422.628	78.312	1320.955	1354.383
