DTS Sentinel unit serial number:	SN413079Multiplexer serial number:	ORYXHardware model number:	OX4-SRSoftware version number:	ORYX F/W v4.00 Oryx Data Collector v3.7.2.0data status	okinstallation	princeton_trtdifferential loss correction	single-endedforward channel	channel 1reverse channel	N/Adate	2019/09/10time	16:32:11forward acquisition time	60.00reverse acquisition time	0.00gamma	496.2192k internal	0.2299k external	0.2299temperature offset calibration	0.9926default loss term (dB/km)	0.3790temperature slope calibration	1.0000multiplexer offset coefficient	1.0000multiplexer slope coefficient	1.0000fibre end	0.00T internal ref (°C)	38.00T ext. ref 1 (°C)	-0.28T ext. ref 2 (°C)	30.10length (m)	temperature (°C)	Stokes	anti-Stokes-747.200	-102.336	-0.251	-0.061
-746.185	-200.000	-0.032	0.242
-745.171	-50.609	0.279	0.134
-744.156	174.949	0.200	0.296
-743.142	-117.386	-0.353	0.065
-742.127	800.000	-0.116	0.338
-741.112	625.685	0.049	-0.125
-740.098	88.386	-0.245	-0.277
-739.083	64.729	0.075	0.077
-738.069	536.753	-0.069	-0.168
-737.054	-50.413	-0.117	0.056
-736.039	83.884	-0.010	0.012
-735.025	276.021	-0.097	0.175
-734.010	-133.132	-0.151	-0.019
-732.996	-69.260	0.074	0.029
-731.981	-200.000	0.051	-0.416
-730.966	-200.000	0.036	-0.321
-729.952	-67.350	-0.151	-0.060
-728.937	-200.000	0.008	0.076
-727.923	631.939	-0.082	-0.212
-726.908	133.911	-0.170	-0.225
-725.894	-81.257	-0.276	-0.093
-724.879	-109.169	-0.140	-0.030
-723.864	-159.936	-0.312	-0.017
-722.850	93.472	0.215	-0.248
-721.835	-82.650	-0.520	0.172
-720.821	102.747	-0.091	-0.109
-719.806	-115.565	-0.557	0.107
-718.791	-79.119	-0.283	0.098
-717.777	61.216	-0.213	0.216
-716.762	-90.226	-0.273	-0.081
-715.748	341.005	-0.119	-0.237
-714.733	37.396	0.116	0.105
-713.718	-10.541	-0.126	-0.085
-712.704	430.014	0.159	-0.351
-711.689	-2.923	0.232	-0.165
-710.675	-67.705	-0.103	-0.041
-709.660	-73.092	-0.278	-0.104
-708.645	-116.181	0.063	-0.012
-707.631	-192.528	0.373	0.004
-706.616	36.343	-0.050	0.045
-705.602	366.323	-0.091	-0.187
-704.587	-24.953	0.154	0.093
-703.572	41.044	-0.289	-0.265
-702.558	-123.910	-0.165	-0.027
-701.543	-77.819	-0.515	-0.181
-700.529	55.126	-0.110	-0.108
-699.514	-141.724	0.490	-0.050
-698.499	81.179	0.086	-0.095
-697.485	72.742	-0.078	0.082
-696.470	-37.671	0.110	-0.060
-695.456	-200.000	-0.003	-0.190
-694.441	-158.154	0.251	-0.015
-693.426	-200.000	0.008	0.180
-692.412	-200.000	0.082	-0.388
-691.397	224.110	0.041	0.067
-690.383	-200.000	-0.018	-0.413
-689.368	-119.663	-0.089	-0.016
-688.354	134.758	-0.179	0.237
-687.339	0.264	0.313	0.227
-686.324	-200.000	0.029	0.256
-685.310	5.448	-0.357	0.268
-684.295	160.614	-0.100	0.142
-683.281	-44.957	-0.468	-0.237
-682.266	800.000	-0.045	-0.142
-681.251	-170.100	0.374	-0.014
-680.237	-169.541	0.179	-0.007
-679.222	-90.365	-0.141	-0.042
-678.208	800.000	-0.063	0.182
-677.193	46.612	-0.254	-0.240
-676.178	14.104	0.129	-0.102
-675.164	30.322	-0.080	-0.070
-674.149	-37.494	-0.106	0.057
-673.135	-28.340	-0.125	-0.074
-672.120	-200.000	0.035	-0.182
-671.105	-40.763	-0.145	0.077
-670.091	-2.686	0.400	-0.285
-669.076	8.937	-0.254	-0.195
-668.062	52.459	-0.348	0.338
-667.047	22.177	0.041	0.034
-666.032	-200.000	0.004	-0.089
-665.018	800.000	-0.067	-0.246
-664.003	363.598	-0.042	0.086
-662.989	-200.000	-0.021	-0.200
-661.974	-200.000	-0.016	-0.254
-660.959	755.915	-0.077	0.213
-659.945	-35.730	-0.087	0.048
-658.930	-200.000	0.003	0.227
-657.916	249.504	0.281	-0.484
-656.901	800.000	0.079	-0.233
-655.886	-52.288	-0.231	0.109
-654.872	-200.000	-0.066	-0.364
-653.857	-189.470	-0.197	-0.002
-652.843	163.452	0.077	0.109
-651.828	-32.129	0.375	0.213
-650.814	-51.014	-0.163	0.078
-649.799	123.999	-0.214	-0.273
-648.784	44.029	0.213	-0.198
-647.770	-106.131	-0.204	0.046
-646.755	-64.882	0.243	-0.100
-645.741	699.640	-0.046	0.124
-644.726	-91.408	0.168	0.049
-643.711	150.044	0.255	-0.351
-642.697	-125.840	-0.214	0.033
-641.682	-200.000	-0.040	0.184
-640.668	-107.723	-0.333	0.074
-639.653	291.017	0.144	0.266
-638.638	-200.000	-0.035	0.433
-637.624	-150.948	-0.138	0.011
-636.609	-146.141	-0.216	-0.019
-635.595	55.166	0.053	0.052
-634.580	484.561	0.020	0.046
-633.565	-200.000	0.050	-0.316
-632.551	268.934	0.094	-0.167
-631.536	-45.110	-0.031	0.015
-630.522	-76.383	-0.420	-0.150
-629.507	-10.298	0.253	0.170
-628.492	-200.000	0.035	-0.277
-627.478	137.015	-0.104	0.138
-626.463	84.496	0.152	-0.169
-625.449	117.682	-0.111	-0.138
-624.434	-200.000	0.039	-0.183
-623.419	-153.297	-0.209	-0.015
-622.405	-57.746	0.310	0.138
-621.390	-69.053	-0.144	-0.056
-620.376	-128.043	-0.162	0.024
-619.361	-43.389	0.281	-0.144
-618.346	11.575	0.227	0.177
-617.332	-166.374	-0.194	-0.008
-616.317	-131.570	0.283	-0.038
-615.303	-58.216	0.103	-0.045
-614.288	800.000	0.050	-0.142
-613.273	-200.000	0.010	0.393
-612.259	-153.208	-0.264	-0.019
-611.244	-82.625	-0.205	0.067
-610.230	11.381	-0.222	-0.172
-609.215	-200.000	-0.028	0.269
-608.201	-200.000	0.042	0.189
-607.186	49.527	0.106	-0.101
-606.171	800.000	-0.039	0.143
-605.157	-74.048	-0.296	0.109
-604.142	-187.116	-0.211	0.003
-603.128	-83.325	-0.141	-0.046
-602.113	269.740	0.254	0.453
-601.098	134.449	-0.076	0.099
-600.084	-200.000	-0.037	-0.193
-599.069	-109.008	-0.228	0.049
-598.055	-10.037	0.107	-0.072
-597.040	231.038	0.116	-0.193
-596.025	-156.953	-0.524	-0.033
-595.011	-200.000	-0.040	0.409
-593.996	800.000	0.052	0.177
-592.982	-169.765	-0.106	0.004
-591.967	-178.887	0.160	0.004
-590.952	517.240	0.129	-0.307
-589.938	17.902	-0.150	-0.121
-588.923	25.199	0.478	-0.403
-587.909	-200.000	0.049	-0.261
-586.894	184.094	0.128	-0.192
-585.879	-200.000	0.037	0.230
-584.865	-39.848	0.080	0.042
-583.850	-79.811	0.204	0.070
-582.836	-200.000	-0.002	0.270
-581.821	3.794	-0.107	-0.079
-580.806	169.776	-0.101	-0.146
-579.792	-200.000	-0.054	-0.380
-578.777	-136.452	-0.029	0.003
-577.763	-200.000	-0.024	-0.287
-576.748	-48.051	0.170	0.083
-575.733	-78.390	-0.155	0.054
-574.719	-200.000	0.009	-0.185
-573.704	800.000	0.082	0.349
-572.690	800.000	-0.122	0.349
-571.675	69.782	0.125	0.131
-570.661	-100.582	-0.065	-0.016
-569.646	-61.380	0.217	-0.093
-568.631	-26.594	0.239	0.142
-567.617	758.411	0.075	-0.206
-566.602	-59.289	-0.032	0.014
-565.588	365.955	0.182	-0.372
-564.573	800.000	-0.080	-0.228
-563.558	48.209	0.032	0.030
-562.544	-200.000	-0.008	-0.138
-561.529	800.000	-0.022	0.096
-560.515	-200.000	-0.099	-0.448
-559.500	-58.563	-0.169	-0.074
-558.485	9.527	0.089	0.069
-557.471	299.326	-0.247	0.460
-556.456	243.541	-0.119	0.203
-555.442	350.676	-0.051	0.101
-554.427	26.308	-0.182	-0.154
-553.412	-73.629	-0.370	0.136
-552.398	42.825	0.101	0.093
-551.383	-200.000	-0.046	0.254
-550.369	-75.971	0.215	0.077
-549.354	-122.250	-0.148	-0.025
-548.339	675.714	0.083	-0.217
-547.325	-200.000	-0.039	0.394
-546.310	-107.755	0.168	-0.037
-545.296	-4.742	0.096	0.067
-544.281	-70.038	0.321	-0.124
-543.266	-93.640	0.037	-0.010
-542.252	-80.427	0.331	0.112
-541.237	207.744	0.066	-0.105
-540.223	-173.235	0.385	0.012
-539.208	216.582	0.092	-0.149
-538.193	-51.277	0.311	-0.147
-537.179	260.813	0.093	-0.163
-536.164	-82.241	-0.233	0.077
-535.150	-200.000	-0.025	-0.130
-534.135	48.011	-0.156	0.148
-533.121	138.307	0.075	0.100
-532.106	-21.268	0.162	-0.100
-531.091	-128.683	-0.283	-0.040
-530.077	-162.957	-0.271	-0.013
-529.062	-165.974	0.318	0.014
-528.048	103.163	0.284	-0.336
-527.033	-79.621	0.090	-0.031
-526.018	150.604	-0.161	0.221
-525.004	-22.706	0.207	0.127
-523.989	-148.114	-0.249	-0.021
-522.975	-200.000	-0.061	-0.309
-521.960	-77.172	-0.409	-0.144
-520.945	-83.769	0.255	-0.082
-519.931	-87.048	-0.164	-0.051
-518.916	-6.407	0.087	-0.060
-517.902	-21.755	0.142	0.087
-516.887	800.000	0.022	-0.076
-515.872	-157.851	-0.175	-0.010
-514.858	-87.821	0.487	-0.148
-513.843	-31.104	0.299	-0.170
-512.829	302.096	0.121	-0.226
-511.814	120.888	0.069	-0.087
-510.799	800.000	-0.040	-0.125
-509.785	-129.649	0.034	-0.005
-508.770	71.922	-0.075	0.078
-507.756	412.887	0.033	0.071
-506.741	30.071	0.384	0.331
-505.726	436.917	0.051	0.113
-504.712	102.761	0.176	-0.208
-503.697	-13.821	-0.096	-0.063
-502.683	-115.950	-0.287	-0.054
-501.668	454.846	-0.092	0.206
-500.653	257.648	-0.065	0.113
-499.639	-24.727	0.209	0.126
-498.624	-200.000	-0.072	0.369
-497.610	574.215	0.069	-0.171
-496.595	186.080	0.195	-0.293
-495.581	-7.960	-0.202	-0.137
-494.566	-200.000	0.019	0.096
-493.551	-109.951	0.253	-0.054
-492.537	800.000	-0.125	-0.416
-491.522	-115.324	-0.268	0.051
-490.508	-200.000	0.005	-0.235
-489.493	591.684	-0.039	0.098
-488.478	800.000	0.063	0.221
-487.464	-159.118	0.374	-0.021
-486.449	-137.486	-0.214	0.024
-485.435	556.804	0.032	0.078
-484.420	140.779	0.177	0.236
-483.405	800.000	-0.059	0.212
-482.391	-200.000	0.001	0.339
-481.376	127.725	0.093	0.119
-480.362	-96.988	0.443	0.117
-479.347	391.702	0.022	-0.046
-478.332	583.334	0.119	-0.294
-477.318	0.113	-0.180	-0.130
-476.303	-114.268	-0.174	-0.034
-475.289	-138.649	0.312	-0.035
-474.274	-156.442	0.150	0.009
-473.259	225.529	0.120	0.197
-472.245	56.268	0.276	-0.270
-471.230	-35.419	0.298	0.163
-470.216	-49.032	0.317	-0.153
-469.201	27.073	-0.139	-0.118
-468.186	-200.000	-0.072	-0.544
-467.172	-89.583	-0.256	0.076
-466.157	-200.000	-0.015	-0.261
-465.143	74.545	-0.122	-0.130
-464.128	-147.890	-0.310	0.026
-463.113	-12.444	0.340	-0.224
-462.099	-200.000	0.013	-0.059
-461.084	444.355	0.047	0.104
-460.070	-170.758	0.308	-0.011
-459.055	-68.132	0.259	-0.102
-458.040	194.351	-0.088	0.135
-457.026	-37.908	0.290	0.156
-456.011	-76.071	-0.055	-0.020
-454.997	800.000	-0.067	0.256
-453.982	-62.840	0.392	0.164
-452.968	-200.000	-0.025	-0.216
-451.953	-60.867	-0.158	-0.067
-450.938	-55.150	0.282	-0.128
-449.924	71.101	0.201	0.210
-448.909	-134.528	-0.517	0.064
-447.895	-61.954	-0.217	-0.092
-446.880	-61.427	-0.107	-0.046
-445.865	8.712	0.026	0.020
-444.851	-200.000	0.025	0.289
-443.836	375.798	-0.050	0.102
-442.822	-121.979	-0.439	0.073
-441.807	9.818	-0.182	-0.139
-440.792	-125.209	-0.078	0.012
-439.778	-135.670	0.064	-0.008
-438.763	195.080	-0.206	0.315
-437.749	-200.000	0.019	0.366
-436.734	-158.124	0.111	0.007
-435.719	296.094	-0.064	0.118
-434.705	-13.364	0.171	-0.112
-433.690	-135.098	-0.474	0.058
-432.676	-154.070	-0.152	0.010
-431.661	-77.355	0.103	0.036
-430.646	-21.827	-0.129	0.079
-429.632	-200.000	0.001	0.021
-428.617	-200.000	0.016	-0.168
-427.603	-94.287	-0.310	-0.085
-426.588	800.000	0.048	0.199
-425.573	-109.796	0.358	0.076
-424.559	19.980	0.230	0.187
-423.544	447.126	-0.052	0.115
-422.530	-9.940	-0.254	-0.170
-421.515	-70.809	-0.402	-0.153
-420.500	-47.700	-0.188	-0.092
-419.486	-105.189	-0.139	-0.032
-418.471	-25.364	0.149	-0.089
-417.457	2.649	0.203	-0.148
-416.442	-81.417	-0.251	-0.083
-415.428	0.474	0.432	-0.311
-414.413	0.224	-0.213	-0.153
-413.398	148.645	0.051	-0.069
-412.384	-94.477	-0.190	-0.052
-411.369	-200.000	0.037	-0.220
-410.355	273.337	0.185	-0.329
-409.340	576.355	-0.182	0.449
-408.325	-150.358	0.112	-0.009
-407.311	48.868	-0.201	-0.190
-406.296	-95.653	0.220	-0.059
-405.282	34.577	-0.054	-0.047
-404.267	495.954	0.059	-0.137
-403.252	800.000	-0.037	0.153
-402.238	0.901	-0.249	-0.180
-401.223	-30.993	-0.318	0.181
-400.209	-81.501	-0.206	-0.068
-399.194	-52.827	-0.206	0.095
-398.179	168.554	0.048	0.068
-397.165	-10.899	0.150	-0.100
-396.150	-99.054	-0.256	-0.065
-395.136	-127.730	-0.451	-0.066
-394.121	-55.462	-0.362	0.163
-393.106	9.642	0.252	0.192
-392.092	-26.989	-0.137	-0.080
-391.077	-149.386	-0.254	-0.020
-390.063	-81.351	0.191	-0.063
-389.048	-54.731	-0.241	0.109
-388.033	48.192	0.235	0.222
-387.019	-133.186	-0.255	0.032
-386.004	19.729	0.113	0.091
-384.990	709.519	-0.060	0.160
-383.975	-152.232	0.439	0.032
-382.960	41.181	-0.388	-0.353
-381.946	120.233	0.123	0.153
-380.931	800.000	-0.030	-0.103
-379.917	800.000	0.056	-0.227
-378.902	-98.952	0.026	-0.007
-377.888	778.429	0.080	0.219
-376.873	-142.165	0.177	-0.018
-375.858	-57.738	0.057	-0.025
-374.844	-105.780	0.232	-0.053
-373.829	183.423	-0.201	0.298
-372.815	72.345	0.331	0.347
-371.800	-200.000	-0.053	0.334
-370.785	800.000	-0.090	0.276
-369.771	-1.322	-0.198	0.141
-368.756	-130.735	-0.243	-0.033
-367.742	1.204	-0.302	0.218
-366.727	63.785	0.075	-0.076
-365.712	-13.788	0.347	-0.226
-364.698	-50.456	-0.076	0.036
-363.683	425.644	-0.119	0.258
-362.669	20.863	0.226	-0.184
-361.654	42.120	0.162	0.148
-360.639	52.991	-0.051	0.049
-359.625	188.118	-0.098	0.147
-358.610	86.748	-0.070	-0.077
-357.596	-200.000	0.015	-0.332
-356.581	152.201	0.323	-0.442
-355.566	91.291	-0.129	-0.145
-354.552	91.813	0.179	0.203
-353.537	46.969	0.087	0.081
-352.523	570.106	-0.133	0.324
-351.508	154.117	0.277	0.382
-350.493	-15.936	0.105	0.067
-349.479	800.000	0.034	0.122
-348.464	364.538	0.048	-0.097
-347.450	-80.338	0.150	0.050
-346.435	-42.457	0.295	0.151
-345.420	-23.503	-0.040	0.024
-344.406	198.144	-0.127	0.195
-343.391	-71.539	0.293	0.110
-342.377	-46.224	-0.117	0.058
-341.362	-200.000	0.018	0.166
-340.348	576.745	-0.142	0.349
-339.333	-200.000	0.035	-0.345
-338.318	486.492	-0.061	-0.139
-337.304	800.000	-0.073	0.255
-336.289	-49.048	-0.071	-0.034
-335.275	628.169	0.043	-0.109
-334.260	-4.142	0.179	-0.125
-333.245	-67.789	-0.369	-0.145
-332.231	-74.685	-0.246	-0.089
-331.216	45.988	-0.094	0.088
-330.202	89.334	-0.278	0.311
-329.187	-93.151	-0.250	0.070
-328.172	53.008	-0.195	-0.187
-327.158	-200.000	-0.003	0.030
-326.143	-101.501	-0.084	-0.021
-325.129	252.270	-0.070	-0.119
-324.114	-73.800	-0.198	-0.072
-323.099	-115.535	-0.192	-0.036
-322.085	800.000	-0.068	-0.218
-321.070	-102.462	0.089	-0.021
-320.056	-87.289	0.188	-0.057
-319.041	800.000	0.093	0.299
-318.026	-200.000	0.067	0.409
-317.012	7.963	-0.074	0.056
-315.997	-63.861	0.087	0.036
-314.983	1.195	0.142	0.103
-313.968	32.955	-0.138	-0.120
-312.953	800.000	0.107	-0.435
-311.939	800.000	0.051	-0.204
-310.924	-117.576	-0.207	0.037
-309.910	-118.123	0.423	0.076
-308.895	-200.000	-0.001	-0.184
-307.880	4.505	-0.077	0.057
-306.866	-200.000	-0.047	0.231
-305.851	-129.364	0.184	0.026
-304.837	49.254	-0.144	-0.136
-303.822	30.827	0.262	0.225
-302.807	-158.759	0.383	0.022
-301.793	-104.385	0.200	0.046
-300.778	-55.752	-0.142	0.064
-299.764	625.464	-0.035	-0.090
-298.749	-107.803	0.355	-0.078
-297.735	-68.892	-0.419	0.162
-296.720	-144.257	-0.059	0.006
-295.705	60.128	0.248	-0.246
-294.691	585.138	-0.050	0.123
-293.676	800.000	-0.015	0.053
-292.662	-79.029	-0.317	-0.108
-291.647	-27.327	0.191	-0.111
-290.632	-106.509	0.190	-0.043
-289.618	-98.068	0.134	0.035
-288.603	61.232	0.099	-0.098
-287.589	361.617	0.009	0.019
-286.574	5.932	0.235	0.174
-285.559	-52.841	0.199	-0.092
-284.545	-1.715	-0.162	0.115
-283.530	33.089	-0.429	0.373
-282.516	-139.384	-0.190	-0.020
-281.501	36.367	-0.166	0.146
-280.486	317.705	0.038	0.073
-279.472	-16.180	-0.076	-0.048
-278.457	31.798	-0.048	-0.042
-277.443	-87.630	0.266	-0.080
-276.428	73.550	-0.207	-0.217
-275.413	-40.612	0.141	-0.073
-274.399	-94.771	0.282	-0.077
-273.384	-200.000	0.010	0.069
-272.370	-86.918	0.145	-0.044
-271.355	-124.442	0.330	0.051
-270.340	683.041	0.060	-0.157
-269.326	-91.874	-0.175	-0.050
-268.311	-45.527	0.375	-0.186
-267.297	191.200	-0.154	-0.232
-266.282	528.031	-0.156	-0.368
-265.267	15.192	0.176	-0.138
-264.253	-185.726	-0.279	0.004
-263.238	-200.000	-0.020	0.215
-262.224	61.805	0.230	0.230
-261.209	-143.538	-0.112	0.011
-260.195	106.256	0.125	0.148
-259.180	800.000	0.082	0.259
-258.165	134.537	-0.218	-0.283
-257.151	-60.782	-0.274	0.116
-256.136	-156.266	0.140	0.009
-255.122	-130.583	0.249	-0.034
-254.107	443.075	-0.142	-0.311
-253.092	-146.453	-0.034	0.003
-252.078	800.000	-0.079	-0.245
-251.063	-82.341	-0.160	-0.052
-250.049	130.820	0.118	0.152
-249.034	-8.099	-0.121	-0.082
-248.019	146.620	-0.124	-0.167
-247.005	-58.315	0.171	0.075
-245.990	-4.917	0.233	-0.161
-244.976	800.000	0.073	-0.231
-243.961	275.574	0.141	0.250
-242.946	376.421	0.083	0.170
-241.932	-115.060	0.045	0.009
-240.917	162.310	-0.092	-0.128
-239.903	557.499	0.033	-0.080
-238.888	-200.000	0.020	0.264
-237.873	-83.314	0.164	0.053
-236.859	-200.000	-0.150	0.665
-235.844	-82.667	0.250	0.081
-234.830	149.587	-0.204	-0.277
-233.815	223.798	0.214	0.346
-232.800	-136.129	0.395	-0.046
-231.786	-76.811	-0.300	-0.105
-230.771	800.000	-0.030	-0.129
-229.757	35.234	-0.088	-0.078
-228.742	282.759	-0.187	-0.335
-227.727	-140.192	-0.416	0.044
-226.713	257.589	-0.100	-0.173
-225.698	112.964	-0.118	-0.143
-224.684	460.753	0.049	-0.109
-223.669	-124.556	0.316	-0.049
-222.655	109.602	-0.208	0.250
-221.640	31.652	0.121	-0.104
-220.625	800.000	0.007	0.023
-219.611	-200.000	0.009	-0.201
-218.596	86.411	-0.055	0.061
-217.582	732.322	-0.076	-0.202
-216.567	-140.621	-0.262	0.027
-215.552	-59.114	0.220	-0.095
-214.538	-107.509	-0.298	0.065
-213.523	-117.711	-0.372	-0.067
-212.509	527.114	-0.107	0.252
-211.494	-32.103	-0.134	0.075
-210.479	-85.231	-0.256	-0.080
-209.465	-200.000	-0.013	0.131
-208.450	97.686	0.070	-0.080
-207.436	8.235	-0.138	0.104
-206.421	82.831	0.127	0.138
-205.406	800.000	-0.047	-0.162
-204.392	-28.988	-0.232	-0.133
-203.377	26.743	-0.169	-0.141
-202.363	-200.000	0.017	0.547
-201.348	-200.000	-0.004	-0.072
-200.333	-95.239	-0.484	0.130
-199.319	-56.735	-0.222	-0.098
-198.304	-165.376	-0.115	0.005
-197.290	221.124	0.209	0.335
-196.275	54.925	-0.086	-0.083
-195.260	-200.000	0.063	0.637
-194.246	-122.055	0.218	-0.036
-193.231	67.503	0.054	-0.055
-192.217	-200.000	0.099	-0.439
-191.202	73.753	0.061	-0.064
-190.187	800.000	-0.067	-0.252
-189.173	33.540	0.209	-0.181
-188.158	322.590	-0.044	0.083
-187.144	-116.652	-0.440	-0.081
-186.129	142.362	0.106	-0.140
-185.114	103.411	0.040	0.047
-184.100	-93.560	-0.177	-0.049
-183.085	-23.359	-0.088	-0.053
-182.071	-161.552	-0.041	-0.002
-181.056	121.922	-0.239	0.297
-180.042	800.000	-0.029	-0.120
-179.027	329.648	0.047	-0.090
-178.012	-93.532	-0.046	0.013
-176.998	461.749	0.036	0.080
-175.983	67.154	-0.080	-0.081
-174.969	-115.286	0.044	-0.008
-173.954	138.007	0.280	-0.366
-172.939	-69.282	-0.120	0.046
-171.925	800.000	0.035	0.120
-170.910	-191.260	-0.178	0.002
-169.896	170.355	0.182	0.259
-168.881	800.000	-0.042	0.183
-167.866	163.151	0.307	0.430
-166.852	103.260	0.174	-0.204
-165.837	305.924	0.176	-0.327
-164.823	82.231	-0.035	-0.038
-163.808	-81.676	0.236	0.077
-162.793	-70.880	-0.277	-0.104
-161.779	-200.000	0.008	-0.106
-160.764	-200.000	-0.095	0.453
-159.750	97.721	0.178	0.204
-158.735	-200.000	-0.042	-0.264
-157.720	224.403	-0.117	-0.189
-156.706	-200.000	-0.010	0.407
-155.691	-71.383	0.192	-0.072
-154.677	281.445	0.087	-0.156
-153.662	-109.787	-0.125	-0.026
-152.647	-114.343	0.399	-0.077
-151.633	-200.000	0.036	0.211
-150.618	-200.000	0.003	-0.037
-149.604	5.221	-0.025	0.019
-148.589	-18.678	-0.122	0.076
-147.574	28.238	-0.152	-0.128
-146.560	-113.389	-0.101	0.020
-145.545	-48.074	0.241	-0.116
-144.531	-103.233	-0.365	0.086
-143.516	-118.685	0.436	0.077
-142.502	-200.000	0.009	0.057
-141.487	-44.088	-0.148	0.074
-140.472	-200.000	-0.012	-0.300
-139.458	800.000	-0.050	0.158
-138.443	-122.184	0.162	-0.026
-137.429	74.764	-0.046	0.048
-136.414	800.000	-0.043	-0.127
-135.399	-109.543	0.315	0.066
-134.385	263.497	-0.111	-0.192
-133.370	3.159	0.048	0.035
-132.356	-152.738	-0.212	0.015
-131.341	-200.000	-0.026	0.287
-130.326	800.000	0.032	-0.111
-129.312	461.038	0.046	0.101
-128.297	800.000	-0.079	0.333
-127.283	71.053	0.035	0.037
-126.268	-200.000	0.030	0.378
-125.253	-98.066	0.122	0.031
-124.239	110.901	0.097	0.116
-123.224	486.293	0.048	-0.108
-122.210	66.730	0.365	0.370
-121.195	49.792	0.039	0.037
-120.180	124.291	0.168	0.210
-119.166	-88.513	0.355	0.105
-118.151	304.281	0.103	-0.191
-117.137	144.281	0.020	-0.026
-116.122	-200.000	0.013	-0.246
-115.107	332.823	0.184	-0.353
-114.093	18.549	-0.250	-0.199
-113.078	-115.654	0.193	-0.036
-112.064	61.632	0.148	0.146
-111.049	734.252	-0.072	0.191
-110.034	12.896	-0.061	-0.047
-109.020	-199.663	-0.286	0.001
-108.005	729.659	-0.092	0.245
-106.991	-62.128	0.155	-0.065
-105.976	-93.371	0.082	-0.023
-104.962	-26.558	0.177	0.103
-103.947	-177.461	0.236	-0.006
-102.932	54.388	0.278	0.267
-101.918	152.317	-0.179	0.242
-100.903	-117.925	-0.049	0.009
-99.889	-100.727	0.160	0.039
-98.874	-200.000	0.008	0.103
-97.859	-83.594	0.271	0.086
-96.845	-54.588	-0.172	-0.077
-95.830	-200.000	0.041	-0.293
-94.816	7.902	-0.216	0.161
-93.801	581.197	0.085	0.206
-92.786	800.000	0.046	0.126
-91.772	-122.673	0.276	-0.044
-90.757	224.420	0.133	0.213
-89.743	800.000	-0.074	0.234
-88.728	-157.680	0.090	0.005
-87.713	-126.198	-0.298	-0.044
-86.699	-169.162	-0.266	-0.010
-85.684	-200.000	0.014	0.308
-84.670	-8.143	-0.121	0.081
-83.655	-152.838	0.501	-0.035
-82.640	65.942	-0.131	-0.132
-81.626	-119.508	-0.265	0.046
-80.611	243.837	0.099	0.166
-79.597	293.283	-0.058	0.105
-78.582	-200.000	-0.008	-0.293
-77.567	18.674	0.290	-0.231
-76.553	427.471	-0.072	-0.155
-75.538	617.114	0.260	0.648
-74.524	-61.883	-0.229	0.095
-73.509	67.512	0.097	0.098
-72.494	144.521	-0.139	-0.184
-71.480	800.000	-0.037	0.151
-70.465	463.126	0.140	-0.311
-69.451	-113.077	-0.317	0.062
-68.436	-200.000	-0.004	-0.120
-67.422	125.484	0.115	-0.144
-66.407	176.284	0.173	0.250
-65.392	-39.563	0.205	0.106
-64.378	271.504	0.275	0.481
-63.363	-75.008	-0.238	-0.085
-62.349	800.000	-0.124	0.479
-61.334	89.823	-0.750	-0.832
-60.319	92.534	0.224	0.251
-59.305	-200.000	-0.065	-0.707
-58.290	261.284	0.491	0.845
-57.276	352.407	0.753	1.482
-56.261	-200.000	85.603	504.657
-55.246	538.999	1388.454	3279.582
-54.232	177.712	2641.462	3823.672
-53.217	118.770	2267.165	2781.105
-52.203	49.094	1711.073	1596.217
-51.188	41.341	1440.460	1293.659
-50.173	38.137	1396.006	1233.492
-49.159	56.731	1436.727	1388.761
-48.144	61.489	1454.906	1436.678
-47.130	41.695	1415.092	1272.931
-46.115	38.138	1397.810	1234.894
-45.100	37.862	1393.240	1229.068
-44.086	37.880	1390.425	1226.651
-43.071	37.841	1388.137	1224.338
-42.057	37.808	1385.371	1221.643
-41.042	37.869	1384.188	1220.932
-40.027	37.870	1382.713	1219.587
-39.013	37.932	1380.568	1218.034
-37.998	37.945	1379.094	1216.767
-36.984	38.009	1377.162	1215.412
-35.969	37.976	1374.962	1213.221
-34.954	38.035	1373.160	1211.948
-33.940	38.037	1371.793	1210.708
-32.925	38.046	1370.342	1209.436
-31.911	38.161	1368.637	1208.594
-30.896	38.210	1367.440	1207.787
-29.881	38.087	1365.966	1205.679
-28.867	38.055	1364.705	1204.325
-27.852	38.234	1362.193	1203.160
-26.838	38.107	1361.526	1201.743
-25.823	38.081	1359.889	1200.089
-24.809	38.054	1358.526	1198.672
-23.794	38.020	1357.117	1197.173
-22.779	38.050	1356.007	1196.328
-21.765	38.097	1354.281	1195.045
-20.750	38.114	1352.888	1193.878
-19.736	37.998	1351.641	1192.019
-18.721	37.965	1350.272	1190.561
-17.706	37.937	1349.467	1189.632
-16.692	37.937	1347.840	1188.154
-15.677	38.060	1346.544	1187.714
-14.663	37.939	1345.487	1185.998
-13.648	37.934	1344.344	1184.910
-12.633	37.933	1343.359	1183.992
-11.619	37.840	1342.701	1182.800
-10.604	37.878	1341.591	1182.005
-9.590	37.889	1340.689	1181.230
-8.575	37.940	1339.339	1180.302
-7.560	37.911	1338.699	1179.514
-6.546	37.961	1337.836	1179.009
-5.531	37.875	1336.757	1177.494
-4.517	37.975	1335.713	1177.131
-3.502	37.910	1334.649	1175.754
-2.487	37.921	1333.786	1175.013
-1.473	37.978	1329.662	1171.678
-0.458	36.366	1313.459	1147.779
0.556	29.836	1293.297	1101.526
1.571	25.607	1296.828	1079.125
2.586	24.564	1313.395	1086.476
3.600	24.121	1303.305	1075.360
4.615	18.303	1226.435	978.685
5.629	6.648	1141.189	848.233
6.644	0.272	1115.213	795.273
7.659	-0.385	1112.383	789.725
8.673	-0.459	1110.922	788.228
9.688	-0.544	1109.313	786.572
10.702	0.179	1109.161	790.191
11.717	7.639	1120.759	837.837
12.731	16.460	1133.215	893.914
13.746	16.726	1131.157	893.620
14.761	14.167	1127.612	877.258
15.775	13.460	1126.125	872.303
16.790	13.158	1125.055	869.809
17.804	12.972	1124.353	868.209
18.819	13.000	1123.637	867.727
19.834	12.885	1122.395	866.085
20.848	12.805	1121.801	865.131
21.863	12.690	1121.765	864.422
22.877	12.621	1120.928	863.340
23.892	12.747	1119.947	863.164
24.907	12.715	1118.998	862.190
25.921	12.799	1117.588	861.470
26.936	12.819	1116.559	860.705
27.950	12.702	1115.296	859.043
28.965	12.776	1112.976	857.563
29.980	12.912	1110.663	856.415
30.994	12.820	1110.021	855.368
32.009	12.740	1108.732	853.881
33.023	12.673	1107.432	852.458
34.038	12.709	1106.459	851.818
35.053	12.706	1105.928	851.323
36.067	12.718	1104.684	850.349
37.082	12.749	1103.312	849.378
38.096	12.876	1102.476	849.314
39.111	12.867	1101.867	848.724
40.126	12.802	1100.281	847.092
41.140	12.764	1098.693	845.602
42.155	12.668	1097.549	844.150
43.169	12.764	1096.339	843.639
44.184	12.695	1095.011	842.191
45.199	12.726	1094.048	841.530
46.213	12.631	1092.973	840.146
47.228	12.740	1091.457	839.461
48.242	12.672	1090.416	838.243
49.257	12.715	1089.708	837.842
50.271	12.807	1088.222	837.091
51.286	12.837	1087.815	836.857
52.301	12.688	1086.533	835.040
53.315	12.776	1085.283	834.455
54.330	12.786	1084.351	833.710
55.344	12.784	1083.526	832.994
56.359	12.769	1082.658	832.177
57.374	12.819	1081.269	831.290
58.388	12.835	1080.536	830.733
59.403	12.786	1079.896	829.919
60.417	12.781	1078.587	828.815
61.432	12.678	1078.107	827.853
62.447	12.776	1077.190	827.572
63.461	12.790	1076.314	826.896
64.476	12.748	1075.645	826.097
65.490	12.690	1074.739	825.036
66.505	12.791	1073.785	824.739
67.520	12.868	1073.096	824.518
68.534	12.882	1072.090	823.745
69.549	12.627	1071.279	821.775
70.563	12.786	1070.185	821.658
71.578	12.755	1069.676	821.038
72.593	12.713	1068.639	819.963
73.607	12.718	1068.025	819.442
74.622	12.841	1067.138	819.298
75.636	12.685	1066.603	818.040
76.651	12.758	1065.770	817.693
77.666	12.746	1065.082	817.032
78.680	12.886	1064.274	817.033
79.695	12.783	1063.548	815.895
80.709	12.855	1062.924	815.700
81.724	12.817	1061.578	814.410
82.739	12.867	1061.164	814.266
83.753	12.795	1060.007	812.951
84.768	12.868	1059.021	812.483
85.782	12.932	1058.055	811.984
86.797	12.821	1057.032	810.579
87.812	12.853	1055.836	809.749
88.826	12.810	1055.266	809.031
89.841	12.867	1054.295	808.493
90.855	12.979	1052.781	807.806
91.870	12.921	1051.856	806.746
92.884	12.881	1051.078	805.881
93.899	12.814	1050.382	804.947
94.914	12.887	1049.629	804.656
95.928	12.895	1048.612	803.842
96.943	12.961	1047.317	803.102
97.957	12.743	1046.463	801.315
98.972	12.648	1045.682	800.184
99.987	12.802	1044.514	799.967
101.001	12.928	1043.288	799.570
102.016	12.966	1042.657	799.200
103.030	12.913	1041.702	798.142
104.045	12.828	1040.909	797.050
105.060	12.800	1040.018	796.164
106.074	12.795	1039.141	795.396
107.089	12.944	1038.313	795.411
108.103	12.935	1036.766	794.111
109.118	12.961	1035.682	793.334
110.133	12.833	1035.130	792.228
111.147	12.842	1033.865	791.235
112.162	12.799	1033.053	790.336
113.176	12.996	1032.000	790.402
114.191	12.975	1030.820	789.330
115.206	12.876	1030.435	788.490
116.220	12.813	1029.428	787.352
117.235	12.891	1028.527	786.966
118.249	12.903	1027.687	786.311
119.264	12.895	1026.561	785.338
120.279	12.991	1025.461	784.887
121.293	13.020	1024.455	784.184
122.308	13.029	1023.485	783.415
123.322	12.975	1022.401	782.260
124.337	12.918	1021.142	780.955
125.352	12.858	1020.004	779.733
126.366	12.781	1018.637	778.259
127.381	13.076	1017.701	778.864
128.395	13.166	1017.009	778.690
129.410	13.081	1015.980	777.435
130.424	13.138	1014.787	776.720
131.439	13.015	1014.195	775.622
132.454	13.037	1013.369	775.021
133.468	13.128	1011.969	774.310
134.483	13.079	1011.364	773.550
135.497	13.084	1010.258	772.658
136.512	13.008	1010.025	772.054
137.527	13.113	1008.300	771.161
138.541	13.143	1007.570	770.673
139.556	13.090	1007.076	769.980
140.570	13.056	1005.791	768.772
141.585	13.173	1004.503	768.263
142.600	12.995	1003.967	766.955
143.614	13.197	1003.001	767.088
144.629	13.206	1002.036	766.326
145.643	13.146	1001.057	765.229
146.658	12.930	1000.112	763.442
147.673	12.984	999.017	762.788
148.687	12.975	998.143	762.012
149.702	13.058	997.202	761.607
150.716	13.028	996.502	760.869
151.731	12.988	995.853	760.120
152.746	13.069	994.731	759.570
153.760	13.079	993.939	758.944
154.775	13.086	993.425	758.515
155.789	13.079	992.732	757.887
156.804	13.100	992.057	757.402
157.819	13.117	990.780	756.435
158.833	13.166	990.019	756.013
159.848	13.059	989.438	755.014
160.862	13.144	987.959	754.207
161.877	13.066	987.673	753.565
162.892	13.196	986.280	753.030
163.906	13.110	985.230	751.767
164.921	13.200	983.751	750.981
165.935	13.215	982.751	750.223
166.950	13.032	982.468	749.108
167.964	13.143	981.323	748.674
168.979	13.086	980.333	747.594
169.994	13.155	979.313	747.059
171.008	13.292	978.367	746.891
172.023	13.128	977.676	745.557
173.037	13.221	976.307	744.868
174.052	13.177	975.708	744.148
175.067	13.075	975.371	743.366
176.081	13.263	974.529	743.501
177.096	13.244	974.255	743.141
178.110	13.206	972.891	741.865
179.125	13.125	972.146	740.868
180.140	13.164	971.726	740.658
181.154	13.178	970.969	740.075
182.169	13.222	970.817	740.092
183.183	13.277	969.845	739.533
184.198	13.227	969.175	738.735
185.213	13.208	968.381	737.978
186.227	13.276	967.489	737.535
187.242	13.291	966.898	737.085
188.256	13.319	966.203	736.617
189.271	13.213	965.706	735.699
190.286	13.304	964.430	735.070
191.300	13.053	963.938	733.514
192.315	13.091	963.258	733.100
193.329	13.102	962.747	732.695
194.344	13.218	962.026	732.597
195.359	13.280	961.283	732.240
196.373	13.301	960.609	731.752
197.388	13.206	960.164	730.928
198.402	13.323	958.972	730.476
199.417	13.348	958.034	729.807
200.432	13.263	957.517	728.972
201.446	13.260	957.055	728.545
202.461	13.221	956.796	728.108
203.475	13.068	955.845	726.646
204.490	13.080	954.658	725.734
205.504	13.209	954.247	725.923
206.519	13.318	953.295	725.612
207.534	13.331	952.478	724.983
208.548	13.388	952.576	725.246
209.563	13.192	951.672	723.633
210.577	13.366	950.630	723.539
211.592	13.373	949.938	722.979
212.607	13.338	949.131	722.149
213.621	13.412	948.199	721.698
214.636	13.377	947.339	720.826
215.650	13.382	946.783	720.361
216.665	13.341	945.994	719.518
217.680	13.505	944.708	719.192
218.694	13.242	944.858	718.100
219.709	13.340	943.968	717.781
220.723	13.453	942.991	717.467
221.738	13.422	942.369	716.797
222.753	13.454	941.290	716.051
223.767	13.451	940.790	715.595
224.782	13.378	940.195	714.760
225.796	13.486	939.382	714.545
226.811	13.425	939.025	713.950
227.826	13.442	937.709	712.961
228.840	13.484	936.935	712.487
229.855	13.437	935.811	711.368
230.869	13.321	935.279	710.402
231.884	13.498	934.858	710.782
232.899	13.505	933.735	709.892
233.913	13.569	932.678	709.299
234.928	13.432	932.641	708.621
235.942	13.450	932.034	708.176
236.957	13.380	931.741	707.592
237.972	13.483	930.685	707.166
238.986	13.579	929.440	706.570
240.001	13.418	929.488	705.856
241.015	13.439	928.886	705.424
242.030	13.489	928.235	705.082
243.045	13.637	927.016	704.722
244.059	13.668	926.335	704.272
245.074	13.543	925.712	703.206
246.088	13.512	925.030	702.495
247.103	13.516	924.071	701.720
248.117	13.451	923.941	701.285
249.132	13.548	922.740	700.724
250.147	13.536	922.171	700.180
251.161	13.539	921.671	699.747
252.176	13.571	920.276	698.764
253.190	13.616	919.524	698.319
254.205	13.679	919.108	698.206
255.220	13.547	918.373	697.030
256.234	13.763	917.390	697.133
257.249	13.638	916.678	696.004
258.263	13.631	916.290	695.618
259.278	13.626	915.446	694.896
260.293	13.751	914.656	694.756
261.307	13.686	913.820	693.791
262.322	13.693	913.348	693.398
263.336	13.790	911.992	692.714
264.351	13.663	911.527	691.768
265.366	13.635	910.993	691.187
266.380	13.690	910.024	690.616
267.395	13.848	909.175	690.569
268.409	13.717	908.684	689.590
269.424	13.681	908.041	688.893
270.439	13.855	907.063	688.812
271.453	13.867	906.364	688.271
272.468	13.734	905.937	687.336
273.482	13.753	905.386	686.934
274.497	13.943	904.301	686.836
275.512	13.724	903.907	685.571
276.526	13.870	903.138	685.529
277.541	13.762	902.861	684.811
278.555	13.857	902.011	684.500
279.570	13.806	901.195	683.610
280.585	13.826	900.460	683.074
281.599	13.808	899.928	682.536
282.614	13.858	898.867	681.874
283.628	14.023	898.147	681.947
284.643	14.007	897.595	681.399
285.657	13.869	897.160	680.446
286.672	13.849	896.573	679.858
287.687	13.888	896.008	679.529
288.701	13.986	894.935	679.055
289.716	13.946	894.194	678.271
290.730	13.896	894.005	677.861
291.745	14.054	892.963	677.655
292.760	13.934	892.402	676.682
293.774	13.919	891.508	675.884
294.789	14.020	890.955	675.813
295.803	13.820	890.621	674.687
296.818	13.935	889.166	673.992
297.833	13.945	888.646	673.580
298.847	13.891	888.093	672.883
299.862	13.833	887.586	672.203
300.876	13.897	886.967	671.933
301.891	13.959	886.223	671.564
302.906	13.963	885.753	671.164
303.920	14.032	884.773	670.639
304.935	14.131	883.936	670.345
305.949	14.078	883.380	669.651
306.964	13.969	882.655	668.603
307.979	13.979	882.272	668.293
308.993	14.041	881.482	667.887
310.008	13.878	881.106	666.885
311.022	14.018	880.280	666.763
312.037	14.054	879.764	666.459
313.052	13.963	879.358	665.726
314.066	14.108	879.253	666.170
315.081	14.145	878.552	665.726
316.095	14.142	877.441	664.814
317.110	13.971	877.119	663.828
318.125	14.074	876.912	664.026
319.139	14.134	876.392	663.811
320.154	14.171	875.752	663.414
321.168	14.179	874.944	662.776
322.183	14.167	874.131	662.055
323.197	14.087	873.687	661.340
324.212	14.113	873.093	660.938
325.227	13.913	872.751	659.826
326.241	14.055	872.030	659.784
327.256	13.969	871.414	658.920
328.270	14.096	870.581	658.734
329.285	14.083	870.200	658.337
330.300	14.079	869.347	657.619
331.314	14.068	868.859	657.147
332.329	14.119	868.241	656.821
333.343	14.025	867.570	655.886
334.358	14.055	867.389	655.808
335.373	14.142	867.049	655.839
336.387	14.115	866.444	655.215
337.402	14.091	866.310	654.960
338.416	14.076	865.653	654.348
339.431	14.078	865.176	653.937
340.446	14.042	864.904	653.533
341.460	14.143	864.257	653.383
342.475	14.229	863.773	653.297
343.489	14.055	863.558	652.392
344.504	14.090	862.976	652.031
345.519	14.141	862.127	651.534
346.533	14.165	861.514	651.108
347.548	14.003	861.480	650.388
348.562	14.135	860.482	650.094
349.577	14.223	859.876	649.922
350.592	13.934	859.726	648.623
351.606	14.054	858.625	648.202
352.621	14.124	857.849	647.834
353.635	14.133	857.258	647.364
354.650	14.461	856.556	648.052
355.665	14.536	856.232	648.040
356.679	14.405	855.697	647.069
357.694	14.269	854.918	645.897
358.708	14.433	854.005	645.784
359.723	14.218	853.666	644.636
360.738	14.250	852.903	644.127
361.752	14.236	852.191	643.481
362.767	14.127	851.244	642.285
363.781	14.111	850.617	641.696
364.796	14.018	850.199	640.965
365.810	14.140	849.825	641.095
366.825	14.183	849.288	640.799
367.840	14.186	848.737	640.338
368.854	14.302	848.464	640.522
369.869	14.273	848.101	640.079
370.883	14.369	847.308	639.792
371.898	14.346	847.402	639.721
372.913	14.401	846.868	639.471
373.927	14.244	846.293	638.379
374.942	14.295	845.564	637.967
375.956	14.296	844.888	637.406
376.971	14.328	844.167	636.927
377.986	14.281	844.243	636.749
379.000	14.407	843.092	636.303
380.015	14.339	842.858	635.813
381.029	14.222	842.425	634.984
382.044	14.165	841.842	634.271
383.059	14.236	841.398	634.149
384.073	14.231	840.906	633.703
385.088	14.180	840.132	632.872
386.102	14.219	839.580	632.546
387.117	14.198	839.031	631.999
388.132	14.369	838.435	632.141
389.146	14.635	838.186	632.905
390.161	14.460	837.397	631.591
391.175	14.323	837.169	630.844
392.190	14.534	836.591	631.154
393.205	14.827	836.878	632.420
394.219	15.332	836.549	634.028
395.234	15.420	836.052	633.927
396.248	14.612	835.962	630.748
397.263	14.386	834.150	628.475
398.278	14.377	833.706	628.050
399.292	14.476	833.325	628.080
400.307	14.480	832.775	627.624
401.321	14.371	832.146	626.685
402.336	14.180	831.815	625.661
403.350	14.241	830.974	625.204
404.365	14.252	830.500	624.832
405.380	14.071	830.038	623.753
406.394	14.140	829.057	623.220
407.409	14.191	828.680	623.070
408.423	14.330	828.384	623.314
409.438	14.318	828.058	622.966
410.453	14.180	827.492	621.972
411.467	14.291	826.725	621.752
412.482	14.069	826.620	620.791
413.496	14.220	825.540	620.489
414.511	14.132	825.542	620.106
415.526	14.216	825.293	620.175
416.540	14.173	824.971	619.719
417.555	14.335	824.333	619.790
418.569	14.345	823.995	619.518
419.584	14.408	823.489	619.315
420.599	14.440	823.357	619.280
421.613	150.264	1357.865	1776.216
422.628	131.078	1435.751	1776.325
