DTS Sentinel unit serial number:	SN413079Multiplexer serial number:	ORYXHardware model number:	OX4-SRSoftware version number:	ORYX F/W v4.00 Oryx Data Collector v3.7.2.0data status	okinstallation	princeton_trtdifferential loss correction	single-endedforward channel	channel 1reverse channel	N/Adate	2019/09/12time	18:23:34forward acquisition time	15.00reverse acquisition time	0.00gamma	496.2192k internal	0.2318k external	0.2318temperature offset calibration	1.0105default loss term (dB/km)	0.3790temperature slope calibration	1.0000multiplexer offset coefficient	1.0000multiplexer slope coefficient	1.0000fibre end	0.00T internal ref (°C)	33.37T ext. ref 1 (°C)	2.93T ext. ref 2 (°C)	27.95length (m)	temperature (°C)	Stokes	anti-Stokes-747.200	-44.944	-0.689	-0.347
-746.185	49.103	-0.675	0.642
-745.171	-200.000	-0.169	1.079
-744.156	9.932	-0.739	-0.568
-743.142	581.251	0.078	-0.194
-742.127	-200.000	-0.044	-0.388
-741.112	48.798	0.201	0.191
-740.098	-36.089	0.253	-0.138
-739.083	-200.000	0.088	-0.518
-738.069	-87.565	0.711	0.217
-737.054	193.651	0.183	0.280
-736.039	-200.000	-0.120	0.581
-735.025	241.615	-0.190	-0.321
-734.010	-9.275	0.419	0.283
-732.996	38.580	-0.432	-0.389
-731.981	-54.499	0.453	0.208
-730.966	546.731	-0.103	0.250
-729.952	-200.000	0.019	0.302
-728.937	-119.529	-0.315	-0.055
-727.923	181.502	0.325	0.483
-726.908	67.833	0.677	0.700
-725.894	-3.348	-0.558	-0.393
-724.879	-57.028	-0.904	-0.403
-723.864	-200.000	-0.017	-0.871
-722.850	-138.874	-0.262	0.029
-721.835	-39.379	-0.746	-0.396
-720.821	192.988	0.176	-0.269
-719.806	-200.000	-0.040	0.297
-718.791	408.774	0.057	-0.122
-717.777	558.848	0.191	0.467
-716.762	286.416	-0.292	0.533
-715.748	645.230	0.137	-0.355
-714.733	-200.000	0.101	-0.518
-713.718	763.246	0.107	0.295
-712.704	225.775	0.134	0.220
-711.689	-161.970	-1.061	0.054
-710.675	483.612	0.086	-0.198
-709.660	418.769	-0.133	-0.288
-708.645	-100.531	-0.717	0.179
-707.631	98.911	-0.187	-0.218
-706.616	800.000	-0.044	-0.184
-705.602	24.541	-0.361	0.301
-704.587	-59.611	-0.069	0.030
-703.572	800.000	0.063	-0.222
-702.558	-200.000	-0.025	-0.601
-701.543	598.302	0.188	0.472
-700.529	-3.479	-0.162	0.114
-699.514	73.616	-0.309	-0.327
-698.499	319.421	0.466	0.893
-697.485	17.660	-0.467	0.375
-696.470	-16.395	0.621	-0.398
-695.456	743.987	-0.216	-0.588
-694.441	-200.000	0.016	-0.521
-693.426	-100.899	-0.444	-0.110
-692.412	19.572	-0.667	0.542
-691.397	-102.438	-0.898	-0.217
-690.383	81.671	-0.222	0.243
-689.368	800.000	-0.151	-0.582
-688.354	23.963	-0.456	0.380
-687.339	-0.790	1.139	0.815
-686.324	-171.720	0.810	-0.027
-685.310	-125.936	-0.373	-0.057
-684.295	238.274	0.165	0.277
-683.281	-80.739	-0.071	0.024
-682.266	121.099	0.218	0.273
-681.251	-113.215	-0.284	0.056
-680.237	-200.000	0.032	-0.518
-679.222	-70.921	-0.401	0.153
-678.208	37.497	-0.674	0.603
-677.193	169.194	-0.303	0.436
-676.178	-36.657	-0.647	-0.351
-675.164	38.525	0.726	-0.653
-674.149	-1.094	0.409	-0.292
-673.135	800.000	-0.037	-0.133
-672.120	309.210	0.105	0.197
-671.105	57.159	-0.557	-0.548
-670.091	-200.000	-0.189	0.996
-669.076	-116.199	-0.775	-0.145
-668.062	-17.989	-0.332	-0.210
-667.047	-60.546	0.610	-0.262
-666.032	-122.284	-0.059	-0.010
-665.018	192.175	-0.153	-0.233
-664.003	261.966	-0.069	0.120
-662.989	800.000	-0.176	-0.552
-661.974	800.000	-0.153	-0.669
-660.959	-95.409	1.279	0.347
-659.945	-31.513	-0.377	-0.214
-658.930	4.934	-0.111	0.083
-657.916	800.000	-0.168	-0.631
-656.901	-51.809	0.193	-0.091
-655.886	5.080	-0.683	-0.507
-654.872	47.085	-0.216	-0.203
-653.857	-200.000	-1.290	-0.001
-652.843	-200.000	-0.027	-0.577
-651.828	-59.590	-0.444	-0.192
-650.814	-73.496	0.587	0.216
-649.799	-117.075	-0.450	0.083
-648.784	-200.000	0.635	-0.003
-647.770	-200.000	0.086	-0.576
-646.755	-112.403	-0.698	0.141
-645.741	-104.055	-0.502	-0.118
-644.726	257.776	0.056	-0.098
-643.711	-200.000	0.064	-0.498
-642.697	-177.510	0.171	-0.004
-641.682	706.838	-0.201	0.535
-640.668	-200.000	-0.061	0.693
-639.653	589.872	-0.057	0.141
-638.638	-200.000	0.150	-0.817
-637.624	-44.656	0.725	-0.365
-636.609	-149.778	0.998	0.079
-635.595	98.162	-0.434	0.503
-634.580	800.000	0.118	-0.362
-633.565	-36.680	-0.570	0.309
-632.551	191.368	-0.624	-0.947
-631.536	204.598	0.125	0.195
-630.522	-28.841	0.508	0.294
-629.507	520.092	0.098	-0.232
-628.492	528.949	-0.288	0.686
-627.478	-52.981	-0.214	-0.099
-626.463	32.815	-0.525	-0.457
-625.449	-200.000	-0.099	1.115
-624.434	30.600	-0.380	-0.327
-623.419	15.586	-0.542	-0.429
-622.405	402.426	0.118	0.249
-621.390	-36.412	0.328	0.178
-620.376	-78.041	-0.504	-0.175
-619.361	800.000	0.247	-0.924
-618.346	-200.000	0.035	-0.692
-617.332	-101.671	0.551	0.135
-616.317	101.761	-0.214	-0.251
-615.303	5.189	-0.286	0.212
-614.288	98.989	-0.642	0.747
-613.273	-78.939	0.576	0.197
-612.259	-200.000	-0.006	-0.177
-611.244	-200.000	0.014	-0.781
-610.230	800.000	0.204	-0.873
-609.215	-135.691	0.076	0.009
-608.201	-63.080	0.781	-0.325
-607.186	299.201	0.312	0.579
-606.171	130.731	0.317	0.410
-605.157	203.831	-0.527	-0.822
-604.142	86.151	0.206	-0.228
-603.128	680.971	0.153	0.400
-602.113	213.260	-0.062	0.099
-601.098	-65.372	0.486	0.197
-600.084	40.227	0.505	-0.457
-599.069	-200.000	0.176	-0.788
-598.055	-182.519	-0.319	-0.006
-597.040	155.981	-0.308	0.427
-596.025	133.458	-0.327	-0.425
-595.011	-16.726	-0.060	0.038
-593.996	5.784	0.377	-0.280
-592.982	800.000	-0.197	0.563
-591.967	33.687	0.313	0.274
-590.952	62.346	0.997	-1.001
-589.938	66.017	-0.900	-0.919
-588.923	92.998	0.419	-0.477
-587.909	-17.782	-0.313	0.198
-586.894	180.163	0.054	-0.080
-585.879	532.595	0.143	-0.341
-584.865	-145.129	-0.293	0.027
-583.850	474.183	0.173	-0.391
-582.836	25.140	-0.394	-0.329
-581.821	305.635	-0.204	0.381
-580.806	138.580	0.523	0.691
-579.792	178.950	-0.262	-0.385
-578.777	16.115	-0.337	0.267
-577.763	38.311	-0.620	-0.556
-576.748	151.216	-0.392	0.536
-575.733	21.672	-0.237	-0.194
-574.719	-200.000	0.120	-0.652
-573.704	324.121	-0.062	0.120
-572.690	145.435	-0.405	-0.545
-571.675	41.460	-0.103	-0.093
-570.661	-114.950	0.303	-0.058
-569.646	-200.000	0.267	0.001
-568.631	-200.000	-0.038	-0.447
-567.617	-200.000	-0.011	-0.270
-566.602	41.228	-0.186	-0.169
-565.588	-200.000	0.069	0.450
-564.573	800.000	-0.255	-0.806
-563.558	-170.183	0.475	-0.017
-562.544	-89.227	-0.349	0.104
-561.529	-200.000	0.066	0.375
-560.515	63.047	-0.443	0.446
-559.500	800.000	0.040	-0.167
-558.485	-42.479	0.274	0.140
-557.471	-200.000	0.076	-0.741
-556.456	800.000	-0.256	-0.783
-555.442	566.077	-0.418	-1.019
-554.427	410.639	-0.065	-0.138
-553.412	254.804	-0.124	0.214
-552.398	800.000	-0.215	-0.847
-551.383	487.874	-0.495	1.134
-550.369	150.313	-0.862	1.176
-549.354	800.000	-0.280	0.815
-548.339	-41.865	-0.391	0.201
-547.325	-61.350	-0.090	0.038
-546.310	-70.504	-0.028	0.011
-545.296	64.850	0.179	-0.182
-544.281	599.054	0.146	-0.365
-543.266	113.295	0.482	0.587
-542.252	-110.051	0.757	-0.159
-541.237	45.841	-0.269	-0.250
-540.223	-54.323	-0.723	-0.329
-539.208	-13.640	0.981	0.638
-538.193	-200.000	0.158	1.014
-537.179	800.000	0.330	0.961
-536.164	401.265	0.052	0.110
-535.150	146.478	0.102	0.137
-534.135	-62.626	-0.683	0.284
-533.121	187.639	0.137	0.206
-532.106	134.437	0.553	0.720
-531.091	-1.518	0.276	0.195
-530.077	470.260	0.346	-0.781
-529.062	269.688	-0.280	0.494
-528.048	264.050	0.434	0.758
-527.033	-16.310	-0.474	0.302
-526.018	142.577	0.358	0.477
-525.004	-39.239	-0.624	0.329
-523.989	-200.000	-0.055	0.480
-522.975	-15.539	-0.237	0.152
-521.960	212.775	-0.626	-0.991
-520.945	800.000	-0.089	0.283
-519.931	-200.000	-0.054	0.257
-518.916	-200.000	0.044	-0.310
-517.902	-19.519	-0.661	-0.411
-516.887	112.794	0.116	0.141
-515.872	-200.000	-0.005	-0.396
-514.858	-98.593	-0.420	0.107
-513.843	5.887	0.410	-0.304
-512.829	-122.089	-0.691	0.114
-511.814	-171.004	-0.834	-0.028
-510.799	82.058	0.928	1.008
-509.785	136.133	-0.534	0.698
-508.770	800.000	0.343	1.234
-507.756	800.000	-0.073	-0.321
-506.741	-120.379	-0.131	-0.022
-505.726	16.890	0.206	0.164
-504.712	-116.435	0.661	-0.122
-503.697	-89.937	-1.273	-0.373
-502.683	-200.000	0.005	-0.363
-501.668	-121.839	0.680	-0.113
-500.653	-50.150	-0.300	-0.142
-499.639	800.000	-0.270	-1.159
-498.624	434.910	0.262	0.570
-497.610	150.741	0.323	0.440
-496.595	-200.000	0.083	-0.684
-495.581	-17.028	-0.561	0.355
-494.566	212.473	-0.185	0.292
-493.551	-36.004	0.340	0.184
-492.537	800.000	-0.217	-0.831
-491.522	321.592	-0.407	0.776
-490.508	-200.000	-0.067	-0.427
-489.493	338.438	0.323	-0.630
-488.478	73.536	-0.117	0.123
-487.464	-76.602	0.172	0.060
-486.449	-200.000	0.021	-1.132
-485.435	-72.919	-0.833	0.307
-484.420	-146.870	0.213	0.018
-483.405	800.000	0.190	0.690
-482.391	133.062	-0.521	-0.674
-481.376	-200.000	0.103	0.568
-480.362	800.000	-0.108	-0.391
-479.347	-35.863	0.346	-0.188
-478.332	22.063	-0.374	0.305
-477.318	128.879	-0.298	-0.381
-476.303	-200.000	0.019	1.088
-475.289	800.000	0.240	0.751
-474.274	41.252	0.819	0.742
-473.259	-169.370	0.582	-0.021
-472.245	-200.000	0.085	-0.618
-471.230	-136.260	0.234	0.027
-470.216	-88.043	0.356	0.107
-469.201	150.343	0.233	0.317
-468.186	-66.954	-0.496	-0.196
-467.172	589.606	-0.268	-0.662
-466.157	87.611	0.083	-0.093
-465.143	-200.000	0.123	-0.700
-464.128	-200.000	0.023	0.460
-463.113	-175.560	0.325	-0.009
-462.099	-33.473	-0.604	-0.334
-461.084	197.054	-0.379	-0.579
-460.070	34.359	0.425	0.371
-459.055	-90.118	0.439	0.128
-458.040	314.084	-0.108	-0.203
-457.026	-184.284	0.990	0.016
-456.011	473.140	0.357	0.804
-454.997	4.541	0.190	0.139
-453.982	649.678	0.190	0.487
-452.968	27.958	-0.506	0.427
-451.953	-19.540	-0.214	-0.133
-450.938	-130.834	0.789	-0.106
-449.924	-88.504	-0.658	0.196
-448.909	-40.737	0.434	0.225
-447.895	84.914	-0.371	-0.407
-446.880	25.212	0.583	0.485
-445.865	16.770	-0.499	-0.395
-444.851	-133.693	0.692	-0.086
-443.836	-38.409	0.409	0.216
-442.822	800.000	0.167	0.725
-441.807	-101.710	1.143	0.277
-440.792	-200.000	-0.114	-0.747
-439.778	-121.050	0.652	-0.109
-438.763	297.505	-0.330	0.605
-437.749	-200.000	0.084	0.864
-436.734	144.074	-0.347	0.462
-435.719	-55.883	-0.302	0.135
-434.705	-200.000	0.088	0.512
-433.690	-200.000	-0.042	0.639
-432.676	-87.806	-0.310	0.093
-431.661	-43.715	-0.489	0.246
-430.646	-200.000	-0.058	0.679
-429.632	-142.111	0.838	0.083
-428.617	340.091	0.336	-0.656
-427.603	59.471	-0.355	0.350
-426.588	213.978	0.267	-0.422
-425.573	-151.656	-0.224	0.017
-424.559	33.308	0.813	0.705
-423.544	64.896	0.598	-0.603
-422.530	-0.388	0.439	-0.311
-421.515	101.168	0.662	-0.770
-420.500	-89.829	0.544	0.159
-419.486	-128.674	0.399	0.056
-418.471	-200.000	-0.005	-0.206
-417.457	-130.193	-0.506	0.069
-416.442	-7.417	0.268	0.181
-415.428	-102.299	0.705	0.169
-414.413	-31.719	0.553	0.310
-413.398	-122.624	1.019	0.165
-412.384	-34.417	-0.404	-0.221
-411.369	800.000	0.096	0.409
-410.355	-16.927	-0.367	-0.232
-409.340	-200.000	-0.037	-0.466
-408.325	791.824	0.162	-0.446
-407.311	155.351	0.365	-0.501
-406.296	-92.627	-0.644	-0.180
-405.282	-155.858	0.103	-0.007
-404.267	8.495	-0.344	-0.259
-403.252	27.011	-0.515	0.431
-402.238	120.618	0.291	0.361
-401.223	-119.058	-1.146	-0.200
-400.209	204.063	-0.306	-0.473
-399.194	-200.000	0.031	0.279
-398.179	48.636	0.556	-0.520
-397.165	-131.610	-0.158	-0.021
-396.150	-142.198	-0.269	-0.027
-395.136	-11.254	0.122	0.080
-394.121	-88.619	-0.743	-0.221
-393.106	-91.155	0.430	-0.123
-392.092	-82.765	-0.360	-0.116
-391.077	-41.971	0.175	0.090
-390.063	44.393	-0.337	0.309
-389.048	-200.000	-0.053	0.569
-388.033	-3.425	0.421	0.293
-387.019	247.299	-0.042	-0.070
-386.004	479.530	-0.308	-0.698
-384.990	-90.557	0.586	0.169
-383.975	-103.640	-0.431	0.101
-382.960	-9.662	0.679	-0.452
-381.946	-104.683	0.429	0.099
-380.931	-200.000	0.201	0.885
-379.917	-200.000	0.009	-0.166
-378.902	-9.792	0.926	0.615
-377.888	-200.000	-0.101	0.767
-376.873	-124.208	-0.410	0.064
-375.858	8.805	0.123	-0.092
-374.844	-75.964	-0.308	0.109
-373.829	800.000	-0.092	-0.384
-372.815	-17.388	-0.910	-0.572
-371.800	572.839	-0.453	1.101
-370.785	677.999	-0.214	0.555
-369.771	-63.856	-0.343	0.140
-368.756	-98.878	0.200	-0.051
-367.742	34.953	-0.481	0.420
-366.727	-200.000	0.031	-0.186
-365.712	-52.948	0.396	-0.182
-364.698	47.146	-0.574	-0.533
-363.683	-75.592	0.566	0.200
-362.669	-90.734	-0.116	-0.033
-361.654	-94.768	0.213	0.058
-360.639	-70.975	-0.757	-0.284
-359.625	-200.000	-0.110	-0.943
-358.610	-200.000	0.070	-1.027
-357.596	-200.000	0.016	0.586
-356.581	254.637	-0.159	-0.271
-355.566	655.895	-0.037	0.095
-354.552	305.210	0.160	0.296
-353.537	415.271	-0.242	0.513
-352.523	219.873	0.103	-0.165
-351.508	-137.977	-0.603	-0.067
-350.493	121.924	0.247	-0.307
-349.479	-103.969	0.599	0.139
-348.464	53.065	-0.347	-0.331
-347.450	-29.975	-0.256	0.145
-346.435	-200.000	0.023	-0.715
-345.420	-200.000	0.710	0.002
-344.406	-200.000	0.140	-1.007
-343.391	-43.049	-0.606	0.306
-342.377	103.874	0.459	0.537
-341.362	-200.000	-0.015	0.450
-340.348	59.864	0.331	-0.325
-339.333	-91.162	-0.179	0.051
-338.318	-111.155	-0.374	-0.076
-337.304	-200.000	-0.198	-1.092
-336.289	31.095	0.561	0.480
-335.275	154.344	-0.222	-0.304
-334.260	160.569	-0.106	0.148
-333.245	65.197	-0.466	-0.470
-332.231	42.298	0.883	-0.799
-331.216	133.846	-0.302	-0.390
-330.202	-71.006	0.632	-0.237
-329.187	-95.355	-0.256	-0.069
-328.172	-132.703	0.020	-0.003
-327.158	-200.000	-0.063	-0.298
-326.143	-89.873	0.798	0.232
-325.129	-200.000	-0.075	0.895
-324.114	-158.653	-0.177	0.010
-323.099	38.340	-0.710	-0.629
-322.085	364.020	-0.134	-0.268
-321.070	217.262	-0.499	-0.791
-320.056	352.488	-0.271	0.535
-319.041	-107.824	0.481	-0.104
-318.026	218.230	-0.212	0.337
-317.012	-78.202	-0.322	0.110
-315.997	-200.000	0.005	-0.494
-314.983	-22.712	-0.244	-0.147
-313.968	800.000	0.115	0.316
-312.953	29.790	-0.334	-0.283
-311.939	357.479	-0.096	0.190
-310.924	192.906	0.144	-0.217
-309.910	-75.591	-0.412	0.146
-308.895	-75.566	0.898	0.318
-307.880	310.483	-0.088	0.164
-306.866	-200.000	0.047	-0.321
-305.851	159.589	-0.308	-0.427
-304.837	39.260	-0.333	0.296
-303.822	-119.316	-0.352	-0.061
-302.807	-19.275	-0.318	-0.196
-301.793	-200.000	-0.022	-0.424
-300.778	800.000	0.130	0.423
-299.764	-0.087	0.331	0.234
-298.749	-53.350	0.509	0.232
-297.735	-200.000	0.110	-0.625
-296.720	-164.003	0.808	-0.037
-295.705	-73.032	0.324	0.118
-294.691	-44.828	-0.752	0.373
-293.676	-53.916	-0.139	-0.063
-292.662	-70.812	0.352	0.132
-291.647	-189.835	-0.990	-0.011
-290.632	76.023	-0.236	-0.248
-289.618	504.087	0.138	0.319
-288.603	800.000	-0.313	1.149
-287.589	171.132	0.617	0.880
-286.574	-200.000	0.082	-0.458
-285.559	-200.000	0.080	-1.072
-284.545	-161.594	0.827	-0.042
-283.530	-200.000	0.091	-0.504
-282.516	213.451	0.414	0.650
-281.501	73.894	-0.126	-0.131
-280.486	-44.680	0.833	-0.414
-279.472	149.042	0.203	-0.273
-278.457	800.000	-0.383	1.112
-277.443	-200.000	-0.131	-0.584
-276.428	-43.110	-0.497	-0.250
-275.413	-66.601	-0.537	-0.212
-274.399	62.386	-0.305	0.303
-273.384	-47.569	0.506	-0.244
-272.370	-200.000	-0.081	0.899
-271.355	112.095	-0.259	-0.311
-270.340	210.991	0.171	0.268
-269.326	154.314	-0.122	0.166
-268.311	-190.165	0.309	0.003
-267.297	800.000	-0.108	-0.351
-266.282	-200.000	-0.079	-0.728
-265.267	38.049	-0.331	0.292
-264.253	-112.378	-0.602	-0.120
-263.238	85.474	0.204	-0.222
-262.224	-82.206	0.147	-0.048
-261.209	-56.516	-1.060	0.467
-260.195	-142.492	-0.792	-0.077
-259.180	-15.666	0.384	-0.243
-258.165	800.000	-0.178	-0.626
-257.151	148.408	0.239	0.320
-256.136	-200.000	-0.032	0.648
-255.122	-84.984	0.699	-0.218
-254.107	800.000	-0.059	0.220
-253.092	-200.000	0.040	0.363
-252.078	-125.935	-0.365	-0.055
-251.063	-96.646	0.205	0.054
-250.049	-68.007	0.408	-0.158
-249.034	-42.281	0.196	-0.099
-248.019	-37.710	-0.589	-0.311
-247.005	-88.393	-0.196	0.058
-245.990	165.585	0.411	0.577
-244.976	-30.101	0.493	0.278
-243.961	18.166	-0.521	-0.412
-242.946	-200.000	0.006	-0.582
-241.932	-200.000	0.076	0.354
-240.917	800.000	0.088	-0.339
-239.903	136.645	0.387	-0.502
-238.888	120.194	-0.445	0.548
-237.873	-144.199	0.501	-0.046
-236.859	158.479	0.083	0.115
-235.844	60.846	-0.470	0.462
-234.830	-200.000	-0.003	0.037
-233.815	584.885	0.170	0.414
-232.800	-6.441	-0.426	-0.288
-231.786	-200.000	-0.118	-0.676
-230.771	25.796	-0.542	-0.448
-229.757	-107.170	-0.376	0.082
-228.742	522.249	-0.136	-0.316
-227.727	-81.064	-0.464	0.152
-226.713	-200.000	-0.173	0.798
-225.698	59.967	0.329	-0.322
-224.684	266.039	0.416	0.720
-223.669	-27.759	0.214	0.123
-222.655	800.000	0.050	0.143
-221.640	-139.825	1.518	0.160
-220.625	16.128	-0.630	0.492
-219.611	74.168	-0.416	0.433
-218.596	-35.460	-0.572	-0.308
-217.582	-200.000	0.131	-0.787
-216.567	-200.000	0.030	-1.123
-215.552	800.000	0.213	0.586
-214.538	-200.000	0.025	0.110
-213.523	556.587	0.389	-0.928
-212.509	-200.000	0.002	-0.640
-211.494	685.052	-0.113	-0.293
-210.479	240.372	-0.390	0.644
-209.465	-184.337	-0.501	-0.008
-208.450	-200.000	0.025	-0.210
-207.436	151.097	-0.109	-0.146
-206.421	734.211	-0.190	0.505
-205.406	-69.508	-0.411	-0.156
-204.392	-126.607	1.236	0.182
-203.377	278.537	-0.019	0.034
-202.363	444.464	0.206	-0.448
-201.348	-200.000	0.864	-0.003
-200.333	1.428	-0.564	0.402
-199.319	-40.165	0.655	-0.338
-198.304	-200.000	-0.061	0.811
-197.290	-200.000	0.006	-0.892
-196.275	16.556	0.051	0.040
-195.260	-116.915	0.336	0.061
-194.246	-34.237	0.759	0.413
-193.231	-66.649	-0.221	0.087
-192.217	674.326	-0.278	0.716
-191.202	-62.575	0.734	0.302
-190.187	-28.825	0.613	0.349
-189.173	27.084	-0.375	0.311
-188.158	43.766	-0.298	-0.271
-187.144	41.155	0.639	0.571
-186.129	122.761	0.266	-0.330
-185.114	-166.031	-0.773	-0.033
-184.100	-60.508	0.386	-0.162
-183.085	-72.735	-0.511	0.186
-182.071	-89.317	-1.601	0.467
-181.056	45.668	0.369	-0.338
-180.042	-127.096	-0.686	-0.099
-179.027	54.562	0.528	-0.503
-178.012	-200.000	-0.132	-0.727
-176.998	-57.138	-0.196	-0.085
-175.983	32.436	-0.561	-0.479
-174.969	800.000	-0.125	-0.390
-173.954	-200.000	-0.052	0.630
-172.939	151.621	-0.336	0.453
-171.925	800.000	-0.246	0.676
-170.910	-150.795	0.498	0.037
-169.896	-8.555	-0.254	-0.169
-168.881	93.371	0.205	0.229
-167.866	181.254	0.621	0.904
-166.852	147.137	0.587	0.781
-165.837	-200.000	0.001	0.858
-164.823	-66.142	-0.441	-0.174
-163.808	-162.736	-0.344	0.017
-162.793	15.104	0.426	-0.330
-161.779	-25.202	0.849	-0.497
-160.764	258.772	0.197	-0.336
-159.750	-200.000	0.109	0.001
-158.735	-200.000	0.062	0.352
-157.720	-150.131	0.042	-0.003
-156.706	-78.440	0.322	-0.109
-155.691	189.551	0.093	0.138
-154.677	-21.718	0.178	0.107
-153.662	800.000	-0.194	-0.622
-152.647	274.904	-0.235	-0.411
-151.633	-178.078	-0.318	0.007
-150.618	139.359	-0.219	0.285
-149.604	8.839	-0.770	0.574
-148.589	3.587	-0.329	-0.237
-147.574	-100.239	0.595	0.146
-146.560	628.402	-0.223	0.558
-145.545	-146.184	0.312	0.027
-144.531	238.722	-0.201	-0.331
-143.516	323.543	-0.416	0.784
-142.502	-200.000	-0.137	-0.667
-141.487	-200.000	-0.044	0.231
-140.472	-200.000	0.057	0.381
-139.458	257.983	0.176	0.299
-138.443	29.957	-0.423	-0.356
-137.429	-194.524	0.435	0.003
-136.414	58.396	-0.555	0.538
-135.399	-200.000	-0.138	-0.769
-134.385	-178.215	0.784	0.018
-133.370	-200.000	-0.014	-0.872
-132.356	149.212	0.390	-0.522
-131.341	-200.000	0.104	0.895
-130.326	-200.000	0.003	-0.156
-129.312	37.203	0.366	0.320
-128.297	-109.845	0.353	0.073
-127.283	-200.000	-0.100	-0.552
-126.268	-200.000	-0.084	0.464
-125.253	-200.000	0.063	-0.538
-124.239	-200.000	-0.086	0.599
-123.224	-19.239	0.376	-0.230
-122.210	-90.321	-0.505	-0.145
-121.195	-92.923	0.311	0.086
-120.180	-200.000	0.489	0.001
-119.166	63.352	0.178	0.176
-118.151	47.249	0.164	-0.151
-117.137	-132.294	0.825	0.105
-116.122	114.651	0.531	0.639
-115.107	-59.472	0.190	-0.081
-114.093	-61.899	0.488	0.202
-113.078	407.624	0.182	-0.379
-112.064	-200.000	-0.020	0.304
-111.049	-57.198	0.747	0.325
-110.034	-91.742	-0.608	-0.171
-109.020	800.000	0.294	1.152
-108.005	35.504	0.301	0.261
-106.991	800.000	-0.152	0.537
-105.976	-175.537	-0.441	0.012
-104.962	-28.235	-0.495	0.282
-103.947	-200.000	-0.013	0.509
-102.932	-122.363	-0.367	-0.059
-101.918	-126.927	-0.335	-0.049
-100.903	800.000	-0.147	-0.525
-99.889	774.363	-0.452	-1.216
-98.874	-8.672	-0.718	-0.475
-97.859	-48.211	-0.781	-0.372
-96.845	-200.000	-0.039	-0.712
-95.830	-200.000	-0.036	1.157
-94.816	-197.055	-1.101	0.007
-93.801	452.090	0.035	-0.077
-92.786	-0.456	0.240	0.168
-91.772	-118.284	-0.160	0.028
-90.757	-200.000	-0.074	0.965
-89.743	-172.309	-1.213	-0.038
-88.728	6.459	0.585	-0.429
-87.713	-38.182	-0.443	-0.232
-86.699	-185.658	0.615	-0.009
-85.684	229.442	-0.192	-0.309
-84.670	51.153	0.379	-0.354
-83.655	-200.000	0.080	0.360
-82.640	-61.491	-0.276	0.114
-81.626	385.801	-0.278	-0.565
-80.611	-85.019	0.301	0.093
-79.597	-200.000	-0.052	0.269
-78.582	150.002	0.473	0.633
-77.567	800.000	0.066	0.261
-76.553	800.000	0.155	0.449
-75.538	800.000	-0.266	-0.833
-74.524	-54.235	0.280	0.125
-73.509	109.938	-0.462	-0.547
-72.494	800.000	-0.118	0.465
-71.480	70.926	0.263	-0.269
-70.465	-200.000	-0.024	-0.142
-69.451	65.667	-0.358	-0.357
-68.436	272.957	-0.295	-0.514
-67.422	800.000	0.313	1.154
-66.407	81.471	-0.182	-0.194
-65.392	405.818	-0.259	0.539
-64.378	800.000	0.185	0.571
-63.363	-91.465	-1.046	-0.294
-62.349	-43.539	0.083	0.041
-61.334	69.808	-1.179	-1.198
-60.319	-139.205	0.906	0.096
-59.305	60.766	-0.808	-0.789
-58.290	26.442	1.530	1.260
-57.276	152.889	0.989	1.332
-56.261	-200.000	95.765	569.832
-55.246	633.006	1371.327	3423.199
-54.232	199.791	2539.573	3838.734
-53.217	117.800	2131.971	2585.991
-52.203	44.792	1599.027	1449.124
-51.188	37.055	1338.011	1166.239
-50.173	33.654	1295.745	1109.505
-49.159	56.848	1345.780	1291.026
-48.144	57.965	1364.027	1315.136
-47.130	37.221	1320.129	1151.453
-46.115	33.381	1303.710	1114.537
-45.100	33.413	1298.919	1110.588
-44.086	33.193	1296.354	1107.064
-43.071	33.154	1294.302	1105.040
-42.057	33.247	1291.918	1103.498
-41.042	33.188	1290.008	1101.480
-40.027	33.300	1288.307	1100.635
-39.013	33.274	1286.992	1099.316
-37.998	33.330	1285.353	1098.198
-36.984	33.227	1283.914	1096.330
-35.969	33.318	1281.405	1094.670
-34.954	33.282	1280.128	1093.328
-33.940	33.387	1278.970	1092.901
-32.925	33.312	1277.371	1091.060
-31.911	33.523	1275.603	1090.718
-30.896	33.592	1273.934	1089.649
-29.881	33.594	1272.735	1088.587
-28.867	33.497	1272.303	1087.621
-27.852	33.701	1270.181	1086.929
-26.838	33.429	1269.058	1084.373
-25.823	33.245	1268.204	1082.548
-24.809	33.447	1265.874	1081.668
-23.794	33.259	1265.656	1080.365
-22.779	33.457	1264.617	1080.565
-21.765	33.539	1262.365	1079.064
-20.750	33.707	1261.652	1079.365
-19.736	33.462	1259.757	1076.310
-18.721	33.376	1258.380	1074.602
-17.706	33.282	1257.520	1073.293
-16.692	33.455	1256.651	1073.490
-15.677	33.590	1255.032	1072.828
-14.663	33.357	1254.316	1070.854
-13.648	33.211	1253.805	1069.549
-12.633	33.282	1252.421	1068.728
-11.619	33.124	1251.762	1067.236
-10.604	33.458	1250.238	1067.776
-9.590	33.451	1250.502	1067.920
-8.575	33.162	1249.783	1065.636
-7.560	33.154	1248.872	1064.769
-6.546	33.217	1247.079	1063.551
-5.531	33.294	1247.103	1063.964
-4.517	33.392	1244.960	1062.642
-3.502	33.203	1244.680	1061.302
-2.487	33.329	1244.154	1061.516
-1.473	33.340	1238.426	1056.652
-0.458	31.834	1224.594	1036.485
0.556	28.933	1207.525	997.248
1.571	24.933	1212.999	979.844
2.586	23.936	1228.559	986.800
3.600	23.485	1216.705	974.710
4.615	17.454	1144.194	885.269
5.629	7.525	1068.664	778.297
6.644	3.307	1048.337	743.108
7.659	2.882	1045.462	738.959
8.673	2.741	1044.373	737.446
9.688	2.790	1043.203	736.790
10.702	3.202	1041.664	737.609
11.717	9.034	1050.750	772.107
12.731	19.307	1063.668	831.327
13.746	24.567	1070.218	861.827
14.761	25.469	1071.479	867.118
15.775	25.275	1070.430	865.257
16.790	25.558	1069.253	865.591
17.804	25.127	1069.588	863.713
18.819	25.433	1068.836	864.499
19.834	25.664	1069.341	865.943
20.848	25.566	1068.376	864.613
21.863	25.458	1068.225	863.896
22.877	25.496	1066.857	862.898
23.892	25.522	1066.929	863.004
24.907	25.513	1065.906	862.056
25.921	25.481	1063.715	860.055
26.936	25.562	1062.734	859.571
27.950	25.254	1062.091	857.503
28.965	25.174	1060.555	855.807
29.980	25.421	1058.961	855.622
30.994	25.684	1057.264	855.426
32.009	25.464	1057.291	854.323
33.023	25.359	1055.447	852.261
34.038	25.204	1055.355	851.375
35.053	25.349	1055.003	851.705
36.067	25.608	1053.180	851.382
37.082	24.958	1054.162	849.021
38.096	25.310	1052.742	849.467
39.111	25.981	1051.523	851.581
40.126	25.486	1050.576	848.404
41.140	25.252	1048.655	845.674
42.155	25.143	1046.709	843.514
43.169	25.119	1046.557	843.208
44.184	24.930	1045.928	841.738
45.199	25.130	1043.975	841.031
46.213	25.303	1043.779	841.609
47.228	25.258	1043.179	840.837
48.242	25.290	1043.348	841.050
49.257	25.274	1042.516	840.229
50.271	25.492	1040.791	839.784
51.286	25.637	1039.983	839.737
52.301	25.490	1039.577	838.649
53.315	25.517	1038.402	837.753
54.330	25.696	1037.062	837.430
55.344	25.362	1037.107	835.836
56.359	25.519	1036.059	835.647
57.374	25.158	1035.035	833.070
58.388	25.297	1034.511	833.223
59.403	25.553	1032.632	832.820
60.417	25.343	1032.852	831.951
61.432	25.286	1031.462	830.495
62.447	25.102	1032.199	830.162
63.461	25.523	1031.036	831.098
64.476	25.123	1030.353	828.626
65.490	25.228	1028.339	827.417
66.505	25.059	1029.216	827.269
67.520	25.217	1027.936	826.899
68.534	25.158	1026.108	825.083
69.549	24.892	1025.498	823.294
70.563	24.778	1025.370	822.594
71.578	24.934	1024.636	822.650
72.593	24.539	1023.401	819.775
73.607	24.809	1022.639	820.328
74.622	25.081	1022.574	821.450
75.636	24.979	1021.487	820.039
76.651	25.203	1019.975	819.774
77.666	24.952	1020.269	818.794
78.680	25.088	1019.964	819.095
79.695	24.655	1020.435	817.425
80.709	25.350	1017.991	818.562
81.724	25.283	1017.372	817.689
82.739	25.324	1016.458	817.067
83.753	25.495	1016.533	817.832
84.768	25.810	1016.160	818.891
85.782	26.147	1014.908	819.339
86.797	25.619	1014.675	816.686
87.812	25.549	1013.354	815.229
88.826	25.795	1011.477	814.763
89.841	26.079	1010.735	815.374
90.855	25.960	1010.375	814.477
91.870	26.070	1008.645	813.505
92.884	25.835	1007.795	811.688
93.899	25.843	1007.803	811.659
94.914	25.723	1006.615	810.089
95.928	25.614	1006.355	809.319
96.943	25.665	1004.185	807.731
97.957	25.423	1004.547	806.865
98.972	25.516	1003.209	806.138
99.987	25.500	1001.639	804.731
101.001	25.908	1000.919	805.905
102.016	25.872	999.346	804.408
103.030	25.516	999.274	802.688
104.045	25.463	997.622	801.054
105.060	25.314	997.603	800.304
106.074	25.916	996.105	801.711
107.089	25.921	996.015	801.590
108.103	25.530	995.127	799.066
109.118	25.520	993.829	797.910
110.133	25.854	992.161	797.978
111.147	24.910	992.386	793.906
112.162	25.141	990.767	793.562
113.176	25.044	990.291	792.684
114.191	25.097	989.956	792.579
115.206	25.450	987.842	792.373
116.220	25.045	987.921	790.580
117.235	24.899	987.933	789.874
118.249	24.938	986.518	788.846
119.264	25.296	984.705	788.900
120.279	24.921	984.964	787.389
121.293	25.113	983.834	787.258
122.308	25.186	983.329	787.106
123.322	24.743	982.653	784.553
124.337	24.935	981.396	784.321
125.352	24.777	979.674	782.183
126.366	24.430	978.761	779.871
127.381	25.437	978.214	783.760
128.395	25.719	977.936	784.697
129.410	25.624	977.795	784.098
130.424	25.554	975.906	782.211
131.439	25.741	974.484	781.814
132.454	25.562	975.179	781.524
133.468	25.618	973.353	780.237
134.483	25.575	973.174	779.838
135.497	25.624	972.655	779.566
136.512	25.569	971.776	778.552
137.527	26.047	970.466	779.500
138.541	25.985	969.818	778.645
139.556	25.779	969.579	777.492
140.570	26.167	968.130	777.935
141.585	26.121	966.979	776.742
142.600	26.175	966.308	776.366
143.614	26.040	966.341	775.745
144.629	26.076	965.293	774.991
145.643	25.996	964.458	773.909
146.658	25.986	962.466	772.200
147.673	25.688	961.467	770.053
148.687	25.949	961.171	770.862
149.702	25.558	960.089	768.258
150.716	25.295	960.404	767.316
151.731	25.633	958.802	767.410
152.746	25.745	957.753	766.983
153.760	26.131	957.595	768.430
154.775	26.400	956.253	768.429
155.789	26.227	955.429	766.965
156.804	25.974	954.885	765.384
157.819	26.068	954.545	765.447
158.833	26.245	953.603	765.370
159.848	26.311	953.197	765.260
160.862	26.262	951.980	764.004
161.877	26.193	950.436	762.410
162.892	25.829	949.421	759.989
163.906	26.150	947.723	759.915
164.921	25.964	947.403	758.809
165.935	25.934	947.829	758.959
166.950	25.929	946.192	757.559
167.964	25.705	945.693	756.151
168.979	25.919	944.479	756.011
169.994	25.940	943.936	755.596
171.008	26.260	942.854	756.003
172.023	26.585	941.764	756.420
173.037	26.031	941.137	753.535
174.052	26.236	940.550	753.856
175.067	25.934	939.650	751.806
176.081	26.164	938.504	751.782
177.096	25.831	937.639	749.639
178.110	25.673	937.141	748.516
179.125	25.350	937.277	747.217
180.140	25.746	936.369	748.069
181.154	25.671	935.749	747.200
182.169	25.949	936.010	748.493
183.183	26.221	935.382	749.053
184.198	25.955	934.544	747.214
185.213	25.978	934.015	746.822
186.227	26.145	932.867	746.528
187.242	26.205	932.680	746.561
188.256	26.139	931.858	745.562
189.271	26.534	931.125	746.539
190.286	25.934	930.244	743.295
191.300	25.626	928.347	740.445
192.315	24.778	927.632	736.323
193.329	24.870	925.995	735.334
194.344	25.186	927.069	737.423
195.359	26.088	927.534	741.434
196.373	25.750	927.659	740.080
197.388	26.219	926.227	740.795
198.402	26.046	926.353	740.123
199.417	26.344	924.907	740.121
200.432	26.506	923.645	739.707
201.446	26.126	923.076	737.635
202.461	26.040	922.379	736.661
203.475	25.433	921.177	733.161
204.490	24.493	920.285	728.553
205.504	25.293	920.409	731.848
206.519	25.939	920.120	734.186
207.534	26.097	919.761	734.475
208.548	26.140	919.574	734.436
209.563	26.340	917.324	733.388
210.577	26.024	918.488	732.969
211.592	26.056	918.455	733.008
212.607	26.481	916.647	733.221
213.621	26.626	914.956	732.392
214.636	26.619	914.944	732.288
215.650	26.041	914.356	729.418
216.665	26.558	913.667	730.893
217.680	26.622	912.634	730.258
218.694	25.736	912.570	726.569
219.709	25.997	911.554	726.749
220.723	26.123	911.431	727.093
221.738	26.009	910.679	725.969
222.753	25.904	910.966	725.710
223.767	26.557	909.722	727.281
224.782	26.441	909.728	726.753
225.796	26.544	908.503	726.124
226.811	26.152	906.536	722.920
227.826	25.353	906.726	719.805
228.840	25.460	906.646	720.106
229.855	25.641	905.740	720.047
230.869	25.142	904.868	717.297
231.884	25.667	903.768	718.456
232.899	25.973	904.879	720.501
233.913	26.029	903.954	719.922
234.928	25.833	903.402	718.636
235.942	25.925	901.882	717.729
236.957	25.689	901.200	716.187
237.972	25.851	900.918	716.541
238.986	25.927	899.990	716.043
240.001	26.059	899.166	715.850
241.015	26.006	898.497	715.041
242.030	25.820	898.785	714.470
243.045	26.072	898.747	715.377
244.059	26.494	897.665	716.124
245.074	26.294	896.480	714.322
246.088	26.279	895.637	713.530
247.103	26.391	895.645	713.915
248.117	26.499	895.460	714.132
249.132	26.998	895.326	715.928
250.147	27.140	894.186	715.513
251.161	27.111	894.464	715.556
252.176	27.373	893.021	715.371
253.190	27.111	893.636	714.769
254.205	27.405	892.313	714.800
255.220	27.314	891.980	714.115
256.234	27.077	891.791	712.971
257.249	27.058	891.154	712.322
258.263	27.010	889.532	710.775
259.278	27.018	889.472	710.695
260.293	27.026	888.014	709.500
261.307	26.888	888.686	709.434
262.322	27.280	887.046	709.590
263.336	26.464	885.208	704.882
264.351	25.748	883.877	700.970
265.366	25.791	884.626	701.673
266.380	26.524	885.236	704.950
267.395	26.893	884.056	705.382
268.409	26.712	883.847	704.449
269.424	26.642	883.030	703.466
270.439	27.119	881.641	704.144
271.453	27.042	881.638	703.781
272.468	26.910	881.918	703.432
273.482	27.029	881.102	703.178
274.497	26.693	880.024	700.955
275.512	26.673	878.339	699.476
276.526	27.127	878.425	701.233
277.541	26.758	878.403	699.731
278.555	27.040	877.359	699.923
279.570	26.803	876.213	698.035
280.585	26.990	876.375	698.824
281.599	26.935	874.794	697.289
282.614	26.472	874.547	695.253
283.628	26.458	873.325	694.165
284.643	26.874	872.711	695.209
285.657	26.190	873.405	693.078
286.672	26.103	871.220	690.948
287.687	26.768	871.371	693.554
288.701	26.742	871.100	693.176
289.716	26.210	871.009	691.009
290.730	26.443	869.499	690.638
291.745	26.121	868.724	688.734
292.760	26.404	869.157	690.096
293.774	27.275	869.081	693.294
294.789	27.443	869.021	693.827
295.803	27.822	867.187	693.741
296.818	27.425	867.501	692.423
297.833	26.933	866.548	689.731
298.847	27.251	865.023	689.662
299.862	27.381	865.027	690.099
300.876	27.337	865.368	690.143
301.891	27.542	864.011	689.774
302.906	27.055	863.344	687.338
303.920	27.328	862.999	688.036
304.935	27.574	863.466	689.277
305.949	27.651	861.997	688.335
306.964	27.189	861.350	686.014
307.979	26.923	861.595	685.144
308.993	27.272	861.860	686.611
310.008	27.496	860.927	686.652
311.022	27.916	858.987	686.625
312.037	27.484	858.479	684.535
313.052	26.755	858.541	681.781
314.066	26.214	856.629	678.173
315.081	25.761	856.590	676.380
316.095	27.069	855.811	680.607
317.110	27.179	856.361	681.397
318.125	26.248	855.365	677.060
319.139	25.384	853.234	672.080
320.154	25.475	852.612	671.873
321.168	26.436	853.540	676.138
322.183	26.675	853.966	677.310
323.197	27.097	853.057	678.104
324.212	27.236	852.313	677.971
325.227	27.172	851.663	677.156
326.241	27.156	852.178	677.446
327.256	27.307	850.647	676.730
328.270	27.351	849.144	675.639
329.285	26.983	848.230	673.487
330.300	26.713	847.743	672.037
331.314	26.890	847.250	672.243
332.329	27.345	847.990	674.460
333.343	27.017	848.110	673.277
334.358	27.256	847.395	673.535
335.373	27.168	846.839	672.709
336.387	27.408	847.032	673.689
337.402	27.730	847.030	674.822
338.416	27.700	846.227	674.009
339.431	28.067	845.487	674.715
340.446	28.147	845.464	674.932
341.460	28.007	844.719	673.764
342.475	27.677	844.672	672.449
343.489	27.782	844.736	672.828
344.504	28.347	844.437	674.612
345.519	28.346	843.887	674.109
346.533	28.248	843.632	673.485
347.548	28.153	843.056	672.615
348.562	28.107	842.343	671.820
349.577	28.153	841.391	671.167
350.592	27.843	841.517	670.073
351.606	27.840	840.489	669.184
352.621	27.917	839.719	668.794
353.635	27.875	838.486	667.600
354.650	27.220	837.366	664.256
355.665	26.549	835.733	660.455
356.679	27.271	835.191	662.601
357.694	27.244	834.917	662.225
358.708	27.241	835.261	662.428
359.723	27.539	834.516	662.862
360.738	27.740	834.253	663.326
361.752	28.128	834.268	664.690
362.767	28.161	832.666	663.474
363.781	28.405	832.136	663.878
364.796	28.685	832.078	664.785
365.810	29.019	830.767	664.887
366.825	28.549	831.512	663.722
367.840	28.461	830.523	662.557
368.854	28.068	830.218	660.836
369.869	27.541	829.780	658.523
370.883	28.041	829.806	660.295
371.898	28.276	828.454	660.007
372.913	28.399	827.928	659.973
373.927	28.100	828.531	659.316
374.942	28.177	827.562	658.764
375.956	28.225	827.900	659.147
376.971	28.331	826.879	658.658
377.986	28.437	826.393	658.592
379.000	28.300	825.439	657.282
380.015	28.113	825.744	656.796
381.029	28.338	824.684	656.700
382.044	28.932	824.049	658.267
383.059	28.270	824.592	656.269
384.073	28.484	823.235	655.895
385.088	28.274	822.823	654.758
386.102	27.889	822.141	652.784
387.117	28.186	821.168	653.012
388.132	27.806	820.027	650.694
389.146	27.645	818.883	649.153
390.161	27.984	818.955	650.359
391.175	28.116	819.376	651.109
392.190	28.074	818.442	650.158
393.205	26.502	816.175	642.722
394.219	25.367	814.950	637.671
395.234	24.928	814.103	635.397
396.248	26.810	814.147	642.043
397.263	28.133	815.712	647.913
398.278	27.839	815.013	646.261
399.292	27.686	815.276	645.869
400.307	27.583	814.072	644.495
401.321	27.564	813.785	644.144
402.336	28.162	813.851	646.249
403.350	28.874	813.330	648.292
404.365	28.663	813.740	647.815
405.380	28.998	812.563	648.002
406.394	29.200	812.008	648.213
407.409	28.911	812.864	647.821
408.423	28.747	812.458	646.861
409.438	28.697	811.890	646.178
410.453	28.613	811.131	645.221
411.467	28.621	810.735	644.877
412.482	28.645	810.419	644.652
413.496	28.864	809.624	644.732
414.511	28.597	810.323	644.293
415.526	29.008	809.031	644.648
416.540	28.666	808.366	642.865
417.555	28.556	807.788	641.963
418.569	28.307	808.195	641.357
419.584	28.326	807.098	640.496
420.599	28.306	805.505	639.109
421.613	159.696	1370.997	1792.690
422.628	138.778	1453.392	1792.790
