DTS Sentinel unit serial number:	SN413079Multiplexer serial number:	ORYXHardware model number:	OX4-SRSoftware version number:	ORYX F/W v4.00 Oryx Data Collector v3.7.2.0data status	okinstallation	princeton_trtdifferential loss correction	single-endedforward channel	channel 1reverse channel	N/Adate	2019/09/13time	04:34:35forward acquisition time	60.00reverse acquisition time	0.00gamma	496.2192k internal	0.2334k external	0.2334temperature offset calibration	1.0161default loss term (dB/km)	0.3790temperature slope calibration	1.0000multiplexer offset coefficient	1.0000multiplexer slope coefficient	1.0000fibre end	0.00T internal ref (°C)	26.67T ext. ref 1 (°C)	4.04T ext. ref 2 (°C)	21.15length (m)	temperature (°C)	Stokes	anti-Stokes-747.200	255.379	-0.076	0.131
-746.185	-130.183	0.117	0.016
-745.171	23.900	0.067	0.055
-744.156	800.000	0.048	-0.159
-743.142	142.609	-0.243	0.325
-742.127	-64.210	0.347	0.142
-741.112	-160.470	-0.300	0.016
-740.098	10.140	-0.298	0.228
-739.083	34.446	0.090	-0.079
-738.069	-57.915	0.141	-0.062
-737.054	-200.000	-0.047	0.253
-736.039	-13.305	-0.206	0.134
-735.025	175.814	-0.097	0.141
-734.010	108.875	0.147	-0.177
-732.996	-29.674	-0.047	-0.027
-731.981	-80.418	-0.196	-0.066
-730.966	-200.000	-0.039	0.267
-729.952	-27.480	-0.224	-0.131
-728.937	121.469	-0.167	-0.208
-727.923	800.000	0.055	-0.240
-726.908	-200.000	-0.010	-0.251
-725.894	-13.311	0.207	-0.135
-724.879	-91.721	0.098	0.028
-723.864	-200.000	-0.063	-0.361
-722.850	171.380	0.085	0.122
-721.835	95.512	-0.296	0.339
-720.821	748.107	-0.104	-0.283
-719.806	141.043	-0.197	0.261
-718.791	800.000	-0.011	-0.036
-717.777	800.000	0.084	0.291
-716.762	-157.700	0.240	0.014
-715.748	-19.429	-0.238	0.148
-714.733	-184.408	0.261	0.004
-713.718	252.028	0.107	-0.183
-712.704	-75.810	-0.153	-0.054
-711.689	-200.000	-0.014	0.075
-710.675	270.976	-0.087	-0.153
-709.660	-179.113	-0.091	0.002
-708.645	-163.950	-0.206	0.010
-707.631	381.360	0.145	0.299
-706.616	-3.076	-0.199	0.140
-705.602	288.570	0.119	-0.217
-704.587	189.215	-0.181	0.272
-703.572	367.946	-0.161	0.327
-702.558	-9.536	-0.253	-0.170
-701.543	-1.490	0.184	-0.130
-700.529	-200.000	0.068	0.403
-699.514	208.252	-0.065	-0.102
-698.499	445.086	0.022	-0.048
-697.485	-33.188	0.022	-0.012
-696.470	-43.813	0.368	-0.186
-695.456	-200.000	0.016	0.305
-694.441	-26.804	0.126	0.074
-693.426	483.332	-0.030	-0.069
-692.412	-200.000	0.084	-0.465
-691.397	800.000	-0.054	0.216
-690.383	-86.113	0.034	0.011
-689.368	17.541	0.235	0.187
-688.354	177.252	-0.108	-0.158
-687.339	554.123	0.150	0.362
-686.324	-200.000	-0.009	0.401
-685.310	-200.000	0.007	0.112
-684.295	39.508	-0.051	-0.046
-683.281	-47.922	-0.068	-0.033
-682.266	-86.785	0.108	0.033
-681.251	-13.501	-0.137	0.089
-680.237	-87.848	-0.151	0.045
-679.222	-80.256	-0.218	-0.073
-678.208	87.872	-0.125	0.139
-677.193	-200.000	0.038	-0.305
-676.178	-161.543	-0.084	-0.004
-675.164	515.886	-0.197	0.460
-674.149	800.000	0.051	0.167
-673.135	132.640	-0.197	-0.254
-672.120	-43.646	-0.215	0.108
-671.105	800.000	-0.037	-0.104
-670.091	-122.620	-0.232	-0.038
-669.076	-200.000	0.016	0.140
-668.062	-115.245	-0.111	-0.021
-667.047	-119.185	-0.384	0.067
-666.032	531.590	-0.101	0.238
-665.018	-180.863	-0.086	0.002
-664.003	-41.804	-0.156	-0.080
-662.989	-153.939	0.132	0.009
-661.974	-67.371	-0.410	-0.161
-660.959	-200.000	0.047	0.265
-659.945	-200.000	-0.023	-0.107
-658.930	38.078	-0.071	-0.063
-657.916	55.800	-0.054	0.052
-656.901	190.902	-0.101	0.152
-655.886	800.000	0.157	0.437
-654.872	-200.000	-0.010	-0.135
-653.857	105.206	0.122	-0.144
-652.843	-90.564	-0.151	0.044
-651.828	-54.180	0.131	-0.060
-650.814	-200.000	0.020	0.134
-649.799	151.960	0.086	0.117
-648.784	41.441	0.143	0.129
-647.770	800.000	0.059	-0.187
-646.755	305.686	0.053	0.098
-645.741	119.508	0.160	-0.198
-644.726	-160.636	0.349	-0.019
-643.711	236.002	-0.118	-0.196
-642.697	326.659	-0.163	0.312
-641.682	91.457	0.243	-0.273
-640.668	250.305	-0.171	-0.291
-639.653	-2.578	-0.220	-0.154
-638.638	-86.059	-0.151	0.047
-637.624	-155.627	-0.270	0.017
-636.609	-87.515	-0.166	0.050
-635.595	800.000	-0.073	-0.209
-634.580	800.000	0.073	-0.291
-633.565	81.263	-0.167	-0.180
-632.551	-200.000	0.054	-0.280
-631.536	-61.054	0.228	0.096
-630.522	-166.683	-0.030	-0.001
-629.507	60.797	0.214	-0.212
-628.492	206.195	0.151	-0.235
-627.478	800.000	0.054	0.164
-626.463	34.049	0.132	0.115
-625.449	-9.604	0.268	-0.179
-624.434	-176.753	0.258	-0.007
-623.419	175.354	-0.209	0.303
-622.405	-160.961	-0.547	0.029
-621.390	127.755	0.169	0.215
-620.376	-200.000	0.014	0.158
-619.361	331.766	0.048	0.092
-618.346	50.710	-0.063	-0.060
-617.332	-9.907	-0.100	-0.067
-616.317	92.530	0.216	-0.244
-615.303	-101.026	-0.283	-0.069
-614.288	-25.961	0.175	-0.103
-613.273	800.000	-0.054	-0.179
-612.259	800.000	-0.082	0.314
-611.244	-200.000	-0.027	-0.175
-610.230	-200.000	-0.013	-0.091
-609.215	43.295	-0.109	-0.100
-608.201	-48.986	0.086	0.041
-607.186	111.518	0.177	0.213
-606.171	80.776	0.273	0.294
-605.157	360.689	0.062	-0.124
-604.142	-70.668	-0.133	0.050
-603.128	168.109	-0.191	0.271
-602.113	800.000	-0.084	0.301
-601.098	-200.000	0.047	-0.384
-600.084	-128.114	-0.088	-0.013
-599.069	-171.203	0.191	-0.006
-598.055	-66.647	0.054	0.021
-597.040	-200.000	0.004	-0.319
-596.025	-106.449	-0.250	-0.056
-595.011	-56.502	-0.373	0.165
-593.996	-25.378	0.339	-0.200
-592.982	1.455	-0.086	-0.062
-591.967	65.995	-0.248	-0.251
-590.952	-64.235	-0.171	0.069
-589.938	734.927	-0.118	-0.316
-588.923	-200.000	0.011	-0.274
-587.909	-92.069	-0.170	0.048
-586.894	57.743	0.192	0.188
-585.879	-163.578	-0.490	0.023
-584.865	-11.781	0.195	0.128
-583.850	8.216	-0.300	0.225
-582.836	-200.000	-0.027	-0.284
-581.821	800.000	-0.047	-0.196
-580.806	-27.360	-0.100	-0.058
-579.792	60.155	-0.073	0.072
-578.777	-77.960	-0.051	-0.018
-577.763	473.171	0.036	0.080
-576.748	189.413	0.057	-0.085
-575.733	-200.000	-0.010	0.235
-574.719	-76.291	-0.036	-0.013
-573.704	-112.323	0.126	0.025
-572.690	-106.094	0.217	-0.049
-571.675	24.751	0.182	-0.150
-570.661	-98.750	0.365	-0.093
-569.646	31.078	0.244	0.209
-568.631	283.417	-0.096	-0.172
-567.617	-155.120	0.139	-0.009
-566.602	1.219	0.224	0.160
-565.588	-184.499	0.364	0.006
-564.573	800.000	-0.084	-0.287
-563.558	-200.000	0.013	-0.242
-562.544	60.470	-0.247	-0.244
-561.529	231.453	-0.101	0.165
-560.515	-5.263	-0.165	0.113
-559.500	800.000	-0.057	-0.163
-558.485	-200.000	0.031	0.178
-557.471	548.918	0.091	-0.218
-556.456	-96.690	0.081	0.021
-555.442	-112.448	-0.426	-0.085
-554.427	18.895	0.246	-0.197
-553.412	272.480	0.123	0.217
-552.398	-174.536	-0.129	0.004
-551.383	-8.159	0.171	-0.115
-550.369	194.911	-0.154	-0.233
-549.354	337.877	-0.135	-0.263
-548.339	10.011	0.069	0.052
-547.325	-200.000	-0.014	0.124
-546.310	61.116	0.189	-0.187
-545.296	311.407	-0.052	0.096
-544.281	37.708	-0.123	-0.109
-543.266	-200.000	0.004	0.098
-542.252	-153.130	-0.295	0.021
-541.237	-133.860	-0.138	-0.017
-540.223	-76.342	-0.555	0.195
-539.208	-200.000	0.002	-0.204
-538.193	-200.000	-0.032	0.160
-537.179	-128.076	-0.125	-0.018
-536.164	261.297	0.100	0.173
-535.150	3.866	-0.169	0.123
-534.135	-52.360	-0.225	0.104
-533.121	-32.183	-0.076	0.042
-532.106	800.000	0.032	0.092
-531.091	-17.604	0.041	-0.026
-530.077	-34.849	-0.274	-0.149
-529.062	800.000	-0.037	0.122
-528.048	-64.213	0.453	0.184
-527.033	57.088	-0.090	0.088
-526.018	17.995	-0.071	0.056
-525.004	-200.000	-0.025	0.133
-523.989	-117.994	-0.290	-0.052
-522.975	94.181	0.062	0.070
-521.960	-18.011	0.322	0.201
-520.945	-200.000	0.016	-0.085
-519.931	-63.151	-0.096	0.040
-518.916	-52.210	0.073	-0.034
-517.902	67.283	-0.172	0.175
-516.887	-116.076	-0.319	-0.059
-515.872	58.259	0.142	-0.138
-514.858	-200.000	0.027	0.217
-513.843	800.000	0.048	-0.154
-512.829	453.400	0.111	-0.244
-511.814	-58.060	-0.173	-0.075
-510.799	4.414	-0.219	0.160
-509.785	-200.000	0.009	0.203
-508.770	-200.000	0.018	0.253
-507.756	800.000	0.038	-0.149
-506.741	484.572	0.102	-0.232
-505.726	-200.000	-0.015	0.067
-504.712	-27.031	0.096	-0.056
-503.697	800.000	-0.099	-0.350
-502.683	36.971	0.050	0.044
-501.668	113.802	0.159	-0.192
-500.653	-102.929	-0.311	0.074
-499.639	-68.373	0.123	-0.047
-498.624	800.000	0.100	-0.344
-497.610	249.010	0.020	0.033
-496.595	-1.690	0.117	-0.082
-495.581	-113.833	-0.237	-0.046
-494.566	-200.000	0.043	-0.377
-493.551	49.241	-0.145	-0.136
-492.537	-148.672	0.239	-0.019
-491.522	-27.601	-0.103	-0.060
-490.508	103.858	0.118	-0.138
-489.493	-200.000	0.009	0.041
-488.478	249.036	-0.053	0.089
-487.464	-96.588	-0.400	0.105
-486.449	209.302	-0.157	-0.244
-485.435	55.611	0.406	-0.391
-484.420	-19.691	0.140	-0.086
-483.405	800.000	0.066	0.212
-482.391	800.000	-0.066	0.272
-481.376	290.180	-0.041	0.074
-480.362	45.778	0.168	-0.154
-479.347	748.126	-0.061	-0.164
-478.332	-23.735	-0.212	-0.126
-477.318	-167.108	0.162	-0.007
-476.303	-200.000	-0.011	0.176
-475.289	-65.713	-0.603	-0.240
-474.274	40.366	0.063	-0.057
-473.259	325.752	-0.121	-0.230
-472.245	-137.425	-0.352	0.040
-471.230	-43.788	0.094	0.047
-470.216	441.227	0.076	0.166
-469.201	-200.000	-0.006	-0.075
-468.186	-63.687	-0.140	0.057
-467.172	800.000	-0.048	-0.185
-466.157	-169.977	0.330	0.012
-465.143	455.443	-0.148	0.326
-464.128	27.361	0.199	0.166
-463.113	800.000	0.124	0.451
-462.099	-200.000	0.011	-0.049
-461.084	19.775	0.184	0.148
-460.070	-59.678	-0.044	-0.019
-459.055	-16.387	-0.234	0.147
-458.040	800.000	-0.041	0.160
-457.026	-200.000	0.004	0.192
-456.011	-200.000	0.008	0.228
-454.997	-200.000	-0.017	0.158
-453.982	263.625	-0.043	0.074
-452.968	-200.000	-0.008	0.188
-451.953	-95.777	0.044	0.012
-450.938	171.468	-0.049	0.070
-449.924	-137.773	0.554	0.062
-448.909	-53.014	0.259	-0.118
-447.895	273.795	0.049	-0.087
-446.880	-63.752	-0.156	-0.063
-445.865	-5.265	-0.221	-0.151
-444.851	-115.308	-0.227	0.043
-443.836	-82.066	-0.217	0.070
-442.822	-150.167	-0.233	0.018
-441.807	800.000	-0.107	-0.455
-440.792	-200.000	0.019	0.380
-439.778	-116.145	0.047	0.009
-438.763	-76.520	0.284	0.099
-437.749	-65.996	0.232	0.092
-436.734	-0.727	-0.228	-0.160
-435.719	84.070	0.314	0.341
-434.705	-7.157	0.197	-0.133
-433.690	-151.897	-0.101	-0.007
-432.676	-46.848	0.207	-0.100
-431.661	-140.528	0.360	0.037
-430.646	101.756	0.143	0.166
-429.632	-142.424	-0.339	-0.033
-428.617	-200.000	0.019	-0.118
-427.603	7.671	0.090	-0.067
-426.588	13.950	-0.184	0.142
-425.573	275.495	0.233	0.409
-424.559	-109.988	-0.248	0.052
-423.544	-83.248	0.094	0.030
-422.530	-200.000	-0.006	0.332
-421.515	-158.997	-0.443	0.025
-420.500	800.000	-0.035	0.129
-419.486	-45.826	0.168	0.082
-418.471	24.482	0.079	-0.065
-417.457	326.083	-0.076	-0.145
-416.442	-94.406	-0.143	0.039
-415.428	-55.340	-0.291	-0.129
-414.413	800.000	-0.036	-0.125
-413.398	-200.000	0.018	0.083
-412.384	-131.880	0.185	-0.024
-411.369	262.017	0.234	-0.402
-410.355	800.000	-0.028	-0.116
-409.340	797.928	-0.118	-0.323
-408.325	-200.000	0.009	0.054
-407.311	800.000	0.057	0.189
-406.296	-200.000	0.029	0.165
-405.282	-116.332	-0.153	-0.028
-404.267	-29.529	0.554	0.314
-403.252	683.174	-0.135	0.349
-402.238	14.748	-0.127	0.099
-401.223	800.000	0.052	-0.221
-400.209	-74.230	-0.207	-0.074
-399.194	-200.000	-0.003	-0.178
-398.179	-200.000	0.031	-0.202
-397.165	-200.000	-0.003	0.045
-396.150	800.000	0.116	-0.353
-395.136	127.236	-0.177	-0.222
-394.121	99.627	0.078	0.089
-393.106	-113.259	-0.194	-0.038
-392.092	57.770	0.209	0.203
-391.077	-90.479	0.065	0.019
-390.063	110.751	0.204	-0.243
-389.048	136.461	0.085	0.109
-388.033	200.701	-0.127	0.194
-387.019	704.449	-0.131	0.342
-386.004	-68.228	-0.227	0.087
-384.990	-129.470	0.337	0.046
-383.975	-100.616	-0.378	0.092
-382.960	272.408	-0.134	-0.235
-381.946	38.759	0.217	0.192
-380.931	-93.969	0.234	-0.064
-379.917	-60.435	-0.412	-0.173
-378.902	-23.756	0.178	-0.106
-377.888	10.874	0.187	-0.141
-376.873	2.702	-0.073	-0.052
-375.858	-165.363	0.273	0.012
-374.844	-200.000	-0.036	0.199
-373.829	118.754	0.157	-0.192
-372.815	-124.897	0.182	0.028
-371.800	173.432	-0.091	-0.130
-370.785	-92.321	0.141	-0.039
-369.771	-43.426	-0.218	-0.109
-368.756	-40.853	0.122	0.063
-367.742	800.000	-0.032	0.135
-366.727	-26.655	-0.350	-0.203
-365.712	-109.694	0.192	-0.040
-364.698	800.000	0.072	0.230
-363.683	-174.673	0.107	-0.003
-362.669	146.602	0.042	0.056
-361.654	333.918	0.175	0.336
-360.639	-200.000	-0.047	-0.445
-359.625	-106.392	0.357	-0.079
-358.610	532.503	-0.038	0.088
-357.596	-200.000	-0.108	0.673
-356.581	319.359	0.137	0.257
-355.566	-148.852	-0.275	-0.022
-354.552	800.000	0.058	-0.228
-353.537	112.867	-0.053	-0.063
-352.523	-200.000	0.015	-0.157
-351.508	418.767	0.025	0.052
-350.493	-200.000	-0.008	0.362
-349.479	-77.799	0.265	-0.091
-348.464	-97.967	0.029	-0.007
-347.450	-200.000	-0.004	-0.090
-346.435	-95.821	0.296	-0.078
-345.420	-164.738	0.173	0.008
-344.406	135.159	-0.120	-0.155
-343.391	-105.068	0.248	-0.056
-342.377	-200.000	0.004	-0.052
-341.362	34.731	-0.161	0.139
-340.348	118.013	0.059	-0.071
-339.333	100.013	0.039	0.044
-338.318	-200.000	0.042	-0.224
-337.304	-174.575	0.191	-0.005
-336.289	800.000	-0.063	0.248
-335.275	800.000	-0.067	0.246
-334.260	-200.000	0.047	0.328
-333.245	34.223	0.303	-0.261
-332.231	-200.000	-0.010	0.117
-331.216	67.420	0.162	0.164
-330.202	-64.115	-0.213	0.086
-329.187	-146.979	0.250	0.021
-328.172	-200.000	-0.030	-0.155
-327.158	-116.767	-0.219	0.040
-326.143	-115.520	-0.459	0.085
-325.129	378.338	0.340	0.688
-324.114	-139.701	-0.198	-0.021
-323.099	11.895	0.120	0.091
-322.085	-200.000	-0.000	-0.252
-321.070	-114.089	0.074	0.014
-320.056	-140.479	0.148	0.015
-319.041	-56.085	0.167	-0.074
-318.026	610.731	-0.059	-0.145
-317.012	391.950	-0.074	-0.152
-315.997	-35.085	-0.138	0.074
-314.983	-200.000	-0.033	-0.258
-313.968	44.737	-0.266	0.242
-312.953	-156.954	0.379	-0.023
-311.939	36.788	-0.207	-0.181
-310.924	-200.000	-0.038	-0.291
-309.910	5.377	-0.222	-0.162
-308.895	-72.602	0.281	0.103
-307.880	800.000	0.016	-0.054
-306.866	514.963	0.041	-0.095
-305.851	85.316	0.237	-0.257
-304.837	800.000	0.036	0.101
-303.822	-97.268	0.122	0.031
-302.807	535.759	-0.032	0.074
-301.793	229.401	0.147	0.237
-300.778	10.790	0.263	0.198
-299.764	-200.000	0.014	-0.200
-298.749	97.125	-0.198	-0.224
-297.735	509.912	-0.135	-0.309
-296.720	-123.003	-0.129	-0.021
-295.705	80.437	0.297	0.316
-294.691	-156.815	-0.257	-0.016
-293.676	-200.000	-0.048	0.273
-292.662	136.937	-0.222	-0.287
-291.647	-80.167	-0.125	0.041
-290.632	-118.722	0.194	-0.034
-289.618	180.457	0.070	0.102
-288.603	800.000	0.031	-0.087
-287.589	-200.000	-0.034	0.209
-286.574	8.788	-0.151	-0.112
-285.559	214.184	-0.227	-0.355
-284.545	381.400	-0.054	-0.110
-283.530	-200.000	0.025	0.115
-282.516	-6.314	-0.240	0.162
-281.501	48.425	0.049	0.046
-280.486	-159.061	0.329	0.018
-279.472	-151.697	-0.222	0.016
-278.457	-200.000	0.019	-0.201
-277.443	-62.833	-0.220	0.090
-276.428	54.587	-0.241	-0.229
-275.413	-200.000	0.032	0.156
-274.399	295.348	0.046	0.084
-273.384	105.511	0.203	0.237
-272.370	-200.000	-0.002	0.088
-271.355	-20.172	-0.234	0.142
-270.340	36.927	0.149	0.130
-269.326	-47.416	0.185	-0.089
-268.311	-157.006	-0.163	-0.010
-267.297	800.000	-0.023	-0.097
-266.282	376.610	-0.111	0.224
-265.267	-64.259	0.063	0.025
-264.253	458.342	-0.167	0.365
-263.238	-200.000	-0.041	0.275
-262.224	32.501	0.123	-0.105
-261.209	56.332	-0.037	0.035
-260.195	-200.000	-0.050	0.235
-259.180	-200.000	-0.009	0.078
-258.165	11.681	0.204	-0.154
-257.151	-127.955	-0.138	0.020
-256.136	-200.000	0.000	0.212
-255.122	0.779	-0.227	0.161
-254.107	-200.000	-0.011	-0.130
-253.092	800.000	-0.098	0.290
-252.078	58.797	0.061	0.060
-251.063	10.145	-0.118	0.088
-250.049	26.940	-0.064	0.053
-249.034	82.610	-0.044	0.047
-248.019	369.079	0.137	-0.273
-247.005	-200.000	0.080	-0.360
-245.990	-200.000	0.062	0.315
-244.976	183.340	-0.162	0.236
-243.961	-127.186	-0.263	-0.038
-242.946	-116.344	0.157	0.029
-241.932	-200.000	-0.015	-0.218
-240.917	-200.000	-0.009	-0.106
-239.903	2.304	0.166	-0.118
-238.888	92.639	0.133	0.147
-237.873	135.236	0.361	0.463
-236.859	-200.000	-0.007	-0.310
-235.844	-99.187	-0.125	0.031
-234.830	800.000	0.061	0.181
-233.815	222.689	-0.163	-0.258
-232.800	79.910	-0.208	0.220
-231.786	-69.488	-0.130	0.049
-230.771	-200.000	-0.057	-0.366
-229.757	-99.194	-0.151	0.038
-228.742	145.839	0.149	-0.197
-227.727	-66.252	0.227	-0.089
-226.713	-33.371	-0.145	-0.079
-225.698	-197.497	0.068	0.000
-224.684	345.008	-0.064	-0.124
-223.669	364.135	0.147	-0.290
-222.655	-136.898	0.263	0.030
-221.640	-200.000	0.001	-0.037
-220.625	-133.278	0.070	-0.009
-219.611	-200.000	-0.045	-0.292
-218.596	-25.131	0.409	0.239
-217.582	57.664	-0.164	0.158
-216.567	-11.503	-0.085	-0.055
-215.552	322.023	0.194	-0.364
-214.538	412.983	0.027	0.056
-213.523	-26.310	-0.364	0.210
-212.509	-128.532	-0.021	-0.003
-211.494	-200.000	0.008	0.225
-210.479	-53.114	0.158	0.071
-209.465	58.310	0.091	-0.088
-208.450	161.991	0.163	-0.225
-207.436	108.217	-0.127	-0.149
-206.421	800.000	-0.024	-0.073
-205.406	800.000	-0.052	-0.148
-204.392	88.546	0.109	0.120
-203.377	-155.632	-0.419	-0.026
-202.363	8.002	-0.198	-0.146
-201.348	-200.000	0.012	0.274
-200.333	0.181	0.254	0.178
-199.319	608.946	-0.035	0.086
-198.304	-53.225	0.083	-0.038
-197.290	800.000	0.022	-0.082
-196.275	-103.461	0.222	-0.051
-195.260	800.000	0.077	-0.253
-194.246	-20.472	-0.175	0.106
-193.231	539.212	-0.054	-0.126
-192.217	115.984	0.250	0.301
-191.202	28.180	-0.204	0.170
-190.187	-200.000	-0.003	-0.047
-189.173	800.000	0.110	0.376
-188.158	-96.349	-0.163	-0.042
-187.144	-200.000	-0.075	0.395
-186.129	-200.000	-0.016	0.104
-185.114	-24.518	0.060	0.035
-184.100	237.948	0.237	-0.387
-183.085	483.942	0.057	0.127
-182.071	800.000	0.101	-0.302
-181.056	-192.977	0.383	0.003
-180.042	-34.608	0.157	-0.085
-179.027	-122.987	0.251	-0.040
-178.012	-200.000	0.101	-0.496
-176.998	411.683	-0.110	0.230
-175.983	-3.297	-0.242	0.166
-174.969	19.044	-0.140	-0.110
-173.954	36.938	0.150	-0.130
-172.939	-7.085	-0.144	0.096
-171.925	800.000	0.077	-0.244
-170.910	800.000	0.036	-0.121
-169.896	-135.374	-0.120	-0.014
-168.881	-200.000	-0.022	0.379
-167.866	0.208	-0.148	0.104
-166.852	800.000	-0.099	-0.370
-165.837	127.769	-0.054	0.068
-164.823	-200.000	-0.018	0.429
-163.808	-181.154	0.112	0.002
-162.793	-200.000	0.045	0.368
-161.779	-37.114	-0.283	0.149
-160.764	782.352	0.008	-0.022
-159.750	-200.000	-0.032	0.482
-158.735	4.467	-0.021	-0.015
-157.720	9.860	0.285	0.212
-156.706	53.892	0.099	-0.093
-155.691	-200.000	-0.005	-0.169
-154.677	-200.000	0.057	-0.294
-153.662	-25.933	0.237	-0.137
-152.647	56.006	-0.265	-0.252
-151.633	-200.000	-0.025	0.231
-150.618	-200.000	-0.013	0.272
-149.604	365.171	0.161	-0.319
-148.589	-57.757	0.237	-0.102
-147.574	800.000	0.117	-0.417
-146.560	-68.090	0.328	0.125
-145.545	-161.316	-0.579	-0.029
-144.531	-37.843	-0.273	-0.143
-143.516	35.805	0.250	-0.216
-142.502	8.250	0.341	-0.251
-141.487	-50.356	0.259	-0.120
-140.472	-153.671	0.360	0.024
-139.458	307.783	-0.122	-0.222
-138.443	-118.008	0.433	-0.076
-137.429	-28.301	0.280	-0.159
-136.414	-94.211	-0.175	-0.047
-135.399	-200.000	-0.010	0.140
-134.385	677.114	-0.128	0.327
-133.370	-200.000	0.101	0.563
-132.356	-200.000	-0.044	-0.259
-131.341	800.000	0.149	0.413
-130.326	-31.708	-0.099	0.054
-129.312	-200.000	0.023	0.160
-128.297	-31.740	-0.235	-0.129
-127.283	-51.865	-0.166	-0.076
-126.268	-66.093	0.240	0.094
-125.253	-200.000	0.026	0.240
-124.239	-131.380	0.281	-0.036
-123.224	-200.000	-0.051	0.415
-122.210	693.298	-0.048	-0.123
-121.195	-200.000	0.015	0.182
-120.180	800.000	0.096	0.410
-119.166	-133.007	0.085	-0.011
-118.151	186.637	0.155	-0.226
-117.137	-70.184	-0.402	0.150
-116.122	102.064	-0.110	0.126
-115.107	268.352	-0.051	-0.087
-114.093	162.201	-0.078	-0.107
-113.078	-200.000	0.069	0.410
-112.064	-83.817	0.095	-0.030
-111.049	-24.395	-0.107	0.063
-110.034	-200.000	-0.026	0.176
-109.020	800.000	0.048	0.130
-108.005	182.619	0.286	0.414
-106.991	47.721	0.026	-0.024
-105.976	800.000	-0.054	0.218
-104.962	-200.000	-0.025	0.290
-103.947	277.201	0.129	0.224
-102.932	677.899	-0.165	0.420
-101.918	-77.126	0.214	0.073
-100.903	68.334	0.101	0.101
-99.889	-78.680	0.213	-0.071
-98.874	-200.000	-0.043	0.223
-97.859	249.208	-0.128	0.212
-96.845	-135.063	0.319	-0.038
-95.830	111.598	0.234	0.277
-94.816	-82.048	-0.258	0.082
-93.801	168.713	0.190	-0.265
-92.786	98.579	-0.094	-0.106
-91.772	-128.752	-0.272	-0.038
-90.757	743.375	0.010	0.027
-89.743	-162.800	-0.375	0.018
-88.728	0.751	0.056	0.039
-87.713	800.000	-0.062	-0.227
-86.699	6.370	-0.089	0.065
-85.684	-143.210	-0.219	0.021
-84.670	40.849	0.117	-0.103
-83.655	-145.083	-0.078	0.007
-82.640	74.391	0.068	-0.070
-81.626	-34.629	-0.376	-0.201
-80.611	77.967	0.207	-0.216
-79.597	-188.149	-0.086	-0.001
-78.582	20.126	-0.239	0.189
-77.567	-50.743	0.417	0.192
-76.553	-200.000	-0.038	-0.417
-75.538	200.554	-0.164	-0.247
-74.524	800.000	0.049	-0.138
-73.509	7.561	0.270	0.198
-72.494	43.300	0.185	0.166
-71.480	126.145	-0.149	0.184
-70.465	-84.175	-0.285	0.088
-69.451	113.073	0.170	0.202
-68.436	-54.690	-0.208	-0.092
-67.422	800.000	0.028	0.104
-66.407	-200.000	-0.019	0.098
-65.392	-200.000	-0.002	-0.149
-64.378	-145.094	-0.044	-0.004
-63.363	170.745	-0.251	-0.352
-62.349	227.988	-0.040	-0.064
-61.334	112.811	-0.902	-1.069
-60.319	800.000	0.178	0.606
-59.305	800.000	-0.318	-0.950
-58.290	130.734	0.798	1.002
-57.276	-200.000	0.279	1.451
-56.261	-200.000	116.281	652.251
-55.246	515.529	1539.604	3517.471
-54.232	175.815	2707.668	3842.758
-53.217	107.108	2149.653	2498.438
-52.203	38.281	1586.638	1382.012
-51.188	30.001	1330.353	1109.388
-50.173	27.237	1291.543	1060.884
-49.159	53.645	1350.413	1267.600
-48.144	52.073	1363.438	1270.417
-47.130	30.163	1317.980	1099.856
-46.115	26.841	1299.923	1065.271
-45.100	26.598	1294.762	1059.576
-44.086	26.499	1292.688	1057.259
-43.071	26.495	1290.093	1055.070
-42.057	26.498	1288.498	1053.744
-41.042	26.565	1286.173	1052.189
-40.027	26.626	1284.370	1051.025
-39.013	26.537	1282.842	1049.217
-37.998	26.594	1280.692	1047.750
-36.984	26.554	1279.410	1046.427
-35.969	26.665	1277.756	1045.672
-34.954	26.663	1275.846	1044.057
-33.940	26.754	1274.284	1043.262
-32.925	26.671	1273.193	1041.852
-31.911	26.800	1271.296	1040.995
-30.896	26.819	1269.903	1039.924
-29.881	26.703	1268.851	1038.358
-28.867	26.874	1267.345	1038.059
-27.852	26.846	1266.377	1037.066
-26.838	26.767	1264.687	1035.191
-25.823	26.742	1263.187	1033.778
-24.809	26.764	1262.202	1033.059
-23.794	26.710	1260.782	1031.547
-22.779	26.770	1259.495	1030.795
-21.765	26.722	1258.352	1029.542
-20.750	26.620	1257.289	1028.057
-19.736	26.720	1255.810	1027.370
-18.721	26.650	1254.881	1026.173
-17.706	26.667	1253.456	1025.066
-16.692	26.643	1252.436	1024.056
-15.677	26.573	1251.709	1023.024
-14.663	26.645	1249.935	1021.938
-13.648	26.608	1248.937	1020.874
-12.633	26.658	1247.493	1019.933
-11.619	26.711	1246.739	1019.574
-10.604	26.560	1246.750	1018.693
-9.590	26.657	1245.596	1018.255
-8.575	26.570	1244.645	1016.951
-7.560	26.592	1244.000	1016.507
-6.546	26.620	1242.848	1015.680
-5.531	26.617	1241.993	1014.926
-4.517	26.607	1241.178	1014.162
-3.502	26.606	1240.119	1013.252
-2.487	26.667	1239.168	1012.779
-1.473	26.662	1234.699	1009.057
-0.458	24.983	1220.356	988.044
0.556	23.168	1203.293	950.501
1.571	19.464	1209.337	935.157
2.586	18.458	1223.910	940.825
3.600	18.302	1212.647	931.234
4.615	14.192	1142.660	856.301
5.629	7.338	1071.517	769.739
6.644	4.306	1054.108	742.667
7.659	4.094	1051.234	739.567
8.673	3.907	1050.457	738.059
9.688	3.864	1048.736	736.583
10.702	4.309	1046.820	737.288
11.717	8.771	1052.952	762.828
12.731	16.680	1063.594	808.380
13.746	21.477	1070.071	836.220
14.761	22.564	1070.364	841.570
15.775	21.803	1068.767	836.610
16.790	20.847	1067.080	830.659
17.804	20.205	1065.339	826.173
18.819	20.032	1064.542	824.659
19.834	19.887	1064.088	823.544
20.848	19.867	1063.672	823.053
21.863	19.719	1062.927	821.701
22.877	19.555	1062.216	820.298
23.892	19.428	1061.846	819.337
24.907	19.558	1060.317	818.701
25.921	19.516	1059.628	817.897
26.936	19.421	1058.277	816.332
27.950	19.452	1056.962	815.391
28.965	19.515	1055.824	814.740
29.980	19.850	1053.795	814.678
30.994	19.945	1053.571	814.880
32.009	19.787	1052.906	813.554
33.023	19.824	1051.603	812.646
34.038	19.692	1050.784	811.322
35.053	19.616	1049.733	810.082
36.067	19.490	1049.014	808.867
37.082	19.600	1048.063	808.575
38.096	19.748	1047.616	808.855
39.111	19.784	1046.916	808.408
40.126	19.538	1045.453	806.061
41.140	19.306	1043.559	803.447
42.155	19.048	1042.990	801.736
43.169	19.046	1041.872	800.797
44.184	19.035	1040.517	799.631
45.199	19.013	1040.087	799.130
46.213	19.349	1038.900	799.707
47.228	19.558	1038.209	800.069
48.242	19.569	1037.726	799.677
49.257	19.679	1035.862	798.679
50.271	19.698	1035.571	798.474
51.286	19.723	1035.056	798.119
52.301	19.612	1033.996	796.721
53.315	19.487	1032.745	795.112
54.330	19.446	1031.346	793.773
55.344	19.279	1030.912	792.601
56.359	19.407	1029.697	792.186
57.374	19.249	1029.018	790.870
58.388	19.086	1028.117	789.357
59.403	18.998	1027.517	788.423
60.417	19.008	1026.683	787.762
61.432	19.056	1025.714	787.169
62.447	18.894	1024.808	785.661
63.461	18.796	1023.984	784.511
64.476	18.844	1023.049	783.944
65.490	18.836	1022.007	783.042
66.505	18.856	1021.804	782.908
67.520	18.949	1021.339	782.906
68.534	18.932	1020.199	781.885
69.549	18.870	1019.736	781.180
70.563	18.838	1018.249	779.827
71.578	18.640	1017.704	778.441
72.593	18.483	1016.840	777.002
73.607	18.554	1016.384	776.903
74.622	18.537	1015.686	776.223
75.636	18.554	1015.350	775.976
76.651	18.822	1014.013	776.097
77.666	18.777	1013.453	775.396
78.680	18.837	1012.851	775.141
79.695	19.002	1011.878	775.070
80.709	18.992	1012.100	775.126
81.724	19.160	1011.227	775.144
82.739	19.292	1010.561	775.161
83.753	19.716	1010.203	776.720
84.768	19.847	1009.977	777.066
85.782	20.008	1009.500	777.354
86.797	19.959	1008.205	776.071
87.812	19.862	1006.811	774.494
88.826	19.644	1006.471	773.186
89.841	19.851	1005.491	773.289
90.855	19.850	1004.629	772.555
91.870	19.928	1004.220	772.519
92.884	19.850	1003.207	771.327
93.899	19.782	1002.348	770.292
94.914	20.065	1000.957	770.414
95.928	19.997	1000.381	769.602
96.943	19.818	999.144	767.788
97.957	19.688	998.586	766.713
98.972	19.779	997.660	766.339
99.987	19.785	997.346	766.057
101.001	19.799	995.621	764.725
102.016	19.701	994.713	763.528
103.030	19.879	994.392	764.001
104.045	19.737	993.933	762.952
105.060	19.596	992.765	761.365
106.074	19.322	991.343	759.003
107.089	19.001	990.394	756.797
108.103	18.990	989.409	755.931
109.118	19.007	987.976	754.843
110.133	18.891	987.044	753.553
111.147	18.912	986.211	752.943
112.162	18.984	985.808	752.883
113.176	19.036	985.332	752.680
114.191	19.322	984.105	752.926
115.206	19.097	983.790	751.637
116.220	18.974	982.554	750.088
117.235	19.078	981.305	749.525
118.249	19.038	980.660	748.788
119.264	19.012	980.026	748.127
120.279	18.706	979.819	746.572
121.293	18.710	978.582	745.581
122.308	18.617	977.550	744.324
123.322	18.691	976.619	743.869
124.337	18.716	975.282	742.893
125.352	18.605	974.356	741.645
126.366	18.543	973.268	740.482
127.381	18.671	972.306	740.236
128.395	18.687	972.013	740.019
129.410	18.708	970.913	739.205
130.424	18.764	970.371	738.966
131.439	19.051	969.590	739.540
132.454	19.188	968.615	739.323
133.468	19.061	968.056	738.282
134.483	19.097	967.325	737.814
135.497	19.211	966.575	737.669
136.512	19.180	965.780	736.863
137.527	19.277	964.731	736.409
138.541	19.170	964.284	735.548
139.556	19.287	963.349	735.268
140.570	19.447	963.122	735.712
141.585	19.757	962.472	736.470
142.600	19.718	961.476	735.478
143.614	19.876	960.538	735.367
144.629	19.948	960.312	735.435
145.643	19.755	959.229	733.721
146.658	19.591	957.728	731.815
147.673	19.356	956.385	729.726
148.687	19.177	955.640	728.339
149.702	19.164	954.587	727.418
150.716	19.248	953.706	727.033
151.731	19.294	953.071	726.680
152.746	19.252	952.517	726.016
153.760	19.368	952.097	726.123
154.775	19.363	951.690	725.726
155.789	19.488	950.849	725.546
156.804	19.572	950.050	725.226
157.819	19.451	949.812	724.469
158.833	19.707	949.221	725.028
159.848	19.860	948.330	724.926
160.862	19.762	946.927	723.379
161.877	19.261	945.613	720.217
162.892	19.158	944.433	718.827
163.906	19.090	943.207	717.545
164.921	19.280	942.140	717.460
165.935	19.284	941.854	717.196
166.950	19.335	941.333	716.948
167.964	19.491	939.782	716.352
168.979	19.335	938.823	714.910
169.994	19.381	938.313	714.648
171.008	19.478	937.745	714.554
172.023	19.589	937.937	715.100
173.037	19.943	936.240	715.202
174.052	19.692	935.436	713.488
175.067	19.349	934.626	711.394
176.081	19.070	934.092	709.776
177.096	19.069	933.591	709.327
178.110	19.138	933.392	709.398
179.125	19.249	932.432	709.062
180.140	19.374	932.384	709.476
181.154	19.648	932.032	710.274
182.169	19.681	931.784	710.158
183.183	19.809	930.942	709.978
184.198	19.810	930.124	709.294
185.213	19.781	929.350	708.523
186.227	19.820	928.741	708.157
187.242	19.970	928.557	708.568
188.256	19.968	928.126	708.165
189.271	20.054	927.312	707.836
190.286	19.790	925.547	705.348
191.300	19.048	925.002	701.846
192.315	18.905	924.174	700.572
193.329	19.140	923.674	701.089
194.344	19.243	923.145	701.042
195.359	19.471	922.522	701.436
196.373	19.624	921.852	701.485
197.388	19.723	921.999	701.938
198.402	19.882	921.523	702.158
199.417	20.132	920.815	702.570
200.432	20.240	920.841	702.966
201.446	20.416	920.284	703.188
202.461	20.513	919.483	702.908
203.475	20.216	918.832	701.146
204.490	19.972	918.178	699.599
205.504	19.845	917.253	698.323
206.519	19.774	915.899	696.941
207.534	19.621	915.705	696.118
208.548	19.696	915.371	696.104
209.563	19.882	914.177	695.880
210.577	19.985	913.600	695.796
211.592	20.305	913.387	696.857
212.607	20.259	912.849	696.200
213.621	20.119	912.207	695.087
214.636	20.131	911.123	694.246
215.650	20.117	910.522	693.673
216.665	20.289	909.675	693.654
217.680	20.357	909.496	693.729
218.694	20.419	908.532	693.178
219.709	20.361	908.029	692.503
220.723	20.486	907.096	692.225
221.738	20.165	906.668	690.561
222.753	20.230	906.030	690.272
223.767	20.303	905.778	690.309
224.782	20.434	905.292	690.400
225.796	20.477	905.160	690.407
226.811	20.463	903.928	689.351
227.826	20.104	903.095	687.233
228.840	20.095	901.911	686.235
229.855	20.052	901.577	685.749
230.869	20.010	900.983	685.069
231.884	20.123	899.481	684.316
232.899	19.835	899.427	683.074
233.913	20.021	898.210	682.824
234.928	19.766	897.808	681.453
235.942	19.812	897.104	681.042
236.957	19.960	896.453	681.067
237.972	19.714	896.287	679.912
238.986	19.829	895.210	679.489
240.001	19.787	895.189	679.248
241.015	20.096	894.395	679.797
242.030	19.986	894.133	679.106
243.045	20.136	893.400	679.076
244.059	20.223	893.149	679.166
245.074	20.116	892.643	678.303
246.088	20.258	891.915	678.247
247.103	20.456	891.385	678.557
248.117	20.612	891.295	679.035
249.132	20.934	890.953	679.973
250.147	21.171	890.347	680.373
251.161	21.265	889.805	680.264
252.176	21.258	889.154	679.678
253.190	21.265	888.516	679.157
254.205	21.355	887.814	678.913
255.220	21.127	887.230	677.521
256.234	20.976	886.970	676.677
257.249	21.070	886.124	676.334
258.263	21.129	884.571	675.319
259.278	21.047	884.296	674.731
260.293	21.278	883.938	675.292
261.307	21.321	883.602	675.143
262.322	21.376	882.911	674.766
263.336	21.417	881.974	674.147
264.351	21.269	881.494	673.151
265.366	21.520	880.561	673.344
266.380	21.321	880.137	672.197
267.395	21.334	879.319	671.561
268.409	21.046	878.770	669.977
269.424	21.178	877.740	669.638
270.439	21.098	877.009	668.717
271.453	20.884	876.655	667.566
272.468	20.876	876.100	667.053
273.482	20.982	875.306	666.797
274.497	21.031	874.601	666.387
275.512	20.956	874.560	666.012
276.526	21.045	873.697	665.635
277.541	21.003	873.473	665.245
278.555	21.299	872.808	665.808
279.570	21.411	872.415	665.875
280.585	21.333	871.996	665.198
281.599	21.334	870.441	663.956
282.614	21.151	869.856	662.758
283.628	21.102	869.392	662.161
284.643	21.143	868.604	661.657
285.657	21.119	868.302	661.276
286.672	21.189	867.541	660.904
287.687	21.153	866.875	660.201
288.701	21.141	866.116	659.519
289.716	21.254	865.612	659.504
290.730	21.096	865.358	658.657
291.745	21.217	864.575	658.460
292.760	21.500	864.221	659.196
293.774	21.575	864.105	659.334
294.789	21.502	862.781	657.988
295.803	21.246	861.822	656.237
296.818	21.097	861.122	655.088
297.833	21.208	860.741	655.156
298.847	21.307	859.752	654.718
299.862	21.323	859.774	654.735
300.876	21.414	859.876	655.098
301.891	21.593	858.977	655.024
302.906	21.682	858.352	654.820
303.920	21.860	858.168	655.288
304.935	21.800	857.891	654.797
305.949	21.763	856.883	653.829
306.964	21.574	855.833	652.266
307.979	21.633	855.502	652.177
308.993	21.709	855.175	652.151
310.008	21.770	854.761	652.007
311.022	21.499	853.958	650.330
312.037	21.385	853.256	649.313
313.052	21.314	852.096	648.111
314.066	21.067	852.142	647.170
315.081	21.003	851.064	646.057
316.095	21.119	850.764	646.201
317.110	21.079	850.114	645.504
318.125	20.989	849.529	644.667
319.139	21.129	848.839	644.606
320.154	21.166	848.789	644.647
321.168	21.105	848.173	643.896
322.183	21.254	847.910	644.191
323.197	21.354	847.025	643.830
324.212	21.312	846.541	643.250
325.227	21.358	845.649	642.683
326.241	21.281	845.650	642.345
327.256	21.156	844.929	641.280
328.270	21.215	844.361	641.011
329.285	21.180	843.687	640.311
330.300	21.129	842.954	639.514
331.314	21.231	842.909	639.796
332.329	21.526	842.102	640.206
333.343	21.670	841.537	640.246
334.358	21.682	841.418	640.145
335.373	21.657	841.063	639.724
336.387	21.726	840.895	639.793
337.402	21.752	840.541	639.562
338.416	21.943	840.783	640.388
339.431	22.135	840.309	640.668
340.446	22.281	839.474	640.506
341.460	22.183	839.384	640.024
342.475	22.356	838.902	640.231
343.489	22.336	838.923	640.117
344.504	22.359	838.338	639.698
345.519	22.426	838.378	639.916
346.533	22.174	837.356	638.162
347.548	21.963	836.187	636.451
348.562	21.867	835.477	635.508
349.577	21.683	834.686	634.184
350.592	21.592	834.119	633.366
351.606	21.526	833.226	632.395
352.621	21.809	832.334	632.681
353.635	21.786	832.202	632.442
354.650	21.717	832.115	632.071
355.665	21.972	831.119	632.178
356.679	21.980	830.442	631.635
357.694	21.902	830.096	631.036
358.708	21.951	829.383	630.615
359.723	21.950	828.768	630.089
360.738	22.036	827.807	629.608
361.752	22.146	827.527	629.736
362.767	22.215	827.344	629.787
363.781	22.518	826.645	630.284
364.796	22.596	826.471	630.376
365.810	22.659	826.004	630.189
366.825	22.579	826.026	629.861
367.840	22.459	825.356	628.866
368.854	22.586	824.565	628.662
369.869	22.347	823.975	627.303
370.883	22.446	823.794	627.466
371.898	22.565	823.752	627.803
372.913	22.549	822.963	627.088
373.927	22.434	822.499	626.269
374.942	22.434	822.239	626.015
375.956	22.614	821.705	626.193
376.971	22.732	821.161	626.143
377.986	22.878	820.770	626.307
379.000	22.815	820.652	625.938
380.015	22.796	819.603	625.015
381.029	22.724	819.006	624.249
382.044	22.817	818.579	624.198
383.059	22.771	818.320	623.784
384.073	22.809	817.320	623.097
385.088	22.451	816.535	621.184
386.102	22.396	816.076	620.585
387.117	22.276	815.398	619.590
388.132	22.364	814.795	619.387
389.146	22.360	814.584	619.160
390.161	22.638	814.042	619.667
391.175	22.797	813.315	619.621
392.190	22.523	813.111	618.447
393.205	22.352	812.151	617.064
394.219	22.314	811.852	616.647
395.234	22.282	811.509	616.220
396.248	22.214	810.995	615.539
397.263	22.060	810.368	614.467
398.278	22.124	810.012	614.370
399.292	22.081	809.462	613.748
400.307	22.001	809.153	613.179
401.321	22.175	808.406	613.164
402.336	22.258	808.051	613.132
403.350	22.370	807.996	613.424
404.365	22.623	807.794	614.098
405.380	22.767	807.263	614.143
406.394	22.905	806.934	614.316
407.409	22.952	806.552	614.137
408.423	22.906	806.446	613.839
409.438	23.117	805.949	614.142
410.453	23.284	805.389	614.240
411.467	23.135	805.176	613.504
412.482	23.331	804.679	613.752
413.496	23.442	804.213	613.727
414.511	23.162	804.106	612.620
415.526	23.258	803.238	612.237
416.540	23.039	802.877	611.152
417.555	23.162	802.373	611.139
418.569	23.294	801.446	610.832
419.584	23.122	801.720	610.396
420.599	23.168	801.267	610.155
421.613	165.320	1371.536	1797.275
422.628	143.717	1454.594	1797.384
