DTS Sentinel unit serial number:	SN413079Multiplexer serial number:	ORYXHardware model number:	OX4-SRSoftware version number:	ORYX F/W v4.00 Oryx Data Collector v3.7.2.0data status	okinstallation	princeton_trtdifferential loss correction	single-endedforward channel	channel 1reverse channel	N/Adate	2019/09/13time	20:42:35forward acquisition time	60.00reverse acquisition time	0.00gamma	496.2192k internal	0.2331k external	0.2331temperature offset calibration	1.0081default loss term (dB/km)	0.3790temperature slope calibration	1.0000multiplexer offset coefficient	1.0000multiplexer slope coefficient	1.0000fibre end	0.00T internal ref (°C)	28.87T ext. ref 1 (°C)	3.13T ext. ref 2 (°C)	23.41length (m)	temperature (°C)	Stokes	anti-Stokes-747.200	-47.294	0.135	-0.066
-746.185	-200.000	-0.017	0.370
-745.171	-200.000	0.057	0.362
-744.156	800.000	-0.058	0.206
-743.142	141.340	-0.114	-0.151
-742.127	800.000	-0.116	0.335
-741.112	800.000	-0.056	-0.247
-740.098	-99.931	-0.330	0.083
-739.083	786.394	0.071	-0.197
-738.069	-9.021	0.063	0.043
-737.054	-113.428	0.289	-0.057
-736.039	-133.085	0.164	0.021
-735.025	-147.152	0.206	0.018
-734.010	182.404	-0.126	0.186
-732.996	70.995	-0.255	0.266
-731.981	76.077	-0.194	-0.207
-730.966	-110.021	-0.218	-0.046
-729.952	800.000	0.025	-0.072
-728.937	-15.747	-0.227	0.146
-727.923	-25.150	-0.192	0.114
-726.908	-200.000	0.061	-0.354
-725.894	-106.522	-0.204	0.046
-724.879	426.914	-0.076	-0.165
-723.864	800.000	0.101	-0.294
-722.850	145.370	-0.212	-0.286
-721.835	800.000	0.106	-0.435
-720.821	198.532	0.157	-0.241
-719.806	4.158	-0.228	-0.168
-718.791	75.001	0.158	-0.167
-717.777	-44.329	-0.153	-0.077
-716.762	12.409	-0.154	-0.120
-715.748	232.248	-0.120	-0.198
-714.733	-83.930	0.353	-0.113
-713.718	-168.241	0.089	-0.003
-712.704	-200.000	-0.027	-0.167
-711.689	800.000	-0.077	-0.261
-710.675	-103.154	0.297	0.071
-709.660	-112.830	-0.021	-0.004
-708.645	93.549	0.136	0.155
-707.631	-27.961	0.307	0.179
-706.616	2.570	0.052	-0.038
-705.602	-112.843	0.188	0.038
-704.587	121.582	0.251	0.314
-703.572	22.744	0.215	0.177
-702.558	555.192	-0.175	-0.424
-701.543	-124.323	-0.293	-0.046
-700.529	-107.260	0.196	-0.043
-699.514	-112.457	0.222	-0.045
-698.499	-200.000	0.034	0.263
-697.485	-200.000	-0.002	-0.212
-696.470	24.359	0.175	-0.145
-695.456	251.655	0.098	-0.167
-694.441	-86.278	0.289	0.090
-693.426	553.086	0.039	-0.094
-692.412	151.090	-0.201	0.274
-691.397	52.020	0.181	-0.173
-690.383	-32.977	-0.551	-0.307
-689.368	-52.662	0.170	-0.079
-688.354	-200.000	0.017	0.129
-687.339	-39.009	0.108	-0.057
-686.324	129.343	0.040	0.051
-685.310	-97.252	0.166	0.044
-684.295	2.750	-0.184	-0.134
-683.281	-152.395	0.079	-0.006
-682.266	551.581	0.043	-0.103
-681.251	-24.958	0.153	-0.091
-680.237	-200.000	-0.036	-0.199
-679.222	-200.000	0.042	-0.230
-678.208	274.237	-0.027	-0.048
-677.193	144.014	-0.077	0.103
-676.178	0.479	0.337	-0.242
-675.164	-47.228	0.139	-0.068
-674.149	-200.000	0.026	0.155
-673.135	101.347	-0.135	-0.158
-672.120	-107.486	0.091	0.020
-671.105	-8.391	0.022	-0.015
-670.091	510.388	0.128	-0.300
-669.076	292.225	0.029	-0.053
-668.062	-83.202	0.062	0.020
-667.047	561.060	-0.115	-0.278
-666.032	355.036	-0.053	-0.106
-665.018	-18.695	0.126	-0.079
-664.003	76.110	-0.298	-0.317
-662.989	146.795	-0.234	-0.315
-661.974	-144.997	-0.331	-0.030
-660.959	251.776	-0.146	0.249
-659.945	-200.000	0.064	-0.311
-658.930	-200.000	0.058	-0.364
-657.916	800.000	-0.059	0.193
-656.901	800.000	0.028	0.093
-655.886	114.440	-0.017	0.020
-654.872	189.642	-0.143	-0.215
-653.857	398.159	0.067	0.141
-652.843	-200.000	-0.001	-0.047
-651.828	-81.815	-0.077	-0.025
-650.814	175.421	-0.117	-0.170
-649.799	-134.309	-0.717	-0.088
-648.784	239.636	-0.082	0.137
-647.770	78.008	-0.208	-0.223
-646.755	-25.418	-0.210	0.125
-645.741	248.267	-0.215	-0.364
-644.726	-20.727	0.174	-0.107
-643.711	450.846	0.062	-0.137
-642.697	-91.842	-0.209	-0.059
-641.682	51.517	0.198	0.189
-640.668	-200.000	0.020	-0.207
-639.653	708.463	0.179	-0.474
-638.638	60.891	-0.172	-0.171
-637.624	800.000	0.056	0.184
-636.609	-51.736	-0.334	-0.156
-635.595	81.944	-0.085	-0.093
-634.580	-43.687	0.077	0.039
-633.565	113.247	0.105	-0.128
-632.551	-200.000	-0.001	-0.076
-631.536	156.342	-0.044	-0.061
-630.522	-130.061	0.499	-0.068
-629.507	-200.000	0.005	0.041
-628.492	138.372	0.126	-0.165
-627.478	-168.039	0.326	0.013
-626.463	-200.000	-0.004	0.208
-625.449	-140.638	0.183	0.019
-624.434	42.111	0.179	-0.162
-623.419	800.000	0.017	-0.074
-622.405	457.704	0.044	-0.098
-621.390	-19.501	0.300	0.186
-620.376	231.278	0.041	0.068
-619.361	-200.000	0.024	-0.238
-618.346	61.503	0.132	0.131
-617.332	196.530	-0.175	-0.268
-616.317	124.927	-0.214	-0.270
-615.303	475.695	0.066	-0.150
-614.288	-132.554	-0.125	0.016
-613.273	-200.000	0.024	-0.288
-612.259	-7.986	0.366	-0.247
-611.244	630.192	-0.099	-0.251
-610.230	123.891	-0.138	-0.173
-609.215	800.000	0.066	0.190
-608.201	635.970	0.083	-0.210
-607.186	800.000	-0.129	-0.409
-606.171	-200.000	-0.032	-0.252
-605.157	296.548	0.013	-0.023
-604.142	-200.000	0.032	0.237
-603.128	-20.193	0.103	0.063
-602.113	-82.702	-0.116	-0.038
-601.098	800.000	0.075	0.282
-600.084	-99.860	-0.179	-0.045
-599.069	-19.788	0.254	0.157
-598.055	137.511	-0.123	-0.162
-597.040	35.293	0.110	-0.097
-596.025	-59.755	-0.250	0.107
-595.011	-59.257	-0.294	-0.127
-593.996	-200.000	0.001	0.097
-592.982	800.000	0.045	-0.135
-591.967	-57.466	-0.222	-0.097
-590.952	58.095	-0.208	0.204
-589.938	168.050	-0.233	-0.332
-588.923	800.000	0.014	0.059
-587.909	-66.405	-0.115	-0.046
-586.894	98.376	-0.087	0.100
-585.879	-3.147	-0.157	-0.109
-584.865	100.950	-0.111	-0.129
-583.850	-91.711	-0.309	-0.088
-582.836	199.571	0.085	-0.130
-581.821	800.000	0.072	0.263
-580.806	-28.734	-0.195	-0.112
-579.792	311.638	-0.146	-0.274
-578.777	584.553	0.156	-0.382
-577.763	539.303	0.061	-0.146
-576.748	-18.910	-0.251	-0.156
-575.733	-200.000	-0.017	-0.184
-574.719	26.744	-0.033	-0.027
-573.704	-151.449	0.373	0.028
-572.690	-143.274	0.296	-0.028
-571.675	-50.139	-0.018	0.009
-570.661	-117.773	0.094	-0.017
-569.646	27.991	-0.148	-0.125
-568.631	380.299	-0.090	0.185
-567.617	-130.501	0.285	0.039
-566.602	-200.000	-0.032	-0.148
-565.588	19.244	0.114	-0.092
-564.573	317.415	-0.071	0.135
-563.558	-200.000	-0.022	0.320
-562.544	-15.083	-0.230	0.147
-561.529	800.000	0.099	-0.338
-560.515	-55.406	-0.109	-0.049
-559.500	-200.000	0.014	-0.147
-558.485	-200.000	-0.004	0.169
-557.471	267.342	0.104	-0.181
-556.456	53.962	0.038	0.037
-555.442	800.000	0.064	0.212
-554.427	84.321	0.139	0.152
-553.412	208.997	-0.046	0.072
-552.398	333.653	-0.184	0.355
-551.383	488.914	-0.080	0.182
-550.369	-7.472	0.096	0.065
-549.354	-22.334	0.234	-0.142
-548.339	-200.000	0.048	-0.307
-547.325	-0.002	0.360	0.256
-546.310	90.358	-0.165	-0.184
-545.296	177.889	0.025	0.037
-544.281	-200.000	-0.015	0.136
-543.266	5.470	0.379	-0.279
-542.252	-200.000	-0.003	0.269
-541.237	-24.007	0.390	0.233
-540.223	800.000	0.072	-0.287
-539.208	623.276	-0.064	-0.161
-538.193	75.377	0.121	0.128
-537.179	-121.272	-0.365	-0.061
-536.164	79.545	-0.067	-0.072
-535.150	375.219	0.060	-0.123
-534.135	-156.199	-0.116	0.007
-533.121	-200.000	0.029	0.348
-532.106	518.672	0.136	-0.318
-531.091	800.000	0.148	-0.407
-530.077	587.841	0.145	0.357
-529.062	-161.389	-0.273	0.014
-528.048	704.262	0.116	0.306
-527.033	-84.687	-0.197	-0.062
-526.018	90.335	-0.200	0.223
-525.004	-93.901	-0.079	0.022
-523.989	183.034	0.076	-0.111
-522.975	71.631	0.082	-0.085
-521.960	166.018	-0.030	0.042
-520.945	800.000	-0.075	0.286
-519.931	800.000	0.023	-0.090
-518.916	800.000	0.049	-0.165
-517.902	-200.000	0.021	0.261
-516.887	800.000	0.046	-0.130
-515.872	-200.000	0.024	-0.206
-514.858	17.434	0.093	-0.074
-513.843	-88.017	-0.178	-0.053
-512.829	-99.579	-0.324	0.081
-511.814	-16.633	0.351	0.222
-510.799	-2.828	-0.128	0.089
-509.785	-200.000	0.044	-0.320
-508.770	-200.000	-0.017	0.288
-507.756	-28.961	-0.081	0.046
-506.741	-200.000	-0.005	0.270
-505.726	-136.991	0.342	-0.039
-504.712	103.780	-0.110	-0.129
-503.697	-75.695	0.078	0.028
-502.683	-200.000	-0.011	0.183
-501.668	356.529	-0.039	-0.078
-500.653	-130.960	0.239	-0.032
-499.639	800.000	-0.074	0.244
-498.624	15.842	-0.359	-0.282
-497.610	299.448	-0.101	-0.186
-496.595	-163.470	-0.236	-0.011
-495.581	-67.747	-0.350	-0.136
-494.566	800.000	-0.060	-0.194
-493.551	246.332	0.150	-0.251
-492.537	11.744	0.164	-0.126
-491.522	111.062	0.267	-0.320
-490.508	122.336	-0.136	0.170
-489.493	800.000	0.055	0.175
-488.478	-179.572	-0.271	0.006
-487.464	331.558	0.090	0.173
-486.449	-200.000	0.006	0.139
-485.435	27.016	0.101	-0.085
-484.420	119.160	-0.062	-0.076
-483.405	-95.586	0.102	-0.027
-482.391	-66.603	-0.325	-0.128
-481.376	-176.271	0.068	0.002
-480.362	1.081	-0.127	0.091
-479.347	-154.718	-0.321	-0.021
-478.332	-48.360	-0.276	0.133
-477.318	-13.239	-0.085	0.055
-476.303	535.335	-0.083	0.196
-475.289	-177.491	0.103	0.003
-474.274	0.020	-0.424	-0.301
-473.259	304.464	-0.117	-0.216
-472.245	-56.104	-0.186	0.083
-471.230	-146.552	-0.158	0.014
-470.216	52.709	0.194	0.185
-469.201	260.366	0.181	0.312
-468.186	-200.000	-0.019	0.102
-467.172	-200.000	0.045	0.508
-466.157	352.914	-0.044	-0.087
-465.143	109.311	0.301	-0.359
-464.128	800.000	0.044	0.128
-463.113	-200.000	0.033	0.225
-462.099	145.073	0.041	-0.055
-461.084	199.333	-0.064	0.097
-460.070	-18.850	0.118	0.073
-459.055	-49.381	0.228	0.108
-458.040	-129.607	-0.311	-0.043
-457.026	-143.844	-0.188	-0.018
-456.011	548.375	-0.100	0.239
-454.997	-65.930	-0.288	0.115
-453.982	365.310	-0.186	-0.372
-452.968	800.000	-0.036	-0.130
-451.953	-4.857	0.149	-0.102
-450.938	800.000	0.045	0.153
-449.924	-165.880	-0.371	0.016
-448.909	800.000	0.138	0.381
-447.895	-150.370	-0.247	-0.019
-446.880	38.594	-0.226	-0.201
-445.865	-200.000	-0.037	0.195
-444.851	301.548	-0.097	0.178
-443.836	-145.124	0.008	0.001
-442.822	-200.000	0.011	-0.073
-441.807	-126.784	0.127	-0.019
-440.792	194.370	-0.059	0.089
-439.778	12.088	0.193	-0.148
-438.763	-81.956	0.094	0.031
-437.749	-200.000	-0.038	-0.314
-436.734	12.727	-0.288	-0.221
-435.719	-27.448	0.105	0.061
-434.705	105.846	0.214	0.251
-433.690	119.743	-0.220	0.271
-432.676	-84.900	0.154	-0.048
-431.661	68.320	0.212	0.216
-430.646	-200.000	-0.063	0.390
-429.632	324.544	-0.071	-0.136
-428.617	166.526	-0.080	-0.113
-427.603	-189.234	-0.168	-0.002
-426.588	-87.052	0.193	0.058
-425.573	-66.049	-0.219	-0.087
-424.559	-200.000	-0.045	0.211
-423.544	800.000	-0.086	-0.279
-422.530	12.646	-0.202	0.155
-421.515	-40.880	-0.192	-0.098
-420.500	-70.166	0.275	0.104
-419.486	-12.252	0.051	0.033
-418.471	-200.000	0.010	-0.079
-417.457	138.039	0.186	-0.242
-416.442	800.000	0.060	0.254
-415.428	800.000	-0.058	-0.198
-414.413	-56.008	-0.296	-0.131
-413.398	-76.973	0.308	0.107
-412.384	-79.817	-0.298	0.100
-411.369	247.885	0.084	0.140
-410.355	-84.555	0.024	-0.008
-409.340	-200.000	-0.019	0.081
-408.325	-120.045	0.394	-0.067
-407.311	121.115	0.167	0.206
-406.296	481.943	0.123	0.277
-405.282	-9.160	0.130	-0.087
-404.267	-105.034	0.454	0.103
-403.252	3.020	-0.177	-0.128
-402.238	800.000	0.158	-0.496
-401.223	-2.019	-0.186	-0.130
-400.209	-25.369	-0.164	-0.096
-399.194	35.590	-0.236	0.206
-398.179	17.203	-0.120	-0.095
-397.165	72.874	0.121	-0.126
-396.150	-43.947	0.133	0.067
-395.136	-125.539	-0.220	0.033
-394.121	-200.000	0.013	-0.319
-393.106	-32.173	0.209	-0.116
-392.092	109.745	-0.321	-0.382
-391.077	28.059	-0.141	0.118
-390.063	384.172	-0.148	-0.303
-389.048	-119.768	-0.253	-0.043
-388.033	-126.936	0.218	-0.032
-387.019	-73.230	-0.124	0.045
-386.004	199.625	-0.171	-0.261
-384.990	-52.469	-0.037	0.017
-383.975	-148.999	0.437	-0.035
-382.960	-200.000	0.062	0.337
-381.946	544.348	-0.063	-0.150
-380.931	-200.000	-0.011	0.187
-379.917	26.261	-0.114	-0.095
-378.902	67.151	0.041	-0.042
-377.888	-200.000	0.021	0.225
-376.873	-200.000	-0.007	-0.205
-375.858	-83.157	0.308	0.098
-374.844	-200.000	-0.011	0.229
-373.829	153.972	0.065	0.088
-372.815	677.467	-0.089	0.230
-371.800	-200.000	-0.029	0.131
-370.785	537.172	-0.153	0.361
-369.771	800.000	-0.072	-0.283
-368.756	800.000	0.104	0.366
-367.742	444.989	-0.066	0.144
-366.727	-41.154	-0.098	-0.050
-365.712	326.426	-0.115	0.218
-364.698	-34.708	0.600	0.325
-363.683	-0.762	0.125	-0.088
-362.669	103.311	0.015	0.018
-361.654	75.083	-0.133	-0.139
-360.639	-200.000	-0.001	-0.139
-359.625	-125.425	-0.042	0.006
-358.610	-63.082	0.254	0.104
-357.596	-114.398	-0.154	-0.029
-356.581	71.596	0.163	0.167
-355.566	-200.000	0.049	0.257
-354.552	-200.000	0.001	0.098
-353.537	800.000	-0.033	0.098
-352.523	294.473	-0.123	0.223
-351.508	510.349	0.210	0.485
-350.493	1.748	-0.110	-0.079
-349.479	437.110	-0.022	-0.047
-348.464	-123.912	-0.181	0.028
-347.450	-89.626	-0.167	-0.048
-346.435	131.708	-0.077	0.098
-345.420	533.828	-0.037	0.086
-344.406	141.395	0.246	0.323
-343.391	-171.616	-0.177	-0.006
-342.377	17.436	0.137	-0.108
-341.362	14.374	0.194	0.150
-340.348	-8.625	-0.126	-0.084
-339.333	800.000	0.025	0.075
-338.318	172.063	0.105	-0.150
-337.304	-200.000	-0.000	-0.041
-336.289	800.000	-0.164	0.477
-335.275	69.241	-0.255	-0.260
-334.260	-15.706	0.185	-0.117
-333.245	176.917	0.065	0.094
-332.231	800.000	0.027	-0.081
-331.216	-200.000	0.015	-0.267
-330.202	800.000	-0.055	-0.169
-329.187	-52.931	-0.127	-0.058
-328.172	-200.000	-0.047	0.217
-327.158	-200.000	0.007	-0.147
-326.143	44.685	-0.223	-0.203
-325.129	209.757	0.118	0.183
-324.114	800.000	-0.129	0.405
-323.099	100.520	-0.157	0.180
-322.085	62.109	-0.336	-0.332
-321.070	758.520	0.052	0.139
-320.056	31.868	0.195	-0.166
-319.041	356.347	-0.078	0.155
-318.026	-170.160	-0.113	0.004
-317.012	-152.817	0.230	0.016
-315.997	-14.532	-0.289	0.184
-314.983	26.703	-0.063	-0.052
-313.968	-0.224	0.255	-0.179
-312.953	30.339	-0.081	-0.069
-311.939	-156.601	0.065	0.004
-310.924	48.491	-0.252	0.234
-309.910	12.145	-0.182	-0.138
-308.895	-200.000	0.014	0.384
-307.880	-200.000	0.020	0.289
-306.866	-4.249	0.409	-0.280
-305.851	793.583	0.181	-0.492
-304.837	-41.562	-0.050	0.026
-303.822	31.422	0.108	-0.092
-302.807	23.184	-0.096	0.078
-301.793	94.469	-0.188	0.211
-300.778	-132.258	0.287	-0.037
-299.764	-200.000	0.014	0.137
-298.749	-200.000	-0.083	0.447
-297.735	800.000	0.111	-0.395
-296.720	-200.000	0.005	0.172
-295.705	260.907	0.117	0.201
-294.691	39.268	-0.135	-0.120
-293.676	-51.877	0.370	0.170
-292.662	-34.615	0.117	-0.064
-291.647	-12.134	-0.033	0.021
-290.632	-200.000	-0.060	0.295
-289.618	800.000	0.054	-0.183
-288.603	246.571	-0.020	0.033
-287.589	-47.101	-0.132	-0.063
-286.574	95.123	-0.342	0.385
-285.559	-43.961	-0.235	0.117
-284.545	46.954	0.015	-0.014
-283.530	161.023	0.119	0.164
-282.516	112.444	0.362	0.433
-281.501	106.730	-0.160	0.188
-280.486	-56.173	-0.132	-0.058
-279.472	-55.662	0.238	-0.105
-278.457	-28.944	0.132	-0.075
-277.443	-200.000	-0.019	0.102
-276.428	413.499	-0.130	-0.273
-275.413	-200.000	-0.005	0.217
-274.399	-200.000	-0.013	-0.122
-273.384	-200.000	-0.003	-0.086
-272.370	-111.829	-0.031	-0.006
-271.355	-200.000	0.016	-0.337
-270.340	-200.000	-0.049	-0.275
-269.326	-200.000	0.017	0.081
-268.311	-200.000	0.038	-0.197
-267.297	7.453	-0.205	-0.151
-266.282	53.218	-0.171	-0.161
-265.267	-160.501	-0.085	-0.004
-264.253	418.862	-0.082	-0.173
-263.238	-60.201	0.281	0.118
-262.224	-200.000	0.049	0.320
-261.209	-107.760	0.371	0.080
-260.195	-105.814	-0.396	-0.088
-259.180	-50.837	-0.236	0.110
-258.165	-131.314	0.424	0.056
-257.151	-91.849	0.132	0.037
-256.136	800.000	-0.105	0.361
-255.122	356.330	0.132	0.260
-254.107	332.099	-0.031	-0.059
-253.092	800.000	-0.039	-0.127
-252.078	-200.000	-0.028	0.175
-251.063	10.852	0.087	-0.066
-250.049	800.000	0.084	-0.288
-249.034	603.328	-0.097	-0.238
-248.019	-200.000	-0.004	-0.249
-247.005	-200.000	0.013	0.170
-245.990	800.000	-0.144	0.424
-244.976	-200.000	-0.043	0.357
-243.961	-200.000	-0.021	0.090
-242.946	-119.863	-0.030	-0.005
-241.932	-200.000	0.018	-0.102
-240.917	222.302	0.135	0.214
-239.903	-65.081	-0.153	-0.061
-238.888	114.129	0.193	-0.232
-237.873	-97.727	-0.350	0.089
-236.859	-168.650	0.403	0.015
-235.844	378.952	0.051	-0.103
-234.830	-200.000	-0.026	0.403
-233.815	800.000	0.085	0.352
-232.800	25.490	-0.253	0.208
-231.786	68.171	-0.151	-0.153
-230.771	-200.000	0.032	0.294
-229.757	-19.736	-0.134	0.081
-228.742	-173.581	-0.162	-0.005
-227.727	-200.000	-0.019	0.166
-226.713	-7.034	0.229	-0.153
-225.698	-68.167	-0.245	-0.094
-224.684	-200.000	-0.005	0.193
-223.669	-38.301	-0.122	0.064
-222.655	-6.361	0.205	0.138
-221.640	41.579	0.251	-0.224
-220.625	-200.000	0.034	0.189
-219.611	800.000	0.059	0.242
-218.596	567.972	0.033	0.078
-217.582	-200.000	0.007	0.303
-216.567	73.179	-0.194	-0.200
-215.552	-120.249	0.386	0.065
-214.538	-200.000	-0.027	-0.407
-213.523	-200.000	0.012	0.234
-212.509	174.328	0.064	-0.091
-211.494	-150.476	-0.187	-0.014
-210.479	-27.249	0.244	-0.140
-209.465	-44.931	0.180	-0.089
-208.450	220.347	0.074	0.118
-207.436	-91.835	-0.166	0.046
-206.421	77.599	0.145	-0.152
-205.406	291.525	0.135	-0.242
-204.392	-35.647	0.249	-0.133
-203.377	800.000	-0.092	-0.303
-202.363	743.959	0.089	-0.237
-201.348	-200.000	0.015	-0.141
-200.333	42.926	0.226	-0.203
-199.319	-194.816	0.347	0.003
-198.304	-53.320	-0.065	0.030
-197.290	350.028	-0.055	-0.107
-196.275	32.542	0.304	-0.259
-195.260	-200.000	0.051	-0.221
-194.246	50.586	0.259	0.241
-193.231	-54.194	-0.474	0.212
-192.217	-130.817	0.113	-0.015
-191.202	634.070	0.102	-0.255
-190.187	-200.000	0.033	-0.202
-189.173	-108.388	0.189	-0.040
-188.158	-200.000	-0.018	-0.191
-187.144	-91.776	0.276	-0.077
-186.129	-176.422	0.219	0.006
-185.114	-200.000	-0.023	-0.135
-184.100	-126.406	0.038	0.006
-183.085	259.588	-0.181	0.308
-182.071	-3.654	-0.060	0.041
-181.056	27.434	-0.166	0.137
-180.042	-116.904	0.176	-0.032
-179.027	-93.547	0.353	0.096
-178.012	-200.000	-0.073	-0.000
-176.998	22.180	-0.218	-0.175
-175.983	800.000	0.053	-0.171
-174.969	412.535	0.061	-0.128
-173.954	6.770	0.238	0.174
-172.939	-200.000	-0.029	0.223
-171.925	-12.411	0.245	0.157
-170.910	141.140	0.191	-0.249
-169.896	-200.000	0.023	0.190
-168.881	-200.000	-0.035	0.229
-167.866	-200.000	0.029	0.140
-166.852	-108.787	0.281	0.059
-165.837	-200.000	0.033	0.220
-164.823	292.889	-0.089	0.160
-163.808	-17.601	-0.124	0.077
-162.793	39.536	0.110	0.097
-161.779	-159.138	0.229	0.013
-160.764	85.623	-0.218	-0.236
-159.750	17.775	-0.098	0.077
-158.735	83.730	-0.183	-0.197
-157.720	800.000	0.049	-0.180
-156.706	-191.764	0.216	-0.002
-155.691	149.698	-0.060	0.080
-154.677	-200.000	0.037	-0.278
-153.662	125.927	0.037	-0.047
-152.647	800.000	0.051	-0.172
-151.633	108.960	-0.124	-0.145
-150.618	-120.652	0.429	-0.071
-149.604	-159.734	0.247	-0.013
-148.589	800.000	-0.051	-0.143
-147.574	-79.687	0.232	0.077
-146.560	66.268	-0.101	0.100
-145.545	-63.361	-0.288	-0.117
-144.531	-42.511	0.222	-0.111
-143.516	-160.476	-0.467	0.025
-142.502	679.531	0.115	0.295
-141.487	-200.000	0.053	0.361
-140.472	-64.762	-0.261	0.104
-139.458	59.038	-0.280	0.271
-138.443	-138.538	-0.256	0.028
-137.429	4.508	-0.214	-0.154
-136.414	-47.023	0.125	-0.060
-135.399	-200.000	-0.013	-0.083
-134.385	800.000	-0.021	0.081
-133.370	77.291	0.210	0.219
-132.356	-63.715	0.185	-0.075
-131.341	8.341	-0.213	0.157
-130.326	-46.107	-0.123	-0.060
-129.312	-108.559	0.453	0.096
-128.297	-140.055	0.365	-0.038
-127.283	-145.135	-0.408	-0.036
-126.268	800.000	-0.043	0.158
-125.253	-150.458	0.242	0.018
-124.239	-200.000	0.041	-0.239
-123.224	96.689	0.098	-0.110
-122.210	800.000	-0.075	0.252
-121.195	-150.931	-0.185	0.014
-120.180	-90.731	-0.157	-0.045
-119.166	-131.297	0.248	0.032
-118.151	-74.904	0.259	0.091
-117.137	800.000	0.043	-0.169
-116.122	-108.116	-0.290	-0.062
-115.107	-98.863	0.182	-0.045
-114.093	12.631	0.075	0.057
-113.078	-81.387	-0.075	0.024
-112.064	-180.985	-0.204	-0.004
-111.049	-58.802	0.105	-0.045
-110.034	136.776	-0.082	0.105
-109.020	663.424	-0.078	-0.197
-108.005	63.079	-0.113	-0.111
-106.991	223.442	0.082	0.130
-105.976	107.952	-0.201	-0.236
-104.962	71.884	-0.077	0.078
-103.947	-28.948	-0.009	0.005
-102.932	192.391	-0.092	0.137
-101.918	50.206	-0.109	-0.101
-100.903	-200.000	-0.000	0.109
-99.889	17.351	0.174	-0.136
-98.874	-200.000	-0.062	-0.314
-97.859	443.417	0.149	-0.320
-96.845	-72.892	-0.065	-0.023
-95.830	20.900	0.185	0.147
-94.816	-108.668	0.140	0.030
-93.801	800.000	0.053	-0.146
-92.786	530.561	0.056	-0.131
-91.772	-175.190	0.258	-0.007
-90.757	733.844	-0.047	-0.124
-89.743	-63.715	0.185	0.074
-88.728	134.694	0.069	0.088
-87.713	-72.985	-0.084	0.030
-86.699	316.948	0.052	-0.096
-85.684	-200.000	0.016	-0.153
-84.670	29.470	-0.208	0.174
-83.655	-79.344	-0.019	-0.006
-82.640	-183.800	-0.154	-0.003
-81.626	-39.062	-0.212	-0.109
-80.611	-73.284	0.083	0.030
-79.597	-28.878	0.160	0.090
-78.582	-98.724	-0.222	0.055
-77.567	102.342	0.126	-0.144
-76.553	-88.531	0.355	-0.104
-75.538	211.880	0.116	0.179
-74.524	106.459	-0.243	-0.282
-73.509	-138.577	-0.101	-0.011
-72.494	109.192	-0.114	-0.134
-71.480	-33.296	0.157	-0.085
-70.465	137.233	-0.069	0.088
-69.451	201.040	-0.032	-0.049
-68.436	800.000	0.028	0.080
-67.422	-200.000	0.002	0.016
-66.407	56.684	-0.349	0.333
-65.392	7.068	0.204	0.149
-64.378	-6.757	-0.136	-0.091
-63.363	74.387	-0.106	-0.109
-62.349	-114.626	0.233	-0.044
-61.334	27.358	-1.029	-0.848
-60.319	309.453	0.290	0.532
-59.305	-200.000	-0.104	-0.921
-58.290	199.928	0.817	1.228
-57.276	208.184	0.863	1.321
-56.261	-200.000	112.256	647.447
-55.246	529.988	1518.852	3514.998
-54.232	177.577	2692.849	3844.197
-53.217	113.376	2150.546	2556.869
-52.203	40.739	1596.513	1410.240
-51.188	32.361	1339.891	1133.303
-50.173	29.356	1300.549	1082.377
-49.159	55.778	1356.849	1288.227
-48.144	55.612	1371.030	1300.648
-47.130	32.551	1325.429	1122.023
-46.115	29.064	1308.050	1086.724
-45.100	28.815	1303.383	1081.336
-44.086	28.744	1300.636	1078.601
-43.071	28.728	1298.268	1076.497
-42.057	28.813	1296.322	1075.342
-41.042	28.690	1294.660	1073.202
-40.027	28.833	1292.965	1072.587
-39.013	28.743	1291.311	1070.649
-37.998	28.908	1289.281	1069.882
-36.984	28.858	1287.360	1067.955
-35.969	28.888	1285.875	1066.854
-34.954	28.891	1284.070	1065.331
-33.940	28.858	1282.998	1064.210
-32.925	28.991	1281.700	1063.860
-31.911	28.943	1280.158	1062.263
-30.896	28.921	1278.793	1060.958
-29.881	29.121	1276.652	1060.294
-28.867	29.010	1275.636	1058.768
-27.852	28.921	1274.318	1057.123
-26.838	29.015	1273.437	1056.888
-25.823	28.980	1271.707	1055.207
-24.809	28.982	1270.521	1054.193
-23.794	28.810	1269.586	1052.395
-22.779	28.932	1268.021	1051.753
-21.765	28.893	1266.908	1050.565
-20.750	28.913	1265.013	1049.066
-19.736	28.961	1263.910	1048.380
-18.721	28.751	1263.005	1046.395
-17.706	28.898	1261.583	1046.008
-16.692	28.839	1260.203	1044.492
-15.677	28.742	1259.626	1043.418
-14.663	28.827	1258.625	1043.028
-13.648	28.825	1257.581	1042.111
-12.633	28.810	1256.614	1041.186
-11.619	28.837	1255.666	1040.513
-10.604	28.798	1255.395	1040.025
-9.590	28.852	1253.813	1038.980
-8.575	28.734	1253.084	1037.668
-7.560	28.865	1251.828	1037.322
-6.546	28.812	1251.626	1036.816
-5.531	28.856	1250.887	1036.412
-4.517	28.867	1249.804	1035.537
-3.502	28.926	1248.381	1034.649
-2.487	28.854	1247.991	1033.880
-1.473	28.765	1244.144	1030.148
-0.458	27.268	1227.954	1008.412
0.556	23.962	1210.132	969.269
1.571	19.910	1214.985	950.856
2.586	18.889	1229.374	956.352
3.600	18.377	1217.646	944.322
4.615	13.762	1147.060	865.481
5.629	6.366	1074.985	774.746
6.644	3.332	1056.473	746.650
7.659	3.126	1054.225	744.000
8.673	3.040	1052.836	742.539
9.688	3.022	1051.712	741.591
10.702	3.268	1049.901	741.433
11.717	7.306	1055.177	764.603
12.731	14.992	1066.012	809.713
13.746	19.457	1071.535	835.507
14.761	19.753	1071.677	836.979
15.775	19.043	1069.967	832.136
16.790	18.103	1067.532	825.632
17.804	17.363	1066.027	820.823
18.819	17.068	1065.349	818.803
19.834	16.880	1064.578	817.234
20.848	16.782	1063.772	816.069
21.863	16.533	1063.242	814.394
22.877	16.353	1062.359	812.779
23.892	16.452	1061.223	812.312
24.907	16.332	1061.071	811.549
25.921	16.434	1059.706	810.921
26.936	16.438	1058.068	809.617
27.950	16.506	1057.016	809.066
28.965	16.473	1055.925	807.999
29.980	16.562	1054.224	807.050
30.994	16.699	1053.327	806.949
32.009	16.791	1051.988	806.287
33.023	16.730	1051.314	805.410
34.038	16.705	1050.081	804.275
35.053	16.523	1049.118	802.605
36.067	16.530	1048.607	802.176
37.082	16.575	1047.816	801.710
38.096	16.672	1047.134	801.580
39.111	16.738	1046.114	801.039
40.126	16.503	1045.196	799.155
41.140	16.271	1043.866	796.970
42.155	16.120	1042.429	795.090
43.169	16.245	1041.138	794.626
44.184	16.255	1040.031	793.755
45.199	16.208	1039.471	793.039
46.213	16.391	1038.083	792.770
47.228	16.505	1037.500	792.788
48.242	16.529	1036.601	792.141
49.257	16.461	1035.699	791.063
50.271	16.487	1035.079	790.642
51.286	16.676	1033.994	790.626
52.301	16.672	1032.696	789.545
53.315	16.485	1031.932	788.019
54.330	16.340	1030.804	786.414
55.344	16.394	1030.048	786.019
56.359	16.414	1029.259	785.443
57.374	16.250	1028.507	784.038
58.388	16.184	1027.586	782.959
59.403	16.176	1026.763	782.224
60.417	16.212	1026.081	781.805
61.432	16.103	1025.298	780.632
62.447	16.012	1024.640	779.639
63.461	16.051	1023.476	778.867
64.476	16.021	1022.548	777.954
65.490	15.982	1021.978	777.271
66.505	15.997	1020.840	776.405
67.520	16.139	1020.272	776.557
68.534	16.166	1019.630	776.128
69.549	16.073	1019.031	775.173
70.563	15.997	1018.344	774.232
71.578	15.956	1017.201	773.106
72.593	15.798	1016.606	771.861
73.607	15.908	1015.555	771.502
74.622	16.022	1014.814	771.391
75.636	15.969	1014.448	770.801
76.651	16.016	1013.856	770.499
77.666	16.022	1013.309	770.043
78.680	16.019	1012.355	769.237
79.695	15.954	1012.092	768.670
80.709	16.160	1011.281	768.925
81.724	16.332	1010.759	769.245
82.739	16.385	1009.811	768.696
83.753	16.572	1009.378	769.148
84.768	16.646	1008.904	769.055
85.782	16.856	1007.834	769.126
86.797	16.757	1006.896	767.890
87.812	16.655	1005.731	766.474
88.826	16.606	1004.648	765.358
89.841	16.670	1003.766	764.907
90.855	16.656	1003.368	764.477
91.870	16.771	1002.544	764.299
92.884	16.761	1001.515	763.401
93.899	16.803	1000.592	762.821
94.914	16.804	1000.013	762.314
95.928	16.804	999.214	761.639
96.943	16.743	998.261	760.569
97.957	16.749	997.271	759.776
98.972	16.619	996.167	758.284
99.987	16.735	995.842	758.488
101.001	16.631	994.406	756.866
102.016	16.601	993.699	756.126
103.030	16.728	993.403	756.400
104.045	16.613	992.736	755.313
105.060	16.697	991.444	754.636
106.074	16.389	990.576	752.536
107.089	16.190	989.208	750.548
108.103	16.098	988.098	749.228
109.118	16.113	987.400	748.700
110.133	16.096	986.678	748.012
111.147	16.025	986.170	747.244
112.162	16.144	984.765	746.641
113.176	16.219	984.370	746.607
114.191	16.292	983.728	746.376
115.206	16.239	982.849	745.409
116.220	16.344	981.846	745.047
117.235	16.136	981.242	743.607
118.249	16.271	980.210	743.354
119.264	16.123	979.401	742.022
120.279	16.172	978.522	741.503
121.293	16.095	977.688	740.472
122.308	16.100	976.593	739.596
123.322	15.952	975.577	738.115
124.337	16.009	974.269	737.308
125.352	15.898	973.564	736.222
126.366	16.013	972.341	735.736
127.381	16.045	971.389	735.088
128.395	16.065	970.522	734.455
129.410	16.199	969.408	734.132
130.424	16.233	969.062	733.954
131.439	16.218	968.067	733.071
132.454	16.230	967.628	732.724
133.468	16.306	966.662	732.258
134.483	16.295	965.498	731.263
135.497	16.369	964.759	730.957
136.512	16.337	964.192	730.327
137.527	16.402	963.276	729.850
138.541	16.415	962.630	729.350
139.556	16.438	962.063	728.956
140.570	16.469	961.408	728.527
141.585	16.656	960.531	728.603
142.600	16.695	959.838	728.180
143.614	16.759	959.151	727.873
144.629	16.780	958.379	727.312
145.643	16.529	957.477	725.484
146.658	16.655	956.036	724.871
147.673	16.580	954.942	723.654
148.687	16.403	954.436	722.450
149.702	16.610	952.763	722.005
150.716	16.226	952.718	720.265
151.731	16.338	952.136	720.240
152.746	16.351	951.106	719.455
153.760	16.523	950.744	719.848
154.775	16.643	950.153	719.847
155.789	16.572	949.888	719.283
156.804	16.560	949.004	718.498
157.819	16.514	948.548	717.891
158.833	16.653	947.973	717.985
159.848	16.918	946.758	718.124
160.862	16.746	945.689	716.523
161.877	16.577	944.664	714.967
162.892	16.360	943.564	713.154
163.906	16.434	942.655	712.715
164.921	16.514	941.628	712.216
165.935	16.591	940.745	711.807
166.950	16.626	939.997	711.326
167.964	16.618	939.364	710.749
168.979	16.482	938.317	709.326
169.994	16.469	938.143	709.077
171.008	16.641	937.365	709.146
172.023	16.837	936.425	709.190
173.037	16.855	935.869	708.783
174.052	16.811	934.517	707.513
175.067	16.450	934.209	705.712
176.081	16.450	933.925	705.433
177.096	16.310	933.175	704.221
178.110	16.481	932.893	704.658
179.125	16.549	932.106	704.285
180.140	16.569	931.656	703.964
181.154	16.607	931.436	703.893
182.169	16.796	930.717	704.073
183.183	16.887	930.419	704.164
184.198	16.878	929.344	703.253
185.213	16.901	928.552	702.688
186.227	16.883	928.165	702.257
187.242	16.945	927.551	701.984
188.256	17.128	926.524	701.903
189.271	17.090	925.795	701.133
190.286	16.849	925.038	699.503
191.300	16.466	923.909	697.006
192.315	16.542	923.076	696.632
193.329	16.433	922.614	695.773
194.344	16.581	922.216	696.018
195.359	16.603	921.990	695.878
196.373	16.725	921.209	695.729
197.388	16.948	920.821	696.287
198.402	17.079	920.623	696.616
199.417	17.205	919.863	696.496
200.432	17.309	919.405	696.511
201.446	17.257	918.985	695.918
202.461	17.368	918.530	695.967
203.475	17.283	917.822	695.023
204.490	17.123	916.895	693.604
205.504	17.013	916.138	692.521
206.519	16.998	915.480	691.902
207.534	17.189	914.338	691.755
208.548	17.017	914.143	690.847
209.563	17.016	913.329	690.168
210.577	16.935	913.139	689.633
211.592	17.139	912.321	689.784
212.607	17.281	911.284	689.512
213.621	17.231	910.726	688.828
214.636	17.359	909.880	688.645
215.650	17.266	909.601	687.996
216.665	17.373	908.710	687.693
217.680	17.514	907.992	687.659
218.694	17.590	907.210	687.314
219.709	17.332	906.721	685.841
220.723	17.379	906.298	685.650
221.738	17.359	905.590	684.973
222.753	17.406	904.965	684.630
223.767	17.427	904.373	684.204
224.782	17.518	904.198	684.379
225.796	17.556	903.668	684.068
226.811	17.469	902.538	682.805
227.826	17.514	901.644	682.247
228.840	17.290	900.953	680.768
229.855	17.310	900.315	680.305
230.869	17.427	899.547	680.133
231.884	17.189	899.201	678.861
232.899	17.251	897.970	678.118
233.913	17.281	897.308	677.675
234.928	17.208	896.773	676.922
235.942	17.133	896.369	676.260
236.957	17.251	895.431	675.960
237.972	17.083	895.134	675.010
238.986	17.334	894.182	675.228
240.001	17.117	894.104	674.249
241.015	17.322	893.140	674.272
242.030	17.316	892.826	673.954
243.045	17.384	892.344	673.801
244.059	17.447	891.523	673.370
245.074	17.334	891.020	672.484
246.088	17.553	890.347	672.781
247.103	17.630	889.348	672.272
248.117	17.747	889.382	672.697
249.132	18.048	888.621	673.248
250.147	18.220	888.175	673.527
251.161	18.112	887.870	672.811
252.176	18.101	887.387	672.342
253.190	18.245	886.548	672.215
254.205	18.149	885.868	671.263
255.220	18.176	885.452	670.993
256.234	18.043	884.600	669.767
257.249	18.146	884.226	669.827
258.263	18.106	883.284	668.899
259.278	18.172	882.682	668.643
260.293	18.261	882.099	668.488
261.307	18.395	881.383	668.410
262.322	18.200	881.074	667.355
263.336	18.401	880.231	667.439
264.351	18.399	879.199	666.592
265.366	18.401	879.061	666.435
266.380	18.342	878.371	665.626
267.395	18.332	877.723	665.037
268.409	18.327	876.685	664.171
269.424	18.200	875.868	663.001
270.439	18.102	875.524	662.303
271.453	18.080	874.639	661.488
272.468	18.087	874.217	661.140
273.482	18.128	874.091	661.144
274.497	18.004	873.303	660.009
275.512	18.276	872.234	660.192
276.526	18.059	872.189	659.263
277.541	18.145	871.656	659.134
278.555	18.433	871.004	659.693
279.570	18.539	870.504	659.662
280.585	18.530	869.240	658.611
281.599	18.305	868.993	657.502
282.614	18.215	868.221	656.513
283.628	18.148	867.608	655.734
284.643	18.190	866.899	655.303
285.657	18.344	865.969	655.131
286.672	18.345	865.686	654.863
287.687	18.396	865.297	654.704
288.701	18.421	864.397	654.061
289.716	18.299	864.228	653.410
290.730	18.295	863.892	653.084
291.745	18.579	862.970	653.412
292.760	18.546	862.373	652.777
293.774	18.653	861.843	652.723
294.789	18.421	861.210	651.307
295.803	18.363	860.428	650.434
296.818	18.394	859.669	649.921
297.833	18.437	858.691	649.288
298.847	18.538	858.367	649.367
299.862	18.561	857.984	649.107
300.876	18.598	857.360	648.718
301.891	18.643	857.001	648.561
302.906	18.843	856.313	648.735
303.920	19.019	856.028	649.126
304.935	18.988	854.959	648.144
305.949	18.750	854.697	646.989
306.964	18.593	854.235	645.994
307.979	18.665	853.543	645.683
308.993	18.758	853.102	645.639
310.008	18.783	852.478	645.204
311.022	18.835	851.315	644.462
312.037	18.689	851.163	643.745
313.052	18.393	850.960	642.421
314.066	18.521	849.893	642.040
315.081	18.532	849.436	641.679
316.095	18.546	848.266	640.792
317.110	18.513	848.231	640.585
318.125	18.606	847.314	640.183
319.139	18.572	847.167	639.890
320.154	18.615	846.914	639.803
321.168	18.689	846.227	639.502
322.183	18.623	845.734	638.824
323.197	18.727	844.947	638.563
324.212	18.607	844.981	638.084
325.227	18.672	843.920	637.470
326.241	18.505	843.262	636.295
327.256	18.645	842.673	636.312
328.270	18.746	842.358	636.395
329.285	18.682	841.550	635.491
330.300	18.589	841.218	634.840
331.314	18.599	840.820	634.519
332.329	18.868	840.260	635.033
333.343	18.968	839.804	635.003
334.358	18.972	839.468	634.707
335.373	18.937	839.013	634.177
336.387	18.864	838.894	633.763
337.402	18.937	838.681	633.815
338.416	19.069	838.295	633.955
339.431	19.144	838.105	634.028
340.446	19.259	837.257	633.754
341.460	19.331	837.375	634.055
342.475	19.435	836.611	633.802
343.489	19.444	836.145	633.425
344.504	19.495	835.797	633.291
345.519	19.515	835.384	632.997
346.533	19.505	834.555	632.276
347.548	19.192	833.964	630.627
348.562	19.090	833.393	629.767
349.577	19.099	832.842	629.325
350.592	18.991	831.946	628.200
351.606	18.978	831.510	627.769
352.621	19.108	830.991	627.794
353.635	19.067	830.126	626.935
354.650	19.065	829.786	626.615
355.665	19.228	829.049	626.597
356.679	19.270	828.472	626.260
357.694	19.246	827.774	625.588
358.708	19.306	827.329	625.413
359.723	19.313	826.479	624.740
360.738	19.180	826.176	623.974
361.752	19.307	825.675	624.002
362.767	19.508	824.986	624.153
363.781	19.463	824.817	623.806
364.796	19.788	824.390	624.601
365.810	19.727	824.028	624.054
366.825	19.897	823.366	624.111
367.840	19.633	822.878	622.733
368.854	19.644	822.648	622.544
369.869	19.565	822.103	621.792
370.883	19.439	822.006	621.209
371.898	19.621	821.584	621.490
372.913	19.740	821.092	621.492
373.927	19.620	820.389	620.472
374.942	19.580	820.075	620.037
375.956	19.712	819.600	620.096
376.971	19.841	819.203	620.202
377.986	20.016	818.787	620.462
379.000	19.966	818.219	619.796
380.015	20.049	817.376	619.400
381.029	19.924	817.172	618.742
382.044	19.950	816.578	618.331
383.059	20.027	815.910	618.047
384.073	19.905	815.152	616.983
385.088	19.811	814.527	616.121
386.102	19.780	813.747	615.366
387.117	19.642	813.349	614.519
388.132	19.682	812.733	614.141
389.146	19.784	812.462	614.244
390.161	19.843	812.297	614.277
391.175	19.909	811.539	613.881
392.190	19.901	810.749	613.203
393.205	19.857	810.155	612.542
394.219	19.806	809.955	612.158
395.234	19.755	809.410	611.510
396.248	19.699	808.846	610.832
397.263	19.471	808.884	610.000
398.278	19.660	808.095	610.019
399.292	19.543	808.183	609.618
400.307	19.415	807.567	608.647
401.321	19.526	807.391	608.855
402.336	19.609	806.525	608.438
403.350	19.783	806.406	608.907
404.365	19.912	805.881	608.909
405.380	20.162	805.030	609.091
406.394	20.170	804.511	608.675
407.409	20.092	804.388	608.254
408.423	20.253	803.974	608.450
409.438	20.172	803.926	608.076
410.453	20.353	803.456	608.301
411.467	20.395	802.671	607.800
412.482	20.437	802.287	607.602
413.496	20.504	802.275	607.775
414.511	20.443	801.913	607.232
415.526	20.348	801.623	606.630
416.540	20.278	800.994	605.855
417.555	20.427	800.399	605.869
418.569	20.481	799.986	605.692
419.584	20.393	799.369	604.866
420.599	20.390	799.193	604.668
421.613	161.456	1372.545	1797.419
422.628	140.127	1456.051	1797.504
