DTS Sentinel unit serial number:	SN413079Multiplexer serial number:	ORYXHardware model number:	OX4-SRSoftware version number:	ORYX F/W v4.00 Oryx Data Collector v3.7.2.0data status	okinstallation	princeton_trtdifferential loss correction	single-endedforward channel	channel 1reverse channel	N/Adate	2019/09/11time	05:16:11forward acquisition time	60.00reverse acquisition time	0.00gamma	496.2192k internal	0.2331k external	0.2331temperature offset calibration	0.9927default loss term (dB/km)	0.3790temperature slope calibration	1.0000multiplexer offset coefficient	1.0000multiplexer slope coefficient	1.0000fibre end	0.00T internal ref (°C)	29.44T ext. ref 1 (°C)	-0.25T ext. ref 2 (°C)	23.35length (m)	temperature (°C)	Stokes	anti-Stokes-747.200	-23.146	0.210	0.127
-746.185	-46.301	-0.189	0.093
-745.171	-77.349	0.239	0.083
-744.156	87.509	-0.132	0.147
-743.142	184.574	-0.231	-0.345
-742.127	262.739	-0.169	0.295
-741.112	6.473	0.212	0.159
-740.098	-71.468	0.165	-0.062
-739.083	-200.000	0.032	-0.182
-738.069	92.811	-0.285	0.323
-737.054	-12.048	0.063	-0.041
-736.039	-186.752	-0.261	0.004
-735.025	168.784	0.228	0.327
-734.010	-30.607	-0.125	-0.071
-732.996	-106.837	0.195	0.044
-731.981	59.128	0.074	-0.073
-730.966	800.000	-0.074	-0.224
-729.952	31.089	-0.211	-0.182
-728.937	4.566	-0.221	-0.163
-727.923	120.366	-0.059	-0.074
-726.908	-123.620	0.251	0.040
-725.894	183.862	-0.164	0.244
-724.879	82.504	-0.269	0.294
-723.864	-200.000	0.030	0.138
-722.850	-121.682	-0.084	-0.014
-721.835	78.571	0.048	-0.051
-720.821	-200.000	-0.007	-0.240
-719.806	24.661	-0.249	-0.207
-718.791	-14.061	0.173	0.112
-717.777	154.639	0.227	-0.314
-716.762	800.000	-0.030	-0.090
-715.748	-200.000	0.057	-0.282
-714.733	126.962	0.112	-0.143
-713.718	800.000	0.066	-0.287
-712.704	-103.945	-0.059	-0.014
-711.689	-200.000	-0.032	-0.267
-710.675	-28.663	-0.034	-0.020
-709.660	508.855	-0.150	0.351
-708.645	252.988	-0.098	-0.168
-707.631	-27.000	-0.051	0.030
-706.616	-147.595	-0.200	-0.017
-705.602	98.248	-0.266	0.308
-704.587	-69.215	0.244	-0.094
-703.572	-116.143	-0.124	0.023
-702.558	145.436	0.094	-0.127
-701.543	-200.000	0.020	-0.095
-700.529	-140.103	-0.274	0.029
-699.514	289.004	0.185	-0.337
-698.499	-94.702	-0.329	-0.090
-697.485	-121.649	-0.102	-0.017
-696.470	-23.238	0.397	-0.240
-695.456	180.714	-0.185	-0.272
-694.441	21.378	-0.098	0.080
-693.426	46.476	-0.148	0.138
-692.412	58.312	0.196	0.193
-691.397	14.256	0.218	-0.171
-690.383	800.000	0.051	0.144
-689.368	-79.003	-0.191	0.065
-688.354	45.025	-0.196	0.181
-687.339	-200.000	-0.017	-0.091
-686.324	-143.426	0.132	0.013
-685.310	-5.864	-0.119	-0.082
-684.295	97.994	-0.155	0.179
-683.281	-137.283	-0.149	0.017
-682.266	-200.000	-0.063	0.304
-681.251	-200.000	-0.034	0.493
-680.237	84.392	0.100	-0.109
-679.222	729.670	0.114	0.306
-678.208	800.000	-0.050	0.211
-677.193	-91.534	-0.308	-0.088
-676.178	-143.124	-0.437	-0.042
-675.164	419.040	-0.074	-0.159
-674.149	-23.423	0.248	0.149
-673.135	-73.022	-0.115	-0.042
-672.120	-99.069	-0.321	-0.081
-671.105	-153.487	0.103	-0.007
-670.091	252.199	0.110	-0.188
-669.076	-11.007	-0.239	0.158
-668.062	-200.000	0.073	0.344
-667.047	-141.816	0.064	-0.006
-666.032	800.000	0.043	-0.142
-665.018	624.155	-0.128	0.322
-664.003	-1.602	-0.296	0.210
-662.989	800.000	0.043	0.120
-661.974	15.593	-0.315	0.249
-660.959	-200.000	0.033	0.458
-659.945	65.503	-0.031	0.032
-658.930	-200.000	-0.005	-0.295
-657.916	-87.546	0.136	0.041
-656.901	-19.973	0.220	-0.136
-655.886	24.666	0.031	0.026
-654.872	-40.765	-0.251	0.131
-653.857	8.417	-0.217	-0.164
-652.843	405.019	-0.008	-0.018
-651.828	-100.190	-0.267	-0.066
-650.814	214.293	-0.198	-0.315
-649.799	-110.478	0.123	-0.026
-648.784	356.439	0.067	-0.134
-647.770	-200.000	0.034	-0.229
-646.755	24.912	-0.258	-0.215
-645.741	-200.000	-0.016	-0.368
-644.726	-80.573	0.204	0.068
-643.711	-200.000	0.026	-0.173
-642.697	543.156	-0.032	-0.076
-641.682	17.086	-0.236	0.188
-640.668	-114.266	-0.114	0.022
-639.653	-200.000	-0.035	0.243
-638.638	800.000	-0.075	-0.294
-637.624	800.000	0.091	-0.388
-636.609	160.281	0.215	0.300
-635.595	318.743	-0.139	0.264
-634.580	50.767	0.076	0.072
-633.565	-150.865	-0.345	0.026
-632.551	237.746	-0.023	-0.038
-631.536	-200.000	0.011	0.143
-630.522	117.777	-0.198	0.245
-629.507	206.401	0.205	-0.320
-628.492	98.248	0.177	-0.205
-627.478	493.786	-0.173	0.397
-626.463	-200.000	0.057	-0.320
-625.449	38.045	0.207	-0.185
-624.434	59.967	0.128	-0.127
-623.419	293.782	0.094	-0.172
-622.405	-68.740	0.381	-0.147
-621.390	7.293	-0.038	0.029
-620.376	-37.697	0.026	0.014
-619.361	-136.064	0.080	0.009
-618.346	-1.185	-0.273	0.193
-617.332	29.550	-0.296	-0.253
-616.317	-200.000	-0.039	-0.350
-615.303	114.015	-0.201	-0.245
-614.288	153.391	-0.065	0.089
-613.273	-43.181	-0.427	-0.217
-612.259	-200.000	-0.008	0.081
-611.244	-200.000	-0.006	0.125
-610.230	-200.000	0.013	-0.239
-609.215	110.237	0.142	0.171
-608.201	80.346	0.176	0.189
-607.186	-95.332	-0.210	0.056
-606.171	277.198	0.052	0.093
-605.157	-82.587	-0.164	0.053
-604.142	-156.124	-0.167	0.011
-603.128	293.096	-0.077	-0.140
-602.113	169.406	0.079	-0.112
-601.098	-154.353	-0.192	-0.013
-600.084	800.000	-0.063	-0.228
-599.069	487.177	-0.072	-0.165
-598.055	800.000	0.056	0.160
-597.040	370.937	0.061	0.123
-596.025	-200.000	0.038	-0.378
-595.011	109.263	0.056	-0.067
-593.996	-129.970	0.323	-0.044
-592.982	-33.188	0.365	0.202
-591.967	632.556	-0.031	0.078
-590.952	-200.000	0.001	0.079
-589.938	-200.000	-0.050	-0.318
-588.923	123.671	0.237	-0.297
-587.909	-38.388	-0.128	0.068
-586.894	-180.634	-0.230	-0.005
-585.879	-4.033	-0.228	0.158
-584.865	800.000	0.079	-0.334
-583.850	475.860	0.090	-0.203
-582.836	-57.879	0.106	0.046
-581.821	566.983	-0.053	0.128
-580.806	-33.936	-0.279	-0.154
-579.792	191.067	-0.110	-0.165
-578.777	4.789	-0.114	-0.084
-577.763	-1.435	-0.222	-0.156
-576.748	-62.711	-0.404	0.167
-575.733	-51.398	-0.074	-0.035
-574.719	100.728	-0.092	-0.107
-573.704	339.485	0.105	-0.204
-572.690	-28.154	-0.233	-0.135
-571.675	-88.230	0.064	-0.019
-570.661	164.774	-0.091	-0.129
-569.646	-200.000	-0.036	0.167
-568.631	-22.320	-0.258	-0.156
-567.617	-200.000	0.060	0.278
-566.602	-120.034	-0.091	-0.016
-565.588	-85.254	-0.074	-0.023
-564.573	-40.284	0.221	0.115
-563.558	-84.239	-0.093	-0.030
-562.544	-200.000	-0.029	0.195
-561.529	-56.249	-0.078	-0.035
-560.515	-18.272	-0.153	0.096
-559.500	-156.895	-0.373	-0.023
-558.485	-61.386	-0.166	0.070
-557.471	64.464	0.110	-0.111
-556.456	-200.000	0.083	0.474
-555.442	301.902	0.200	0.370
-554.427	-107.154	0.067	0.015
-553.412	-131.521	-0.336	0.044
-552.398	800.000	-0.075	-0.266
-551.383	-84.027	0.310	0.098
-550.369	146.986	0.134	-0.181
-549.354	-98.833	0.189	0.048
-548.339	63.409	-0.106	0.106
-547.325	464.172	-0.058	0.130
-546.310	-200.000	0.028	-0.177
-545.296	148.584	-0.164	0.221
-544.281	178.764	0.138	-0.201
-543.266	-50.698	-0.193	-0.091
-542.252	121.061	-0.099	0.123
-541.237	-200.000	0.028	-0.325
-540.223	434.085	-0.108	-0.235
-539.208	800.000	0.075	0.241
-538.193	-51.349	-0.243	-0.114
-537.179	-68.782	0.142	-0.055
-536.164	-97.664	0.384	-0.099
-535.150	-200.000	0.015	0.220
-534.135	-70.613	0.367	0.139
-533.121	-111.108	-0.322	-0.066
-532.106	-200.000	0.052	0.317
-531.091	145.539	-0.168	-0.224
-530.077	179.976	-0.156	0.229
-529.062	-98.267	-0.264	0.068
-528.048	15.981	0.328	-0.257
-527.033	-111.759	0.256	-0.052
-526.018	-200.000	0.000	-0.197
-525.004	-52.308	-0.150	0.069
-523.989	-43.380	-0.176	0.089
-522.975	800.000	0.059	-0.255
-521.960	475.766	0.159	0.359
-520.945	23.578	-0.122	-0.100
-519.931	-92.960	0.350	-0.097
-518.916	-68.338	-0.168	0.065
-517.902	-100.005	-0.174	-0.043
-516.887	-170.663	-0.456	0.016
-515.872	141.455	-0.058	-0.076
-514.858	-144.033	0.294	-0.027
-513.843	-200.000	0.006	0.119
-512.829	-200.000	0.010	0.075
-511.814	-57.849	-0.100	0.044
-510.799	92.912	-0.123	0.139
-509.785	150.042	-0.097	0.131
-508.770	-60.540	0.270	0.114
-507.756	-200.000	-0.020	-0.193
-506.741	-47.609	0.183	0.089
-505.726	-50.343	-0.155	-0.073
-504.712	245.113	-0.155	0.260
-503.697	-200.000	-0.001	0.163
-502.683	7.987	0.180	-0.134
-501.668	-158.409	-0.064	-0.004
-500.653	-29.661	-0.024	-0.014
-499.639	-200.000	0.071	0.366
-498.624	-200.000	0.009	-0.054
-497.610	-83.693	0.376	0.120
-496.595	307.192	-0.112	-0.208
-495.581	-133.928	0.097	0.012
-494.566	-47.096	-0.195	0.095
-493.551	-200.000	-0.005	-0.163
-492.537	-200.000	0.009	0.045
-491.522	-110.991	0.278	-0.057
-490.508	800.000	-0.048	-0.182
-489.493	-167.342	-0.289	0.012
-488.478	63.585	0.009	-0.009
-487.464	-200.000	0.044	0.205
-486.449	800.000	0.058	0.213
-485.435	680.298	-0.062	-0.160
-484.420	476.341	0.063	-0.141
-483.405	69.736	-0.234	0.241
-482.391	-82.037	-0.125	0.041
-481.376	-131.210	-0.135	0.018
-480.362	-200.000	-0.009	-0.162
-479.347	15.726	0.178	-0.139
-478.332	-75.888	0.093	-0.033
-477.318	-200.000	0.033	0.196
-476.303	168.777	0.058	-0.083
-475.289	-200.000	-0.040	-0.196
-474.274	-109.858	-0.321	-0.067
-473.259	-112.403	-0.159	-0.032
-472.245	800.000	-0.055	0.192
-471.230	-71.873	-0.085	0.032
-470.216	289.656	0.025	-0.046
-469.201	-79.480	0.225	-0.076
-468.186	497.231	-0.158	-0.362
-467.172	-149.296	0.247	-0.020
-466.157	-76.506	-0.150	0.052
-465.143	-200.000	-0.046	-0.233
-464.128	-84.774	-0.220	0.069
-463.113	12.848	0.215	-0.166
-462.099	-159.556	-0.245	-0.014
-461.084	-72.031	0.205	-0.076
-460.070	128.454	0.181	-0.230
-459.055	110.056	0.065	0.078
-458.040	287.193	-0.104	0.187
-457.026	385.905	-0.087	0.178
-456.011	377.961	-0.056	0.114
-454.997	-107.608	0.152	-0.033
-453.982	-200.000	-0.050	-0.375
-452.968	-36.270	0.220	-0.118
-451.953	-200.000	-0.004	-0.181
-450.938	-136.689	-0.076	0.009
-449.924	-110.274	-0.401	0.083
-448.909	-178.012	-0.150	-0.004
-447.895	800.000	0.047	0.161
-446.880	-200.000	0.026	0.159
-445.865	800.000	0.022	0.062
-444.851	-48.020	-0.261	-0.126
-443.836	800.000	-0.059	-0.199
-442.822	0.016	0.206	0.146
-441.807	-82.446	0.349	-0.113
-440.792	-62.295	0.211	-0.088
-439.778	-200.000	0.039	0.247
-438.763	415.033	-0.094	0.200
-437.749	-200.000	-0.022	0.307
-436.734	-200.000	-0.047	-0.236
-435.719	361.257	-0.159	-0.316
-434.705	-79.231	-0.162	0.055
-433.690	508.298	-0.045	0.105
-432.676	28.911	-0.174	-0.146
-431.661	206.512	0.058	0.089
-430.646	312.079	-0.093	-0.173
-429.632	45.918	0.159	0.147
-428.617	800.000	-0.044	0.143
-427.603	145.427	0.172	-0.229
-426.588	-70.333	-0.090	-0.034
-425.573	-128.189	-0.172	0.024
-424.559	-160.606	0.303	0.016
-423.544	140.645	0.127	-0.167
-422.530	-200.000	0.012	0.152
-421.515	800.000	-0.077	-0.263
-420.500	418.682	0.014	0.030
-419.486	-6.934	0.212	-0.143
-418.471	800.000	-0.034	-0.100
-417.457	579.579	-0.048	-0.116
-416.442	800.000	-0.097	0.280
-415.428	-14.697	-0.116	-0.074
-414.413	-81.023	-0.297	-0.098
-413.398	-168.910	0.310	0.012
-412.384	138.103	0.184	-0.240
-411.369	-72.151	-0.351	-0.129
-410.355	235.631	0.154	-0.252
-409.340	-200.000	0.022	-0.157
-408.325	-37.349	-0.098	0.052
-407.311	16.048	0.107	0.084
-406.296	-200.000	0.004	-0.023
-405.282	78.859	-0.135	0.143
-404.267	148.206	0.057	0.077
-403.252	-85.090	-0.277	0.086
-402.238	37.961	-0.053	-0.047
-401.223	19.311	-0.163	-0.130
-400.209	-28.234	-0.213	-0.122
-399.194	310.945	-0.029	-0.055
-398.179	215.724	0.032	0.050
-397.165	12.187	-0.338	0.258
-396.150	800.000	-0.095	0.385
-395.136	-127.757	-0.049	-0.007
-394.121	690.853	-0.065	0.170
-393.106	5.604	0.098	0.072
-392.092	-39.854	-0.076	-0.039
-391.077	-117.349	0.173	0.031
-390.063	-78.074	-0.181	-0.062
-389.048	8.653	0.362	0.270
-388.033	192.607	-0.147	-0.221
-387.019	480.586	0.071	0.159
-386.004	-79.926	-0.257	0.086
-384.990	-163.096	0.086	0.004
-383.975	-159.489	-0.191	0.011
-382.960	800.000	-0.048	0.158
-381.946	-200.000	0.001	0.014
-380.931	-27.918	-0.222	0.128
-379.917	-59.963	0.302	-0.128
-378.902	182.281	-0.157	0.230
-377.888	-96.168	-0.246	-0.065
-376.873	377.756	-0.044	-0.090
-375.858	800.000	-0.095	0.313
-374.844	-200.000	-0.005	-0.079
-373.829	2.970	-0.053	0.038
-372.815	-64.672	0.212	-0.085
-371.800	-4.839	0.120	-0.082
-370.785	-125.308	-0.148	0.022
-369.771	711.030	-0.048	-0.125
-368.756	118.454	0.211	0.259
-367.742	-71.512	0.106	-0.039
-366.727	-38.392	0.192	-0.101
-365.712	-77.442	0.083	0.029
-364.698	-11.598	0.071	0.046
-363.683	-94.427	-0.121	0.033
-362.669	228.563	0.076	0.123
-361.654	-136.323	0.460	-0.053
-360.639	771.745	0.143	-0.386
-359.625	800.000	0.018	-0.063
-358.610	-94.547	0.308	-0.083
-357.596	800.000	0.085	-0.362
-356.581	-123.379	0.157	-0.025
-355.566	800.000	0.092	-0.285
-354.552	-155.150	-0.378	-0.025
-353.537	-131.868	0.375	-0.049
-352.523	-30.871	0.182	0.102
-351.508	800.000	-0.046	-0.142
-350.493	445.503	-0.057	0.124
-349.479	-98.889	0.111	-0.028
-348.464	-27.304	-0.157	0.091
-347.450	-200.000	-0.045	-0.297
-346.435	142.101	-0.003	-0.004
-345.420	120.504	0.114	-0.141
-344.406	117.778	-0.056	-0.068
-343.391	-200.000	-0.030	0.304
-342.377	800.000	0.131	0.409
-341.362	170.068	-0.140	0.198
-340.348	-63.243	-0.123	-0.050
-339.333	348.131	-0.109	0.213
-338.318	-24.703	-0.329	-0.194
-337.304	800.000	0.113	0.461
-336.289	106.176	0.078	0.091
-335.275	-200.000	0.036	-0.362
-334.260	126.571	-0.259	-0.325
-333.245	-200.000	-0.019	0.248
-332.231	-96.085	-0.148	0.039
-331.216	-200.000	-0.005	-0.331
-330.202	800.000	-0.079	-0.259
-329.187	800.000	-0.049	-0.158
-328.172	120.830	0.161	-0.198
-327.158	229.666	-0.058	-0.093
-326.143	-128.763	-0.018	0.003
-325.129	800.000	0.052	-0.189
-324.114	229.986	-0.176	0.285
-323.099	-114.040	-0.078	-0.015
-322.085	800.000	0.029	-0.089
-321.070	-121.428	-0.220	0.036
-320.056	604.254	0.034	0.085
-319.041	99.962	0.281	0.322
-318.026	-127.780	-0.264	0.038
-317.012	-200.000	-0.070	-0.455
-315.997	800.000	-0.023	-0.064
-314.983	-100.679	-0.022	-0.005
-313.968	-2.522	0.063	0.043
-312.953	-73.522	-0.244	0.088
-311.939	144.121	-0.075	-0.099
-310.924	374.566	0.077	0.155
-309.910	-51.006	-0.186	0.086
-308.895	-200.000	0.042	0.300
-307.880	-142.250	-0.402	-0.039
-306.866	-52.949	-0.268	0.122
-305.851	-172.035	0.069	0.002
-304.837	413.331	0.108	-0.227
-303.822	651.857	-0.061	-0.156
-302.807	259.861	0.052	0.089
-301.793	-61.540	0.289	0.120
-300.778	234.192	-0.108	-0.176
-299.764	113.373	0.242	-0.290
-298.749	123.115	-0.019	0.024
-297.735	-200.000	0.039	-0.300
-296.720	393.132	0.097	-0.200
-295.705	420.178	-0.049	0.104
-294.691	111.681	-0.139	-0.166
-293.676	-200.000	0.062	0.319
-292.662	316.470	-0.084	0.156
-291.647	-200.000	-0.005	-0.186
-290.632	-200.000	-0.013	0.116
-289.618	617.480	0.078	-0.193
-288.603	26.419	-0.200	0.165
-287.589	55.195	0.205	0.196
-286.574	-200.000	0.064	0.404
-285.559	115.275	-0.062	0.074
-284.545	138.880	0.093	0.121
-283.530	161.722	0.040	-0.056
-282.516	-43.280	0.446	-0.223
-281.501	665.940	0.106	0.272
-280.486	549.671	-0.077	0.183
-279.472	-84.997	-0.266	-0.083
-278.457	-12.956	0.106	-0.068
-277.443	575.841	-0.074	0.179
-276.428	89.821	-0.181	0.200
-275.413	38.197	0.358	-0.314
-274.399	-200.000	0.021	-0.114
-273.384	-200.000	0.095	0.420
-272.370	-21.675	-0.229	-0.138
-271.355	-53.391	-0.279	0.126
-270.340	800.000	0.036	-0.127
-269.326	-200.000	-0.002	-0.065
-268.311	-190.053	0.257	0.003
-267.297	-64.917	0.377	0.151
-266.282	205.589	-0.132	0.203
-265.267	-116.595	0.456	0.083
-264.253	248.657	-0.111	-0.185
-263.238	288.521	0.017	-0.030
-262.224	22.547	-0.192	-0.155
-261.209	198.437	0.160	0.241
-260.195	-169.385	0.058	0.002
-259.180	282.231	0.055	-0.098
-258.165	800.000	-0.043	0.146
-257.151	-159.552	0.157	-0.009
-256.136	109.041	0.164	0.194
-255.122	31.629	-0.081	0.069
-254.107	89.379	0.125	0.138
-253.092	-200.000	-0.019	-0.104
-252.078	-200.000	-0.023	0.340
-251.063	208.971	0.092	0.143
-250.049	-126.717	0.142	0.021
-249.034	-122.284	-0.280	-0.045
-248.019	-23.012	0.161	0.095
-247.005	128.827	0.161	0.203
-245.990	0.191	-0.189	0.133
-244.976	45.912	0.359	0.328
-243.961	72.588	0.145	-0.149
-242.946	-69.235	-0.295	-0.112
-241.932	405.806	-0.035	-0.072
-240.917	-200.000	-0.052	0.322
-239.903	0.479	0.182	0.128
-238.888	39.426	-0.199	-0.176
-237.873	-116.931	-0.313	0.056
-236.859	800.000	-0.114	0.398
-235.844	-55.245	-0.341	-0.151
-234.830	800.000	0.041	-0.140
-233.815	100.995	-0.192	-0.221
-232.800	362.436	0.245	-0.486
-231.786	-64.282	0.087	-0.035
-230.771	-124.941	-0.274	-0.042
-229.757	5.316	-0.150	-0.109
-228.742	-105.721	0.198	0.044
-227.727	-112.812	0.212	-0.042
-226.713	215.265	0.068	0.107
-225.698	-150.179	0.379	0.029
-224.684	76.155	0.241	-0.251
-223.669	9.713	0.093	-0.070
-222.655	31.490	-0.034	-0.029
-221.640	800.000	-0.065	0.260
-220.625	97.477	0.113	-0.128
-219.611	-83.494	0.133	-0.042
-218.596	44.936	-0.259	-0.235
-217.582	800.000	-0.051	-0.181
-216.567	-42.901	-0.234	0.117
-215.552	23.188	-0.143	-0.116
-214.538	-44.523	-0.065	0.032
-213.523	-80.310	0.072	-0.024
-212.509	-121.033	0.181	0.030
-211.494	71.970	0.092	-0.094
-210.479	-115.903	0.315	-0.058
-209.465	-76.473	0.339	-0.117
-208.450	165.596	-0.237	-0.331
-207.436	-200.000	0.015	0.111
-206.421	160.068	-0.081	-0.112
-205.406	800.000	-0.070	-0.222
-204.392	-73.829	0.211	0.075
-203.377	99.920	0.055	-0.063
-202.363	-132.850	-0.286	0.036
-201.348	136.478	0.128	-0.165
-200.333	255.268	-0.077	0.131
-199.319	-198.861	-0.215	-0.001
-198.304	488.654	0.046	0.104
-197.290	19.644	0.400	0.317
-196.275	-88.081	-0.160	0.047
-195.260	-129.882	0.086	0.012
-194.246	-88.335	0.323	0.095
-193.231	-164.926	0.142	0.006
-192.217	-200.000	0.068	0.400
-191.202	800.000	0.072	0.311
-190.187	-122.936	0.241	-0.038
-189.173	-200.000	0.119	-0.563
-188.158	-151.080	0.189	-0.014
-187.144	800.000	-0.101	0.385
-186.129	75.319	-0.088	0.092
-185.114	14.180	0.178	0.136
-184.100	-200.000	0.036	0.183
-183.085	-200.000	-0.040	0.237
-182.071	683.074	-0.135	0.346
-181.056	800.000	0.042	0.171
-180.042	362.723	-0.151	0.299
-179.027	-87.333	0.165	0.049
-178.012	-38.482	0.158	0.082
-176.998	282.289	0.137	0.241
-175.983	74.485	0.200	0.207
-174.969	-200.000	0.021	-0.145
-173.954	-200.000	0.013	-0.112
-172.939	-114.518	0.299	-0.056
-171.925	696.190	-0.047	-0.122
-170.910	-59.780	0.207	-0.087
-169.896	-97.184	0.182	-0.047
-168.881	-41.858	-0.236	0.119
-167.866	164.122	0.164	-0.228
-166.852	283.852	-0.138	-0.244
-165.837	-200.000	0.026	-0.114
-164.823	256.433	0.075	0.127
-163.808	366.278	0.031	0.062
-162.793	800.000	-0.082	0.251
-161.779	-200.000	-0.038	0.345
-160.764	-200.000	0.026	0.283
-159.750	-29.656	0.197	0.111
-158.735	262.942	0.141	0.241
-157.720	-200.000	-0.018	-0.319
-156.706	800.000	0.117	0.325
-155.691	13.112	0.207	-0.157
-154.677	33.517	-0.234	0.200
-153.662	-117.933	0.260	0.046
-152.647	-64.038	0.251	0.101
-151.633	-20.483	0.196	0.119
-150.618	237.064	-0.062	0.101
-149.604	-200.000	-0.128	0.633
-148.589	-6.411	0.279	-0.187
-147.574	505.954	0.110	0.250
-146.560	-200.000	0.017	0.076
-145.545	82.914	-0.120	0.129
-144.531	-98.740	0.142	0.036
-143.516	92.902	-0.129	-0.144
-142.502	43.974	-0.105	-0.094
-141.487	401.865	-0.083	0.170
-140.472	800.000	0.058	0.171
-139.458	-200.000	-0.020	-0.171
-138.443	-1.724	-0.052	0.036
-137.429	133.667	-0.172	0.218
-136.414	585.045	0.158	0.382
-135.399	-36.573	-0.336	-0.177
-134.385	6.209	0.275	-0.200
-133.370	800.000	0.037	0.110
-132.356	-90.244	-0.381	-0.109
-131.341	-138.288	-0.315	0.034
-130.326	-200.000	-0.053	-0.250
-129.312	800.000	-0.053	-0.174
-128.297	526.262	-0.012	-0.027
-127.283	-200.000	-0.028	0.352
-126.268	451.920	-0.162	0.351
-125.253	-10.952	0.207	0.134
-124.239	258.378	0.041	0.069
-123.224	-88.415	-0.376	0.110
-122.210	302.712	0.088	0.160
-121.195	187.414	-0.218	0.319
-120.180	212.687	-0.076	0.117
-119.166	-200.000	-0.002	0.057
-118.151	152.722	0.224	-0.301
-117.137	-104.978	0.575	-0.129
-116.122	800.000	-0.096	-0.267
-115.107	170.212	0.265	-0.372
-114.093	-14.821	-0.166	-0.105
-113.078	800.000	-0.061	0.213
-112.064	-170.398	0.204	0.007
-111.049	-46.864	-0.406	0.195
-110.034	-200.000	0.050	-0.230
-109.020	-200.000	-0.028	-0.131
-108.005	185.790	0.080	0.116
-106.991	80.686	-0.135	0.143
-105.976	84.512	0.158	0.170
-104.962	-107.611	0.074	-0.016
-103.947	230.719	-0.172	0.277
-102.932	785.319	0.143	-0.386
-101.918	-19.795	-0.219	-0.133
-100.903	-171.380	0.131	0.004
-99.889	152.174	0.167	-0.224
-98.874	-83.156	0.150	0.047
-97.859	-77.627	0.132	0.045
-96.845	1.660	-0.107	-0.076
-95.830	123.012	0.147	0.181
-94.816	-34.231	0.161	-0.087
-93.801	-102.390	-0.166	-0.039
-92.786	257.510	-0.174	-0.293
-91.772	-200.000	0.346	-0.000
-90.757	-161.887	-0.164	0.008
-89.743	-83.022	-0.179	-0.057
-88.728	321.234	-0.137	0.256
-87.713	-200.000	0.001	0.123
-86.699	202.798	0.083	-0.126
-85.684	-123.700	-0.295	0.046
-84.670	-188.663	-0.097	0.001
-83.655	-200.000	-0.009	0.144
-82.640	-200.000	-0.030	0.287
-81.626	-150.945	-0.145	0.011
-80.611	159.204	0.137	-0.187
-79.597	753.501	0.027	-0.072
-78.582	68.226	-0.106	0.106
-77.567	32.507	-0.042	0.035
-76.553	-4.261	0.068	0.046
-75.538	-51.399	0.028	0.013
-74.524	-158.838	-0.114	-0.006
-73.509	152.129	0.156	0.209
-72.494	-19.005	-0.164	-0.100
-71.480	442.953	-0.192	0.412
-70.465	-151.318	0.260	-0.019
-69.451	-90.317	0.330	0.094
-68.436	-27.068	-0.261	0.149
-67.422	-27.616	0.078	-0.044
-66.407	-140.437	-0.196	0.020
-65.392	4.767	-0.142	-0.102
-64.378	-200.000	-0.053	-0.324
-63.363	-100.982	-0.365	-0.088
-62.349	94.828	0.063	-0.071
-61.334	71.023	-1.115	-1.133
-60.319	127.949	0.433	0.539
-59.305	254.365	-0.404	-0.676
-58.290	172.938	0.777	1.096
-57.276	194.086	0.886	1.315
-56.261	-200.000	106.229	615.714
-55.246	509.087	1509.429	3435.718
-54.232	176.221	2702.097	3844.291
-53.217	112.093	2164.892	2562.738
-52.203	41.578	1599.359	1418.611
-51.188	32.950	1334.123	1131.867
-50.173	29.827	1293.307	1079.012
-49.159	54.465	1347.353	1271.398
-48.144	54.780	1362.432	1287.447
-47.130	33.028	1317.233	1117.823
-46.115	29.655	1299.205	1082.754
-45.100	29.327	1295.000	1077.290
-44.086	29.310	1292.180	1074.801
-43.071	29.303	1289.866	1072.797
-42.057	29.303	1287.368	1070.673
-41.042	29.251	1286.324	1069.461
-40.027	29.323	1284.538	1068.350
-39.013	29.322	1282.783	1066.843
-37.998	29.334	1280.952	1065.350
-36.984	29.435	1278.783	1064.084
-35.969	29.438	1277.013	1062.586
-34.954	29.443	1275.590	1061.392
-33.940	29.464	1274.468	1060.535
-32.925	29.518	1272.973	1059.560
-31.911	29.515	1271.154	1057.985
-30.896	29.557	1269.873	1057.116
-29.881	29.602	1268.865	1056.494
-28.867	29.589	1267.273	1055.053
-27.852	29.642	1265.150	1053.544
-26.838	29.515	1264.265	1052.043
-25.823	29.496	1263.340	1051.121
-24.809	29.440	1262.262	1049.867
-23.794	29.612	1260.463	1049.302
-22.779	29.499	1259.236	1047.602
-21.765	29.467	1257.577	1045.994
-20.750	29.430	1256.795	1045.094
-19.736	29.520	1254.828	1043.929
-18.721	29.382	1254.203	1042.586
-17.706	29.306	1253.002	1041.117
-16.692	29.372	1251.855	1040.494
-15.677	29.375	1250.904	1039.678
-14.663	29.417	1249.823	1038.976
-13.648	29.405	1248.528	1037.790
-12.633	29.453	1247.467	1037.136
-11.619	29.412	1246.925	1036.417
-10.604	29.323	1246.244	1035.310
-9.590	29.318	1245.032	1034.231
-8.575	29.363	1244.056	1033.632
-7.560	29.339	1243.264	1032.797
-6.546	29.392	1242.435	1032.367
-5.531	29.399	1241.293	1031.418
-4.517	29.471	1240.489	1031.111
-3.502	29.439	1239.946	1030.437
-2.487	29.345	1239.154	1029.216
-1.473	29.433	1234.497	1025.795
-0.458	28.030	1219.826	1005.849
0.556	22.202	1203.339	969.060
1.571	18.615	1208.899	953.551
2.586	17.967	1223.177	961.082
3.600	17.950	1212.565	952.564
4.615	13.533	1141.938	873.747
5.629	4.643	1067.976	773.053
6.644	0.084	1048.280	736.452
7.659	-0.282	1045.139	732.393
8.673	-0.305	1043.831	731.301
9.688	-0.516	1042.887	729.546
10.702	0.177	1040.748	731.354
11.717	6.072	1050.011	766.623
12.731	15.066	1062.578	819.965
13.746	19.548	1068.009	846.100
14.761	20.721	1069.019	852.576
15.775	20.667	1068.701	851.981
16.790	20.535	1067.896	850.616
17.804	20.632	1066.799	850.141
18.819	20.501	1067.010	849.595
19.834	20.718	1066.384	850.082
20.848	20.735	1065.901	849.703
21.863	20.805	1064.781	849.079
22.877	20.702	1064.655	848.399
23.892	20.629	1064.054	847.489
24.907	20.711	1063.157	847.099
25.921	20.674	1062.072	845.983
26.936	20.708	1060.850	845.096
27.950	20.606	1059.146	843.170
28.965	20.345	1057.482	840.508
29.980	20.537	1055.544	839.821
30.994	20.723	1055.098	840.292
32.009	20.642	1053.409	838.480
33.023	20.489	1052.314	836.797
34.038	20.498	1051.643	836.232
35.053	20.699	1050.749	836.413
36.067	20.678	1049.946	835.599
37.082	20.806	1048.955	835.353
38.096	21.021	1048.092	835.622
39.111	20.993	1047.811	835.192
40.126	20.818	1046.178	832.975
41.140	20.586	1044.623	830.558
42.155	20.298	1043.120	827.914
43.169	20.336	1042.142	827.247
44.184	20.372	1040.967	826.412
45.199	20.383	1040.491	826.015
46.213	20.437	1039.056	825.057
47.228	20.478	1038.553	824.780
48.242	20.562	1037.751	824.467
49.257	20.599	1037.031	823.996
50.271	20.767	1036.098	823.981
51.286	20.795	1035.053	823.209
52.301	20.773	1034.158	822.320
53.315	20.648	1033.276	820.954
54.330	20.592	1032.308	819.847
55.344	20.651	1031.255	819.219
56.359	20.588	1030.392	818.165
57.374	20.468	1029.524	816.837
58.388	20.583	1028.750	816.692
59.403	20.464	1027.711	815.235
60.417	20.414	1026.638	814.077
61.432	20.467	1026.355	814.030
62.447	20.417	1025.656	813.171
63.461	20.571	1024.749	813.100
64.476	20.412	1023.748	811.490
65.490	20.431	1023.037	810.946
66.505	20.513	1021.988	810.423
67.520	20.504	1021.632	810.026
68.534	20.277	1020.392	807.917
69.549	20.107	1018.815	805.803
70.563	19.921	1018.598	804.698
71.578	20.188	1017.378	804.904
72.593	19.868	1016.832	802.914
73.607	20.073	1016.068	803.192
74.622	20.375	1015.833	804.332
75.636	20.426	1014.710	803.609
76.651	20.182	1014.118	801.942
77.666	19.967	1013.637	800.497
78.680	20.293	1012.511	801.038
79.695	20.210	1012.348	800.456
80.709	20.277	1011.601	800.104
81.724	20.293	1010.780	799.459
82.739	20.327	1010.091	798.999
83.753	20.739	1009.356	800.242
84.768	21.003	1008.752	800.905
85.782	20.964	1007.787	799.890
86.797	20.870	1006.250	798.166
87.812	20.783	1005.360	796.991
88.826	20.905	1004.500	796.799
89.841	20.963	1003.961	796.564
90.855	20.921	1002.722	795.318
91.870	20.970	1001.464	794.476
92.884	20.855	1000.463	793.086
93.899	20.702	999.486	791.546
94.914	20.836	998.706	791.466
95.928	20.758	997.775	790.308
96.943	20.456	996.691	788.010
97.957	20.293	995.304	786.104
98.972	20.224	993.912	784.620
99.987	20.443	993.463	785.188
101.001	20.577	992.889	785.271
102.016	20.539	992.115	784.418
103.030	20.443	991.006	783.037
104.045	20.410	990.041	782.057
105.060	20.364	989.119	781.053
106.074	20.478	988.069	780.666
107.089	20.867	987.891	782.204
108.103	20.667	986.571	780.194
109.118	20.425	985.239	777.990
110.133	20.506	984.684	777.841
111.147	20.306	983.523	775.962
112.162	20.227	982.453	774.696
113.176	20.414	981.901	775.028
114.191	20.241	981.011	773.486
115.206	20.061	979.795	771.656
116.220	20.076	978.985	771.018
117.235	20.185	977.955	770.621
118.249	20.187	977.310	770.054
119.264	20.123	976.296	768.904
120.279	20.114	975.687	768.318
121.293	20.059	974.995	767.459
122.308	20.249	973.780	767.278
123.322	20.094	972.960	765.879
124.337	20.010	971.318	764.147
125.352	19.483	969.639	760.435
126.366	19.541	968.868	760.021
127.381	20.279	968.979	763.285
128.395	20.631	967.846	763.874
129.410	20.759	967.187	763.846
130.424	20.684	966.249	762.712
131.439	20.746	965.037	761.956
132.454	20.611	964.462	760.845
133.468	20.468	963.535	759.422
134.483	20.720	962.591	759.710
135.497	20.931	961.819	759.956
136.512	20.902	961.001	759.115
137.527	20.818	960.487	758.275
138.541	20.908	959.349	757.704
139.556	20.854	958.521	756.747
140.570	20.931	957.947	756.562
141.585	20.920	956.579	755.367
142.600	20.839	955.498	754.094
143.614	21.124	954.920	754.805
144.629	21.076	954.099	753.882
145.643	20.855	953.134	752.099
146.658	20.925	951.394	750.959
147.673	20.774	950.413	749.469
148.687	20.688	949.643	748.426
149.702	20.583	948.478	746.988
150.716	20.559	948.167	746.578
151.731	20.879	947.214	747.131
152.746	20.914	946.663	746.782
153.760	21.095	945.599	746.651
154.775	21.052	945.464	746.294
155.789	21.080	944.084	745.260
156.804	20.995	943.464	744.342
157.819	21.168	942.760	744.458
158.833	21.197	942.101	743.994
159.848	21.114	940.957	742.670
160.862	20.996	939.928	741.290
161.877	20.985	939.118	740.539
162.892	21.019	938.190	739.888
163.906	21.008	936.596	738.518
164.921	20.957	936.242	737.960
165.935	21.084	935.008	737.458
166.950	21.017	934.082	736.380
167.964	21.000	933.550	735.824
168.979	20.780	932.450	733.964
169.994	20.772	931.632	733.221
171.008	21.078	931.206	734.107
172.023	21.046	930.131	733.060
173.037	20.907	928.736	731.314
174.052	20.772	928.006	730.110
175.067	20.694	927.607	729.402
176.081	20.869	926.838	729.466
177.096	20.882	925.756	728.605
178.110	20.460	925.000	726.184
179.125	20.525	923.985	725.591
180.140	20.576	923.780	725.581
181.154	20.586	923.255	725.147
182.169	20.795	923.842	726.414
183.183	21.009	923.035	726.606
184.198	20.788	922.153	724.930
185.213	20.834	921.322	724.403
186.227	20.957	920.640	724.312
187.242	20.995	919.641	723.620
188.256	20.940	919.164	722.954
189.271	21.058	918.382	722.765
190.286	20.859	917.273	721.002
191.300	20.370	915.599	717.603
192.315	19.646	914.354	713.574
193.329	19.408	914.067	712.304
194.344	20.423	914.650	716.887
195.359	20.780	914.807	718.420
196.373	20.895	913.756	718.004
197.388	20.785	912.941	716.850
198.402	20.823	912.671	716.731
199.417	20.841	911.977	716.194
200.432	20.599	910.856	714.258
201.446	20.499	910.054	713.153
202.461	20.473	909.537	712.578
203.475	19.630	907.761	707.676
204.490	19.021	905.824	703.613
205.504	19.971	906.722	708.133
206.519	20.463	906.581	709.974
207.534	20.628	906.089	710.199
208.548	21.020	905.863	711.557
209.563	20.723	905.050	709.647
210.577	20.664	904.393	708.827
211.592	20.994	903.990	709.793
212.607	20.941	903.005	708.741
213.621	21.061	902.622	708.864
214.636	21.041	901.902	708.155
215.650	21.059	901.313	707.701
216.665	21.232	900.498	707.703
217.680	21.045	900.022	706.509
218.694	20.680	898.481	703.759
219.709	20.650	897.840	703.073
220.723	20.702	898.088	703.415
221.738	20.973	896.797	703.437
222.753	20.836	896.452	702.550
223.767	21.031	895.949	702.881
224.782	21.090	896.007	703.101
225.796	21.157	895.091	702.590
226.811	20.593	892.892	698.536
227.826	19.919	892.205	695.231
228.840	20.240	891.510	695.917
229.855	20.158	891.074	695.187
230.869	19.816	889.724	692.703
231.884	20.234	890.124	694.626
232.899	20.989	889.947	697.447
233.913	20.905	889.535	696.726
234.928	20.795	888.931	695.753
235.942	20.901	887.751	695.189
236.957	20.525	887.173	693.178
237.972	20.503	886.614	692.593
238.986	20.645	886.073	692.674
240.001	20.760	885.135	692.334
241.015	20.744	884.859	691.997
242.030	20.896	884.356	692.145
243.045	21.038	883.893	692.284
244.059	21.099	883.346	692.035
245.074	20.861	882.687	690.516
246.088	20.644	881.483	688.652
247.103	20.798	881.446	689.172
248.117	21.234	881.489	690.870
249.132	21.521	880.598	691.245
250.147	21.556	880.392	691.160
251.161	21.694	879.693	691.095
252.176	21.704	879.129	690.630
253.190	21.813	878.328	690.369
254.205	21.896	877.791	690.212
255.220	21.899	877.043	689.574
256.234	21.816	876.597	688.836
257.249	21.609	875.636	687.210
258.263	21.714	874.810	686.912
259.278	21.759	874.468	686.761
260.293	21.780	873.756	686.220
261.307	21.664	873.002	685.114
262.322	21.546	872.111	683.894
263.336	20.638	870.327	678.890
264.351	19.604	868.435	673.329
265.366	19.796	868.083	673.745
266.380	20.959	868.890	678.840
267.395	21.312	868.598	679.929
268.409	21.297	867.556	678.994
269.424	21.490	867.136	679.355
270.439	21.625	866.327	679.183
271.453	21.693	865.938	679.081
272.468	21.711	865.702	678.907
273.482	21.758	865.272	678.692
274.497	21.405	863.238	675.672
275.512	21.067	862.980	674.106
276.526	21.498	863.200	675.884
277.541	21.720	862.269	675.950
278.555	21.264	861.655	673.653
279.570	21.377	860.730	673.301
280.585	21.398	860.270	672.964
281.599	21.421	859.459	672.360
282.614	20.868	858.000	669.034
283.628	20.878	857.802	668.861
284.643	21.148	857.540	669.631
285.657	20.760	856.168	667.017
286.672	20.643	855.424	665.928
287.687	21.262	855.267	668.117
288.701	21.265	854.809	667.711
289.716	20.805	854.197	665.416
290.730	20.882	853.188	664.866
291.745	20.649	851.977	662.974
292.760	20.964	852.101	664.214
293.774	21.800	852.902	667.967
294.789	21.978	852.241	668.068
295.803	22.222	851.455	668.318
296.818	22.237	850.972	667.936
297.833	21.785	849.776	665.225
298.847	21.611	849.515	664.300
299.862	21.822	849.189	664.788
300.876	22.194	848.343	665.476
301.891	22.115	847.580	664.519
302.906	21.762	846.867	662.568
303.920	21.637	846.659	661.872
304.935	22.098	846.656	663.555
305.949	21.948	846.141	662.526
306.964	21.695	845.272	660.830
307.979	21.865	844.550	660.848
308.993	22.282	844.255	662.129
310.008	22.143	843.700	661.114
311.022	21.789	843.127	659.273
312.037	21.806	842.243	658.591
313.052	21.616	841.210	657.012
314.066	20.851	839.628	652.852
315.081	20.540	839.052	651.180
316.095	21.310	839.940	654.698
317.110	21.629	839.651	655.609
318.125	20.804	838.001	651.181
319.139	19.955	835.970	646.374
320.154	19.960	835.994	646.354
321.168	20.748	836.439	649.584
322.183	21.575	836.391	652.574
323.197	21.623	835.804	652.237
324.212	21.935	835.525	653.123
325.227	21.870	835.127	652.513
326.241	21.738	834.003	651.088
327.256	21.637	833.640	650.368
328.270	21.641	832.775	649.651
329.285	21.347	832.254	648.099
330.300	21.311	831.277	647.148
331.314	21.470	831.596	647.928
332.329	21.639	831.319	648.278
333.343	21.926	830.978	649.019
334.358	21.967	830.079	648.409
335.373	22.043	829.867	648.468
336.387	22.309	829.636	649.212
337.402	22.365	829.726	649.432
338.416	22.367	829.110	648.900
339.431	22.445	828.634	648.757
340.446	22.490	828.602	648.838
341.460	22.350	828.046	647.832
342.475	22.209	827.273	646.649
343.489	22.351	826.726	646.687
344.504	22.679	826.478	647.639
345.519	22.703	826.423	647.629
346.533	22.785	825.784	647.372
347.548	22.729	825.574	646.943
348.562	22.621	825.201	646.199
349.577	22.653	824.277	645.537
350.592	22.765	823.685	645.423
351.606	22.603	822.991	644.232
352.621	22.707	821.966	643.750
353.635	22.441	821.056	642.011
354.650	21.893	818.952	638.316
355.665	20.872	818.323	634.056
356.679	21.363	817.868	635.434
357.694	21.797	817.664	636.793
358.708	21.779	817.146	636.269
359.723	22.066	817.008	637.148
360.738	22.230	816.847	637.559
361.752	22.594	815.830	638.028
362.767	22.745	815.859	638.542
363.781	23.005	815.790	639.370
364.796	23.179	815.048	639.361
365.810	23.205	814.713	639.134
366.825	23.063	814.570	638.456
367.840	22.804	813.553	636.667
368.854	22.522	812.389	634.685
369.869	22.508	812.205	634.432
370.883	22.440	812.230	634.151
371.898	22.298	811.797	633.248
372.913	22.424	811.038	633.051
373.927	22.689	810.363	633.419
374.942	22.845	810.258	633.842
375.956	22.911	809.889	633.735
376.971	22.843	809.740	633.317
377.986	23.027	809.274	633.556
379.000	22.968	809.166	633.205
380.015	22.867	808.380	632.173
381.029	22.943	807.734	631.882
382.044	23.060	807.158	631.796
383.059	23.176	806.139	631.354
384.073	23.020	806.000	630.634
385.088	23.003	805.312	629.978
386.102	22.848	804.748	628.931
387.117	22.826	804.060	628.257
388.132	22.659	802.628	626.492
389.146	22.030	802.284	623.932
390.161	22.432	802.288	625.307
391.175	22.775	801.896	626.163
392.190	22.451	800.825	624.126
393.205	21.073	798.969	617.747
394.219	19.780	796.898	611.522
395.234	19.737	796.989	611.385
396.248	21.378	798.292	618.138
397.263	22.797	798.942	623.604
398.278	22.644	798.908	622.982
399.292	22.393	798.075	621.393
400.307	22.419	797.682	621.123
401.321	22.384	797.344	620.680
402.336	22.892	796.884	622.058
403.350	23.307	797.025	623.574
404.365	23.384	796.684	623.522
405.380	23.801	796.279	624.618
406.394	23.869	795.787	624.416
407.409	23.915	794.888	623.813
408.423	23.655	794.958	622.901
409.438	23.627	794.634	622.497
410.453	23.742	794.286	622.570
411.467	23.655	793.743	621.784
412.482	23.731	793.340	621.679
413.496	23.861	792.798	621.655
414.511	23.835	792.572	621.334
415.526	23.727	792.034	620.478
416.540	23.638	791.574	619.754
417.555	23.477	790.584	618.363
418.569	23.450	790.424	618.087
419.584	23.346	789.728	617.127
420.599	23.128	788.949	615.705
421.613	157.762	1365.388	1798.048
422.628	136.571	1449.369	1798.125
