DTS Sentinel unit serial number:	SN413079Multiplexer serial number:	ORYXHardware model number:	OX4-SRSoftware version number:	ORYX F/W v4.00 Oryx Data Collector v3.7.2.0data status	okinstallation	princeton_trtdifferential loss correction	single-endedforward channel	channel 1reverse channel	N/Adate	2019/09/16time	14:34:35forward acquisition time	60.00reverse acquisition time	0.00gamma	496.2192k internal	0.2293k external	0.2293temperature offset calibration	0.9950default loss term (dB/km)	0.3790temperature slope calibration	1.0000multiplexer offset coefficient	1.0000multiplexer slope coefficient	1.0000fibre end	0.00T internal ref (°C)	41.81T ext. ref 1 (°C)	14.27T ext. ref 2 (°C)	36.22length (m)	temperature (°C)	Stokes	anti-Stokes-747.200	-190.757	0.083	-0.001
-746.185	-200.000	0.000	0.105
-745.171	-55.669	-0.112	0.051
-744.156	-169.039	0.298	0.011
-743.142	-200.000	0.004	0.024
-742.127	45.195	-0.259	0.245
-741.112	-29.050	-0.306	-0.180
-740.098	33.446	0.279	0.248
-739.083	-200.000	0.462	0.000
-738.069	561.107	0.116	0.286
-737.054	101.452	-0.012	-0.015
-736.039	-47.245	-0.200	0.100
-735.025	-64.248	0.457	0.190
-734.010	-200.000	-0.008	0.235
-732.996	-200.000	0.003	-0.465
-731.981	151.636	0.079	-0.111
-730.966	-200.000	0.005	-0.033
-729.952	116.020	0.205	0.257
-728.937	800.000	-0.087	-0.250
-727.923	434.845	0.142	-0.316
-726.908	-34.097	-0.173	0.097
-725.894	125.245	-0.227	0.293
-724.879	104.418	-0.226	-0.273
-723.864	644.768	-0.077	-0.200
-722.850	-45.907	-0.089	0.045
-721.835	679.430	0.134	0.356
-720.821	-13.834	-0.157	-0.104
-719.806	-200.000	-0.012	0.193
-718.791	-200.000	0.074	-0.382
-717.777	-72.629	0.191	-0.072
-716.762	-137.055	-0.128	-0.015
-715.748	511.409	0.132	-0.315
-714.733	65.084	-0.040	-0.041
-713.718	-200.000	0.007	-0.086
-712.704	314.978	0.085	-0.163
-711.689	120.262	0.026	0.033
-710.675	-200.000	-0.050	-0.280
-709.660	-200.000	-0.028	-0.189
-708.645	-58.189	-0.093	0.041
-707.631	-200.000	0.006	0.350
-706.616	59.607	0.140	0.141
-705.602	-11.098	-0.368	-0.248
-704.587	-36.743	0.188	-0.103
-703.572	204.695	-0.158	0.250
-702.558	-115.812	-0.302	0.058
-701.543	284.953	-0.050	-0.092
-700.529	-48.607	0.313	0.154
-699.514	195.203	0.092	-0.143
-698.499	-110.236	0.190	-0.040
-697.485	800.000	-0.071	0.226
-696.470	127.422	0.131	-0.170
-695.456	478.191	0.059	0.135
-694.441	213.171	-0.016	0.025
-693.426	331.918	-0.116	-0.228
-692.412	-107.534	0.283	0.063
-691.397	-28.399	-0.115	-0.068
-690.383	-45.067	-0.433	0.220
-689.368	32.916	-0.386	0.341
-688.354	-48.409	-0.450	-0.221
-687.339	-80.665	0.320	-0.109
-686.324	98.146	0.044	0.052
-685.310	-200.000	-0.051	-0.321
-684.295	74.603	-0.122	-0.131
-683.281	52.135	0.069	-0.067
-682.266	351.813	-0.168	-0.339
-681.251	17.083	-0.158	-0.128
-680.237	664.002	-0.163	0.429
-679.222	17.182	-0.202	-0.163
-678.208	-200.000	-0.018	-0.257
-677.193	-138.372	-0.378	0.043
-676.178	-92.824	-0.267	-0.076
-675.164	-200.000	-0.091	-0.545
-674.149	800.000	0.087	-0.273
-673.135	800.000	0.020	0.067
-672.120	181.093	-0.030	0.045
-671.105	-38.133	-0.332	0.180
-670.091	-200.000	0.063	0.423
-669.076	-117.414	0.254	0.047
-668.062	-200.000	-0.003	0.045
-667.047	-117.873	0.125	-0.023
-666.032	800.000	-0.091	0.264
-665.018	-44.261	0.135	-0.069
-664.003	494.291	-0.083	-0.195
-662.989	-60.900	-0.368	0.159
-661.974	62.055	-0.198	0.201
-660.959	-85.915	-0.183	-0.058
-659.945	122.079	0.354	-0.450
-658.930	6.315	0.139	0.105
-657.916	-200.000	-0.061	0.473
-656.901	-6.432	0.210	-0.146
-655.886	-65.687	-0.093	-0.038
-654.872	-130.392	-0.330	0.046
-653.857	-129.185	-0.165	-0.023
-652.843	-22.244	0.123	0.076
-651.828	-81.427	0.118	-0.039
-650.814	-163.604	-0.136	-0.007
-649.799	216.691	0.126	-0.204
-648.784	-200.000	0.042	0.411
-647.770	179.821	0.161	0.241
-646.755	-137.676	-0.401	0.046
-645.741	-85.646	-0.307	0.097
-644.726	48.393	-0.280	0.267
-643.711	-65.940	0.239	-0.097
-642.697	-132.903	-0.337	0.044
-641.682	21.939	-0.151	-0.126
-640.668	-200.000	-0.013	-0.198
-639.653	-141.266	-0.172	-0.018
-638.638	39.443	0.076	-0.069
-637.624	13.562	-0.104	-0.082
-636.609	173.912	0.205	-0.301
-635.595	-55.484	-0.151	-0.069
-634.580	43.179	-0.171	-0.159
-633.565	221.866	0.151	-0.247
-632.551	-141.550	0.306	-0.031
-631.536	57.219	-0.176	-0.175
-630.522	31.831	0.016	-0.014
-629.507	235.620	0.079	-0.133
-628.492	513.351	0.067	0.160
-627.478	800.000	-0.110	-0.336
-626.463	-200.000	0.010	0.104
-625.449	12.153	-0.218	-0.171
-624.434	-200.000	-0.038	0.244
-623.419	-200.000	-0.001	-0.016
-622.405	-50.020	0.156	-0.075
-621.390	-45.774	0.435	-0.219
-620.376	800.000	-0.069	0.218
-619.361	-200.000	0.027	-0.326
-618.346	232.763	0.098	-0.164
-617.332	-2.555	-0.194	-0.139
-616.317	-200.000	-0.013	-0.078
-615.303	800.000	0.188	-0.535
-614.288	800.000	-0.129	-0.416
-613.273	53.156	-0.290	-0.283
-612.259	-200.000	-0.044	-0.241
-611.244	34.037	-0.088	-0.078
-610.230	-44.900	-0.201	0.102
-609.215	391.599	0.081	0.172
-608.201	350.566	-0.159	0.319
-607.186	-200.000	-0.065	-0.299
-606.171	288.569	0.077	-0.142
-605.157	-71.199	0.137	-0.052
-604.142	24.987	0.111	-0.094
-603.128	6.947	0.070	-0.053
-602.113	-200.000	0.010	0.136
-601.098	-54.477	-0.067	-0.031
-600.084	-49.529	0.190	-0.092
-599.069	121.190	0.041	0.052
-598.055	-53.464	-0.205	0.095
-597.040	-149.579	-0.120	0.010
-596.025	-193.746	-0.159	-0.001
-595.011	377.404	-0.049	0.103
-593.996	-155.909	0.167	0.011
-592.982	-90.233	0.301	0.089
-591.967	88.826	-0.143	0.162
-590.952	-111.836	0.142	-0.029
-589.938	331.758	-0.041	0.081
-588.923	-21.655	0.296	-0.183
-587.909	-84.293	0.092	-0.030
-586.894	800.000	0.015	-0.052
-585.879	-200.000	0.009	-0.119
-584.865	65.129	0.078	-0.080
-583.850	571.844	-0.045	0.111
-582.836	-7.075	-0.239	0.165
-581.821	109.195	-0.089	0.108
-580.806	309.505	-0.208	0.395
-579.792	-9.186	0.222	-0.151
-578.777	800.000	0.036	0.123
-577.763	-200.000	0.023	0.130
-576.748	-170.272	0.236	0.008
-575.733	-200.000	0.019	0.405
-574.719	-200.000	0.004	0.021
-573.704	412.284	-0.193	-0.416
-572.690	-200.000	0.000	-0.222
-571.675	-25.304	-0.122	-0.074
-570.661	-112.990	-0.070	-0.014
-569.646	-109.869	-0.198	-0.042
-568.631	232.714	-0.104	0.174
-567.617	800.000	-0.019	0.060
-566.602	560.757	-0.068	0.167
-565.588	-49.694	0.143	-0.069
-564.573	9.310	0.205	-0.157
-563.558	-200.000	-0.014	-0.138
-562.544	10.815	-0.068	0.053
-561.529	31.749	-0.078	0.069
-560.515	-92.740	0.164	0.047
-559.500	470.447	-0.071	-0.162
-558.485	415.322	0.214	0.463
-557.471	-73.724	0.133	0.049
-556.456	152.480	-0.084	0.117
-555.442	-200.000	-0.015	0.578
-554.427	375.333	0.136	0.282
-553.412	202.390	0.228	0.357
-552.398	336.608	0.045	0.088
-551.383	173.996	0.127	0.186
-550.369	800.000	0.028	-0.112
-549.354	-143.635	0.113	0.011
-548.339	31.923	0.166	-0.146
-547.325	83.780	-0.123	-0.136
-546.310	-128.297	0.282	0.041
-545.296	74.136	-0.034	-0.036
-544.281	18.611	0.146	-0.118
-543.266	-61.209	0.160	-0.068
-542.252	683.609	0.124	-0.329
-541.237	110.768	0.159	-0.194
-540.223	21.301	-0.137	0.113
-539.208	64.030	-0.140	0.143
-538.193	-200.000	-0.033	0.269
-537.179	8.902	-0.089	0.069
-536.164	36.405	0.185	-0.165
-535.150	800.000	-0.052	0.165
-534.135	49.560	0.235	-0.225
-533.121	64.409	0.206	0.210
-532.106	108.513	0.145	-0.176
-531.091	-77.603	-0.208	0.073
-530.077	-105.200	-0.232	-0.054
-529.062	8.452	0.181	0.138
-528.048	-90.705	-0.075	0.022
-527.033	-71.164	0.157	-0.060
-526.018	43.924	-0.192	-0.178
-525.004	-96.207	-0.041	0.011
-523.989	122.562	-0.131	-0.166
-522.975	305.262	-0.133	-0.250
-521.960	194.441	0.120	-0.184
-520.945	-21.541	0.173	-0.107
-519.931	350.752	-0.150	0.302
-518.916	-72.315	-0.118	0.044
-517.902	-3.284	-0.134	0.094
-516.887	180.809	0.259	-0.385
-515.872	46.123	-0.162	0.152
-514.858	-42.812	-0.104	0.053
-513.843	210.586	-0.017	0.028
-512.829	-200.000	0.020	-0.119
-511.814	-46.830	-0.221	-0.110
-510.799	-20.261	-0.088	-0.055
-509.785	-43.869	0.359	0.183
-508.770	-200.000	0.017	0.419
-507.756	800.000	0.024	0.097
-506.741	-12.008	0.283	-0.188
-505.726	-200.000	0.051	0.281
-504.712	-147.521	-0.037	-0.003
-503.697	148.413	-0.075	0.102
-502.683	-56.225	-0.045	-0.020
-501.668	-57.564	0.258	-0.115
-500.653	-200.000	-0.359	-0.000
-499.639	-200.000	0.055	0.321
-498.624	481.505	0.064	-0.147
-497.610	179.113	0.207	-0.307
-496.595	99.462	-0.162	0.190
-495.581	622.812	-0.067	-0.170
-494.566	102.333	0.095	-0.113
-493.551	-109.311	-0.057	-0.012
-492.537	368.917	0.061	-0.126
-491.522	800.000	-0.029	-0.109
-490.508	178.965	0.158	-0.234
-489.493	94.193	0.077	0.088
-488.478	800.000	-0.055	-0.191
-487.464	9.970	0.092	0.071
-486.449	749.280	-0.083	-0.225
-485.435	507.712	-0.092	0.216
-484.420	59.870	-0.097	-0.097
-483.405	456.408	0.231	0.519
-482.391	-200.000	-0.044	0.305
-481.376	446.012	-0.107	0.239
-480.362	-178.412	-0.464	0.011
-479.347	-42.662	0.213	0.110
-478.332	-3.190	-0.355	0.251
-477.318	-40.745	0.138	-0.072
-476.303	60.864	0.032	0.033
-475.289	110.324	-0.110	0.134
-474.274	-200.000	-0.058	-0.355
-473.259	20.925	-0.242	-0.198
-472.245	110.609	-0.163	-0.199
-471.230	120.354	0.055	0.069
-470.216	-59.492	0.592	0.257
-469.201	7.242	-0.088	-0.067
-468.186	129.587	-0.100	0.129
-467.172	-50.646	-0.190	0.091
-466.157	800.000	0.115	-0.376
-465.143	800.000	-0.059	-0.183
-464.128	-97.658	-0.268	0.070
-463.113	800.000	0.046	-0.184
-462.099	-200.000	-0.023	0.155
-461.084	108.780	0.078	0.094
-460.070	-95.366	0.169	0.046
-459.055	-200.000	-0.030	-0.146
-458.040	154.006	0.205	-0.284
-457.026	140.249	-0.139	-0.185
-456.011	-200.000	0.040	-0.257
-454.997	-22.760	-0.213	-0.130
-453.982	251.233	0.115	-0.198
-452.968	-200.000	-0.033	0.169
-451.953	-200.000	-0.027	0.276
-450.938	86.530	-0.262	-0.292
-449.924	-133.716	0.162	0.020
-448.909	67.599	-0.084	-0.087
-447.895	44.119	-0.203	0.189
-446.880	-45.902	0.292	-0.146
-445.865	800.000	-0.030	0.088
-444.851	-18.888	-0.065	0.041
-443.836	169.838	0.082	0.118
-442.822	-1.677	0.126	0.090
-441.807	-121.209	-0.094	-0.016
-440.792	-200.000	-0.033	0.156
-439.778	800.000	0.043	0.192
-438.763	-100.304	0.108	-0.027
-437.749	-93.494	0.073	0.020
-436.734	-179.067	-0.027	-0.001
-435.719	-100.877	-0.179	0.044
-434.705	-2.254	-0.200	0.142
-433.690	-200.000	0.022	0.230
-432.676	800.000	0.019	0.067
-431.661	-147.960	-0.257	0.022
-430.646	800.000	-0.045	-0.138
-429.632	-22.858	0.167	0.102
-428.617	149.728	0.143	0.196
-427.603	262.506	0.088	0.155
-426.588	-71.797	-0.173	0.065
-425.573	-187.149	-0.255	0.004
-424.559	45.588	0.135	0.126
-423.544	-200.000	-0.003	-0.140
-422.530	-10.055	0.148	0.100
-421.515	72.764	0.136	0.143
-420.500	22.343	0.111	-0.092
-419.486	-32.704	-0.104	-0.059
-418.471	24.917	-0.380	0.318
-417.457	155.514	0.081	-0.113
-416.442	724.521	-0.048	0.128
-415.428	-188.143	-0.267	-0.003
-414.413	45.673	-0.101	-0.094
-413.398	78.687	0.222	0.240
-412.384	429.215	0.073	-0.159
-411.369	233.505	0.250	-0.416
-410.355	-200.000	0.017	-0.263
-409.340	-34.611	-0.050	0.028
-408.325	185.714	0.189	-0.284
-407.311	-81.643	0.171	-0.057
-406.296	-147.043	0.176	0.015
-405.282	140.369	-0.017	0.022
-404.267	800.000	0.092	0.263
-403.252	281.589	-0.108	-0.195
-402.238	-200.000	0.022	-0.104
-401.223	-107.591	-0.170	0.038
-400.209	-43.104	-0.299	-0.153
-399.194	63.616	-0.161	0.164
-398.179	167.560	0.143	-0.204
-397.165	800.000	0.069	0.214
-396.150	333.721	0.119	-0.232
-395.136	-171.620	-0.188	-0.006
-394.121	-128.353	0.254	0.036
-393.106	800.000	-0.038	-0.144
-392.092	-71.592	-0.171	-0.064
-391.077	-2.645	0.182	0.129
-390.063	324.159	0.055	0.107
-389.048	-30.626	-0.109	-0.062
-388.033	239.485	-0.151	-0.253
-387.019	111.825	-0.044	0.054
-386.004	-200.000	-0.008	0.041
-384.990	320.405	0.178	-0.340
-383.975	316.619	0.063	-0.121
-382.960	94.806	0.226	-0.259
-381.946	590.899	-0.110	-0.274
-380.931	-123.512	0.115	0.019
-379.917	72.776	-0.153	-0.162
-378.902	-123.057	-0.146	0.024
-377.888	174.856	-0.139	0.203
-376.873	56.476	0.132	0.129
-375.858	-200.000	0.015	-0.106
-374.844	15.763	0.132	-0.105
-373.829	-200.000	0.006	-0.048
-372.815	-170.183	0.390	0.014
-371.800	-200.000	-0.004	-0.169
-370.785	-94.296	-0.102	-0.028
-369.771	245.983	-0.170	0.289
-368.756	95.651	-0.202	0.232
-367.742	-138.144	-0.277	0.031
-366.727	-24.728	0.301	0.181
-365.712	800.000	0.025	0.078
-364.698	338.839	-0.170	-0.334
-363.683	-56.255	-0.284	-0.127
-362.669	-45.274	0.092	-0.046
-361.654	-160.090	-0.094	0.005
-360.639	-64.450	0.271	-0.111
-359.625	31.888	-0.100	-0.087
-358.610	90.179	0.185	-0.209
-357.596	55.547	0.208	0.202
-356.581	121.438	0.344	0.432
-355.566	-200.000	-0.029	0.532
-354.552	30.146	-0.178	-0.153
-353.537	186.794	-0.155	-0.233
-352.523	-148.158	0.276	-0.023
-351.508	134.673	-0.198	0.258
-350.493	800.000	-0.050	0.157
-349.479	-42.870	-0.136	0.069
-348.464	800.000	0.179	0.510
-347.450	800.000	0.022	0.078
-346.435	-55.263	0.311	-0.141
-345.420	41.545	0.180	0.164
-344.406	-200.000	-0.138	-0.631
-343.391	151.887	0.079	-0.108
-342.377	-200.000	-0.005	0.087
-341.362	-68.628	-0.308	0.120
-340.348	800.000	-0.044	-0.123
-339.333	-105.743	-0.226	0.051
-338.318	-76.141	-0.251	-0.089
-337.304	-114.686	0.101	-0.019
-336.289	-113.650	-0.106	0.021
-335.275	-102.968	0.158	0.038
-334.260	129.947	-0.119	-0.154
-333.245	89.830	0.328	0.369
-332.231	-89.245	0.454	0.135
-331.216	-200.000	0.005	-0.147
-330.202	800.000	-0.080	-0.273
-329.187	-200.000	-0.044	-0.368
-328.172	362.366	-0.047	0.096
-327.158	166.888	0.155	0.221
-326.143	-33.750	0.126	0.070
-325.129	34.397	-0.279	-0.245
-324.114	800.000	0.076	-0.246
-323.099	74.991	-0.056	0.059
-322.085	-79.522	-0.128	0.044
-321.070	-5.376	-0.086	-0.060
-320.056	60.510	-0.188	0.187
-319.041	-200.000	0.001	-0.024
-318.026	-142.855	-0.141	-0.014
-317.012	-124.717	0.406	-0.063
-315.997	-200.000	-0.002	-0.032
-314.983	555.751	-0.108	-0.261
-313.968	-171.506	-0.061	0.002
-312.953	-200.000	-0.011	0.184
-311.939	-200.000	0.048	-0.258
-310.924	800.000	-0.105	-0.366
-309.910	-102.350	-0.260	-0.063
-308.895	268.850	-0.086	0.152
-307.880	-200.000	0.057	0.630
-306.866	-133.059	-0.226	-0.029
-305.851	36.559	0.205	0.182
-304.837	38.119	0.163	0.146
-303.822	-48.186	0.297	0.144
-302.807	-200.000	0.005	0.086
-301.793	-91.386	-0.258	0.074
-300.778	80.347	0.161	-0.174
-299.764	760.195	0.043	0.118
-298.749	74.450	-0.127	0.134
-297.735	542.654	0.130	-0.312
-296.720	182.595	-0.144	0.214
-295.705	-85.090	-0.209	-0.066
-294.691	-50.509	-0.115	-0.055
-293.676	151.491	-0.216	-0.296
-292.662	-200.000	-0.010	0.069
-291.647	285.794	0.254	0.461
-290.632	7.250	0.293	-0.220
-289.618	-104.408	0.094	0.022
-288.603	-98.720	-0.111	-0.028
-287.589	394.696	0.157	0.328
-286.574	800.000	-0.072	-0.206
-285.559	499.812	-0.069	-0.160
-284.545	179.754	-0.100	-0.148
-283.530	-200.000	-0.068	0.304
-282.516	-27.058	0.126	0.074
-281.501	407.976	-0.093	-0.197
-280.486	254.322	0.105	-0.180
-279.472	-48.852	0.079	0.038
-278.457	103.095	0.183	0.215
-277.443	-157.188	-0.133	0.008
-276.428	-125.709	0.133	0.020
-275.413	-121.733	-0.035	-0.006
-274.399	-200.000	0.057	-0.465
-273.384	-126.947	0.279	0.041
-272.370	-72.313	-0.389	-0.145
-271.355	-5.148	-0.167	0.116
-270.340	5.241	0.339	0.251
-269.326	-77.618	0.162	0.056
-268.311	-14.854	0.153	0.098
-267.297	-200.000	0.042	-0.196
-266.282	-24.755	0.166	0.099
-265.267	-200.000	0.050	-0.285
-264.253	-200.000	0.011	0.186
-263.238	-60.728	-0.517	0.220
-262.224	-157.288	-0.191	-0.012
-261.209	-19.254	-0.254	0.159
-260.195	-200.000	-0.019	-0.114
-259.180	8.715	-0.164	-0.124
-258.165	-200.000	-0.038	0.292
-257.151	114.638	-0.100	0.122
-256.136	-120.556	0.123	0.021
-255.122	-200.000	-0.075	-0.489
-254.107	38.475	0.170	0.152
-253.092	-176.254	-0.459	-0.012
-252.078	-200.000	0.008	0.143
-251.063	-200.000	-0.054	-0.254
-250.049	33.283	0.215	-0.188
-249.034	-200.000	0.011	0.091
-248.019	185.586	-0.073	0.109
-247.005	164.010	-0.129	0.182
-245.990	35.715	0.204	-0.180
-244.976	408.134	0.188	-0.398
-243.961	-38.801	0.121	-0.064
-242.946	-143.141	0.043	-0.004
-241.932	-99.422	-0.181	-0.046
-240.917	161.478	-0.111	0.155
-239.903	85.004	-0.232	-0.255
-238.888	800.000	-0.046	-0.141
-237.873	-55.402	-0.134	-0.060
-236.859	-88.255	0.273	-0.082
-235.844	800.000	0.045	0.197
-234.830	-200.000	0.007	0.056
-233.815	458.612	0.047	0.104
-232.800	-74.907	-0.044	0.016
-231.786	800.000	-0.030	0.092
-230.771	-200.000	-0.028	-0.168
-229.757	167.161	-0.235	-0.334
-228.742	288.892	-0.060	-0.109
-227.727	-200.000	0.011	-0.080
-226.713	-200.000	-0.010	0.122
-225.698	-9.061	0.045	-0.030
-224.684	800.000	-0.097	-0.273
-223.669	-200.000	-0.014	0.119
-222.655	-61.242	0.196	-0.083
-221.640	-73.689	-0.205	0.075
-220.625	97.497	0.130	-0.149
-219.611	-97.684	0.126	0.033
-218.596	47.437	-0.192	0.180
-217.582	-17.733	0.152	0.096
-216.567	-28.761	-0.075	-0.043
-215.552	11.966	0.333	0.256
-214.538	-200.000	0.034	0.255
-213.523	553.313	0.088	0.213
-212.509	-93.416	-0.055	-0.015
-211.494	-158.798	0.279	0.016
-210.479	800.000	-0.067	0.219
-209.465	-66.923	0.170	0.067
-208.450	137.260	-0.201	0.263
-207.436	-200.000	-0.065	0.541
-206.421	-70.713	-0.113	-0.043
-205.406	158.910	0.220	-0.306
-204.392	145.912	-0.150	-0.202
-203.377	-85.243	0.066	-0.021
-202.363	-200.000	0.001	-0.200
-201.348	-104.133	-0.411	-0.096
-200.333	44.929	-0.179	-0.165
-199.319	-123.961	0.315	0.050
-198.304	-200.000	0.004	-0.034
-197.290	-7.136	-0.119	-0.081
-196.275	-108.279	0.280	-0.061
-195.260	465.393	-0.048	0.107
-194.246	-105.856	0.177	0.040
-193.231	-50.364	-0.516	0.244
-192.217	800.000	-0.019	0.074
-191.202	-16.506	0.297	-0.189
-190.187	-15.909	0.254	0.162
-189.173	-56.746	0.317	0.140
-188.158	-200.000	-0.029	-0.308
-187.144	-59.203	-0.367	0.158
-186.129	-164.139	0.086	0.004
-185.114	41.999	-0.142	0.129
-184.100	608.583	0.082	-0.204
-183.085	-200.000	-0.000	-0.079
-182.071	800.000	-0.054	0.218
-181.056	-200.000	0.009	-0.156
-180.042	9.172	-0.051	0.039
-179.027	-69.979	0.120	-0.046
-178.012	170.127	0.143	0.205
-176.998	135.037	-0.172	0.224
-175.983	-25.822	0.177	0.104
-174.969	-122.231	-0.310	-0.051
-173.954	458.141	0.077	0.172
-172.939	-200.000	-0.013	0.093
-171.925	-32.170	0.152	-0.085
-170.910	-140.925	0.299	-0.031
-169.896	-200.000	-0.054	-0.266
-168.881	36.101	-0.246	0.217
-167.866	108.908	0.172	0.205
-166.852	-150.579	-0.151	0.012
-165.837	251.749	-0.054	-0.093
-164.823	209.713	0.096	0.151
-163.808	-200.000	-0.026	0.252
-162.793	12.275	0.375	0.289
-161.779	14.954	0.160	-0.125
-160.764	597.591	-0.151	0.374
-159.750	-200.000	0.058	0.252
-158.735	-63.176	-0.239	0.099
-157.720	-87.722	-0.087	0.026
-156.706	-27.064	-0.127	0.074
-155.691	-200.000	-0.031	-0.405
-154.677	-200.000	0.013	-0.304
-153.662	-200.000	-0.011	0.334
-152.647	-200.000	-0.009	0.074
-151.633	-40.355	0.216	-0.112
-150.618	-120.047	0.125	0.021
-149.604	-34.520	0.181	0.099
-148.589	90.237	-0.110	-0.123
-147.574	-99.730	-0.136	-0.034
-146.560	94.121	0.126	0.143
-145.545	-200.000	-0.058	0.334
-144.531	113.661	0.178	-0.216
-143.516	-200.000	-0.040	0.226
-142.502	-183.156	0.346	-0.006
-141.487	-31.472	-0.366	-0.206
-140.472	-200.000	-0.055	-0.251
-139.458	-32.902	-0.201	0.112
-138.443	800.000	0.037	-0.125
-137.429	-107.347	0.170	0.037
-136.414	16.927	0.072	0.057
-135.399	-85.499	-0.091	0.028
-134.385	-82.804	0.123	0.040
-133.370	524.003	0.063	-0.147
-132.356	-35.926	0.120	-0.065
-131.341	-200.000	-0.005	0.098
-130.326	-57.514	0.053	0.023
-129.312	-77.376	0.222	0.077
-128.297	-68.695	-0.490	0.189
-127.283	-69.464	-0.111	-0.043
-126.268	-149.740	-0.212	-0.017
-125.253	-126.005	-0.383	-0.057
-124.239	-166.002	-0.220	-0.009
-123.224	-200.000	-0.058	0.263
-122.210	-86.053	0.164	-0.050
-121.195	800.000	-0.056	0.216
-120.180	-200.000	-0.001	0.453
-119.166	430.862	-0.040	-0.087
-118.151	-71.851	0.153	0.057
-117.137	-38.154	0.110	-0.058
-116.122	426.103	0.048	0.102
-115.107	800.000	-0.028	0.088
-114.093	-46.782	-0.249	0.121
-113.078	-124.242	0.133	-0.021
-112.064	-200.000	-0.022	-0.287
-111.049	80.809	0.113	-0.122
-110.034	736.928	0.027	-0.072
-109.020	371.778	-0.108	-0.219
-108.005	99.612	0.073	-0.084
-106.991	276.906	-0.188	0.334
-105.976	-121.067	0.057	0.009
-104.962	33.043	0.296	-0.256
-103.947	-160.387	-0.157	0.008
-102.932	-66.134	-0.196	0.078
-101.918	800.000	-0.074	-0.288
-100.903	-200.000	-0.047	0.230
-99.889	265.198	-0.180	-0.313
-98.874	17.146	0.209	-0.165
-97.859	41.344	-0.296	-0.268
-96.845	-200.000	0.061	-0.388
-95.830	336.722	0.091	0.176
-94.816	-43.928	0.168	0.084
-93.801	-37.035	-0.157	-0.084
-92.786	800.000	-0.027	0.079
-91.772	-111.724	0.502	-0.101
-90.757	800.000	0.039	-0.168
-89.743	800.000	-0.010	-0.036
-88.728	-156.546	-0.335	0.021
-87.713	-90.450	0.252	0.073
-86.699	800.000	-0.109	0.406
-85.684	-80.445	-0.160	-0.053
-84.670	-200.000	-0.012	0.065
-83.655	-52.944	-0.213	-0.098
-82.640	686.961	-0.114	0.297
-81.626	-200.000	0.000	-0.264
-80.611	203.199	0.095	-0.146
-79.597	-112.277	0.587	-0.117
-78.582	-42.295	-0.036	0.018
-77.567	173.316	-0.091	0.131
-76.553	-102.845	0.417	0.099
-75.538	-136.636	0.461	-0.053
-74.524	-143.917	-0.110	0.010
-73.509	46.257	-0.013	0.012
-72.494	800.000	0.106	0.453
-71.480	-53.639	-0.150	-0.068
-70.465	294.367	-0.234	0.426
-69.451	7.505	0.119	0.088
-68.436	-200.000	-0.025	-0.200
-67.422	628.387	-0.096	0.241
-66.407	-106.800	0.113	0.025
-65.392	-37.370	-0.067	-0.035
-64.378	-200.000	-0.060	0.303
-63.363	-126.289	-0.156	0.023
-62.349	581.460	0.131	0.320
-61.334	46.815	-0.775	-0.717
-60.319	23.999	0.493	0.405
-59.305	55.488	-0.329	-0.317
-58.290	493.869	0.356	0.813
-57.276	203.699	1.066	1.643
-56.261	-200.000	76.531	530.410
-55.246	535.605	1326.639	3134.469
-54.232	145.419	2554.492	3406.452
-53.217	119.834	2234.373	2758.142
-52.203	54.157	1676.083	1605.833
-51.188	45.710	1397.163	1285.855
-50.173	42.090	1350.972	1221.275
-49.159	60.788	1385.678	1368.017
-48.144	67.762	1404.268	1429.101
-47.130	46.188	1367.571	1261.361
-46.115	41.970	1351.010	1220.382
-45.100	41.718	1346.148	1214.414
-44.086	41.589	1343.949	1211.597
-43.071	41.600	1341.499	1209.407
-42.057	41.618	1339.109	1207.317
-41.042	41.701	1337.644	1206.444
-40.027	41.767	1335.930	1205.253
-39.013	41.601	1334.721	1203.111
-37.998	41.689	1332.304	1201.418
-36.984	41.838	1330.396	1200.542
-35.969	41.869	1328.595	1199.055
-34.954	41.880	1326.805	1197.460
-33.940	41.880	1325.486	1196.217
-32.925	42.009	1324.193	1195.778
-31.911	41.898	1322.803	1193.811
-30.896	41.870	1321.273	1192.215
-29.881	41.847	1320.253	1191.110
-28.867	41.855	1318.515	1189.546
-27.852	41.843	1317.231	1188.266
-26.838	41.946	1315.280	1187.070
-25.823	41.955	1313.602	1185.563
-24.809	41.840	1312.983	1184.275
-23.794	41.809	1311.484	1182.690
-22.779	41.922	1309.805	1181.799
-21.765	41.980	1308.068	1180.530
-20.750	41.879	1307.337	1179.228
-19.736	41.778	1306.189	1177.550
-18.721	41.725	1304.899	1176.027
-17.706	41.847	1303.203	1175.168
-16.692	41.761	1302.528	1174.011
-15.677	41.823	1301.157	1173.092
-14.663	41.791	1300.158	1171.955
-13.648	41.664	1299.427	1170.504
-12.633	41.750	1298.077	1169.744
-11.619	41.743	1296.896	1168.594
-10.604	41.797	1296.013	1168.070
-9.590	41.776	1294.802	1166.810
-8.575	41.703	1294.445	1166.013
-7.560	41.836	1293.082	1165.515
-6.546	41.745	1292.596	1164.503
-5.531	41.714	1291.697	1163.465
-4.517	41.679	1290.780	1162.387
-3.502	41.748	1290.185	1162.206
-2.487	41.795	1288.528	1160.944
-1.473	41.752	1284.911	1157.385
-0.458	40.145	1269.910	1134.620
0.556	33.989	1248.168	1087.435
1.571	29.213	1251.004	1062.345
2.586	27.639	1264.556	1064.577
3.600	26.352	1254.879	1048.878
4.615	23.043	1185.351	972.507
5.629	17.479	1111.364	882.943
6.644	14.572	1089.704	850.853
7.659	14.184	1086.883	846.604
8.673	14.213	1085.318	845.458
9.688	14.122	1084.277	844.110
10.702	14.313	1083.178	844.150
11.717	17.928	1087.838	866.073
12.731	21.493	1092.139	887.541
13.746	20.240	1088.568	878.219
14.761	17.792	1084.388	862.408
15.775	16.427	1082.496	853.935
16.790	15.234	1080.566	846.320
17.804	14.592	1078.468	841.364
18.819	14.212	1076.902	838.153
19.834	13.875	1075.949	835.642
20.848	13.491	1075.902	833.597
21.863	13.319	1074.414	831.509
22.877	13.182	1074.006	830.431
23.892	13.120	1072.826	829.131
24.907	13.070	1072.613	828.641
25.921	13.176	1071.475	828.220
26.936	13.284	1069.877	827.453
27.950	13.269	1068.403	826.168
28.965	13.358	1066.775	825.277
29.980	13.391	1065.612	824.470
30.994	13.591	1063.556	823.801
32.009	13.486	1063.152	822.894
33.023	13.374	1062.154	821.490
34.038	13.433	1061.139	820.925
35.053	13.289	1060.512	819.655
36.067	13.318	1059.524	818.963
37.082	13.231	1058.472	817.644
38.096	13.322	1057.830	817.529
39.111	13.355	1057.507	817.372
40.126	13.266	1056.310	815.932
41.140	13.252	1053.860	813.900
42.155	13.163	1053.443	813.066
43.169	13.186	1052.400	812.302
44.184	13.033	1051.472	810.765
45.199	13.076	1050.413	810.086
46.213	13.108	1049.462	809.440
47.228	13.247	1047.863	808.815
48.242	13.256	1047.010	808.128
49.257	13.266	1046.129	807.427
50.271	13.366	1045.194	807.118
51.286	13.240	1044.507	805.902
52.301	13.320	1043.385	805.353
53.315	13.255	1042.375	804.187
54.330	13.222	1040.691	802.658
55.344	13.118	1040.202	801.706
56.359	13.353	1038.989	801.839
57.374	13.254	1038.603	800.988
58.388	13.181	1037.708	799.876
59.403	13.055	1036.723	798.435
60.417	13.089	1036.032	797.997
61.432	13.042	1035.520	797.307
62.447	13.103	1034.087	796.424
63.461	13.106	1033.365	795.813
64.476	13.071	1032.429	794.852
65.490	13.125	1031.871	794.616
66.505	13.111	1031.215	793.972
67.520	13.103	1030.579	793.373
68.534	13.092	1029.784	792.640
69.549	13.047	1029.149	791.864
70.563	13.175	1027.930	791.466
71.578	12.966	1027.561	790.113
72.593	12.995	1026.906	789.678
73.607	12.929	1026.247	788.787
74.622	12.949	1025.196	788.007
75.636	13.034	1024.600	787.882
76.651	13.054	1024.005	787.448
77.666	12.966	1023.706	786.733
78.680	12.977	1022.792	786.009
79.695	13.144	1021.524	785.763
80.709	13.033	1021.303	784.993
81.724	13.046	1021.028	784.775
82.739	13.156	1020.195	784.588
83.753	13.359	1018.795	784.404
84.768	13.348	1018.232	783.848
85.782	13.325	1017.714	783.272
86.797	13.326	1016.221	782.059
87.812	13.279	1015.877	781.505
88.826	13.280	1014.834	780.638
89.841	13.265	1013.963	779.828
90.855	13.427	1012.556	779.438
91.870	13.382	1011.623	778.441
92.884	13.403	1010.762	777.808
93.899	13.304	1010.351	776.957
94.914	13.481	1009.330	776.933
95.928	13.447	1008.606	776.149
96.943	13.410	1007.462	775.027
97.957	13.330	1006.670	773.975
98.972	13.415	1006.125	773.883
99.987	13.340	1005.050	772.638
101.001	13.422	1003.875	772.048
102.016	13.375	1003.260	771.290
103.030	13.430	1002.049	770.547
104.045	13.435	1001.704	770.233
105.060	13.372	1000.598	769.022
106.074	13.333	999.781	768.147
107.089	13.152	999.061	766.685
108.103	13.161	998.093	765.917
109.118	13.183	997.123	765.205
110.133	13.139	996.170	764.204
111.147	13.150	995.364	763.569
112.162	13.153	994.459	762.820
113.176	13.210	993.410	762.211
114.191	13.267	992.696	761.857
115.206	13.262	992.011	761.244
116.220	13.197	991.301	760.331
117.235	13.219	990.190	759.512
118.249	13.335	989.204	759.220
119.264	13.232	988.649	758.257
120.279	13.159	987.779	757.186
121.293	13.155	987.091	756.575
122.308	13.286	985.866	756.168
123.322	13.136	985.257	754.949
124.337	13.170	984.123	754.170
125.352	13.250	983.314	753.846
126.366	13.256	981.992	752.791
127.381	13.210	980.819	751.620
128.395	13.197	980.208	751.024
129.410	13.351	979.175	750.863
130.424	13.288	978.199	749.767
131.439	13.341	977.362	749.297
132.454	13.432	976.759	749.182
133.468	13.447	975.875	748.506
134.483	13.482	974.909	747.856
135.497	13.430	973.928	746.804
136.512	13.456	973.335	746.398
137.527	13.385	972.399	745.295
138.541	13.453	971.589	744.913
139.556	13.317	971.317	744.026
140.570	13.511	970.699	744.360
141.585	13.640	969.358	743.848
142.600	13.492	968.385	742.368
143.614	13.594	967.575	742.140
144.629	13.606	966.794	741.527
145.643	13.712	965.974	741.307
146.658	13.545	964.821	739.613
147.673	13.547	963.901	738.852
148.687	13.491	963.097	737.918
149.702	13.512	961.954	737.071
150.716	13.469	961.274	736.294
151.731	13.455	960.666	735.702
152.746	13.471	959.987	735.186
153.760	13.496	959.246	734.665
154.775	13.374	959.029	733.895
155.789	13.417	958.341	733.493
156.804	13.617	957.068	733.337
157.819	13.538	956.714	732.652
158.833	13.545	955.861	731.967
159.848	13.677	955.208	731.985
160.862	13.642	953.905	730.765
161.877	13.696	952.965	730.219
162.892	13.551	952.094	728.848
163.906	13.441	951.070	727.515
164.921	13.408	950.270	726.695
165.935	13.440	949.639	726.292
166.950	13.609	948.576	726.152
167.964	13.600	947.823	725.474
168.979	13.584	946.716	724.494
169.994	13.554	946.055	723.791
171.008	13.643	945.520	723.706
172.023	13.705	944.414	723.065
173.037	13.792	943.691	722.828
174.052	13.728	942.743	721.758
175.067	13.574	942.403	720.764
176.081	13.640	941.581	720.358
177.096	13.626	941.394	720.091
178.110	13.595	940.755	719.404
179.125	13.634	940.048	718.969
180.140	13.506	939.746	718.119
181.154	13.660	939.139	718.261
182.169	13.788	938.652	718.377
183.183	13.748	938.040	717.673
184.198	13.784	937.092	717.042
185.213	13.890	936.304	716.831
186.227	13.856	935.764	716.207
187.242	13.913	934.946	715.764
188.256	13.993	934.446	715.661
189.271	14.014	933.438	714.919
190.286	13.792	932.681	713.319
191.300	13.622	932.131	712.103
192.315	13.602	931.564	711.521
193.329	13.669	931.041	711.349
194.344	13.639	930.479	710.728
195.359	13.786	929.358	710.440
196.373	13.886	928.698	710.299
197.388	13.955	928.589	710.447
198.402	14.054	927.792	710.195
199.417	14.010	927.362	709.616
200.432	14.188	926.404	709.583
201.446	14.170	926.351	709.402
202.461	14.126	925.896	708.800
203.475	14.291	925.194	708.903
204.490	13.918	924.739	706.907
205.504	13.977	923.514	706.159
206.519	14.080	922.530	705.782
207.534	14.050	921.998	705.185
208.548	14.034	921.638	704.778
209.563	14.099	920.816	704.364
210.577	14.109	920.353	703.989
211.592	14.153	919.648	703.573
212.607	14.286	918.711	703.355
213.621	14.249	917.855	702.482
214.636	14.319	917.250	702.251
215.650	14.150	916.676	701.037
216.665	14.278	916.142	701.106
217.680	14.346	915.309	700.692
218.694	14.263	914.800	699.891
219.709	14.249	914.026	699.178
220.723	14.448	913.163	699.293
221.738	14.360	912.856	698.625
222.753	14.464	911.672	698.095
223.767	14.385	911.609	697.653
224.782	14.439	911.042	697.384
225.796	14.455	910.221	696.761
226.811	14.441	909.583	696.151
227.826	14.480	908.633	695.524
228.840	14.511	907.804	694.957
229.855	14.412	907.199	694.024
230.869	14.427	906.650	693.603
231.884	14.442	905.997	693.104
232.899	14.414	905.370	692.446
233.913	14.317	904.483	691.304
234.928	14.459	903.718	691.247
235.942	14.519	903.335	691.143
236.957	14.411	903.204	690.535
237.972	14.413	902.236	689.739
238.986	14.461	901.524	689.334
240.001	14.447	901.173	688.945
241.015	14.364	900.738	688.210
242.030	14.532	899.768	688.100
243.045	14.508	899.250	687.547
244.059	14.570	898.462	687.135
245.074	14.491	898.256	686.595
246.088	14.561	897.318	686.104
247.103	14.606	896.685	685.745
248.117	14.709	896.131	685.683
249.132	14.711	895.635	685.251
250.147	14.771	895.231	685.129
251.161	14.873	894.212	684.703
252.176	14.867	893.947	684.418
253.190	14.862	892.988	683.601
254.205	14.931	892.360	683.342
255.220	14.966	891.864	683.043
256.234	14.856	891.434	682.205
257.249	14.724	891.028	681.294
258.263	14.887	890.265	681.316
259.278	15.041	889.149	681.030
260.293	15.022	888.400	680.318
261.307	15.023	888.276	680.169
262.322	15.116	887.416	679.827
263.336	15.077	886.316	678.764
264.351	15.228	885.576	678.748
265.366	15.087	885.180	677.816
266.380	15.310	884.425	678.080
267.395	15.138	884.245	677.187
268.409	15.180	883.201	676.495
269.424	15.261	882.081	675.906
270.439	15.039	881.987	674.879
271.453	15.084	881.175	674.376
272.468	15.077	880.827	674.025
273.482	15.096	880.193	673.557
274.497	15.148	879.625	673.269
275.512	15.087	879.047	672.523
276.526	15.286	878.368	672.744
277.541	15.270	878.198	672.491
278.555	15.231	877.355	671.627
279.570	15.227	876.653	671.015
280.585	15.353	875.732	670.754
281.599	15.411	875.046	670.401
282.614	15.293	874.140	669.177
283.628	15.367	873.858	669.195
284.643	15.437	873.035	668.785
285.657	15.474	872.327	668.331
286.672	15.389	871.645	667.413
287.687	15.627	870.492	667.417
288.701	15.484	870.682	666.933
289.716	15.357	870.121	665.941
290.730	15.475	869.408	665.804
291.745	15.488	869.071	665.539
292.760	15.382	868.317	664.485
293.774	15.590	867.677	664.758
294.789	15.607	866.863	664.144
295.803	15.542	866.017	663.178
296.818	15.390	865.615	662.214
297.833	15.428	865.243	662.018
298.847	15.533	864.626	661.902
299.862	15.609	863.433	661.231
300.876	15.564	863.384	660.956
301.891	15.622	862.840	660.709
302.906	15.588	862.290	660.097
303.920	15.622	861.936	659.901
304.935	15.685	861.144	659.483
305.949	15.725	860.338	658.966
306.964	15.736	859.639	658.414
307.979	15.750	859.170	658.052
308.993	15.817	858.934	658.073
310.008	15.818	857.906	657.232
311.022	15.780	857.446	656.672
312.037	15.864	856.622	656.312
313.052	15.768	856.404	655.711
314.066	15.781	855.919	655.335
315.081	15.596	855.242	654.037
316.095	15.673	854.638	653.818
317.110	15.843	853.954	653.899
318.125	15.762	853.416	653.112
319.139	15.773	852.975	652.760
320.154	15.791	852.634	652.511
321.168	15.834	852.086	652.199
322.183	15.779	851.551	651.522
323.197	15.924	850.734	651.398
324.212	15.827	850.342	650.666
325.227	15.895	849.691	650.373
326.241	15.912	848.903	649.777
327.256	15.945	848.574	649.595
328.270	15.874	847.930	648.771
329.285	15.882	847.346	648.298
330.300	15.918	846.870	648.017
331.314	15.839	846.394	647.292
332.329	15.987	845.879	647.407
333.343	15.906	845.617	646.840
334.358	16.117	844.941	647.074
335.373	16.105	844.551	646.672
336.387	16.086	844.159	646.241
337.402	16.006	844.290	645.979
338.416	16.090	843.738	645.819
339.431	16.154	843.067	645.493
340.446	16.233	842.862	645.582
341.460	16.334	842.540	645.666
342.475	16.159	842.272	644.734
343.489	16.360	841.718	645.020
344.504	16.296	841.217	644.334
345.519	16.308	841.027	644.179
346.533	16.369	840.092	643.638
347.548	16.439	839.083	643.073
348.562	16.294	839.112	642.486
349.577	16.180	838.490	641.520
350.592	16.162	838.020	641.037
351.606	16.160	837.304	640.425
352.621	16.282	836.349	640.098
353.635	16.185	835.765	639.228
354.650	16.226	835.298	638.968
355.665	16.394	834.449	638.897
356.679	16.413	833.938	638.523
357.694	16.339	833.447	637.812
358.708	16.451	832.709	637.611
359.723	16.417	832.498	637.268
360.738	16.409	831.565	636.465
361.752	16.434	830.865	635.966
362.767	16.650	830.282	636.275
363.781	16.491	829.745	635.211
364.796	16.669	829.384	635.546
365.810	16.627	829.172	635.171
366.825	16.638	828.934	634.972
367.840	16.587	828.210	634.171
368.854	16.661	827.793	634.075
369.869	16.633	827.543	633.723
370.883	16.632	827.042	633.279
371.898	16.722	826.658	633.266
372.913	16.628	826.517	632.748
373.927	16.838	825.458	632.666
374.942	16.953	824.622	632.397
375.956	16.763	824.948	631.883
376.971	16.902	824.067	631.670
377.986	16.907	823.776	631.409
379.000	17.007	823.523	631.532
380.015	16.902	823.263	630.888
381.029	17.057	821.715	630.221
382.044	17.258	821.108	630.444
383.059	16.976	820.940	629.216
384.073	17.047	820.334	628.957
385.088	16.894	820.179	628.217
386.102	16.706	819.556	626.988
387.117	16.938	818.915	627.301
388.132	16.826	818.440	626.465
389.146	16.953	817.759	626.360
390.161	17.092	817.274	626.443
391.175	17.008	816.543	625.519
392.190	16.973	816.300	625.149
393.205	16.993	815.521	624.569
394.219	16.944	815.441	624.273
395.234	17.054	815.128	624.382
396.248	16.859	814.992	623.506
397.263	16.896	814.628	623.309
398.278	16.824	813.841	622.388
399.292	16.794	813.746	622.148
400.307	16.894	812.909	621.820
401.321	17.054	812.177	621.793
402.336	17.011	811.763	621.262
403.350	17.064	811.586	621.265
404.365	17.134	811.239	621.203
405.380	17.141	810.848	620.875
406.394	17.108	810.310	620.285
407.409	17.195	809.857	620.204
408.423	17.315	809.558	620.355
409.438	17.379	809.064	620.155
410.453	17.471	808.565	620.052
411.467	17.358	808.123	619.249
412.482	17.508	807.327	619.130
413.496	17.532	807.179	619.046
414.511	17.455	807.068	618.629
415.526	17.479	806.487	618.215
416.540	17.316	806.410	617.510
417.555	17.352	805.601	616.967
418.569	17.542	804.926	617.084
419.584	17.367	805.028	616.474
420.599	17.423	804.501	616.216
421.613	90.048	1260.516	1358.373
422.628	76.925	1326.992	1358.495
