DTS Sentinel unit serial number:	SN413079Multiplexer serial number:	ORYXHardware model number:	OX4-SRSoftware version number:	ORYX F/W v4.00 Oryx Data Collector v3.7.2.0data status	okinstallation	princeton_trtdifferential loss correction	single-endedforward channel	channel 1reverse channel	N/Adate	2019/09/13time	05:50:35forward acquisition time	60.00reverse acquisition time	0.00gamma	496.2192k internal	0.2335k external	0.2335temperature offset calibration	1.0155default loss term (dB/km)	0.3790temperature slope calibration	1.0000multiplexer offset coefficient	1.0000multiplexer slope coefficient	1.0000fibre end	0.00T internal ref (°C)	26.19T ext. ref 1 (°C)	4.05T ext. ref 2 (°C)	20.96length (m)	temperature (°C)	Stokes	anti-Stokes-747.200	-64.205	0.257	0.105
-746.185	-45.212	0.122	0.061
-745.171	240.762	-0.196	0.328
-744.156	-129.265	-0.110	0.015
-743.142	-200.000	-0.058	0.368
-742.127	-200.000	0.020	0.569
-741.112	-200.000	-0.001	-0.232
-740.098	-178.983	-0.182	0.004
-739.083	-98.610	-0.451	0.115
-738.069	800.000	-0.107	0.414
-737.054	-200.000	0.032	-0.221
-736.039	536.012	-0.020	0.047
-735.025	-200.000	0.016	-0.095
-734.010	494.077	-0.055	-0.126
-732.996	71.904	0.201	-0.210
-731.981	210.859	0.036	-0.057
-730.966	-108.930	-0.112	0.024
-729.952	174.840	0.185	-0.269
-728.937	-138.774	0.121	0.013
-727.923	202.156	0.132	-0.204
-726.908	-36.025	-0.201	-0.109
-725.894	-200.000	0.043	-0.238
-724.879	-9.428	-0.138	0.093
-723.864	361.371	0.197	-0.397
-722.850	609.519	0.064	-0.160
-721.835	-0.606	0.087	-0.062
-720.821	20.961	-0.379	-0.308
-719.806	-113.482	-0.086	-0.017
-718.791	-97.461	0.108	0.028
-717.777	-112.835	-0.119	0.024
-716.762	-200.000	0.342	-0.002
-715.748	800.000	-0.032	-0.114
-714.733	-1.865	0.124	0.087
-713.718	89.813	-0.084	-0.094
-712.704	-81.869	-0.180	-0.059
-711.689	-200.000	0.067	-0.419
-710.675	249.975	0.083	0.142
-709.660	49.871	-0.313	-0.296
-708.645	122.829	0.011	-0.013
-707.631	-200.000	0.014	-0.185
-706.616	-200.000	0.047	-0.478
-705.602	51.939	-0.083	0.079
-704.587	274.780	0.056	0.099
-703.572	349.802	0.144	-0.285
-702.558	-200.000	0.031	0.198
-701.543	800.000	-0.095	-0.408
-700.529	-200.000	-0.017	-0.134
-699.514	63.949	-0.130	-0.131
-698.499	800.000	0.038	0.140
-697.485	-25.164	-0.198	0.118
-696.470	618.702	-0.120	0.301
-695.456	335.133	0.144	-0.279
-694.441	95.995	-0.192	-0.220
-693.426	800.000	0.067	-0.211
-692.412	-200.000	0.009	0.298
-691.397	-200.000	0.003	0.203
-690.383	-133.773	-0.061	0.008
-689.368	9.685	0.161	0.123
-688.354	48.933	0.273	0.257
-687.339	-47.153	0.214	0.105
-686.324	-1.004	0.220	-0.156
-685.310	45.830	-0.109	-0.101
-684.295	-34.637	0.296	-0.163
-683.281	-200.000	0.002	0.152
-682.266	142.082	0.224	0.298
-681.251	800.000	0.024	0.076
-680.237	800.000	-0.087	-0.260
-679.222	-36.837	-0.224	0.120
-678.208	-131.868	-0.204	0.027
-677.193	-4.116	0.111	-0.077
-676.178	-134.584	-0.352	0.043
-675.164	-34.592	-0.168	-0.092
-674.149	-103.564	0.271	0.064
-673.135	-61.857	0.350	0.147
-672.120	-26.826	-0.279	0.164
-671.105	15.073	-0.228	-0.179
-670.091	-36.001	0.128	0.069
-669.076	-42.678	-0.312	0.159
-668.062	-99.644	-0.444	0.111
-667.047	-200.000	0.038	0.188
-666.032	-81.181	-0.224	0.074
-665.018	8.345	0.112	-0.084
-664.003	-122.010	-0.371	-0.061
-662.989	800.000	-0.040	-0.160
-661.974	-111.201	0.043	0.009
-660.959	-200.000	0.028	-0.210
-659.945	-52.087	-0.297	-0.138
-658.930	-200.000	-0.027	-0.165
-657.916	452.555	0.063	-0.139
-656.901	-200.000	-0.069	-0.370
-655.886	-146.554	-0.196	-0.017
-654.872	-144.449	0.120	-0.011
-653.857	-89.437	0.220	-0.065
-652.843	-157.120	-0.222	-0.014
-651.828	-118.441	-0.310	0.055
-650.814	-27.232	-0.127	0.074
-649.799	68.447	-0.162	-0.167
-648.784	235.040	0.013	0.021
-647.770	53.308	-0.274	-0.263
-646.755	463.958	-0.161	-0.360
-645.741	-29.850	0.136	0.077
-644.726	-116.415	-0.293	-0.054
-643.711	179.953	-0.097	-0.142
-642.697	800.000	-0.031	-0.122
-641.682	406.473	-0.040	0.084
-640.668	2.652	-0.283	-0.206
-639.653	325.553	-0.100	-0.191
-638.638	498.307	-0.042	-0.097
-637.624	471.771	-0.080	-0.181
-636.609	-200.000	-0.044	0.270
-635.595	362.353	-0.104	0.208
-634.580	-200.000	-0.011	-0.069
-633.565	-111.733	0.285	0.058
-632.551	230.032	-0.041	0.066
-631.536	54.841	-0.271	0.261
-630.522	508.541	0.089	0.207
-629.507	800.000	-0.010	0.029
-628.492	-200.000	-0.002	0.167
-627.478	-138.355	-0.284	-0.031
-626.463	242.996	-0.102	-0.171
-625.449	477.893	0.021	-0.047
-624.434	-12.693	-0.246	0.160
-623.419	585.819	-0.128	-0.314
-622.405	238.173	0.095	0.157
-621.390	-200.000	-0.010	0.094
-620.376	-115.447	-0.464	-0.087
-619.361	-119.526	0.387	0.067
-618.346	789.469	0.054	-0.148
-617.332	-107.398	-0.189	-0.042
-616.317	-105.595	0.474	0.107
-615.303	96.609	-0.346	0.396
-614.288	355.356	0.064	-0.127
-613.273	364.660	0.099	-0.200
-612.259	142.827	-0.083	0.110
-611.244	-25.546	0.207	-0.122
-610.230	272.992	0.164	-0.289
-609.215	87.894	-0.251	-0.278
-608.201	63.956	-0.103	-0.103
-607.186	198.540	-0.047	-0.072
-606.171	26.986	-0.106	0.089
-605.157	44.240	-0.085	-0.078
-604.142	-200.000	-0.008	0.080
-603.128	395.411	0.058	0.121
-602.113	-91.684	-0.101	0.029
-601.098	-68.292	0.191	-0.074
-600.084	3.454	0.443	0.322
-599.069	-38.886	0.243	-0.128
-598.055	163.778	-0.136	-0.191
-597.040	-1.864	-0.049	-0.035
-596.025	-122.799	0.233	0.038
-595.011	800.000	0.080	-0.234
-593.996	-200.000	-0.057	0.344
-592.982	-83.594	0.408	-0.130
-591.967	25.547	0.158	0.131
-590.952	-200.000	-0.058	-0.305
-589.938	389.486	-0.130	-0.268
-588.923	-147.041	-0.293	-0.025
-587.909	-179.765	0.095	0.002
-586.894	-130.434	-0.380	0.051
-585.879	-32.835	0.155	-0.086
-584.865	88.320	0.013	-0.014
-583.850	-86.277	0.291	-0.089
-582.836	12.601	-0.221	0.170
-581.821	-200.000	-0.014	-0.319
-580.806	194.862	-0.145	0.219
-579.792	-26.230	-0.267	0.156
-578.777	25.126	0.071	-0.059
-577.763	-103.687	0.203	0.047
-576.748	-31.943	-0.084	0.047
-575.733	24.337	-0.112	-0.092
-574.719	-163.976	0.115	-0.005
-573.704	-49.680	0.260	-0.123
-572.690	8.694	0.183	-0.137
-571.675	800.000	-0.086	0.238
-570.661	128.083	-0.060	-0.077
-569.646	800.000	-0.019	-0.061
-568.631	-200.000	0.050	0.351
-567.617	540.237	0.053	0.127
-566.602	-200.000	0.039	0.225
-565.588	240.128	-0.153	0.254
-564.573	-200.000	-0.010	-0.192
-563.558	-105.084	-0.218	-0.050
-562.544	-29.150	0.025	0.015
-561.529	-20.581	-0.297	0.182
-560.515	-176.157	-0.267	0.007
-559.500	800.000	-0.093	0.257
-558.485	-134.077	0.158	-0.019
-557.471	94.382	-0.189	-0.214
-556.456	-174.680	0.115	-0.003
-555.442	-5.956	0.238	-0.162
-554.427	-200.000	0.014	0.166
-553.412	-56.128	0.072	0.032
-552.398	350.943	-0.114	-0.225
-551.383	-81.683	-0.309	-0.101
-550.369	-140.012	0.519	-0.055
-549.354	-78.203	-0.210	0.072
-548.339	117.263	-0.011	-0.014
-547.325	800.000	-0.098	0.355
-546.310	-156.915	0.469	0.029
-545.296	-92.248	0.251	-0.071
-544.281	-19.613	0.030	0.018
-543.266	-130.904	0.376	0.050
-542.252	34.924	-0.117	-0.102
-541.237	-138.859	-0.414	0.045
-540.223	-200.000	0.017	0.205
-539.208	447.043	-0.079	-0.173
-538.193	307.526	-0.185	-0.343
-537.179	800.000	-0.036	0.106
-536.164	-24.721	-0.182	0.108
-535.150	-81.140	0.447	0.147
-534.135	26.750	-0.312	0.260
-533.121	535.023	-0.141	-0.332
-532.106	304.496	-0.200	0.370
-531.091	-123.279	-0.177	0.028
-530.077	-51.205	0.158	-0.074
-529.062	-200.000	-0.015	-0.127
-528.048	73.464	0.158	0.165
-527.033	272.504	0.143	-0.251
-526.018	110.777	-0.090	0.107
-525.004	-59.205	-0.214	0.092
-523.989	800.000	0.045	-0.194
-522.975	-39.411	-0.155	-0.081
-521.960	-0.344	-0.156	-0.111
-520.945	800.000	0.032	-0.089
-519.931	96.372	0.027	-0.031
-518.916	-200.000	-0.005	-0.368
-517.902	-96.559	0.216	0.057
-516.887	388.097	0.069	-0.143
-515.872	800.000	-0.052	-0.205
-514.858	508.504	0.138	0.320
-513.843	-200.000	-0.025	0.257
-512.829	113.946	-0.244	0.295
-511.814	80.431	-0.148	0.159
-510.799	-15.915	0.113	-0.072
-509.785	-200.000	0.011	0.117
-508.770	800.000	0.053	-0.191
-507.756	435.561	0.177	-0.382
-506.741	379.209	-0.136	0.277
-505.726	282.229	0.062	-0.110
-504.712	484.286	-0.048	-0.110
-503.697	-23.124	-0.313	-0.187
-502.683	178.635	0.037	-0.053
-501.668	-200.000	0.043	-0.235
-500.653	800.000	-0.021	-0.063
-499.639	165.663	-0.065	0.091
-498.624	-137.065	-0.356	0.040
-497.610	-90.160	-0.354	-0.102
-496.595	326.213	0.180	0.343
-495.581	-118.201	-0.078	0.014
-494.566	7.612	-0.090	0.067
-493.551	-103.667	-0.306	0.071
-492.537	800.000	-0.151	-0.449
-491.522	-200.000	-0.009	0.173
-490.508	800.000	-0.043	0.161
-489.493	-200.000	-0.066	0.300
-488.478	-200.000	0.048	0.369
-487.464	130.401	0.102	0.130
-486.449	-161.305	0.241	0.012
-485.435	-3.181	-0.053	0.037
-484.420	-92.220	-0.151	0.042
-483.405	12.704	-0.270	-0.207
-482.391	-78.447	0.179	-0.061
-481.376	7.050	0.074	0.055
-480.362	196.130	0.148	0.223
-479.347	46.467	0.163	0.151
-478.332	26.484	0.048	0.040
-477.318	-200.000	-0.011	-0.106
-476.303	800.000	-0.021	-0.074
-475.289	162.031	0.119	0.166
-474.274	788.720	0.078	-0.213
-473.259	-200.000	-0.038	-0.292
-472.245	800.000	-0.092	-0.274
-471.230	-69.680	-0.367	-0.139
-470.216	-200.000	0.001	0.048
-469.201	-129.139	0.282	-0.039
-468.186	800.000	0.059	0.226
-467.172	-121.465	-0.091	-0.015
-466.157	45.535	-0.134	0.123
-465.143	28.248	-0.226	0.190
-464.128	-22.929	-0.109	0.065
-463.113	-165.259	0.274	-0.012
-462.099	-127.314	-0.179	-0.026
-461.084	-184.551	0.029	0.000
-460.070	-88.769	0.213	0.063
-459.055	0.355	0.145	0.103
-458.040	-200.000	-0.078	-0.460
-457.026	-107.260	-0.436	0.095
-456.011	95.627	0.129	-0.147
-454.997	119.808	0.032	-0.040
-453.982	-200.000	0.004	0.221
-452.968	-200.000	-0.045	-0.395
-451.953	-61.827	-0.132	-0.055
-450.938	25.154	-0.078	-0.065
-449.924	-200.000	0.038	0.383
-448.909	-22.209	0.448	0.270
-447.895	107.731	0.065	0.077
-446.880	151.208	0.058	0.079
-445.865	506.309	-0.149	0.344
-444.851	-11.199	-0.078	-0.051
-443.836	-88.114	0.497	-0.148
-442.822	467.363	0.085	0.190
-441.807	-2.295	-0.239	0.166
-440.792	6.078	0.045	0.033
-439.778	-21.042	0.093	0.056
-438.763	-94.877	0.127	-0.034
-437.749	-61.907	0.172	0.071
-436.734	-89.605	-0.012	0.003
-435.719	135.377	0.157	-0.202
-434.705	-31.078	0.212	-0.119
-433.690	296.684	-0.243	-0.442
-432.676	86.721	-0.046	-0.050
-431.661	239.714	0.082	-0.136
-430.646	-48.992	-0.054	0.026
-429.632	800.000	0.093	-0.277
-428.617	-74.027	-0.253	-0.091
-427.603	-119.505	-0.248	0.043
-426.588	775.392	-0.049	-0.133
-425.573	-106.942	-0.258	-0.057
-424.559	40.957	0.245	0.220
-423.544	-184.619	-0.137	0.002
-422.530	198.020	0.084	0.128
-421.515	800.000	-0.029	0.108
-420.500	71.921	-0.240	-0.248
-419.486	83.471	-0.049	0.053
-418.471	727.704	0.104	-0.275
-417.457	54.731	-0.182	0.175
-416.442	-83.447	-0.146	0.046
-415.428	325.353	-0.037	0.071
-414.413	-200.000	0.040	0.272
-413.398	-83.836	0.293	0.092
-412.384	-71.119	-0.364	0.136
-411.369	23.014	-0.211	-0.171
-410.355	274.060	0.012	-0.020
-409.340	-136.423	-0.047	-0.005
-408.325	176.623	-0.073	-0.105
-407.311	397.111	0.113	0.234
-406.296	-200.000	-0.048	-0.310
-405.282	113.854	-0.160	-0.193
-404.267	-200.000	-0.039	0.172
-403.252	-200.000	0.034	0.199
-402.238	38.806	-0.219	0.194
-401.223	-29.255	0.281	-0.159
-400.209	168.563	-0.118	-0.167
-399.194	335.084	0.109	0.210
-398.179	-4.683	0.270	0.185
-397.165	-200.000	0.025	-0.117
-396.150	-98.008	-0.288	-0.074
-395.136	800.000	-0.075	-0.240
-394.121	-200.000	0.059	-0.343
-393.106	-105.543	0.360	0.081
-392.092	-58.511	-0.131	0.056
-391.077	300.234	-0.061	-0.111
-390.063	-47.738	0.132	-0.063
-389.048	37.191	-0.149	0.131
-388.033	345.751	-0.083	0.162
-387.019	162.468	0.072	0.099
-386.004	261.602	0.223	0.382
-384.990	-40.284	-0.212	0.109
-383.975	18.383	-0.010	0.008
-382.960	86.852	0.216	-0.236
-381.946	-188.307	-0.022	-0.000
-380.931	-200.000	0.084	0.454
-379.917	-179.768	0.536	0.011
-378.902	-200.000	-0.010	0.084
-377.888	13.819	0.042	-0.033
-376.873	-200.000	-0.007	0.265
-375.858	-200.000	-0.037	-0.279
-374.844	25.242	-0.086	0.071
-373.829	193.995	0.261	-0.392
-372.815	178.686	0.063	0.092
-371.800	122.972	-0.098	0.121
-370.785	543.971	-0.093	0.221
-369.771	38.900	0.187	-0.165
-368.756	800.000	0.063	-0.240
-367.742	800.000	0.019	0.080
-366.727	99.036	-0.132	0.151
-365.712	-27.854	-0.433	0.248
-364.698	-26.614	-0.194	-0.112
-363.683	-200.000	0.003	0.331
-362.669	-53.560	-0.259	0.117
-361.654	222.203	0.210	-0.335
-360.639	703.739	0.049	0.128
-359.625	83.814	-0.164	-0.177
-358.610	-200.000	-0.043	-0.389
-357.596	212.902	-0.132	0.206
-356.581	-54.218	-0.045	0.020
-355.566	67.109	0.250	-0.252
-354.552	-43.129	0.356	-0.178
-353.537	-61.012	-0.120	-0.050
-352.523	-62.701	-0.199	0.082
-351.508	262.794	0.090	0.155
-350.493	-131.260	-0.390	-0.051
-349.479	-58.057	-0.206	0.089
-348.464	-157.929	0.641	-0.037
-347.450	-119.380	-0.114	0.020
-346.435	-86.051	0.298	0.091
-345.420	-112.579	-0.196	-0.039
-344.406	-200.000	-0.030	0.257
-343.391	-166.974	0.066	-0.003
-342.377	-200.000	-0.029	0.298
-341.362	-120.887	0.124	0.021
-340.348	-7.490	0.067	-0.045
-339.333	-9.643	0.141	0.093
-338.318	-85.646	-0.273	-0.084
-337.304	37.021	-0.293	-0.257
-336.289	110.018	0.038	-0.045
-335.275	800.000	0.033	0.128
-334.260	184.694	-0.043	0.063
-333.245	-39.613	-0.325	-0.168
-332.231	-126.740	0.258	0.038
-331.216	-124.391	0.121	-0.019
-330.202	-44.435	0.388	-0.192
-329.187	388.803	-0.118	-0.242
-328.172	406.250	-0.047	-0.098
-327.158	800.000	-0.040	0.170
-326.143	11.945	-0.163	0.124
-325.129	71.991	0.218	0.224
-324.114	82.431	-0.203	-0.218
-323.099	343.102	-0.087	0.168
-322.085	167.773	-0.167	0.235
-321.070	-200.000	-0.044	0.351
-320.056	-8.066	0.259	0.172
-319.041	-200.000	-0.290	0.001
-318.026	-133.070	-0.163	-0.020
-317.012	-23.580	-0.110	-0.065
-315.997	-71.768	0.421	-0.155
-314.983	665.517	-0.157	0.400
-313.968	-86.274	0.317	0.096
-312.953	239.868	0.096	0.158
-311.939	-200.000	-0.049	-0.237
-310.924	-122.544	0.296	-0.047
-309.910	672.542	0.130	0.333
-308.895	-100.735	-0.218	0.053
-307.880	-200.000	-0.066	0.309
-306.866	-200.000	0.007	0.230
-305.851	45.219	0.128	0.117
-304.837	-108.427	0.345	0.073
-303.822	48.099	0.294	-0.271
-302.807	-200.000	-0.016	-0.210
-301.793	113.194	0.103	-0.123
-300.778	-200.000	-0.015	-0.137
-299.764	-63.515	-0.357	-0.145
-298.749	-147.104	-0.070	-0.006
-297.735	83.971	-0.210	-0.226
-296.720	800.000	0.077	-0.216
-295.705	324.837	-0.027	-0.051
-294.691	-200.000	0.039	-0.386
-293.676	290.909	0.140	0.250
-292.662	-119.588	-0.085	0.015
-291.647	79.466	0.066	-0.070
-290.632	-129.017	0.396	0.055
-289.618	31.000	0.250	-0.212
-288.603	-142.810	0.150	-0.014
-287.589	-45.268	-0.136	0.066
-286.574	-4.891	0.294	0.200
-285.559	326.245	-0.060	0.114
-284.545	800.000	0.031	0.098
-283.530	-90.069	-0.087	-0.025
-282.516	184.927	0.061	-0.089
-281.501	-3.265	0.265	0.182
-280.486	-7.818	0.222	-0.148
-279.472	-155.697	0.127	-0.008
-278.457	-120.404	-0.297	-0.050
-277.443	-158.122	0.255	-0.015
-276.428	31.656	-0.205	0.174
-275.413	800.000	-0.058	0.242
-274.399	-200.000	0.011	-0.264
-273.384	168.047	0.093	-0.130
-272.370	-157.717	0.280	-0.016
-271.355	60.223	0.278	0.271
-270.340	272.485	-0.078	0.135
-269.326	55.898	0.188	0.180
-268.311	-95.335	0.151	0.040
-267.297	-200.000	-0.051	0.225
-266.282	-156.083	0.129	0.008
-265.267	-56.928	0.341	0.149
-264.253	-68.701	0.047	0.018
-263.238	53.870	-0.304	0.288
-262.224	-200.000	0.005	-0.207
-261.209	-101.488	-0.210	-0.050
-260.195	-88.986	-0.111	-0.032
-259.180	496.915	0.115	-0.262
-258.165	-94.567	0.302	-0.081
-257.151	-83.319	-0.150	0.047
-256.136	-200.000	-0.014	0.280
-255.122	-97.899	0.201	0.051
-254.107	-200.000	0.011	-0.099
-253.092	467.596	-0.017	-0.038
-252.078	800.000	0.004	0.012
-251.063	80.199	0.214	0.227
-250.049	-0.426	0.249	0.174
-249.034	34.179	-0.214	-0.184
-248.019	-111.117	-0.154	-0.031
-247.005	245.498	-0.173	0.287
-245.990	26.682	-0.300	0.248
-244.976	-200.000	-0.043	-0.313
-243.961	113.061	0.221	-0.264
-242.946	-152.879	-0.267	-0.019
-241.932	-104.782	0.337	0.076
-240.917	-109.752	0.104	0.022
-239.903	-89.109	-0.345	0.100
-238.888	210.570	0.106	-0.164
-237.873	89.938	0.264	-0.290
-236.859	28.172	-0.074	0.062
-235.844	95.415	0.157	0.176
-234.830	402.759	-0.055	-0.114
-233.815	-200.000	-0.021	-0.144
-232.800	354.432	0.106	-0.208
-231.786	-105.430	0.340	0.076
-230.771	-200.000	-0.001	-0.261
-229.757	26.461	0.058	0.047
-228.742	31.817	0.121	-0.102
-227.727	445.460	0.070	0.152
-226.713	-200.000	-0.050	0.258
-225.698	-151.010	-0.074	0.006
-224.684	-200.000	-0.037	-0.305
-223.669	9.031	0.158	-0.118
-222.655	141.188	-0.233	0.304
-221.640	-160.336	0.238	-0.013
-220.625	175.279	-0.280	0.400
-219.611	-11.149	0.149	-0.097
-218.596	311.599	-0.022	-0.040
-217.582	60.404	-0.099	0.096
-216.567	86.696	-0.105	0.114
-215.552	28.571	-0.116	-0.096
-214.538	106.936	0.103	-0.121
-213.523	-200.000	0.007	0.187
-212.509	-75.272	-0.213	-0.075
-211.494	-56.721	0.126	-0.055
-210.479	163.983	0.130	0.181
-209.465	-114.135	-0.186	-0.035
-208.450	-200.000	-0.029	0.195
-207.436	-52.224	0.191	-0.087
-206.421	-70.845	0.066	0.025
-205.406	18.453	-0.185	0.145
-204.392	-68.217	0.369	-0.141
-203.377	133.032	-0.124	-0.157
-202.363	800.000	-0.013	-0.047
-201.348	411.012	0.091	0.190
-200.333	-118.071	0.321	-0.056
-199.319	366.997	-0.039	-0.077
-198.304	-125.737	-0.189	-0.028
-197.290	143.103	-0.063	0.082
-196.275	800.000	0.098	-0.303
-195.260	800.000	0.141	-0.456
-194.246	-23.934	-0.113	-0.067
-193.231	85.382	0.171	-0.184
-192.217	-200.000	0.043	-0.264
-191.202	800.000	-0.161	0.472
-190.187	-85.121	-0.130	-0.040
-189.173	-200.000	0.004	0.153
-188.158	-70.058	-0.205	0.077
-187.144	-152.859	0.113	-0.008
-186.129	25.438	0.118	-0.096
-185.114	190.243	0.091	0.134
-184.100	-53.439	0.124	0.056
-183.085	-200.000	0.084	0.389
-182.071	391.724	0.143	-0.293
-181.056	330.569	0.018	0.034
-180.042	369.421	0.095	-0.188
-179.027	-105.212	0.054	-0.012
-178.012	800.000	0.125	-0.445
-176.998	28.619	-0.150	0.125
-175.983	-12.675	-0.147	-0.094
-174.969	-59.086	0.080	0.034
-173.954	-38.711	-0.195	-0.101
-172.939	-30.110	0.290	-0.162
-171.925	123.945	-0.093	-0.115
-170.910	-200.000	-0.078	0.363
-169.896	-107.866	0.107	0.023
-168.881	84.621	0.099	-0.107
-167.866	-27.162	-0.114	-0.065
-166.852	-200.000	-0.029	0.190
-165.837	583.532	0.080	0.193
-164.823	-200.000	-0.021	-0.290
-163.808	132.399	0.121	-0.153
-162.793	-62.627	-0.111	0.045
-161.779	-200.000	0.012	-0.085
-160.764	-200.000	-0.031	-0.221
-159.750	-200.000	0.013	0.064
-158.735	-65.430	-0.124	-0.049
-157.720	-152.212	0.370	-0.026
-156.706	-47.583	-0.126	-0.060
-155.691	-111.247	-0.387	0.078
-154.677	654.066	0.041	0.103
-153.662	-200.000	0.004	-0.240
-152.647	-65.470	0.040	0.016
-151.633	-40.652	-0.253	-0.129
-150.618	117.977	-0.060	-0.072
-149.604	-200.000	-0.022	-0.103
-148.589	-155.436	0.573	0.036
-147.574	-200.000	0.001	-0.157
-146.560	800.000	0.062	-0.249
-145.545	-200.000	0.065	0.340
-144.531	227.365	-0.107	0.171
-143.516	347.630	0.198	0.383
-142.502	-108.872	-0.178	-0.037
-141.487	800.000	-0.091	-0.304
-140.472	31.572	-0.071	0.060
-139.458	51.597	0.135	0.126
-138.443	620.295	0.052	-0.128
-137.429	-177.347	0.171	0.004
-136.414	393.793	0.045	0.092
-135.399	175.423	0.016	0.022
-134.385	189.180	-0.116	0.171
-133.370	-56.471	0.245	-0.106
-132.356	19.372	0.382	0.301
-131.341	-87.494	-0.118	0.035
-130.326	78.618	0.077	-0.081
-129.312	-200.000	-0.039	-0.278
-128.297	-61.160	0.046	-0.019
-127.283	-200.000	0.015	0.209
-126.268	-200.000	0.045	-0.223
-125.253	-145.547	0.164	-0.014
-124.239	800.000	0.051	0.192
-123.224	-200.000	-0.002	-0.018
-122.210	-32.099	-0.212	-0.116
-121.195	-129.667	-0.099	-0.013
-120.180	800.000	-0.071	0.293
-119.166	493.141	-0.081	-0.182
-118.151	124.302	0.210	-0.259
-117.137	-200.000	-0.035	0.195
-116.122	-97.885	0.389	-0.099
-115.107	-200.000	0.004	0.104
-114.093	265.276	0.255	0.435
-113.078	-6.538	-0.081	-0.054
-112.064	-59.680	-0.088	-0.037
-111.049	800.000	0.156	-0.489
-110.034	-80.659	-0.123	0.040
-109.020	-200.000	0.003	-0.278
-108.005	142.009	-0.047	0.061
-106.991	-18.699	0.248	-0.152
-105.976	800.000	-0.052	0.201
-104.962	-82.292	0.149	0.048
-103.947	35.285	0.279	-0.240
-102.932	-47.894	0.079	0.038
-101.918	-125.748	-0.203	-0.030
-100.903	-42.228	0.442	-0.221
-99.889	-99.446	0.132	0.033
-98.874	-13.194	-0.287	0.183
-97.859	-85.359	0.162	0.050
-96.845	-75.017	0.235	-0.082
-95.830	-97.029	-0.116	0.030
-94.816	59.720	0.366	-0.354
-93.801	-200.000	0.076	0.000
-92.786	78.555	0.159	-0.167
-91.772	-183.376	-0.140	0.002
-90.757	178.571	0.163	-0.233
-89.743	325.307	0.163	0.305
-88.728	-89.813	0.075	0.021
-87.713	-118.196	0.693	0.121
-86.699	-113.235	0.369	0.071
-85.684	292.669	0.121	0.217
-84.670	171.670	-0.084	0.118
-83.655	142.406	0.047	0.061
-82.640	-200.000	-0.024	0.219
-81.626	-200.000	-0.006	0.216
-80.611	-41.027	-0.148	-0.075
-79.597	790.936	-0.030	-0.080
-78.582	-92.452	0.177	0.049
-77.567	-2.182	0.229	-0.158
-76.553	800.000	0.034	0.111
-75.538	-200.000	0.082	-0.419
-74.524	-200.000	-0.032	-0.209
-73.509	-200.000	-0.002	0.165
-72.494	159.974	-0.011	0.015
-71.480	772.285	-0.103	0.274
-70.465	-200.000	-0.013	0.156
-69.451	99.486	-0.195	0.221
-68.436	43.176	-0.308	-0.275
-67.422	800.000	-0.043	0.167
-66.407	85.064	-0.059	0.063
-65.392	-20.423	0.239	-0.144
-64.378	69.981	0.220	0.222
-63.363	-90.988	0.221	-0.062
-62.349	-144.865	-0.271	0.024
-61.334	62.285	-0.928	-0.906
-60.319	-25.603	0.746	0.431
-59.305	800.000	-0.515	-1.478
-58.290	139.664	0.749	0.965
-57.276	472.692	0.702	1.546
-56.261	-200.000	117.653	641.933
-55.246	482.727	1552.294	3449.721
-54.232	174.008	2719.779	3841.395
-53.217	103.432	2152.914	2469.686
-52.203	37.567	1586.129	1376.035
-51.188	29.614	1328.727	1105.329
-50.173	26.688	1290.102	1056.127
-49.159	52.035	1349.428	1256.742
-48.144	50.667	1362.557	1260.767
-47.130	29.616	1316.266	1094.799
-46.115	26.253	1298.294	1060.110
-45.100	26.064	1293.208	1054.810
-44.086	26.006	1290.991	1052.621
-43.071	25.957	1288.666	1050.397
-42.057	26.029	1286.300	1048.846
-41.042	25.976	1285.095	1047.517
-40.027	26.044	1283.448	1046.523
-39.013	26.051	1280.924	1044.467
-37.998	26.075	1279.901	1043.731
-36.984	26.183	1277.718	1042.530
-35.969	26.116	1276.094	1040.779
-34.954	26.188	1274.448	1039.808
-33.940	26.267	1272.744	1038.832
-32.925	26.171	1271.675	1037.367
-31.911	26.280	1270.101	1036.667
-30.896	26.238	1269.006	1035.490
-29.881	26.248	1267.312	1034.124
-28.867	26.332	1265.863	1033.382
-27.852	26.248	1264.646	1031.867
-26.838	26.375	1262.892	1031.120
-25.823	26.384	1261.744	1030.192
-24.809	26.267	1260.596	1028.549
-23.794	26.207	1259.623	1027.373
-22.779	26.257	1258.032	1026.317
-21.765	26.239	1256.886	1025.241
-20.750	26.275	1255.632	1024.382
-19.736	26.030	1254.404	1021.951
-18.721	26.145	1252.738	1021.206
-17.706	26.164	1251.867	1020.559
-16.692	26.242	1250.571	1019.905
-15.677	26.198	1249.510	1018.749
-14.663	26.188	1248.158	1017.552
-13.648	26.128	1247.523	1016.654
-12.633	26.108	1246.602	1015.751
-11.619	26.064	1245.600	1014.651
-10.604	26.111	1244.922	1014.322
-9.590	26.105	1243.862	1013.380
-8.575	26.142	1242.647	1012.560
-7.560	26.164	1242.011	1012.125
-6.546	26.184	1241.058	1011.420
-5.531	26.221	1240.087	1010.794
-4.517	26.166	1239.310	1009.813
-3.502	26.132	1238.504	1008.928
-2.487	26.190	1237.184	1008.135
-1.473	26.030	1233.658	1004.335
-0.458	24.536	1218.419	983.662
0.556	22.630	1202.395	947.113
1.571	18.997	1208.614	932.274
2.586	18.271	1222.997	939.298
3.600	18.188	1211.423	929.879
4.615	14.035	1140.799	854.289
5.629	7.134	1070.469	768.165
6.644	4.347	1052.221	741.696
7.659	4.018	1050.437	738.802
8.673	3.859	1048.642	736.720
9.688	3.967	1047.334	736.249
10.702	4.281	1045.559	736.428
11.717	8.659	1051.480	761.399
12.731	16.246	1062.329	805.523
13.746	21.052	1068.335	833.017
14.761	22.280	1068.692	839.085
15.775	21.393	1067.708	834.008
16.790	20.492	1065.622	828.014
17.804	19.950	1063.819	823.962
18.819	19.616	1063.389	821.964
19.834	19.530	1062.757	820.996
20.848	19.623	1062.471	821.145
21.863	19.378	1061.350	819.041
22.877	19.249	1060.555	817.745
23.892	19.245	1059.787	817.060
24.907	19.171	1059.063	816.078
25.921	19.141	1058.124	815.141
26.936	19.215	1056.922	814.490
27.950	19.201	1055.277	813.087
28.965	19.151	1054.314	812.035
29.980	19.450	1052.484	811.961
30.994	19.499	1051.848	811.631
32.009	19.468	1051.545	811.181
33.023	19.563	1049.736	810.158
34.038	19.448	1048.669	808.725
35.053	19.258	1048.025	807.267
36.067	19.259	1046.963	806.380
37.082	19.346	1046.105	806.054
38.096	19.420	1045.889	806.161
39.111	19.406	1045.192	805.488
40.126	19.233	1043.498	803.304
41.140	18.872	1041.840	800.278
42.155	18.900	1040.227	799.098
43.169	18.755	1040.087	798.244
44.184	18.749	1038.870	797.213
45.199	18.771	1038.400	796.884
46.213	18.936	1037.283	796.719
47.228	19.194	1036.155	796.977
48.242	19.295	1035.369	796.768
49.257	19.078	1034.708	795.188
50.271	19.425	1033.750	795.983
51.286	19.459	1032.772	795.318
52.301	19.233	1031.878	793.519
53.315	19.133	1030.546	791.962
54.330	18.976	1029.306	790.218
55.344	18.872	1029.125	789.531
56.359	18.997	1028.151	789.286
57.374	18.936	1027.184	788.199
58.388	18.779	1026.340	786.761
59.403	18.733	1025.416	785.773
60.417	18.746	1024.328	784.928
61.432	18.767	1023.677	784.457
62.447	18.620	1022.801	783.045
63.461	18.510	1022.160	781.983
64.476	18.447	1021.250	780.929
65.490	18.475	1020.128	780.132
66.505	18.582	1020.032	780.472
67.520	18.635	1019.194	780.006
68.534	18.614	1018.293	779.151
69.549	18.596	1017.462	778.365
70.563	18.524	1016.536	777.259
71.578	18.362	1015.653	775.784
72.593	18.232	1014.826	774.495
73.607	18.087	1014.568	773.571
74.622	18.271	1014.012	773.912
75.636	18.312	1013.228	773.429
76.651	18.432	1012.347	773.232
77.666	18.471	1011.615	772.780
78.680	18.411	1011.029	771.993
79.695	18.441	1010.611	771.742
80.709	18.701	1009.973	772.355
81.724	18.751	1009.407	772.077
82.739	18.878	1008.933	772.218
83.753	19.271	1008.390	773.500
84.768	19.478	1007.975	774.040
85.782	19.765	1006.794	774.352
86.797	19.687	1006.156	773.445
87.812	19.381	1004.907	771.046
88.826	19.444	1003.869	770.462
89.841	19.512	1003.345	770.299
90.855	19.640	1002.537	770.179
91.870	19.481	1002.242	769.176
92.884	19.581	1000.690	768.364
93.899	19.470	1000.329	767.521
94.914	19.549	999.440	767.123
95.928	19.557	998.621	766.462
96.943	19.377	997.893	765.039
97.957	19.333	996.614	763.796
98.972	19.453	995.614	763.493
99.987	19.460	994.862	762.879
101.001	19.399	993.774	761.706
102.016	19.451	992.413	760.825
103.030	19.433	991.940	760.317
104.045	19.443	990.980	759.557
105.060	19.343	990.334	758.553
106.074	18.901	989.196	755.672
107.089	18.694	987.641	753.509
108.103	18.636	986.500	752.319
109.118	18.589	985.985	751.652
110.133	18.616	985.086	751.018
111.147	18.440	983.932	749.302
112.162	18.645	983.168	749.550
113.176	18.807	983.050	750.102
114.191	18.973	981.789	749.797
115.206	18.817	981.252	748.642
116.220	18.772	980.433	747.756
117.235	18.836	979.231	747.049
118.249	18.548	979.009	745.563
119.264	18.566	978.355	745.078
120.279	18.582	977.139	744.156
121.293	18.472	976.168	742.871
122.308	18.364	975.342	741.711
123.322	18.286	974.372	740.571
124.337	18.268	973.077	739.441
125.352	18.362	972.219	739.132
126.366	18.390	970.897	738.182
127.381	18.502	970.471	738.272
128.395	18.462	969.498	737.294
129.410	18.666	967.999	736.969
130.424	18.573	967.978	736.489
131.439	18.898	966.772	736.896
132.454	18.739	966.566	735.994
133.468	18.838	965.852	735.807
134.483	18.857	964.817	735.037
135.497	18.880	963.839	734.324
136.512	18.727	963.427	733.291
137.527	18.931	962.363	733.289
138.541	18.814	962.100	732.523
139.556	18.857	960.998	731.802
140.570	19.179	960.531	732.751
141.585	19.425	960.313	733.570
142.600	19.463	959.173	732.793
143.614	19.440	958.712	732.278
144.629	19.619	957.520	732.061
145.643	19.588	956.535	731.114
146.658	19.201	955.763	728.820
147.673	18.929	954.836	726.900
148.687	18.988	953.377	725.974
149.702	18.906	952.700	725.047
150.716	19.020	951.437	724.504
151.731	18.963	951.023	723.884
152.746	18.985	950.673	723.648
153.760	19.122	950.079	723.708
154.775	19.194	949.700	723.656
155.789	19.288	948.823	723.317
156.804	19.273	947.956	722.532
157.819	19.269	947.441	722.059
158.833	19.545	947.112	722.899
159.848	19.624	946.557	722.740
160.862	19.385	945.160	720.614
161.877	19.112	943.587	718.211
162.892	18.981	942.518	716.787
163.906	18.926	941.349	715.608
164.921	18.885	940.756	714.922
165.935	18.842	940.466	714.457
166.950	19.046	939.699	714.660
167.964	19.157	938.210	713.927
168.979	18.955	937.401	712.408
169.994	18.950	936.887	711.934
171.008	19.151	936.365	712.308
172.023	19.397	935.851	712.869
173.037	19.594	934.969	712.947
174.052	19.232	934.077	710.712
175.067	19.030	933.461	709.349
176.081	18.914	932.509	708.084
177.096	18.754	932.253	707.167
178.110	18.949	931.316	707.196
179.125	18.967	930.533	706.613
180.140	19.090	930.394	706.952
181.154	19.167	930.496	707.280
182.169	19.485	929.762	707.968
183.183	19.382	929.406	707.209
184.198	19.449	928.473	706.713
185.213	19.349	927.611	705.584
186.227	19.528	927.220	705.955
187.242	19.609	926.781	705.890
188.256	19.624	925.966	705.267
189.271	19.797	925.038	705.204
190.286	19.385	924.041	702.702
191.300	18.858	922.928	699.651
192.315	18.706	922.325	698.513
193.329	18.848	921.922	698.723
194.344	18.856	922.023	698.772
195.359	19.172	921.316	699.457
196.373	19.204	920.485	698.892
197.388	19.406	920.337	699.540
198.402	19.571	920.014	699.900
199.417	19.752	919.164	699.925
200.432	19.950	918.515	700.169
201.446	20.034	918.222	700.221
202.461	20.113	917.832	700.181
203.475	19.773	917.083	698.176
204.490	19.646	915.807	696.631
205.504	19.567	915.052	695.677
206.519	19.397	914.239	694.313
207.534	19.500	913.547	694.141
208.548	19.449	913.020	693.475
209.563	19.598	912.265	693.437
210.577	19.661	911.623	693.141
211.592	19.829	911.293	693.501
212.607	19.991	910.453	693.452
213.621	19.734	910.294	692.239
214.636	19.735	909.060	691.245
215.650	19.849	908.462	691.183
216.665	19.959	907.735	691.010
217.680	20.161	907.257	691.388
218.694	20.034	906.910	690.557
219.709	19.932	906.399	689.699
220.723	20.036	905.430	689.317
221.738	19.943	904.546	688.213
222.753	19.913	904.155	687.734
223.767	20.095	904.047	688.315
224.782	20.193	903.705	688.381
225.796	20.235	902.999	687.950
226.811	19.982	902.020	686.141
227.826	19.897	901.145	685.079
228.840	19.832	900.116	683.979
229.855	19.845	899.493	683.498
230.869	19.764	898.910	682.674
231.884	19.741	898.013	681.841
232.899	19.546	897.431	680.571
233.913	19.442	896.746	679.580
234.928	19.500	895.915	679.119
235.942	19.362	895.939	678.533
236.957	19.575	894.885	678.514
237.972	19.593	894.175	677.984
238.986	19.562	893.441	677.249
240.001	19.645	892.862	677.072
241.015	19.689	892.612	676.995
242.030	19.733	892.245	676.831
243.045	19.952	891.391	676.980
244.059	19.738	891.296	676.010
245.074	20.002	890.574	676.435
246.088	20.023	890.071	676.074
247.103	20.360	889.374	676.800
248.117	20.398	889.444	676.939
249.132	20.586	889.375	677.558
250.147	20.815	888.908	678.037
251.161	20.920	888.286	677.912
252.176	20.871	887.445	677.018
253.190	20.944	887.078	676.961
254.205	20.883	886.347	676.107
255.220	21.053	885.304	675.912
256.234	20.888	884.962	674.950
257.249	20.848	883.916	673.940
258.263	20.672	883.396	672.803
259.278	20.846	882.647	672.842
260.293	20.899	882.303	672.728
261.307	20.928	881.793	672.389
262.322	21.073	881.369	672.566
263.336	21.023	880.189	671.412
264.351	21.101	879.556	671.173
265.366	20.957	879.206	670.293
266.380	20.994	878.296	669.680
267.395	20.906	877.568	668.727
268.409	20.845	876.796	667.847
269.424	20.885	875.720	667.121
270.439	20.734	875.370	666.218
271.453	20.600	874.737	665.165
272.468	20.566	874.621	664.889
273.482	20.608	873.533	664.164
274.497	20.703	872.870	663.963
275.512	20.608	872.186	663.020
276.526	20.706	872.038	663.222
277.541	20.730	871.925	663.169
278.555	20.938	871.311	663.435
279.570	21.209	870.445	663.750
280.585	21.165	869.716	662.966
281.599	20.854	869.091	661.253
282.614	20.713	868.274	660.037
283.628	20.756	867.462	659.524
284.643	20.754	866.753	658.919
285.657	20.710	866.352	658.391
286.672	20.798	865.956	658.363
287.687	20.832	865.557	658.128
288.701	20.828	864.729	657.428
289.716	20.861	864.334	657.192
290.730	21.038	863.298	657.013
291.745	20.975	862.791	656.331
292.760	21.099	862.515	656.530
293.774	21.216	862.190	656.665
294.789	21.053	861.138	655.194
295.803	20.852	860.170	653.644
296.818	20.862	859.703	653.268
297.833	20.981	858.905	653.052
298.847	20.899	858.359	652.274
299.862	20.927	858.617	652.515
300.876	21.066	857.870	652.408
301.891	21.262	857.453	652.768
302.906	21.338	857.203	652.802
303.920	21.449	856.707	652.781
304.935	21.698	855.701	652.885
305.949	21.513	854.908	651.535
306.964	21.142	854.417	649.721
307.979	21.253	854.145	649.871
308.993	21.401	853.270	649.695
310.008	21.437	852.992	649.563
311.022	21.223	852.290	648.173
312.037	21.171	851.758	647.520
313.052	21.043	850.685	646.171
314.066	20.929	850.008	645.178
315.081	20.855	849.405	644.390
316.095	20.827	848.749	643.734
317.110	20.858	848.259	643.420
318.125	20.935	847.826	643.318
319.139	20.875	847.370	642.693
320.154	20.963	847.248	642.867
321.168	20.875	846.516	641.932
322.183	21.141	845.567	642.134
323.197	21.095	845.587	641.926
324.212	21.077	844.587	641.044
325.227	21.066	844.069	640.551
326.241	20.970	843.793	639.932
327.256	21.052	842.852	639.461
328.270	21.035	842.313	638.936
329.285	20.963	841.567	638.051
330.300	20.845	841.505	637.516
331.314	20.912	841.020	637.337
332.329	21.165	840.566	637.859
333.343	21.286	840.006	637.821
334.358	21.229	839.836	637.424
335.373	21.361	839.216	637.379
336.387	21.418	838.876	637.273
337.402	21.580	839.137	638.006
338.416	21.636	838.791	637.891
339.431	21.711	838.572	637.942
340.446	21.886	838.059	638.131
341.460	21.833	837.903	637.764
342.475	21.887	837.327	637.462
343.489	21.880	837.115	637.221
344.504	22.102	836.485	637.490
345.519	22.309	835.725	637.606
346.533	22.021	835.388	636.249
347.548	21.757	834.626	634.655
348.562	21.568	833.454	633.024
349.577	21.374	833.311	632.157
350.592	21.351	832.531	631.428
351.606	21.218	831.576	630.169
352.621	21.492	830.915	630.599
353.635	21.461	830.862	630.390
354.650	21.577	829.720	629.886
355.665	21.641	829.258	629.711
356.679	21.746	828.792	629.678
357.694	21.682	828.062	628.838
358.708	21.803	827.470	628.768
359.723	21.654	827.270	628.025
360.738	21.761	826.616	627.855
361.752	21.857	825.784	627.511
362.767	21.980	825.464	627.651
363.781	22.053	825.218	627.671
364.796	22.098	825.154	627.728
365.810	22.355	824.471	628.070
366.825	22.429	824.291	628.143
367.840	22.340	823.685	627.306
368.854	22.161	823.024	626.111
369.869	22.198	822.146	625.519
370.883	22.078	822.142	625.034
371.898	22.216	821.818	625.222
372.913	22.423	821.028	625.303
373.927	22.238	820.288	624.026
374.942	22.248	820.236	623.966
375.956	22.334	820.442	624.374
376.971	22.538	819.763	624.525
377.986	22.518	819.129	623.916
379.000	22.690	818.258	623.806
380.015	22.507	818.174	623.038
381.029	22.400	817.629	622.190
382.044	22.429	816.957	621.726
383.059	22.687	816.121	621.944
384.073	22.408	815.441	620.388
385.088	22.278	814.657	619.281
386.102	22.005	813.893	617.684
387.117	22.161	813.315	617.740
388.132	22.089	812.903	617.119
389.146	22.053	812.834	616.887
390.161	22.307	812.633	617.570
391.175	22.407	812.033	617.411
392.190	22.109	811.366	615.805
393.205	22.212	810.599	615.527
394.219	21.983	810.151	614.332
395.234	21.953	809.781	613.891
396.248	21.842	809.369	613.138
397.263	21.700	808.992	612.300
398.278	21.871	808.345	612.354
399.292	21.742	808.080	611.650
400.307	21.798	807.449	611.312
401.321	21.891	807.242	611.426
402.336	22.012	806.846	611.494
403.350	22.256	806.002	611.649
404.365	22.317	806.179	611.941
405.380	22.541	805.437	612.100
406.394	22.708	805.071	612.349
407.409	22.805	804.542	612.229
408.423	22.640	804.488	611.561
409.438	22.855	804.199	612.032
410.453	22.814	803.821	611.548
411.467	22.901	803.092	611.242
412.482	22.960	803.065	611.372
413.496	22.952	802.943	611.196
414.511	23.012	802.091	610.701
415.526	22.962	801.342	609.903
416.540	22.776	801.130	609.046
417.555	23.067	800.550	609.556
418.569	22.905	800.420	608.844
419.584	22.927	800.085	608.610
420.599	22.868	799.632	608.011
421.613	165.276	1371.393	1797.275
422.628	143.608	1454.690	1797.334
