DTS Sentinel unit serial number:	SN413079Multiplexer serial number:	ORYXHardware model number:	OX4-SRSoftware version number:	ORYX F/W v4.00 Oryx Data Collector v3.7.2.0data status	okinstallation	princeton_trtdifferential loss correction	single-endedforward channel	channel 1reverse channel	N/Adate	2019/09/12time	10:12:11forward acquisition time	60.00reverse acquisition time	0.00gamma	496.2192k internal	0.2298k external	0.2298temperature offset calibration	1.0042default loss term (dB/km)	0.3790temperature slope calibration	1.0000multiplexer offset coefficient	1.0000multiplexer slope coefficient	1.0000fibre end	0.00T internal ref (°C)	36.44T ext. ref 1 (°C)	1.83T ext. ref 2 (°C)	33.34length (m)	temperature (°C)	Stokes	anti-Stokes-747.200	-137.826	0.045	-0.005
-746.185	586.194	-0.027	0.067
-745.171	-141.312	0.240	0.025
-744.156	-200.000	-0.069	0.517
-743.142	-147.770	-0.277	0.024
-742.127	278.946	-0.197	0.358
-741.112	-200.000	0.014	-0.300
-740.098	-120.142	-0.496	-0.087
-739.083	245.595	-0.109	0.187
-738.069	-48.624	-0.264	0.129
-737.054	0.466	-0.104	0.076
-736.039	-71.434	0.127	-0.049
-735.025	62.104	0.059	-0.060
-734.010	435.129	-0.105	0.232
-732.996	176.481	-0.181	-0.269
-731.981	-200.000	0.016	0.107
-730.966	-200.000	0.014	0.108
-729.952	-26.519	0.248	-0.148
-728.937	-200.000	0.016	0.080
-727.923	-17.853	-0.096	0.061
-726.908	800.000	0.038	0.162
-725.894	-200.000	0.037	-0.301
-724.879	-27.097	-0.286	-0.170
-723.864	-8.509	0.154	-0.106
-722.850	800.000	0.115	0.352
-721.835	-110.012	-0.303	-0.065
-720.821	549.220	0.067	-0.165
-719.806	800.000	-0.113	-0.361
-718.791	-133.653	-0.369	-0.047
-717.777	485.107	-0.094	-0.219
-716.762	-27.333	-0.062	0.037
-715.748	25.046	-0.195	-0.165
-714.733	-200.000	-0.021	0.254
-713.718	-15.827	0.039	0.026
-712.704	-130.819	0.141	0.019
-711.689	208.156	-0.050	-0.080
-710.675	-200.000	-0.058	-0.286
-709.660	-99.886	0.178	-0.045
-708.645	-200.000	0.009	0.391
-707.631	79.990	-0.362	-0.396
-706.616	800.000	0.030	-0.130
-705.602	-200.000	0.010	0.153
-704.587	-200.000	0.004	0.185
-703.572	-193.243	0.082	-0.001
-702.558	-200.000	-0.014	-0.238
-701.543	62.501	-0.016	0.017
-700.529	-5.118	0.313	0.219
-699.514	-108.650	-0.214	0.047
-698.499	-66.752	0.198	-0.080
-697.485	-118.145	0.078	-0.014
-696.470	99.995	0.157	-0.185
-695.456	-200.000	0.010	-0.206
-694.441	326.621	-0.115	0.225
-693.426	124.138	0.322	0.412
-692.412	-200.000	-0.046	0.300
-691.397	-82.654	0.097	0.032
-690.383	-22.260	0.474	-0.293
-689.368	-13.389	-0.200	-0.132
-688.354	14.013	-0.299	0.237
-687.339	734.771	0.033	0.090
-686.324	218.361	0.085	0.137
-685.310	-95.415	-0.236	-0.065
-684.295	-124.360	-0.056	-0.009
-683.281	168.763	-0.176	0.256
-682.266	25.700	0.158	-0.134
-681.251	-149.364	-0.209	0.017
-680.237	-101.783	-0.336	-0.083
-679.222	14.344	-0.176	-0.140
-678.208	53.579	0.115	-0.113
-677.193	-129.108	-0.302	0.043
-676.178	-200.000	0.006	-0.151
-675.164	-92.133	-0.136	0.039
-674.149	301.474	0.121	-0.228
-673.135	-200.000	-0.021	0.124
-672.120	-98.096	-0.188	-0.049
-671.105	-104.129	0.062	-0.015
-670.091	-55.757	0.275	-0.125
-669.076	67.388	0.212	-0.220
-668.062	338.211	0.101	-0.199
-667.047	-153.676	0.333	0.023
-666.032	115.873	0.131	0.163
-665.018	-111.340	-0.272	0.057
-664.003	129.324	-0.245	-0.319
-662.989	0.048	0.158	0.115
-661.974	-141.221	-0.367	-0.038
-660.959	79.178	0.127	-0.138
-659.945	-136.992	0.237	-0.028
-658.930	89.884	-0.028	-0.032
-657.916	358.914	-0.050	-0.101
-656.901	800.000	-0.112	0.394
-655.886	517.133	-0.035	-0.084
-654.872	234.316	-0.127	-0.212
-653.857	800.000	0.026	0.080
-652.843	-129.244	-0.251	-0.036
-651.828	-10.587	-0.170	-0.115
-650.814	-71.416	-0.094	0.036
-649.799	-46.640	0.383	-0.191
-648.784	-200.000	0.061	-0.290
-647.770	-15.321	0.318	-0.206
-646.755	95.329	0.060	-0.069
-645.741	-89.627	-0.359	0.107
-644.726	-141.157	-0.053	0.006
-643.711	181.523	0.097	0.146
-642.697	92.072	-0.067	-0.076
-641.682	48.016	-0.251	-0.239
-640.668	77.344	0.400	-0.433
-639.653	142.947	0.157	-0.212
-638.638	-200.000	-0.020	-0.309
-637.624	-0.361	0.341	-0.246
-636.609	69.560	0.111	0.117
-635.595	-4.333	-0.102	0.071
-634.580	-191.567	-0.176	0.002
-633.565	-115.561	0.109	0.021
-632.551	79.842	0.199	0.218
-631.536	-101.257	0.311	0.077
-630.522	800.000	0.092	-0.389
-629.507	-29.198	0.194	-0.113
-628.492	-200.000	-0.023	0.167
-627.478	-200.000	0.011	-0.242
-626.463	-200.000	0.018	0.185
-625.449	800.000	-0.078	0.257
-624.434	-200.000	-0.001	-0.074
-623.419	-200.000	-0.014	0.075
-622.405	800.000	-0.073	-0.250
-621.390	436.849	-0.021	0.047
-620.376	-85.502	-0.067	-0.021
-619.361	62.882	0.126	-0.128
-618.346	-121.021	0.233	0.040
-617.332	-123.482	-0.043	-0.007
-616.317	-139.171	0.247	0.027
-615.303	-144.065	0.178	-0.017
-614.288	800.000	0.104	0.298
-613.273	-200.000	-0.044	0.251
-612.259	-106.126	0.149	-0.034
-611.244	-200.000	0.005	-0.346
-610.230	48.112	-0.241	0.228
-609.215	41.761	-0.127	-0.117
-608.201	181.781	0.135	-0.202
-607.186	-200.000	-0.029	0.174
-606.171	-80.404	0.064	0.022
-605.157	-200.000	-0.004	-0.247
-604.142	-112.801	0.212	0.043
-603.128	90.762	-0.138	-0.157
-602.113	-200.000	-0.016	-0.262
-601.098	173.793	-0.061	0.090
-600.084	-173.038	-0.304	0.010
-599.069	-186.026	0.066	0.001
-598.055	-131.600	0.251	0.034
-597.040	169.627	0.085	-0.123
-596.025	-22.055	0.043	0.026
-595.011	-62.461	0.269	-0.114
-593.996	800.000	-0.031	0.108
-592.982	51.863	0.090	0.087
-591.967	-21.395	0.135	-0.084
-590.952	582.753	-0.086	0.214
-589.938	11.385	0.298	-0.231
-588.923	131.033	-0.216	0.281
-587.909	-19.404	0.214	-0.134
-586.894	-200.000	0.007	0.056
-585.879	-200.000	-0.024	-0.181
-584.865	17.079	0.125	0.100
-583.850	690.649	0.084	0.223
-582.836	-200.000	0.084	0.000
-581.821	800.000	0.056	0.167
-580.806	-200.000	0.024	0.382
-579.792	-200.000	0.035	0.229
-578.777	-44.092	-0.355	-0.181
-577.763	-119.803	-0.231	0.040
-576.748	-63.359	0.359	-0.150
-575.733	262.618	0.051	-0.089
-574.719	800.000	0.072	0.204
-573.704	489.160	-0.117	-0.271
-572.690	-175.823	0.349	0.009
-571.675	-2.580	-0.154	0.109
-570.661	-29.205	-0.040	0.023
-569.646	107.172	-0.080	0.096
-568.631	-104.513	-0.221	0.052
-567.617	-24.148	0.137	-0.083
-566.602	-81.678	-0.486	-0.162
-565.588	-200.000	0.001	-0.143
-564.573	-200.000	-0.013	0.091
-563.558	-8.345	0.221	0.150
-562.544	-81.399	0.064	0.021
-561.529	-62.579	0.128	0.054
-560.515	-57.845	-0.093	-0.041
-559.500	-39.732	0.095	0.050
-558.485	-200.000	0.011	-0.105
-557.471	-200.000	0.039	0.217
-556.456	-159.605	-0.183	-0.010
-555.442	440.972	-0.077	-0.170
-554.427	-200.000	0.058	-0.660
-553.412	-165.768	0.418	-0.018
-552.398	185.432	-0.150	-0.226
-551.383	-200.000	-0.044	0.296
-550.369	6.041	0.024	-0.018
-549.354	-139.969	-0.239	-0.026
-548.339	-47.672	0.273	-0.134
-547.325	-200.000	0.025	-0.255
-546.310	-104.694	0.297	-0.069
-545.296	19.360	-0.182	-0.148
-544.281	137.233	-0.174	-0.231
-543.266	800.000	0.081	-0.259
-542.252	34.427	0.412	0.364
-541.237	-200.000	-0.354	-0.000
-540.223	381.849	-0.125	0.260
-539.208	140.737	-0.204	0.272
-538.193	-18.863	-0.113	-0.071
-537.179	-68.266	-0.207	0.081
-536.164	194.399	0.093	-0.143
-535.150	-84.498	-0.234	0.075
-534.135	-200.000	-0.018	0.251
-533.121	-200.000	-0.044	0.375
-532.106	-200.000	-0.027	-0.134
-531.091	743.500	0.164	-0.447
-530.077	57.654	0.151	0.150
-529.062	0.863	-0.104	0.076
-528.048	44.712	-0.140	0.130
-527.033	-200.000	0.004	0.086
-526.018	-108.556	-0.201	0.044
-525.004	97.189	-0.201	-0.233
-523.989	800.000	0.044	0.191
-522.975	-176.712	0.138	-0.004
-521.960	15.017	0.250	-0.198
-520.945	13.471	0.144	-0.113
-519.931	353.824	-0.071	0.143
-518.916	267.436	-0.021	-0.037
-517.902	-46.595	-0.258	-0.128
-516.887	229.410	-0.114	0.188
-515.872	-108.812	-0.177	-0.038
-514.858	-157.049	-0.238	-0.015
-513.843	256.498	0.077	0.134
-512.829	-112.072	-0.210	0.043
-511.814	39.254	0.358	0.324
-510.799	-168.771	-0.074	-0.003
-509.785	-0.077	0.032	-0.023
-508.770	3.412	0.017	-0.012
-507.756	199.821	0.039	0.061
-506.741	130.184	-0.306	-0.396
-505.726	800.000	0.062	0.184
-504.712	-130.474	0.204	0.028
-503.697	228.555	0.088	0.145
-502.683	510.450	0.052	0.123
-501.668	152.039	0.154	-0.212
-500.653	218.547	0.131	-0.212
-499.639	-168.718	-0.118	-0.005
-498.624	60.048	0.287	0.286
-497.610	-16.610	-0.223	0.143
-496.595	-200.000	-0.019	0.127
-495.581	51.973	-0.203	0.195
-494.566	-44.802	0.198	-0.100
-493.551	-58.650	0.128	0.056
-492.537	-148.016	-0.244	-0.020
-491.522	-200.000	0.036	0.259
-490.508	-200.000	0.022	0.176
-489.493	-200.000	0.005	0.070
-488.478	71.192	-0.102	-0.107
-487.464	-200.000	-0.047	0.249
-486.449	150.528	-0.081	0.111
-485.435	-108.416	0.168	-0.037
-484.420	483.265	-0.086	-0.197
-483.405	-19.677	-0.080	0.050
-482.391	-155.130	-0.218	-0.014
-481.376	-200.000	-0.024	-0.188
-480.362	-200.000	0.007	-0.337
-479.347	-172.972	-0.149	-0.005
-478.332	-200.000	-0.031	0.403
-477.318	-88.136	-0.275	-0.083
-476.303	-122.186	0.297	0.049
-475.289	-200.000	0.017	0.218
-474.274	282.784	-0.060	-0.108
-473.259	-51.850	-0.072	-0.034
-472.245	-21.841	-0.159	-0.098
-471.230	-5.692	-0.185	0.128
-470.216	525.721	0.195	0.463
-469.201	-200.000	0.022	-0.386
-468.186	-147.927	-0.258	-0.022
-467.172	-137.750	0.119	0.013
-466.157	-98.850	-0.115	-0.030
-465.143	-40.261	-0.339	0.178
-464.128	-139.000	-0.469	0.051
-463.113	44.807	0.196	0.182
-462.099	800.000	-0.051	-0.144
-461.084	664.738	0.041	0.107
-460.070	-44.259	-0.062	0.031
-459.055	12.733	0.080	0.062
-458.040	-200.000	0.005	0.139
-457.026	-4.999	0.105	0.073
-456.011	60.293	0.181	0.180
-454.997	-200.000	0.007	0.063
-453.982	-168.457	-0.104	0.004
-452.968	135.594	0.144	-0.189
-451.953	76.721	0.076	0.081
-450.938	-200.000	0.006	-0.155
-449.924	800.000	-0.076	-0.243
-448.909	780.371	0.049	-0.136
-447.895	774.695	-0.090	0.249
-446.880	800.000	0.087	0.340
-445.865	167.936	-0.094	0.135
-444.851	-200.000	0.051	0.323
-443.836	181.690	-0.039	0.058
-442.822	2.058	-0.126	0.092
-441.807	-21.025	-0.180	0.111
-440.792	-146.625	-0.060	-0.005
-439.778	-26.776	0.074	0.044
-438.763	95.773	0.142	-0.164
-437.749	61.277	-0.070	0.070
-436.734	-141.068	-0.074	0.008
-435.719	601.646	0.080	-0.200
-434.705	-4.336	0.140	-0.098
-433.690	-102.025	0.335	0.082
-432.676	10.494	0.212	0.163
-431.661	148.149	-0.096	-0.131
-430.646	34.802	0.253	-0.223
-429.632	464.498	0.070	-0.158
-428.617	11.917	-0.131	-0.101
-427.603	72.805	-0.068	-0.071
-426.588	17.650	-0.385	-0.308
-425.573	-147.857	-0.219	0.018
-424.559	-101.349	-0.224	0.055
-423.544	285.328	0.055	-0.100
-422.530	60.111	0.202	-0.202
-421.515	-200.000	-0.029	-0.357
-420.500	3.686	-0.521	-0.383
-419.486	362.305	-0.164	-0.332
-418.471	-85.875	0.105	0.033
-417.457	-112.978	0.113	0.023
-416.442	-88.735	0.363	-0.109
-415.428	38.447	-0.226	0.203
-414.413	-200.000	-0.062	0.346
-413.398	-19.408	-0.124	-0.077
-412.384	27.594	-0.291	-0.247
-411.369	110.620	0.163	-0.197
-410.355	-198.387	-0.223	0.001
-409.340	-20.802	0.101	0.062
-408.325	493.590	0.040	0.093
-407.311	800.000	0.105	0.399
-406.296	462.279	0.155	0.348
-405.282	-109.890	-0.219	-0.046
-404.267	43.159	0.164	-0.150
-403.252	800.000	0.046	0.189
-402.238	84.338	0.079	-0.087
-401.223	-200.000	-0.037	0.233
-400.209	-73.259	-0.318	-0.117
-399.194	-58.244	0.126	0.055
-398.179	21.110	0.119	-0.097
-397.165	-83.760	-0.162	0.052
-396.150	124.470	0.110	0.139
-395.136	-114.332	-0.183	-0.035
-394.121	800.000	-0.069	-0.234
-393.106	-72.752	0.122	0.045
-392.092	800.000	-0.010	0.043
-391.077	-5.680	-0.268	0.185
-390.063	-200.000	-0.012	0.143
-389.048	3.958	0.050	-0.037
-388.033	-86.429	-0.125	0.039
-387.019	800.000	-0.100	0.335
-386.004	-146.232	0.192	-0.017
-384.990	96.694	-0.181	-0.208
-383.975	-14.551	-0.182	-0.118
-382.960	-18.130	0.174	0.109
-381.946	-156.485	0.503	-0.032
-380.931	50.167	0.158	-0.150
-379.917	-140.744	-0.144	0.015
-378.902	800.000	0.059	0.170
-377.888	-200.000	-0.038	0.366
-376.873	46.124	-0.137	0.128
-375.858	194.373	-0.082	-0.124
-374.844	183.603	0.128	0.190
-373.829	10.178	0.394	-0.301
-372.815	800.000	0.026	-0.073
-371.800	-110.491	0.146	-0.030
-370.785	-200.000	-0.010	-0.102
-369.771	-57.740	-0.208	0.092
-368.756	-105.294	0.183	-0.042
-367.742	-104.956	-0.425	-0.098
-366.727	800.000	0.073	0.226
-365.712	-43.756	0.207	-0.105
-364.698	144.519	0.031	-0.041
-363.683	210.716	-0.074	0.118
-362.669	-153.061	0.594	0.042
-361.654	117.192	-0.351	0.434
-360.639	-35.133	0.127	-0.070
-359.625	-200.000	0.007	-0.105
-358.610	13.188	0.110	-0.086
-357.596	174.211	0.154	0.224
-356.581	32.133	-0.072	-0.062
-355.566	-98.096	-0.400	0.103
-354.552	-200.000	0.000	-0.031
-353.537	-57.205	0.199	0.088
-352.523	19.847	-0.165	0.133
-351.508	364.159	0.094	-0.190
-350.493	591.624	-0.052	-0.130
-349.479	-101.577	-0.175	-0.043
-348.464	84.192	-0.097	0.106
-347.450	146.181	-0.353	-0.476
-346.435	800.000	0.127	-0.483
-345.420	-73.920	0.177	-0.065
-344.406	-26.600	0.238	-0.140
-343.391	-85.297	-0.395	-0.124
-342.377	56.306	-0.288	0.281
-341.362	-200.000	0.034	-0.169
-340.348	27.179	-0.139	0.117
-339.333	327.128	-0.210	0.404
-338.318	5.036	0.321	0.237
-337.304	-43.753	-0.234	-0.119
-336.289	440.075	-0.062	0.135
-335.275	-18.856	-0.129	-0.080
-334.260	320.546	0.074	0.141
-333.245	-187.882	0.049	-0.001
-332.231	-200.000	0.024	-0.249
-331.216	-136.376	-0.129	-0.015
-330.202	64.772	-0.188	-0.190
-329.187	-169.121	-0.345	0.013
-328.172	-67.653	-0.100	-0.039
-327.158	-1.739	-0.252	0.178
-326.143	39.141	-0.080	-0.072
-325.129	70.424	-0.375	-0.389
-324.114	-171.511	-0.071	-0.002
-323.099	-110.714	-0.217	0.045
-322.085	335.432	-0.161	0.313
-321.070	-64.926	-0.259	0.105
-320.056	-200.000	-0.046	-0.283
-319.041	4.332	0.179	0.132
-318.026	-200.000	-0.007	0.448
-317.012	800.000	-0.039	0.157
-315.997	16.892	0.337	0.268
-314.983	0.277	-0.015	0.010
-313.968	360.303	-0.064	0.129
-312.953	-200.000	0.060	-0.470
-311.939	-147.553	0.230	-0.019
-310.924	-200.000	-0.007	-0.103
-309.910	-95.161	0.073	-0.020
-308.895	405.541	-0.101	-0.213
-307.880	800.000	-0.072	-0.212
-306.866	800.000	0.109	0.394
-305.851	-36.660	0.170	0.092
-304.837	-13.520	0.155	0.101
-303.822	-200.000	0.019	-0.327
-302.807	-107.618	-0.162	0.036
-301.793	-47.527	-0.119	-0.058
-300.778	800.000	-0.008	-0.024
-299.764	563.091	-0.115	0.279
-298.749	222.843	-0.061	0.099
-297.735	-200.000	-0.013	0.240
-296.720	339.234	0.086	-0.168
-295.705	601.013	-0.053	-0.132
-294.691	800.000	0.054	-0.171
-293.676	-200.000	-0.025	0.287
-292.662	91.697	-0.123	-0.139
-291.647	739.153	0.029	-0.078
-290.632	-114.392	-0.085	0.016
-289.618	-161.141	0.023	0.001
-288.603	230.003	0.051	0.083
-287.589	-86.508	-0.174	-0.054
-286.574	-96.851	0.401	-0.105
-285.559	800.000	-0.068	-0.229
-284.545	157.720	0.097	-0.135
-283.530	-38.074	0.121	0.064
-282.516	-69.167	0.034	0.013
-281.501	55.388	0.073	0.071
-280.486	-141.909	0.104	-0.010
-279.472	164.898	-0.092	-0.130
-278.457	8.701	0.267	0.202
-277.443	34.015	-0.236	-0.206
-276.428	-200.000	0.038	0.258
-275.413	800.000	-0.062	0.250
-274.399	43.997	-0.198	0.182
-273.384	-68.702	0.090	0.035
-272.370	351.313	0.092	-0.183
-271.355	305.435	0.069	-0.128
-270.340	-50.853	-0.231	0.109
-269.326	-6.971	0.171	-0.117
-268.311	237.467	0.165	0.274
-267.297	151.562	-0.007	-0.010
-266.282	800.000	-0.022	0.064
-265.267	-132.216	0.316	-0.041
-264.253	-14.541	-0.135	-0.087
-263.238	-19.678	0.150	-0.093
-262.224	-200.000	0.035	0.186
-261.209	52.955	-0.245	0.235
-260.195	198.507	-0.084	-0.128
-259.180	800.000	-0.098	-0.350
-258.165	-103.005	0.198	0.047
-257.151	440.457	0.035	0.078
-256.136	15.019	-0.087	0.068
-255.122	-109.285	0.155	0.033
-254.107	327.417	-0.154	0.296
-253.092	-43.831	0.171	0.086
-252.078	-121.900	-0.211	-0.035
-251.063	-200.000	-0.012	-0.094
-250.049	-200.000	0.073	0.373
-249.034	-26.239	-0.119	-0.070
-248.019	-79.961	-0.180	0.060
-247.005	800.000	0.039	0.153
-245.990	-4.774	0.268	0.185
-244.976	-82.614	-0.089	-0.029
-243.961	-101.818	0.405	-0.098
-242.946	-52.370	-0.349	-0.162
-241.932	170.834	-0.121	0.174
-240.917	-200.000	0.112	-0.501
-239.903	320.066	0.109	0.208
-238.888	-18.745	-0.185	0.115
-237.873	404.090	0.108	-0.227
-236.859	-165.580	0.099	0.004
-235.844	112.104	-0.069	0.083
-234.830	727.718	-0.107	0.285
-233.815	1.182	-0.356	-0.256
-232.800	68.904	0.033	0.034
-231.786	-134.719	0.285	-0.035
-230.771	-200.000	0.081	0.492
-229.757	312.280	-0.062	-0.116
-228.742	-200.000	-0.009	0.119
-227.727	147.865	0.070	-0.095
-226.713	35.373	-0.182	0.159
-225.698	-200.000	-0.021	0.212
-224.684	-200.000	-0.007	0.042
-223.669	-200.000	-0.029	0.196
-222.655	142.967	0.173	0.231
-221.640	38.363	-0.030	0.027
-220.625	219.219	0.213	-0.341
-219.611	-200.000	-0.008	0.127
-218.596	30.041	0.082	-0.070
-217.582	-6.212	0.112	-0.076
-216.567	12.685	0.180	0.139
-215.552	139.944	0.129	0.170
-214.538	-179.287	0.241	-0.005
-213.523	221.642	0.087	-0.140
-212.509	168.758	0.214	-0.305
-211.494	493.170	0.065	-0.150
-210.479	-59.025	0.285	-0.123
-209.465	0.553	0.042	-0.030
-208.450	796.768	0.122	0.336
-207.436	-74.716	0.319	0.114
-206.421	-200.000	-0.010	0.116
-205.406	-200.000	0.022	0.128
-204.392	-74.064	-0.222	0.080
-203.377	99.140	-0.103	0.119
-202.363	34.428	-0.150	-0.131
-201.348	231.491	0.109	0.179
-200.333	-139.752	-0.200	-0.021
-199.319	800.000	0.035	-0.120
-198.304	800.000	0.024	-0.092
-197.290	-164.700	0.281	-0.013
-196.275	199.074	-0.186	-0.285
-195.260	-21.085	-0.138	0.084
-194.246	-200.000	-0.037	0.179
-193.231	-107.742	0.282	-0.062
-192.217	93.585	-0.212	0.240
-191.202	-200.000	-0.027	0.124
-190.187	-7.659	-0.252	0.170
-189.173	20.163	0.305	-0.246
-188.158	-200.000	0.001	0.141
-187.144	-114.291	0.185	-0.036
-186.129	-117.339	0.217	-0.039
-185.114	790.640	0.094	-0.259
-184.100	-200.000	0.044	0.308
-183.085	197.149	-0.097	0.148
-182.071	-65.876	-0.299	-0.120
-181.056	9.348	0.164	-0.124
-180.042	701.542	-0.118	0.311
-179.027	184.266	-0.108	-0.159
-178.012	800.000	-0.033	0.118
-176.998	14.911	0.264	0.206
-175.983	532.880	0.131	-0.310
-174.969	-200.000	0.056	-0.255
-173.954	-102.086	-0.182	0.044
-172.939	-111.590	-0.280	0.057
-171.925	-200.000	-0.043	-0.388
-170.910	-85.229	-0.062	-0.019
-169.896	134.808	-0.091	-0.118
-168.881	-128.693	-0.249	0.035
-167.866	-171.592	-0.247	-0.008
-166.852	188.494	0.141	-0.210
-165.837	-137.737	0.381	0.043
-164.823	-200.000	0.040	-0.212
-163.808	42.885	0.221	0.201
-162.793	388.720	0.149	0.309
-161.779	-74.621	-0.122	0.044
-160.764	-61.913	-0.202	-0.084
-159.750	-200.000	0.022	-0.548
-158.735	-10.657	0.192	0.127
-157.720	293.623	0.143	-0.260
-156.706	800.000	-0.191	-0.556
-155.691	-123.741	-0.214	-0.034
-154.677	-200.000	0.014	-0.152
-153.662	524.032	0.090	-0.210
-152.647	-109.490	-0.488	-0.103
-151.633	-18.889	0.216	-0.134
-150.618	117.701	0.289	0.354
-149.604	-23.652	0.211	0.126
-148.589	-166.509	-0.152	0.006
-147.574	-200.000	0.050	-0.243
-146.560	800.000	-0.117	0.368
-145.545	148.832	0.048	-0.064
-144.531	44.220	0.248	0.227
-143.516	-200.000	0.042	-0.233
-142.502	-26.264	0.066	0.039
-141.487	-199.540	-0.318	0.002
-140.472	-128.596	-0.349	-0.049
-139.458	183.195	-0.113	0.166
-138.443	573.685	0.105	0.256
-137.429	-200.000	0.021	-0.256
-136.414	-44.050	-0.228	-0.114
-135.399	63.186	-0.229	0.228
-134.385	-200.000	0.060	0.381
-133.370	-63.290	0.215	0.088
-132.356	3.886	0.252	0.184
-131.341	-64.733	-0.243	-0.098
-130.326	26.959	0.069	-0.057
-129.312	-200.000	-0.027	-0.234
-128.297	65.911	-0.268	-0.271
-127.283	-118.118	-0.083	-0.015
-126.268	-14.988	0.326	0.208
-125.253	-111.665	-0.277	0.056
-124.239	60.007	0.066	-0.065
-123.224	800.000	-0.085	-0.336
-122.210	63.102	0.249	0.249
-121.195	-145.277	-0.040	0.004
-120.180	800.000	-0.103	0.359
-119.166	-6.939	-0.305	-0.207
-118.151	-92.138	0.044	0.012
-117.137	800.000	0.029	-0.123
-116.122	270.893	0.071	0.124
-115.107	-73.124	0.177	-0.065
-114.093	800.000	0.072	-0.303
-113.078	668.895	0.098	-0.253
-112.064	74.584	-0.049	-0.052
-111.049	72.611	0.177	-0.183
-110.034	353.825	-0.063	0.124
-109.020	-86.919	-0.174	-0.053
-108.005	-200.000	0.048	0.241
-106.991	79.647	0.123	-0.132
-105.976	652.790	0.101	-0.257
-104.962	64.337	0.182	0.182
-103.947	-200.000	0.067	0.441
-102.932	-200.000	-0.037	0.244
-101.918	-200.000	0.008	0.172
-100.903	-74.695	0.110	0.039
-99.889	368.632	0.187	0.376
-98.874	-89.150	-0.434	-0.128
-97.859	-63.827	-0.052	0.021
-96.845	289.832	0.188	-0.339
-95.830	441.184	-0.103	-0.225
-94.816	-200.000	-0.000	-0.124
-93.801	44.151	0.191	0.175
-92.786	800.000	-0.071	0.240
-91.772	-48.580	0.289	0.138
-90.757	-96.906	0.094	-0.024
-89.743	128.720	0.166	-0.210
-88.728	35.615	0.066	0.057
-87.713	-102.410	0.185	-0.044
-86.699	-74.929	0.328	-0.117
-85.684	63.254	-0.151	0.151
-84.670	573.150	0.054	0.131
-83.655	-85.086	-0.212	-0.066
-82.640	-200.000	-0.008	-0.243
-81.626	-100.241	0.163	0.040
-80.611	-114.610	-0.165	0.031
-79.597	322.730	0.140	0.265
-78.582	321.061	-0.132	-0.249
-77.567	137.451	0.054	0.071
-76.553	-115.128	-0.238	0.045
-75.538	-94.710	0.330	-0.089
-74.524	-200.000	-0.010	-0.079
-73.509	-130.242	-0.195	0.026
-72.494	592.256	-0.105	0.257
-71.480	22.367	0.238	-0.193
-70.465	593.796	0.045	-0.111
-69.451	12.145	0.060	-0.046
-68.436	-50.587	0.113	-0.053
-67.422	800.000	-0.087	0.249
-66.407	579.419	-0.096	0.234
-65.392	82.626	-0.032	0.034
-64.378	-151.105	0.288	-0.022
-63.363	-121.960	0.309	-0.051
-62.349	-125.621	0.169	0.025
-61.334	74.066	-0.978	-1.020
-60.319	477.146	0.159	0.358
-59.305	-200.000	-0.132	-0.602
-58.290	55.126	0.777	0.746
-57.276	555.917	0.749	1.793
-56.261	-200.000	89.159	502.350
-55.246	454.375	1398.719	3078.434
-54.232	145.739	2609.408	3474.340
-53.217	110.872	2210.296	2642.731
-52.203	47.411	1655.178	1532.265
-51.188	39.766	1386.530	1235.882
-50.173	36.519	1343.148	1177.425
-49.159	56.004	1387.984	1337.743
-48.144	60.544	1406.719	1383.841
-47.130	40.353	1363.630	1218.888
-46.115	36.597	1345.691	1179.939
-45.100	36.409	1341.276	1174.877
-44.086	36.408	1338.091	1172.034
-43.071	36.250	1336.088	1169.280
-42.057	36.243	1333.966	1167.335
-41.042	36.289	1332.068	1165.906
-40.027	36.334	1330.377	1164.650
-39.013	36.322	1328.622	1162.992
-37.998	36.406	1326.480	1161.578
-36.984	36.409	1324.839	1160.110
-35.969	36.460	1323.239	1158.970
-34.954	36.424	1321.280	1156.995
-33.940	36.525	1319.685	1156.153
-32.925	36.472	1318.598	1154.840
-31.911	36.549	1317.258	1154.082
-30.896	36.508	1315.844	1152.552
-29.881	36.564	1314.536	1151.694
-28.867	36.678	1312.652	1150.674
-27.852	36.543	1310.981	1148.366
-26.838	36.516	1309.561	1146.912
-25.823	36.554	1308.290	1145.981
-24.809	36.646	1306.631	1145.028
-23.794	36.406	1306.415	1143.370
-22.779	36.527	1304.261	1142.156
-21.765	36.571	1303.026	1141.289
-20.750	36.475	1301.763	1139.573
-19.736	36.338	1300.633	1137.729
-18.721	36.280	1299.398	1136.262
-17.706	36.400	1297.935	1135.643
-16.692	36.388	1296.669	1134.418
-15.677	36.411	1295.272	1133.286
-14.663	36.376	1294.416	1132.287
-13.648	36.395	1293.048	1131.158
-12.633	36.355	1292.013	1129.974
-11.619	36.388	1291.192	1129.406
-10.604	36.340	1290.383	1128.371
-9.590	36.413	1289.488	1127.969
-8.575	36.435	1288.794	1127.445
-7.560	36.356	1287.501	1125.810
-6.546	36.311	1287.344	1125.368
-5.531	36.365	1285.795	1124.283
-4.517	36.297	1285.074	1123.211
-3.502	36.436	1283.815	1122.875
-2.487	36.357	1282.614	1121.322
-1.473	36.364	1278.957	1118.118
-0.458	35.425	1264.190	1099.786
0.556	31.930	1245.837	1061.138
1.571	28.215	1250.472	1043.851
2.586	27.213	1266.285	1051.168
3.600	26.078	1254.458	1034.756
4.615	18.495	1177.858	930.488
5.629	7.247	1095.861	808.523
6.644	2.331	1073.307	767.197
7.659	1.780	1070.867	762.629
8.673	1.648	1069.288	760.774
9.688	1.564	1067.711	759.164
10.702	1.879	1066.430	759.759
11.717	8.378	1076.490	799.471
12.731	19.149	1092.219	865.511
13.746	24.476	1098.407	897.186
14.761	24.993	1099.062	900.243
15.775	25.094	1098.501	900.209
16.790	24.791	1097.681	897.938
17.804	24.699	1097.176	896.984
18.819	24.975	1096.633	897.847
19.834	25.038	1095.847	897.437
20.848	25.141	1095.600	897.672
21.863	25.139	1094.848	896.964
22.877	24.936	1094.398	895.501
23.892	24.915	1093.865	894.884
24.907	25.043	1092.789	894.561
25.921	24.969	1091.790	893.296
26.936	24.918	1090.371	891.801
27.950	24.946	1088.812	890.590
28.965	24.836	1087.091	888.557
29.980	24.799	1085.747	887.195
30.994	24.939	1084.900	887.116
32.009	25.048	1083.908	886.766
33.023	24.801	1082.673	884.455
34.038	24.864	1082.160	884.272
35.053	25.048	1081.346	884.437
36.067	24.957	1080.119	882.906
37.082	25.096	1079.555	883.053
38.096	25.191	1078.988	882.976
39.111	25.274	1078.293	882.737
40.126	25.120	1076.685	880.590
41.140	24.808	1074.895	877.514
42.155	24.566	1073.624	875.216
43.169	24.694	1072.425	874.787
44.184	24.677	1071.939	874.232
45.199	24.685	1070.334	872.880
46.213	24.561	1070.046	871.964
47.228	24.783	1069.494	872.521
48.242	24.981	1068.403	872.517
49.257	25.035	1067.404	871.887
50.271	25.115	1066.754	871.669
51.286	25.089	1065.872	870.745
52.301	25.086	1064.869	869.833
53.315	25.137	1064.022	869.314
54.330	25.020	1063.274	868.057
55.344	25.032	1062.335	867.274
56.359	24.913	1061.730	866.128
57.374	24.710	1060.763	864.279
58.388	24.848	1059.764	864.056
59.403	24.755	1058.693	862.657
60.417	24.510	1058.269	861.056
61.432	24.714	1057.710	861.504
62.447	24.843	1056.903	861.391
63.461	24.797	1056.252	860.563
64.476	24.853	1054.820	859.590
65.490	24.641	1053.916	857.763
66.505	24.582	1054.006	857.476
67.520	24.775	1052.816	857.354
68.534	24.531	1051.734	855.231
69.549	24.166	1050.751	852.608
70.563	24.206	1050.000	852.118
71.578	24.262	1048.934	851.444
72.593	24.137	1047.876	849.911
73.607	24.160	1047.869	849.942
74.622	24.585	1047.422	851.531
75.636	24.669	1046.189	850.852
76.651	24.416	1045.367	848.907
77.666	24.269	1044.800	847.669
78.680	24.376	1044.421	847.794
79.695	24.562	1043.050	847.492
80.709	24.564	1042.687	847.132
81.724	24.567	1041.737	846.298
82.739	24.614	1041.378	846.156
83.753	24.943	1040.644	847.042
84.768	25.099	1040.153	847.304
85.782	25.301	1039.159	847.371
86.797	25.302	1037.875	846.253
87.812	25.126	1036.477	844.210
88.826	25.195	1035.592	843.740
89.841	25.265	1034.827	843.369
90.855	25.194	1034.180	842.436
91.870	25.239	1033.059	841.661
92.884	25.117	1031.736	839.933
93.899	25.097	1030.905	839.089
94.914	25.310	1029.910	839.202
95.928	25.155	1029.076	837.727
96.943	24.794	1027.941	835.042
97.957	24.596	1027.073	833.341
98.972	24.686	1025.052	832.044
99.987	24.828	1024.655	832.311
101.001	24.818	1024.046	831.695
102.016	24.806	1023.388	831.030
103.030	24.936	1022.110	830.520
104.045	24.756	1021.185	828.865
105.060	24.662	1020.061	827.444
106.074	24.561	1019.884	826.759
107.089	25.109	1018.950	828.461
108.103	24.895	1017.771	826.443
109.118	24.696	1016.191	824.168
110.133	24.790	1015.390	823.877
111.147	24.529	1014.283	821.707
112.162	24.348	1013.943	820.524
113.176	24.616	1013.311	821.171
114.191	24.567	1012.398	820.138
115.206	24.246	1011.537	817.894
116.220	24.197	1010.308	816.605
117.235	24.309	1009.737	816.582
118.249	24.329	1008.909	815.932
119.264	24.332	1007.768	814.952
120.279	24.332	1007.263	814.472
121.293	24.342	1006.686	813.976
122.308	24.416	1005.506	813.287
123.322	24.311	1004.314	811.776
124.337	24.095	1003.258	809.866
125.352	23.664	1001.793	806.656
126.366	23.551	1000.729	805.214
127.381	24.502	1000.981	809.662
128.395	24.831	1000.218	810.460
129.410	24.863	999.579	810.017
130.424	24.903	998.177	808.988
131.439	24.782	997.775	808.045
132.454	24.955	996.071	807.376
133.468	24.922	995.444	806.646
134.483	24.988	995.072	806.569
135.497	25.171	994.313	806.705
136.512	25.311	993.182	806.346
137.527	25.279	992.547	805.616
138.541	25.284	992.178	805.268
139.556	25.218	991.152	804.069
140.570	25.177	990.719	803.464
141.585	25.260	988.949	802.328
142.600	25.270	987.871	801.427
143.614	25.258	987.901	801.326
144.629	25.508	986.812	801.487
145.643	25.379	985.400	799.693
146.658	25.153	984.399	797.805
147.673	25.055	983.222	796.346
148.687	25.039	982.140	795.329
149.702	24.979	981.224	794.249
150.716	24.886	980.524	793.203
151.731	24.999	979.946	793.165
152.746	25.262	979.265	793.707
153.760	25.320	978.756	793.480
154.775	25.316	978.023	792.797
155.789	25.311	977.094	791.950
156.804	25.327	975.928	791.007
157.819	25.451	974.856	790.613
158.833	25.483	974.450	790.357
159.848	25.474	973.798	789.717
160.862	25.222	972.513	787.499
161.877	25.325	971.057	786.701
162.892	25.233	970.843	786.056
163.906	25.114	969.534	784.405
164.921	25.278	968.553	784.260
165.935	25.455	967.213	783.877
166.950	25.301	966.480	782.543
167.964	25.177	966.209	781.716
168.979	25.056	964.722	779.917
169.994	24.936	964.202	778.905
171.008	25.409	963.158	780.046
172.023	25.422	962.229	779.283
173.037	25.253	961.255	777.692
174.052	24.968	960.889	776.092
175.067	24.972	959.913	775.250
176.081	25.032	959.489	775.102
177.096	25.044	958.794	774.523
178.110	24.732	957.820	772.318
179.125	24.683	956.843	771.251
180.140	24.560	957.090	770.852
181.154	24.728	956.591	771.107
182.169	25.218	956.139	772.785
183.183	25.381	955.606	772.986
184.198	25.168	955.059	771.560
185.213	25.300	953.818	771.056
186.227	25.217	953.908	770.706
187.242	25.410	952.508	770.332
188.256	25.317	952.147	769.573
189.271	25.652	950.883	769.918
190.286	25.169	949.869	766.965
191.300	24.355	948.833	762.584
192.315	23.687	947.139	758.302
193.329	23.639	946.784	757.743
194.344	24.585	947.183	762.034
195.359	25.072	947.062	763.947
196.373	25.351	946.182	764.355
197.388	25.153	945.679	763.039
198.402	25.189	945.061	762.627
199.417	25.200	944.704	762.318
200.432	24.901	943.709	760.180
201.446	24.669	942.893	758.468
202.461	24.754	942.305	758.291
203.475	24.106	940.296	753.866
204.490	23.260	938.929	749.123
205.504	24.194	939.294	753.301
206.519	24.860	939.264	756.021
207.534	24.833	939.021	755.645
208.548	25.259	938.616	757.053
209.563	25.060	937.655	755.370
210.577	24.932	937.128	754.338
211.592	25.502	936.878	756.472
212.607	25.501	935.371	755.183
213.621	25.397	935.362	754.673
214.636	25.397	934.506	753.914
215.650	25.356	933.448	752.824
216.665	25.538	932.946	753.113
217.680	25.430	932.178	751.976
218.694	25.073	930.827	749.329
219.709	24.865	930.313	747.976
220.723	25.190	930.364	749.309
221.738	25.132	929.872	748.607
222.753	25.177	928.808	747.873
223.767	25.366	928.455	748.307
224.782	25.433	928.478	748.539
225.796	25.408	927.857	747.866
226.811	24.780	926.169	743.832
227.826	24.169	924.659	740.015
228.840	24.266	924.511	740.232
229.855	24.466	923.739	740.381
230.869	23.975	922.649	737.408
231.884	24.372	922.558	738.913
232.899	24.980	922.723	741.500
233.913	25.074	921.897	741.159
234.928	25.054	921.487	740.678
235.942	25.137	920.451	740.123
236.957	24.755	919.922	738.055
237.972	24.699	919.224	737.202
238.986	24.805	918.725	737.172
240.001	24.815	918.317	736.822
241.015	24.937	917.580	736.665
242.030	25.168	917.079	737.146
243.045	25.217	916.566	736.873
244.059	25.361	915.927	736.884
245.074	25.172	914.940	735.251
246.088	24.834	914.382	733.352
247.103	25.119	913.823	734.004
248.117	25.813	913.939	736.873
249.132	25.947	913.309	736.849
250.147	25.985	912.794	736.522
251.161	26.189	912.345	736.928
252.176	25.986	911.990	735.747
253.190	26.024	911.769	735.659
254.205	26.215	911.200	735.913
255.220	26.251	910.275	735.247
256.234	26.045	909.707	733.886
257.249	25.910	909.025	732.722
258.263	25.906	908.006	731.822
259.278	26.111	907.292	732.014
260.293	26.309	906.449	732.070
261.307	26.067	905.942	730.614
262.322	25.822	905.604	729.284
263.336	25.186	903.507	724.961
264.351	24.072	901.530	718.819
265.366	24.177	901.290	718.986
266.380	25.352	901.991	724.225
267.395	25.801	901.612	725.665
268.409	25.675	901.050	724.640
269.424	25.764	900.471	724.470
270.439	25.954	899.737	724.580
271.453	25.950	899.488	724.296
272.468	26.095	899.298	724.664
273.482	26.008	899.142	724.122
274.497	25.771	897.398	721.705
275.512	25.318	896.900	719.425
276.526	25.726	896.721	720.852
277.541	25.969	896.455	721.549
278.555	25.649	895.619	719.532
279.570	25.637	894.852	718.802
280.585	25.798	894.130	718.802
281.599	25.832	893.108	718.054
282.614	24.970	892.272	713.885
283.628	25.042	891.593	713.565
284.643	25.571	891.052	715.171
285.657	25.085	890.300	712.575
286.672	24.770	889.520	710.635
287.687	25.394	889.296	712.871
288.701	25.587	888.556	712.979
289.716	25.096	888.102	710.606
290.730	25.184	886.805	709.853
291.745	24.685	886.489	707.563
292.760	25.130	885.960	708.841
293.774	26.085	886.532	713.008
294.789	26.262	886.456	713.582
295.803	26.463	885.680	713.689
296.818	26.568	884.781	713.317
297.833	26.006	883.858	710.294
298.847	25.990	883.029	709.503
299.862	26.071	883.155	709.860
300.876	26.360	882.480	710.392
301.891	26.273	881.927	709.540
302.906	25.905	880.924	707.227
303.920	26.017	880.727	707.446
304.935	26.479	880.645	709.130
305.949	26.418	879.742	708.100
306.964	26.123	879.126	706.389
307.979	26.188	878.720	706.252
308.993	26.583	878.015	707.168
310.008	26.590	877.982	707.108
311.022	26.347	877.165	705.439
312.037	26.229	876.533	704.405
313.052	25.712	875.147	701.215
314.066	25.028	873.576	697.234
315.081	24.637	873.284	695.420
316.095	25.469	873.654	698.888
317.110	26.017	873.285	700.663
318.125	25.301	871.379	696.294
319.139	24.036	869.976	690.211
320.154	24.099	869.715	690.188
321.168	25.173	869.918	694.448
322.183	25.790	870.043	696.874
323.197	25.947	869.879	697.287
324.212	26.073	869.920	697.747
325.227	26.146	869.098	697.309
326.241	26.068	868.323	696.321
327.256	25.927	867.472	695.037
328.270	25.898	866.975	694.464
329.285	25.561	866.316	692.578
330.300	25.324	865.278	690.773
331.314	25.713	864.824	691.848
332.329	26.053	865.301	693.475
333.343	26.193	864.606	693.391
334.358	26.340	863.919	693.345
335.373	26.260	864.130	693.145
336.387	26.531	863.942	693.971
337.402	26.610	863.884	694.167
338.416	26.541	863.318	693.386
339.431	26.740	862.961	693.801
340.446	26.997	862.450	694.312
341.460	26.769	861.833	692.880
342.475	26.588	861.089	691.531
343.489	26.665	861.115	691.785
344.504	26.957	860.684	692.492
345.519	27.015	860.329	692.367
346.533	27.138	859.906	692.434
347.548	27.142	859.497	692.056
348.562	27.046	858.899	691.150
349.577	26.999	858.242	690.381
350.592	26.962	857.500	689.581
351.606	26.989	856.556	688.866
352.621	26.953	855.675	687.957
353.635	26.939	854.797	687.140
354.650	26.124	853.485	682.940
355.665	25.344	851.955	678.711
356.679	25.617	851.786	679.545
357.694	26.059	851.635	681.033
358.708	26.042	850.405	679.928
359.723	26.402	850.506	681.302
360.738	26.759	850.185	682.330
361.752	26.909	849.590	682.358
362.767	27.134	849.588	683.139
363.781	27.388	849.253	683.766
364.796	27.414	849.083	683.664
365.810	27.429	848.512	683.202
366.825	27.383	847.940	682.509
367.840	27.115	847.203	680.850
368.854	26.675	846.541	678.609
369.869	26.692	846.149	678.300
370.883	26.939	845.517	678.658
371.898	26.775	844.752	677.369
372.913	26.827	844.373	677.200
373.927	27.185	843.806	678.022
374.942	27.034	843.786	677.381
375.956	27.115	843.433	677.341
376.971	27.310	843.254	677.863
377.986	27.411	842.790	677.805
379.000	27.463	841.920	677.239
380.015	27.190	841.598	675.907
381.029	27.230	840.828	675.376
382.044	27.374	840.639	675.699
383.059	27.518	839.726	675.439
384.073	27.299	839.643	674.500
385.088	27.391	838.718	674.039
386.102	27.033	838.032	672.106
387.117	26.977	837.691	671.564
388.132	26.720	836.154	669.323
389.146	26.345	835.212	667.125
390.161	26.742	835.110	668.448
391.175	27.101	835.010	669.632
392.190	26.729	834.147	667.513
393.205	25.494	831.531	660.824
394.219	24.039	829.616	653.902
395.234	23.910	829.161	653.012
396.248	25.357	831.180	659.866
397.263	26.972	831.706	666.158
398.278	26.894	831.489	665.638
399.292	26.486	830.773	663.512
400.307	26.728	830.473	664.100
401.321	26.839	830.059	664.114
402.336	26.996	829.812	664.434
403.350	27.528	829.779	666.293
404.365	27.855	829.612	667.299
405.380	28.094	829.033	667.644
406.394	28.071	828.634	667.182
407.409	28.089	828.217	666.850
408.423	27.920	828.076	666.063
409.438	28.084	827.710	666.306
410.453	28.065	827.178	665.750
411.467	28.126	826.658	665.494
412.482	28.177	825.973	665.070
413.496	28.229	825.422	664.755
414.511	28.077	825.394	664.122
415.526	28.039	825.031	663.633
416.540	28.009	824.359	662.927
417.555	27.827	823.202	661.276
418.569	27.699	822.962	660.562
419.584	27.718	822.933	660.551
420.599	27.590	821.981	659.264
421.613	102.359	1280.539	1426.374
422.628	88.486	1347.335	1426.468
