DTS Sentinel unit serial number:	SN413079Multiplexer serial number:	ORYXHardware model number:	OX4-SRSoftware version number:	ORYX F/W v4.00 Oryx Data Collector v3.7.2.0data status	okinstallation	princeton_trtdifferential loss correction	single-endedforward channel	channel 1reverse channel	N/Adate	2019/09/11time	02:48:11forward acquisition time	60.00reverse acquisition time	0.00gamma	496.2192k internal	0.2331k external	0.2331temperature offset calibration	0.9929default loss term (dB/km)	0.3790temperature slope calibration	1.0000multiplexer offset coefficient	1.0000multiplexer slope coefficient	1.0000fibre end	0.00T internal ref (°C)	29.25T ext. ref 1 (°C)	-0.28T ext. ref 2 (°C)	23.34length (m)	temperature (°C)	Stokes	anti-Stokes-747.200	-71.479	0.291	0.110
-746.185	-43.908	0.244	0.123
-745.171	715.173	-0.071	0.190
-744.156	-136.375	0.086	0.010
-743.142	184.964	-0.095	0.142
-742.127	-89.407	-0.235	-0.070
-741.112	-200.000	-0.002	-0.314
-740.098	147.094	0.355	0.481
-739.083	-128.547	-0.280	-0.040
-738.069	-200.000	-0.002	0.182
-737.054	104.855	0.133	0.157
-736.039	-30.534	-0.549	-0.313
-735.025	679.279	0.057	0.148
-734.010	190.432	-0.258	-0.390
-732.996	22.350	0.090	-0.074
-731.981	147.496	-0.071	-0.097
-730.966	595.108	-0.092	-0.229
-729.952	-54.995	0.156	0.071
-728.937	-2.783	0.015	0.010
-727.923	93.112	-0.072	-0.082
-726.908	-200.000	0.044	-0.301
-725.894	-121.867	0.054	-0.009
-724.879	-70.594	-0.326	-0.124
-723.864	29.687	0.017	0.015
-722.850	172.706	-0.203	-0.294
-721.835	-25.683	-0.031	-0.019
-720.821	29.647	0.071	-0.061
-719.806	381.093	-0.111	-0.230
-718.791	48.381	-0.306	-0.288
-717.777	79.828	-0.069	0.074
-716.762	800.000	-0.107	0.372
-715.748	-200.000	0.010	-0.397
-714.733	-93.545	-0.202	-0.056
-713.718	-189.208	0.135	-0.002
-712.704	-200.000	0.069	-0.401
-711.689	-200.000	-0.011	-0.285
-710.675	123.369	-0.089	0.112
-709.660	10.589	-0.302	-0.231
-708.645	301.791	0.112	0.208
-707.631	800.000	0.080	-0.326
-706.616	-112.299	0.205	-0.041
-705.602	139.487	0.093	-0.124
-704.587	25.292	-0.281	-0.234
-703.572	800.000	0.032	-0.108
-702.558	53.912	-0.190	-0.184
-701.543	-149.442	-0.275	-0.022
-700.529	-2.228	0.441	0.311
-699.514	5.531	-0.218	0.162
-698.499	291.072	0.060	0.110
-697.485	51.749	-0.254	0.243
-696.470	-29.150	0.168	0.097
-695.456	-109.560	-0.216	-0.046
-694.441	-200.000	-0.038	-0.169
-693.426	-51.927	-0.136	-0.064
-692.412	3.039	0.328	-0.239
-691.397	181.479	0.016	-0.024
-690.383	135.382	-0.153	-0.199
-689.368	119.994	-0.113	0.140
-688.354	-116.102	0.198	-0.037
-687.339	-57.038	0.357	-0.158
-686.324	-200.000	0.051	-0.295
-685.310	-135.915	-0.140	-0.017
-684.295	192.598	-0.155	-0.234
-683.281	-91.556	-0.119	-0.034
-682.266	40.530	-0.084	0.076
-681.251	13.474	-0.056	0.043
-680.237	-105.446	-0.403	0.092
-679.222	61.037	0.234	0.233
-678.208	163.471	-0.041	-0.058
-677.193	-89.852	0.386	-0.113
-676.178	-55.022	-0.295	0.133
-675.164	-0.893	0.429	0.305
-674.149	800.000	-0.082	0.248
-673.135	-76.215	-0.217	0.077
-672.120	38.641	-0.100	-0.089
-671.105	-200.000	-0.000	0.154
-670.091	800.000	0.048	-0.142
-669.076	-35.345	-0.107	-0.058
-668.062	30.922	0.195	-0.168
-667.047	-200.000	0.026	0.322
-666.032	-30.282	-0.155	0.088
-665.018	264.904	0.031	-0.054
-664.003	336.826	-0.121	-0.235
-662.989	-9.243	0.292	-0.196
-661.974	-113.782	-0.068	-0.013
-660.959	-21.781	-0.158	-0.097
-659.945	169.856	-0.149	-0.214
-658.930	15.221	0.241	0.189
-657.916	264.117	-0.048	-0.084
-656.901	131.620	-0.045	-0.059
-655.886	731.806	0.024	0.063
-654.872	434.812	-0.094	-0.206
-653.857	-115.432	-0.348	-0.066
-652.843	224.695	-0.107	-0.173
-651.828	-84.919	-0.302	-0.095
-650.814	-200.000	0.068	-0.357
-649.799	324.984	0.045	-0.087
-648.784	-128.384	-0.163	0.023
-647.770	256.453	0.070	0.121
-646.755	-185.057	0.276	0.004
-645.741	-81.210	0.074	-0.024
-644.726	-125.112	0.381	0.059
-643.711	32.777	-0.140	-0.122
-642.697	-200.000	0.066	0.296
-641.682	-136.383	-0.271	0.032
-640.668	-200.000	-0.002	0.042
-639.653	8.128	0.079	-0.060
-638.638	-136.424	-0.346	0.040
-637.624	-200.000	-0.023	-0.100
-636.609	569.743	-0.095	-0.231
-635.595	800.000	0.055	-0.229
-634.580	-45.532	0.366	-0.181
-633.565	186.138	0.229	-0.341
-632.551	-200.000	0.063	0.408
-631.536	-60.244	-0.138	0.059
-630.522	-200.000	-0.013	0.095
-629.507	567.746	0.162	0.394
-628.492	-68.791	-0.257	-0.099
-627.478	-85.772	-0.176	0.055
-626.463	-167.757	0.154	0.006
-625.449	563.698	0.108	-0.261
-624.434	50.172	-0.220	-0.208
-623.419	757.607	-0.176	0.477
-622.405	-41.625	0.039	-0.020
-621.390	214.755	-0.234	-0.372
-620.376	-153.484	-0.240	0.017
-619.361	283.812	-0.221	0.398
-618.346	-9.802	-0.383	-0.255
-617.332	582.542	-0.046	0.112
-616.317	800.000	-0.087	-0.322
-615.303	-93.431	-0.282	0.078
-614.288	-13.185	0.153	0.100
-613.273	107.523	-0.202	-0.240
-612.259	-200.000	0.019	-0.119
-611.244	-105.820	-0.445	0.101
-610.230	-200.000	0.019	-0.117
-609.215	800.000	-0.003	0.013
-608.201	-117.429	0.123	-0.022
-607.186	413.015	-0.099	-0.210
-606.171	77.985	0.238	-0.254
-605.157	-200.000	-0.012	0.069
-604.142	-22.650	-0.165	0.100
-603.128	-156.404	0.222	0.014
-602.113	-56.849	0.089	0.040
-601.098	-48.416	-0.541	0.261
-600.084	120.713	-0.191	-0.238
-599.069	80.236	-0.083	0.090
-598.055	236.833	-0.135	-0.223
-597.040	-200.000	-0.016	0.153
-596.025	800.000	-0.048	-0.143
-595.011	619.612	0.064	-0.160
-593.996	-8.203	0.246	0.165
-592.982	-200.000	0.035	-0.257
-591.967	-200.000	0.003	0.176
-590.952	-148.429	-0.348	-0.029
-589.938	99.526	0.223	-0.259
-588.923	-51.537	0.161	-0.075
-587.909	453.017	-0.020	-0.044
-586.894	-200.000	-0.001	0.009
-585.879	-43.107	-0.132	0.067
-584.865	-200.000	0.030	-0.144
-583.850	14.267	-0.168	-0.131
-582.836	-54.754	-0.369	-0.167
-581.821	533.880	0.079	-0.188
-580.806	-100.519	0.068	0.017
-579.792	-154.101	-0.234	-0.016
-578.777	-106.698	-0.197	0.044
-577.763	-200.000	0.009	-0.226
-576.748	-147.561	0.257	0.022
-575.733	800.000	-0.097	-0.370
-574.719	284.784	-0.064	-0.115
-573.704	-200.000	0.027	0.140
-572.690	-104.556	0.191	-0.044
-571.675	800.000	-0.100	-0.321
-570.661	276.535	0.098	-0.175
-569.646	-44.626	0.136	-0.068
-568.631	139.693	0.138	0.181
-567.617	487.321	0.036	-0.082
-566.602	-137.981	0.466	0.052
-565.588	-200.000	-0.016	-0.097
-564.573	289.255	-0.164	0.297
-563.558	-81.113	-0.200	0.066
-562.544	-24.475	0.321	-0.191
-561.529	800.000	0.090	0.281
-560.515	800.000	-0.057	0.164
-559.500	800.000	-0.110	0.369
-558.485	150.516	0.202	-0.274
-557.471	-98.513	-0.063	-0.016
-556.456	-200.000	0.009	0.248
-555.442	535.453	-0.062	0.147
-554.427	656.933	0.049	0.125
-553.412	800.000	0.048	0.167
-552.398	660.699	0.029	-0.075
-551.383	-200.000	0.025	0.263
-550.369	20.359	0.048	0.039
-549.354	-42.819	-0.163	-0.083
-548.339	7.593	0.290	0.217
-547.325	-200.000	-0.072	0.482
-546.310	115.139	0.027	0.033
-545.296	800.000	-0.047	-0.135
-544.281	800.000	-0.009	-0.031
-543.266	-154.362	-0.298	-0.020
-542.252	236.603	0.149	-0.247
-541.237	291.797	-0.101	0.184
-540.223	-74.559	0.233	-0.084
-539.208	800.000	-0.090	-0.276
-538.193	800.000	0.000	-0.001
-537.179	724.172	0.058	-0.154
-536.164	-45.569	-0.107	0.053
-535.150	-129.039	0.232	0.032
-534.135	-69.802	0.151	-0.058
-533.121	0.652	-0.074	-0.053
-532.106	6.136	0.025	0.019
-531.091	483.447	0.176	-0.399
-530.077	-175.646	-0.218	0.006
-529.062	-94.472	0.343	-0.093
-528.048	147.990	-0.154	-0.207
-527.033	-41.771	-0.020	0.010
-526.018	-200.000	0.000	0.169
-525.004	640.143	0.135	-0.343
-523.989	27.535	0.114	0.095
-522.975	107.482	0.129	0.153
-521.960	-6.801	-0.230	0.156
-520.945	-75.837	-0.158	-0.056
-519.931	-200.000	-0.003	-0.177
-518.916	-89.573	0.278	0.081
-517.902	-152.758	0.089	0.006
-516.887	37.190	-0.099	0.088
-515.872	-200.000	-0.036	-0.177
-514.858	-9.917	-0.258	0.171
-513.843	-68.029	0.069	0.027
-512.829	-200.000	0.034	-0.174
-511.814	431.313	0.118	0.255
-510.799	198.063	-0.134	0.204
-509.785	-97.403	0.261	-0.068
-508.770	800.000	-0.108	0.408
-507.756	-41.566	0.087	0.045
-506.741	-162.640	-0.267	0.013
-505.726	-117.951	0.173	0.031
-504.712	-200.000	-0.018	0.110
-503.697	-141.204	-0.435	0.044
-502.683	-172.955	0.328	0.010
-501.668	-180.391	-0.103	-0.002
-500.653	-108.101	0.179	0.039
-499.639	-11.153	-0.414	0.272
-498.624	-200.000	-0.005	-0.163
-497.610	-47.556	0.372	-0.180
-496.595	800.000	-0.043	-0.142
-495.581	193.965	-0.115	0.173
-494.566	-40.640	0.308	0.159
-493.551	-15.104	-0.065	0.041
-492.537	800.000	-0.065	0.185
-491.522	-29.558	-0.236	0.134
-490.508	-126.729	0.280	-0.041
-489.493	800.000	0.068	0.191
-488.478	215.525	-0.179	-0.283
-487.464	62.966	0.104	0.103
-486.449	800.000	-0.130	0.503
-485.435	-109.818	0.170	0.036
-484.420	-40.062	-0.067	-0.035
-483.405	43.056	-0.200	0.182
-482.391	174.976	0.254	-0.367
-481.376	800.000	-0.037	0.133
-480.362	-200.000	-0.020	0.349
-479.347	262.692	-0.110	0.191
-478.332	-148.916	-0.076	0.006
-477.318	577.628	0.103	0.251
-476.303	-58.460	-0.178	-0.077
-475.289	-48.009	-0.208	-0.100
-474.274	521.098	0.082	0.192
-473.259	-101.723	-0.039	-0.009
-472.245	-200.000	0.033	0.147
-471.230	-19.812	-0.092	-0.056
-470.216	80.231	0.092	-0.098
-469.201	-18.386	-0.375	-0.233
-468.186	753.278	0.124	-0.335
-467.172	-49.908	-0.312	-0.147
-466.157	3.378	0.029	-0.021
-465.143	-94.378	0.101	-0.027
-464.128	-55.192	0.514	0.230
-463.113	-90.351	0.475	0.137
-462.099	-68.165	-0.083	-0.032
-461.084	800.000	0.072	0.285
-460.070	-32.353	-0.021	-0.012
-459.055	378.896	0.094	-0.191
-458.040	32.031	-0.214	0.184
-457.026	-150.441	-0.452	0.035
-456.011	115.752	-0.059	0.072
-454.997	-89.028	0.341	0.100
-453.982	-162.705	-0.259	0.013
-452.968	-140.228	-0.213	-0.022
-451.953	53.153	-0.261	0.248
-450.938	-90.862	0.193	0.055
-449.924	-169.232	-0.250	-0.009
-448.909	297.786	0.065	-0.119
-447.895	-23.143	0.175	-0.105
-446.880	-200.000	-0.002	-0.104
-445.865	-83.379	0.245	0.078
-444.851	-200.000	-0.016	-0.071
-443.836	-200.000	-0.005	-0.132
-442.822	-200.000	-0.092	-0.402
-441.807	9.365	0.337	-0.254
-440.792	-143.184	0.262	0.025
-439.778	800.000	0.090	0.307
-438.763	800.000	-0.134	0.420
-437.749	-200.000	-0.027	-0.459
-436.734	144.067	-0.247	-0.327
-435.719	82.881	0.077	0.084
-434.705	-132.242	0.354	-0.046
-433.690	-66.844	-0.035	-0.014
-432.676	34.246	-0.093	-0.081
-431.661	360.373	-0.083	-0.165
-430.646	-55.699	0.379	-0.169
-429.632	-121.556	0.175	0.029
-428.617	95.218	-0.128	0.145
-427.603	124.885	-0.145	-0.181
-426.588	-86.575	0.184	0.056
-425.573	414.026	-0.102	-0.217
-424.559	-200.000	0.002	0.033
-423.544	77.079	-0.088	0.093
-422.530	55.013	0.236	0.227
-421.515	190.980	-0.173	0.258
-420.500	800.000	0.101	-0.338
-419.486	117.225	0.164	0.200
-418.471	-200.000	0.012	-0.227
-417.457	-28.925	0.131	0.075
-416.442	135.991	-0.132	0.170
-415.428	685.043	-0.067	-0.175
-414.413	-36.121	0.201	0.108
-413.398	-200.000	-0.017	-0.261
-412.384	735.563	0.091	0.242
-411.369	75.171	0.047	-0.049
-410.355	-35.593	-0.125	0.068
-409.340	-16.090	0.241	0.152
-408.325	-200.000	0.065	0.301
-407.311	-200.000	-0.006	0.047
-406.296	-200.000	-0.031	-0.295
-405.282	800.000	-0.047	0.149
-404.267	62.055	-0.150	0.148
-403.252	98.262	-0.153	0.175
-402.238	308.123	0.099	-0.184
-401.223	-119.278	-0.360	0.062
-400.209	125.309	-0.012	-0.015
-399.194	-200.000	0.021	0.136
-398.179	-134.156	-0.187	0.023
-397.165	-165.614	0.135	0.006
-396.150	-200.000	0.013	0.058
-395.136	225.867	-0.110	-0.178
-394.121	-41.318	0.301	0.154
-393.106	236.346	-0.106	0.174
-392.092	566.423	-0.096	-0.232
-391.077	-30.726	0.213	-0.120
-390.063	123.712	0.271	-0.338
-389.048	-200.000	0.011	0.068
-388.033	800.000	-0.019	-0.076
-387.019	-10.980	0.134	0.088
-386.004	-102.277	-0.257	-0.061
-384.990	800.000	0.089	0.269
-383.975	-167.477	-0.274	-0.011
-382.960	2.287	-0.242	-0.174
-381.946	-1.207	0.125	0.088
-380.931	800.000	0.077	-0.283
-379.917	4.060	-0.101	-0.074
-378.902	621.689	-0.088	-0.221
-377.888	800.000	-0.081	0.250
-376.873	-135.236	0.162	0.019
-375.858	800.000	0.116	-0.408
-374.844	250.334	0.137	-0.231
-373.829	8.049	0.244	-0.182
-372.815	228.279	0.136	0.220
-371.800	-20.282	-0.067	-0.041
-370.785	-30.357	-0.193	0.108
-369.771	189.812	0.177	0.263
-368.756	-27.047	-0.142	0.082
-367.742	38.303	-0.066	0.058
-366.727	120.405	-0.086	-0.106
-365.712	346.832	-0.081	0.158
-364.698	-103.644	0.348	-0.081
-363.683	272.768	0.028	0.048
-362.669	-200.000	0.069	0.316
-361.654	-200.000	0.046	-0.238
-360.639	-76.532	-0.268	-0.093
-359.625	-50.136	-0.356	-0.167
-358.610	-75.727	0.069	0.024
-357.596	476.261	-0.170	-0.380
-356.581	188.010	0.305	-0.452
-355.566	71.535	-0.147	0.151
-354.552	800.000	0.037	-0.124
-353.537	-78.341	-0.122	-0.042
-352.523	-96.312	-0.243	0.064
-351.508	15.108	0.104	0.081
-350.493	800.000	-0.073	0.215
-349.479	398.233	-0.155	0.321
-348.464	54.005	-0.067	-0.064
-347.450	227.574	0.231	0.373
-346.435	372.531	0.073	0.147
-345.420	-200.000	0.008	0.271
-344.406	-119.240	-0.460	-0.079
-343.391	79.086	-0.257	-0.273
-342.377	-128.806	0.146	-0.020
-341.362	-54.061	-0.006	0.003
-340.348	81.194	0.179	0.192
-339.333	249.603	-0.031	-0.053
-338.318	-38.232	-0.105	0.055
-337.304	245.426	0.145	0.242
-336.289	-122.794	-0.082	-0.013
-335.275	152.719	0.097	0.131
-334.260	58.895	0.169	-0.165
-333.245	800.000	-0.086	0.269
-332.231	-123.285	0.056	0.009
-331.216	-200.000	-0.015	-0.108
-330.202	-156.950	0.395	0.024
-329.187	-127.263	0.306	0.044
-328.172	13.207	-0.235	-0.180
-327.158	-173.545	-0.137	-0.004
-326.143	-200.000	0.019	0.188
-325.129	18.399	-0.303	-0.240
-324.114	43.585	-0.116	0.105
-323.099	85.513	-0.010	0.011
-322.085	800.000	-0.090	0.379
-321.070	-110.513	-0.456	0.094
-320.056	222.116	-0.095	0.151
-319.041	216.516	-0.042	-0.066
-318.026	75.334	0.138	-0.144
-317.012	743.345	0.062	-0.165
-315.997	23.162	0.054	-0.044
-314.983	-93.596	-0.248	0.068
-313.968	65.102	0.070	-0.070
-312.953	32.728	0.142	-0.122
-311.939	-141.682	0.165	-0.016
-310.924	-58.464	0.149	-0.064
-309.910	35.389	-0.134	-0.117
-308.895	-181.467	-0.279	-0.005
-307.880	-65.648	0.209	-0.083
-306.866	-43.894	-0.344	-0.171
-305.851	-200.000	0.001	0.191
-304.837	-200.000	0.073	0.334
-303.822	501.446	-0.122	0.278
-302.807	-200.000	0.002	-0.098
-301.793	594.210	-0.094	-0.231
-300.778	-175.328	0.166	-0.005
-299.764	-2.995	-0.132	-0.091
-298.749	-200.000	-0.056	0.375
-297.735	-164.777	-0.324	0.014
-296.720	312.142	-0.031	-0.057
-295.705	177.777	-0.212	0.306
-294.691	-200.000	0.041	0.424
-293.676	-66.551	-0.089	-0.035
-292.662	31.578	-0.316	-0.269
-291.647	238.239	-0.131	-0.215
-290.632	-128.033	-0.257	-0.036
-289.618	-200.000	-0.044	0.221
-288.603	800.000	0.031	0.088
-287.589	-200.000	-0.108	-0.000
-286.574	-55.809	0.190	-0.084
-285.559	48.566	-0.085	0.078
-284.545	441.514	-0.062	0.133
-283.530	58.135	0.094	-0.091
-282.516	-34.842	0.407	-0.220
-281.501	-200.000	-0.001	-0.005
-280.486	-76.615	0.305	-0.106
-279.472	536.975	0.031	0.073
-278.457	-20.122	0.201	-0.123
-277.443	-51.246	-0.079	-0.036
-276.428	-85.717	0.346	-0.106
-275.413	-68.882	0.144	0.055
-274.399	307.149	0.165	0.305
-273.384	270.867	0.098	0.170
-272.370	-70.789	-0.278	-0.104
-271.355	347.357	0.098	-0.191
-270.340	-10.011	0.208	0.137
-269.326	800.000	-0.079	-0.254
-268.311	-200.000	0.005	0.042
-267.297	-10.838	0.260	0.170
-266.282	-200.000	-0.086	0.414
-265.267	-56.646	0.273	0.120
-264.253	-142.651	-0.192	0.019
-263.238	177.980	-0.051	0.074
-262.224	-8.209	-0.289	-0.192
-261.209	-136.970	-0.374	0.042
-260.195	-200.000	-0.047	0.306
-259.180	11.283	0.349	-0.264
-258.165	-25.251	-0.183	0.107
-257.151	-15.079	0.231	0.146
-256.136	164.005	-0.205	0.286
-255.122	-200.000	-0.018	0.315
-254.107	-117.463	0.154	0.028
-253.092	405.062	0.004	-0.008
-252.078	-200.000	-0.002	-0.207
-251.063	-200.000	0.019	-0.123
-250.049	766.976	-0.021	0.057
-249.034	-40.144	-0.043	0.022
-248.019	-200.000	-0.023	0.153
-247.005	480.499	0.046	0.104
-245.990	262.766	0.015	-0.025
-244.976	-149.259	-0.188	-0.015
-243.961	800.000	0.032	-0.102
-242.946	-98.332	0.442	0.112
-241.932	567.296	-0.026	-0.063
-240.917	-61.331	-0.082	0.034
-239.903	84.598	0.087	-0.094
-238.888	183.166	-0.090	-0.131
-237.873	12.014	0.364	-0.276
-236.859	110.284	0.149	0.177
-235.844	-200.000	-0.001	0.172
-234.830	-67.009	-0.189	-0.074
-233.815	97.056	0.056	0.063
-232.800	800.000	-0.056	0.165
-231.786	-200.000	0.050	-0.405
-230.771	-200.000	0.045	-0.353
-229.757	51.945	0.173	0.162
-228.742	-86.038	-0.266	0.081
-227.727	-46.312	0.187	0.091
-226.713	59.293	-0.110	-0.107
-225.698	-180.764	0.345	0.007
-224.684	-144.191	0.395	0.036
-223.669	609.585	-0.112	0.277
-222.655	-35.537	0.115	-0.062
-221.640	-31.043	-0.187	-0.104
-220.625	-164.347	-0.138	-0.006
-219.611	-82.778	0.386	0.123
-218.596	-30.493	-0.180	0.101
-217.582	273.584	0.066	0.115
-216.567	177.647	-0.052	0.074
-215.552	277.116	-0.171	-0.300
-214.538	-99.872	0.241	0.059
-213.523	-52.355	-0.318	-0.145
-212.509	70.948	0.098	-0.100
-211.494	496.328	0.029	0.065
-210.479	-200.000	-0.001	0.085
-209.465	17.054	-0.330	-0.258
-208.450	-200.000	0.044	-0.206
-207.436	-60.484	0.152	-0.064
-206.421	103.472	0.223	-0.258
-205.406	165.981	0.198	-0.276
-204.392	83.711	-0.232	-0.249
-203.377	-4.735	0.178	0.121
-202.363	-200.000	0.063	0.278
-201.348	800.000	-0.021	0.061
-200.333	-43.492	-0.377	0.188
-199.319	-10.810	0.185	0.120
-198.304	-115.786	-0.238	0.044
-197.290	-139.214	-0.117	0.012
-196.275	-200.000	0.005	0.248
-195.260	88.341	-0.079	-0.086
-194.246	800.000	-0.066	-0.226
-193.231	115.368	0.408	-0.490
-192.217	230.304	0.054	0.086
-191.202	-58.846	-0.174	0.074
-190.187	-156.414	-0.087	0.005
-189.173	-200.000	0.023	-0.103
-188.158	-69.474	0.250	-0.094
-187.144	-121.999	0.068	-0.011
-186.129	-33.340	0.066	-0.036
-185.114	170.732	-0.180	-0.254
-184.100	8.946	-0.140	0.104
-183.085	335.172	-0.075	0.143
-182.071	-109.001	-0.137	0.029
-181.056	-200.000	-0.005	-0.069
-180.042	59.324	0.152	-0.147
-179.027	800.000	0.081	-0.236
-178.012	-200.000	0.020	-0.472
-176.998	-43.023	-0.028	0.014
-175.983	-200.000	-0.008	0.130
-174.969	-200.000	-0.023	0.224
-173.954	-200.000	-0.003	-0.060
-172.939	-111.059	0.240	-0.048
-171.925	800.000	-0.115	0.367
-170.910	-81.369	0.321	0.104
-169.896	35.899	0.284	0.245
-168.881	-116.572	-0.261	-0.047
-167.866	-129.147	0.176	-0.024
-166.852	407.406	-0.186	-0.386
-165.837	800.000	-0.081	0.226
-164.823	82.972	-0.093	-0.099
-163.808	665.700	0.128	-0.324
-162.793	57.440	0.273	-0.262
-161.779	800.000	-0.040	-0.130
-160.764	-46.877	0.182	-0.087
-159.750	-149.176	0.366	-0.029
-158.735	-103.826	0.271	-0.062
-157.720	18.191	0.207	0.163
-156.706	378.715	0.078	0.157
-155.691	-79.300	-0.199	0.066
-154.677	144.671	-0.077	-0.101
-153.662	-37.564	-0.139	-0.073
-152.647	610.387	0.088	0.217
-151.633	9.713	-0.174	-0.130
-150.618	800.000	-0.062	-0.212
-149.604	-164.969	0.199	-0.009
-148.589	-124.178	-0.210	-0.032
-147.574	800.000	0.087	-0.319
-146.560	-82.948	-0.123	-0.039
-145.545	92.765	0.174	-0.193
-144.531	-200.000	0.013	0.078
-143.516	641.722	-0.056	-0.141
-142.502	148.489	-0.266	-0.354
-141.487	800.000	0.074	0.225
-140.472	165.356	0.037	0.052
-139.458	-200.000	-0.008	0.097
-138.443	-96.526	-0.166	-0.043
-137.429	623.077	0.104	-0.258
-136.414	800.000	0.115	0.317
-135.399	481.723	-0.218	0.485
-134.385	218.726	0.141	0.221
-133.370	-25.694	-0.069	0.040
-132.356	-200.000	0.002	-0.229
-131.341	120.067	0.258	-0.314
-130.326	-200.000	0.006	0.045
-129.312	29.489	-0.116	-0.097
-128.297	-33.036	-0.387	0.211
-127.283	648.916	0.120	0.302
-126.268	800.000	0.025	0.078
-125.253	-122.274	0.257	-0.041
-124.239	72.354	0.081	-0.083
-123.224	-200.000	0.011	-0.181
-122.210	-64.210	-0.164	-0.066
-121.195	-176.912	-0.244	-0.006
-120.180	-127.099	0.307	0.044
-119.166	155.541	0.089	-0.120
-118.151	-27.078	0.138	0.079
-117.137	42.836	-0.241	0.216
-116.122	-145.412	-0.499	-0.044
-115.107	338.031	-0.072	-0.137
-114.093	-159.644	-0.282	-0.015
-113.078	-32.859	0.371	-0.203
-112.064	-91.951	0.044	0.012
-111.049	-171.303	0.357	0.012
-110.034	-200.000	0.013	0.105
-109.020	-87.061	-0.204	-0.061
-108.005	-47.235	0.323	-0.155
-106.991	-200.000	0.012	0.215
-105.976	-200.000	-0.049	0.405
-104.962	800.000	-0.025	-0.087
-103.947	-84.568	0.074	-0.023
-102.932	-83.907	0.294	-0.092
-101.918	168.888	-0.089	0.124
-100.903	138.833	-0.263	0.339
-99.889	-25.456	0.101	0.059
-98.874	-200.000	-0.006	-0.046
-97.859	64.015	0.136	-0.134
-96.845	-139.915	0.153	-0.016
-95.830	53.091	0.095	0.089
-94.816	-200.000	0.034	0.148
-93.801	-200.000	-0.028	-0.366
-92.786	-121.148	-0.104	0.017
-91.772	-200.000	-0.033	-0.195
-90.757	229.601	0.176	-0.281
-89.743	-123.850	-0.083	0.013
-88.728	-173.853	-0.364	0.011
-87.713	-96.031	0.224	-0.059
-86.699	-200.000	0.000	-0.023
-85.684	-165.041	-0.168	-0.007
-84.670	-200.000	-0.016	0.168
-83.655	-54.797	-0.226	0.100
-82.640	190.949	0.021	-0.030
-81.626	-125.409	0.052	-0.008
-80.611	413.990	0.132	-0.275
-79.597	-138.749	0.117	0.013
-78.582	800.000	0.097	-0.292
-77.567	136.957	-0.181	0.232
-76.553	-39.389	0.265	-0.136
-75.538	-70.480	0.465	0.173
-74.524	-200.000	-0.096	0.000
-73.509	4.423	-0.126	-0.091
-72.494	800.000	0.105	0.290
-71.480	106.898	-0.193	-0.224
-70.465	509.674	0.141	-0.322
-69.451	-200.000	-0.014	-0.213
-68.436	276.135	-0.066	-0.115
-67.422	88.229	-0.220	-0.239
-66.407	40.422	-0.164	0.145
-65.392	-96.632	-0.095	-0.024
-64.378	446.909	-0.024	0.051
-63.363	-99.264	-0.567	-0.140
-62.349	23.049	0.058	-0.046
-61.334	210.218	-0.739	-1.137
-60.319	-17.572	0.744	0.458
-59.305	369.996	-0.624	-1.238
-58.290	522.246	0.628	1.445
-57.276	570.656	0.612	1.460
-56.261	-200.000	106.628	618.264
-55.246	513.657	1512.837	3456.025
-54.232	175.822	2705.950	3845.813
-53.217	111.247	2165.494	2556.071
-52.203	41.273	1601.061	1417.881
-51.188	32.746	1336.953	1132.987
-50.173	29.706	1295.712	1080.261
-49.159	54.189	1350.002	1272.211
-48.144	54.226	1365.719	1287.191
-47.130	32.801	1320.182	1118.922
-46.115	29.537	1301.254	1083.716
-45.100	29.140	1297.429	1078.164
-44.086	29.139	1294.543	1075.717
-43.071	29.148	1292.176	1073.760
-42.057	29.034	1290.142	1071.366
-41.042	29.117	1288.768	1070.661
-40.027	29.093	1287.550	1069.470
-39.013	29.143	1285.351	1067.893
-37.998	29.153	1283.500	1066.371
-36.984	29.301	1281.563	1065.572
-35.969	29.147	1279.664	1063.059
-34.954	29.314	1278.033	1062.629
-33.940	29.282	1276.604	1061.213
-32.925	29.256	1275.613	1060.200
-31.911	29.311	1274.235	1059.328
-30.896	29.234	1272.877	1057.711
-29.881	29.470	1270.498	1057.046
-28.867	29.432	1269.620	1056.055
-27.852	29.292	1268.289	1054.105
-26.838	29.315	1266.918	1053.058
-25.823	29.363	1265.774	1052.340
-24.809	29.200	1265.019	1050.742
-23.794	29.349	1262.942	1049.822
-22.779	29.355	1261.475	1048.597
-21.765	29.441	1260.126	1047.919
-20.750	29.380	1258.757	1046.393
-19.736	29.234	1258.008	1044.903
-18.721	29.310	1256.738	1044.238
-17.706	29.174	1255.865	1042.699
-16.692	29.176	1254.550	1041.578
-15.677	29.228	1253.436	1040.908
-14.663	29.167	1252.444	1039.695
-13.648	29.120	1251.489	1038.594
-12.633	29.286	1250.012	1038.264
-11.619	29.168	1249.549	1037.173
-10.604	29.281	1248.583	1036.965
-9.590	29.240	1247.586	1035.867
-8.575	29.158	1246.479	1034.449
-7.560	29.086	1245.993	1033.597
-6.546	29.160	1245.369	1033.455
-5.531	29.210	1244.103	1032.645
-4.517	29.137	1243.299	1031.525
-3.502	29.259	1242.391	1031.413
-2.487	29.289	1241.702	1030.968
-1.473	29.277	1237.419	1027.308
-0.458	27.807	1222.775	1007.005
0.556	22.178	1205.854	970.711
1.571	18.721	1211.338	955.829
2.586	18.028	1226.037	963.434
3.600	17.889	1215.538	954.322
4.615	13.284	1144.021	873.813
5.629	4.362	1069.933	772.883
6.644	0.020	1049.763	736.997
7.659	-0.224	1047.411	734.085
8.673	-0.389	1046.008	732.232
9.688	-0.515	1045.025	730.866
10.702	0.051	1043.369	732.399
11.717	5.957	1051.853	767.219
12.731	15.023	1064.609	821.119
13.746	19.313	1070.041	846.347
14.761	20.474	1070.891	852.641
15.775	20.343	1070.734	851.801
16.790	20.175	1069.886	850.225
17.804	20.108	1069.408	849.443
18.819	20.349	1068.771	850.040
19.834	20.272	1067.934	848.927
20.848	20.302	1067.811	848.899
21.863	20.340	1067.076	848.427
22.877	20.274	1066.701	847.729
23.892	20.254	1065.757	846.804
24.907	20.279	1065.324	846.508
25.921	20.267	1063.676	845.067
26.936	20.256	1062.928	844.346
27.950	20.282	1060.845	842.742
28.965	20.083	1059.411	840.561
29.980	20.058	1058.118	839.340
30.994	20.274	1056.849	839.306
32.009	20.241	1055.809	838.244
33.023	19.980	1054.642	835.986
34.038	20.231	1053.878	836.518
35.053	20.320	1053.166	836.308
36.067	20.323	1052.290	835.551
37.082	20.318	1051.524	834.845
38.096	20.573	1050.833	835.449
39.111	20.502	1050.024	834.389
40.126	20.474	1047.834	832.439
41.140	20.236	1046.389	830.080
42.155	20.048	1045.050	828.045
43.169	20.013	1044.314	827.222
44.184	20.046	1043.405	826.587
45.199	19.909	1042.282	824.971
46.213	20.043	1041.346	824.795
47.228	20.086	1040.403	824.182
48.242	20.096	1039.838	823.706
49.257	20.345	1038.860	824.042
50.271	20.435	1037.830	823.581
51.286	20.387	1037.002	822.620
52.301	20.363	1036.185	821.787
53.315	20.319	1034.969	820.543
54.330	20.428	1033.731	820.001
55.344	20.320	1033.289	819.071
56.359	20.221	1032.917	818.236
57.374	20.127	1031.678	816.739
58.388	20.225	1030.756	816.397
59.403	20.037	1029.891	814.758
60.417	19.974	1029.200	813.840
61.432	20.146	1028.304	813.870
62.447	20.191	1028.012	813.778
63.461	20.272	1027.369	813.575
64.476	20.092	1026.199	811.734
65.490	20.010	1025.245	810.523
66.505	20.191	1024.647	810.828
67.520	20.171	1023.966	810.121
68.534	19.932	1022.988	808.162
69.549	19.620	1022.136	805.962
70.563	19.636	1021.226	805.246
71.578	19.630	1020.494	804.572
72.593	19.562	1019.421	803.338
73.607	19.581	1019.036	803.049
74.622	19.924	1019.002	804.548
75.636	19.985	1017.650	803.691
76.651	19.826	1016.740	802.163
77.666	19.740	1015.842	800.988
78.680	19.876	1015.169	801.015
79.695	19.838	1014.837	800.507
80.709	20.029	1013.705	800.426
81.724	19.896	1013.505	799.582
82.739	19.960	1012.930	799.352
83.753	20.274	1011.743	799.791
84.768	20.508	1010.799	800.054
85.782	20.499	1010.591	799.775
86.797	20.569	1008.632	798.477
87.812	20.480	1007.992	797.489
88.826	20.586	1006.904	797.048
89.841	20.541	1006.203	796.216
90.855	20.556	1005.152	795.382
91.870	20.437	1004.732	794.435
92.884	20.348	1002.846	792.464
93.899	20.291	1002.427	791.807
94.914	20.543	1001.386	792.063
95.928	20.380	1000.418	790.483
96.943	20.233	999.241	788.816
97.957	19.987	997.904	786.572
98.972	19.900	996.395	784.917
99.987	20.065	996.067	785.336
101.001	20.195	995.664	785.543
102.016	20.229	994.638	784.813
103.030	20.179	993.380	783.527
104.045	20.131	992.142	782.267
105.060	19.805	991.509	780.226
106.074	20.200	990.307	780.990
107.089	20.424	990.557	782.130
108.103	20.146	989.280	779.801
109.118	20.196	988.069	778.999
110.133	20.131	987.048	777.833
111.147	19.949	985.770	775.944
112.162	19.859	984.662	774.601
113.176	19.977	984.279	774.758
114.191	19.979	982.848	773.572
115.206	19.645	982.075	771.405
116.220	19.732	981.142	770.990
117.235	19.893	980.330	771.002
118.249	19.837	979.326	769.896
119.264	19.834	978.261	768.977
120.279	19.973	977.425	768.867
121.293	19.991	977.052	768.587
122.308	19.819	976.509	767.330
123.322	19.867	975.097	766.366
124.337	19.770	973.242	764.408
125.352	19.287	971.932	761.180
126.366	19.162	971.172	759.965
127.381	20.016	970.755	763.337
128.395	20.344	970.474	764.496
129.410	20.461	969.164	763.912
130.424	20.231	968.459	762.275
131.439	20.336	967.260	761.724
132.454	20.355	966.464	761.113
133.468	20.068	966.045	759.459
134.483	20.317	965.110	759.749
135.497	20.445	964.295	759.600
136.512	20.498	963.172	758.877
137.527	20.468	962.656	758.272
138.541	20.520	961.744	757.713
139.556	20.603	960.716	757.201
140.570	20.571	960.111	756.516
141.585	20.586	959.073	755.696
142.600	20.535	957.529	754.192
143.614	20.814	956.984	754.905
144.629	20.770	956.516	754.279
145.643	20.534	955.210	752.159
146.658	20.487	954.012	750.947
147.673	20.477	952.816	749.898
148.687	20.392	951.653	748.550
149.702	20.390	950.921	747.900
150.716	20.314	950.103	746.860
151.731	20.432	949.467	746.801
152.746	20.659	949.239	747.533
153.760	20.844	948.198	747.439
154.775	20.642	948.131	746.457
155.789	20.723	947.102	745.928
156.804	20.677	946.035	744.823
157.819	20.717	944.999	744.112
158.833	20.743	944.592	743.837
159.848	20.821	943.328	743.109
160.862	20.636	941.999	741.207
161.877	20.741	941.190	740.954
162.892	20.799	940.292	740.426
163.906	20.733	939.281	739.284
164.921	20.693	938.237	738.227
165.935	20.747	937.406	737.739
166.950	20.718	936.780	737.056
167.964	20.628	936.150	736.114
168.979	20.605	934.474	734.636
169.994	20.599	933.310	733.629
171.008	20.739	933.027	733.933
172.023	20.911	931.667	733.521
173.037	20.552	931.071	731.479
174.052	20.227	930.209	729.372
175.067	20.397	930.022	729.873
176.081	20.718	929.032	730.378
177.096	20.379	928.631	728.578
178.110	20.227	927.204	726.757
179.125	20.136	926.498	725.759
180.140	20.196	926.178	725.693
181.154	20.305	925.817	725.801
182.169	20.491	925.982	726.646
183.183	20.764	925.300	727.186
184.198	20.756	924.286	726.292
185.213	20.677	923.460	725.251
186.227	20.686	922.833	724.730
187.242	20.690	922.100	724.106
188.256	20.789	921.169	723.723
189.271	20.793	920.731	723.332
190.286	20.432	919.505	720.806
191.300	20.042	917.951	717.910
192.315	19.392	916.439	713.975
193.329	19.090	916.476	712.689
194.344	20.017	916.509	716.489
195.359	20.517	916.709	718.650
196.373	20.788	915.474	718.735
197.388	20.411	915.200	716.902
198.402	20.540	914.569	716.876
199.417	20.583	913.469	716.125
200.432	20.337	912.899	714.604
201.446	20.072	912.335	713.007
202.461	20.062	911.714	712.422
203.475	19.284	909.734	707.615
204.490	18.607	908.496	703.815
205.504	19.515	908.928	707.812
206.519	20.242	909.059	710.830
207.534	20.256	908.436	710.339
208.548	20.666	907.805	711.458
209.563	20.381	907.131	709.703
210.577	20.454	906.552	709.487
211.592	20.802	905.968	710.384
212.607	20.754	904.814	709.224
213.621	20.714	904.312	708.602
214.636	20.788	903.931	708.542
215.650	20.634	903.275	707.339
216.665	20.759	902.659	707.303
217.680	20.827	901.356	706.497
218.694	20.293	900.520	703.613
219.709	20.255	899.767	702.809
220.723	20.653	899.174	703.893
221.738	20.621	898.330	703.042
222.753	20.634	898.017	702.786
223.767	20.655	897.460	702.372
224.782	20.877	897.142	702.960
225.796	20.758	896.811	702.156
226.811	20.051	895.818	698.469
227.826	19.637	893.920	695.260
228.840	19.907	893.453	695.921
229.855	19.841	893.059	695.289
230.869	19.612	891.720	693.267
231.884	20.015	891.726	694.825
232.899	20.639	892.099	697.556
233.913	20.535	891.176	696.357
234.928	20.443	890.749	695.595
235.942	20.464	890.150	695.151
236.957	20.167	889.113	693.089
237.972	20.264	888.540	692.968
238.986	20.413	888.018	693.095
240.001	20.354	887.320	692.256
241.015	20.438	886.673	692.024
242.030	20.601	886.111	692.171
243.045	20.778	885.399	692.260
244.059	20.741	885.237	691.926
245.074	20.582	884.147	690.380
246.088	20.221	883.357	688.268
247.103	20.478	883.019	688.964
248.117	20.993	883.143	691.041
249.132	21.212	882.649	691.463
250.147	21.233	882.085	691.040
251.161	21.517	881.599	691.721
252.176	21.291	881.097	690.376
253.190	21.574	879.874	690.473
254.205	21.617	880.001	690.681
255.220	21.449	879.216	689.339
256.234	21.262	878.435	687.929
257.249	21.337	877.324	687.295
258.263	21.364	876.820	686.945
259.278	21.430	876.084	686.565
260.293	21.582	875.186	686.400
261.307	21.323	874.749	684.979
262.322	21.153	873.689	683.423
263.336	20.341	872.245	679.058
264.351	19.302	870.049	673.235
265.366	19.462	870.042	673.792
266.380	20.573	870.667	678.555
267.395	20.937	870.088	679.465
268.409	20.994	869.375	679.069
269.424	21.266	868.522	679.400
270.439	21.228	868.172	678.921
271.453	21.477	867.521	679.316
272.468	21.507	867.274	679.181
273.482	21.562	866.686	678.873
274.497	21.193	865.244	676.253
275.512	20.874	864.326	674.243
276.526	21.172	864.708	675.636
277.541	21.324	864.142	675.718
278.555	21.215	863.203	674.503
279.570	20.898	862.678	672.810
280.585	21.046	861.875	672.696
281.599	20.960	861.129	671.725
282.614	20.510	859.916	668.986
283.628	20.489	859.390	668.435
284.643	20.966	858.935	669.855
285.657	20.489	857.922	667.175
286.672	20.235	857.348	665.698
287.687	20.843	857.412	668.019
288.701	20.858	856.729	667.487
289.716	20.458	855.863	665.221
290.730	20.621	854.770	664.935
291.745	20.260	854.029	662.921
292.760	20.637	853.788	664.116
293.774	21.446	854.200	667.464
294.789	21.851	854.061	668.844
295.803	21.954	853.330	668.604
296.818	21.907	852.721	667.887
297.833	21.451	851.540	665.171
298.847	21.217	850.973	663.779
299.862	21.666	850.763	665.264
300.876	21.803	850.555	665.561
301.891	21.710	849.313	664.179
302.906	21.306	848.337	661.827
303.920	21.621	848.310	662.938
304.935	21.810	848.111	663.441
305.949	21.615	847.357	662.055
306.964	21.572	846.312	661.017
307.979	21.621	846.288	661.125
308.993	22.001	845.918	662.211
310.008	21.926	845.258	661.353
311.022	21.535	844.630	659.331
312.037	21.676	843.819	659.170
313.052	21.380	842.754	657.169
314.066	20.470	841.201	652.480
315.081	20.198	840.671	650.992
316.095	21.047	841.107	654.461
317.110	21.533	840.795	655.981
318.125	20.652	839.207	651.387
319.139	19.625	838.417	646.872
320.154	19.734	837.857	646.792
321.168	20.650	837.658	650.005
322.183	21.363	838.070	652.929
323.197	21.309	837.939	652.567
324.212	21.409	837.497	652.542
325.227	21.554	836.661	652.372
326.241	21.615	835.869	651.922
327.256	21.411	835.286	650.654
328.270	21.410	834.682	650.121
329.285	21.224	834.158	648.963
330.300	20.928	833.328	647.161
331.314	21.085	833.079	647.494
332.329	21.581	832.776	649.039
333.343	21.786	832.246	649.330
334.358	21.594	831.938	648.321
335.373	21.757	831.779	648.742
336.387	22.099	831.394	649.650
337.402	22.085	831.091	649.304
338.416	21.903	830.620	648.206
339.431	22.213	830.260	649.012
340.446	22.234	830.037	648.857
341.460	21.954	829.767	647.558
342.475	21.893	828.826	646.539
343.489	22.066	828.737	647.049
344.504	22.370	828.195	647.688
345.519	22.323	828.127	647.406
346.533	22.508	827.561	647.587
347.548	22.446	827.096	646.936
348.562	22.463	826.468	646.452
349.577	22.364	825.760	645.478
350.592	22.403	825.113	645.056
351.606	22.364	824.631	644.481
352.621	22.322	823.598	643.464
353.635	22.315	822.620	642.618
354.650	21.550	821.232	638.684
355.665	20.631	819.703	634.090
356.679	21.012	819.919	635.591
357.694	21.473	819.142	636.608
358.708	21.434	818.658	636.036
359.723	21.854	818.545	637.416
360.738	22.115	818.167	638.016
361.752	22.194	817.878	638.020
362.767	22.425	817.449	638.468
363.781	22.666	817.042	638.966
364.796	22.747	816.655	638.900
365.810	22.722	816.364	638.524
366.825	22.565	815.768	637.435
367.840	22.358	814.947	635.989
368.854	22.181	813.826	634.417
369.869	22.111	813.983	634.233
370.883	22.188	813.436	634.028
371.898	21.964	813.072	632.879
372.913	22.138	812.534	633.034
373.927	22.206	811.951	632.767
374.942	22.391	811.584	633.091
375.956	22.361	811.685	633.006
376.971	22.638	810.896	633.328
377.986	22.719	810.815	633.502
379.000	22.784	810.071	633.097
380.015	22.525	809.543	631.700
381.029	22.596	808.876	631.376
382.044	22.728	808.407	631.426
383.059	22.651	807.994	630.772
384.073	22.685	807.589	630.524
385.088	22.702	807.115	630.158
386.102	22.673	805.984	629.117
387.117	22.550	805.467	628.217
388.132	22.212	804.228	625.992
389.146	21.738	803.344	623.564
390.161	22.147	803.237	624.879
391.175	22.486	803.013	625.855
392.190	22.199	801.983	623.979
393.205	20.819	800.291	617.717
394.219	19.491	798.361	611.471
395.234	19.530	798.454	611.624
396.248	21.090	799.682	618.040
397.263	22.567	800.473	623.832
398.278	22.402	800.009	622.831
399.292	22.248	799.363	621.727
400.307	22.192	798.831	621.061
401.321	22.202	798.508	620.791
402.336	22.645	798.327	622.158
403.350	22.969	798.497	623.381
404.365	23.180	797.993	623.674
405.380	23.562	797.641	624.688
406.394	23.460	797.024	623.793
407.409	23.366	796.840	623.262
408.423	23.479	796.176	623.085
409.438	23.289	796.285	622.448
410.453	23.400	795.421	622.106
411.467	23.449	794.882	621.803
412.482	23.346	794.777	621.304
413.496	23.410	794.241	621.053
414.511	23.348	794.221	620.766
415.526	23.507	793.056	620.356
416.540	23.314	792.093	618.873
417.555	23.146	791.775	617.984
418.569	23.212	791.342	617.822
419.584	23.087	791.176	617.201
420.599	22.904	790.694	616.131
421.613	158.214	1365.235	1799.575
422.628	137.042	1448.949	1799.659
