DTS Sentinel unit serial number:	SN413079Multiplexer serial number:	ORYXHardware model number:	OX4-SRSoftware version number:	ORYX F/W v4.00 Oryx Data Collector v3.7.2.0data status	okinstallation	princeton_trtdifferential loss correction	single-endedforward channel	channel 1reverse channel	N/Adate	2019/09/12time	07:08:11forward acquisition time	60.00reverse acquisition time	0.00gamma	496.2192k internal	0.2320k external	0.2320temperature offset calibration	1.0045default loss term (dB/km)	0.3790temperature slope calibration	1.0000multiplexer offset coefficient	1.0000multiplexer slope coefficient	1.0000fibre end	0.00T internal ref (°C)	32.17T ext. ref 1 (°C)	1.59T ext. ref 2 (°C)	27.67length (m)	temperature (°C)	Stokes	anti-Stokes-747.200	116.275	0.115	0.142
-746.185	425.759	-0.061	0.133
-745.171	481.402	-0.041	-0.094
-744.156	-24.036	0.292	0.177
-743.142	-144.622	0.062	0.006
-742.127	-200.000	-0.031	0.192
-741.112	16.259	-0.190	-0.151
-740.098	-21.367	-0.061	-0.038
-739.083	377.963	0.074	-0.153
-738.069	-114.105	0.215	-0.042
-737.054	-89.900	-0.128	0.038
-736.039	-105.695	-0.305	-0.070
-735.025	154.424	0.036	0.049
-734.010	-200.000	0.069	-0.372
-732.996	-200.000	-0.013	0.107
-731.981	-62.242	-0.257	-0.108
-730.966	-58.005	0.247	0.109
-729.952	-82.175	-0.220	-0.073
-728.937	29.986	-0.005	0.004
-727.923	-55.896	-0.483	-0.218
-726.908	52.695	0.118	0.114
-725.894	52.093	0.265	-0.255
-724.879	-83.602	0.082	0.027
-723.864	-160.373	-0.134	0.007
-722.850	-82.915	-0.156	-0.051
-721.835	15.443	-0.056	0.044
-720.821	111.729	0.165	-0.202
-719.806	-155.378	0.204	-0.013
-718.791	-11.660	-0.548	-0.364
-717.777	648.810	0.089	-0.231
-716.762	794.743	-0.042	-0.117
-715.748	-183.197	0.433	-0.008
-714.733	-9.251	-0.418	-0.282
-713.718	-28.876	-0.207	-0.120
-712.704	-20.975	-0.348	-0.215
-711.689	-0.467	-0.042	-0.030
-710.675	-48.426	0.289	-0.141
-709.660	-112.052	-0.175	-0.035
-708.645	-200.000	0.028	-0.340
-707.631	104.745	0.280	-0.334
-706.616	273.298	0.170	-0.303
-705.602	11.864	0.298	-0.231
-704.587	73.626	-0.155	-0.164
-703.572	476.848	0.148	-0.338
-702.558	-51.974	0.237	-0.111
-701.543	114.250	0.047	0.058
-700.529	5.819	-0.314	-0.234
-699.514	800.000	0.019	-0.072
-698.499	-200.000	0.002	-0.436
-697.485	-5.105	0.268	0.186
-696.470	-200.000	0.049	-0.233
-695.456	265.601	0.059	-0.103
-694.441	123.118	-0.113	0.143
-693.426	-113.021	0.392	0.078
-692.412	800.000	0.066	0.276
-691.397	-49.749	-0.238	-0.114
-690.383	-49.145	-0.265	-0.128
-689.368	-144.093	0.375	-0.035
-688.354	-101.808	-0.518	0.127
-687.339	-33.866	-0.034	-0.019
-686.324	800.000	0.036	-0.113
-685.310	-27.975	-0.227	-0.133
-684.295	-42.464	-0.078	0.040
-683.281	-200.000	0.033	0.188
-682.266	800.000	-0.034	0.114
-681.251	-17.742	0.212	-0.134
-680.237	-116.505	-0.147	-0.027
-679.222	-87.695	0.292	0.089
-678.208	-200.000	-0.002	0.024
-677.193	-1.623	0.132	-0.094
-676.178	1.237	-0.382	-0.277
-675.164	-140.695	0.284	0.030
-674.149	29.260	0.139	-0.119
-673.135	-200.000	0.017	-0.197
-672.120	21.354	0.221	0.181
-671.105	-168.173	0.255	0.010
-670.091	800.000	-0.097	0.282
-669.076	33.229	0.280	-0.245
-668.062	667.441	-0.110	-0.286
-667.047	-78.041	0.244	-0.085
-666.032	124.606	-0.118	-0.150
-665.018	-200.000	0.044	-0.368
-664.003	-200.000	-0.024	0.231
-662.989	-134.783	0.478	-0.059
-661.974	-172.251	-0.223	-0.007
-660.959	-200.000	0.069	-0.372
-659.945	184.409	0.097	-0.144
-658.930	276.890	0.098	-0.175
-657.916	-200.000	-0.004	-0.062
-656.901	209.652	0.087	-0.137
-655.886	-126.116	-0.247	0.037
-654.872	312.890	-0.064	0.120
-653.857	-200.000	-0.067	0.331
-652.843	202.952	0.143	0.223
-651.828	-7.640	-0.126	0.086
-650.814	22.613	-0.276	-0.228
-649.799	-51.043	-0.266	0.126
-648.784	244.415	0.218	0.369
-647.770	-200.000	0.020	0.181
-646.755	800.000	-0.033	-0.143
-645.741	-185.535	-0.113	0.002
-644.726	265.935	-0.177	-0.311
-643.711	-73.753	-0.416	-0.152
-642.697	-3.123	-0.342	-0.240
-641.682	-30.544	0.238	0.136
-640.668	-133.363	0.229	0.029
-639.653	-73.948	-0.084	0.031
-638.638	-58.152	0.341	0.150
-637.624	-82.337	-0.196	-0.064
-636.609	-184.343	0.251	-0.004
-635.595	-200.000	0.004	-0.385
-634.580	50.584	0.073	-0.070
-633.565	-7.960	-0.338	-0.229
-632.551	-57.080	-0.332	-0.147
-631.536	4.662	0.085	0.063
-630.522	-165.446	0.094	-0.004
-629.507	-109.481	-0.168	-0.036
-628.492	-100.358	-0.042	-0.010
-627.478	89.453	0.318	-0.357
-626.463	51.054	-0.206	-0.196
-625.449	-77.809	0.041	0.014
-624.434	-200.000	0.006	-0.209
-623.419	198.970	0.219	0.337
-622.405	-200.000	0.001	-0.264
-621.390	-66.059	0.208	-0.084
-620.376	84.573	0.138	0.152
-619.361	33.456	0.263	0.230
-618.346	-183.356	-0.202	-0.004
-617.332	-200.000	0.032	-0.289
-616.317	-130.451	0.344	0.047
-615.303	72.776	0.167	-0.175
-614.288	-91.759	0.198	0.057
-613.273	48.534	-0.268	-0.253
-612.259	-200.000	0.011	0.133
-611.244	-40.530	-0.070	-0.036
-610.230	-80.854	-0.256	0.086
-609.215	-200.000	-0.003	-0.106
-608.201	-74.097	-0.376	0.137
-607.186	357.145	0.145	-0.292
-606.171	800.000	0.038	0.130
-605.157	-107.798	0.372	0.082
-604.142	-15.315	-0.145	-0.093
-603.128	-200.000	-0.017	-0.189
-602.113	-54.126	0.125	0.057
-601.098	-200.000	0.060	0.314
-600.084	-6.271	0.272	0.187
-599.069	278.148	-0.044	0.080
-598.055	187.775	0.113	0.170
-597.040	-80.235	-0.397	0.134
-596.025	-31.674	0.374	-0.211
-595.011	-197.628	0.183	0.001
-593.996	-200.000	0.003	-0.399
-592.982	800.000	-0.087	0.291
-591.967	-200.000	-0.038	0.281
-590.952	-200.000	0.000	0.262
-589.938	84.764	-0.274	0.302
-588.923	800.000	0.035	0.102
-587.909	-162.969	0.180	0.009
-586.894	751.986	0.022	-0.058
-585.879	-200.000	0.000	0.030
-584.865	-27.190	0.130	0.076
-583.850	-61.040	-0.505	0.214
-582.836	-7.348	0.029	-0.020
-581.821	127.575	0.056	0.072
-580.806	-32.527	0.129	-0.072
-579.792	-80.408	0.149	0.050
-578.777	-101.028	-0.253	0.062
-577.763	800.000	-0.056	0.222
-576.748	109.145	0.191	-0.230
-575.733	19.946	0.164	-0.133
-574.719	39.865	-0.045	-0.040
-573.704	655.970	0.090	0.231
-572.690	48.388	0.116	-0.109
-571.675	-200.000	-0.032	0.218
-570.661	-109.084	0.271	-0.058
-569.646	-200.000	0.012	0.270
-568.631	-113.601	0.118	0.023
-567.617	157.391	-0.121	-0.168
-566.602	18.245	0.321	-0.257
-565.588	587.466	-0.130	0.322
-564.573	-114.154	-0.358	-0.069
-563.558	-40.921	-0.148	0.077
-562.544	-200.000	-0.000	-0.295
-561.529	10.076	-0.247	0.188
-560.515	-148.150	-0.246	0.020
-559.500	36.709	0.298	0.264
-558.485	592.009	-0.187	-0.463
-557.471	-71.088	-0.073	-0.027
-556.456	-200.000	0.074	-0.358
-555.442	800.000	-0.086	-0.320
-554.427	-185.328	-0.263	-0.004
-553.412	-6.382	-0.210	-0.144
-552.398	-200.000	0.027	0.366
-551.383	545.774	-0.107	-0.256
-550.369	-54.575	-0.334	-0.152
-549.354	-85.160	0.259	-0.081
-548.339	180.826	-0.173	0.255
-547.325	392.110	0.127	0.264
-546.310	-199.437	-0.159	0.001
-545.296	800.000	-0.015	-0.056
-544.281	67.289	-0.276	0.283
-543.266	-94.400	-0.174	-0.048
-542.252	464.206	-0.103	0.230
-541.237	-200.000	-0.005	0.390
-540.223	-33.703	0.287	0.159
-539.208	119.612	-0.069	-0.086
-538.193	-200.000	-0.008	-0.202
-537.179	-171.059	-0.113	-0.004
-536.164	-130.669	-0.296	-0.040
-535.150	395.747	0.079	-0.166
-534.135	-142.525	-0.568	-0.056
-533.121	67.941	0.090	-0.093
-532.106	-42.495	-0.088	0.045
-531.091	-65.951	0.231	-0.092
-530.077	42.843	-0.146	-0.133
-529.062	72.051	0.101	-0.106
-528.048	800.000	0.102	0.384
-527.033	57.370	-0.182	0.178
-526.018	637.198	-0.077	0.197
-525.004	-200.000	0.023	-0.141
-523.989	800.000	0.037	-0.159
-522.975	-99.530	-0.156	-0.039
-521.960	-112.874	0.154	0.031
-520.945	97.395	-0.101	0.116
-519.931	800.000	0.078	-0.250
-518.916	-24.044	-0.116	-0.070
-517.902	-200.000	-0.011	-0.162
-516.887	-200.000	-0.024	-0.420
-515.872	-84.279	-0.320	0.102
-514.858	-6.902	0.170	-0.116
-513.843	-41.969	0.108	0.055
-512.829	-129.355	0.160	-0.022
-511.814	50.946	0.025	0.023
-510.799	-50.985	-0.155	0.073
-509.785	-200.000	0.028	0.410
-508.770	161.066	0.102	-0.142
-507.756	-14.907	0.146	-0.094
-506.741	233.848	-0.209	0.345
-505.726	-194.146	0.156	0.001
-504.712	-200.000	0.019	0.086
-503.697	13.581	0.208	-0.161
-502.683	-162.608	0.133	0.007
-501.668	-105.418	-0.158	0.036
-500.653	139.421	0.157	-0.207
-499.639	35.728	-0.213	0.187
-498.624	267.047	-0.066	0.115
-497.610	-79.842	0.068	0.023
-496.595	-69.500	-0.317	0.122
-495.581	329.229	0.190	-0.366
-494.566	143.458	-0.092	-0.123
-493.551	-17.680	-0.110	0.069
-492.537	346.628	-0.049	-0.097
-491.522	31.074	0.163	0.140
-490.508	800.000	0.080	-0.291
-489.493	-200.000	-0.025	0.194
-488.478	246.115	-0.183	0.308
-487.464	-81.648	-0.233	-0.077
-486.449	-126.467	-0.225	-0.034
-485.435	-200.000	0.036	-0.252
-484.420	-63.497	0.113	-0.047
-483.405	155.842	0.137	-0.189
-482.391	-129.660	-0.107	0.015
-481.376	246.043	0.204	0.344
-480.362	395.302	0.163	0.340
-479.347	-39.829	0.082	0.043
-478.332	-78.731	-0.094	-0.032
-477.318	323.797	-0.095	-0.181
-476.303	65.851	0.090	-0.091
-475.289	-96.933	-0.214	-0.056
-474.274	150.104	0.218	-0.295
-473.259	-119.385	0.159	0.028
-472.245	800.000	0.099	0.275
-471.230	-79.218	-0.258	-0.087
-470.216	-14.818	-0.067	-0.043
-469.201	-117.857	-0.107	0.019
-468.186	396.526	0.083	-0.173
-467.172	-50.989	-0.113	-0.053
-466.157	692.392	-0.029	0.077
-465.143	-150.997	-0.152	-0.011
-464.128	75.596	-0.158	-0.167
-463.113	800.000	0.074	-0.234
-462.099	-118.350	0.115	-0.020
-461.084	13.656	-0.298	-0.231
-460.070	117.525	-0.215	-0.265
-459.055	-200.000	0.005	-0.107
-458.040	658.525	0.124	0.319
-457.026	-40.437	-0.205	-0.107
-456.011	26.376	-0.230	-0.192
-454.997	800.000	-0.022	0.086
-453.982	-40.439	0.018	-0.009
-452.968	43.286	-0.047	-0.043
-451.953	-118.263	0.326	0.058
-450.938	185.146	0.088	0.131
-449.924	312.663	-0.161	-0.303
-448.909	-200.000	-0.037	0.211
-447.895	301.120	0.098	0.182
-446.880	-200.000	0.001	-0.126
-445.865	-200.000	0.002	-0.201
-444.851	-139.891	0.078	0.008
-443.836	-85.593	0.181	-0.056
-442.822	75.396	-0.056	0.059
-441.807	353.007	-0.089	0.177
-440.792	19.704	0.411	0.331
-439.778	18.986	-0.025	-0.020
-438.763	394.001	-0.120	0.250
-437.749	165.544	-0.041	0.058
-436.734	452.233	0.069	-0.152
-435.719	-200.000	0.007	0.087
-434.705	-107.430	-0.345	0.076
-433.690	-84.581	-0.340	0.107
-432.676	73.811	0.275	-0.288
-431.661	-103.939	0.186	0.043
-430.646	0.906	-0.140	0.100
-429.632	-9.829	0.160	0.106
-428.617	-51.862	0.103	0.048
-427.603	-32.659	-0.165	-0.091
-426.588	83.956	0.124	-0.135
-425.573	217.604	0.105	0.167
-424.559	-94.588	0.180	0.049
-423.544	176.615	-0.241	-0.350
-422.530	43.566	0.138	0.126
-421.515	-200.000	-0.014	-0.089
-420.500	202.401	0.049	-0.075
-419.486	-103.453	0.266	-0.063
-418.471	-74.866	0.377	-0.135
-417.457	334.755	-0.011	-0.021
-416.442	-139.244	0.274	-0.029
-415.428	-200.000	0.024	-0.254
-414.413	298.339	0.095	-0.175
-413.398	-108.608	-0.235	-0.050
-412.384	121.089	0.212	-0.263
-411.369	612.780	-0.075	0.187
-410.355	100.826	-0.250	0.290
-409.340	800.000	0.055	-0.170
-408.325	3.453	0.214	0.156
-407.311	95.718	0.087	-0.100
-406.296	-30.579	0.074	-0.042
-405.282	-2.573	0.181	0.127
-404.267	66.960	-0.112	-0.114
-403.252	-200.000	-0.009	0.179
-402.238	-63.040	0.295	-0.122
-401.223	-138.030	-0.170	-0.019
-400.209	214.447	0.138	0.218
-399.194	-128.035	-0.217	-0.031
-398.179	25.046	0.246	-0.204
-397.165	-160.376	0.102	-0.005
-396.150	-180.033	-0.130	0.003
-395.136	658.338	0.074	0.191
-394.121	-200.000	-0.015	0.073
-393.106	595.172	-0.051	0.126
-392.092	-24.357	-0.376	0.224
-391.077	-200.000	-0.003	-0.312
-390.063	109.504	0.106	-0.127
-389.048	-155.066	0.154	-0.010
-388.033	-200.000	-0.035	0.351
-387.019	-4.088	0.213	-0.147
-386.004	-102.001	0.159	-0.038
-384.990	187.133	0.037	-0.054
-383.975	353.931	-0.230	-0.455
-382.960	-200.000	-0.069	-0.359
-381.946	-49.120	0.353	-0.169
-380.931	-24.929	-0.147	0.087
-379.917	-24.003	0.159	0.095
-378.902	-106.665	0.283	-0.063
-377.888	-14.648	0.212	-0.136
-376.873	800.000	0.106	-0.318
-375.858	-157.232	0.230	-0.014
-374.844	-157.388	-0.582	0.035
-373.829	800.000	0.011	-0.036
-372.815	-88.707	-0.105	-0.031
-371.800	800.000	0.071	-0.240
-370.785	-36.638	0.099	-0.053
-369.771	-14.972	-0.125	-0.080
-368.756	104.541	0.125	0.147
-367.742	167.678	-0.036	0.050
-366.727	-200.000	0.051	0.235
-365.712	-200.000	0.016	-0.103
-364.698	-176.923	0.194	-0.005
-363.683	43.657	0.133	0.121
-362.669	136.540	-0.124	0.161
-361.654	-20.033	0.180	0.110
-360.639	320.093	-0.087	0.164
-359.625	-113.628	0.234	-0.046
-358.610	-0.321	-0.167	0.118
-357.596	-200.000	-0.227	-0.000
-356.581	120.644	-0.112	0.139
-355.566	-155.042	0.254	0.017
-354.552	800.000	0.084	-0.298
-353.537	-150.590	0.069	-0.005
-352.523	-200.000	-0.072	-0.537
-351.508	-18.127	-0.329	0.205
-350.493	-200.000	-0.017	-0.604
-349.479	-200.000	-0.001	-0.054
-348.464	16.239	-0.132	-0.104
-347.450	-88.824	0.391	-0.116
-346.435	4.776	0.140	0.102
-345.420	25.608	-0.172	0.143
-344.406	-163.070	0.637	0.031
-343.391	159.066	-0.189	0.262
-342.377	-30.514	-0.096	-0.054
-341.362	103.150	0.044	0.052
-340.348	-151.692	0.206	-0.015
-339.333	-84.126	0.085	0.027
-338.318	68.987	0.020	0.020
-337.304	187.554	0.134	0.199
-336.289	-115.247	0.080	-0.015
-335.275	-43.842	-0.234	-0.117
-334.260	176.565	-0.198	-0.287
-333.245	-62.955	0.112	-0.046
-332.231	-69.704	0.331	0.126
-331.216	800.000	0.100	-0.297
-330.202	136.379	-0.131	0.170
-329.187	-14.390	-0.382	-0.245
-328.172	-29.735	0.036	-0.020
-327.158	-126.387	-0.333	-0.049
-326.143	487.366	0.070	-0.158
-325.129	270.922	0.112	0.197
-324.114	-69.974	-0.422	0.160
-323.099	14.435	0.219	0.170
-322.085	-47.877	-0.176	0.085
-321.070	187.831	0.091	-0.135
-320.056	-34.563	0.148	-0.081
-319.041	41.504	0.091	0.082
-318.026	-200.000	0.031	0.173
-317.012	86.262	0.150	0.165
-315.997	16.383	0.080	-0.063
-314.983	343.277	0.169	0.330
-313.968	-200.000	0.043	0.379
-312.953	800.000	0.131	-0.507
-311.939	-15.709	-0.191	-0.121
-310.924	-200.000	-0.007	-0.159
-309.910	-20.859	-0.397	-0.242
-308.895	34.839	0.191	-0.166
-307.880	18.991	0.217	0.173
-306.866	33.874	-0.033	-0.028
-305.851	237.149	0.071	-0.117
-304.837	-95.429	0.111	-0.030
-303.822	-97.654	-0.081	-0.021
-302.807	-83.786	0.207	-0.066
-301.793	800.000	-0.009	0.028
-300.778	-9.123	0.084	0.056
-299.764	800.000	-0.029	0.086
-298.749	388.003	0.098	0.201
-297.735	-200.000	0.019	0.093
-296.720	179.494	-0.256	0.372
-295.705	-200.000	-0.227	0.001
-294.691	-200.000	0.023	0.234
-293.676	-62.888	-0.436	0.179
-292.662	-200.000	-0.007	0.057
-291.647	-42.356	0.297	0.151
-290.632	-186.135	0.139	0.002
-289.618	94.542	0.080	-0.091
-288.603	800.000	0.042	0.117
-287.589	-200.000	0.066	0.299
-286.574	-117.600	0.251	0.045
-285.559	133.772	-0.130	0.167
-284.545	693.796	-0.044	-0.115
-283.530	211.614	0.204	-0.319
-282.516	9.695	-0.419	0.316
-281.501	-165.941	-0.046	0.002
-280.486	10.206	0.018	0.014
-279.472	800.000	0.044	0.126
-278.457	-116.968	0.256	0.046
-277.443	162.218	0.063	-0.087
-276.428	800.000	-0.075	-0.286
-275.413	-200.000	-0.043	-0.207
-274.399	-184.631	-0.145	0.002
-273.384	-68.066	-0.089	0.034
-272.370	-123.612	-0.262	-0.041
-271.355	289.708	-0.059	-0.106
-270.340	2.672	0.103	-0.074
-269.326	311.629	-0.212	-0.395
-268.311	-200.000	-0.009	-0.127
-267.297	-152.709	-0.267	-0.019
-266.282	108.070	0.130	0.154
-265.267	28.525	0.173	-0.145
-264.253	329.988	-0.060	0.115
-263.238	-31.056	-0.267	0.149
-262.224	-92.148	-0.362	0.101
-261.209	-200.000	0.044	0.217
-260.195	189.372	-0.036	-0.054
-259.180	25.782	0.168	-0.139
-258.165	-97.504	-0.207	-0.053
-257.151	24.867	-0.214	0.176
-256.136	166.737	0.117	-0.164
-255.122	146.579	0.008	0.010
-254.107	57.688	-0.205	0.199
-253.092	704.476	-0.149	0.391
-252.078	367.920	0.094	0.189
-251.063	-200.000	-0.005	0.296
-250.049	-47.731	-0.145	-0.070
-249.034	-200.000	-0.012	0.090
-248.019	128.748	0.098	0.124
-247.005	-34.585	-0.339	0.184
-245.990	178.395	-0.160	0.231
-244.976	99.383	0.164	0.188
-243.961	86.272	-0.162	0.177
-242.946	787.352	-0.026	-0.071
-241.932	278.555	-0.223	0.393
-240.917	-99.708	0.066	0.017
-239.903	-176.647	-0.097	0.002
-238.888	-200.000	0.058	0.431
-237.873	-200.000	-0.018	-0.196
-236.859	129.236	-0.172	0.218
-235.844	-200.000	-0.029	-0.218
-234.830	263.474	0.071	-0.123
-233.815	-176.628	0.156	0.004
-232.800	-47.255	-0.292	0.141
-231.786	52.617	0.099	0.093
-230.771	-200.000	0.052	-0.266
-229.757	-200.000	-0.010	-0.395
-228.742	-163.058	0.189	-0.009
-227.727	-9.947	0.057	-0.037
-226.713	388.841	-0.119	0.243
-225.698	-200.000	0.027	0.208
-224.684	62.527	0.209	0.207
-223.669	-200.000	-0.043	0.261
-222.655	586.307	-0.050	0.121
-221.640	694.014	-0.042	-0.109
-220.625	161.947	-0.097	0.135
-219.611	7.167	0.118	-0.087
-218.596	118.405	-0.060	-0.074
-217.582	-200.000	-0.013	-0.079
-216.567	-168.335	0.032	0.001
-215.552	175.277	0.096	-0.138
-214.538	800.000	-0.099	0.339
-213.523	40.462	-0.185	0.165
-212.509	-156.740	0.088	0.005
-211.494	800.000	-0.038	0.162
-210.479	-200.000	0.006	0.200
-209.465	393.254	-0.057	-0.118
-208.450	165.760	0.216	0.302
-207.436	-148.570	-0.314	0.025
-206.421	47.269	-0.251	0.232
-205.406	-95.592	0.219	-0.058
-204.392	428.576	0.086	0.185
-203.377	-26.924	0.080	0.046
-202.363	169.370	-0.244	-0.344
-201.348	-200.000	-0.023	-0.270
-200.333	628.354	0.111	-0.277
-199.319	-58.153	0.079	0.034
-198.304	800.000	-0.079	-0.298
-197.290	800.000	0.096	0.351
-196.275	800.000	0.088	-0.369
-195.260	379.914	-0.186	0.376
-194.246	32.919	0.285	-0.244
-193.231	-200.000	-0.019	0.144
-192.217	318.566	0.119	-0.223
-191.202	-200.000	0.023	-0.106
-190.187	22.601	0.152	0.123
-189.173	-200.000	0.023	-0.143
-188.158	176.199	-0.021	-0.030
-187.144	261.776	0.023	-0.040
-186.129	14.584	-0.065	0.050
-185.114	-132.988	-0.180	-0.023
-184.100	-200.000	-0.039	0.182
-183.085	252.533	-0.152	-0.256
-182.071	-87.551	-0.064	-0.019
-181.056	-119.240	0.379	0.065
-180.042	-63.865	0.228	0.092
-179.027	-200.000	-0.033	-0.199
-178.012	217.179	0.199	-0.313
-176.998	800.000	-0.108	0.303
-175.983	-30.784	0.155	-0.087
-174.969	52.748	-0.211	-0.199
-173.954	126.693	-0.058	-0.073
-172.939	15.586	0.246	-0.191
-171.925	800.000	-0.079	-0.273
-170.910	-126.199	0.254	0.038
-169.896	240.358	0.084	-0.138
-168.881	-23.919	-0.067	0.040
-167.866	345.223	0.195	-0.378
-166.852	800.000	-0.071	0.248
-165.837	160.857	0.204	0.281
-164.823	307.853	-0.147	0.271
-163.808	197.214	0.112	-0.170
-162.793	-147.257	-0.344	0.029
-161.779	-66.537	-0.119	0.047
-160.764	-200.000	0.032	0.306
-159.750	104.889	0.242	0.283
-158.735	-200.000	-0.001	0.261
-157.720	15.051	0.224	-0.174
-156.706	679.570	-0.144	-0.370
-155.691	572.043	0.030	0.072
-154.677	58.228	0.134	0.130
-153.662	800.000	0.033	-0.097
-152.647	-200.000	0.021	-0.280
-151.633	-112.099	0.200	0.040
-150.618	313.502	-0.177	-0.328
-149.604	350.961	0.125	0.244
-148.589	-132.316	0.070	-0.009
-147.574	-21.665	0.136	-0.082
-146.560	-139.233	-0.069	-0.007
-145.545	-30.065	-0.299	-0.168
-144.531	800.000	0.064	0.178
-143.516	-200.000	0.009	-0.169
-142.502	300.784	0.104	0.190
-141.487	-110.958	0.370	0.075
-140.472	64.149	0.134	-0.133
-139.458	-76.694	0.183	0.063
-138.443	85.824	0.113	0.123
-137.429	10.219	0.220	-0.165
-136.414	800.000	0.036	-0.106
-135.399	-200.000	-0.006	0.165
-134.385	46.365	0.112	-0.102
-133.370	800.000	-0.080	-0.241
-132.356	50.882	0.050	-0.046
-131.341	-111.926	-0.021	-0.004
-130.326	119.013	0.121	0.148
-129.312	-24.422	-0.175	0.103
-128.297	800.000	-0.037	-0.120
-127.283	48.216	0.167	0.154
-126.268	-92.343	0.388	0.108
-125.253	-200.000	-0.003	-0.109
-124.239	-59.834	-0.384	-0.162
-123.224	-36.729	0.115	-0.061
-122.210	60.450	0.397	0.388
-121.195	-108.928	-0.317	0.067
-120.180	76.720	0.043	0.045
-119.166	-51.599	-0.189	0.087
-118.151	-200.000	0.055	0.274
-117.137	2.434	-0.092	-0.065
-116.122	42.352	-0.050	0.045
-115.107	-107.896	-0.167	-0.036
-114.093	-70.495	0.103	0.039
-113.078	370.326	0.197	0.394
-112.064	199.212	0.256	-0.388
-111.049	350.467	-0.090	-0.175
-110.034	-200.000	-0.005	-0.269
-109.020	-115.314	0.156	-0.029
-108.005	-200.000	0.028	0.188
-106.991	-72.142	-0.061	0.022
-105.976	-46.187	0.157	0.076
-104.962	-83.910	-0.212	-0.067
-103.947	-104.065	0.284	-0.065
-102.932	-200.000	0.043	0.355
-101.918	110.278	0.068	0.081
-100.903	-128.578	-0.346	0.048
-99.889	-179.857	0.229	0.005
-98.874	87.318	-0.216	-0.236
-97.859	-177.453	0.211	-0.005
-96.845	155.934	-0.079	0.107
-95.830	-84.980	-0.238	0.074
-94.816	800.000	-0.064	-0.269
-93.801	800.000	0.073	-0.206
-92.786	-200.000	0.036	-0.220
-91.772	-116.004	0.171	-0.031
-90.757	119.808	0.138	-0.168
-89.743	-40.583	-0.116	-0.059
-88.728	-153.880	0.532	0.036
-87.713	521.780	0.042	0.096
-86.699	-164.552	0.459	0.021
-85.684	46.300	-0.234	0.214
-84.670	280.801	-0.182	-0.320
-83.655	76.656	0.219	-0.228
-82.640	-200.000	-0.029	-0.265
-81.626	-200.000	-0.042	0.340
-80.611	97.814	0.263	-0.298
-79.597	425.635	0.129	0.273
-78.582	74.535	0.350	-0.363
-77.567	-200.000	-0.055	0.329
-76.553	103.289	0.073	-0.084
-75.538	126.318	0.185	-0.230
-74.524	-51.913	-0.334	-0.153
-73.509	-200.000	-0.058	-0.341
-72.494	-125.667	0.286	0.043
-71.480	196.458	0.144	0.216
-70.465	-200.000	-0.013	-0.190
-69.451	-200.000	0.015	0.109
-68.436	-141.719	0.200	-0.020
-67.422	122.049	0.107	0.131
-66.407	-13.357	0.253	0.162
-65.392	-200.000	-0.022	0.172
-64.378	800.000	0.065	0.232
-63.363	423.008	-0.072	0.151
-62.349	-87.110	0.355	0.106
-61.334	191.742	-0.735	-1.091
-60.319	-24.059	0.772	0.454
-59.305	120.186	-0.617	-0.754
-58.290	712.255	0.404	1.054
-57.276	772.114	0.604	1.620
-56.261	-200.000	96.180	593.569
-55.246	564.211	1375.624	3280.271
-54.232	160.483	2553.603	3506.975
-53.217	113.444	2143.950	2561.576
-52.203	44.120	1605.363	1448.926
-51.188	35.695	1342.318	1160.866
-50.173	32.508	1300.807	1106.233
-49.159	54.584	1348.656	1279.409
-48.144	56.977	1364.849	1309.007
-47.130	35.826	1323.471	1145.161
-46.115	32.319	1306.143	1109.475
-45.100	32.289	1301.301	1105.145
-44.086	32.095	1298.536	1101.614
-43.071	31.962	1296.494	1099.058
-42.057	32.064	1294.135	1097.610
-41.042	32.108	1292.662	1096.577
-40.027	32.045	1291.233	1094.950
-39.013	32.049	1289.184	1093.196
-37.998	32.085	1287.454	1091.891
-36.984	32.257	1285.258	1090.985
-35.969	32.229	1283.987	1089.700
-34.954	32.160	1282.259	1087.795
-33.940	32.172	1280.875	1086.644
-32.925	32.243	1279.635	1085.959
-31.911	32.141	1277.931	1083.883
-30.896	32.289	1276.252	1083.269
-29.881	32.173	1275.359	1081.797
-28.867	32.332	1273.542	1081.128
-27.852	32.291	1272.510	1079.974
-26.838	32.288	1270.453	1078.167
-25.823	32.276	1269.632	1077.361
-24.809	32.311	1267.784	1075.952
-23.794	32.296	1266.609	1074.825
-22.779	32.345	1265.479	1074.100
-21.765	32.238	1264.366	1072.504
-20.750	32.257	1263.036	1071.441
-19.736	32.180	1261.566	1069.712
-18.721	32.205	1260.294	1068.736
-17.706	32.115	1259.337	1067.369
-16.692	32.161	1257.890	1066.361
-15.677	32.058	1257.133	1065.093
-14.663	32.133	1255.590	1064.169
-13.648	32.183	1254.364	1063.369
-12.633	32.118	1254.108	1062.746
-11.619	32.023	1253.300	1061.482
-10.604	32.059	1252.560	1061.016
-9.590	32.095	1251.194	1060.017
-8.575	32.076	1250.198	1059.029
-7.560	32.108	1249.349	1058.445
-6.546	32.087	1248.671	1057.710
-5.531	32.040	1247.885	1056.735
-4.517	32.024	1246.899	1055.773
-3.502	32.074	1246.020	1055.268
-2.487	32.197	1244.357	1054.505
-1.473	32.192	1240.420	1051.099
-0.458	30.828	1225.952	1031.250
0.556	27.303	1208.610	994.422
1.571	23.822	1214.883	980.332
2.586	22.959	1230.536	988.051
3.600	22.431	1219.252	975.978
4.615	15.808	1145.922	882.576
5.629	5.895	1069.571	774.951
6.644	1.899	1049.819	741.176
7.659	1.601	1047.280	737.870
8.673	1.433	1045.807	735.953
9.688	1.429	1044.493	734.944
10.702	1.657	1042.832	734.813
11.717	7.479	1051.571	769.187
12.731	17.897	1066.061	830.666
13.746	23.629	1073.216	864.159
14.761	24.860	1074.550	871.151
15.775	24.963	1074.110	871.216
16.790	24.657	1073.586	869.230
17.804	24.609	1072.729	868.224
18.819	24.712	1072.719	868.640
19.834	24.796	1072.417	868.725
20.848	24.937	1071.623	868.688
21.863	25.034	1070.598	868.254
22.877	25.027	1070.140	867.770
23.892	24.781	1069.888	866.300
24.907	24.768	1069.369	865.737
25.921	24.800	1067.681	864.450
26.936	24.930	1066.524	864.063
27.950	24.765	1064.991	861.949
28.965	24.711	1063.200	860.164
29.980	24.670	1062.006	858.927
30.994	24.900	1060.955	859.106
32.009	24.851	1059.861	857.907
33.023	24.733	1058.587	856.234
34.038	24.794	1057.808	855.821
35.053	24.854	1057.366	855.675
36.067	24.989	1056.200	855.299
37.082	24.860	1055.789	854.276
38.096	25.017	1054.944	854.263
39.111	25.279	1053.779	854.495
40.126	25.029	1052.673	852.334
41.140	24.669	1051.042	849.228
42.155	24.497	1049.843	847.366
43.169	24.617	1048.567	846.828
44.184	24.681	1047.963	846.570
45.199	24.430	1047.162	844.659
46.213	24.576	1046.417	844.673
47.228	24.701	1045.736	844.640
48.242	24.807	1044.720	844.248
49.257	24.773	1043.947	843.389
50.271	24.956	1043.341	843.683
51.286	24.990	1042.686	843.240
52.301	24.811	1041.831	841.631
53.315	24.927	1040.878	841.333
54.330	24.969	1039.673	840.481
55.344	24.826	1039.153	839.318
56.359	24.949	1037.744	838.681
57.374	24.567	1037.359	836.507
58.388	24.648	1036.685	836.266
59.403	24.650	1035.493	835.240
60.417	24.496	1034.705	833.814
61.432	24.502	1034.241	833.393
62.447	24.641	1033.691	833.523
63.461	24.708	1032.687	832.952
64.476	24.599	1031.555	831.459
65.490	24.501	1030.511	830.089
66.505	24.608	1030.173	830.242
67.520	24.624	1029.479	829.682
68.534	24.473	1028.115	827.809
69.549	24.085	1027.236	825.228
70.563	24.143	1026.767	825.051
71.578	24.160	1025.823	824.296
72.593	24.030	1025.144	823.074
73.607	24.184	1024.802	823.441
74.622	24.420	1024.139	823.925
75.636	24.438	1023.505	823.424
76.651	24.435	1022.588	822.599
77.666	24.202	1022.114	821.074
78.680	24.327	1020.785	820.506
79.695	24.454	1020.512	820.800
80.709	24.510	1019.884	820.482
81.724	24.435	1019.266	819.567
82.739	24.575	1018.113	819.208
83.753	24.944	1017.844	820.612
84.768	25.193	1017.268	821.213
85.782	25.170	1016.620	820.514
86.797	25.089	1015.249	818.963
87.812	25.050	1014.308	817.955
88.826	25.113	1013.458	817.485
89.841	25.222	1012.254	816.936
90.855	25.170	1011.931	816.365
91.870	25.147	1010.594	815.112
92.884	24.927	1010.034	813.589
93.899	24.914	1008.906	812.547
94.914	25.193	1008.010	813.020
95.928	25.016	1006.973	811.309
96.943	24.766	1005.692	809.074
97.957	24.431	1005.433	807.282
98.972	24.324	1003.680	805.317
99.987	24.742	1003.238	806.779
101.001	24.715	1002.518	806.008
102.016	24.789	1001.589	805.521
103.030	24.832	1000.725	804.946
104.045	24.530	999.860	802.826
105.060	24.472	999.001	801.802
106.074	24.498	998.966	801.820
107.089	25.023	997.731	803.111
108.103	24.883	996.654	801.547
109.118	24.634	995.164	799.164
110.133	24.585	994.443	798.296
111.147	24.435	993.188	796.551
112.162	24.251	992.441	795.061
113.176	24.643	992.218	796.557
114.191	24.472	991.235	794.935
115.206	24.155	989.784	792.291
116.220	24.185	989.119	791.825
117.235	24.310	988.419	791.749
118.249	24.319	987.426	790.923
119.264	24.178	986.767	789.701
120.279	24.322	986.254	789.859
121.293	24.236	985.509	788.812
122.308	24.312	984.425	788.209
123.322	24.280	983.226	787.038
124.337	24.048	982.154	785.089
125.352	23.662	980.264	781.809
126.366	23.596	979.417	780.773
127.381	24.266	979.698	783.872
128.395	24.694	979.226	785.307
129.410	24.936	978.009	785.324
130.424	24.759	977.313	783.920
131.439	24.702	976.275	782.770
132.454	24.848	975.413	782.648
133.468	24.843	974.564	781.873
134.483	24.861	974.152	781.551
135.497	25.043	973.339	781.627
136.512	25.082	972.185	780.802
137.527	25.072	971.428	780.077
138.541	25.086	970.752	779.529
139.556	25.041	969.941	778.613
140.570	25.286	969.264	779.062
141.585	25.163	968.067	777.498
142.600	24.975	967.404	776.086
143.614	25.324	966.464	776.772
144.629	25.419	965.797	776.575
145.643	25.243	964.206	774.470
146.658	25.053	963.201	772.774
147.673	24.819	962.502	771.138
148.687	24.896	961.390	770.509
149.702	24.926	960.486	769.846
150.716	24.728	959.706	768.301
151.731	25.005	959.190	769.008
152.746	25.049	958.824	768.838
153.760	25.265	958.079	769.096
154.775	25.323	957.163	768.541
155.789	25.244	956.458	767.571
156.804	25.210	955.141	766.299
157.819	25.146	954.664	765.578
158.833	25.365	954.112	766.001
159.848	25.458	952.923	765.375
160.862	25.214	951.611	763.216
161.877	25.174	950.939	762.441
162.892	25.367	949.573	762.094
163.906	25.250	948.637	760.781
164.921	25.271	947.870	760.185
165.935	25.249	947.643	759.846
166.950	25.323	945.948	758.731
167.964	25.195	945.404	757.685
168.979	25.102	944.701	756.662
169.994	25.054	943.644	755.549
171.008	25.281	943.216	756.095
172.023	25.315	942.439	755.550
173.037	25.114	941.272	753.701
174.052	24.922	940.669	752.346
175.067	24.991	939.881	751.937
176.081	25.044	939.623	751.887
177.096	24.984	938.802	750.911
178.110	24.728	937.864	749.023
179.125	24.521	937.246	747.595
180.140	24.629	936.827	747.647
181.154	24.874	936.198	748.104
182.169	25.126	936.435	749.280
183.183	25.279	935.742	749.299
184.198	25.189	934.778	748.083
185.213	25.156	934.038	747.289
186.227	25.163	933.853	747.105
187.242	25.228	933.302	746.869
188.256	25.324	932.343	746.435
189.271	25.389	931.478	745.946
190.286	25.091	930.093	743.534
191.300	24.495	928.809	739.972
192.315	23.568	927.343	734.903
193.329	23.473	927.202	734.330
194.344	24.490	927.451	738.673
195.359	25.161	927.297	741.258
196.373	25.175	927.118	741.108
197.388	25.023	926.582	739.989
198.402	25.036	926.029	739.534
199.417	25.174	925.079	739.280
200.432	24.739	924.245	736.755
201.446	24.700	923.731	736.122
202.461	24.805	922.938	735.856
203.475	23.900	921.364	730.818
204.490	23.211	919.485	726.435
205.504	24.023	920.305	730.354
206.519	24.701	920.333	733.094
207.534	24.866	919.516	733.050
208.548	25.279	919.253	734.465
209.563	24.992	918.346	732.506
210.577	24.946	917.970	731.951
211.592	25.503	917.227	733.568
212.607	25.320	916.491	732.167
213.621	25.365	916.207	732.062
214.636	25.367	915.652	731.562
215.650	25.408	914.632	730.846
216.665	25.308	914.333	730.137
217.680	25.285	913.300	729.156
218.694	24.999	912.029	726.915
219.709	24.798	911.679	725.755
220.723	25.011	911.232	726.201
221.738	25.184	910.425	726.194
222.753	25.264	909.769	725.929
223.767	25.108	909.907	725.344
224.782	25.429	909.722	726.429
225.796	25.355	908.800	725.331
226.811	24.704	907.192	721.356
227.826	23.996	905.856	717.377
228.840	24.168	905.301	717.569
229.855	24.403	905.030	718.236
230.869	24.041	903.876	715.799
231.884	24.362	904.015	717.138
232.899	25.001	904.200	719.789
233.913	25.180	902.699	719.249
234.928	25.051	902.601	718.591
235.942	24.890	902.136	717.510
236.957	24.554	901.164	715.329
237.972	24.657	900.448	715.109
238.986	24.742	900.175	715.171
240.001	24.807	899.290	714.662
241.015	24.859	899.227	714.758
242.030	24.917	898.893	714.661
243.045	25.071	898.536	714.928
244.059	25.314	898.313	715.654
245.074	25.011	896.552	712.984
246.088	24.767	895.754	711.316
247.103	25.098	895.282	712.193
248.117	25.586	895.444	714.196
249.132	25.712	895.094	714.356
250.147	25.818	894.592	714.311
251.161	25.927	894.365	714.498
252.176	26.042	893.511	714.208
253.190	26.111	892.784	713.839
254.205	26.318	892.386	714.276
255.220	26.283	891.807	713.609
256.234	26.018	891.288	712.087
257.249	25.886	890.268	710.687
258.263	25.932	889.819	710.448
259.278	25.982	889.170	710.062
260.293	25.998	888.689	709.678
261.307	25.886	887.801	708.467
262.322	25.713	887.406	707.411
263.336	25.009	884.762	702.479
264.351	23.888	883.224	696.807
265.366	24.249	882.639	697.698
266.380	25.286	883.514	702.388
267.395	25.667	883.443	703.757
268.409	25.587	882.530	702.657
269.424	25.870	882.206	703.441
270.439	25.648	881.424	701.891
271.453	25.824	881.071	702.232
272.468	25.995	880.524	702.400
273.482	26.076	880.084	702.303
274.497	25.694	878.918	699.825
275.512	25.266	878.235	697.555
276.526	25.749	877.948	699.144
277.541	25.943	877.573	699.534
278.555	25.699	876.742	697.865
279.570	25.452	876.094	696.330
280.585	25.664	875.729	696.798
281.599	25.737	874.685	696.187
282.614	25.189	873.278	692.893
283.628	25.037	873.291	692.252
284.643	25.463	872.813	693.459
285.657	25.009	871.719	690.778
286.672	24.802	870.518	688.968
287.687	25.355	870.866	691.312
288.701	25.431	870.332	691.119
289.716	25.109	869.418	689.095
290.730	25.068	868.494	688.143
291.745	24.925	867.514	686.757
292.760	25.068	867.485	687.221
293.774	26.075	868.354	691.711
294.789	26.379	868.064	692.585
295.803	26.335	867.837	692.175
296.818	26.402	866.383	691.211
297.833	26.148	865.148	689.193
298.847	25.741	864.702	687.225
299.862	26.060	864.521	688.238
300.876	26.318	864.457	689.107
301.891	26.245	863.888	688.316
302.906	25.957	862.617	686.145
303.920	25.944	862.730	686.126
304.935	26.358	862.747	687.652
305.949	26.240	861.486	686.139
306.964	26.089	860.652	684.841
307.979	25.999	860.567	684.373
308.993	26.580	860.398	686.381
310.008	26.515	859.706	685.520
311.022	26.172	858.920	683.534
312.037	26.013	858.236	682.329
313.052	25.723	857.462	680.559
314.066	25.030	855.568	676.380
315.081	24.607	855.204	674.433
316.095	25.422	855.657	677.810
317.110	25.980	854.927	679.273
318.125	25.176	853.505	675.059
319.139	24.004	852.133	669.506
320.154	24.145	851.629	669.582
321.168	25.023	851.944	673.072
322.183	25.634	852.344	675.621
323.197	25.894	852.082	676.330
324.212	26.027	851.778	676.530
325.227	26.124	851.047	676.252
326.241	25.909	850.175	674.694
327.256	25.883	849.588	674.070
328.270	25.678	849.108	672.862
329.285	25.542	848.282	671.642
330.300	25.513	847.453	670.818
331.314	25.746	846.959	671.236
332.329	26.140	847.148	672.796
333.343	25.988	847.114	672.141
334.358	26.228	846.311	672.338
335.373	26.404	845.925	672.629
336.387	26.428	846.210	672.883
337.402	26.680	845.589	673.268
338.416	26.583	845.278	672.599
339.431	26.595	845.174	672.501
340.446	26.749	844.957	672.842
341.460	26.854	844.032	672.434
342.475	26.472	843.643	670.648
343.489	26.496	843.595	670.640
344.504	26.821	843.561	671.759
345.519	26.882	843.270	671.692
346.533	27.020	842.649	671.648
347.548	27.055	841.845	671.080
348.562	27.084	841.007	670.459
349.577	26.898	840.764	669.520
350.592	27.079	839.571	669.176
351.606	26.967	838.928	668.191
352.621	26.746	838.501	666.982
353.635	26.729	837.230	665.850
354.650	26.081	835.864	662.326
355.665	25.223	834.109	657.731
356.679	25.612	834.425	659.350
357.694	25.911	834.153	660.173
358.708	25.992	833.314	659.747
359.723	26.330	833.502	661.071
360.738	26.609	833.175	661.776
361.752	26.651	833.071	661.786
362.767	27.055	832.378	662.652
363.781	27.356	831.842	663.263
364.796	27.332	831.670	662.979
365.810	27.456	831.149	662.957
366.825	27.404	830.654	662.316
367.840	27.050	830.034	660.476
368.854	26.677	829.022	658.255
369.869	26.624	829.075	658.049
370.883	26.681	828.137	657.452
371.898	26.681	827.645	657.003
372.913	26.770	827.780	657.373
373.927	26.807	827.374	657.127
374.942	27.053	826.232	657.054
375.956	27.120	826.186	657.203
376.971	27.399	825.592	657.680
377.986	27.423	825.286	657.465
379.000	27.401	824.816	656.950
380.015	27.062	824.132	655.126
381.029	27.186	823.787	655.240
382.044	27.202	823.579	655.074
383.059	27.396	822.796	655.091
384.073	27.555	821.681	654.717
385.088	27.508	821.059	653.994
386.102	27.236	820.324	652.375
387.117	27.093	819.950	651.508
388.132	26.625	818.844	648.896
389.146	26.285	817.925	646.894
390.161	26.680	818.432	648.651
391.175	27.028	818.094	649.572
392.190	26.684	817.171	647.552
393.205	25.458	814.675	641.146
394.219	23.925	812.697	634.073
395.234	23.925	812.556	633.906
396.248	25.405	814.239	640.444
397.263	26.785	815.223	646.083
398.278	26.672	815.220	645.620
399.292	26.486	813.926	643.877
400.307	26.555	813.313	643.581
401.321	26.713	812.938	643.788
402.336	27.122	812.727	645.017
403.350	27.590	812.557	646.485
404.365	27.890	812.700	647.603
405.380	28.111	812.142	647.884
406.394	28.024	811.927	647.349
407.409	28.108	810.840	646.720
408.423	28.167	810.801	646.843
409.438	28.046	810.535	646.143
410.453	28.149	810.006	646.030
411.467	27.996	809.410	644.957
412.482	28.110	808.976	644.956
413.496	28.140	808.994	645.020
414.511	28.071	808.863	644.613
415.526	28.075	808.085	643.952
416.540	27.898	807.178	642.547
417.555	27.747	806.491	641.415
418.569	27.778	806.342	641.346
419.584	27.807	805.629	640.826
420.599	27.473	805.211	639.263
421.613	110.159	1287.319	1459.008
422.628	95.090	1357.564	1459.102
