DTS Sentinel unit serial number:	SN413079Multiplexer serial number:	ORYXHardware model number:	OX4-SRSoftware version number:	ORYX F/W v4.00 Oryx Data Collector v3.7.2.0data status	okinstallation	princeton_trtdifferential loss correction	single-endedforward channel	channel 1reverse channel	N/Adate	2019/09/19time	13:10:35forward acquisition time	60.00reverse acquisition time	0.00gamma	496.2192k internal	0.2327k external	0.2327temperature offset calibration	1.0012default loss term (dB/km)	0.3790temperature slope calibration	1.0000multiplexer offset coefficient	1.0000multiplexer slope coefficient	1.0000fibre end	0.00T internal ref (°C)	29.16T ext. ref 1 (°C)	0.93T ext. ref 2 (°C)	26.92length (m)	temperature (°C)	Stokes	anti-Stokes-747.200	-37.630	0.068	0.037
-746.185	297.014	0.110	0.203
-745.171	800.000	-0.036	-0.142
-744.156	289.268	-0.101	0.184
-743.142	800.000	0.025	0.069
-742.127	-124.159	-0.318	0.050
-741.112	-63.238	-0.163	-0.068
-740.098	79.628	0.198	0.214
-739.083	-200.000	-0.014	0.125
-738.069	-149.855	0.132	0.010
-737.054	-36.249	0.125	-0.068
-736.039	-70.388	-0.098	0.037
-735.025	-16.920	0.287	0.183
-734.010	317.088	-0.163	-0.310
-732.996	-65.887	-0.305	-0.123
-731.981	-120.822	-0.066	0.011
-730.966	800.000	-0.124	-0.379
-729.952	74.203	-0.059	0.062
-728.937	-73.311	-0.087	-0.032
-727.923	-113.122	0.062	0.012
-726.908	72.182	-0.189	0.198
-725.894	-2.126	-0.193	0.137
-724.879	-159.724	-0.074	-0.004
-723.864	800.000	0.037	-0.123
-722.850	-108.382	-0.243	-0.053
-721.835	-200.000	-0.014	-0.128
-720.821	-128.370	-0.185	-0.027
-719.806	129.255	-0.051	-0.066
-718.791	237.163	0.165	0.275
-717.777	-20.014	0.099	0.062
-716.762	-200.000	0.008	0.125
-715.748	-52.439	0.341	-0.159
-714.733	800.000	0.088	-0.316
-713.718	-200.000	-0.008	-0.174
-712.704	17.775	0.073	0.058
-711.689	800.000	-0.065	-0.274
-710.675	322.672	0.101	0.195
-709.660	800.000	0.038	-0.114
-708.645	-200.000	-0.035	0.238
-707.631	520.506	-0.196	-0.463
-706.616	-96.831	-0.094	0.025
-705.602	-200.000	-0.014	0.143
-704.587	-127.918	-0.336	0.049
-703.572	77.335	0.173	-0.186
-702.558	60.007	0.060	0.060
-701.543	-97.126	0.181	0.048
-700.529	274.385	-0.107	-0.190
-699.514	-99.852	-0.155	0.039
-698.499	311.215	-0.169	-0.319
-697.485	247.974	-0.105	-0.179
-696.470	-95.038	0.180	0.049
-695.456	20.410	-0.187	0.152
-694.441	-200.000	-0.021	0.315
-693.426	-133.115	-0.253	0.032
-692.412	-122.061	-0.095	-0.016
-691.397	800.000	-0.064	-0.260
-690.383	-200.000	0.032	-0.240
-689.368	283.904	0.105	-0.190
-688.354	-106.033	-0.211	-0.048
-687.339	332.876	0.066	-0.129
-686.324	-24.543	0.055	-0.033
-685.310	-30.941	-0.170	-0.097
-684.295	-98.386	0.293	0.075
-683.281	99.217	0.201	0.234
-682.266	-81.659	0.129	0.043
-681.251	-200.000	-0.001	-0.389
-680.237	800.000	0.061	-0.189
-679.222	150.315	-0.127	-0.173
-678.208	-34.651	-0.062	0.034
-677.193	-200.000	0.019	-0.213
-676.178	104.912	0.145	-0.172
-675.164	-131.736	-0.179	-0.024
-674.149	-12.200	0.079	0.052
-673.135	70.661	-0.122	0.126
-672.120	52.961	0.070	-0.068
-671.105	254.152	0.211	-0.363
-670.091	-200.000	0.000	0.192
-669.076	-12.773	-0.168	-0.110
-668.062	615.777	0.065	0.163
-667.047	800.000	-0.003	0.009
-666.032	30.241	-0.143	-0.123
-665.018	80.108	-0.252	0.272
-664.003	-119.493	0.097	-0.017
-662.989	-24.823	0.208	0.124
-661.974	-176.886	0.119	0.003
-660.959	-45.171	-0.320	0.160
-659.945	378.830	-0.147	0.302
-658.930	123.835	0.169	-0.213
-657.916	-102.708	0.455	0.109
-656.901	88.837	-0.110	0.123
-655.886	65.785	-0.307	-0.312
-654.872	-200.000	-0.015	-0.070
-653.857	-61.150	-0.056	0.024
-652.843	-52.034	0.140	0.065
-651.828	-200.000	0.001	0.111
-650.814	231.412	-0.070	0.116
-649.799	368.505	0.048	0.098
-648.784	-61.263	0.146	-0.062
-647.770	-51.216	-0.361	-0.170
-646.755	-156.844	-0.146	-0.009
-645.741	48.057	-0.096	-0.090
-644.726	-123.508	-0.236	0.038
-643.711	-200.000	-0.042	0.278
-642.697	17.099	0.116	-0.092
-641.682	-63.944	0.124	0.051
-640.668	-148.762	-0.200	-0.016
-639.653	-78.088	0.294	0.102
-638.638	-143.661	0.110	-0.010
-637.624	26.026	-0.097	0.081
-636.609	-137.481	0.188	0.021
-635.595	-200.000	0.005	-0.231
-634.580	800.000	0.093	-0.314
-633.565	-9.978	-0.125	0.083
-632.551	188.151	-0.087	-0.130
-631.536	69.605	0.114	-0.117
-630.522	258.851	0.058	0.101
-629.507	206.716	-0.184	-0.288
-628.492	800.000	0.053	0.219
-627.478	-196.239	-0.141	-0.001
-626.463	20.145	-0.024	0.019
-625.449	-143.317	0.282	-0.027
-624.434	-200.000	0.051	-0.293
-623.419	115.107	0.250	0.306
-622.405	-12.814	0.150	0.098
-621.390	-29.949	-0.024	-0.014
-620.376	287.128	-0.020	-0.036
-619.361	4.097	-0.237	0.174
-618.346	252.836	0.066	-0.114
-617.332	-200.000	0.005	0.249
-616.317	-72.824	0.272	-0.100
-615.303	-142.558	-0.161	0.016
-614.288	-200.000	0.052	0.370
-613.273	207.040	-0.142	0.221
-612.259	-200.000	-0.029	-0.149
-611.244	49.581	0.208	-0.197
-610.230	65.501	-0.088	0.089
-609.215	26.766	-0.224	-0.188
-608.201	71.312	-0.084	0.088
-607.186	197.335	0.113	-0.174
-606.171	274.825	-0.135	-0.240
-605.157	-15.063	0.044	-0.028
-604.142	-200.000	-0.034	-0.299
-603.128	800.000	-0.072	-0.227
-602.113	103.296	-0.108	0.127
-601.098	600.170	0.111	-0.276
-600.084	800.000	0.073	-0.213
-599.069	-72.260	-0.075	0.028
-598.055	337.507	-0.143	-0.278
-597.040	-64.290	-0.166	-0.068
-596.025	-200.000	-0.022	0.174
-595.011	-152.831	-0.250	0.018
-593.996	-112.010	0.375	0.076
-592.982	-200.000	0.009	-0.060
-591.967	197.686	0.134	-0.205
-590.952	-200.000	-0.291	-0.001
-589.938	413.051	0.095	-0.203
-588.923	800.000	-0.065	0.248
-587.909	800.000	0.044	-0.149
-586.894	800.000	-0.094	-0.320
-585.879	-200.000	-0.055	-0.317
-584.865	-115.547	-0.047	-0.009
-583.850	-50.203	-0.129	-0.061
-582.836	127.257	-0.167	0.212
-581.821	-140.307	-0.169	0.018
-580.806	279.920	0.195	0.348
-579.792	393.550	-0.185	-0.386
-578.777	26.100	-0.099	0.082
-577.763	800.000	0.035	0.102
-576.748	475.664	0.040	-0.091
-575.733	-112.843	-0.224	0.044
-574.719	-85.016	0.066	-0.021
-573.704	-39.253	-0.373	-0.196
-572.690	-200.000	-0.016	0.136
-571.675	583.830	0.140	-0.345
-570.661	-125.986	-0.304	-0.046
-569.646	-106.444	0.186	0.041
-568.631	26.662	-0.047	-0.039
-567.617	88.906	0.180	0.200
-566.602	28.093	0.253	-0.213
-565.588	-64.082	0.103	0.042
-564.573	-52.265	0.328	-0.152
-563.558	540.663	0.201	0.479
-562.544	-113.916	-0.265	0.051
-561.529	-200.000	-0.003	-0.056
-560.515	-112.084	0.270	0.054
-559.500	319.234	0.028	-0.053
-558.485	381.261	-0.148	0.303
-557.471	62.815	0.291	-0.292
-556.456	-200.000	0.016	-0.158
-555.442	-200.000	-0.042	0.450
-554.427	54.630	0.123	0.119
-553.412	-27.447	0.066	0.039
-552.398	-116.290	-0.325	-0.060
-551.383	163.877	0.035	-0.049
-550.369	-200.000	0.002	-0.255
-549.354	27.693	-0.112	0.095
-548.339	-200.000	0.340	0.001
-547.325	104.151	0.183	0.216
-546.310	-7.711	0.452	0.305
-545.296	-109.989	-0.124	0.026
-544.281	-91.450	0.288	0.082
-543.266	-52.341	0.054	0.025
-542.252	800.000	-0.100	-0.286
-541.237	-78.650	-0.156	-0.053
-540.223	568.126	0.056	0.137
-539.208	48.479	-0.187	-0.175
-538.193	295.518	-0.104	-0.190
-537.179	37.518	-0.240	-0.213
-536.164	-120.649	-0.178	0.030
-535.150	27.557	-0.267	0.224
-534.135	-200.000	-0.013	-0.353
-533.121	-60.963	-0.180	-0.076
-532.106	-200.000	0.031	0.235
-531.091	-115.432	0.330	0.062
-530.077	-70.093	-0.104	-0.039
-529.062	459.169	-0.033	0.074
-528.048	800.000	-0.052	-0.208
-527.033	48.167	0.158	0.147
-526.018	-50.537	-0.317	0.150
-525.004	374.578	0.087	-0.176
-523.989	-200.000	-0.098	0.441
-522.975	233.664	-0.192	0.316
-521.960	-200.000	-0.008	0.378
-520.945	-200.000	0.027	0.177
-519.931	544.045	-0.126	-0.301
-518.916	-107.335	-0.013	-0.003
-517.902	-200.000	0.003	0.081
-516.887	54.094	0.107	0.103
-515.872	-47.093	0.271	0.132
-514.858	3.606	0.315	-0.229
-513.843	299.831	-0.062	-0.114
-512.829	433.581	-0.048	-0.104
-511.814	723.612	0.138	0.367
-510.799	267.968	0.061	0.106
-509.785	-125.944	0.253	-0.038
-508.770	50.692	-0.128	0.121
-507.756	34.374	-0.058	0.050
-506.741	68.830	0.153	-0.157
-505.726	115.687	0.125	0.153
-504.712	-32.729	-0.138	-0.076
-503.697	-200.000	-0.011	0.468
-502.683	-47.449	-0.101	0.049
-501.668	-77.650	0.320	0.110
-500.653	-71.005	0.429	-0.161
-499.639	-200.000	0.009	0.066
-498.624	405.756	-0.069	0.145
-497.610	342.425	0.156	-0.305
-496.595	57.599	-0.177	-0.172
-495.581	800.000	0.039	-0.157
-494.566	736.238	0.105	0.280
-493.551	-200.000	0.080	0.367
-492.537	-98.102	0.374	-0.096
-491.522	172.164	0.111	-0.159
-490.508	-147.467	-0.370	0.031
-489.493	-200.000	-0.026	0.191
-488.478	35.617	0.067	-0.059
-487.464	75.008	0.100	0.106
-486.449	-200.000	-0.067	-0.400
-485.435	-92.472	-0.145	-0.041
-484.420	-103.336	0.214	-0.050
-483.405	-122.601	-0.102	0.017
-482.391	72.807	-0.065	-0.067
-481.376	-126.356	-0.429	-0.064
-480.362	800.000	-0.082	-0.269
-479.347	-200.000	-0.022	-0.392
-478.332	-92.994	-0.185	0.052
-477.318	800.000	0.063	0.255
-476.303	52.549	-0.051	0.048
-475.289	-200.000	0.019	-0.255
-474.274	-144.468	0.430	0.040
-473.259	-81.624	0.146	-0.048
-472.245	275.099	0.072	-0.127
-471.230	-95.669	-0.401	0.107
-470.216	97.529	0.139	0.159
-469.201	-200.000	-0.012	-0.063
-468.186	172.221	0.133	-0.191
-467.172	153.958	-0.198	-0.271
-466.157	695.692	-0.024	-0.064
-465.143	800.000	-0.062	0.261
-464.128	-0.582	0.217	0.154
-463.113	-165.517	-0.395	-0.017
-462.099	-21.149	-0.213	-0.130
-461.084	43.255	0.136	-0.124
-460.070	-20.419	-0.167	-0.102
-459.055	-7.527	-0.154	-0.104
-458.040	800.000	-0.090	0.330
-457.026	132.844	0.067	0.087
-456.011	-36.809	-0.166	0.089
-454.997	-132.927	-0.254	-0.032
-453.982	62.731	-0.173	-0.172
-452.968	-142.620	0.202	0.020
-451.953	-200.000	-0.001	0.055
-450.938	-200.000	0.025	-0.166
-449.924	90.572	-0.167	-0.186
-448.909	-155.475	0.253	0.016
-447.895	800.000	-0.080	0.224
-446.880	482.204	0.058	-0.132
-445.865	-74.058	0.290	0.105
-444.851	-100.353	0.154	0.038
-443.836	-200.000	0.008	0.094
-442.822	-71.552	0.055	0.021
-441.807	4.193	0.097	0.071
-440.792	-198.632	-0.436	0.002
-439.778	36.643	0.096	-0.084
-438.763	131.473	0.076	-0.097
-437.749	-115.419	0.461	0.087
-436.734	800.000	0.039	0.110
-435.719	47.218	-0.084	0.078
-434.705	462.010	-0.132	-0.293
-433.690	-135.205	-0.118	0.014
-432.676	-93.090	-0.244	-0.068
-431.661	-159.117	0.065	-0.004
-430.646	336.707	-0.078	-0.152
-429.632	3.115	0.311	0.225
-428.617	367.873	-0.077	-0.154
-427.603	-200.000	-0.037	-0.324
-426.588	-23.130	-0.094	0.056
-425.573	-7.386	0.210	0.142
-424.559	-70.329	0.114	-0.043
-423.544	-33.414	-0.231	0.127
-422.530	-169.783	0.048	-0.002
-421.515	-85.456	-0.137	-0.043
-420.500	-74.696	0.252	0.090
-419.486	360.594	0.143	0.286
-418.471	20.482	0.082	-0.066
-417.457	-92.375	0.274	0.077
-416.442	-84.037	-0.136	0.043
-415.428	-200.000	0.035	0.283
-414.413	105.774	-0.054	-0.064
-413.398	-159.488	-0.218	0.012
-412.384	59.321	-0.126	0.123
-411.369	699.335	0.091	-0.239
-410.355	149.957	-0.089	-0.120
-409.340	-24.463	-0.203	0.120
-408.325	1.505	0.137	0.098
-407.311	-26.874	-0.118	0.069
-406.296	800.000	0.061	0.186
-405.282	-151.787	-0.165	0.012
-404.267	129.758	-0.188	-0.239
-403.252	-200.000	-0.055	-0.349
-402.238	65.447	0.315	-0.318
-401.223	-11.913	0.061	0.040
-400.209	140.989	0.223	-0.293
-399.194	-200.000	-0.043	0.279
-398.179	107.232	0.055	0.065
-397.165	337.635	0.066	0.128
-396.150	-37.211	-0.167	0.089
-395.136	104.344	0.238	0.279
-394.121	-200.000	0.035	0.257
-393.106	114.511	0.126	0.153
-392.092	-108.153	-0.098	-0.021
-391.077	800.000	-0.055	0.207
-390.063	-1.240	-0.208	0.146
-389.048	366.645	0.045	-0.090
-388.033	335.136	-0.055	0.106
-387.019	417.459	-0.105	-0.222
-386.004	-200.000	-0.039	-0.450
-384.990	324.138	0.041	-0.078
-383.975	-72.168	-0.197	0.073
-382.960	58.178	0.176	-0.171
-381.946	301.351	0.086	-0.158
-380.931	-187.797	0.130	0.002
-379.917	516.612	0.075	0.174
-378.902	-92.616	-0.084	0.023
-377.888	-20.594	-0.290	-0.177
-376.873	-67.124	0.139	0.054
-375.858	99.683	0.205	0.236
-374.844	-8.150	-0.096	0.064
-373.829	-200.000	-0.032	-0.205
-372.815	-200.000	-0.031	-0.190
-371.800	129.954	0.131	0.166
-370.785	79.842	0.073	-0.078
-369.771	-200.000	0.013	0.339
-368.756	-35.801	0.252	-0.136
-367.742	193.440	0.174	-0.262
-366.727	-131.353	-0.028	-0.004
-365.712	-81.847	0.320	0.104
-364.698	-88.868	-0.080	0.024
-363.683	-200.000	-0.051	0.380
-362.669	800.000	-0.060	0.212
-361.654	218.739	-0.036	0.057
-360.639	-28.771	0.110	0.063
-359.625	-22.972	-0.021	-0.013
-358.610	-200.000	0.226	0.000
-357.596	-73.291	0.393	0.143
-356.581	31.070	0.334	0.284
-355.566	-169.525	0.162	0.006
-354.552	800.000	-0.029	-0.093
-353.537	-27.016	0.135	-0.078
-352.523	50.758	-0.022	-0.021
-351.508	-78.714	-0.107	0.036
-350.493	316.710	-0.116	-0.217
-349.479	-94.524	-0.071	-0.019
-348.464	80.009	-0.054	-0.057
-347.450	-16.343	0.120	0.075
-346.435	-28.441	0.077	0.044
-345.420	149.517	-0.135	-0.182
-344.406	80.482	0.209	0.223
-343.391	282.383	-0.179	-0.318
-342.377	368.566	0.099	0.199
-341.362	-200.000	-0.003	0.019
-340.348	-200.000	0.016	-0.152
-339.333	91.003	0.262	-0.291
-338.318	123.418	-0.122	0.152
-337.304	227.369	-0.078	0.125
-336.289	-29.836	0.073	-0.042
-335.275	800.000	-0.082	0.298
-334.260	207.027	-0.085	0.132
-333.245	-144.268	-0.252	-0.023
-332.231	-115.347	0.115	-0.021
-331.216	90.338	-0.101	-0.112
-330.202	-3.330	0.146	0.101
-329.187	-145.482	0.137	0.012
-328.172	152.998	0.119	0.162
-327.158	101.360	0.156	-0.180
-326.143	116.313	-0.141	-0.171
-325.129	46.654	-0.138	0.127
-324.114	-200.000	-0.002	-0.094
-323.099	-165.298	0.257	0.011
-322.085	155.795	-0.113	-0.154
-321.070	61.178	0.052	0.051
-320.056	343.275	0.102	0.198
-319.041	364.004	-0.140	-0.279
-318.026	134.368	-0.197	-0.254
-317.012	-94.779	0.198	0.053
-315.997	186.307	0.121	0.178
-314.983	-77.404	0.148	0.051
-313.968	63.342	-0.077	0.077
-312.953	26.999	-0.149	-0.124
-311.939	-200.000	-0.020	-0.116
-310.924	-73.001	0.223	0.081
-309.910	-88.967	-0.216	-0.063
-308.895	-10.544	0.195	0.128
-307.880	-200.000	-0.046	0.209
-306.866	-0.721	-0.017	-0.012
-305.851	-148.615	0.090	-0.007
-304.837	149.187	-0.140	0.188
-303.822	496.905	-0.075	-0.172
-302.807	441.253	0.074	0.160
-301.793	-175.649	-0.169	0.005
-300.778	-25.272	-0.115	0.067
-299.764	-103.514	-0.156	-0.036
-298.749	-65.288	0.307	0.122
-297.735	-33.637	0.176	-0.096
-296.720	13.055	0.138	-0.105
-295.705	51.919	-0.146	-0.137
-294.691	464.421	0.078	0.173
-293.676	-200.000	0.020	-0.409
-292.662	-101.631	-0.108	-0.026
-291.647	-21.890	-0.264	0.159
-290.632	-88.334	-0.268	0.079
-289.618	-200.000	0.034	-0.163
-288.603	800.000	0.107	-0.464
-287.589	-43.744	-0.200	-0.100
-286.574	403.355	0.055	0.115
-285.559	-129.350	0.048	-0.007
-284.545	-17.722	0.328	0.204
-283.530	-122.137	-0.172	-0.028
-282.516	-32.068	-0.442	-0.245
-281.501	-72.870	0.083	0.030
-280.486	12.154	0.041	-0.031
-279.472	-200.000	-0.024	0.133
-278.457	177.139	-0.166	0.238
-277.443	145.561	0.092	-0.122
-276.428	-146.673	-0.332	0.028
-275.413	-67.495	-0.311	-0.121
-274.399	-115.030	0.083	0.016
-273.384	257.314	0.127	-0.216
-272.370	-139.871	0.368	0.039
-271.355	343.215	-0.008	-0.016
-270.340	-200.000	0.039	-0.420
-269.326	94.636	0.307	-0.346
-268.311	138.480	-0.263	-0.341
-267.297	-91.525	0.092	0.026
-266.282	-167.378	0.264	-0.010
-265.267	-4.225	0.084	-0.058
-264.253	196.280	-0.064	-0.096
-263.238	-200.000	-0.003	0.287
-262.224	-63.594	-0.241	0.098
-261.209	46.495	-0.092	0.085
-260.195	43.176	0.107	-0.097
-259.180	146.550	-0.083	0.110
-258.165	-200.000	0.011	0.399
-257.151	132.052	0.226	0.288
-256.136	-45.028	0.299	-0.147
-255.122	440.997	0.009	0.018
-254.107	-39.869	0.050	0.026
-253.092	-200.000	-0.042	0.291
-252.078	25.997	0.148	0.122
-251.063	-112.909	0.115	-0.023
-250.049	-200.000	0.001	-0.333
-249.034	98.291	-0.062	-0.071
-248.019	-147.849	0.204	-0.017
-247.005	-0.035	-0.217	0.153
-245.990	28.810	-0.237	0.198
-244.976	-1.189	-0.124	-0.087
-243.961	800.000	-0.050	-0.143
-242.946	109.667	-0.256	0.304
-241.932	800.000	0.041	-0.129
-240.917	-68.567	-0.271	0.104
-239.903	-63.671	0.149	-0.060
-238.888	-85.887	0.050	-0.015
-237.873	428.329	-0.069	-0.146
-236.859	62.809	0.314	0.311
-235.844	32.407	-0.090	-0.077
-234.830	-150.123	-0.348	-0.027
-233.815	-76.613	0.382	-0.133
-232.800	109.175	-0.200	-0.236
-231.786	-121.363	-0.306	0.050
-230.771	-200.000	-0.018	-0.291
-229.757	800.000	0.048	0.157
-228.742	-200.000	-0.021	-0.224
-227.727	-77.967	-0.236	-0.080
-226.713	272.202	-0.025	0.044
-225.698	-104.823	0.141	-0.032
-224.684	45.507	-0.064	0.059
-223.669	-200.000	-0.044	0.339
-222.655	-87.485	0.094	0.028
-221.640	670.511	-0.071	0.182
-220.625	374.626	0.134	0.269
-219.611	51.995	-0.239	-0.225
-218.596	-64.235	-0.154	-0.062
-217.582	-200.000	-0.015	0.192
-216.567	-148.740	-0.219	0.018
-215.552	-107.995	0.234	0.050
-214.538	253.026	-0.018	-0.030
-213.523	-200.000	0.058	-0.257
-212.509	-37.388	0.102	0.054
-211.494	-56.831	0.342	0.149
-210.479	-118.950	0.215	-0.037
-209.465	497.264	-0.097	-0.220
-208.450	-135.414	-0.209	-0.025
-207.436	9.708	0.144	0.107
-206.421	-200.000	0.002	0.095
-205.406	3.912	0.153	-0.110
-204.392	-200.000	-0.077	0.374
-203.377	800.000	0.057	-0.199
-202.363	800.000	-0.097	-0.320
-201.348	-200.000	-0.019	0.328
-200.333	120.232	0.104	0.128
-199.319	800.000	-0.108	-0.309
-198.304	-200.000	-0.003	-0.167
-197.290	800.000	0.019	0.068
-196.275	-200.000	-0.035	0.177
-195.260	647.112	0.029	0.073
-194.246	-106.032	0.118	-0.026
-193.231	-45.688	-0.282	-0.138
-192.217	-9.493	-0.135	-0.089
-191.202	800.000	-0.015	0.052
-190.187	800.000	-0.033	0.107
-189.173	-200.000	-0.002	-0.240
-188.158	-200.000	-0.040	0.419
-187.144	-200.000	0.041	0.233
-186.129	-100.907	0.161	0.039
-185.114	-65.861	-0.354	0.140
-184.100	-49.696	-0.289	0.136
-183.085	594.412	-0.180	0.439
-182.071	137.573	-0.063	-0.081
-181.056	-200.000	-0.017	0.250
-180.042	-45.379	-0.352	0.172
-179.027	203.824	-0.113	-0.173
-178.012	-200.000	0.033	-0.192
-176.998	138.609	0.064	0.083
-175.983	-104.808	-0.124	-0.028
-174.969	39.472	0.201	0.178
-173.954	800.000	0.147	0.416
-172.939	-165.892	-0.560	0.024
-171.925	-80.394	0.218	-0.072
-170.910	-128.062	-0.056	-0.008
-169.896	-127.849	0.259	-0.037
-168.881	-200.000	-0.067	-0.326
-167.866	143.844	0.109	-0.143
-166.852	187.388	0.233	-0.343
-165.837	116.086	0.127	0.153
-164.823	-57.458	0.323	0.140
-163.808	93.878	-0.100	0.112
-162.793	-200.000	-0.014	0.327
-161.779	-200.000	0.012	-0.094
-160.764	-85.653	0.142	0.044
-159.750	-52.285	-0.309	-0.141
-158.735	189.020	0.237	-0.349
-157.720	794.167	0.061	-0.165
-156.706	-82.980	-0.121	-0.039
-155.691	1.940	-0.280	-0.199
-154.677	148.268	0.125	0.166
-153.662	75.480	-0.160	0.167
-152.647	233.648	-0.102	0.166
-151.633	339.551	-0.097	-0.187
-150.618	550.072	0.186	-0.440
-149.604	-200.000	-0.036	0.239
-148.589	-108.910	0.136	-0.029
-147.574	360.205	0.116	0.229
-146.560	-69.678	-0.239	-0.090
-145.545	-26.514	-0.193	0.111
-144.531	800.000	0.069	-0.278
-143.516	-153.966	0.236	-0.016
-142.502	657.639	-0.108	-0.275
-141.487	800.000	0.062	-0.177
-140.472	-59.498	-0.166	0.070
-139.458	-200.000	0.040	-0.317
-138.443	-46.132	0.066	-0.032
-137.429	-146.797	-0.401	0.034
-136.414	-200.000	-0.007	0.095
-135.399	144.900	0.120	-0.158
-134.385	-9.901	0.145	-0.095
-133.370	-13.071	-0.094	-0.060
-132.356	108.972	-0.130	-0.153
-131.341	133.296	-0.102	-0.129
-130.326	-126.773	0.062	0.009
-129.312	-171.178	-0.276	-0.009
-128.297	538.413	0.113	-0.265
-127.283	-38.800	-0.056	0.029
-126.268	71.981	0.042	0.043
-125.253	13.333	-0.015	-0.011
-124.239	-63.799	-0.026	0.011
-123.224	-200.000	0.049	-0.272
-122.210	-179.754	-0.256	-0.005
-121.195	-200.000	0.082	0.382
-120.180	-70.866	0.198	0.073
-119.166	171.124	-0.159	-0.224
-118.151	-200.000	-0.009	0.274
-117.137	800.000	0.098	-0.392
-116.122	18.123	-0.109	0.085
-115.107	147.246	-0.067	-0.089
-114.093	679.998	-0.119	0.304
-113.078	363.679	0.075	0.148
-112.064	-62.962	0.172	0.070
-111.049	-200.000	0.043	0.274
-110.034	266.276	0.076	0.131
-109.020	800.000	-0.093	0.263
-108.005	-17.825	0.160	0.098
-106.991	800.000	0.121	0.411
-105.976	-181.167	0.384	-0.008
-104.962	800.000	0.043	0.145
-103.947	531.880	-0.040	-0.092
-102.932	-26.866	-0.039	0.022
-101.918	-14.990	-0.076	0.048
-100.903	495.282	0.122	-0.275
-99.889	800.000	0.015	0.040
-98.874	244.718	0.045	-0.075
-97.859	454.821	0.068	0.147
-96.845	-58.317	0.144	0.062
-95.830	281.646	0.216	-0.381
-94.816	-132.335	-0.225	-0.029
-93.801	123.805	0.128	0.158
-92.786	255.248	0.173	-0.292
-91.772	-122.656	-0.259	0.041
-90.757	800.000	-0.044	0.175
-89.743	308.328	0.130	0.238
-88.728	-146.730	0.254	0.022
-87.713	-18.418	0.102	-0.062
-86.699	-85.698	-0.179	-0.055
-85.684	-76.981	0.301	-0.103
-84.670	187.557	0.176	0.258
-83.655	-94.802	-0.204	-0.054
-82.640	116.504	-0.042	-0.050
-81.626	-122.758	0.092	-0.015
-80.611	123.920	-0.219	0.270
-79.597	-200.000	-0.021	0.246
-78.582	-30.337	0.113	-0.063
-77.567	-40.819	-0.102	0.052
-76.553	-172.721	0.221	-0.007
-75.538	675.404	-0.013	-0.033
-74.524	-58.882	-0.201	-0.085
-73.509	-200.000	0.015	-0.133
-72.494	24.100	0.065	0.053
-71.480	-200.000	-0.030	-0.293
-70.465	-155.566	-0.116	0.007
-69.451	-85.808	-0.231	-0.070
-68.436	-200.000	-0.020	-0.101
-67.422	-121.171	-0.206	0.034
-66.407	-93.646	-0.309	0.084
-65.392	278.548	-0.066	-0.115
-64.378	800.000	-0.075	-0.221
-63.363	-168.912	-0.119	-0.004
-62.349	-38.091	-0.250	0.130
-61.334	58.737	-0.745	-0.719
-60.319	50.315	0.444	0.412
-59.305	368.261	-0.492	-0.976
-58.290	138.171	0.806	1.038
-57.276	286.817	0.832	1.474
-56.261	-200.000	104.923	580.012
-55.246	421.947	1501.798	3162.039
-54.232	139.617	2724.008	3519.522
-53.217	103.116	2209.890	2540.857
-52.203	40.682	1640.180	1450.577
-51.188	32.473	1373.244	1163.952
-50.173	29.372	1331.713	1110.082
-49.159	53.098	1384.427	1300.174
-48.144	53.224	1400.908	1316.374
-47.130	32.607	1356.402	1150.313
-46.115	29.358	1337.793	1114.884
-45.100	29.079	1333.129	1109.275
-44.086	29.127	1330.310	1107.172
-43.071	29.035	1328.217	1104.836
-42.057	28.958	1325.851	1102.362
-41.042	29.070	1323.855	1101.330
-40.027	28.986	1322.743	1099.854
-39.013	29.081	1320.237	1098.297
-37.998	29.120	1318.238	1096.824
-36.984	29.132	1316.557	1095.452
-35.969	29.081	1315.509	1094.232
-34.954	29.084	1313.534	1092.562
-33.940	29.109	1312.017	1091.409
-32.925	29.199	1310.735	1090.832
-31.911	29.260	1308.833	1089.567
-30.896	29.387	1307.324	1089.016
-29.881	29.298	1305.836	1087.209
-28.867	29.339	1304.631	1086.402
-27.852	29.207	1303.297	1084.475
-26.838	29.236	1301.876	1083.418
-25.823	29.251	1300.490	1082.309
-24.809	29.125	1299.404	1080.623
-23.794	29.223	1298.050	1080.029
-22.779	29.285	1296.523	1079.080
-21.765	29.261	1295.434	1077.991
-20.750	29.157	1294.216	1076.325
-19.736	29.150	1292.742	1075.017
-18.721	29.114	1291.640	1073.844
-17.706	29.014	1290.677	1072.422
-16.692	29.128	1289.019	1071.664
-15.677	29.140	1288.112	1070.939
-14.663	29.161	1286.794	1069.920
-13.648	29.175	1285.767	1069.107
-12.633	29.137	1284.552	1067.830
-11.619	29.064	1284.257	1067.119
-10.604	29.109	1282.991	1066.289
-9.590	29.060	1282.151	1065.261
-8.575	29.099	1280.772	1064.299
-7.560	29.189	1280.180	1064.287
-6.546	29.114	1279.355	1063.126
-5.531	29.052	1278.286	1061.835
-4.517	29.042	1277.320	1060.936
-3.502	29.106	1276.640	1060.699
-2.487	29.189	1275.351	1060.063
-1.473	29.176	1271.778	1056.978
-0.458	28.264	1257.261	1039.695
0.556	24.527	1241.034	1005.580
1.571	20.742	1247.218	989.037
2.586	19.191	1261.363	991.244
3.600	17.896	1249.287	974.284
4.615	13.144	1174.226	890.114
5.629	4.953	1097.641	790.580
6.644	1.192	1077.958	757.573
7.659	0.803	1076.277	754.383
8.673	0.942	1074.804	753.979
9.688	0.794	1073.884	752.529
10.702	1.044	1071.701	752.174
11.717	5.665	1077.448	779.167
12.731	13.072	1087.336	823.304
13.746	16.840	1091.741	845.397
14.761	17.392	1092.192	848.424
15.775	16.651	1090.530	843.371
16.790	15.752	1088.187	837.009
17.804	15.041	1086.734	832.286
18.819	14.710	1085.572	829.675
19.834	14.302	1084.767	826.961
20.848	14.188	1083.610	825.443
21.863	13.827	1082.505	822.740
22.877	13.778	1081.859	821.930
23.892	13.693	1081.060	820.831
24.907	13.599	1080.890	820.163
25.921	13.752	1079.414	819.728
26.936	13.681	1078.633	818.712
27.950	13.749	1077.960	818.465
28.965	13.807	1076.363	817.463
29.980	13.793	1075.457	816.633
30.994	13.975	1073.881	816.259
32.009	13.850	1073.126	815.001
33.023	13.875	1072.159	814.315
34.038	13.747	1071.385	813.030
35.053	13.871	1070.313	812.750
36.067	13.920	1069.340	812.180
37.082	13.908	1068.297	811.257
38.096	13.884	1067.827	810.710
39.111	13.918	1067.055	810.221
40.126	13.828	1065.890	808.825
41.140	13.709	1064.754	807.312
42.155	13.512	1063.856	805.599
43.169	13.668	1062.241	805.062
44.184	13.625	1061.633	804.324
45.199	13.632	1060.568	803.481
46.213	13.631	1059.253	802.409
47.228	13.614	1058.549	801.723
48.242	13.745	1057.119	801.199
49.257	13.749	1056.092	800.369
50.271	13.696	1055.241	799.399
51.286	13.868	1054.052	799.257
52.301	13.897	1053.132	798.628
53.315	13.808	1052.117	797.358
54.330	13.832	1051.428	796.879
55.344	13.832	1050.089	795.796
56.359	13.791	1049.392	795.001
57.374	13.696	1048.732	793.975
58.388	13.903	1047.154	793.702
59.403	13.685	1046.893	792.389
60.417	13.641	1046.331	791.685
61.432	13.709	1045.540	791.341
62.447	13.637	1044.765	790.342
63.461	13.594	1043.742	789.295
64.476	13.585	1042.835	788.492
65.490	13.623	1041.991	787.965
66.505	13.762	1040.861	787.705
67.520	13.709	1040.769	787.312
68.534	13.645	1040.054	786.396
69.549	13.754	1038.595	785.742
70.563	13.654	1037.968	784.722
71.578	13.691	1037.361	784.368
72.593	13.625	1036.519	783.350
73.607	13.632	1036.028	782.946
74.622	13.650	1035.615	782.649
75.636	13.744	1034.358	782.075
76.651	13.678	1033.816	781.283
77.666	13.451	1033.439	779.857
78.680	13.655	1032.408	779.973
79.695	13.602	1031.757	779.164
80.709	13.641	1030.972	778.684
81.724	13.790	1029.933	778.530
82.739	13.783	1029.724	778.272
83.753	13.752	1028.927	777.454
84.768	13.803	1028.022	776.939
85.782	13.840	1026.837	776.148
86.797	13.844	1025.952	775.428
87.812	13.787	1025.050	774.414
88.826	13.739	1024.258	773.522
89.841	13.760	1023.480	772.963
90.855	13.750	1022.436	772.061
91.870	13.771	1021.637	771.487
92.884	13.844	1020.433	770.848
93.899	13.839	1019.919	770.370
94.914	13.972	1019.027	770.241
95.928	13.905	1017.944	769.048
96.943	13.987	1017.507	769.027
97.957	13.887	1016.539	767.766
98.972	13.758	1015.731	766.492
99.987	13.777	1015.125	766.052
101.001	13.943	1014.002	765.906
102.016	13.800	1013.082	764.482
103.030	14.086	1011.999	764.915
104.045	14.044	1011.333	764.149
105.060	13.727	1010.569	762.049
106.074	13.764	1009.787	761.560
107.089	13.689	1009.354	760.823
108.103	13.719	1008.191	760.017
109.118	13.722	1007.407	759.373
110.133	13.639	1006.225	758.033
111.147	13.692	1005.246	757.474
112.162	13.766	1004.451	757.144
113.176	13.850	1003.375	756.648
114.191	13.883	1002.612	756.157
115.206	13.891	1001.845	755.549
116.220	13.734	1001.149	754.243
117.235	13.922	1000.135	754.267
118.249	13.818	999.360	753.142
119.264	13.836	998.449	752.471
120.279	13.774	997.611	751.493
121.293	13.708	996.769	750.491
122.308	13.713	996.468	750.221
123.322	13.786	995.190	749.523
124.337	13.813	994.025	748.703
125.352	13.809	993.064	747.894
126.366	13.847	991.876	747.101
127.381	13.829	990.586	745.983
128.395	13.897	990.107	745.865
129.410	13.858	989.339	745.042
130.424	13.847	988.242	744.103
131.439	13.942	987.679	744.039
132.454	13.829	987.194	743.102
133.468	13.911	986.017	742.517
134.483	13.878	985.131	741.638
135.497	13.822	984.674	740.975
136.512	13.823	983.769	740.234
137.527	13.889	982.363	739.403
138.541	13.957	981.930	739.315
139.556	13.974	981.343	738.882
140.570	13.990	980.505	738.256
141.585	13.923	979.925	737.459
142.600	14.046	978.877	737.150
143.614	14.017	977.962	736.271
144.629	13.981	977.222	735.489
145.643	14.071	975.700	734.674
146.658	13.950	975.023	733.566
147.673	14.009	974.365	733.264
148.687	14.016	973.281	732.414
149.702	13.917	972.564	731.374
150.716	13.967	971.906	731.034
151.731	13.991	971.247	730.581
152.746	14.004	970.254	729.828
153.760	13.972	969.956	729.395
154.775	14.035	969.334	729.142
155.789	14.073	968.483	728.602
156.804	14.142	967.680	728.238
157.819	14.099	967.045	727.507
158.833	14.179	966.077	727.062
159.848	14.140	965.609	726.476
160.862	14.178	964.510	725.751
161.877	14.056	963.408	724.327
162.892	14.065	962.721	723.783
163.906	14.104	961.493	722.967
164.921	14.125	960.758	722.442
165.935	14.053	959.982	721.480
166.950	14.249	958.951	721.495
167.964	14.011	958.743	720.239
168.979	14.116	957.423	719.642
169.994	14.207	956.420	719.214
171.008	14.101	956.094	718.449
172.023	14.227	954.961	718.076
173.037	14.260	954.549	717.847
174.052	14.277	953.498	717.066
175.067	14.264	953.000	716.574
176.081	14.130	952.582	715.620
177.096	14.071	952.027	714.885
178.110	14.148	951.472	714.733
179.125	14.253	950.609	714.472
180.140	14.386	949.901	714.447
181.154	14.241	949.691	713.608
182.169	14.325	949.120	713.474
183.183	14.330	948.359	712.860
184.198	14.337	947.891	712.475
185.213	14.381	946.612	711.637
186.227	14.400	945.865	711.095
187.242	14.494	945.304	711.011
188.256	14.528	944.393	710.406
189.271	14.458	944.149	709.864
190.286	14.462	943.308	709.187
191.300	14.364	942.645	708.210
192.315	14.182	942.171	707.017
193.329	14.391	941.599	707.410
194.344	14.178	940.705	705.773
195.359	14.472	939.900	706.354
196.373	14.461	939.673	706.073
197.388	14.501	938.927	705.619
198.402	14.525	938.394	705.258
199.417	14.578	937.547	704.783
200.432	14.654	937.073	704.683
201.446	14.693	936.852	704.619
202.461	14.699	936.086	704.008
203.475	14.704	935.650	703.638
204.490	14.622	934.497	702.363
205.504	14.635	933.950	701.945
206.519	14.665	933.407	701.602
207.534	14.763	932.469	701.245
208.548	14.612	932.031	700.222
209.563	14.680	931.212	699.829
210.577	14.619	930.533	699.001
211.592	14.831	929.579	699.109
212.607	14.764	928.956	698.300
213.621	14.883	928.373	698.295
214.636	14.850	927.575	697.496
215.650	14.623	927.242	696.238
216.665	14.852	926.134	696.298
217.680	14.993	925.348	696.232
218.694	14.980	924.438	695.431
219.709	14.923	924.100	694.878
220.723	14.962	923.114	694.239
221.738	14.985	922.956	694.152
222.753	14.998	922.238	693.606
223.767	15.100	921.776	693.618
224.782	15.051	920.925	692.715
225.796	14.964	920.793	692.196
226.811	15.064	919.752	691.765
227.826	15.008	919.042	690.939
228.840	14.948	918.290	690.065
229.855	15.061	917.252	689.689
230.869	15.110	916.344	689.147
231.884	15.025	916.085	688.539
232.899	15.048	915.009	687.764
233.913	15.023	914.776	687.425
234.928	14.954	914.155	686.614
235.942	15.110	913.544	686.737
236.957	14.999	913.016	685.821
237.972	15.041	912.724	685.714
238.986	15.134	911.498	685.112
240.001	15.162	911.078	684.852
241.015	15.033	910.230	683.627
242.030	15.175	909.793	683.818
243.045	15.139	908.942	682.971
244.059	15.144	908.662	682.722
245.074	15.227	907.651	682.238
246.088	15.118	907.272	681.449
247.103	15.230	906.424	681.209
248.117	15.248	905.980	680.888
249.132	15.459	905.225	681.116
250.147	15.460	904.345	680.398
251.161	15.365	903.907	679.621
252.176	15.389	903.056	679.021
253.190	15.424	902.656	678.802
254.205	15.325	902.007	677.853
255.220	15.477	901.274	677.855
256.234	15.498	901.082	677.735
257.249	15.390	900.223	676.595
258.263	15.582	899.104	676.465
259.278	15.375	898.741	675.301
260.293	15.454	898.264	675.200
261.307	15.615	897.574	675.269
262.322	15.584	896.795	674.497
263.336	15.719	896.196	674.530
264.351	15.850	895.104	674.173
265.366	15.825	894.333	673.434
266.380	15.735	894.420	673.080
267.395	15.578	894.038	672.103
268.409	15.752	892.426	671.525
269.424	15.647	892.070	670.782
270.439	15.758	891.087	670.426
271.453	15.776	890.766	670.196
272.468	15.772	890.276	669.751
273.482	15.618	889.967	668.848
274.497	15.665	889.029	668.270
275.512	15.881	888.218	668.460
276.526	15.819	887.809	667.847
277.541	15.827	887.432	667.536
278.555	15.915	886.639	667.226
279.570	15.836	886.155	666.492
280.585	15.844	885.459	665.940
281.599	15.851	884.675	665.320
282.614	15.951	883.711	664.931
283.628	15.815	883.353	664.065
284.643	15.952	882.517	663.920
285.657	15.981	881.891	663.504
286.672	15.954	881.504	663.048
287.687	15.957	880.904	662.550
288.701	16.009	880.074	662.069
289.716	16.130	879.597	662.128
290.730	16.085	878.891	661.360
291.745	16.041	878.625	660.931
292.760	16.000	878.229	660.415
293.774	16.038	877.540	659.985
294.789	15.994	876.946	659.306
295.803	16.107	875.904	658.909
296.818	16.194	875.048	658.547
297.833	16.153	874.224	657.706
298.847	16.194	873.612	657.349
299.862	16.165	873.411	657.026
300.876	16.223	872.689	656.652
301.891	16.273	871.822	656.135
302.906	16.374	871.426	656.170
303.920	16.442	870.623	655.773
304.935	16.267	870.457	654.908
305.949	16.410	869.362	654.581
306.964	16.270	869.112	653.793
307.979	16.357	868.222	653.405
308.993	16.396	867.896	653.251
310.008	16.385	867.372	652.756
311.022	16.513	866.478	652.519
312.037	16.397	866.041	651.687
313.052	16.258	865.681	650.821
314.066	16.354	864.903	650.549
315.081	16.456	864.535	650.607
316.095	16.357	864.007	649.772
317.110	16.427	862.952	649.189
318.125	16.449	862.934	649.202
319.139	16.363	862.501	648.488
320.154	16.463	861.667	648.186
321.168	16.541	860.885	647.843
322.183	16.521	860.336	647.293
323.197	16.491	860.234	647.047
324.212	16.428	859.975	646.552
325.227	16.471	858.958	645.895
326.241	16.356	858.462	645.024
327.256	16.474	857.906	645.002
328.270	16.645	857.229	645.086
329.285	16.440	856.350	643.588
330.300	16.415	856.217	643.335
331.314	16.539	855.307	643.066
332.329	16.569	855.109	642.975
333.343	16.691	854.488	642.915
334.358	16.645	854.297	642.538
335.373	16.624	853.904	642.107
336.387	16.691	853.470	641.976
337.402	16.660	853.317	641.690
338.416	16.645	853.278	641.544
339.431	16.757	852.523	641.344
340.446	16.800	852.019	641.071
341.460	16.799	851.707	640.777
342.475	16.834	851.198	640.469
343.489	16.912	850.612	640.266
344.504	16.844	850.389	639.784
345.519	16.821	849.646	639.082
346.533	16.870	848.763	638.546
347.548	16.817	848.563	638.140
348.562	16.740	848.038	637.396
349.577	16.803	847.554	637.215
350.592	16.928	846.979	637.197
351.606	16.875	846.236	636.381
352.621	16.917	845.604	636.007
353.635	16.790	844.986	635.009
354.650	16.909	844.534	635.059
355.665	16.889	843.899	634.450
356.679	16.947	843.394	634.233
357.694	17.091	842.308	633.897
358.708	17.062	841.674	633.258
359.723	17.066	841.522	633.100
360.738	17.072	840.557	632.342
361.752	17.077	839.907	631.815
362.767	17.127	839.517	631.652
363.781	17.089	839.132	631.164
364.796	17.048	838.455	630.448
365.810	17.148	837.865	630.319
366.825	17.243	837.602	630.417
367.840	17.434	837.240	630.798
368.854	17.339	836.244	629.639
369.869	17.148	836.177	628.829
370.883	17.178	835.840	628.627
371.898	17.371	835.486	629.020
372.913	17.284	835.017	628.291
373.927	17.310	834.314	627.804
374.942	17.333	833.991	627.588
375.956	17.387	833.424	627.307
376.971	17.480	832.722	627.065
377.986	17.419	832.453	626.582
379.000	17.447	832.114	626.374
380.015	17.572	831.695	626.464
381.029	17.476	831.071	625.583
382.044	17.509	830.415	625.155
383.059	17.565	829.801	624.844
384.073	17.551	829.232	624.310
385.088	17.575	828.418	623.728
386.102	17.444	828.307	623.111
387.117	17.716	827.421	623.382
388.132	17.455	826.903	621.985
389.146	17.463	826.549	621.691
390.161	17.607	826.150	621.862
391.175	17.557	825.834	621.388
392.190	17.647	825.270	621.236
393.205	17.615	824.593	620.555
394.219	17.623	824.336	620.334
395.234	17.630	823.644	619.786
396.248	17.662	823.154	619.478
397.263	17.524	823.215	618.969
398.278	17.545	822.865	618.727
399.292	17.658	822.212	618.590
400.307	17.591	821.930	618.080
401.321	17.601	821.370	617.642
402.336	17.580	820.972	617.211
403.350	17.781	820.377	617.437
404.365	17.754	819.689	616.766
405.380	17.788	819.392	616.613
406.394	17.818	818.672	616.125
407.409	17.838	818.277	615.845
408.423	17.828	818.222	615.712
409.438	17.945	817.570	615.588
410.453	17.997	817.064	615.341
411.467	18.009	816.373	614.810
412.482	18.143	816.092	615.024
413.496	18.033	815.718	614.292
414.511	18.004	815.623	614.063
415.526	17.962	815.150	613.502
416.540	17.967	814.522	612.993
417.555	18.014	814.272	612.920
418.569	18.045	813.750	612.582
419.584	18.119	813.421	612.547
420.599	18.149	812.377	611.813
421.613	111.077	1294.360	1471.655
422.628	96.024	1364.559	1471.753
