DTS Sentinel unit serial number:	SN413079Multiplexer serial number:	ORYXHardware model number:	OX4-SRSoftware version number:	ORYX F/W v4.00 Oryx Data Collector v3.7.2.0data status	okinstallation	princeton_trtdifferential loss correction	single-endedforward channel	channel 1reverse channel	N/Adate	2019/09/11time	18:12:11forward acquisition time	60.00reverse acquisition time	0.00gamma	496.2192k internal	0.2290k external	0.2290temperature offset calibration	0.9997default loss term (dB/km)	0.3790temperature slope calibration	1.0000multiplexer offset coefficient	1.0000multiplexer slope coefficient	1.0000fibre end	0.00T internal ref (°C)	44.00T ext. ref 1 (°C)	1.14T ext. ref 2 (°C)	38.73length (m)	temperature (°C)	Stokes	anti-Stokes-747.200	598.545	0.053	0.134
-746.185	99.961	0.080	0.095
-745.171	-200.000	0.045	-0.233
-744.156	159.273	-0.128	0.182
-743.142	159.392	0.066	-0.095
-742.127	102.312	0.013	-0.015
-741.112	-200.000	0.045	0.265
-740.098	-200.000	0.068	0.620
-739.083	18.004	0.197	-0.161
-738.069	39.777	-0.227	0.208
-737.054	84.905	-0.184	-0.207
-736.039	800.000	0.007	0.026
-735.025	-107.922	0.306	-0.068
-734.010	-45.340	-0.333	0.169
-732.996	3.961	-0.168	-0.126
-731.981	684.367	-0.053	-0.141
-730.966	-11.591	-0.091	-0.061
-729.952	-200.000	-0.022	-0.330
-728.937	18.715	-0.242	-0.198
-727.923	67.967	0.096	-0.101
-726.908	194.191	0.093	-0.144
-725.894	-83.151	0.088	0.029
-724.879	82.833	0.361	-0.402
-723.864	206.937	0.128	-0.205
-722.850	96.140	-0.159	-0.186
-721.835	800.000	-0.085	-0.257
-720.821	-0.384	-0.009	0.007
-719.806	145.549	-0.207	-0.283
-718.791	4.195	0.102	0.077
-717.777	800.000	-0.071	0.206
-716.762	-200.000	-0.010	-0.306
-715.748	517.410	-0.100	-0.239
-714.733	-200.000	0.012	-0.175
-713.718	32.195	0.275	-0.243
-712.704	-93.011	-0.096	0.027
-711.689	-41.537	0.117	0.061
-710.675	344.643	-0.196	0.394
-709.660	-158.583	-0.110	0.006
-708.645	57.031	-0.170	-0.169
-707.631	130.575	0.063	0.082
-706.616	-156.836	-0.108	-0.007
-705.602	5.328	-0.257	-0.194
-704.587	-73.766	-0.291	0.108
-703.572	503.295	-0.068	0.161
-702.558	39.390	-0.225	-0.206
-701.543	203.079	0.086	-0.137
-700.529	-157.213	-0.488	-0.030
-699.514	159.720	-0.120	0.170
-698.499	277.838	0.074	-0.135
-697.485	75.264	-0.133	0.144
-696.470	89.228	0.097	0.111
-695.456	277.818	-0.007	0.014
-694.441	668.120	-0.061	-0.163
-693.426	-67.536	-0.229	-0.092
-692.412	-200.000	-0.066	0.712
-691.397	275.059	-0.134	-0.244
-690.383	296.606	-0.113	-0.212
-689.368	370.956	-0.050	-0.103
-688.354	-88.149	-0.318	-0.098
-687.339	24.210	0.165	-0.139
-686.324	43.161	-0.129	-0.120
-685.310	329.812	-0.080	0.157
-684.295	-117.094	0.115	0.021
-683.281	-70.668	-0.222	-0.086
-682.266	117.189	0.179	-0.225
-681.251	-28.341	0.170	-0.100
-680.237	192.606	0.283	-0.437
-679.222	138.554	0.115	-0.154
-678.208	-1.882	-0.261	-0.188
-677.193	328.559	0.083	-0.162
-676.178	800.000	-0.037	-0.125
-675.164	-146.348	0.080	-0.007
-674.149	800.000	-0.048	-0.170
-673.135	69.817	-0.160	0.169
-672.120	76.565	0.169	0.183
-671.105	354.806	0.121	-0.247
-670.091	-70.399	0.162	0.063
-669.076	800.000	0.081	0.332
-668.062	161.882	0.182	-0.260
-667.047	-200.000	-0.059	-0.320
-666.032	-55.008	-0.137	0.063
-665.018	39.393	-0.230	-0.210
-664.003	-18.538	-0.109	0.069
-662.989	-28.951	-0.224	0.131
-661.974	-47.165	0.208	-0.103
-660.959	94.767	-0.129	-0.150
-659.945	118.086	0.217	-0.273
-658.930	-32.738	0.212	0.121
-657.916	-83.120	0.220	0.072
-656.901	-78.607	0.032	-0.011
-655.886	-200.000	0.028	-0.157
-654.872	43.929	0.099	-0.093
-653.857	-39.652	-0.596	0.318
-652.843	-117.735	-0.019	0.004
-651.828	-106.876	-0.298	0.067
-650.814	-151.128	-0.278	-0.021
-649.799	462.305	-0.105	0.240
-648.784	-61.668	-0.198	-0.085
-647.770	-145.324	0.201	-0.019
-646.755	-80.499	-0.189	-0.064
-645.741	-200.000	-0.033	0.232
-644.726	-52.309	-0.236	0.111
-643.711	-86.501	0.116	-0.036
-642.697	-134.569	-0.052	0.006
-641.682	16.260	-0.074	-0.060
-640.668	-151.502	-0.325	0.025
-639.653	49.187	-0.037	-0.035
-638.638	-141.110	-0.074	0.008
-637.624	99.602	0.184	-0.217
-636.609	-23.699	-0.153	0.093
-635.595	-19.129	-0.139	0.088
-634.580	-30.552	-0.209	-0.121
-633.565	13.145	-0.134	0.106
-632.551	33.303	0.169	0.149
-631.536	45.363	0.103	-0.097
-630.522	800.000	-0.054	-0.191
-629.507	-93.361	0.267	-0.075
-628.492	-200.000	-0.013	0.138
-627.478	174.708	-0.096	0.142
-626.463	61.177	0.125	-0.126
-625.449	-107.426	0.088	-0.020
-624.434	-200.000	-0.047	0.247
-623.419	113.445	-0.256	0.317
-622.405	459.647	0.133	-0.303
-621.390	800.000	-0.072	-0.209
-620.376	40.933	0.050	0.046
-619.361	17.917	0.065	0.052
-618.346	357.712	0.220	-0.447
-617.332	-107.867	-0.259	0.057
-616.317	58.506	-0.210	0.210
-615.303	-200.000	0.008	-0.092
-614.288	-200.000	-0.081	0.580
-613.273	52.045	0.136	0.132
-612.259	138.903	-0.211	0.282
-611.244	98.135	-0.097	-0.113
-610.230	-196.026	0.306	0.002
-609.215	-90.452	-0.100	0.029
-608.201	89.984	0.062	-0.070
-607.186	-200.000	0.007	0.099
-606.171	-99.220	-0.347	-0.089
-605.157	-8.279	0.159	-0.109
-604.142	447.055	-0.015	0.034
-603.128	-61.096	0.082	0.035
-602.113	49.863	0.221	0.212
-601.098	-54.465	-0.200	0.092
-600.084	-200.000	-0.011	0.065
-599.069	-90.819	-0.238	0.070
-598.055	-13.805	0.079	0.052
-597.040	-200.000	0.020	0.167
-596.025	800.000	-0.021	-0.073
-595.011	175.259	0.042	-0.063
-593.996	-149.886	-0.048	0.004
-592.982	233.876	0.094	-0.157
-591.967	800.000	0.064	0.207
-590.952	-200.000	-0.011	-0.077
-589.938	-151.113	0.300	0.023
-588.923	-200.000	0.024	-0.146
-587.909	412.583	-0.006	0.014
-586.894	157.566	0.141	-0.199
-585.879	800.000	-0.080	0.239
-584.865	-132.150	0.211	-0.028
-583.850	170.530	0.140	0.204
-582.836	-5.888	0.221	-0.154
-581.821	79.041	0.136	0.148
-580.806	172.603	0.139	0.203
-579.792	576.725	-0.061	-0.152
-578.777	-200.000	-0.052	-0.286
-577.763	81.421	0.220	-0.243
-576.748	37.925	-0.354	-0.320
-575.733	73.905	-0.203	-0.217
-574.719	-200.000	-0.052	0.251
-573.704	32.424	-0.193	0.170
-572.690	100.228	-0.073	0.087
-571.675	-145.994	0.241	-0.022
-570.661	800.000	-0.030	-0.095
-569.646	-200.000	-0.006	-0.118
-568.631	-56.426	-0.211	0.095
-567.617	126.286	0.128	0.165
-566.602	394.649	-0.101	0.215
-565.588	-200.000	0.053	-0.266
-564.573	328.113	-0.151	-0.295
-563.558	-200.000	-0.014	0.102
-562.544	800.000	0.121	-0.437
-561.529	800.000	-0.086	-0.252
-560.515	800.000	0.096	0.292
-559.500	636.577	-0.054	0.138
-558.485	-124.953	-0.258	0.040
-557.471	800.000	-0.014	-0.051
-556.456	-25.487	0.075	0.045
-555.442	800.000	0.126	0.394
-554.427	800.000	-0.062	0.204
-553.412	-129.884	-0.203	0.028
-552.398	-144.976	0.279	0.026
-551.383	314.865	-0.114	0.219
-550.369	-200.000	-0.043	-0.287
-549.354	-200.000	-0.071	-0.327
-548.339	395.393	-0.173	0.367
-547.325	-187.431	0.193	0.003
-546.310	-200.000	-0.010	0.104
-545.296	52.416	0.115	-0.112
-544.281	-200.000	0.012	-0.158
-543.266	95.520	-0.206	-0.239
-542.252	-200.000	-0.023	-0.155
-541.237	-87.643	0.113	0.035
-540.223	245.635	-0.091	0.155
-539.208	9.811	-0.309	-0.238
-538.193	-35.569	0.613	-0.338
-537.179	349.400	-0.081	-0.163
-536.164	-200.000	0.007	0.069
-535.150	-146.644	0.187	-0.017
-534.135	104.168	-0.230	-0.275
-533.121	-200.000	0.008	-0.034
-532.106	800.000	0.072	-0.218
-531.091	109.207	0.026	-0.032
-530.077	800.000	0.059	-0.177
-529.062	224.826	0.239	-0.393
-528.048	-200.000	-0.015	-0.137
-527.033	222.315	-0.078	0.128
-526.018	800.000	-0.103	0.450
-525.004	-165.779	0.128	0.006
-523.989	-27.186	-0.211	0.125
-522.975	-25.921	-0.057	-0.034
-521.960	-65.035	-0.085	0.035
-520.945	-5.412	0.146	0.102
-519.931	85.908	-0.208	0.233
-518.916	-58.794	-0.127	0.056
-517.902	-200.000	0.053	0.260
-516.887	18.748	-0.252	-0.205
-515.872	105.024	-0.123	0.148
-514.858	-113.538	0.144	0.029
-513.843	25.514	0.230	-0.194
-512.829	800.000	0.023	-0.072
-511.814	-91.208	-0.157	0.046
-510.799	-104.799	-0.322	0.075
-509.785	-121.603	0.290	0.049
-508.770	-123.538	-0.203	-0.033
-507.756	800.000	0.086	-0.315
-506.741	-200.000	0.007	0.128
-505.726	247.725	0.085	0.145
-504.712	-200.000	0.001	0.142
-503.697	-102.434	0.109	-0.026
-502.683	-96.803	-0.343	0.091
-501.668	-12.968	-0.248	-0.164
-500.653	-36.240	0.077	0.042
-499.639	669.843	0.096	-0.252
-498.624	60.415	0.077	0.077
-497.610	-123.823	0.106	-0.017
-496.595	168.348	0.233	-0.337
-495.581	346.896	0.042	-0.083
-494.566	7.260	-0.207	0.156
-493.551	-16.011	-0.184	0.119
-492.537	12.737	-0.259	0.203
-491.522	-61.050	0.192	-0.082
-490.508	-74.779	-0.294	-0.107
-489.493	-65.654	0.225	0.092
-488.478	-117.817	0.295	-0.054
-487.464	-200.000	0.007	0.149
-486.449	-121.940	0.100	0.017
-485.435	-147.235	-0.164	0.014
-484.420	142.148	0.129	-0.173
-483.405	800.000	0.076	-0.261
-482.391	-158.459	-0.308	0.018
-481.376	-111.960	0.394	-0.081
-480.362	-11.962	0.201	0.134
-479.347	-109.758	-0.311	-0.066
-478.332	800.000	-0.051	0.150
-477.318	800.000	0.052	-0.148
-476.303	92.962	0.115	0.131
-475.289	-200.000	-0.012	-0.292
-474.274	51.955	0.033	0.032
-473.259	780.845	-0.057	-0.157
-472.245	54.830	-0.171	-0.167
-471.230	15.910	0.133	0.106
-470.216	-17.622	0.063	0.040
-469.201	-41.839	0.324	-0.168
-468.186	800.000	0.094	0.267
-467.172	-104.986	0.065	0.015
-466.157	303.728	-0.082	-0.155
-465.143	55.063	-0.112	0.110
-464.128	-66.486	-0.169	0.068
-463.113	55.541	0.102	-0.100
-462.099	144.044	0.294	0.397
-461.084	8.153	-0.218	0.166
-460.070	-200.000	0.009	0.131
-459.055	156.904	-0.129	-0.180
-458.040	-170.352	-0.181	-0.006
-457.026	433.273	0.073	-0.160
-456.011	-130.122	0.181	-0.025
-454.997	168.743	-0.071	-0.102
-453.982	4.239	0.240	-0.178
-452.968	45.038	-0.268	-0.250
-451.953	-90.789	0.073	-0.021
-450.938	37.831	-0.058	-0.052
-449.924	800.000	0.012	-0.038
-448.909	-71.806	0.059	0.022
-447.895	-59.994	0.161	-0.070
-446.880	-185.156	-0.356	-0.006
-445.865	119.884	0.080	-0.101
-444.851	-133.882	-0.164	-0.021
-443.836	-145.909	0.039	0.004
-442.822	96.375	-0.053	-0.062
-441.807	555.827	-0.074	-0.181
-440.792	378.056	-0.071	-0.148
-439.778	-87.856	-0.070	-0.021
-438.763	-187.542	-0.031	-0.000
-437.749	-74.565	-0.356	0.130
-436.734	153.182	0.063	0.088
-435.719	39.927	0.024	0.022
-434.705	-2.445	-0.174	0.123
-433.690	-66.333	0.107	-0.043
-432.676	-122.399	0.207	-0.034
-431.661	-2.910	0.106	-0.075
-430.646	-23.471	0.186	-0.113
-429.632	-95.693	-0.088	0.024
-428.617	800.000	-0.051	-0.143
-427.603	-122.899	0.276	0.045
-426.588	-5.859	0.124	-0.086
-425.573	-88.957	-0.075	0.023
-424.559	-159.899	-0.235	-0.013
-423.544	23.614	-0.117	0.097
-422.530	800.000	0.053	-0.178
-421.515	384.003	0.100	0.208
-420.500	87.569	0.185	0.207
-419.486	800.000	-0.021	0.083
-418.471	578.732	-0.051	0.125
-417.457	-172.512	-0.405	-0.013
-416.442	26.096	-0.083	-0.070
-415.428	66.164	0.161	-0.165
-414.413	137.304	-0.036	0.048
-413.398	-200.000	-0.015	0.263
-412.384	175.389	0.239	0.351
-411.369	-24.564	-0.347	0.209
-410.355	-56.674	0.235	0.105
-409.340	-200.000	0.034	-0.172
-408.325	-81.989	-0.128	0.042
-407.311	-18.743	-0.263	0.166
-406.296	187.115	0.070	0.105
-405.282	355.726	0.150	-0.301
-404.267	-200.000	-0.029	-0.569
-403.252	127.813	0.241	-0.309
-402.238	-200.000	0.007	-0.127
-401.223	84.028	-0.121	-0.134
-400.209	175.751	0.020	-0.029
-399.194	343.833	0.220	-0.435
-398.179	800.000	0.071	-0.238
-397.165	228.151	0.108	-0.177
-396.150	306.149	-0.040	-0.075
-395.136	51.766	-0.081	-0.078
-394.121	-200.000	0.025	-0.259
-393.106	397.258	0.156	-0.329
-392.092	-200.000	-0.008	-0.064
-391.077	-57.621	-0.244	0.108
-390.063	-92.507	-0.081	0.023
-389.048	-200.000	-0.023	0.137
-388.033	-94.533	0.289	0.080
-387.019	63.375	-0.192	-0.195
-386.004	-24.818	-0.046	-0.027
-384.990	-51.124	0.121	-0.057
-383.975	-68.134	0.194	-0.076
-382.960	10.702	-0.116	0.090
-381.946	-41.211	0.200	0.104
-380.931	-200.000	0.005	-0.131
-379.917	-200.000	0.019	-0.101
-378.902	-2.816	0.175	-0.124
-377.888	-200.000	-0.021	-0.128
-376.873	-200.000	-0.071	0.470
-375.858	-99.564	-0.376	0.096
-374.844	800.000	-0.030	-0.126
-373.829	158.741	0.040	-0.056
-372.815	26.709	-0.208	0.176
-371.800	62.509	0.212	0.214
-370.785	276.481	0.211	0.379
-369.771	383.407	-0.100	-0.207
-368.756	40.639	0.061	-0.056
-367.742	4.669	0.302	0.224
-366.727	800.000	0.088	-0.319
-365.712	-111.597	0.340	0.070
-364.698	-40.041	0.181	-0.095
-363.683	800.000	-0.029	0.087
-362.669	-50.732	0.068	0.032
-361.654	539.471	0.061	0.146
-360.639	-70.282	0.130	-0.050
-359.625	-103.965	0.230	-0.054
-358.610	134.864	-0.115	-0.151
-357.596	80.377	0.162	-0.176
-356.581	739.864	-0.075	-0.203
-355.566	168.551	0.077	-0.111
-354.552	-200.000	0.009	0.177
-353.537	-102.557	-0.398	-0.096
-352.523	800.000	-0.028	-0.098
-351.508	46.203	0.302	-0.282
-350.493	364.115	-0.085	-0.173
-349.479	-157.523	0.353	-0.021
-348.464	-200.000	-0.042	0.202
-347.450	-124.429	0.226	0.036
-346.435	118.563	0.072	0.090
-345.420	-126.432	-0.417	-0.063
-344.406	602.541	0.174	0.435
-343.391	-153.099	-0.140	-0.010
-342.377	4.987	-0.104	-0.077
-341.362	-91.815	0.197	-0.056
-340.348	-60.726	0.244	-0.104
-339.333	-120.076	-0.295	-0.051
-338.318	380.804	0.125	0.259
-337.304	800.000	0.099	0.311
-336.289	-62.606	-0.093	-0.039
-335.275	-85.515	-0.363	0.114
-334.260	33.711	0.275	-0.241
-333.245	169.043	-0.080	0.115
-332.231	59.082	-0.156	0.155
-331.216	800.000	-0.026	-0.093
-330.202	93.625	0.263	0.300
-329.187	-40.903	-0.311	0.162
-328.172	-69.258	0.061	-0.023
-327.158	-200.000	0.004	0.062
-326.143	7.109	0.141	-0.106
-325.129	354.499	-0.287	0.575
-324.114	93.063	-0.262	0.299
-323.099	-200.000	-0.029	0.257
-322.085	-161.372	0.361	0.019
-321.070	800.000	-0.062	0.194
-320.056	-33.658	-0.171	0.095
-319.041	-70.024	-0.379	-0.145
-318.026	-137.887	0.413	-0.047
-317.012	800.000	-0.046	-0.160
-315.997	800.000	0.049	-0.189
-314.983	-123.779	-0.475	-0.076
-313.968	800.000	-0.056	-0.168
-312.953	-19.037	0.202	-0.126
-311.939	-200.000	-0.029	0.324
-310.924	-41.086	-0.228	-0.119
-309.910	-140.661	0.198	-0.021
-308.895	-123.580	0.069	-0.011
-307.880	800.000	0.103	0.331
-306.866	800.000	-0.032	0.115
-305.851	-111.000	0.313	-0.065
-304.837	-200.000	-0.002	-0.257
-303.822	800.000	-0.092	0.291
-302.807	-156.842	-0.444	0.027
-301.793	-200.000	-0.013	0.203
-300.778	317.030	-0.053	0.102
-299.764	-200.000	-0.004	0.365
-298.749	-136.785	-0.366	-0.042
-297.735	165.417	0.068	-0.097
-296.720	-200.000	0.059	0.261
-295.705	-200.000	0.001	0.055
-294.691	-81.955	-0.249	-0.082
-293.676	512.176	0.101	0.237
-292.662	-114.065	-0.153	0.030
-291.647	319.798	0.096	0.183
-290.632	367.864	0.078	0.158
-289.618	-78.829	-0.482	-0.165
-288.603	-98.186	0.284	0.073
-287.589	378.484	-0.093	0.192
-286.574	800.000	0.124	0.347
-285.559	-200.000	-0.007	-0.101
-284.545	-200.000	0.003	-0.276
-283.530	800.000	0.062	-0.250
-282.516	88.558	-0.054	0.061
-281.501	-58.769	-0.145	0.063
-280.486	-101.769	-0.190	-0.046
-279.472	-49.656	-0.214	-0.102
-278.457	-52.473	0.373	-0.174
-277.443	-123.920	0.179	-0.028
-276.428	-33.990	0.169	0.093
-275.413	28.367	-0.330	-0.280
-274.399	-200.000	0.017	0.153
-273.384	-200.000	0.011	-0.098
-272.370	-42.497	-0.069	-0.035
-271.355	800.000	0.058	0.194
-270.340	-7.109	0.151	0.103
-269.326	-200.000	-0.039	0.336
-268.311	-117.832	-0.302	0.055
-267.297	-74.378	0.199	0.072
-266.282	673.327	0.065	0.170
-265.267	224.858	-0.143	0.233
-264.253	800.000	0.040	0.139
-263.238	-137.601	-0.091	-0.010
-262.224	-200.000	0.006	0.204
-261.209	-200.000	0.011	0.168
-260.195	-200.000	-0.042	0.284
-259.180	250.902	-0.190	0.325
-258.165	252.550	0.170	-0.292
-257.151	108.022	0.144	-0.172
-256.136	-200.000	0.003	0.049
-255.122	800.000	-0.062	-0.181
-254.107	353.627	-0.095	-0.189
-253.092	-200.000	0.009	0.091
-252.078	-45.500	-0.061	0.030
-251.063	126.013	-0.059	-0.075
-250.049	-167.670	0.238	-0.009
-249.034	-22.935	0.104	-0.063
-248.019	-23.365	0.205	0.124
-247.005	800.000	-0.075	-0.208
-245.990	-48.827	-0.118	0.057
-244.976	800.000	0.058	-0.244
-243.961	142.036	-0.140	-0.186
-242.946	-79.065	0.341	-0.116
-241.932	-122.743	0.116	-0.019
-240.917	-96.055	0.377	-0.101
-239.903	84.367	0.151	0.166
-238.888	-99.447	-0.152	-0.038
-237.873	-30.444	-0.151	0.086
-236.859	-200.000	0.031	0.251
-235.844	800.000	0.050	0.186
-234.830	-200.000	0.036	-0.286
-233.815	-56.145	0.208	-0.093
-232.800	-200.000	0.046	0.290
-231.786	328.805	-0.168	-0.324
-230.771	197.774	-0.073	-0.113
-229.757	-200.000	0.098	-0.000
-228.742	3.270	0.187	-0.137
-227.727	582.583	-0.053	-0.132
-226.713	800.000	-0.038	-0.145
-225.698	140.517	0.098	-0.130
-224.684	75.476	0.191	-0.203
-223.669	289.031	-0.065	0.118
-222.655	-111.604	-0.139	-0.028
-221.640	-47.982	0.140	0.068
-220.625	-200.000	0.014	-0.306
-219.611	366.252	0.021	0.042
-218.596	592.989	-0.131	-0.324
-217.582	150.185	0.035	-0.047
-216.567	-124.174	-0.322	-0.051
-215.552	-105.771	0.295	-0.067
-214.538	-200.000	0.071	0.324
-213.523	-114.361	0.269	0.052
-212.509	282.792	0.121	-0.218
-211.494	315.408	0.181	0.342
-210.479	-39.116	-0.284	-0.150
-209.465	800.000	-0.083	-0.243
-208.450	21.245	-0.060	-0.049
-207.436	523.112	0.047	0.110
-206.421	23.123	-0.088	-0.072
-205.406	119.796	-0.053	-0.066
-204.392	-112.256	-0.205	-0.041
-203.377	-62.008	-0.297	-0.125
-202.363	-174.677	-0.252	-0.007
-201.348	11.395	0.077	-0.059
-200.333	355.706	-0.074	0.147
-199.319	44.056	-0.397	0.365
-198.304	-200.000	0.047	0.307
-197.290	-38.796	0.058	0.031
-196.275	20.866	-0.249	0.202
-195.260	22.242	0.183	0.150
-194.246	110.629	0.066	0.079
-193.231	-200.000	-0.006	0.149
-192.217	-200.000	0.036	-0.251
-191.202	107.002	-0.196	0.233
-190.187	-118.524	-0.055	-0.010
-189.173	254.136	0.066	-0.114
-188.158	166.825	-0.143	-0.203
-187.144	-200.000	0.006	-0.243
-186.129	-30.102	-0.106	-0.060
-185.114	-200.000	-0.022	-0.200
-184.100	-200.000	0.060	-0.268
-183.085	369.217	0.060	0.122
-182.071	-200.000	-0.012	-0.299
-181.056	-200.000	-0.023	-0.165
-180.042	-33.085	0.232	0.129
-179.027	762.194	-0.121	0.330
-178.012	149.815	-0.050	-0.068
-176.998	800.000	-0.012	0.033
-175.983	-97.369	0.169	0.044
-174.969	-200.000	0.002	0.267
-173.954	-44.574	0.209	-0.105
-172.939	159.711	0.088	0.123
-171.925	-200.000	-0.007	-0.095
-170.910	238.276	0.085	-0.141
-169.896	-57.534	0.225	0.099
-168.881	99.165	0.054	-0.062
-167.866	-200.000	0.079	0.356
-166.852	48.182	0.342	0.320
-165.837	228.312	-0.087	0.143
-164.823	800.000	-0.080	0.298
-163.808	-96.875	-0.103	-0.027
-162.793	438.672	-0.129	-0.282
-161.779	-10.640	0.059	0.039
-160.764	44.534	-0.230	0.212
-159.750	-71.928	-0.062	-0.023
-158.735	-71.133	0.329	-0.124
-157.720	-200.000	0.002	0.160
-156.706	20.590	-0.293	0.237
-155.691	388.572	-0.044	-0.092
-154.677	-159.247	0.272	-0.015
-153.662	800.000	0.112	-0.318
-152.647	-21.957	0.132	-0.080
-151.633	-58.739	0.263	-0.114
-150.618	800.000	0.075	0.308
-149.604	112.896	-0.078	0.095
-148.589	-0.933	-0.102	0.072
-147.574	97.463	0.133	0.153
-146.560	45.451	-0.206	0.190
-145.545	-63.585	0.135	0.055
-144.531	-200.000	0.002	0.066
-143.516	-200.000	0.017	0.415
-142.502	351.611	-0.086	0.171
-141.487	800.000	-0.041	0.180
-140.472	-3.658	0.283	0.197
-139.458	-19.142	0.251	0.156
-138.443	-36.466	0.341	0.184
-137.429	332.964	0.114	0.220
-136.414	-200.000	-0.042	0.289
-135.399	800.000	-0.097	0.320
-134.385	-141.779	0.332	0.033
-133.370	-68.017	-0.319	0.125
-132.356	-134.651	0.401	-0.049
-131.341	287.132	-0.039	-0.070
-130.326	449.262	-0.120	-0.265
-129.312	4.051	-0.288	0.211
-128.297	7.409	0.137	0.103
-127.283	-200.000	-0.033	0.217
-126.268	-43.570	0.171	0.086
-125.253	-21.147	-0.302	0.185
-124.239	213.590	-0.078	-0.123
-123.224	-131.365	-0.184	-0.024
-122.210	800.000	0.094	0.405
-121.195	-73.446	0.124	0.045
-120.180	146.509	0.085	0.114
-119.166	193.024	0.145	0.219
-118.151	6.999	-0.223	-0.166
-117.137	-107.702	0.181	-0.039
-116.122	21.277	-0.199	-0.162
-115.107	425.511	-0.083	0.178
-114.093	85.607	-0.162	-0.177
-113.078	244.317	-0.079	-0.133
-112.064	-200.000	-0.003	0.051
-111.049	182.499	-0.285	0.419
-110.034	-122.173	0.357	-0.058
-109.020	-200.000	0.024	-0.252
-108.005	-81.142	-0.205	0.068
-106.991	-40.370	0.226	0.118
-105.976	317.013	-0.043	-0.081
-104.962	800.000	0.014	0.046
-103.947	-200.000	-0.024	-0.170
-102.932	338.960	-0.122	-0.238
-101.918	-90.245	0.042	0.012
-100.903	110.521	0.113	-0.136
-99.889	48.883	-0.071	0.067
-98.874	-153.741	0.369	-0.025
-97.859	-77.676	-0.219	-0.076
-96.845	-179.612	-0.234	-0.005
-95.830	-129.376	0.389	0.054
-94.816	-167.901	-0.223	0.009
-93.801	-147.002	-0.173	-0.015
-92.786	-114.399	-0.134	0.026
-91.772	-64.233	0.089	-0.036
-90.757	343.899	-0.096	-0.189
-89.743	-68.141	-0.219	0.085
-88.728	-93.787	0.195	0.054
-87.713	345.724	-0.078	0.153
-86.699	122.592	0.197	0.246
-85.684	800.000	0.071	-0.213
-84.670	-200.000	-0.006	-0.192
-83.655	-175.425	-0.104	0.003
-82.640	-141.163	0.197	-0.020
-81.626	-51.866	-0.187	0.087
-80.611	68.921	0.016	-0.016
-79.597	272.811	0.215	0.378
-78.582	-55.518	0.211	0.094
-77.567	14.636	-0.405	0.316
-76.553	-166.868	-0.305	-0.013
-75.538	800.000	0.054	-0.198
-74.524	-28.598	0.277	0.159
-73.509	-6.252	0.085	-0.058
-72.494	-63.320	0.239	0.098
-71.480	800.000	0.148	0.483
-70.465	-8.304	-0.144	0.097
-69.451	-200.000	0.009	0.054
-68.436	-200.000	-0.015	0.292
-67.422	-200.000	0.061	0.309
-66.407	-200.000	-0.061	-0.274
-65.392	800.000	0.017	0.051
-64.378	46.487	0.164	-0.151
-63.363	-200.000	-0.036	0.239
-62.349	-200.000	-0.054	0.481
-61.334	108.429	-0.584	-0.695
-60.319	84.860	0.172	0.188
-59.305	-200.000	0.118	-0.816
-58.290	47.094	0.423	0.393
-57.276	800.000	0.516	1.510
-56.261	-200.000	70.709	524.585
-55.246	608.338	1267.543	3153.821
-54.232	148.026	2487.741	3345.537
-53.217	123.492	2223.135	2779.459
-52.203	57.177	1668.486	1622.648
-51.188	48.348	1385.135	1292.589
-50.173	44.421	1336.722	1223.779
-49.159	61.663	1368.186	1357.489
-48.144	70.549	1387.626	1430.496
-47.130	48.422	1351.051	1261.030
-46.115	44.164	1334.691	1220.179
-45.100	44.014	1329.642	1214.616
-44.086	43.890	1327.127	1211.533
-43.071	43.916	1324.660	1209.385
-42.057	43.874	1322.907	1207.487
-41.042	43.837	1321.331	1205.782
-40.027	43.820	1319.983	1204.399
-39.013	43.736	1318.359	1202.374
-37.998	43.876	1316.194	1201.183
-36.984	43.976	1314.419	1200.105
-35.969	43.956	1312.741	1198.406
-34.954	44.156	1310.770	1197.743
-33.940	44.040	1309.297	1195.663
-32.925	44.143	1307.852	1194.901
-31.911	44.155	1306.280	1193.488
-30.896	44.022	1304.954	1191.449
-29.881	44.111	1303.128	1190.255
-28.867	44.125	1302.477	1189.696
-27.852	44.219	1300.247	1188.165
-26.838	44.176	1298.887	1186.622
-25.823	44.078	1297.688	1184.907
-24.809	44.110	1296.246	1183.734
-23.794	44.159	1295.006	1182.839
-22.779	44.089	1293.589	1181.086
-21.765	43.998	1292.488	1179.506
-20.750	44.038	1291.138	1178.458
-19.736	43.900	1289.527	1176.141
-18.721	43.966	1288.054	1175.136
-17.706	43.973	1287.490	1174.612
-16.692	43.968	1285.723	1172.925
-15.677	43.978	1284.897	1172.181
-14.663	43.885	1283.974	1170.756
-13.648	43.933	1283.142	1170.233
-12.633	43.903	1281.720	1168.713
-11.619	43.955	1280.749	1168.082
-10.604	44.056	1279.792	1167.747
-9.590	43.896	1279.114	1166.160
-8.575	43.910	1278.111	1165.281
-7.560	43.928	1276.906	1164.237
-6.546	43.883	1276.295	1163.376
-5.531	43.964	1275.254	1162.844
-4.517	43.940	1274.027	1161.542
-3.502	44.013	1273.464	1161.402
-2.487	43.990	1272.304	1160.168
-1.473	43.967	1268.916	1156.897
-0.458	42.903	1253.830	1137.093
0.556	38.106	1232.689	1093.135
1.571	33.393	1234.218	1067.900
2.586	31.813	1248.629	1071.249
3.600	30.237	1238.637	1053.639
4.615	21.657	1160.737	941.389
5.629	8.013	1075.425	803.718
6.644	1.604	1049.627	752.734
7.659	1.182	1046.545	748.375
8.673	0.966	1045.245	746.316
9.688	0.830	1044.201	744.836
10.702	1.219	1043.520	746.197
11.717	8.753	1054.354	791.210
12.731	19.620	1069.350	856.568
13.746	23.667	1073.562	879.967
14.761	23.731	1073.132	879.855
15.775	23.783	1072.741	879.715
16.790	23.377	1072.195	877.180
17.804	23.357	1071.184	876.175
18.819	23.392	1071.258	876.331
19.834	23.537	1070.483	876.335
20.848	23.505	1070.240	875.903
21.863	23.364	1069.770	874.745
22.877	23.482	1068.693	874.370
23.892	23.311	1068.267	873.100
24.907	23.556	1067.187	873.347
25.921	23.337	1066.795	871.871
26.936	23.330	1065.273	870.517
27.950	23.366	1063.694	869.325
28.965	23.250	1061.654	867.012
29.980	23.420	1060.124	866.517
30.994	23.642	1059.251	866.811
32.009	23.588	1058.129	865.554
33.023	23.402	1056.873	863.541
34.038	23.322	1056.640	862.884
35.053	23.412	1055.915	862.657
36.067	23.593	1054.812	862.556
37.082	23.513	1053.858	861.311
38.096	23.650	1053.865	861.908
39.111	23.740	1053.050	861.601
40.126	23.609	1051.153	859.340
41.140	23.409	1049.626	857.048
42.155	23.044	1048.136	853.990
43.169	23.118	1047.088	853.421
44.184	23.218	1046.143	853.055
45.199	22.992	1045.340	851.235
46.213	23.049	1044.231	850.533
47.228	23.267	1044.103	851.404
48.242	23.385	1042.882	850.899
49.257	23.299	1042.666	850.234
50.271	23.505	1041.357	850.077
51.286	23.514	1040.869	849.649
52.301	23.592	1039.471	848.806
53.315	23.466	1038.535	847.363
54.330	23.432	1037.559	846.331
55.344	23.470	1036.901	845.902
56.359	23.467	1035.697	844.828
57.374	23.133	1034.939	842.543
58.388	23.200	1034.290	842.260
59.403	23.239	1032.985	841.309
60.417	23.044	1032.110	839.593
61.432	23.109	1031.562	839.383
62.447	23.230	1031.543	839.870
63.461	23.306	1030.625	839.408
64.476	23.245	1029.322	837.983
65.490	23.243	1028.171	836.960
66.505	23.196	1027.947	836.483
67.520	23.237	1027.145	835.951
68.534	23.058	1025.931	834.044
69.549	22.716	1024.876	831.502
70.563	22.759	1024.165	831.053
71.578	22.693	1023.518	830.142
72.593	22.611	1022.430	828.803
73.607	22.819	1021.838	829.226
74.622	22.978	1021.517	829.637
75.636	23.026	1020.843	829.245
76.651	22.958	1019.499	827.762
77.666	22.912	1019.128	827.171
78.680	22.912	1018.138	826.292
79.695	22.922	1017.754	825.956
80.709	23.151	1016.740	826.127
81.724	23.059	1015.985	825.013
82.739	23.180	1015.148	824.824
83.753	23.411	1015.029	825.733
84.768	23.657	1014.699	826.535
85.782	23.832	1013.705	826.466
86.797	23.688	1012.503	824.743
87.812	23.571	1011.441	823.263
88.826	23.750	1010.296	823.086
89.841	23.782	1009.565	822.568
90.855	23.792	1008.327	821.531
91.870	23.753	1007.442	820.557
92.884	23.606	1006.568	819.095
93.899	23.613	1005.398	818.105
94.914	23.823	1004.609	818.356
95.928	23.619	1003.538	816.472
96.943	23.356	1002.203	814.106
97.957	23.132	1001.235	812.219
98.972	22.934	1000.008	810.246
99.987	23.178	999.388	810.790
101.001	23.396	998.865	811.290
102.016	23.492	997.936	810.902
103.030	23.294	997.179	809.313
104.045	23.189	995.938	807.752
105.060	23.020	995.259	806.360
106.074	23.191	994.653	806.577
107.089	23.582	993.670	807.488
108.103	23.422	992.688	805.892
109.118	23.200	991.143	803.560
110.133	23.223	990.504	803.075
111.147	22.956	989.083	800.642
112.162	22.967	988.133	799.851
113.176	23.103	987.641	799.996
114.191	23.116	986.690	799.216
115.206	22.773	985.833	796.901
116.220	22.756	984.845	795.954
117.235	23.059	983.556	796.206
118.249	23.002	983.107	795.519
119.264	22.956	981.931	794.291
120.279	22.884	981.598	793.627
121.293	23.043	980.460	793.350
122.308	23.070	979.664	792.756
123.322	22.884	978.996	791.312
124.337	22.748	977.653	789.549
125.352	22.358	975.901	786.322
126.366	22.350	974.545	785.122
127.381	22.967	975.207	788.342
128.395	23.373	974.684	789.657
129.410	23.606	973.884	789.977
130.424	23.457	973.189	788.679
131.439	23.458	972.116	787.748
132.454	23.552	971.260	787.398
133.468	23.568	970.388	786.693
134.483	23.505	969.808	785.878
135.497	23.708	968.963	786.021
136.512	23.697	967.996	785.115
137.527	23.613	967.444	784.229
138.541	23.763	966.440	784.007
139.556	23.829	965.776	783.690
140.570	23.930	965.089	783.508
141.585	23.930	963.536	782.177
142.600	23.912	962.926	781.536
143.614	24.048	962.186	781.463
144.629	23.983	961.848	780.834
145.643	23.806	960.504	778.899
146.658	23.813	958.781	777.460
147.673	23.709	957.796	776.142
148.687	23.764	956.600	775.344
149.702	23.497	955.828	773.484
150.716	23.468	955.522	773.041
151.731	23.804	954.516	773.623
152.746	23.868	953.696	773.169
153.760	23.914	953.254	772.940
154.775	23.851	953.144	772.508
155.789	23.894	951.855	771.581
156.804	23.846	950.916	770.543
157.819	23.991	949.871	770.258
158.833	24.137	949.492	770.512
159.848	23.999	948.412	768.973
160.862	23.794	947.589	767.352
161.877	23.728	946.520	766.134
162.892	24.004	945.374	766.329
163.906	23.832	944.145	764.524
164.921	23.824	943.141	763.610
165.935	23.834	942.485	763.054
166.950	23.965	941.497	762.748
167.964	23.899	940.445	761.544
168.979	23.707	939.561	759.939
169.994	23.703	938.520	759.015
171.008	23.854	938.429	759.520
172.023	23.979	937.475	759.212
173.037	23.650	936.659	757.083
174.052	23.541	935.272	755.431
175.067	23.675	934.553	755.354
176.081	23.671	934.287	755.053
177.096	23.632	933.564	754.238
178.110	23.399	932.612	752.412
179.125	23.232	932.044	751.180
180.140	23.294	931.797	751.178
181.154	23.339	931.914	751.394
182.169	23.740	931.490	752.686
183.183	23.871	930.813	752.628
184.198	23.746	929.822	751.230
185.213	23.887	929.006	751.098
186.227	23.809	928.493	750.290
187.242	23.898	927.817	750.050
188.256	23.874	927.068	749.281
189.271	23.865	926.564	748.770
190.286	23.544	925.600	746.573
191.300	22.993	924.014	742.913
192.315	22.334	922.363	738.751
193.329	22.324	921.965	738.325
194.344	23.179	922.319	742.132
195.359	23.715	922.315	744.311
196.373	23.856	921.669	744.314
197.388	23.651	921.275	743.073
198.402	23.725	920.451	742.650
199.417	23.722	919.968	742.184
200.432	23.494	918.627	740.085
201.446	23.284	918.412	738.968
202.461	23.250	917.811	738.276
203.475	22.634	915.889	734.103
204.490	21.688	914.469	728.965
205.504	22.582	914.483	732.630
206.519	23.428	914.565	736.145
207.534	23.427	914.109	735.709
208.548	23.877	914.062	737.474
209.563	23.584	913.131	735.444
210.577	23.520	912.501	734.604
211.592	23.937	912.119	735.959
212.607	23.967	911.462	735.489
213.621	24.142	910.090	735.035
214.636	23.896	909.843	733.759
215.650	23.874	908.955	732.884
216.665	23.878	908.648	732.588
217.680	24.070	907.545	732.427
218.694	23.586	906.462	729.499
219.709	23.430	905.654	728.141
220.723	23.636	905.737	728.990
221.738	23.560	905.074	728.082
222.753	23.748	904.247	728.120
223.767	23.802	903.888	727.988
224.782	24.095	903.337	728.682
225.796	24.040	903.020	728.137
226.811	23.473	901.296	724.365
227.826	22.776	900.115	720.508
228.840	22.898	899.629	720.551
229.855	23.132	899.216	721.111
230.869	22.668	897.841	718.055
231.884	23.049	898.049	719.709
232.899	23.715	898.680	722.863
233.913	23.603	897.879	721.699
234.928	23.621	896.899	720.924
235.942	23.565	896.486	720.300
236.957	23.400	895.318	718.628
237.972	23.324	894.932	717.945
238.986	23.483	894.695	718.336
240.001	23.509	893.894	717.734
241.015	23.545	893.509	717.510
242.030	23.610	892.978	717.283
243.045	23.841	892.157	717.493
244.059	23.969	891.691	717.570
245.074	23.725	890.749	715.766
246.088	23.418	889.830	713.727
247.103	23.650	889.829	714.597
248.117	24.124	889.728	716.358
249.132	24.363	889.574	717.131
250.147	24.378	888.887	716.576
251.161	24.613	888.370	717.040
252.176	24.557	887.762	716.261
253.190	24.802	887.050	716.606
254.205	24.929	886.394	716.518
255.220	24.790	886.134	715.687
256.234	24.593	884.959	713.889
257.249	24.531	884.456	713.175
258.263	24.565	883.961	712.845
259.278	24.692	883.063	712.565
260.293	24.566	883.123	712.050
261.307	24.499	882.451	711.178
262.322	24.393	880.946	709.479
263.336	23.658	879.210	705.101
264.351	22.618	877.244	699.338
265.366	22.749	876.761	699.410
266.380	23.719	877.793	704.020
267.395	24.245	877.619	705.902
268.409	24.379	876.457	705.434
269.424	24.389	876.327	705.307
270.439	24.519	875.506	705.096
271.453	24.509	875.220	704.765
272.468	24.651	874.829	704.946
273.482	24.728	874.356	704.806
274.497	24.331	873.065	702.141
275.512	23.931	872.160	699.778
276.526	24.354	872.612	701.745
277.541	24.489	871.775	701.539
278.555	24.273	871.006	700.010
279.570	24.139	870.268	698.831
280.585	24.417	869.346	699.117
281.599	24.261	868.823	698.024
282.614	23.765	867.836	695.226
283.628	23.848	866.633	694.529
284.643	24.185	866.522	695.691
285.657	23.758	865.895	693.461
286.672	23.535	864.555	691.458
287.687	23.908	864.620	692.903
288.701	24.061	864.409	693.270
289.716	23.774	863.279	691.183
290.730	23.759	862.514	690.453
291.745	23.286	862.103	688.225
292.760	23.743	861.752	689.657
293.774	24.684	862.231	693.633
294.789	25.163	861.719	695.018
295.803	24.960	861.485	693.981
296.818	25.138	860.678	693.956
297.833	24.781	859.284	691.393
298.847	24.601	858.449	689.966
299.862	24.847	858.219	690.666
300.876	25.031	858.170	691.278
301.891	24.857	857.844	690.282
302.906	24.422	856.709	687.631
303.920	24.803	856.211	688.638
304.935	24.889	856.402	689.061
305.949	24.871	855.296	688.043
306.964	24.653	855.046	686.941
307.979	24.800	854.218	686.783
308.993	25.220	854.077	688.219
310.008	25.160	853.172	687.200
311.022	24.941	852.397	685.674
312.037	24.792	851.624	684.424
313.052	24.543	851.067	682.963
314.066	23.729	849.423	678.474
315.081	23.226	848.881	676.061
316.095	24.054	849.161	679.385
317.110	24.708	848.640	681.402
318.125	23.853	847.682	677.318
319.139	22.824	846.139	672.108
320.154	22.828	845.398	671.476
321.168	23.631	845.862	674.839
322.183	24.217	846.287	677.347
323.197	24.463	845.712	677.762
324.212	24.772	845.213	678.474
325.227	24.792	844.873	678.214
326.241	24.674	844.151	677.128
327.256	24.682	842.924	676.117
328.270	24.495	842.553	675.053
329.285	24.313	841.912	673.789
330.300	24.178	841.086	672.560
331.314	24.359	840.739	672.905
332.329	24.665	840.500	673.809
333.343	24.960	840.175	674.598
334.358	24.801	839.990	673.794
335.373	24.930	839.429	673.767
336.387	25.124	839.776	674.719
337.402	25.316	839.486	675.147
338.416	25.090	839.075	673.906
339.431	25.391	838.362	674.406
340.446	25.496	838.375	674.752
341.460	25.400	837.485	673.614
342.475	25.234	837.187	672.694
343.489	25.138	836.959	672.090
344.504	25.483	836.551	672.995
345.519	25.605	836.121	673.047
346.533	25.744	835.904	673.332
347.548	25.768	835.026	672.654
348.562	25.634	834.420	671.607
349.577	25.580	834.305	671.252
350.592	25.477	833.833	670.430
351.606	25.594	832.763	669.946
352.621	25.570	831.588	668.852
353.635	25.479	831.060	668.030
354.650	24.865	829.561	664.489
355.665	24.092	827.749	660.115
356.679	24.142	827.970	660.418
357.694	24.686	827.312	661.847
358.708	24.538	827.075	661.053
359.723	24.944	826.924	662.374
360.738	25.374	826.472	663.541
361.752	25.317	826.314	663.148
362.767	25.799	825.914	664.546
363.781	26.124	825.272	665.168
364.796	26.009	825.398	664.787
365.810	26.011	824.997	664.415
366.825	25.963	824.464	663.748
367.840	25.748	823.260	661.930
368.854	25.330	822.571	659.782
369.869	25.480	822.252	660.017
370.883	25.407	821.842	659.362
371.898	25.314	821.308	658.537
372.913	25.391	821.111	658.600
373.927	25.551	820.371	658.534
374.942	25.617	820.478	658.803
375.956	25.865	819.778	659.092
376.971	25.843	819.233	658.513
377.986	25.942	819.121	658.729
379.000	25.889	818.817	658.231
380.015	25.774	818.137	657.209
381.029	25.889	817.192	656.810
382.044	26.104	816.468	656.950
383.059	26.028	816.110	656.330
384.073	26.003	815.769	655.907
385.088	26.048	815.040	655.424
386.102	25.788	814.397	653.906
387.117	25.882	813.505	653.472
388.132	25.463	812.564	651.140
389.146	24.930	811.844	648.576
390.161	25.383	811.646	650.001
391.175	25.692	811.423	650.885
392.190	25.332	810.794	649.021
393.205	24.099	808.413	642.610
394.219	22.655	806.740	636.018
395.234	22.414	806.714	635.073
396.248	24.036	807.961	641.853
397.263	25.451	808.968	647.699
398.278	25.582	808.357	647.626
399.292	25.324	807.806	646.199
400.307	25.350	807.210	645.758
401.321	25.408	806.757	645.545
402.336	25.714	807.039	646.814
403.350	26.148	806.858	648.171
404.365	26.347	806.691	648.693
405.380	26.560	806.253	649.050
406.394	26.868	805.953	649.852
407.409	26.637	804.975	648.179
408.423	26.723	804.411	647.978
409.438	26.633	804.138	647.378
410.453	26.733	803.887	647.476
411.467	26.543	803.072	646.083
412.482	26.752	802.655	646.437
413.496	26.821	802.632	646.605
414.511	26.654	802.434	645.796
415.526	26.692	801.766	645.334
416.540	26.635	800.858	644.346
417.555	26.296	800.462	642.765
418.569	26.363	799.845	642.451
419.584	26.415	799.240	642.092
420.599	26.225	798.715	640.939
421.613	83.426	1239.428	1297.431
422.628	70.975	1303.689	1297.573
