DTS Sentinel unit serial number:	SN413079Multiplexer serial number:	ORYXHardware model number:	OX4-SRSoftware version number:	ORYX F/W v4.00 Oryx Data Collector v3.7.2.0data status	okinstallation	princeton_trtdifferential loss correction	single-endedforward channel	channel 1reverse channel	N/Adate	2019/09/12time	17:24:11forward acquisition time	60.00reverse acquisition time	0.00gamma	496.2192k internal	0.2315k external	0.2315temperature offset calibration	1.0102default loss term (dB/km)	0.3790temperature slope calibration	1.0000multiplexer offset coefficient	1.0000multiplexer slope coefficient	1.0000fibre end	0.00T internal ref (°C)	34.80T ext. ref 1 (°C)	2.86T ext. ref 2 (°C)	28.72length (m)	temperature (°C)	Stokes	anti-Stokes-747.200	-36.740	0.317	0.172
-746.185	800.000	-0.227	0.670
-745.171	64.799	-0.133	-0.136
-744.156	81.079	-0.274	0.300
-743.142	642.686	-0.083	0.214
-742.127	-200.000	0.017	0.112
-741.112	211.196	0.077	-0.122
-740.098	800.000	-0.032	-0.142
-739.083	97.228	0.073	-0.085
-738.069	119.117	-0.009	0.012
-737.054	-141.706	-0.226	0.023
-736.039	-85.075	-0.353	0.112
-735.025	317.262	0.065	0.124
-734.010	-118.045	-0.078	0.014
-732.996	36.859	-0.228	-0.205
-731.981	-200.000	0.005	-0.178
-730.966	104.801	0.255	0.305
-729.952	-200.000	-0.004	-0.248
-728.937	284.559	-0.072	0.132
-727.923	575.403	0.116	0.287
-726.908	-200.000	0.043	-0.254
-725.894	-28.443	-0.125	-0.073
-724.879	800.000	-0.027	0.089
-723.864	-200.000	0.007	0.092
-722.850	-141.981	0.146	-0.015
-721.835	88.939	-0.247	-0.278
-720.821	129.653	-0.111	-0.143
-719.806	-39.758	0.062	-0.033
-718.791	84.079	-0.038	0.042
-717.777	-200.000	0.012	0.196
-716.762	-200.000	0.024	-0.260
-715.748	-19.220	-0.110	-0.069
-714.733	-200.000	0.011	-0.109
-713.718	800.000	0.049	0.200
-712.704	-134.477	0.161	0.020
-711.689	121.649	-0.110	-0.139
-710.675	29.303	0.166	-0.142
-709.660	-200.000	-0.018	-0.119
-708.645	471.070	-0.066	0.150
-707.631	800.000	-0.048	0.171
-706.616	800.000	-0.110	-0.347
-705.602	165.864	-0.068	-0.097
-704.587	800.000	-0.030	0.133
-703.572	-94.651	0.210	-0.058
-702.558	591.865	-0.129	0.322
-701.543	-144.547	0.243	0.023
-700.529	-57.623	-0.351	-0.156
-699.514	-170.213	0.100	-0.004
-698.499	766.835	-0.042	0.116
-697.485	-59.162	0.079	0.034
-696.470	-141.331	-0.192	0.020
-695.456	-200.000	0.016	0.186
-694.441	88.090	-0.053	0.059
-693.426	-31.529	-0.250	0.142
-692.412	-34.181	-0.424	0.235
-691.397	39.970	-0.237	-0.215
-690.383	-140.426	0.275	0.029
-689.368	-200.000	0.026	0.144
-688.354	-200.000	-0.027	-0.215
-687.339	-56.484	0.078	-0.035
-686.324	800.000	-0.034	0.128
-685.310	-32.908	0.114	-0.064
-684.295	-68.178	-0.505	-0.199
-683.281	187.203	-0.055	-0.082
-682.266	-114.513	-0.160	0.031
-681.251	-200.000	0.025	-0.176
-680.237	-200.000	0.006	0.146
-679.222	-11.516	0.088	-0.059
-678.208	-112.694	-0.347	0.070
-677.193	218.812	0.037	-0.059
-676.178	-151.677	0.144	-0.011
-675.164	-122.448	-0.101	0.017
-674.149	187.683	0.068	-0.102
-673.135	156.603	0.097	0.136
-672.120	800.000	-0.103	-0.297
-671.105	-100.035	0.160	-0.040
-670.091	-115.931	-0.273	-0.052
-669.076	-200.000	0.034	-0.201
-668.062	94.112	0.090	-0.103
-667.047	-200.000	-0.005	-0.046
-666.032	-200.000	0.073	0.402
-665.018	-21.698	-0.146	-0.090
-664.003	530.614	0.213	-0.508
-662.989	-41.776	-0.198	-0.103
-661.974	-99.083	-0.381	0.097
-660.959	-102.375	-0.126	0.030
-659.945	-120.942	-0.084	0.014
-658.930	-146.876	0.144	-0.012
-657.916	800.000	0.138	0.539
-656.901	42.582	-0.145	-0.134
-655.886	77.415	-0.348	-0.374
-654.872	-200.000	0.007	-0.064
-653.857	-18.818	-0.483	-0.304
-652.843	50.842	0.168	0.160
-651.828	-78.059	-0.049	0.017
-650.814	383.210	0.079	0.164
-649.799	-200.000	0.014	0.158
-648.784	-86.755	-0.086	0.026
-647.770	-200.000	-0.029	-0.204
-646.755	151.638	0.189	-0.260
-645.741	0.968	0.187	-0.135
-644.726	-200.000	0.010	-0.076
-643.711	800.000	-0.043	0.162
-642.697	-37.988	0.034	-0.018
-641.682	330.823	-0.254	-0.494
-640.668	-85.642	-0.339	-0.106
-639.653	377.194	-0.176	0.364
-638.638	340.001	0.060	-0.118
-637.624	-130.450	-0.197	-0.027
-636.609	719.700	-0.046	-0.122
-635.595	266.375	0.101	-0.178
-634.580	28.733	-0.150	-0.128
-633.565	-87.208	-0.121	-0.037
-632.551	32.975	-0.209	-0.183
-631.536	-66.528	-0.288	0.115
-630.522	-171.975	-0.218	-0.007
-629.507	-30.799	0.073	0.042
-628.492	-200.000	0.036	-0.350
-627.478	-61.825	0.180	0.076
-626.463	411.092	0.146	-0.313
-625.449	-143.871	-0.147	-0.014
-624.434	800.000	-0.064	-0.206
-623.419	800.000	-0.120	-0.477
-622.405	262.831	0.255	-0.447
-621.390	-92.739	0.334	0.094
-620.376	-16.624	-0.074	-0.048
-619.361	-117.382	-0.277	0.051
-618.346	800.000	-0.081	-0.226
-617.332	-200.000	-0.031	0.191
-616.317	202.464	-0.154	0.240
-615.303	800.000	0.077	0.294
-614.288	-200.000	-0.012	-0.104
-613.273	-37.366	-0.293	0.158
-612.259	-200.000	-0.024	-0.262
-611.244	-200.000	-0.045	0.397
-610.230	-132.874	0.578	-0.074
-609.215	275.164	0.188	0.335
-608.201	22.695	-0.156	-0.129
-607.186	215.748	0.058	0.093
-606.171	-138.041	0.356	-0.040
-605.157	106.871	-0.168	-0.201
-604.142	800.000	-0.069	-0.237
-603.128	144.203	0.189	0.254
-602.113	-200.000	-0.034	0.225
-601.098	137.959	-0.148	0.196
-600.084	-189.384	0.152	-0.002
-599.069	-200.000	0.029	-0.226
-598.055	211.265	0.087	-0.138
-597.040	800.000	-0.027	0.097
-596.025	-200.000	0.023	-0.223
-595.011	-1.174	0.121	-0.086
-593.996	-14.963	0.230	0.148
-592.982	-62.569	0.196	0.082
-591.967	-41.001	0.206	-0.107
-590.952	29.315	0.322	-0.275
-589.938	-200.000	-0.030	-0.183
-588.923	-28.325	-0.105	0.061
-587.909	800.000	-0.037	-0.152
-586.894	-119.814	0.330	0.057
-585.879	-200.000	-0.006	-0.134
-584.865	160.911	-0.212	0.299
-583.850	21.567	-0.079	-0.065
-582.836	800.000	-0.112	-0.427
-581.821	-8.491	-0.122	-0.083
-580.806	144.264	-0.220	0.296
-579.792	-30.892	0.293	0.167
-578.777	-165.349	0.386	0.017
-577.763	800.000	0.052	0.227
-576.748	-149.121	-0.055	0.004
-575.733	-200.000	0.052	0.265
-574.719	-126.010	-0.293	-0.044
-573.704	21.405	0.153	0.125
-572.690	-164.620	-0.105	-0.005
-571.675	-82.966	-0.116	0.038
-570.661	-200.000	-0.035	-0.296
-569.646	800.000	-0.042	0.129
-568.631	-79.396	0.115	-0.039
-567.617	800.000	0.079	0.310
-566.602	-127.856	-0.253	-0.037
-565.588	399.934	-0.067	0.141
-564.573	16.158	0.385	-0.305
-563.558	226.784	-0.078	0.128
-562.544	562.034	0.023	0.055
-561.529	173.858	-0.116	0.169
-560.515	-110.553	0.015	0.003
-559.500	0.365	-0.246	0.177
-558.485	-86.186	0.152	-0.047
-557.471	356.306	-0.093	0.186
-556.456	-116.796	0.335	-0.062
-555.442	-200.000	0.021	0.110
-554.427	48.327	-0.149	-0.140
-553.412	513.269	0.054	0.127
-552.398	-200.000	-0.009	-0.127
-551.383	-200.000	0.031	0.269
-550.369	-134.783	0.077	0.009
-549.354	800.000	0.086	0.247
-548.339	-200.000	-0.050	-0.531
-547.325	-45.443	-0.255	-0.127
-546.310	-61.604	-0.066	-0.028
-545.296	-168.491	-0.062	-0.002
-544.281	-25.195	-0.209	0.125
-543.266	42.376	-0.095	-0.087
-542.252	-56.977	-0.339	-0.150
-541.237	136.923	-0.084	-0.111
-540.223	-48.939	-0.332	-0.160
-539.208	-100.392	-0.269	-0.067
-538.193	-200.000	0.023	-0.431
-537.179	-90.284	0.167	-0.049
-536.164	26.973	0.124	0.104
-535.150	743.867	0.116	0.313
-534.135	373.656	-0.049	-0.100
-533.121	-127.786	-0.193	-0.028
-532.106	69.991	-0.094	-0.097
-531.091	560.403	-0.039	-0.095
-530.077	-200.000	-0.007	0.157
-529.062	-200.000	0.023	-0.277
-528.048	-5.589	-0.123	-0.085
-527.033	458.803	-0.095	-0.211
-526.018	-200.000	0.008	-0.187
-525.004	800.000	-0.189	0.681
-523.989	508.541	0.013	0.029
-522.975	130.892	0.074	-0.096
-521.960	140.852	0.182	-0.242
-520.945	-174.116	0.248	0.007
-519.931	800.000	-0.116	0.350
-518.916	293.625	-0.056	0.102
-517.902	-200.000	-0.042	-0.198
-516.887	-80.892	0.187	-0.062
-515.872	-200.000	-0.034	0.262
-514.858	40.212	0.031	0.028
-513.843	-200.000	-0.000	0.319
-512.829	51.632	0.211	0.201
-511.814	66.613	-0.127	0.129
-510.799	55.706	-0.156	0.152
-509.785	-72.011	-0.092	0.034
-508.770	800.000	-0.078	-0.328
-507.756	-130.495	-0.102	-0.014
-506.741	266.249	0.182	0.320
-505.726	-152.675	-0.286	0.020
-504.712	-200.000	0.047	-0.490
-503.697	-157.599	0.213	0.013
-502.683	800.000	-0.019	-0.076
-501.668	80.716	0.059	-0.064
-500.653	-200.000	-0.041	-0.270
-499.639	113.955	0.111	-0.135
-498.624	-200.000	0.050	-0.252
-497.610	412.368	-0.082	-0.174
-496.595	-59.067	-0.041	0.018
-495.581	-140.996	-0.006	-0.001
-494.566	-96.734	-0.204	-0.054
-493.551	-200.000	-0.050	-0.472
-492.537	-200.000	-0.030	-0.181
-491.522	172.123	-0.155	-0.224
-490.508	22.641	-0.055	-0.045
-489.493	631.923	0.105	-0.267
-488.478	8.196	0.113	-0.085
-487.464	-26.092	0.407	-0.240
-486.449	112.343	0.212	-0.258
-485.435	-95.877	-0.140	0.037
-484.420	-123.020	0.369	-0.060
-483.405	800.000	0.034	0.133
-482.391	-200.000	0.047	0.307
-481.376	-151.688	0.058	-0.004
-480.362	-84.407	0.208	0.066
-479.347	-1.166	-0.241	0.171
-478.332	67.335	-0.113	0.116
-477.318	800.000	-0.024	-0.090
-476.303	-87.769	-0.141	0.043
-475.289	-138.066	0.285	0.032
-474.274	-163.709	-0.286	0.014
-473.259	-48.326	-0.239	-0.116
-472.245	99.794	-0.074	-0.086
-471.230	13.664	0.173	-0.135
-470.216	-110.420	0.050	0.010
-469.201	-45.671	-0.196	0.097
-468.186	210.245	0.111	0.175
-467.172	-68.452	0.206	0.080
-466.157	-200.000	0.024	-0.141
-465.143	-191.531	0.119	-0.001
-464.128	219.431	0.156	-0.251
-463.113	72.894	-0.100	-0.104
-462.099	83.461	0.137	0.150
-461.084	-200.000	-0.033	-0.147
-460.070	65.908	0.174	0.177
-459.055	3.336	0.168	-0.123
-458.040	23.569	0.053	0.044
-457.026	-12.063	-0.513	0.337
-456.011	-13.173	-0.119	0.078
-454.997	-2.365	0.249	-0.175
-453.982	790.861	-0.087	0.239
-452.968	-200.000	0.057	0.305
-451.953	449.300	0.101	-0.222
-450.938	-200.000	-0.033	-0.148
-449.924	33.880	0.197	-0.172
-448.909	-87.606	0.176	-0.053
-447.895	800.000	0.093	-0.278
-446.880	-200.000	0.005	-0.216
-445.865	-64.169	0.259	-0.106
-444.851	800.000	0.149	0.417
-443.836	-70.687	-0.253	-0.096
-442.822	-174.905	0.338	0.009
-441.807	18.261	0.201	0.161
-440.792	325.220	-0.028	0.055
-439.778	-200.000	0.035	0.252
-438.763	-7.986	-0.404	-0.273
-437.749	-200.000	-0.013	0.429
-436.734	-200.000	-0.013	-0.309
-435.719	465.112	0.084	-0.189
-434.705	138.637	-0.186	0.245
-433.690	-90.819	-0.128	-0.037
-432.676	137.206	-0.166	-0.218
-431.661	-200.000	-0.014	-0.230
-430.646	33.185	0.096	-0.084
-429.632	-200.000	-0.015	-0.137
-428.617	154.754	-0.068	-0.093
-427.603	-14.315	-0.071	-0.046
-426.588	800.000	0.051	0.225
-425.573	-13.213	0.137	0.089
-424.559	-64.619	0.245	0.099
-423.544	-84.452	0.425	0.134
-422.530	237.659	0.124	-0.205
-421.515	-200.000	-0.018	-0.353
-420.500	-200.000	0.003	0.022
-419.486	69.764	0.265	-0.273
-418.471	227.021	0.135	-0.220
-417.457	800.000	0.021	0.074
-416.442	-200.000	-0.015	-0.185
-415.428	-49.947	-0.073	-0.035
-414.413	-93.116	0.221	-0.062
-413.398	-200.000	0.087	0.466
-412.384	-80.111	-0.191	-0.064
-411.369	234.807	-0.079	0.130
-410.355	-200.000	-0.001	-0.180
-409.340	-200.000	0.003	-0.269
-408.325	41.274	0.148	0.134
-407.311	80.907	-0.150	-0.162
-406.296	260.277	-0.149	0.258
-405.282	-19.420	-0.463	-0.287
-404.267	-200.000	0.015	0.346
-403.252	-94.428	-0.236	-0.064
-402.238	-44.073	0.351	0.176
-401.223	33.925	0.091	0.079
-400.209	-200.000	-0.069	-0.345
-399.194	158.206	-0.058	-0.080
-398.179	-200.000	0.014	-0.227
-397.165	-24.789	-0.206	0.122
-396.150	7.025	-0.193	0.144
-395.136	133.602	-0.114	0.147
-394.121	-46.522	-0.200	0.098
-393.106	-30.929	-0.261	-0.147
-392.092	-200.000	0.076	0.464
-391.077	-36.909	0.239	0.128
-390.063	-86.208	0.014	-0.004
-389.048	231.628	-0.091	-0.150
-388.033	217.016	0.141	0.225
-387.019	800.000	-0.123	0.383
-386.004	98.974	0.223	-0.258
-384.990	13.794	0.188	-0.146
-383.975	-74.250	0.113	-0.041
-382.960	-70.967	-0.105	0.039
-381.946	-128.798	0.338	-0.048
-380.931	112.443	0.146	0.176
-379.917	-156.507	-0.220	-0.014
-378.902	59.631	0.213	-0.209
-377.888	-152.581	0.422	-0.030
-376.873	-65.519	-0.341	-0.137
-375.858	-49.992	0.363	0.172
-374.844	-57.033	-0.272	-0.120
-373.829	-200.000	-0.003	-0.147
-372.815	-200.000	-0.198	-0.001
-371.800	28.735	-0.150	0.127
-370.785	-200.000	0.008	0.037
-369.771	-112.676	-0.141	-0.028
-368.756	45.008	0.256	0.235
-367.742	561.248	0.119	0.287
-366.727	42.201	0.043	-0.039
-365.712	-106.813	0.145	-0.032
-364.698	-14.415	-0.144	-0.092
-363.683	-200.000	-0.023	0.258
-362.669	800.000	-0.094	-0.298
-361.654	-147.547	0.390	-0.033
-360.639	800.000	0.013	0.051
-359.625	24.287	-0.031	-0.026
-358.610	193.420	-0.093	-0.140
-357.596	117.554	-0.217	-0.267
-356.581	-200.000	-0.021	-0.187
-355.566	-93.198	-0.263	0.073
-354.552	124.489	0.152	-0.191
-353.537	-120.997	0.128	0.021
-352.523	-200.000	0.033	0.235
-351.508	-75.616	0.336	-0.119
-350.493	-103.751	0.266	0.062
-349.479	800.000	0.044	0.188
-348.464	-200.000	-0.012	0.171
-347.450	3.782	-0.167	0.122
-346.435	28.339	0.095	0.080
-345.420	-54.152	-0.203	0.092
-344.406	672.799	-0.114	0.295
-343.391	-102.027	-0.092	-0.022
-342.377	800.000	-0.029	-0.093
-341.362	-39.158	-0.157	-0.082
-340.348	-123.918	0.310	-0.049
-339.333	14.961	-0.061	-0.047
-338.318	-71.526	-0.185	-0.069
-337.304	100.029	0.062	-0.072
-336.289	-200.000	-0.023	-0.316
-335.275	-22.624	-0.075	-0.045
-334.260	-200.000	-0.056	0.262
-333.245	800.000	0.036	0.145
-332.231	48.922	-0.061	0.057
-331.216	-91.077	-0.262	0.075
-330.202	37.669	0.090	-0.080
-329.187	22.010	-0.091	-0.074
-328.172	-29.734	-0.155	0.088
-327.158	800.000	0.117	-0.405
-326.143	800.000	0.044	-0.122
-325.129	236.612	-0.128	0.212
-324.114	800.000	0.102	0.322
-323.099	143.133	-0.085	-0.113
-322.085	-200.000	-0.003	-0.283
-321.070	347.124	-0.291	-0.570
-320.056	140.476	-0.107	-0.140
-319.041	747.252	-0.140	-0.375
-318.026	491.115	0.106	0.242
-317.012	509.192	-0.101	0.235
-315.997	-22.787	-0.120	0.072
-314.983	217.078	0.115	-0.183
-313.968	-165.941	-0.073	-0.003
-312.953	273.217	-0.104	-0.183
-311.939	-154.338	0.135	0.009
-310.924	5.897	-0.150	0.111
-309.910	800.000	0.139	-0.539
-308.895	-200.000	0.032	0.399
-307.880	239.849	-0.097	0.160
-306.866	-126.806	-0.101	-0.015
-305.851	-151.340	0.202	0.015
-304.837	-145.164	0.094	-0.008
-303.822	262.492	-0.164	0.284
-302.807	-43.683	0.062	-0.031
-301.793	800.000	0.045	-0.130
-300.778	46.308	-0.102	0.094
-299.764	-176.292	0.206	-0.005
-298.749	800.000	-0.115	0.335
-297.735	239.766	-0.207	0.343
-296.720	800.000	-0.037	0.135
-295.705	-200.000	0.023	-0.213
-294.691	114.848	0.197	-0.239
-293.676	148.802	-0.097	0.131
-292.662	321.129	-0.124	0.235
-291.647	160.004	0.138	0.192
-290.632	800.000	0.039	0.138
-289.618	213.577	0.274	0.431
-288.603	304.084	0.172	0.318
-287.589	560.835	-0.026	-0.062
-286.574	170.285	-0.073	0.104
-285.559	-27.595	0.102	-0.059
-284.545	61.384	0.021	0.021
-283.530	-111.880	0.218	0.044
-282.516	-200.000	-0.003	-0.133
-281.501	-200.000	-0.006	-0.055
-280.486	320.378	-0.072	-0.136
-279.472	102.467	-0.195	0.227
-278.457	-33.916	-0.148	-0.081
-277.443	-200.000	-0.017	0.399
-276.428	-143.719	-0.372	-0.035
-275.413	-148.069	0.119	0.010
-274.399	-154.961	0.154	0.010
-273.384	-15.581	0.075	0.048
-272.370	302.478	-0.270	0.498
-271.355	-115.208	-0.107	-0.020
-270.340	-77.352	0.187	-0.065
-269.326	-1.280	0.166	-0.117
-268.311	407.383	-0.066	0.139
-267.297	-200.000	-0.015	0.430
-266.282	40.196	0.199	-0.178
-265.267	126.424	-0.020	0.025
-264.253	138.849	-0.266	-0.348
-263.238	30.770	0.145	-0.123
-262.224	254.720	-0.063	-0.107
-261.209	334.321	-0.164	0.316
-260.195	12.671	0.421	0.323
-259.180	321.616	0.109	0.207
-258.165	165.271	0.193	0.271
-257.151	-31.065	0.085	0.048
-256.136	-113.594	-0.193	0.038
-255.122	402.608	0.076	0.159
-254.107	-53.356	-0.106	-0.048
-253.092	68.587	0.137	-0.140
-252.078	-49.986	0.100	0.047
-251.063	142.175	0.128	0.169
-250.049	-12.229	-0.398	0.259
-249.034	-200.000	0.022	0.260
-248.019	23.187	-0.385	-0.314
-247.005	85.509	0.186	0.203
-245.990	28.525	-0.204	0.171
-244.976	-167.136	0.283	0.011
-243.961	-74.294	-0.177	0.064
-242.946	-123.048	-0.282	0.045
-241.932	800.000	-0.066	0.225
-240.917	146.724	-0.149	-0.199
-239.903	-67.745	0.091	0.035
-238.888	161.770	-0.103	-0.144
-237.873	86.152	0.165	-0.181
-236.859	-23.106	0.143	0.085
-235.844	800.000	-0.082	-0.282
-234.830	117.729	0.237	-0.290
-233.815	-200.000	0.049	-0.379
-232.800	681.972	-0.049	-0.126
-231.786	-200.000	-0.069	0.364
-230.771	-48.306	-0.089	0.043
-229.757	303.648	0.115	0.212
-228.742	-88.905	-0.163	-0.048
-227.727	401.361	0.106	0.222
-226.713	800.000	0.096	0.329
-225.698	11.771	-0.256	-0.195
-224.684	-70.744	0.140	-0.052
-223.669	458.520	-0.059	-0.130
-222.655	-46.002	-0.072	-0.035
-221.640	-87.302	-0.405	0.122
-220.625	54.370	-0.255	-0.244
-219.611	488.388	-0.072	-0.162
-218.596	-200.000	-0.056	0.400
-217.582	-57.806	-0.055	-0.024
-216.567	17.905	-0.195	-0.154
-215.552	800.000	0.112	0.426
-214.538	-122.975	-0.274	-0.044
-213.523	163.106	-0.042	0.059
-212.509	-156.955	0.124	0.008
-211.494	343.303	-0.188	-0.365
-210.479	39.149	-0.135	-0.120
-209.465	268.078	0.099	-0.172
-208.450	-189.633	-0.183	-0.002
-207.436	144.442	0.174	0.231
-206.421	41.733	-0.121	0.109
-205.406	20.980	0.177	-0.143
-204.392	-32.497	0.142	-0.078
-203.377	-47.641	0.320	0.154
-202.363	273.480	-0.080	0.140
-201.348	-61.246	0.536	0.224
-200.333	144.547	0.167	0.222
-199.319	151.225	-0.052	-0.071
-198.304	179.930	-0.043	-0.062
-197.290	800.000	0.067	0.255
-196.275	-92.506	-0.252	0.070
-195.260	99.461	0.106	0.122
-194.246	-146.723	0.376	-0.032
-193.231	800.000	-0.034	0.131
-192.217	-200.000	-0.015	0.168
-191.202	-200.000	-0.010	0.092
-190.187	12.694	-0.266	0.204
-189.173	-106.357	0.177	0.039
-188.158	42.554	-0.320	-0.289
-187.144	-59.393	0.084	-0.036
-186.129	-200.000	0.067	0.372
-185.114	-50.875	0.318	-0.148
-184.100	-132.650	-0.111	-0.014
-183.085	723.519	0.071	0.187
-182.071	-95.799	-0.190	-0.050
-181.056	66.086	0.213	-0.215
-180.042	-155.798	0.362	-0.023
-179.027	-111.202	0.304	-0.062
-178.012	-92.125	-0.079	-0.022
-176.998	215.499	0.049	0.078
-175.983	16.680	-0.230	0.181
-174.969	-64.355	0.248	-0.100
-173.954	-200.000	0.039	0.207
-172.939	-152.511	0.194	0.014
-171.925	10.499	-0.141	0.106
-170.910	-84.668	0.359	0.112
-169.896	217.956	0.071	-0.113
-168.881	554.884	-0.060	-0.143
-167.866	169.520	0.095	-0.134
-166.852	-39.451	-0.204	0.106
-165.837	128.563	0.109	-0.138
-164.823	385.500	-0.040	0.081
-163.808	-37.536	0.059	-0.031
-162.793	243.334	0.154	0.255
-161.779	-200.000	-0.011	-0.203
-160.764	-200.000	0.029	-0.285
-159.750	239.513	-0.028	0.046
-158.735	205.277	0.092	0.142
-157.720	-29.352	-0.275	-0.156
-156.706	-12.863	-0.231	0.149
-155.691	-20.773	-0.226	0.137
-154.677	-176.843	-0.267	-0.007
-153.662	-92.589	-0.111	0.031
-152.647	314.187	0.083	0.155
-151.633	-200.000	0.004	-0.093
-150.618	-62.189	0.258	0.107
-149.604	136.883	-0.078	0.101
-148.589	-200.000	0.008	0.159
-147.574	19.677	-0.125	-0.100
-146.560	-200.000	0.019	0.170
-145.545	213.341	0.253	0.395
-144.531	68.717	0.321	0.326
-143.516	-143.412	0.134	-0.013
-142.502	93.069	0.432	0.483
-141.487	268.651	0.106	0.184
-140.472	1.950	0.133	0.095
-139.458	-68.769	0.193	-0.074
-138.443	-126.821	0.356	0.052
-137.429	157.108	-0.088	-0.120
-136.414	57.408	-0.224	-0.216
-135.399	187.181	0.153	-0.226
-134.385	-52.442	-0.203	-0.093
-133.370	800.000	0.079	-0.279
-132.356	158.777	0.187	0.257
-131.341	411.104	-0.097	-0.203
-130.326	104.615	-0.252	-0.293
-129.312	432.552	-0.099	0.213
-128.297	-200.000	-0.020	-0.088
-127.283	-200.000	-0.010	0.093
-126.268	-123.116	0.139	0.022
-125.253	4.516	-0.293	0.212
-124.239	800.000	-0.075	-0.233
-123.224	414.242	0.128	0.270
-122.210	-38.380	0.150	0.078
-121.195	-200.000	-0.035	0.279
-120.180	-200.000	0.035	0.160
-119.166	-82.640	0.308	-0.099
-118.151	300.907	0.102	-0.186
-117.137	-200.000	0.016	-0.174
-116.122	-68.372	-0.104	-0.040
-115.107	466.796	0.120	0.266
-114.093	-66.501	-0.238	0.093
-113.078	-200.000	0.015	0.173
-112.064	-118.783	-0.268	-0.047
-111.049	-81.980	0.433	0.140
-110.034	16.525	0.236	-0.185
-109.020	800.000	0.126	0.434
-108.005	-200.000	-0.017	-0.216
-106.991	-191.050	0.418	0.004
-105.976	800.000	-0.046	-0.175
-104.962	-200.000	-0.008	-0.118
-103.947	396.542	-0.071	-0.147
-102.932	80.087	-0.059	-0.063
-101.918	209.329	-0.085	-0.131
-100.903	800.000	0.052	-0.204
-99.889	-200.000	-0.012	0.205
-98.874	-48.084	0.296	-0.141
-97.859	787.946	-0.099	0.269
-96.845	800.000	-0.094	0.324
-95.830	-128.623	0.217	-0.030
-94.816	-2.494	0.209	-0.145
-93.801	177.246	-0.131	0.188
-92.786	199.387	0.123	0.187
-91.772	-2.058	0.349	-0.242
-90.757	-30.711	-0.295	0.165
-89.743	285.540	0.014	-0.025
-88.728	-102.034	-0.317	-0.075
-87.713	66.553	-0.112	0.112
-86.699	-200.000	0.095	0.418
-85.684	-200.000	0.023	0.177
-84.670	800.000	-0.083	0.303
-83.655	800.000	0.084	0.242
-82.640	800.000	0.096	0.339
-81.626	-56.823	0.346	0.151
-80.611	173.084	0.143	0.203
-79.597	160.448	0.133	0.183
-78.582	183.977	-0.116	-0.169
-77.567	500.797	-0.118	0.269
-76.553	-82.318	0.070	0.022
-75.538	-200.000	-0.057	0.416
-74.524	800.000	-0.038	0.152
-73.509	-24.839	0.176	-0.103
-72.494	79.569	-0.047	-0.050
-71.480	281.020	0.087	0.154
-70.465	85.678	-0.176	-0.191
-69.451	-144.399	0.368	-0.034
-68.436	189.629	0.147	-0.217
-67.422	-62.582	-0.175	0.072
-66.407	-133.252	-0.492	0.061
-65.392	25.301	-0.212	-0.174
-64.378	280.210	-0.324	0.571
-63.363	-200.000	0.083	0.375
-62.349	-151.701	0.043	0.003
-61.334	62.430	-0.857	-0.844
-60.319	16.825	0.531	0.415
-59.305	63.509	-0.324	-0.321
-58.290	616.501	0.546	1.351
-57.276	239.540	0.927	1.523
-56.261	-200.000	96.951	583.040
-55.246	561.703	1380.956	3294.512
-54.232	155.098	2575.045	3493.727
-53.217	115.599	2154.955	2598.932
-52.203	46.447	1614.096	1476.798
-51.188	38.132	1351.385	1186.156
-50.173	34.924	1308.653	1129.692
-49.159	57.869	1358.439	1311.139
-48.144	61.600	1376.158	1350.564
-47.130	38.546	1330.830	1170.404
-46.115	34.854	1313.282	1133.094
-45.100	34.647	1308.520	1127.722
-44.086	34.681	1306.071	1125.766
-43.071	34.638	1303.734	1123.455
-42.057	34.587	1301.704	1121.358
-41.042	34.684	1300.266	1120.646
-40.027	34.663	1299.063	1119.443
-39.013	34.671	1296.840	1117.526
-37.998	34.767	1294.520	1116.045
-36.984	34.743	1293.436	1114.924
-35.969	34.851	1291.337	1113.700
-34.954	34.894	1289.609	1112.420
-33.940	34.843	1288.689	1111.283
-32.925	34.934	1287.477	1110.722
-31.911	34.825	1285.880	1108.666
-30.896	34.967	1284.261	1108.049
-29.881	34.964	1282.871	1106.791
-28.867	34.954	1281.550	1105.552
-27.852	34.794	1280.529	1103.698
-26.838	34.904	1278.650	1102.671
-25.823	34.921	1277.615	1101.833
-24.809	34.922	1276.398	1100.745
-23.794	34.955	1274.808	1099.519
-22.779	34.890	1273.846	1098.274
-21.765	34.824	1272.704	1096.868
-20.750	34.798	1271.264	1095.431
-19.736	34.720	1270.125	1093.963
-18.721	34.803	1269.029	1093.450
-17.706	34.809	1267.486	1092.112
-16.692	34.691	1266.458	1090.506
-15.677	34.710	1265.614	1089.847
-14.663	34.757	1264.500	1089.113
-13.648	34.675	1263.392	1087.649
-12.633	34.772	1262.180	1087.115
-11.619	34.683	1261.523	1085.994
-10.604	34.726	1260.703	1085.492
-9.590	34.716	1259.675	1084.510
-8.575	34.755	1258.789	1083.921
-7.560	34.702	1257.887	1082.802
-6.546	34.639	1257.201	1081.811
-5.531	34.744	1255.568	1080.956
-4.517	34.599	1255.373	1079.928
-3.502	34.721	1254.604	1079.911
-2.487	34.644	1253.460	1078.449
-1.473	34.695	1249.088	1074.932
-0.458	32.953	1233.864	1052.094
0.556	29.780	1214.324	1009.244
1.571	25.344	1218.772	988.491
2.586	24.262	1233.104	993.996
3.600	23.395	1222.470	980.541
4.615	17.222	1149.812	889.952
5.629	7.428	1073.519	782.716
6.644	3.239	1052.530	747.052
7.659	2.859	1050.101	743.423
8.673	2.677	1048.410	741.277
9.688	2.667	1047.288	740.370
10.702	3.068	1046.293	741.538
11.717	8.832	1054.322	775.109
12.731	18.932	1068.278	834.571
13.746	24.863	1076.054	869.476
14.761	26.090	1078.076	877.000
15.775	26.358	1077.272	877.572
16.790	26.187	1076.436	875.980
17.804	25.936	1075.944	874.288
18.819	26.135	1075.627	874.917
19.834	26.325	1075.211	875.423
20.848	26.334	1074.834	875.080
21.863	26.395	1074.211	874.791
22.877	26.383	1073.625	874.178
23.892	26.240	1072.852	872.783
24.907	26.251	1072.419	872.401
25.921	26.361	1070.706	871.466
26.936	26.279	1069.728	870.195
27.950	26.213	1068.015	868.407
28.965	26.026	1066.679	866.347
29.980	26.230	1064.819	865.738
30.994	26.374	1064.208	865.854
32.009	26.382	1062.787	864.657
33.023	26.172	1061.796	862.774
34.038	26.123	1061.135	861.925
35.053	26.295	1060.647	862.274
36.067	26.278	1060.114	861.686
37.082	26.348	1058.995	861.029
38.096	26.508	1058.606	861.398
39.111	26.599	1057.785	861.091
40.126	26.515	1056.394	859.483
41.140	25.944	1055.033	855.591
42.155	25.930	1053.631	854.310
43.169	25.931	1052.544	853.357
44.184	25.891	1051.771	852.466
45.199	25.881	1050.728	851.498
46.213	25.877	1050.223	850.995
47.228	26.006	1049.448	850.901
48.242	26.131	1048.318	850.497
49.257	26.199	1047.752	850.282
50.271	26.367	1046.914	850.318
51.286	26.341	1045.928	849.318
52.301	26.280	1045.362	848.501
53.315	26.233	1044.466	847.477
54.330	26.262	1043.400	846.670
55.344	26.099	1042.990	845.502
56.359	26.203	1042.002	845.110
57.374	25.910	1041.186	843.007
58.388	26.026	1039.980	842.496
59.403	25.974	1039.325	841.647
60.417	25.826	1038.280	840.036
61.432	25.818	1037.812	839.545
62.447	25.931	1037.372	839.643
63.461	26.102	1036.702	839.820
64.476	25.972	1035.186	837.914
65.490	25.924	1034.673	837.203
66.505	26.060	1033.884	837.122
67.520	25.999	1033.160	836.179
68.534	25.791	1032.366	834.498
69.549	25.506	1031.081	832.066
70.563	25.571	1030.287	831.651
71.578	25.580	1029.453	830.951
72.593	25.331	1028.615	829.051
73.607	25.363	1028.631	829.138
74.622	25.906	1027.504	830.656
75.636	25.879	1027.178	830.194
76.651	25.657	1025.978	828.132
77.666	25.511	1025.807	827.249
78.680	25.652	1025.152	827.297
79.695	25.766	1024.173	826.956
80.709	25.891	1023.460	826.880
81.724	25.859	1022.452	825.845
82.739	25.890	1022.154	825.675
83.753	26.306	1021.447	826.935
84.768	26.594	1020.777	827.635
85.782	26.705	1020.235	827.628
86.797	26.540	1018.926	825.740
87.812	26.256	1018.136	823.735
88.826	26.587	1017.049	824.286
89.841	26.590	1016.431	823.730
90.855	26.621	1015.496	823.039
91.870	26.423	1015.071	821.720
92.884	26.336	1013.775	820.203
93.899	26.291	1012.561	818.947
94.914	26.416	1012.202	819.149
95.928	26.431	1010.710	817.937
96.943	25.966	1009.924	815.128
97.957	25.856	1008.731	813.597
98.972	25.783	1007.497	812.199
99.987	26.013	1007.026	812.786
101.001	26.141	1006.430	812.807
102.016	26.141	1005.274	811.804
103.030	26.129	1004.633	811.157
104.045	25.937	1003.552	809.354
105.060	25.901	1002.317	808.126
106.074	26.054	1002.107	808.567
107.089	26.412	1000.900	809.126
108.103	26.334	1000.126	808.078
109.118	26.128	998.409	805.701
110.133	25.999	997.718	804.495
111.147	25.792	996.319	802.378
112.162	25.698	995.756	801.431
113.176	25.943	995.052	801.883
114.191	25.845	994.588	801.004
115.206	25.682	993.000	798.932
116.220	25.508	992.459	797.655
117.235	25.829	991.374	798.134
118.249	25.619	991.573	797.294
119.264	25.522	990.236	795.716
120.279	25.731	989.372	795.876
121.293	25.614	988.694	794.745
122.308	25.673	988.029	794.398
123.322	25.646	986.746	793.179
124.337	25.521	985.685	791.703
125.352	25.002	983.920	787.934
126.366	24.877	983.360	786.867
127.381	25.629	983.242	790.006
128.395	26.070	982.848	791.558
129.410	26.235	981.674	791.264
130.424	26.078	981.301	790.206
131.439	26.204	980.113	789.729
132.454	26.212	979.435	789.148
133.468	26.169	978.446	788.096
134.483	26.235	977.834	787.820
135.497	26.400	977.292	788.032
136.512	26.592	976.189	787.908
137.527	26.504	975.354	786.782
138.541	26.334	975.047	785.725
139.556	26.396	974.048	785.120
140.570	26.549	973.301	785.113
141.585	26.667	971.998	784.505
142.600	26.595	971.203	783.483
143.614	26.693	971.011	783.679
144.629	26.783	970.318	783.442
145.643	26.716	968.662	781.746
146.658	26.443	967.190	779.311
147.673	26.434	966.208	778.412
148.687	26.281	965.179	776.858
149.702	26.382	963.984	776.263
150.716	26.119	963.791	774.910
151.731	26.307	963.043	775.046
152.746	26.586	962.810	775.985
153.760	26.674	961.847	775.517
154.775	26.626	961.071	774.619
155.789	26.582	960.110	773.585
156.804	26.661	959.049	772.999
157.819	26.461	959.211	772.208
158.833	26.812	957.584	772.326
159.848	26.788	957.235	771.874
160.862	26.600	955.535	769.635
161.877	26.649	954.746	769.139
162.892	26.735	953.464	768.403
163.906	26.547	952.691	766.915
164.921	26.570	951.931	766.335
165.935	26.548	951.291	765.656
166.950	26.712	950.220	765.422
167.964	26.588	949.722	764.430
168.979	26.450	948.134	762.500
169.994	26.342	947.145	761.185
171.008	26.617	946.787	761.986
172.023	26.614	945.999	761.272
173.037	26.417	945.156	759.697
174.052	26.430	943.847	758.633
175.067	26.467	943.531	758.466
176.081	26.460	942.700	757.702
177.096	26.496	942.142	757.338
178.110	26.122	941.673	755.329
179.125	25.990	940.494	753.765
180.140	26.045	940.108	753.617
181.154	26.303	939.681	754.288
182.169	26.429	940.119	755.097
183.183	26.608	939.609	755.370
184.198	26.759	937.971	754.615
185.213	26.542	937.633	753.370
186.227	26.615	937.131	753.203
187.242	26.691	936.470	752.922
188.256	26.567	936.051	752.003
189.271	26.810	935.174	752.240
190.286	26.358	933.818	749.213
191.300	25.678	932.486	745.264
192.315	24.837	930.800	740.373
193.329	24.855	930.622	740.236
194.344	25.852	931.014	744.606
195.359	26.457	930.649	746.748
196.373	26.535	930.495	746.878
197.388	26.539	929.692	746.185
198.402	26.372	929.127	744.979
199.417	26.420	928.868	744.901
200.432	26.352	927.616	743.551
201.446	26.134	927.174	742.237
202.461	26.290	926.025	741.890
203.475	25.348	924.261	736.549
204.490	24.669	922.780	732.526
205.504	25.449	923.509	736.236
206.519	26.125	923.633	739.038
207.534	26.308	923.174	739.352
208.548	26.511	923.036	740.008
209.563	26.403	921.844	738.546
210.577	26.316	921.196	737.607
211.592	26.630	921.402	738.985
212.607	26.745	920.356	738.553
213.621	26.678	919.488	737.517
214.636	26.781	918.802	737.318
215.650	26.760	917.772	736.343
216.665	26.747	917.608	736.092
217.680	26.683	916.850	735.163
218.694	26.347	915.164	732.383
219.709	26.093	914.984	731.146
220.723	26.354	914.916	732.083
221.738	26.522	914.086	732.034
222.753	26.462	913.554	731.301
223.767	26.661	913.047	731.635
224.782	26.906	912.734	732.308
225.796	26.837	912.497	731.775
226.811	26.226	910.805	727.889
227.826	25.640	909.243	724.219
228.840	25.583	909.507	724.135
229.855	25.729	908.159	723.587
230.869	25.437	907.273	721.645
231.884	25.856	907.160	723.173
232.899	26.581	907.727	726.468
233.913	26.422	906.823	725.044
234.928	26.485	906.003	724.576
235.942	26.389	905.617	723.820
236.957	26.046	904.449	721.450
237.972	26.048	904.111	721.127
238.986	26.134	903.888	721.226
240.001	26.150	903.115	720.611
241.015	26.179	902.617	720.267
242.030	26.386	902.286	720.763
243.045	26.436	902.037	720.699
244.059	26.706	901.384	721.187
245.074	26.416	900.348	719.141
246.088	26.155	899.230	717.149
247.103	26.440	899.130	718.139
248.117	27.067	899.176	720.601
249.132	27.235	898.797	720.900
250.147	27.371	898.123	720.834
251.161	27.408	897.874	720.715
252.176	27.344	897.209	719.865
253.190	27.532	896.415	719.908
254.205	27.664	896.222	720.211
255.220	27.447	895.796	718.947
256.234	27.443	894.627	717.929
257.249	27.310	893.884	716.746
258.263	27.334	893.323	716.329
259.278	27.441	892.738	716.216
260.293	27.463	892.457	716.016
261.307	27.398	891.515	714.939
262.322	27.181	890.874	713.511
263.336	26.485	888.738	709.010
264.351	25.451	887.273	703.730
265.366	25.561	886.542	703.520
266.380	26.690	887.286	708.467
267.395	27.135	887.021	709.932
268.409	26.969	886.423	708.739
269.424	27.233	885.832	709.236
270.439	27.212	885.342	708.697
271.453	27.323	884.772	708.610
272.468	27.336	884.685	708.530
273.482	27.479	884.470	708.852
274.497	27.132	882.595	705.937
275.512	26.467	882.452	703.178
276.526	27.037	882.215	705.139
277.541	27.270	881.693	705.566
278.555	26.962	881.089	703.824
279.570	27.028	880.179	703.292
280.585	27.106	879.510	702.996
281.599	27.050	878.422	701.847
282.614	26.340	877.546	698.346
283.628	26.383	877.228	698.196
284.643	26.733	876.692	699.057
285.657	26.418	875.359	696.719
286.672	26.078	874.695	694.819
287.687	26.736	874.972	697.512
288.701	26.773	874.406	697.143
289.716	26.456	873.446	695.098
290.730	26.485	872.685	694.542
291.745	26.226	871.976	692.920
292.760	26.598	871.577	693.968
293.774	27.394	872.375	697.596
294.789	27.723	872.276	698.716
295.803	27.796	871.314	698.162
296.818	27.792	870.709	697.601
297.833	27.398	869.598	695.146
298.847	27.303	868.783	694.068
299.862	27.538	868.810	694.925
300.876	27.766	867.938	695.035
301.891	27.657	867.722	694.387
302.906	27.285	866.630	692.034
303.920	27.576	866.137	692.686
304.935	27.837	866.072	693.564
305.949	27.796	865.038	692.519
306.964	27.449	864.827	690.972
307.979	27.521	864.239	690.714
308.993	27.887	863.944	691.803
310.008	27.733	863.709	690.972
311.022	27.515	862.710	689.285
312.037	27.490	862.024	688.585
313.052	27.229	860.960	686.688
314.066	26.213	859.487	681.621
315.081	25.881	859.036	679.949
316.095	26.966	858.928	683.894
317.110	27.411	858.799	685.408
318.125	26.597	857.514	681.257
319.139	25.571	855.650	675.863
320.154	25.598	855.617	675.881
321.168	26.402	856.221	679.320
322.183	26.968	856.482	681.593
323.197	27.224	856.014	682.119
324.212	27.468	855.344	682.440
325.227	27.357	855.226	681.868
326.241	27.324	853.976	680.688
327.256	27.231	853.868	680.195
328.270	27.183	852.953	679.225
329.285	27.000	852.017	677.737
330.300	26.793	851.408	676.421
331.314	27.029	851.170	677.051
332.329	27.469	850.935	678.445
333.343	27.561	850.823	678.637
334.358	27.569	850.611	678.436
335.373	27.619	849.791	677.910
336.387	27.984	850.147	679.492
337.402	28.099	849.634	679.447
338.416	28.041	849.164	678.799
339.431	28.128	849.318	679.185
340.446	28.342	848.376	679.163
341.460	28.191	848.309	678.489
342.475	27.920	847.745	676.975
343.489	27.907	847.509	676.678
344.504	28.190	847.423	677.598
345.519	28.348	846.934	677.730
346.533	28.484	846.300	677.666
347.548	28.438	845.952	677.158
348.562	28.391	845.451	676.525
349.577	28.153	844.572	674.883
350.592	28.431	843.800	675.229
351.606	28.205	843.249	673.898
352.621	28.154	842.507	673.059
353.635	28.061	841.685	671.999
354.650	27.535	840.031	668.688
355.665	26.501	838.534	663.651
356.679	27.032	838.344	665.387
357.694	27.383	838.317	666.592
358.708	27.326	837.544	665.710
359.723	27.605	837.581	666.699
360.738	27.969	837.286	667.736
361.752	28.131	837.097	668.118
362.767	28.548	836.216	668.876
363.781	28.819	835.750	669.432
364.796	28.938	835.635	669.714
365.810	28.778	835.316	668.819
366.825	28.914	834.591	668.672
367.840	28.499	834.192	666.787
368.854	28.082	833.128	664.363
369.869	28.078	832.790	664.020
370.883	28.108	832.095	663.514
371.898	28.060	831.741	662.998
372.913	28.158	831.864	663.393
373.927	28.097	831.562	662.873
374.942	28.381	830.875	663.297
375.956	28.561	830.153	663.310
376.971	28.651	830.026	663.476
377.986	28.816	829.399	663.514
379.000	28.828	828.772	662.993
380.015	28.574	828.546	661.839
381.029	28.618	827.868	661.398
382.044	28.861	827.275	661.742
383.059	28.970	826.706	661.617
384.073	28.822	826.178	660.607
385.088	28.610	825.560	659.292
386.102	28.424	824.999	658.118
387.117	28.389	824.134	657.245
388.132	27.988	823.279	655.066
389.146	27.630	822.329	652.972
390.161	28.107	822.416	654.689
391.175	28.413	822.528	655.817
392.190	28.101	821.392	653.737
393.205	26.716	819.062	646.887
394.219	25.289	816.926	640.057
395.234	25.022	816.916	639.040
396.248	26.940	818.296	646.906
397.263	28.114	819.235	651.778
398.278	28.280	818.532	651.753
399.292	27.887	818.040	649.906
400.307	28.122	817.498	650.252
401.321	28.082	817.321	649.911
402.336	28.670	816.839	651.560
403.350	28.897	817.166	652.569
404.365	29.054	816.974	652.915
405.380	29.501	816.803	654.303
406.394	29.596	815.947	653.896
407.409	29.351	815.794	652.851
408.423	29.297	815.427	652.305
409.438	29.467	815.084	652.574
410.453	29.630	814.174	652.367
411.467	29.386	813.818	651.160
412.482	29.446	813.776	651.281
413.496	29.507	813.409	651.144
414.511	29.680	812.434	650.918
415.526	29.452	812.288	649.939
416.540	29.345	811.590	648.946
417.555	29.103	810.734	647.354
418.569	29.095	810.666	647.214
419.584	29.192	809.835	646.836
420.599	28.943	809.342	645.511
421.613	109.074	1284.657	1445.687
422.628	94.264	1353.902	1445.801
