DTS Sentinel unit serial number:	SN413079Multiplexer serial number:	ORYXHardware model number:	OX4-SRSoftware version number:	ORYX F/W v4.00 Oryx Data Collector v3.7.2.0data status	okinstallation	princeton_trtdifferential loss correction	single-endedforward channel	channel 1reverse channel	N/Adate	2019/09/17time	12:06:35forward acquisition time	60.00reverse acquisition time	0.00gamma	496.2192k internal	0.2321k external	0.2321temperature offset calibration	0.9978default loss term (dB/km)	0.3790temperature slope calibration	1.0000multiplexer offset coefficient	1.0000multiplexer slope coefficient	1.0000fibre end	0.00T internal ref (°C)	31.22T ext. ref 1 (°C)	0.42T ext. ref 2 (°C)	27.55length (m)	temperature (°C)	Stokes	anti-Stokes-747.200	-112.695	0.325	-0.065
-746.185	46.288	0.310	0.291
-745.171	-0.112	0.160	-0.115
-744.156	800.000	0.098	0.356
-743.142	-200.000	-0.115	0.001
-742.127	-200.000	0.029	0.298
-741.112	-180.478	0.628	0.013
-740.098	153.996	-0.141	0.196
-739.083	-40.235	0.040	0.021
-738.069	12.402	-0.374	0.292
-737.054	-40.271	-0.126	-0.066
-736.039	-109.232	-0.322	-0.069
-735.025	138.905	0.186	0.246
-734.010	147.498	-0.153	-0.208
-732.996	-200.000	0.029	-0.287
-731.981	-101.544	-0.309	0.076
-730.966	591.821	-0.069	0.172
-729.952	217.160	-0.169	-0.271
-728.937	800.000	0.031	0.137
-727.923	-200.000	0.006	0.187
-726.908	-86.580	0.190	-0.059
-725.894	13.969	0.209	0.164
-724.879	-111.153	-0.253	0.052
-723.864	-193.843	-0.234	-0.002
-722.850	800.000	0.066	0.192
-721.835	42.221	-0.139	0.127
-720.821	182.684	0.102	0.152
-719.806	23.765	0.273	-0.227
-718.791	289.932	0.027	0.050
-717.777	107.611	-0.192	0.231
-716.762	-200.000	0.000	-0.010
-715.748	-116.855	-0.177	-0.033
-714.733	800.000	0.030	-0.134
-713.718	-114.456	-0.143	-0.028
-712.704	800.000	0.035	-0.115
-711.689	614.670	-0.107	0.271
-710.675	-200.000	-0.009	-0.171
-709.660	-106.612	-0.261	0.059
-708.645	-200.000	0.008	0.057
-707.631	-29.139	-0.138	-0.080
-706.616	499.643	0.073	0.170
-705.602	-100.945	-0.755	-0.187
-704.587	-128.539	0.177	-0.025
-703.572	326.792	0.103	0.200
-702.558	734.307	-0.152	-0.411
-701.543	8.351	-0.126	0.095
-700.529	-56.029	0.243	0.109
-699.514	6.478	0.300	0.225
-698.499	-121.053	0.319	-0.054
-697.485	2.007	0.266	-0.194
-696.470	800.000	-0.005	0.015
-695.456	0.157	0.059	-0.042
-694.441	-51.554	-0.253	0.119
-693.426	142.083	-0.105	0.140
-692.412	-14.401	-0.328	-0.213
-691.397	99.017	0.217	0.253
-690.383	-89.572	0.058	-0.017
-689.368	800.000	0.106	-0.302
-688.354	237.587	-0.261	-0.437
-687.339	521.140	-0.155	0.367
-686.324	-76.920	0.213	-0.075
-685.310	194.752	-0.120	-0.183
-684.295	-55.531	0.228	0.103
-683.281	-143.505	0.330	0.032
-682.266	-64.855	-0.086	-0.035
-681.251	-69.574	0.193	0.075
-680.237	-138.435	-0.217	-0.024
-679.222	-197.414	-0.274	0.002
-678.208	93.991	-0.100	-0.114
-677.193	-152.032	0.197	0.015
-676.178	56.539	-0.327	0.320
-675.164	214.918	0.085	-0.137
-674.149	-200.000	-0.031	0.192
-673.135	142.885	0.145	0.194
-672.120	-67.219	-0.157	-0.062
-671.105	353.403	0.011	0.022
-670.091	355.505	-0.088	-0.176
-669.076	-200.000	0.007	0.144
-668.062	336.029	0.169	-0.330
-667.047	-150.207	-0.446	-0.035
-666.032	800.000	0.065	-0.186
-665.018	-43.614	0.327	-0.166
-664.003	-81.308	-0.180	0.060
-662.989	36.972	-0.220	0.196
-661.974	-71.673	-0.129	-0.048
-660.959	-61.392	-0.191	-0.081
-659.945	369.220	0.067	-0.137
-658.930	-200.000	-0.040	-0.241
-657.916	-108.128	-0.284	0.062
-656.901	76.784	-0.297	0.317
-655.886	-64.187	0.348	-0.143
-654.872	-186.327	-0.249	-0.004
-653.857	-146.606	-0.257	-0.023
-652.843	-132.711	0.156	-0.020
-651.828	84.230	0.244	0.268
-650.814	-111.326	-0.357	0.073
-649.799	4.022	-0.191	-0.141
-648.784	-154.829	0.175	-0.012
-647.770	800.000	0.008	-0.028
-646.755	175.296	-0.081	-0.118
-645.741	-1.231	-0.138	0.098
-644.726	165.449	0.334	-0.476
-643.711	-200.000	0.013	0.382
-642.697	800.000	-0.086	-0.296
-641.682	22.061	-0.218	-0.179
-640.668	-160.575	-0.234	0.013
-639.653	88.061	-0.122	0.136
-638.638	-132.080	-0.114	0.015
-637.624	-126.347	-0.071	-0.011
-636.609	171.744	-0.076	-0.110
-635.595	-200.000	0.023	-0.193
-634.580	265.885	-0.048	-0.085
-633.565	115.074	-0.042	-0.051
-632.551	197.335	0.146	-0.225
-631.536	60.183	0.138	-0.137
-630.522	76.897	-0.082	0.088
-629.507	418.353	-0.097	-0.210
-628.492	800.000	-0.026	0.097
-627.478	800.000	0.060	0.176
-626.463	276.064	0.027	0.048
-625.449	-66.830	0.264	-0.105
-624.434	-200.000	0.012	-0.244
-623.419	-200.000	0.006	0.196
-622.405	106.956	-0.127	0.152
-621.390	-6.228	-0.116	-0.080
-620.376	-47.787	0.211	-0.103
-619.361	-6.099	-0.127	-0.087
-618.346	-200.000	-0.059	-0.291
-617.332	-68.581	-0.034	-0.013
-616.317	-200.000	0.009	0.101
-615.303	-200.000	-0.029	0.200
-614.288	111.364	0.175	0.212
-613.273	-37.960	-0.214	0.114
-612.259	790.539	-0.034	0.095
-611.244	436.063	0.037	0.080
-610.230	800.000	0.097	-0.404
-609.215	-200.000	-0.072	-0.364
-608.201	-65.023	0.120	-0.049
-607.186	-200.000	0.013	-0.167
-606.171	135.701	0.071	-0.093
-605.157	-38.507	-0.172	-0.091
-604.142	-90.937	0.103	-0.030
-603.128	-200.000	0.103	0.461
-602.113	-52.876	-0.045	0.021
-601.098	-107.386	-0.235	0.052
-600.084	-152.309	-0.238	-0.017
-599.069	-75.345	0.507	0.182
-598.055	-176.061	-0.422	-0.011
-597.040	-55.282	-0.181	0.082
-596.025	31.750	-0.085	-0.074
-595.011	150.385	-0.102	-0.139
-593.996	290.084	-0.156	0.284
-592.982	-57.410	0.074	-0.032
-591.967	-153.737	-0.505	0.035
-590.952	-41.409	-0.197	0.102
-589.938	800.000	-0.073	0.221
-588.923	-200.000	0.047	0.247
-587.909	-106.978	-0.248	-0.055
-586.894	-200.000	0.026	-0.151
-585.879	75.140	0.175	0.185
-584.865	-37.768	0.208	-0.111
-583.850	187.799	0.226	-0.340
-582.836	69.441	-0.163	0.169
-581.821	-116.546	-0.251	0.046
-580.806	-200.000	0.013	-0.113
-579.792	38.605	0.134	-0.120
-578.777	137.093	0.206	0.270
-577.763	-95.671	0.285	0.076
-576.748	-200.000	-0.020	-0.270
-575.733	-136.970	-0.203	-0.023
-574.719	82.701	0.084	-0.092
-573.704	-110.985	0.290	-0.060
-572.690	-34.394	0.027	0.015
-571.675	-200.000	-0.025	0.192
-570.661	-79.483	-0.053	-0.018
-569.646	-172.022	0.271	-0.009
-568.631	-105.909	-0.193	-0.044
-567.617	-169.607	-0.316	0.012
-566.602	95.879	0.186	0.214
-565.588	231.992	-0.089	-0.146
-564.573	344.699	0.076	-0.151
-563.558	-28.920	0.253	-0.146
-562.544	-13.073	-0.185	0.120
-561.529	616.316	0.038	0.095
-560.515	183.535	-0.160	-0.237
-559.500	88.890	0.046	-0.051
-558.485	92.185	-0.088	-0.100
-557.471	-53.532	0.379	0.174
-556.456	-34.164	-0.159	-0.088
-555.442	-130.076	0.164	0.023
-554.427	335.797	-0.074	0.143
-553.412	595.186	0.088	-0.219
-552.398	-200.000	-0.053	-0.339
-551.383	-42.823	-0.235	-0.120
-550.369	-200.000	0.004	-0.080
-549.354	-20.406	0.356	0.220
-548.339	-38.858	-0.174	0.092
-547.325	-139.281	-0.199	-0.021
-546.310	232.144	-0.026	0.043
-545.296	332.513	0.139	0.269
-544.281	-95.132	0.304	-0.082
-543.266	-52.829	-0.260	0.120
-542.252	-52.273	0.276	-0.128
-541.237	80.704	-0.192	0.208
-540.223	-200.000	-0.010	-0.087
-539.208	-23.611	-0.333	-0.200
-538.193	800.000	0.041	-0.147
-537.179	642.488	-0.073	0.187
-536.164	-200.000	0.006	-0.194
-535.150	85.168	-0.201	0.221
-534.135	-36.578	0.134	-0.072
-533.121	800.000	0.039	-0.135
-532.106	522.791	-0.021	0.050
-531.091	-200.000	-0.063	-0.285
-530.077	-22.591	0.134	0.081
-529.062	-139.524	0.347	0.037
-528.048	-30.829	-0.131	0.074
-527.033	-95.935	0.055	0.015
-526.018	317.749	-0.074	-0.140
-525.004	1.443	0.191	-0.138
-523.989	285.549	0.058	-0.105
-522.975	-77.456	-0.165	0.057
-521.960	216.375	0.064	-0.102
-520.945	-113.557	0.319	0.062
-519.931	-36.226	0.227	-0.122
-518.916	-200.000	0.019	0.153
-517.902	-200.000	-0.008	0.036
-516.887	-200.000	-0.029	-0.226
-515.872	27.385	0.313	-0.263
-514.858	301.870	-0.048	-0.089
-513.843	-163.041	0.198	0.010
-512.829	108.571	-0.099	-0.118
-511.814	-99.443	-0.216	-0.055
-510.799	800.000	0.047	-0.186
-509.785	633.688	-0.139	-0.354
-508.770	304.962	0.230	-0.427
-507.756	-37.936	0.265	-0.141
-506.741	-118.517	-0.287	0.051
-505.726	-90.679	0.462	-0.134
-504.712	-47.080	-0.085	-0.041
-503.697	800.000	-0.111	-0.400
-502.683	52.638	0.317	0.304
-501.668	-200.000	0.024	0.413
-500.653	-82.743	-0.240	0.078
-499.639	-148.614	-0.181	-0.015
-498.624	56.068	-0.016	0.016
-497.610	-1.354	0.279	-0.197
-496.595	-200.000	-0.004	-0.147
-495.581	28.407	-0.252	-0.213
-494.566	-200.000	0.008	0.079
-493.551	-39.500	0.155	-0.081
-492.537	-26.138	-0.280	-0.165
-491.522	290.112	0.147	0.268
-490.508	0.617	0.151	-0.108
-489.493	491.622	0.160	-0.366
-488.478	-200.000	-0.080	0.367
-487.464	-108.569	-0.297	-0.064
-486.449	-98.100	0.085	0.022
-485.435	-76.370	0.203	-0.072
-484.420	-200.000	-0.006	-0.365
-483.405	-84.523	0.410	0.130
-482.391	201.581	-0.133	0.205
-481.376	-76.413	0.318	-0.112
-480.362	-86.171	0.288	-0.089
-479.347	-200.000	0.005	0.107
-478.332	-126.836	-0.238	0.035
-477.318	158.203	-0.096	-0.134
-476.303	-32.292	0.178	-0.100
-475.289	145.340	-0.123	-0.165
-474.274	-82.164	0.063	-0.020
-473.259	-59.445	0.215	0.092
-472.245	123.079	-0.041	0.051
-471.230	594.812	-0.124	0.306
-470.216	800.000	-0.110	-0.311
-469.201	51.676	0.108	0.102
-468.186	98.453	0.003	-0.003
-467.172	-124.336	-0.181	-0.028
-466.157	800.000	0.151	-0.421
-465.143	505.271	0.115	0.265
-464.128	-37.993	-0.235	-0.125
-463.113	152.780	-0.255	0.348
-462.099	-200.000	-0.080	-0.382
-461.084	-167.059	0.071	0.003
-460.070	-2.495	-0.338	0.237
-459.055	141.240	-0.169	0.224
-458.040	172.050	-0.132	0.189
-457.026	-200.000	-0.034	0.156
-456.011	324.234	0.094	0.180
-454.997	57.702	0.088	0.086
-453.982	-200.000	0.026	0.160
-452.968	214.911	-0.109	0.173
-451.953	521.652	0.099	-0.232
-450.938	-200.000	0.010	-0.077
-449.924	-200.000	-0.014	0.104
-448.909	79.448	-0.123	0.132
-447.895	-7.415	-0.154	-0.104
-446.880	535.724	0.150	0.356
-445.865	-103.465	-0.145	0.034
-444.851	167.623	-0.248	-0.353
-443.836	341.174	0.065	-0.127
-442.822	178.794	0.048	0.070
-441.807	-121.555	0.046	0.008
-440.792	-98.771	0.209	0.053
-439.778	101.815	-0.206	-0.240
-438.763	248.692	-0.075	-0.127
-437.749	58.783	0.150	0.147
-436.734	172.613	0.114	-0.164
-435.719	67.936	0.187	-0.191
-434.705	1.259	0.226	-0.162
-433.690	83.795	-0.142	0.155
-432.676	-44.281	-0.281	0.140
-431.661	-125.891	0.064	0.010
-430.646	64.677	-0.030	-0.030
-429.632	206.293	0.183	0.284
-428.617	271.789	0.091	0.161
-427.603	260.973	0.184	0.319
-426.588	-46.340	0.087	-0.043
-425.573	-200.000	-0.023	-0.199
-424.559	-94.536	0.348	0.095
-423.544	37.376	-0.210	0.186
-422.530	-153.290	-0.219	0.015
-421.515	800.000	-0.103	0.317
-420.500	800.000	0.090	-0.379
-419.486	-200.000	-0.060	0.282
-418.471	-121.356	-0.182	-0.030
-417.457	-57.611	-0.034	0.015
-416.442	-87.257	-0.235	-0.071
-415.428	150.219	-0.154	-0.209
-414.413	-56.974	-0.146	-0.064
-413.398	29.071	-0.037	-0.031
-412.384	91.494	-0.129	0.145
-411.369	800.000	-0.050	0.216
-410.355	78.980	-0.071	0.076
-409.340	-200.000	0.010	-0.264
-408.325	-114.279	-0.278	0.054
-407.311	-84.712	-0.136	0.043
-406.296	-200.000	0.040	0.215
-405.282	-200.000	0.035	-0.309
-404.267	-186.243	0.179	-0.003
-403.252	800.000	0.060	0.199
-402.238	565.862	-0.093	0.225
-401.223	-200.000	0.077	0.464
-400.209	-26.289	-0.014	-0.008
-399.194	-43.213	-0.302	-0.153
-398.179	-200.000	-0.015	-0.129
-397.165	6.577	0.225	0.167
-396.150	-78.982	0.188	-0.064
-395.136	-200.000	0.001	-0.544
-394.121	-117.757	0.342	0.061
-393.106	-200.000	-0.027	0.290
-392.092	-31.650	0.165	0.093
-391.077	-114.646	-0.038	0.007
-390.063	-6.313	-0.089	0.061
-389.048	-161.430	0.059	-0.003
-388.033	800.000	-0.030	0.095
-387.019	-110.113	-0.012	-0.002
-386.004	-200.000	0.044	0.199
-384.990	115.284	0.057	-0.069
-383.975	-151.581	0.134	-0.010
-382.960	16.040	-0.159	-0.125
-381.946	-27.240	-0.146	0.085
-380.931	-200.000	-0.013	0.297
-379.917	48.999	-0.334	0.313
-378.902	-125.534	0.093	-0.014
-377.888	-200.000	0.001	-0.106
-376.873	800.000	-0.052	0.223
-375.858	145.904	0.052	0.069
-374.844	209.009	-0.078	0.122
-373.829	206.535	-0.216	0.335
-372.815	-16.062	0.180	-0.114
-371.800	136.432	-0.373	0.485
-370.785	205.410	0.018	0.027
-369.771	-200.000	0.011	-0.222
-368.756	352.393	-0.115	0.227
-367.742	-21.699	0.080	0.049
-366.727	-138.905	0.274	0.030
-365.712	-176.738	0.161	0.004
-364.698	208.307	0.161	0.251
-363.683	31.775	-0.230	0.197
-362.669	-200.000	-0.023	0.183
-361.654	-136.066	0.242	0.028
-360.639	311.409	0.075	-0.140
-359.625	-113.601	-0.205	0.040
-358.610	-200.000	-0.082	-0.364
-357.596	688.132	0.108	-0.280
-356.581	-48.321	0.150	-0.072
-355.566	-46.750	0.217	0.106
-354.552	24.543	-0.065	-0.054
-353.537	-80.217	0.138	0.046
-352.523	-28.242	0.041	0.024
-351.508	644.839	-0.110	-0.279
-350.493	-98.440	0.196	0.050
-349.479	-77.719	0.170	0.059
-348.464	345.527	0.047	0.091
-347.450	-200.000	-0.005	0.353
-346.435	-125.327	0.070	0.011
-345.420	-15.221	-0.167	-0.106
-344.406	171.861	0.078	0.111
-343.391	-200.000	0.048	-0.276
-342.377	429.741	-0.155	-0.334
-341.362	800.000	-0.031	-0.131
-340.348	262.930	-0.072	0.125
-339.333	-85.642	0.330	-0.102
-338.318	-200.000	0.060	-0.264
-337.304	186.544	0.138	-0.204
-336.289	800.000	-0.041	-0.175
-335.275	-45.347	-0.070	0.034
-334.260	-200.000	0.002	-0.148
-333.245	-200.000	0.066	-0.327
-332.231	293.272	0.056	-0.102
-331.216	-69.634	-0.181	0.069
-330.202	-4.969	0.216	0.148
-329.187	-143.655	0.130	0.012
-328.172	-200.000	0.002	-0.197
-327.158	47.577	0.036	-0.033
-326.143	-37.658	-0.213	0.113
-325.129	-200.000	0.012	0.144
-324.114	-200.000	-0.013	0.073
-323.099	458.037	-0.151	0.333
-322.085	268.461	0.143	0.250
-321.070	-200.000	-0.006	0.102
-320.056	-200.000	-0.008	-0.087
-319.041	435.741	0.160	0.346
-318.026	-119.590	-0.315	-0.054
-317.012	-122.084	0.252	-0.041
-315.997	-200.000	-0.064	-0.345
-314.983	-37.063	-0.085	-0.045
-313.968	-200.000	0.008	-0.181
-312.953	800.000	0.027	0.084
-311.939	-150.645	0.191	0.015
-310.924	37.707	0.199	-0.176
-309.910	-48.293	0.098	-0.047
-308.895	800.000	-0.091	0.259
-307.880	-76.570	0.293	-0.102
-306.866	62.447	-0.131	-0.130
-305.851	-200.000	0.023	0.282
-304.837	-193.227	0.263	0.002
-303.822	81.389	-0.078	-0.083
-302.807	-79.820	-0.175	-0.058
-301.793	-100.817	0.059	-0.014
-300.778	529.063	0.097	0.227
-299.764	-151.376	-0.154	0.011
-298.749	376.010	0.009	0.018
-297.735	32.622	-0.096	0.082
-296.720	247.051	-0.085	-0.142
-295.705	248.831	-0.105	-0.176
-294.691	800.000	0.089	0.341
-293.676	57.059	0.056	-0.054
-292.662	1.856	-0.116	0.083
-291.647	-200.000	-0.080	0.366
-290.632	-145.352	-0.107	0.010
-289.618	-200.000	-0.001	0.097
-288.603	-131.670	-0.175	0.023
-287.589	-200.000	-0.008	0.048
-286.574	105.913	0.081	-0.095
-285.559	62.211	-0.149	-0.147
-284.545	408.827	0.204	-0.430
-283.530	563.308	0.071	0.171
-282.516	54.565	0.064	0.061
-281.501	-200.000	0.021	0.097
-280.486	-139.523	0.348	-0.037
-279.472	-76.854	0.156	0.054
-278.457	475.750	-0.082	-0.185
-277.443	-82.578	-0.260	-0.084
-276.428	-42.576	0.270	0.137
-275.413	-72.116	-0.099	-0.037
-274.399	-2.217	0.525	0.366
-273.384	-112.034	-0.149	0.030
-272.370	-99.082	-0.301	-0.076
-271.355	-63.780	0.214	-0.087
-270.340	62.973	0.191	-0.190
-269.326	-84.311	-0.156	-0.049
-268.311	-161.745	-0.245	-0.012
-267.297	407.340	-0.013	0.026
-266.282	-200.000	-0.006	-0.178
-265.267	800.000	0.012	-0.039
-264.253	-166.091	-0.041	0.002
-263.238	-88.093	0.239	0.071
-262.224	21.747	0.044	-0.035
-261.209	-166.146	0.066	0.003
-260.195	-41.765	-0.082	-0.042
-259.180	-116.269	0.392	0.072
-258.165	76.673	-0.104	-0.109
-257.151	-57.262	0.079	-0.034
-256.136	31.714	-0.056	-0.048
-255.122	258.738	0.153	0.262
-254.107	-81.633	0.112	0.036
-253.092	342.023	-0.123	-0.238
-252.078	-180.193	0.075	0.002
-251.063	153.321	-0.121	0.164
-250.049	157.185	0.145	-0.199
-249.034	-200.000	-0.010	-0.117
-248.019	117.679	0.185	0.226
-247.005	-138.580	0.188	-0.020
-245.990	-3.876	-0.217	-0.150
-244.976	-84.209	-0.351	-0.110
-243.961	-200.000	0.026	0.185
-242.946	168.583	0.125	-0.176
-241.932	-147.867	0.096	0.008
-240.917	800.000	-0.047	0.160
-239.903	-142.387	-0.119	0.012
-238.888	97.054	-0.044	-0.050
-237.873	-137.740	-0.174	-0.019
-236.859	-89.322	0.115	-0.034
-235.844	225.064	-0.111	-0.178
-234.830	-0.110	-0.206	-0.145
-233.815	127.233	-0.266	-0.334
-232.800	181.184	-0.089	-0.130
-231.786	-200.000	-0.021	0.270
-230.771	-67.897	0.081	0.031
-229.757	98.164	0.224	0.256
-228.742	-167.765	0.283	0.011
-227.727	-167.515	-0.283	-0.011
-226.713	-20.492	-0.099	-0.060
-225.698	529.962	-0.146	-0.341
-224.684	261.188	-0.160	-0.275
-223.669	-6.991	-0.234	-0.157
-222.655	-86.792	-0.205	-0.062
-221.640	-50.193	0.218	0.102
-220.625	113.772	0.289	0.347
-219.611	-200.000	-0.086	0.416
-218.596	277.452	0.129	0.226
-217.582	41.219	0.221	0.198
-216.567	-149.269	-0.219	0.017
-215.552	21.736	-0.029	-0.023
-214.538	-59.891	-0.143	-0.060
-213.523	142.401	0.248	0.326
-212.509	-122.385	-0.441	0.071
-211.494	-200.000	0.015	-0.173
-210.479	-87.108	-0.097	0.029
-209.465	107.711	-0.304	0.358
-208.450	-109.374	0.132	-0.028
-207.436	-34.724	0.099	-0.054
-206.421	-200.000	-0.011	-0.237
-205.406	676.840	0.079	-0.204
-204.392	36.285	0.328	0.286
-203.377	-200.000	0.002	0.060
-202.363	78.389	0.282	-0.298
-201.348	-200.000	0.096	0.000
-200.333	-72.205	-0.176	-0.065
-199.319	-90.032	0.281	-0.081
-198.304	-16.265	-0.310	0.195
-197.290	15.300	-0.175	0.136
-196.275	-95.651	0.139	-0.037
-195.260	536.020	0.156	-0.367
-194.246	-158.370	0.025	0.001
-193.231	-28.344	0.075	-0.043
-192.217	83.080	0.259	0.279
-191.202	800.000	-0.113	0.441
-190.187	483.742	-0.043	0.096
-189.173	-39.976	0.144	0.074
-188.158	257.490	-0.062	0.106
-187.144	93.775	-0.127	-0.143
-186.129	236.417	-0.070	0.115
-185.114	676.698	-0.114	0.294
-184.100	-93.375	0.275	0.075
-183.085	116.608	-0.205	-0.249
-182.071	435.862	0.143	0.307
-181.056	7.642	-0.236	-0.175
-180.042	-200.000	0.063	0.410
-179.027	359.602	-0.203	-0.402
-178.012	-45.739	-0.204	-0.100
-176.998	-109.923	0.183	-0.038
-175.983	148.948	-0.041	0.055
-174.969	-70.561	-0.330	-0.124
-173.954	89.525	-0.153	-0.169
-172.939	-22.470	-0.049	-0.029
-171.925	-131.342	-0.153	-0.020
-170.910	-90.096	-0.253	0.073
-169.896	800.000	0.096	0.282
-168.881	-200.000	0.038	-0.239
-167.866	-23.203	-0.414	-0.246
-166.852	-89.759	-0.124	-0.036
-165.837	-135.550	0.409	0.048
-164.823	-55.048	0.334	0.148
-163.808	526.346	-0.175	0.408
-162.793	-200.000	0.019	0.166
-161.779	-107.410	0.197	0.043
-160.764	212.051	-0.069	-0.107
-159.750	18.706	0.099	0.078
-158.735	-144.583	0.115	0.010
-157.720	-200.000	0.034	0.335
-156.706	-131.820	-0.118	0.015
-155.691	-200.000	0.002	0.119
-154.677	-62.330	-0.305	0.126
-153.662	-98.170	0.229	0.058
-152.647	-153.033	-0.309	-0.021
-151.633	24.428	0.304	-0.248
-150.618	-19.163	0.083	-0.051
-149.604	348.033	0.128	0.249
-148.589	-58.727	-0.145	-0.062
-147.574	-200.000	0.006	-0.196
-146.560	-86.425	0.004	-0.001
-145.545	-173.512	0.238	0.007
-144.531	800.000	0.025	-0.101
-143.516	-77.318	0.079	-0.027
-142.502	-156.018	-0.220	0.014
-141.487	-114.244	-0.325	-0.062
-140.472	41.795	0.203	-0.182
-139.458	219.926	-0.128	-0.202
-138.443	162.160	-0.113	0.156
-137.429	-23.588	0.091	-0.054
-136.414	-200.000	-0.097	0.434
-135.399	800.000	0.028	-0.109
-134.385	214.440	-0.140	0.219
-133.370	15.222	0.073	0.056
-132.356	-26.992	-0.112	0.065
-131.341	82.904	-0.247	-0.265
-130.326	93.867	-0.149	-0.167
-129.312	161.193	0.078	-0.108
-128.297	-51.777	-0.335	-0.154
-127.283	800.000	-0.068	-0.226
-126.268	305.896	-0.149	0.274
-125.253	306.101	-0.005	-0.010
-124.239	266.809	0.138	-0.238
-123.224	-18.741	0.202	-0.124
-122.210	91.845	-0.213	-0.236
-121.195	244.387	-0.086	0.143
-120.180	-200.000	-0.006	0.098
-119.166	-200.000	-0.043	-0.276
-118.151	800.000	0.041	-0.134
-117.137	-171.495	0.151	-0.005
-116.122	93.212	0.007	-0.008
-115.107	-107.784	0.219	0.047
-114.093	-200.000	0.019	0.476
-113.078	38.786	-0.054	0.047
-112.064	-200.000	0.037	-0.333
-111.049	72.405	-0.304	0.312
-110.034	135.543	0.178	-0.228
-109.020	-184.620	-0.172	-0.003
-108.005	-111.834	0.205	-0.041
-106.991	10.939	0.170	-0.128
-105.976	-172.990	0.276	0.008
-104.962	800.000	0.050	0.137
-103.947	-176.733	-0.411	-0.010
-102.932	-118.938	-0.067	0.012
-101.918	800.000	-0.063	0.178
-100.903	244.190	0.091	-0.151
-99.889	-150.825	0.357	-0.027
-98.874	-200.000	-0.013	0.286
-97.859	-200.000	-0.078	0.524
-96.845	41.844	-0.076	0.068
-95.830	84.050	-0.084	-0.091
-94.816	356.890	-0.050	-0.099
-93.801	-134.938	0.246	0.029
-92.786	-77.281	0.207	0.071
-91.772	800.000	-0.078	0.243
-90.757	800.000	-0.068	0.249
-89.743	-200.000	0.122	-0.001
-88.728	-47.000	0.421	0.203
-87.713	399.435	0.129	0.266
-86.699	30.609	-0.127	0.107
-85.684	-200.000	-0.010	-0.151
-84.670	84.020	-0.117	0.126
-83.655	287.738	-0.083	0.149
-82.640	139.650	0.081	-0.105
-81.626	69.729	-0.141	-0.143
-80.611	163.474	0.138	-0.191
-79.597	64.602	0.180	0.179
-78.582	335.784	0.067	-0.127
-77.567	-86.369	-0.387	0.117
-76.553	-48.825	0.151	0.071
-75.538	800.000	-0.020	0.066
-74.524	-200.000	-0.002	-0.071
-73.509	-74.094	0.317	0.113
-72.494	-1.022	-0.201	0.140
-71.480	-107.042	-0.128	0.028
-70.465	-103.450	0.351	0.081
-69.451	-69.280	0.120	-0.045
-68.436	800.000	0.073	-0.244
-67.422	-36.737	0.199	0.105
-66.407	-69.772	0.284	-0.107
-65.392	-94.447	0.117	0.031
-64.378	-176.000	0.174	0.005
-63.363	-107.134	0.082	-0.018
-62.349	-200.000	0.062	0.320
-61.334	115.918	-0.654	-0.788
-60.319	450.209	0.294	0.639
-59.305	-200.000	-0.138	-0.969
-58.290	800.000	0.535	1.483
-57.276	234.098	0.706	1.145
-56.261	-200.000	96.206	594.726
-55.246	535.655	1403.660	3276.682
-54.232	156.265	2585.206	3509.470
-53.217	113.191	2162.982	2581.243
-52.203	43.533	1612.098	1450.287
-51.188	34.853	1345.325	1157.960
-50.173	31.628	1303.227	1102.722
-49.159	54.715	1350.230	1281.229
-48.144	56.394	1366.982	1307.114
-47.130	35.001	1326.387	1142.362
-46.115	31.460	1308.809	1106.275
-45.100	31.143	1303.955	1100.258
-44.086	31.088	1301.474	1097.800
-43.071	31.210	1299.136	1096.501
-42.057	31.054	1296.947	1093.694
-41.042	31.234	1295.150	1093.189
-40.027	31.157	1294.153	1091.852
-39.013	31.100	1292.346	1089.952
-37.998	31.250	1289.871	1088.694
-36.984	31.179	1288.543	1087.117
-35.969	31.147	1287.132	1085.699
-34.954	31.305	1285.004	1084.779
-33.940	31.252	1283.814	1083.426
-32.925	31.235	1282.710	1082.349
-31.911	31.390	1281.043	1081.797
-30.896	31.232	1280.076	1080.024
-29.881	31.333	1278.507	1079.242
-28.867	31.341	1277.067	1078.029
-27.852	31.371	1275.025	1076.435
-26.838	31.418	1273.437	1075.324
-25.823	31.332	1272.576	1074.061
-24.809	31.359	1271.066	1072.898
-23.794	31.315	1270.162	1071.841
-22.779	31.309	1268.334	1070.220
-21.765	31.354	1267.344	1069.599
-20.750	31.341	1265.743	1068.133
-19.736	31.195	1264.764	1066.428
-18.721	31.098	1264.247	1065.395
-17.706	31.139	1262.687	1064.273
-16.692	31.228	1260.926	1063.251
-15.677	31.234	1260.003	1062.469
-14.663	31.185	1258.663	1061.017
-13.648	31.171	1257.708	1060.092
-12.633	31.131	1256.862	1059.107
-11.619	31.084	1256.195	1058.239
-10.604	31.263	1254.610	1057.872
-9.590	31.080	1254.085	1056.354
-8.575	31.031	1253.640	1055.660
-7.560	31.121	1252.274	1054.974
-6.546	31.109	1251.791	1054.459
-5.531	31.032	1251.286	1053.555
-4.517	31.078	1249.849	1052.567
-3.502	31.198	1248.890	1052.392
-2.487	31.245	1247.966	1051.834
-1.473	31.213	1244.242	1048.477
-0.458	30.036	1230.116	1029.989
0.556	25.384	1213.118	993.887
1.571	21.757	1218.585	978.072
2.586	20.623	1233.556	983.595
3.600	20.345	1222.102	972.815
4.615	14.953	1148.740	885.857
5.629	5.390	1071.224	778.582
6.644	0.757	1050.309	740.652
7.659	0.290	1047.945	736.641
8.673	0.252	1047.167	735.841
9.688	0.382	1045.279	735.084
10.702	0.495	1043.883	734.587
11.717	6.199	1050.982	767.413
12.731	14.721	1062.632	817.738
13.746	17.873	1065.846	835.595
14.761	17.217	1064.360	831.148
15.775	16.282	1061.762	824.483
16.790	15.252	1059.966	817.993
17.804	14.601	1058.656	813.733
18.819	14.176	1057.549	810.743
19.834	13.924	1056.012	808.265
20.848	13.735	1055.330	806.751
21.863	13.492	1054.761	805.063
22.877	13.352	1053.716	803.517
23.892	13.354	1053.163	803.032
24.907	13.271	1052.650	802.166
25.921	13.272	1051.739	801.406
26.936	13.366	1050.885	801.142
27.950	13.341	1049.986	800.265
28.965	13.422	1049.336	800.090
29.980	13.622	1047.420	799.523
30.994	13.488	1046.680	798.243
32.009	13.563	1045.663	797.758
33.023	13.581	1044.761	797.083
34.038	13.555	1043.748	796.116
35.053	13.490	1042.660	794.903
36.067	13.328	1042.216	793.719
37.082	13.459	1041.332	793.602
38.096	13.637	1040.171	793.500
39.111	13.572	1039.331	792.476
40.126	13.479	1038.476	791.309
41.140	13.367	1037.475	789.943
42.155	13.227	1035.802	787.934
43.169	13.279	1034.950	787.464
44.184	13.296	1034.125	786.844
45.199	13.247	1032.986	785.676
46.213	13.222	1031.650	784.470
47.228	13.311	1031.154	784.446
48.242	13.396	1029.744	783.707
49.257	13.440	1028.431	782.847
50.271	13.408	1027.823	782.167
51.286	13.320	1027.497	781.430
52.301	13.466	1026.106	780.996
53.315	13.322	1025.211	779.565
54.330	13.248	1024.703	778.759
55.344	13.428	1023.365	778.521
56.359	13.256	1022.805	777.216
57.374	13.329	1021.610	776.583
58.388	13.301	1020.943	775.874
59.403	13.378	1019.787	775.292
60.417	13.281	1018.580	773.848
61.432	13.322	1018.052	773.572
62.447	13.267	1017.404	772.753
63.461	13.173	1016.682	771.698
64.476	13.327	1015.894	771.749
65.490	13.166	1014.813	770.109
66.505	13.290	1014.281	770.219
67.520	13.319	1013.771	769.898
68.534	13.225	1013.224	768.976
69.549	13.161	1012.572	768.115
70.563	13.266	1011.249	767.530
71.578	13.156	1010.768	766.587
72.593	13.216	1010.046	766.249
73.607	13.109	1009.320	765.136
74.622	13.285	1008.354	765.152
75.636	13.149	1008.075	764.243
76.651	13.355	1006.502	763.935
77.666	13.217	1006.576	763.283
78.680	13.173	1005.889	762.492
79.695	13.081	1005.784	761.922
80.709	13.309	1004.582	761.993
81.724	13.266	1003.759	761.103
82.739	13.285	1003.333	760.800
83.753	13.422	1002.231	760.527
84.768	13.477	1000.730	759.575
85.782	13.449	1000.518	759.216
86.797	13.408	999.940	758.525
87.812	13.424	998.753	757.631
88.826	13.332	997.563	756.239
89.841	13.431	996.529	755.839
90.855	13.440	995.843	755.295
91.870	13.324	995.342	754.320
92.884	13.410	994.592	754.077
93.899	13.458	993.497	753.396
94.914	13.476	992.817	752.897
95.928	13.526	992.145	752.546
96.943	13.525	991.200	751.761
97.957	13.447	990.381	750.719
98.972	13.528	989.773	750.557
99.987	13.579	988.286	749.596
101.001	13.429	987.498	748.255
102.016	13.426	986.664	747.540
103.030	13.442	986.424	747.368
104.045	13.423	985.313	746.372
105.060	13.445	984.461	745.758
106.074	13.429	983.166	744.642
107.089	13.296	982.737	743.653
108.103	13.289	981.859	742.889
109.118	13.315	980.669	742.042
110.133	13.244	980.039	741.180
111.147	13.341	978.824	740.630
112.162	13.363	978.375	740.324
113.176	13.557	977.496	740.461
114.191	13.423	976.594	739.112
115.206	13.371	975.978	738.348
116.220	13.455	974.933	737.870
117.235	13.319	974.526	736.886
118.249	13.451	973.303	736.486
119.264	13.424	972.804	735.921
120.279	13.401	971.950	735.108
121.293	13.386	971.029	734.279
122.308	13.432	969.913	733.576
123.322	13.300	969.277	732.444
124.337	13.242	968.391	731.454
125.352	13.259	967.182	730.553
126.366	13.373	966.173	730.228
127.381	13.473	964.513	729.350
128.395	13.347	964.293	728.565
129.410	13.438	963.438	728.252
130.424	13.477	961.924	727.215
131.439	13.564	961.181	726.972
132.454	13.427	960.809	726.024
133.468	13.446	960.260	725.629
134.483	13.455	959.175	724.786
135.497	13.308	958.694	723.713
136.512	13.598	957.462	723.986
137.527	13.548	956.426	722.923
138.541	13.529	956.128	722.551
139.556	13.427	955.301	721.417
140.570	13.598	954.604	721.573
141.585	13.603	953.765	720.893
142.600	13.405	953.026	719.413
143.614	13.610	951.972	719.441
144.629	13.619	951.324	718.926
145.643	13.773	950.413	718.845
146.658	13.628	949.115	717.171
147.673	13.532	948.305	716.079
148.687	13.622	947.430	715.745
149.702	13.625	946.462	714.963
150.716	13.525	945.999	714.120
151.731	13.524	945.649	713.788
152.746	13.615	944.514	713.257
153.760	13.601	944.054	712.787
154.775	13.672	943.549	712.650
155.789	13.641	942.545	711.694
156.804	13.690	942.396	711.729
157.819	13.727	941.824	711.392
158.833	13.865	940.677	711.054
159.848	13.758	940.260	710.219
160.862	13.800	938.592	709.077
161.877	13.833	937.765	708.529
162.892	13.576	937.380	707.080
163.906	13.659	936.150	706.442
164.921	13.649	935.333	705.721
165.935	13.686	934.470	705.162
166.950	13.853	933.545	705.112
167.964	13.750	932.947	704.162
168.979	13.745	931.966	703.339
169.994	13.782	931.022	702.720
171.008	13.721	930.587	702.074
172.023	13.956	929.689	702.324
173.037	13.840	929.265	701.452
174.052	13.886	928.171	700.761
175.067	13.772	927.875	699.994
176.081	13.761	927.342	699.481
177.096	13.804	926.807	699.196
178.110	13.802	926.055	698.562
179.125	13.732	925.717	697.949
180.140	13.896	925.011	698.046
181.154	13.845	924.427	697.328
182.169	13.988	924.361	697.816
183.183	13.967	923.293	696.861
184.198	14.041	922.631	696.609
185.213	13.943	921.932	695.609
186.227	13.966	921.109	695.025
187.242	14.088	920.194	694.781
188.256	14.061	920.003	694.463
189.271	14.096	919.364	694.067
190.286	13.854	918.991	692.711
191.300	13.796	917.668	691.410
192.315	13.777	917.195	690.916
193.329	13.756	917.064	690.668
194.344	13.888	916.259	690.549
195.359	13.890	915.614	690.011
196.373	14.087	914.979	690.291
197.388	14.158	914.026	689.804
198.402	14.074	913.824	689.242
199.417	14.289	913.048	689.486
200.432	14.281	912.862	689.250
201.446	14.235	911.960	688.319
202.461	14.344	911.640	688.470
203.475	14.346	911.173	688.064
204.490	14.364	910.105	687.268
205.504	14.202	909.526	686.105
206.519	14.135	909.013	685.378
207.534	14.212	908.118	684.960
208.548	14.229	907.470	684.481
209.563	14.199	906.912	683.877
210.577	14.250	906.688	683.857
211.592	14.440	905.666	683.804
212.607	14.462	904.757	683.147
213.621	14.349	904.344	682.312
214.636	14.403	903.191	681.605
215.650	14.445	902.334	681.067
216.665	14.414	902.098	680.704
217.680	14.511	901.161	680.333
218.694	14.521	900.394	679.735
219.709	14.483	899.946	679.181
220.723	14.506	898.891	678.418
221.738	14.475	898.353	677.826
222.753	14.476	897.978	677.487
223.767	14.542	897.565	677.384
224.782	14.568	896.952	676.965
225.796	14.630	896.172	676.571
226.811	14.621	895.703	676.120
227.826	14.495	894.920	674.959
228.840	14.512	894.402	674.576
229.855	14.535	893.371	673.830
230.869	14.524	892.878	673.357
231.884	14.503	892.309	672.783
232.899	14.580	891.481	672.410
233.913	14.494	890.701	671.417
234.928	14.541	890.119	671.105
235.942	14.663	889.771	671.276
236.957	14.453	889.342	670.047
237.972	14.472	888.446	669.388
238.986	14.656	887.648	669.468
240.001	14.577	887.125	668.698
241.015	14.701	886.244	668.469
242.030	14.731	885.903	668.274
243.045	14.644	885.418	667.500
244.059	14.614	884.794	666.850
245.074	14.646	884.228	666.492
246.088	14.645	883.862	666.154
247.103	14.783	882.800	665.846
248.117	14.871	882.089	665.601
249.132	14.891	882.208	665.713
250.147	14.899	881.398	665.073
251.161	14.940	880.563	664.545
252.176	15.065	879.748	664.369
253.190	15.007	879.196	663.662
254.205	15.115	878.440	663.464
255.220	15.115	877.962	663.044
256.234	15.098	877.638	662.670
257.249	15.220	876.675	662.367
258.263	15.071	876.097	661.284
259.278	15.154	875.095	660.797
260.293	15.112	874.828	660.370
261.307	15.221	874.117	660.204
262.322	15.328	873.562	660.151
263.336	15.311	872.788	659.440
264.351	15.377	871.862	658.942
265.366	15.378	871.189	658.376
266.380	15.414	870.790	658.159
267.395	15.250	870.191	657.005
268.409	15.191	869.551	656.232
269.424	15.310	868.152	655.585
270.439	15.318	867.446	655.026
271.453	15.210	867.377	654.494
272.468	15.256	866.771	654.158
273.482	15.292	866.043	653.689
274.497	15.319	865.939	653.659
275.512	15.312	865.188	653.008
276.526	15.313	864.579	652.493
277.541	15.343	864.343	652.375
278.555	15.444	863.705	652.227
279.570	15.647	862.533	652.074
280.585	15.517	861.742	650.914
281.599	15.474	860.976	650.108
282.614	15.438	860.605	649.633
283.628	15.556	859.898	649.498
284.643	15.544	859.441	649.050
285.657	15.554	858.454	648.287
286.672	15.491	857.961	647.612
287.687	15.518	857.512	647.320
288.701	15.441	857.438	646.908
289.716	15.709	856.019	646.814
290.730	15.646	855.739	646.304
291.745	15.697	855.187	646.023
292.760	15.531	854.659	644.932
293.774	15.884	853.862	645.626
294.789	15.733	853.548	644.751
295.803	15.725	852.835	644.128
296.818	15.714	851.972	643.376
297.833	15.637	851.520	642.683
298.847	15.632	850.752	642.027
299.862	15.721	850.407	642.051
300.876	15.770	849.912	641.807
301.891	15.777	849.175	641.219
302.906	15.782	848.461	640.643
303.920	15.846	848.410	640.793
304.935	15.896	847.708	640.396
305.949	15.866	846.919	639.628
306.964	15.936	846.354	639.409
307.979	15.917	845.794	638.860
308.993	15.954	845.651	638.833
310.008	15.893	844.800	637.906
311.022	15.944	844.154	637.552
312.037	15.982	843.197	636.917
313.052	15.972	842.833	636.548
314.066	15.971	842.464	636.208
315.081	15.913	842.058	635.630
316.095	15.956	841.083	634.999
317.110	15.977	840.815	634.816
318.125	15.873	840.256	633.949
319.139	15.863	840.195	633.809
320.154	15.967	839.289	633.461
321.168	15.941	838.828	632.957
322.183	16.010	838.379	632.822
323.197	15.974	837.614	632.056
324.212	16.017	837.157	631.814
325.227	16.216	836.273	631.837
326.241	16.023	835.945	630.812
327.256	15.864	835.551	629.863
328.270	16.170	834.533	630.184
329.285	16.008	834.300	629.346
330.300	16.003	833.441	628.622
331.314	16.050	833.218	628.577
332.329	16.211	832.424	628.521
333.343	16.257	832.093	628.388
334.358	16.047	832.048	627.516
335.373	16.232	831.423	627.675
336.387	16.301	831.188	627.701
337.402	16.169	831.160	627.131
338.416	16.148	830.811	626.735
339.431	16.323	830.196	626.864
340.446	16.222	830.276	626.496
341.460	16.322	829.617	626.313
342.475	16.230	829.050	625.490
343.489	16.497	828.379	625.915
344.504	16.604	827.523	625.610
345.519	16.536	827.426	625.230
346.533	16.482	826.915	624.590
347.548	16.477	826.311	624.058
348.562	16.443	825.944	623.600
349.577	16.347	825.331	622.730
350.592	16.553	824.667	622.931
351.606	16.530	823.833	622.161
352.621	16.395	823.227	621.152
353.635	16.523	822.777	621.229
354.650	16.486	822.051	620.490
355.665	16.374	821.733	619.783
356.679	16.480	821.109	619.647
357.694	16.629	820.174	619.433
358.708	16.498	819.673	618.520
359.723	16.523	819.156	618.167
360.738	16.619	818.422	617.908
361.752	16.647	817.810	617.495
362.767	16.853	817.287	617.796
363.781	16.835	816.402	617.007
364.796	16.788	816.550	616.894
365.810	16.944	815.943	616.945
366.825	16.827	815.715	616.294
367.840	16.797	815.063	615.639
368.854	16.815	814.606	615.305
369.869	16.803	814.187	614.888
370.883	16.650	814.015	614.150
371.898	16.923	813.719	614.861
372.913	16.747	813.435	613.955
373.927	16.843	812.495	613.537
374.942	16.880	812.235	613.421
375.956	17.065	811.322	613.346
376.971	17.044	811.108	613.054
377.986	16.962	810.752	612.436
379.000	17.160	809.899	612.452
380.015	17.160	809.482	612.083
381.029	17.079	809.376	611.657
382.044	17.156	808.608	611.296
383.059	17.193	807.841	610.798
384.073	17.217	807.354	610.463
385.088	17.135	806.789	609.684
386.102	17.125	806.670	609.506
387.117	17.109	805.866	608.786
388.132	17.092	805.131	608.118
389.146	17.211	804.564	608.060
390.161	17.258	804.077	607.805
391.175	17.223	803.845	607.454
392.190	17.379	803.075	607.373
393.205	17.248	802.770	606.620
394.219	17.115	802.626	605.986
395.234	17.134	802.212	605.686
396.248	17.202	801.882	605.625
397.263	17.089	801.625	604.975
398.278	17.006	801.375	604.437
399.292	17.236	800.440	604.499
400.307	17.216	799.820	603.903
401.321	17.165	799.533	603.452
402.336	17.226	799.444	603.550
403.350	17.342	798.692	603.341
404.365	17.326	798.140	602.814
405.380	17.504	797.356	602.798
406.394	17.360	797.396	602.265
407.409	17.471	796.678	602.061
408.423	17.473	796.402	601.805
409.438	17.527	796.238	601.819
410.453	17.470	795.789	601.225
411.467	17.376	795.424	600.565
412.482	17.572	795.021	600.899
413.496	17.650	794.427	600.673
414.511	17.641	793.991	600.257
415.526	17.560	793.561	599.595
416.540	17.726	792.980	599.687
417.555	17.699	792.286	599.014
418.569	17.640	792.065	598.587
419.584	17.710	791.936	598.683
420.599	17.724	791.251	598.159
421.613	108.685	1287.742	1461.466
422.628	93.320	1360.072	1461.573
