DTS Sentinel unit serial number:	SN413079Multiplexer serial number:	ORYXHardware model number:	OX4-SRSoftware version number:	ORYX F/W v4.00 Oryx Data Collector v3.7.2.0data status	okinstallation	princeton_trtdifferential loss correction	single-endedforward channel	channel 1reverse channel	N/Adate	2019/09/12time	21:10:35forward acquisition time	60.00reverse acquisition time	0.00gamma	496.2192k internal	0.2326k external	0.2326temperature offset calibration	1.0145default loss term (dB/km)	0.3790temperature slope calibration	1.0000multiplexer offset coefficient	1.0000multiplexer slope coefficient	1.0000fibre end	0.00T internal ref (°C)	30.70T ext. ref 1 (°C)	3.59T ext. ref 2 (°C)	25.25length (m)	temperature (°C)	Stokes	anti-Stokes-747.200	-41.213	-0.293	-0.153
-746.185	800.000	0.047	0.158
-745.171	-176.757	-0.258	0.007
-744.156	-19.761	0.145	0.091
-743.142	-128.563	0.175	0.025
-742.127	104.765	-0.159	0.189
-741.112	-35.714	-0.114	-0.062
-740.098	28.785	0.090	-0.077
-739.083	262.409	-0.073	0.128
-738.069	-54.876	-0.312	0.142
-737.054	-200.000	-0.006	-0.358
-736.039	518.072	-0.107	-0.252
-735.025	-79.438	0.401	0.137
-734.010	210.763	-0.312	-0.495
-732.996	-65.222	-0.444	-0.180
-731.981	-133.733	0.026	-0.003
-730.966	173.181	0.192	-0.278
-729.952	-44.370	0.145	-0.073
-728.937	-14.949	-0.259	-0.168
-727.923	-200.000	-0.024	-0.216
-726.908	-33.979	-0.064	0.036
-725.894	-95.424	-0.177	-0.048
-724.879	26.334	-0.178	-0.150
-723.864	-18.413	-0.160	-0.100
-722.850	87.310	0.126	-0.140
-721.835	-123.492	-0.250	-0.040
-720.821	-200.000	-0.021	-0.177
-719.806	302.292	0.037	-0.070
-718.791	153.368	-0.133	0.184
-717.777	542.088	-0.064	-0.153
-716.762	168.881	0.126	-0.182
-715.748	-81.449	-0.110	0.037
-714.733	800.000	0.059	0.248
-713.718	302.907	-0.075	0.140
-712.704	-37.537	0.166	-0.089
-711.689	800.000	0.078	-0.289
-710.675	-75.227	0.258	0.093
-709.660	182.017	-0.187	-0.278
-708.645	-200.000	-0.045	0.273
-707.631	55.928	0.192	0.188
-706.616	-1.933	-0.137	-0.097
-705.602	-122.486	-0.252	-0.041
-704.587	-189.237	0.295	0.004
-703.572	37.732	-0.130	0.116
-702.558	-25.989	0.217	-0.128
-701.543	-47.259	-0.221	-0.108
-700.529	-200.000	-0.022	0.489
-699.514	-12.122	0.324	0.213
-698.499	87.666	-0.076	0.084
-697.485	279.927	-0.121	-0.217
-696.470	721.499	-0.090	-0.242
-695.456	737.078	0.137	0.370
-694.441	-87.681	-0.347	0.105
-693.426	-200.000	-0.031	0.143
-692.412	-200.000	0.040	0.204
-691.397	221.893	-0.091	-0.147
-690.383	-119.394	-0.180	0.032
-689.368	-92.410	-0.054	0.015
-688.354	-172.827	0.162	-0.005
-687.339	333.788	0.065	-0.126
-686.324	30.882	-0.156	0.135
-685.310	174.427	0.122	-0.178
-684.295	-83.307	-0.459	0.148
-683.281	-49.544	0.311	0.149
-682.266	-42.296	-0.394	-0.202
-681.251	302.219	0.169	-0.315
-680.237	253.265	-0.096	-0.165
-679.222	-78.833	0.147	-0.050
-678.208	-200.000	-0.024	0.126
-677.193	-122.190	0.191	-0.031
-676.178	-200.000	0.001	-0.087
-675.164	-200.000	0.006	0.042
-674.149	-52.998	-0.216	0.100
-673.135	-114.866	0.381	0.073
-672.120	-200.000	-0.007	-0.135
-671.105	800.000	-0.085	-0.270
-670.091	-32.808	-0.249	-0.139
-669.076	22.631	-0.168	-0.138
-668.062	72.106	0.187	-0.196
-667.047	668.183	0.038	0.099
-666.032	52.009	-0.334	-0.320
-665.018	136.587	-0.084	-0.110
-664.003	-22.931	-0.128	0.078
-662.989	-200.000	-0.020	-0.122
-661.974	-200.000	-0.045	-0.271
-660.959	52.572	0.177	-0.170
-659.945	-200.000	-0.095	0.467
-658.930	800.000	0.040	0.169
-657.916	16.092	-0.294	-0.233
-656.901	312.124	0.112	0.211
-655.886	-120.712	0.135	-0.023
-654.872	160.342	-0.214	-0.300
-653.857	135.132	0.103	0.134
-652.843	-200.000	-0.014	-0.171
-651.828	-48.249	-0.183	-0.089
-650.814	-128.338	0.326	0.047
-649.799	-177.283	0.034	0.001
-648.784	586.471	-0.096	0.239
-647.770	108.154	0.086	0.103
-646.755	77.468	0.042	-0.045
-645.741	-200.000	-0.043	-0.393
-644.726	-141.380	-0.300	0.031
-643.711	-200.000	0.006	0.067
-642.697	-132.827	0.197	-0.025
-641.682	5.426	0.191	-0.142
-640.668	-94.100	-0.488	-0.134
-639.653	-142.819	-0.170	0.017
-638.638	-200.000	0.000	0.064
-637.624	-97.211	-0.203	-0.053
-636.609	-71.203	0.290	-0.109
-635.595	-64.414	0.195	0.080
-634.580	791.860	-0.054	-0.148
-633.565	2.440	-0.273	0.198
-632.551	36.457	0.289	0.256
-631.536	-6.750	-0.086	-0.059
-630.522	113.093	-0.096	-0.117
-629.507	-85.632	0.363	-0.113
-628.492	800.000	0.054	-0.151
-627.478	361.920	0.065	-0.131
-626.463	-49.205	0.058	0.028
-625.449	208.929	0.047	0.074
-624.434	-158.508	-0.128	0.007
-623.419	73.029	-0.128	-0.134
-622.405	3.050	0.103	-0.075
-621.390	181.450	-0.128	-0.189
-620.376	-161.690	0.018	-0.001
-619.361	61.646	0.052	0.052
-618.346	285.612	0.113	-0.205
-617.332	-10.352	-0.191	-0.127
-616.317	-110.701	-0.170	-0.035
-615.303	-200.000	0.023	0.168
-614.288	-200.000	0.008	0.039
-613.273	800.000	-0.085	0.251
-612.259	148.351	0.087	-0.118
-611.244	66.667	0.172	-0.176
-610.230	108.156	0.074	-0.088
-609.215	28.601	-0.125	0.106
-608.201	58.162	-0.084	0.082
-607.186	-102.999	0.086	-0.021
-606.171	707.712	-0.027	-0.072
-605.157	58.028	0.151	-0.148
-604.142	-200.000	-0.009	-0.076
-603.128	-84.235	-0.220	0.070
-602.113	-138.479	0.332	0.037
-601.098	-113.125	-0.308	-0.061
-600.084	-24.170	0.329	0.197
-599.069	313.696	-0.108	-0.204
-598.055	-12.757	-0.375	0.245
-597.040	182.602	-0.159	-0.235
-596.025	-50.094	-0.153	0.073
-595.011	-200.000	0.038	0.396
-593.996	-200.000	-0.022	-0.127
-592.982	-200.000	0.013	-0.148
-591.967	-69.746	0.177	0.068
-590.952	33.405	0.104	0.090
-589.938	181.474	-0.044	-0.065
-588.923	-60.592	-0.317	0.135
-587.909	310.952	-0.042	-0.080
-586.894	-189.524	0.354	0.004
-585.879	193.549	0.111	-0.168
-584.865	800.000	-0.022	-0.067
-583.850	-200.000	-0.036	0.271
-582.836	-130.720	0.218	0.029
-581.821	128.659	-0.109	-0.139
-580.806	745.802	0.021	0.058
-579.792	800.000	-0.070	-0.215
-578.777	-181.516	0.238	-0.005
-577.763	-200.000	-0.002	0.096
-576.748	-67.031	0.235	0.093
-575.733	274.736	-0.108	0.192
-574.719	-200.000	0.021	0.140
-573.704	60.003	0.053	-0.052
-572.690	13.420	0.196	-0.152
-571.675	-78.115	0.308	0.106
-570.661	205.259	-0.120	0.187
-569.646	-29.775	-0.321	-0.183
-568.631	295.604	0.203	0.372
-567.617	-80.513	-0.145	-0.049
-566.602	-91.023	0.109	-0.031
-565.588	-1.650	-0.058	-0.041
-564.573	-146.401	-0.131	-0.011
-563.558	800.000	0.042	0.135
-562.544	681.000	-0.165	-0.431
-561.529	434.368	0.178	0.388
-560.515	-30.099	-0.239	0.136
-559.500	800.000	-0.027	-0.091
-558.485	78.622	0.098	0.105
-557.471	459.439	-0.058	-0.129
-556.456	-186.516	0.122	0.002
-555.442	473.448	0.042	0.095
-554.427	-110.475	0.132	-0.027
-553.412	-200.000	-0.023	0.104
-552.398	800.000	-0.033	0.093
-551.383	-61.559	-0.377	-0.158
-550.369	430.496	-0.074	0.161
-549.354	800.000	0.061	-0.250
-548.339	123.719	0.046	0.057
-547.325	800.000	-0.155	0.477
-546.310	-37.646	0.152	0.081
-545.296	318.288	0.207	0.393
-544.281	636.489	-0.146	-0.371
-543.266	0.343	0.282	-0.201
-542.252	-149.259	0.386	0.031
-541.237	-134.575	0.271	-0.033
-540.223	77.131	0.116	0.124
-539.208	-200.000	0.007	-0.281
-538.193	-1.752	0.106	0.075
-537.179	800.000	0.061	-0.231
-536.164	185.731	-0.035	-0.053
-535.150	-196.107	0.214	-0.001
-534.135	-200.000	-0.024	-0.477
-533.121	132.471	-0.191	-0.247
-532.106	800.000	0.040	0.130
-531.091	-25.796	-0.173	0.102
-530.077	-157.151	-0.184	-0.011
-529.062	158.193	0.183	-0.254
-528.048	16.909	0.212	0.168
-527.033	5.719	0.181	0.134
-526.018	-78.618	-0.128	0.044
-525.004	-33.712	-0.074	0.041
-523.989	224.938	-0.240	-0.389
-522.975	-200.000	0.010	0.241
-521.960	-90.911	-0.386	0.111
-520.945	123.030	0.044	0.055
-519.931	-78.039	0.068	0.023
-518.916	-109.853	-0.169	-0.035
-517.902	-200.000	0.055	-0.326
-516.887	22.098	0.121	0.099
-515.872	-200.000	0.051	-0.290
-514.858	-200.000	-0.049	-0.325
-513.843	8.858	-0.114	0.086
-512.829	-200.000	0.011	0.196
-511.814	-200.000	-0.007	-0.301
-510.799	-40.619	-0.148	-0.077
-509.785	-200.000	-0.058	0.263
-508.770	-26.364	-0.095	-0.056
-507.756	33.292	0.293	-0.254
-506.741	23.369	-0.059	-0.049
-505.726	-79.869	0.131	0.044
-504.712	-167.292	-0.342	0.014
-503.697	-200.000	0.036	0.209
-502.683	14.973	-0.254	-0.199
-501.668	-21.961	-0.061	0.037
-500.653	-93.347	0.153	-0.042
-499.639	800.000	-0.041	0.152
-498.624	524.982	0.112	-0.264
-497.610	-200.000	-0.054	0.269
-496.595	-16.449	0.161	0.102
-495.581	-91.997	0.193	0.055
-494.566	800.000	-0.040	0.134
-493.551	254.369	0.102	-0.175
-492.537	-200.000	-0.001	0.155
-491.522	-80.863	0.332	0.110
-490.508	-131.615	-0.304	-0.040
-489.493	-175.351	0.359	-0.010
-488.478	-34.512	0.141	0.077
-487.464	330.131	-0.114	-0.219
-486.449	-94.383	0.082	0.022
-485.435	-126.156	-0.082	0.012
-484.420	-18.594	-0.125	-0.078
-483.405	-200.000	0.049	-0.267
-482.391	-91.326	-0.207	0.059
-481.376	-12.891	0.069	-0.045
-480.362	-28.442	-0.374	-0.215
-479.347	-6.210	0.227	0.155
-478.332	-75.343	-0.153	-0.054
-477.318	27.576	-0.245	-0.206
-476.303	-43.535	-0.182	0.092
-475.289	-75.827	-0.049	0.017
-474.274	-200.000	0.021	-0.108
-473.259	198.325	-0.194	0.296
-472.245	-200.000	0.023	-0.216
-471.230	-200.000	0.043	0.325
-470.216	483.865	0.108	0.245
-469.201	-60.979	0.167	0.071
-468.186	-75.766	-0.336	-0.119
-467.172	23.729	-0.074	0.061
-466.157	-14.065	-0.272	-0.175
-465.143	-200.000	-0.005	-0.238
-464.128	-152.148	0.324	0.023
-463.113	-200.000	0.009	0.079
-462.099	-200.000	-0.067	-0.327
-461.084	364.136	-0.077	-0.154
-460.070	176.601	0.095	0.138
-459.055	-124.488	-0.139	-0.022
-458.040	800.000	-0.038	0.152
-457.026	800.000	0.035	-0.148
-456.011	-168.103	-0.283	0.011
-454.997	357.096	0.083	0.166
-453.982	-200.000	0.031	0.269
-452.968	-20.331	0.065	-0.040
-451.953	800.000	0.092	-0.332
-450.938	-90.937	-0.216	-0.062
-449.924	-131.937	0.120	-0.016
-448.909	-24.914	0.097	0.058
-447.895	45.997	-0.266	-0.245
-446.880	-29.060	-0.229	0.131
-445.865	-59.481	0.424	-0.181
-444.851	-49.800	0.238	-0.113
-443.836	-108.996	-0.149	0.032
-442.822	800.000	0.051	0.177
-441.807	-200.000	-0.031	0.160
-440.792	-22.400	-0.245	-0.148
-439.778	-200.000	0.007	0.044
-438.763	171.340	-0.205	0.294
-437.749	-91.864	-0.118	0.033
-436.734	48.319	-0.135	0.126
-435.719	-52.332	0.085	0.039
-434.705	-72.888	-0.082	-0.030
-433.690	252.843	-0.112	-0.191
-432.676	-200.000	-0.005	-0.042
-431.661	336.543	-0.102	-0.197
-430.646	339.254	0.147	-0.286
-429.632	239.823	0.061	-0.101
-428.617	308.739	0.170	-0.317
-427.603	-62.988	-0.248	0.102
-426.588	-150.256	-0.282	-0.022
-425.573	-5.026	-0.096	-0.066
-424.559	55.526	-0.116	-0.112
-423.544	-103.551	0.140	-0.033
-422.530	152.517	0.078	0.107
-421.515	-90.746	0.347	-0.100
-420.500	-200.000	0.000	0.026
-419.486	68.141	0.147	-0.150
-418.471	62.089	-0.180	0.179
-417.457	155.157	-0.024	-0.033
-416.442	624.128	0.054	0.135
-415.428	-200.000	0.218	0.001
-414.413	-200.000	-0.022	-0.189
-413.398	42.683	0.114	-0.103
-412.384	6.863	-0.188	-0.139
-411.369	312.290	-0.154	0.288
-410.355	-200.000	0.017	0.323
-409.340	-200.000	0.012	0.300
-408.325	-178.542	-0.318	-0.007
-407.311	800.000	-0.075	0.293
-406.296	-133.146	-0.181	0.023
-405.282	-90.401	0.059	0.017
-404.267	-112.052	-0.195	0.039
-403.252	137.137	0.200	0.260
-402.238	-200.000	-0.004	0.134
-401.223	-187.137	0.489	0.007
-400.209	800.000	-0.080	-0.232
-399.194	-15.891	-0.097	0.062
-398.179	-135.822	0.244	-0.029
-397.165	286.405	-0.129	-0.231
-396.150	240.576	-0.126	-0.209
-395.136	800.000	-0.058	-0.162
-394.121	-200.000	0.022	-0.260
-393.106	-159.467	0.211	0.012
-392.092	41.683	-0.127	-0.115
-391.077	-200.000	0.027	-0.146
-390.063	358.515	-0.117	0.233
-389.048	-41.508	-0.239	-0.122
-388.033	485.134	-0.089	0.202
-387.019	-106.457	0.116	0.026
-386.004	259.034	-0.169	-0.290
-384.990	-134.737	0.109	0.013
-383.975	115.719	0.170	0.206
-382.960	-1.914	0.109	0.077
-381.946	-155.652	-0.025	0.002
-380.931	800.000	-0.058	-0.176
-379.917	-176.041	0.168	0.004
-378.902	-81.052	-0.465	0.153
-377.888	-167.576	-0.108	0.004
-376.873	-66.988	0.194	-0.076
-375.858	-200.000	0.008	-0.173
-374.844	-114.878	0.465	-0.088
-373.829	-10.737	-0.095	0.063
-372.815	453.470	0.157	-0.345
-371.800	-113.040	-0.349	-0.069
-370.785	646.571	-0.102	-0.259
-369.771	-200.000	0.006	0.143
-368.756	-15.384	0.272	0.173
-367.742	-200.000	-0.004	0.148
-366.727	-165.743	0.111	-0.005
-365.712	75.852	0.056	-0.059
-364.698	800.000	0.052	0.190
-363.683	299.646	-0.035	0.065
-362.669	-76.502	-0.101	0.035
-361.654	-56.724	-0.322	-0.141
-360.639	-94.607	0.145	-0.039
-359.625	345.668	-0.176	0.344
-358.610	122.858	-0.082	0.102
-357.596	-200.000	0.065	0.402
-356.581	-104.292	0.207	-0.048
-355.566	-90.558	-0.258	-0.074
-354.552	117.528	0.211	-0.258
-353.537	-200.000	-0.024	0.208
-352.523	10.154	-0.150	-0.114
-351.508	143.214	0.137	0.181
-350.493	-200.000	-0.037	0.327
-349.479	451.195	0.118	0.260
-348.464	800.000	0.045	-0.191
-347.450	-200.000	0.123	-0.000
-346.435	5.252	0.243	0.178
-345.420	-125.025	0.199	-0.030
-344.406	-200.000	-0.020	-0.189
-343.391	-99.635	-0.148	0.037
-342.377	498.304	-0.082	0.187
-341.362	55.323	-0.074	-0.071
-340.348	-200.000	-0.019	0.324
-339.333	333.175	0.181	-0.348
-338.318	354.130	0.097	-0.192
-337.304	-142.932	-0.148	-0.014
-336.289	-200.000	0.044	0.229
-335.275	-37.743	0.147	0.078
-334.260	145.987	0.080	-0.106
-333.245	800.000	-0.018	-0.057
-332.231	-152.538	-0.182	-0.013
-331.216	-88.118	-0.316	-0.094
-330.202	800.000	0.022	-0.073
-329.187	795.279	-0.146	-0.399
-328.172	-49.245	0.325	-0.154
-327.158	-200.000	0.017	-0.130
-326.143	16.790	0.222	-0.174
-325.129	4.381	-0.310	-0.226
-324.114	-200.000	-0.003	-0.094
-323.099	-200.000	-0.019	-0.085
-322.085	800.000	-0.069	0.232
-321.070	39.706	-0.116	-0.103
-320.056	800.000	-0.072	0.250
-319.041	180.297	0.264	-0.385
-318.026	182.684	-0.062	0.090
-317.012	-35.220	0.142	-0.077
-315.997	-200.000	0.009	0.267
-314.983	-151.019	0.323	0.024
-313.968	-81.372	0.167	0.055
-312.953	-172.644	-0.256	0.008
-311.939	63.063	0.082	0.082
-310.924	128.458	0.081	0.102
-309.910	-200.000	0.016	-0.157
-308.895	-200.000	0.011	-0.242
-307.880	-200.000	0.111	0.557
-306.866	-66.951	-0.165	-0.064
-305.851	100.192	-0.054	0.062
-304.837	101.140	0.107	0.123
-303.822	97.400	-0.219	0.249
-302.807	-118.718	-0.105	0.018
-301.793	-118.127	0.050	-0.009
-300.778	-120.237	0.226	-0.038
-299.764	-200.000	0.018	0.169
-298.749	-200.000	-0.035	0.217
-297.735	-200.000	0.019	0.287
-296.720	268.848	-0.103	0.180
-295.705	800.000	-0.041	0.147
-294.691	20.754	0.151	0.121
-293.676	570.029	0.009	0.021
-292.662	217.556	0.235	-0.371
-291.647	-42.513	-0.183	0.092
-290.632	-200.000	0.004	0.089
-289.618	133.667	0.054	-0.070
-288.603	-168.829	-0.150	0.006
-287.589	-29.177	0.265	0.151
-286.574	-39.120	0.072	0.038
-285.559	-28.798	-0.415	0.237
-284.545	-116.925	-0.127	-0.023
-283.530	3.546	0.259	-0.187
-282.516	800.000	-0.097	0.365
-281.501	181.474	-0.294	0.428
-280.486	-132.114	-0.208	-0.027
-279.472	-113.921	-0.322	-0.062
-278.457	390.562	-0.129	0.265
-277.443	-58.609	-0.207	0.089
-276.428	114.854	0.125	0.151
-275.413	800.000	0.072	-0.299
-274.399	-78.611	-0.159	-0.054
-273.384	-46.733	-0.429	0.208
-272.370	-200.000	-0.031	0.213
-271.355	-74.166	0.058	0.021
-270.340	-125.939	0.347	0.052
-269.326	-134.535	0.341	0.041
-268.311	-58.307	-0.301	0.129
-267.297	-200.000	-0.040	0.193
-266.282	-58.317	-0.081	-0.035
-265.267	-102.725	0.100	0.024
-264.253	213.932	-0.169	-0.265
-263.238	-114.073	-0.313	-0.060
-262.224	-168.339	0.130	-0.005
-261.209	228.893	0.190	0.306
-260.195	-165.894	0.295	-0.013
-259.180	-96.756	-0.137	-0.036
-258.165	-200.000	-0.016	-0.214
-257.151	387.710	0.022	-0.045
-256.136	-186.505	0.354	0.005
-255.122	-200.000	0.060	-0.297
-254.107	115.209	-0.181	-0.219
-253.092	183.694	0.135	-0.197
-252.078	-110.161	0.098	-0.020
-251.063	-134.230	0.276	0.034
-250.049	20.118	0.345	0.276
-249.034	320.408	0.037	0.070
-248.019	13.968	-0.183	0.141
-247.005	-200.000	-0.018	-0.087
-245.990	68.384	-0.208	-0.210
-244.976	453.925	0.060	0.131
-243.961	800.000	-0.076	-0.236
-242.946	-28.148	0.299	-0.171
-241.932	-168.266	0.269	-0.010
-240.917	800.000	-0.082	-0.283
-239.903	136.473	-0.087	0.113
-238.888	-116.536	-0.370	0.067
-237.873	-40.413	-0.110	0.056
-236.859	178.493	0.136	0.196
-235.844	95.059	0.349	-0.393
-234.830	60.346	-0.175	-0.171
-233.815	438.849	0.041	0.088
-232.800	800.000	-0.036	0.130
-231.786	178.265	-0.175	0.253
-230.771	800.000	0.019	-0.077
-229.757	-200.000	0.028	0.272
-228.742	-40.073	-0.167	0.086
-227.727	55.653	-0.257	0.246
-226.713	-8.019	0.280	-0.187
-225.698	-37.089	0.234	-0.124
-224.684	3.713	-0.132	-0.095
-223.669	494.116	0.082	0.186
-222.655	31.430	0.182	-0.154
-221.640	800.000	-0.031	0.113
-220.625	-200.000	-0.018	0.150
-219.611	779.398	0.025	0.067
-218.596	-145.354	0.158	0.014
-217.582	54.004	0.372	0.354
-216.567	-128.778	0.252	0.035
-215.552	-32.791	-0.408	-0.224
-214.538	-200.000	0.027	-0.161
-213.523	-149.981	-0.234	0.018
-212.509	-96.043	-0.108	0.028
-211.494	800.000	0.044	-0.125
-210.479	-171.942	-0.074	-0.002
-209.465	-67.218	-0.162	-0.063
-208.450	673.202	-0.017	0.043
-207.436	-200.000	0.003	0.483
-206.421	64.922	0.258	0.257
-205.406	-7.142	-0.237	0.159
-204.392	-58.019	-0.296	0.128
-203.377	-31.973	0.073	0.041
-202.363	-41.578	-0.172	-0.087
-201.348	-127.920	0.276	-0.039
-200.333	154.291	0.187	-0.254
-199.319	-200.000	0.009	0.120
-198.304	270.513	0.109	-0.190
-197.290	17.407	0.234	-0.184
-196.275	800.000	0.075	-0.220
-195.260	-28.644	0.357	0.203
-194.246	-200.000	0.015	0.108
-193.231	-200.000	-0.006	0.398
-192.217	800.000	0.065	0.260
-191.202	324.385	-0.138	-0.260
-190.187	-90.881	-0.130	-0.037
-189.173	-200.000	-0.051	-0.338
-188.158	422.992	-0.062	-0.132
-187.144	-14.961	0.244	0.154
-186.129	-60.330	-0.233	0.098
-185.114	226.604	0.071	-0.113
-184.100	342.946	0.064	-0.124
-183.085	46.518	-0.135	-0.123
-182.071	278.228	0.160	0.281
-181.056	-130.304	-0.089	-0.012
-180.042	-16.737	0.320	0.200
-179.027	-61.298	0.263	-0.109
-178.012	353.322	-0.027	-0.053
-176.998	76.775	-0.110	0.115
-175.983	-200.000	-0.008	-0.164
-174.969	-9.381	0.245	-0.161
-173.954	-79.378	-0.081	-0.027
-172.939	-200.000	-0.073	-0.331
-171.925	-149.108	-0.319	0.025
-170.910	800.000	0.103	0.282
-169.896	-73.236	-0.187	-0.067
-168.881	-108.180	0.259	-0.055
-167.866	12.303	-0.203	-0.154
-166.852	-105.594	0.163	0.036
-165.837	800.000	-0.053	0.199
-164.823	-21.409	0.118	0.071
-163.808	-200.000	-0.026	0.171
-162.793	-200.000	0.044	-0.348
-161.779	-200.000	-0.005	-0.281
-160.764	-31.282	0.097	-0.054
-159.750	-98.564	0.136	-0.034
-158.735	-200.000	0.020	0.104
-157.720	16.871	-0.088	0.069
-156.706	-102.457	0.313	0.074
-155.691	-108.187	-0.481	-0.103
-154.677	-200.000	0.000	-0.146
-153.662	-59.026	0.212	0.090
-152.647	-43.863	-0.286	0.142
-151.633	-200.000	-0.021	-0.260
-150.618	-200.000	0.047	-0.287
-149.604	538.091	0.168	-0.395
-148.589	800.000	0.136	-0.387
-147.574	14.654	-0.201	-0.155
-146.560	-73.553	0.340	0.122
-145.545	474.129	0.088	0.195
-144.531	-19.937	-0.209	0.127
-143.516	-121.771	-0.323	0.053
-142.502	82.884	-0.204	0.218
-141.487	-200.000	-0.046	0.292
-140.472	-200.000	-0.028	-0.222
-139.458	4.439	0.220	-0.159
-138.443	800.000	-0.109	0.465
-137.429	799.376	0.084	-0.228
-136.414	72.377	-0.147	-0.151
-135.399	800.000	0.083	0.277
-134.385	269.805	0.118	0.204
-133.370	91.887	-0.009	0.010
-132.356	-34.211	-0.193	0.105
-131.341	32.991	0.163	0.139
-130.326	58.904	-0.069	-0.066
-129.312	-42.134	0.113	-0.057
-128.297	-7.182	0.073	-0.049
-127.283	24.211	0.294	0.239
-126.268	-85.314	-0.228	-0.070
-125.253	-120.063	-0.122	0.021
-124.239	376.426	-0.059	0.118
-123.224	-111.644	-0.121	-0.024
-122.210	-10.429	-0.393	0.256
-121.195	-34.502	0.451	-0.243
-120.180	-141.104	-0.344	-0.035
-119.166	235.126	0.133	-0.217
-118.151	800.000	-0.039	0.110
-117.137	636.396	-0.079	-0.197
-116.122	212.560	0.067	0.104
-115.107	-163.739	0.074	0.003
-114.093	800.000	0.036	0.136
-113.078	-40.714	-0.078	0.040
-112.064	800.000	0.144	0.428
-111.049	-200.000	0.026	0.262
-110.034	183.724	-0.183	-0.266
-109.020	800.000	0.073	-0.219
-108.005	74.882	0.153	-0.159
-106.991	222.205	-0.101	0.161
-105.976	-149.886	-0.220	-0.017
-104.962	-66.509	-0.160	0.063
-103.947	14.119	0.320	-0.245
-102.932	353.796	0.065	0.126
-101.918	650.577	0.095	0.240
-100.903	168.003	-0.248	0.347
-99.889	800.000	0.029	0.085
-98.874	800.000	0.059	-0.222
-97.859	-74.655	0.271	0.096
-96.845	114.943	0.236	-0.283
-95.830	370.046	-0.271	0.541
-94.816	272.449	-0.095	-0.164
-93.801	33.717	-0.142	-0.122
-92.786	339.569	0.240	-0.460
-91.772	-143.279	-0.093	-0.009
-90.757	-45.910	0.138	-0.067
-89.743	276.414	0.106	-0.186
-88.728	-43.251	0.262	-0.130
-87.713	-200.000	0.015	0.073
-86.699	800.000	-0.094	0.358
-85.684	-110.826	-0.111	0.023
-84.670	-41.170	0.207	0.105
-83.655	186.811	-0.074	-0.108
-82.640	257.620	0.042	0.071
-81.626	800.000	-0.079	-0.311
-80.611	-131.290	-0.492	0.064
-79.597	33.362	-0.195	0.167
-78.582	-200.000	0.044	-0.398
-77.567	-14.208	-0.121	-0.077
-76.553	678.645	0.093	-0.238
-75.538	-15.667	-0.225	0.141
-74.524	292.370	0.125	-0.223
-73.509	408.958	0.056	-0.116
-72.494	-107.307	0.451	0.097
-71.480	-52.591	0.136	-0.062
-70.465	34.643	0.168	0.144
-69.451	473.436	-0.053	0.118
-68.436	43.602	-0.006	-0.006
-67.422	-200.000	-0.006	0.252
-66.407	-21.696	0.171	0.102
-65.392	-139.139	-0.114	-0.012
-64.378	-148.941	-0.127	-0.010
-63.363	124.528	-0.236	-0.292
-62.349	354.402	0.096	-0.187
-61.334	196.663	-0.770	-1.152
-60.319	5.056	0.635	0.459
-59.305	495.670	-0.359	-0.809
-58.290	169.389	0.846	1.187
-57.276	800.000	0.521	1.512
-56.261	-200.000	102.190	581.952
-55.246	556.949	1425.655	3373.700
-54.232	189.938	2608.345	3843.160
-53.217	116.571	2134.466	2570.323
-52.203	42.396	1586.745	1416.453
-51.188	34.317	1323.619	1133.689
-50.173	31.167	1281.308	1079.230
-49.159	54.387	1332.761	1260.076
-48.144	55.827	1349.711	1284.546
-47.130	34.391	1305.944	1118.808
-46.115	30.861	1288.132	1083.026
-45.100	30.637	1283.363	1077.674
-44.086	30.587	1280.857	1075.236
-43.071	30.618	1278.403	1073.313
-42.057	30.571	1276.291	1071.227
-41.042	30.576	1274.538	1069.743
-40.027	30.638	1273.230	1068.958
-39.013	30.599	1271.973	1067.634
-37.998	30.713	1269.568	1066.227
-36.984	30.667	1268.072	1064.665
-35.969	30.757	1266.366	1063.709
-34.954	30.814	1264.482	1062.405
-33.940	30.753	1263.664	1061.330
-32.925	30.850	1261.786	1060.260
-31.911	30.797	1260.496	1058.834
-30.896	30.733	1259.161	1057.307
-29.881	30.847	1257.627	1056.623
-28.867	30.729	1256.756	1055.183
-27.852	30.778	1255.052	1053.988
-26.838	30.814	1253.738	1053.046
-25.823	30.803	1252.205	1051.655
-24.809	30.816	1250.975	1050.654
-23.794	30.764	1249.548	1049.118
-22.779	30.842	1248.122	1048.317
-21.765	30.780	1247.359	1047.290
-20.750	30.763	1245.780	1045.824
-19.736	30.590	1245.126	1044.264
-18.721	30.589	1243.727	1043.044
-17.706	30.733	1242.039	1042.390
-16.692	30.606	1240.810	1040.611
-15.677	30.606	1240.681	1040.461
-14.663	30.733	1238.686	1039.455
-13.648	30.651	1237.670	1038.100
-12.633	30.755	1236.425	1037.597
-11.619	30.626	1235.970	1036.458
-10.604	30.712	1235.199	1036.248
-9.590	30.572	1234.145	1034.541
-8.575	30.600	1233.531	1034.140
-7.560	30.552	1232.861	1033.272
-6.546	30.618	1231.387	1032.362
-5.531	30.566	1230.999	1031.706
-4.517	30.703	1229.749	1031.376
-3.502	30.710	1228.697	1030.493
-2.487	30.674	1227.952	1029.627
-1.473	30.567	1223.697	1025.428
-0.458	29.104	1209.050	1005.139
0.556	26.760	1192.072	965.854
1.571	22.907	1196.475	948.685
2.586	21.964	1210.675	954.737
3.600	21.587	1199.522	943.822
4.615	16.585	1129.626	863.286
5.629	7.955	1056.310	765.841
6.644	4.037	1037.071	733.297
7.659	3.515	1034.737	729.115
8.673	3.397	1033.487	727.614
9.688	3.424	1032.288	726.833
10.702	3.836	1030.729	727.609
11.717	9.368	1037.369	758.376
12.731	18.234	1050.257	809.877
13.746	23.077	1056.007	837.227
14.761	23.965	1056.757	841.951
15.775	23.480	1054.907	838.112
16.790	22.734	1054.024	833.812
17.804	22.312	1053.228	831.115
18.819	22.173	1052.052	829.458
19.834	22.241	1051.762	829.473
20.848	22.332	1051.489	829.616
21.863	22.316	1050.391	828.601
22.877	22.074	1049.837	826.952
23.892	21.972	1049.243	825.928
24.907	21.839	1048.744	824.840
25.921	21.838	1047.223	823.567
26.936	21.838	1046.114	822.617
27.950	21.856	1044.231	821.150
28.965	21.908	1042.882	820.258
29.980	22.183	1041.516	820.396
30.994	22.248	1040.830	820.089
32.009	22.313	1039.953	819.627
33.023	22.137	1038.864	817.875
34.038	22.117	1037.823	816.892
35.053	21.875	1036.925	814.988
36.067	21.877	1036.204	814.360
37.082	21.785	1035.843	813.575
38.096	22.057	1034.723	813.883
39.111	22.074	1034.252	813.522
40.126	21.933	1032.688	811.566
41.140	21.539	1031.239	808.537
42.155	21.361	1029.991	806.665
43.169	21.369	1028.718	805.633
44.184	21.317	1027.840	804.635
45.199	21.318	1027.279	804.129
46.213	21.428	1026.791	804.184
47.228	21.942	1026.340	806.119
48.242	22.062	1025.311	805.791
49.257	21.917	1025.163	804.936
50.271	22.155	1024.224	805.219
51.286	22.251	1023.548	805.057
52.301	22.086	1022.791	803.634
53.315	22.029	1021.579	802.351
54.330	21.910	1020.502	800.891
55.344	21.804	1019.321	799.409
56.359	21.703	1018.745	798.429
57.374	21.624	1018.005	797.416
58.388	21.474	1017.049	795.916
59.403	21.269	1016.603	794.565
60.417	21.314	1015.395	793.756
61.432	21.260	1015.069	793.183
62.447	21.211	1013.934	792.004
63.461	21.190	1013.322	791.359
64.476	21.054	1012.286	789.865
65.490	20.971	1011.481	788.791
66.505	21.242	1010.437	789.132
67.520	21.275	1010.217	789.043
68.534	21.106	1009.229	787.437
69.549	20.933	1008.561	786.068
70.563	20.849	1007.674	784.927
71.578	20.681	1006.599	783.263
72.593	20.584	1005.603	781.981
73.607	20.530	1005.052	781.241
74.622	20.783	1004.383	781.789
75.636	20.829	1003.768	781.448
76.651	20.920	1003.115	781.280
77.666	20.938	1002.664	780.938
78.680	20.840	1002.349	780.185
79.695	20.987	1001.071	779.780
80.709	21.116	1000.905	780.155
81.724	21.187	1000.404	780.017
82.739	21.312	999.930	780.133
83.753	21.819	999.782	782.211
84.768	22.298	998.980	783.648
85.782	22.596	998.177	784.275
86.797	22.388	997.972	783.120
87.812	22.178	996.320	780.821
88.826	22.307	995.965	781.047
89.841	22.499	994.541	780.715
90.855	22.365	993.692	779.384
91.870	22.501	993.173	779.510
92.884	22.289	992.119	777.679
93.899	22.251	991.170	776.698
94.914	22.409	990.290	776.635
95.928	22.322	989.806	775.805
96.943	22.174	988.365	773.955
97.957	22.021	987.818	772.783
98.972	22.171	986.857	772.624
99.987	22.328	986.196	772.727
101.001	22.180	984.873	770.974
102.016	21.985	984.188	769.513
103.030	22.199	983.705	770.005
104.045	22.271	982.827	769.565
105.060	22.175	981.805	768.277
106.074	21.878	980.480	765.876
107.089	21.676	979.447	764.118
108.103	21.453	978.463	762.314
109.118	21.233	976.753	759.957
110.133	20.990	975.786	758.081
111.147	20.971	975.489	757.700
112.162	21.134	974.468	757.546
113.176	21.257	973.949	757.608
114.191	21.290	973.284	757.170
115.206	21.331	972.704	756.828
116.220	21.155	971.808	755.304
117.235	21.198	970.441	754.360
118.249	21.024	970.008	753.204
119.264	21.057	968.879	752.403
120.279	20.846	967.948	750.705
121.293	20.889	967.091	750.157
122.308	20.675	966.401	748.636
123.322	20.704	965.482	747.982
124.337	20.560	964.533	746.562
125.352	20.598	963.389	745.775
126.366	20.731	962.363	745.486
127.381	20.930	961.453	745.563
128.395	20.932	960.962	745.125
129.410	21.037	960.053	744.803
130.424	21.081	959.566	744.550
131.439	21.365	959.014	745.266
132.454	21.436	958.205	744.875
133.468	21.390	957.042	743.707
134.483	21.303	956.597	742.924
135.497	21.447	955.507	742.623
136.512	21.497	955.035	742.403
137.527	21.445	954.638	741.809
138.541	21.477	953.457	740.964
139.556	21.655	953.145	741.406
140.570	21.780	952.650	741.486
141.585	21.880	952.258	741.538
142.600	22.231	951.042	742.006
143.614	22.202	950.745	741.585
144.629	22.299	949.997	741.349
145.643	22.194	948.871	739.962
146.658	21.836	947.455	737.287
147.673	21.731	946.609	736.122
148.687	21.419	945.499	733.884
149.702	21.499	944.091	733.060
150.716	21.499	943.430	732.484
151.731	21.476	943.151	732.104
152.746	21.736	942.336	732.497
153.760	21.872	941.285	732.180
154.775	21.872	941.273	732.108
155.789	22.026	940.242	731.882
156.804	21.883	939.508	730.651
157.819	22.012	939.054	730.770
158.833	22.166	938.566	730.966
159.848	22.348	937.641	730.936
160.862	22.124	936.644	729.166
161.877	21.708	934.917	726.035
162.892	21.336	934.131	723.820
163.906	21.405	932.987	723.154
164.921	21.364	932.160	722.278
165.935	21.420	931.412	721.866
166.950	21.578	930.500	721.748
167.964	21.578	929.993	721.289
168.979	21.378	929.168	719.764
169.994	21.559	927.709	719.312
171.008	21.783	927.244	719.808
172.023	22.019	927.030	720.546
173.037	22.088	926.409	720.283
174.052	22.007	925.442	719.138
175.067	21.468	924.449	716.097
176.081	21.264	923.270	714.287
177.096	21.150	922.801	713.394
178.110	21.166	922.356	713.052
179.125	21.264	921.920	713.050
180.140	21.555	921.229	713.639
181.154	21.711	921.578	714.483
182.169	21.984	921.194	715.238
183.183	22.122	920.513	715.205
184.198	21.940	920.035	714.029
185.213	21.973	918.834	713.167
186.227	22.052	918.187	712.923
187.242	22.065	918.113	712.855
188.256	22.320	917.668	713.480
189.271	22.301	916.682	712.576
190.286	21.908	915.431	709.948
191.300	21.295	914.360	706.580
192.315	21.054	913.410	704.810
193.329	21.213	913.537	705.484
194.344	21.392	912.884	705.641
195.359	21.628	912.174	705.983
196.373	21.799	911.885	706.385
197.388	22.090	911.429	707.142
198.402	22.348	911.546	708.210
199.417	22.536	911.023	708.494
200.432	22.583	910.901	708.524
201.446	22.657	910.420	708.387
202.461	22.826	909.651	708.403
203.475	22.450	908.615	706.027
204.490	22.072	907.388	703.496
205.504	22.010	906.408	702.427
206.519	22.035	905.737	701.945
207.534	21.926	905.493	701.258
208.548	21.972	904.601	700.690
209.563	21.967	904.136	700.246
210.577	21.955	903.555	699.686
211.592	22.454	903.166	701.313
212.607	22.552	902.590	701.193
213.621	22.367	901.818	699.794
214.636	22.418	900.720	699.083
215.650	22.422	900.279	698.696
216.665	22.423	900.005	698.424
217.680	22.484	899.593	698.285
218.694	22.558	898.674	697.802
219.709	22.365	898.075	696.515
220.723	22.213	897.224	695.190
221.738	22.265	896.463	694.743
222.753	22.153	896.095	693.957
223.767	22.264	895.851	694.142
224.782	22.545	895.262	694.733
225.796	22.585	894.833	694.498
226.811	22.480	893.727	693.164
227.826	22.154	892.724	691.043
228.840	22.166	891.961	690.438
229.855	22.079	891.588	689.748
230.869	21.971	890.980	688.792
231.884	21.848	890.425	687.819
232.899	22.115	889.204	687.860
233.913	21.766	888.643	685.999
234.928	21.667	888.037	685.083
235.942	21.538	887.543	684.137
236.957	21.390	887.498	683.467
237.972	21.553	886.715	683.436
238.986	21.579	885.890	682.844
240.001	21.577	884.970	682.066
241.015	21.708	884.725	682.328
242.030	21.783	884.714	682.549
243.045	21.866	883.960	682.233
244.059	21.978	883.615	682.340
245.074	21.986	882.783	681.667
246.088	22.103	882.232	681.635
247.103	22.506	881.659	682.695
248.117	22.817	881.845	683.985
249.132	23.142	881.734	685.096
250.147	23.468	881.395	686.035
251.161	23.552	880.490	685.594
252.176	23.475	880.339	685.117
253.190	23.596	879.745	685.062
254.205	23.350	879.063	683.520
255.220	23.451	878.200	683.178
256.234	23.195	877.369	681.486
257.249	23.298	877.145	681.650
258.263	23.260	876.188	680.699
259.278	23.195	875.260	679.668
260.293	23.251	875.167	679.750
261.307	23.392	874.539	679.742
262.322	23.438	873.937	679.392
263.336	23.383	873.525	678.799
264.351	23.178	872.372	677.060
265.366	23.489	871.777	677.728
266.380	23.477	871.325	677.271
267.395	23.190	870.657	675.595
268.409	23.130	870.124	674.892
269.424	23.225	869.036	674.352
270.439	23.058	868.560	673.287
271.453	22.976	867.761	672.295
272.468	22.973	867.293	671.862
273.482	22.978	866.547	671.243
274.497	23.059	865.765	670.886
275.512	22.858	865.500	669.860
276.526	23.012	865.352	670.268
277.541	23.019	865.110	670.050
278.555	23.355	864.696	670.943
279.570	23.822	863.808	671.960
280.585	23.375	863.490	669.963
281.599	23.309	862.030	668.520
282.614	22.939	861.373	666.559
283.628	22.845	861.052	665.894
284.643	22.965	860.329	665.728
285.657	22.932	859.700	665.062
286.672	23.122	858.931	665.121
287.687	23.187	858.455	664.939
288.701	23.007	858.502	664.238
289.716	22.976	857.758	663.489
290.730	23.150	857.244	663.683
291.745	23.167	856.438	663.066
292.760	23.370	856.118	663.519
293.774	23.522	856.037	663.967
294.789	23.493	854.867	662.891
295.803	23.247	853.743	661.044
296.818	23.071	853.346	660.019
297.833	23.069	852.462	659.272
298.847	23.030	852.247	658.901
299.862	23.124	851.833	658.874
300.876	23.343	851.449	659.334
301.891	23.719	850.841	660.202
302.906	23.752	850.783	660.221
303.920	23.963	850.169	660.468
304.935	24.087	849.998	660.740
305.949	24.006	848.558	659.260
306.964	23.472	848.100	656.867
307.979	23.396	847.729	656.243
308.993	23.675	847.307	656.888
310.008	23.638	846.731	656.248
311.022	23.406	846.240	654.953
312.037	23.335	845.024	653.690
313.052	23.126	844.251	652.264
314.066	22.921	843.774	651.081
315.081	22.703	843.378	649.916
316.095	22.963	842.726	650.313
317.110	22.888	842.281	649.637
318.125	22.688	841.263	648.058
319.139	22.566	841.236	647.535
320.154	22.743	840.393	647.476
321.168	23.026	839.747	647.959
322.183	23.025	839.195	647.472
323.197	23.004	838.816	647.047
324.212	23.111	838.225	646.924
325.227	23.008	837.902	646.240
326.241	22.893	837.085	645.131
327.256	22.714	836.736	644.155
328.270	22.785	836.012	643.799
329.285	22.800	835.262	643.217
330.300	22.738	834.885	642.645
331.314	22.883	834.274	642.645
332.329	23.235	834.077	643.716
333.343	23.224	834.095	643.636
334.358	23.407	833.399	643.703
335.373	23.467	832.942	643.514
336.387	23.377	833.186	643.316
337.402	23.586	833.021	643.890
338.416	23.834	833.091	644.788
339.431	24.166	832.399	645.397
340.446	24.159	832.247	645.198
341.460	24.093	832.078	644.771
342.475	24.203	831.631	644.767
343.489	24.295	831.466	644.915
344.504	24.483	830.921	645.115
345.519	24.607	830.241	644.978
346.533	24.395	829.363	643.472
347.548	23.883	828.439	640.855
348.562	23.876	827.622	640.138
349.577	23.712	826.837	638.887
350.592	23.517	826.154	637.600
351.606	23.298	825.802	636.486
352.621	23.460	824.932	636.341
353.635	23.387	824.683	635.830
354.650	23.408	823.970	635.298
355.665	23.642	823.543	635.752
356.679	23.695	822.611	635.165
357.694	23.784	821.885	634.867
358.708	23.688	821.431	634.118
359.723	23.729	820.789	633.713
360.738	23.614	820.353	632.911
361.752	23.594	819.937	632.461
362.767	24.077	819.647	633.902
363.781	24.320	819.199	634.365
364.796	24.398	819.081	634.495
365.810	24.595	818.700	634.841
366.825	24.670	818.271	634.718
367.840	24.466	817.759	633.543
368.854	24.245	817.123	632.209
369.869	24.056	816.452	630.966
370.883	24.129	815.646	630.546
371.898	24.372	816.077	631.682
372.913	24.536	815.493	631.755
373.927	24.214	814.886	630.091
374.942	24.196	814.198	629.440
375.956	24.492	813.776	630.102
376.971	24.503	813.856	630.146
377.986	24.831	813.089	630.655
379.000	24.861	812.872	630.537
380.015	24.657	812.282	629.305
381.029	24.613	811.359	628.380
382.044	24.716	810.983	628.392
383.059	24.855	810.415	628.387
384.073	24.545	809.869	626.819
385.088	24.203	808.830	624.760
386.102	23.896	808.265	623.191
387.117	23.911	807.527	622.622
388.132	23.800	807.355	622.047
389.146	24.007	806.371	621.957
390.161	24.246	806.413	622.769
391.175	24.525	805.943	623.325
392.190	24.342	805.321	622.148
393.205	23.927	804.549	620.053
394.219	23.856	803.864	619.221
395.234	23.746	803.364	618.399
396.248	23.759	803.201	618.264
397.263	23.825	802.528	617.921
398.278	23.477	802.321	616.496
399.292	23.540	801.633	616.134
400.307	23.532	800.885	615.475
401.321	23.634	800.535	615.505
402.336	23.833	800.463	616.084
403.350	24.134	800.509	617.111
404.365	24.635	800.263	618.599
405.380	24.852	799.734	618.886
406.394	25.080	799.234	619.234
407.409	25.042	799.014	618.877
408.423	24.953	798.928	618.449
409.438	25.006	798.533	618.269
410.453	25.064	797.775	617.830
411.467	25.125	796.869	617.281
412.482	25.110	797.306	617.516
413.496	25.218	796.534	617.232
414.511	25.178	796.284	616.847
415.526	25.007	795.620	615.690
416.540	24.958	794.989	614.979
417.555	24.983	794.390	614.547
418.569	24.839	794.376	613.989
419.584	24.995	793.359	613.682
420.599	24.763	793.492	612.935
421.613	163.479	1369.999	1796.270
422.628	141.796	1454.022	1796.356
