DTS Sentinel unit serial number:	SN413079Multiplexer serial number:	ORYXHardware model number:	OX4-SRSoftware version number:	ORYX F/W v4.00 Oryx Data Collector v3.7.2.0data status	okinstallation	princeton_trtdifferential loss correction	single-endedforward channel	channel 1reverse channel	N/Adate	2019/09/12time	04:16:11forward acquisition time	60.00reverse acquisition time	0.00gamma	496.2192k internal	0.2323k external	0.2323temperature offset calibration	1.0083default loss term (dB/km)	0.3790temperature slope calibration	1.0000multiplexer offset coefficient	1.0000multiplexer slope coefficient	1.0000fibre end	0.00T internal ref (°C)	31.81T ext. ref 1 (°C)	2.21T ext. ref 2 (°C)	25.47length (m)	temperature (°C)	Stokes	anti-Stokes-747.200	433.626	-0.106	0.233
-746.185	-3.463	0.074	-0.052
-745.171	141.006	0.157	-0.209
-744.156	-69.386	-0.422	0.164
-743.142	-200.000	-0.019	0.163
-742.127	74.013	-0.149	-0.157
-741.112	-92.758	-0.142	0.040
-740.098	-83.566	-0.185	0.060
-739.083	800.000	-0.097	-0.397
-738.069	-143.552	-0.291	-0.028
-737.054	38.059	0.205	0.184
-736.039	-74.316	-0.339	-0.124
-735.025	189.461	0.218	0.330
-734.010	-111.421	0.178	0.037
-732.996	-200.000	0.013	0.313
-731.981	-71.946	0.189	-0.071
-730.966	202.484	-0.042	-0.065
-729.952	-134.509	0.315	-0.039
-728.937	-114.298	-0.396	0.077
-727.923	-200.000	-0.025	-0.202
-726.908	-21.410	-0.388	-0.239
-725.894	-139.186	-0.225	0.025
-724.879	160.481	0.043	-0.060
-723.864	701.896	-0.068	-0.182
-722.850	-36.597	0.413	0.224
-721.835	127.573	-0.094	-0.121
-720.821	-200.000	0.030	-0.278
-719.806	176.233	0.147	-0.215
-718.791	401.953	-0.101	-0.213
-717.777	583.903	-0.124	0.307
-716.762	-160.788	-0.283	-0.015
-715.748	-170.751	0.148	-0.005
-714.733	-200.000	0.018	0.203
-713.718	-80.775	-0.311	-0.104
-712.704	-101.879	0.045	0.011
-711.689	-200.000	-0.003	0.234
-710.675	117.439	0.166	0.206
-709.660	-146.561	-0.334	-0.029
-708.645	57.897	0.182	-0.180
-707.631	-24.415	-0.204	0.123
-706.616	50.409	0.102	-0.097
-705.602	234.453	0.054	-0.090
-704.587	109.220	0.109	-0.132
-703.572	800.000	0.022	-0.067
-702.558	0.113	0.294	-0.211
-701.543	-59.100	0.224	0.098
-700.529	160.225	-0.170	-0.239
-699.514	-109.639	-0.292	-0.062
-698.499	-200.000	0.018	-0.267
-697.485	-127.089	-0.273	0.040
-696.470	-189.666	-0.232	0.003
-695.456	13.876	0.060	-0.047
-694.441	614.513	-0.118	0.298
-693.426	47.239	0.371	0.348
-692.412	98.449	-0.177	0.206
-691.397	-143.092	-0.282	-0.027
-690.383	-43.377	0.370	-0.189
-689.368	110.029	-0.271	-0.328
-688.354	62.644	0.106	0.107
-687.339	800.000	-0.078	0.250
-686.324	336.503	0.044	-0.087
-685.310	-200.000	-0.017	0.188
-684.295	621.984	0.074	-0.189
-683.281	-24.200	-0.114	0.068
-682.266	46.908	-0.126	-0.118
-681.251	-159.191	0.469	0.027
-680.237	-96.912	0.210	-0.055
-679.222	-200.000	-0.084	-0.388
-678.208	-33.410	-0.159	0.089
-677.193	800.000	0.035	-0.107
-676.178	45.539	-0.201	0.187
-675.164	534.030	-0.022	0.053
-674.149	43.769	-0.162	-0.149
-673.135	181.265	0.037	0.054
-672.120	-200.000	0.029	0.134
-671.105	-1.024	0.167	-0.119
-670.091	800.000	-0.046	-0.148
-669.076	45.717	-0.042	0.039
-668.062	-200.000	0.004	-0.105
-667.047	77.709	-0.198	-0.212
-666.032	-200.000	-0.003	0.085
-665.018	-39.365	-0.171	0.090
-664.003	214.791	0.128	-0.205
-662.989	-200.000	-0.022	-0.111
-661.974	31.035	-0.187	0.161
-660.959	-108.717	0.139	-0.030
-659.945	353.842	-0.108	-0.216
-658.930	-118.211	-0.281	0.050
-657.916	-14.655	-0.078	0.050
-656.901	89.192	-0.193	0.216
-655.886	57.981	-0.169	0.166
-654.872	541.095	0.024	-0.058
-653.857	-200.000	-0.028	-0.539
-652.843	-200.000	0.017	-0.197
-651.828	-25.335	-0.112	0.067
-650.814	300.853	0.147	-0.273
-649.799	800.000	-0.069	0.202
-648.784	71.573	0.181	-0.189
-647.770	800.000	0.015	-0.064
-646.755	-129.547	-0.278	0.039
-645.741	-117.000	0.178	-0.033
-644.726	-167.051	0.056	0.002
-643.711	-6.723	0.186	0.127
-642.697	344.479	-0.176	-0.348
-641.682	800.000	-0.090	0.316
-640.668	74.306	-0.150	0.159
-639.653	-45.624	-0.258	-0.128
-638.638	-95.863	-0.159	0.043
-637.624	16.091	-0.104	-0.083
-636.609	800.000	-0.078	0.268
-635.595	-92.448	-0.135	0.038
-634.580	135.232	0.175	0.228
-633.565	48.593	0.269	0.254
-632.551	-53.871	-0.219	-0.100
-631.536	19.752	0.185	0.150
-630.522	-78.776	0.094	0.032
-629.507	67.609	-0.134	0.138
-628.492	800.000	-0.028	-0.108
-627.478	-200.000	0.003	0.288
-626.463	76.914	0.053	-0.056
-625.449	800.000	0.037	-0.111
-624.434	-200.000	0.065	-0.391
-623.419	-33.309	-0.166	-0.092
-622.405	-141.209	0.494	0.051
-621.390	67.033	-0.280	0.287
-620.376	-184.508	0.122	0.002
-619.361	-88.742	0.206	-0.061
-618.346	-30.243	0.128	0.073
-617.332	10.882	-0.115	-0.088
-616.317	-83.943	-0.319	-0.102
-615.303	-200.000	0.032	-0.172
-614.288	-200.000	-0.008	0.323
-613.273	-200.000	0.073	-0.357
-612.259	800.000	0.094	-0.414
-611.244	130.223	0.037	0.048
-610.230	-57.323	0.284	-0.125
-609.215	-0.302	0.317	-0.226
-608.201	39.429	0.135	-0.121
-607.186	186.454	0.186	0.278
-606.171	-200.000	-0.036	0.346
-605.157	224.380	0.143	-0.233
-604.142	-40.915	-0.214	-0.111
-603.128	-200.000	-0.013	-0.102
-602.113	-200.000	-0.008	0.375
-601.098	235.683	0.181	0.300
-600.084	228.460	0.133	0.218
-599.069	-59.000	-0.230	0.100
-598.055	800.000	0.040	-0.154
-597.040	-69.090	-0.335	0.129
-596.025	319.478	0.112	0.213
-595.011	241.892	-0.083	-0.139
-593.996	253.792	-0.024	-0.042
-592.982	137.246	-0.140	0.184
-591.967	-87.829	-0.606	0.183
-590.952	800.000	0.056	-0.156
-589.938	-110.254	0.249	0.052
-588.923	-151.117	0.252	0.019
-587.909	800.000	-0.095	-0.350
-586.894	731.741	0.048	-0.130
-585.879	-182.364	0.436	-0.008
-584.865	93.160	0.064	-0.072
-583.850	-200.000	0.001	-0.018
-582.836	53.861	0.100	-0.096
-581.821	800.000	0.096	-0.273
-580.806	-48.525	0.224	-0.108
-579.792	75.027	-0.089	0.094
-578.777	22.845	-0.110	-0.091
-577.763	-200.000	-0.015	-0.213
-576.748	39.985	0.126	0.113
-575.733	96.433	0.031	0.035
-574.719	-82.877	-0.133	0.043
-573.704	415.517	0.124	0.266
-572.690	103.287	0.173	0.203
-571.675	-24.209	-0.195	-0.117
-570.661	253.603	-0.135	-0.231
-569.646	-200.000	0.058	-0.305
-568.631	-97.853	-0.263	0.068
-567.617	264.454	-0.138	-0.240
-566.602	34.000	-0.204	-0.178
-565.588	164.584	-0.115	-0.163
-564.573	266.253	0.104	0.182
-563.558	-77.310	-0.145	-0.050
-562.544	-16.996	0.348	0.220
-561.529	0.536	-0.273	0.195
-560.515	-164.730	-0.256	-0.012
-559.500	536.304	0.113	-0.269
-558.485	-149.875	0.180	0.014
-557.471	800.000	0.130	0.446
-556.456	800.000	0.070	0.228
-555.442	-22.297	0.133	-0.081
-554.427	-200.000	0.023	0.105
-553.412	-174.147	0.098	0.003
-552.398	29.119	-0.038	0.032
-551.383	-136.075	0.207	0.024
-550.369	73.412	0.104	0.109
-549.354	146.605	-0.208	0.280
-548.339	167.922	0.092	0.131
-547.325	-66.367	0.088	0.035
-546.310	399.470	0.166	-0.348
-545.296	0.329	-0.122	-0.087
-544.281	51.681	-0.154	0.146
-543.266	-112.268	0.423	-0.085
-542.252	141.914	0.051	-0.067
-541.237	46.503	0.068	-0.063
-540.223	-193.456	-0.447	0.004
-539.208	126.067	0.183	-0.232
-538.193	800.000	0.052	0.158
-537.179	-75.439	0.142	0.051
-536.164	408.776	0.127	-0.270
-535.150	-67.320	0.305	0.120
-534.135	-88.255	-0.126	-0.038
-533.121	360.215	-0.066	0.132
-532.106	10.215	0.238	-0.182
-531.091	629.298	0.136	-0.345
-530.077	238.547	-0.120	0.200
-529.062	-93.633	0.258	-0.071
-528.048	-200.000	-0.015	-0.168
-527.033	-118.671	0.147	0.026
-526.018	-200.000	-0.021	-0.139
-525.004	-138.897	-0.322	0.035
-523.989	-104.517	0.203	-0.047
-522.975	228.102	-0.197	0.321
-521.960	30.816	0.341	-0.292
-520.945	-79.626	-0.034	0.011
-519.931	-23.781	0.313	-0.187
-518.916	-88.800	-0.096	-0.029
-517.902	800.000	0.034	0.111
-516.887	200.790	0.050	0.077
-515.872	-83.525	0.308	-0.098
-514.858	622.357	-0.137	0.345
-513.843	185.710	0.106	0.157
-512.829	97.677	-0.139	0.160
-511.814	18.170	-0.163	-0.130
-510.799	31.981	-0.144	-0.124
-509.785	342.171	0.145	0.284
-508.770	175.235	-0.187	-0.271
-507.756	-73.397	-0.171	-0.063
-506.741	-32.331	-0.143	0.080
-505.726	-200.000	-0.047	-0.448
-504.712	-91.769	0.073	-0.021
-503.697	45.556	0.095	0.088
-502.683	-142.898	-0.222	0.022
-501.668	389.961	-0.055	0.113
-500.653	-95.053	0.055	0.015
-499.639	-35.439	-0.398	-0.216
-498.624	87.500	0.156	0.173
-497.610	-17.019	-0.071	0.045
-496.595	-200.000	0.010	-0.207
-495.581	-98.148	0.237	0.061
-494.566	-66.419	-0.428	0.170
-493.551	518.095	-0.070	0.165
-492.537	800.000	0.083	0.318
-491.522	683.974	-0.062	0.163
-490.508	800.000	0.065	0.267
-489.493	15.959	-0.302	0.238
-488.478	-85.748	0.351	0.109
-487.464	59.834	-0.206	-0.203
-486.449	-200.000	-0.057	0.264
-485.435	295.604	-0.240	0.440
-484.420	-77.293	-0.218	0.076
-483.405	-23.288	0.234	-0.141
-482.391	-93.109	0.131	-0.036
-481.376	102.341	0.094	-0.110
-480.362	-48.401	-0.281	0.135
-479.347	-93.713	-0.351	0.097
-478.332	-132.402	0.269	0.035
-477.318	-89.399	0.275	0.081
-476.303	800.000	-0.052	-0.146
-475.289	-18.825	-0.236	-0.147
-474.274	-200.000	0.009	-0.148
-473.259	-19.308	-0.325	-0.202
-472.245	259.881	0.033	-0.058
-471.230	128.134	0.108	0.138
-470.216	-59.341	-0.346	-0.149
-469.201	120.742	-0.115	-0.143
-468.186	-149.176	-0.354	-0.028
-467.172	190.212	0.127	-0.191
-466.157	-200.000	0.045	0.209
-465.143	65.138	0.124	-0.125
-464.128	-52.685	-0.107	0.049
-463.113	-200.000	0.016	-0.097
-462.099	800.000	0.030	0.087
-461.084	109.456	0.170	0.204
-460.070	-186.841	0.326	-0.005
-459.055	-141.015	-0.092	0.009
-458.040	800.000	-0.006	-0.024
-457.026	-129.943	0.074	-0.010
-456.011	-111.145	0.213	-0.044
-454.997	21.358	-0.361	-0.293
-453.982	318.970	0.110	0.209
-452.968	68.074	-0.090	0.092
-451.953	-200.000	0.016	-0.355
-450.938	800.000	-0.045	-0.156
-449.924	-72.406	-0.311	-0.115
-448.909	194.871	-0.124	-0.188
-447.895	52.331	-0.073	-0.070
-446.880	-87.123	-0.191	0.058
-445.865	-86.509	-0.201	0.062
-444.851	-11.754	0.229	0.150
-443.836	-200.000	0.020	0.324
-442.822	-200.000	-0.022	0.222
-441.807	800.000	-0.125	-0.505
-440.792	230.795	-0.104	0.170
-439.778	-55.971	-0.229	-0.102
-438.763	-200.000	-0.061	0.395
-437.749	-46.274	0.163	-0.080
-436.734	37.873	0.296	-0.262
-435.719	229.185	-0.124	0.202
-434.705	48.138	0.135	-0.126
-433.690	-7.856	0.145	0.097
-432.676	99.856	-0.035	-0.041
-431.661	-31.625	0.089	-0.050
-430.646	14.072	-0.291	0.226
-429.632	800.000	-0.104	-0.427
-428.617	504.811	-0.079	-0.182
-427.603	-200.000	0.019	0.090
-426.588	152.500	0.013	-0.018
-425.573	-74.353	0.235	-0.085
-424.559	800.000	-0.095	-0.289
-423.544	115.308	-0.076	0.092
-422.530	-89.474	-0.157	0.046
-421.515	455.773	0.052	-0.115
-420.500	326.139	-0.013	-0.025
-419.486	-155.513	-0.370	-0.024
-418.471	750.042	0.042	-0.113
-417.457	39.178	-0.127	0.114
-416.442	-48.445	0.275	-0.132
-415.428	46.775	0.165	0.153
-414.413	800.000	-0.027	0.113
-413.398	3.850	-0.209	0.152
-412.384	-34.226	-0.276	-0.151
-411.369	50.016	-0.343	-0.322
-410.355	800.000	-0.038	-0.165
-409.340	-68.729	0.213	0.082
-408.325	73.795	0.209	-0.218
-407.311	-104.959	0.121	0.028
-406.296	-200.000	0.073	-0.455
-405.282	-108.211	0.071	-0.015
-404.267	-78.011	-0.354	0.122
-403.252	-95.060	-0.433	-0.117
-402.238	165.903	0.092	0.130
-401.223	-80.303	0.121	0.040
-400.209	-152.143	-0.197	0.014
-399.194	-48.916	0.447	0.213
-398.179	-200.000	-0.022	-0.118
-397.165	84.804	0.178	0.195
-396.150	80.827	-0.060	0.065
-395.136	533.771	0.016	0.038
-394.121	124.626	0.177	0.222
-393.106	-71.627	-0.326	-0.121
-392.092	800.000	-0.073	0.253
-391.077	-61.252	-0.130	0.054
-390.063	800.000	0.046	0.129
-389.048	-93.986	-0.266	-0.073
-388.033	773.071	-0.051	-0.137
-387.019	-29.012	0.214	-0.122
-386.004	-88.558	-0.159	0.047
-384.990	-75.005	-0.245	0.087
-383.975	13.504	0.179	0.138
-382.960	176.313	0.272	0.394
-381.946	213.411	0.173	0.272
-380.931	-40.127	0.221	-0.115
-379.917	-200.000	0.038	-0.192
-378.902	-93.262	-0.045	0.013
-377.888	-4.339	-0.331	0.228
-376.873	99.676	-0.285	-0.328
-375.858	-108.609	0.206	-0.044
-374.844	-126.487	-0.391	0.058
-373.829	-49.687	-0.155	0.073
-372.815	-125.576	0.131	0.020
-371.800	-175.026	-0.129	0.004
-370.785	356.686	-0.164	-0.325
-369.771	-101.133	-0.078	-0.019
-368.756	-195.753	0.194	0.001
-367.742	396.717	0.202	-0.420
-366.727	55.260	-0.144	0.139
-365.712	-38.422	-0.165	-0.087
-364.698	50.929	0.139	0.131
-363.683	26.422	0.144	0.119
-362.669	800.000	-0.066	-0.234
-361.654	-200.000	-0.024	-0.175
-360.639	-33.424	0.217	-0.120
-359.625	800.000	-0.091	0.364
-358.610	-200.000	-0.010	-0.448
-357.596	276.900	-0.018	0.031
-356.581	-151.552	0.186	0.014
-355.566	800.000	0.101	-0.400
-354.552	-80.955	0.376	0.124
-353.537	-34.574	0.244	0.133
-352.523	-189.094	-0.108	-0.001
-351.508	-85.193	0.285	0.089
-350.493	114.749	0.132	-0.160
-349.479	800.000	-0.037	-0.131
-348.464	135.634	0.145	0.187
-347.450	235.587	-0.119	0.196
-346.435	-148.713	0.093	-0.008
-345.420	128.449	-0.061	-0.078
-344.406	33.658	-0.219	0.190
-343.391	-3.003	-0.232	-0.161
-342.377	-200.000	-0.027	-0.241
-341.362	-103.648	-0.340	-0.079
-340.348	-143.117	-0.084	0.008
-339.333	407.643	-0.075	0.158
-338.318	75.141	0.173	0.181
-337.304	-8.146	0.204	0.137
-336.289	800.000	-0.032	0.129
-335.275	-168.885	0.194	-0.007
-334.260	3.237	-0.147	0.106
-333.245	34.422	-0.370	-0.321
-332.231	28.470	-0.214	-0.180
-331.216	-200.000	-0.015	-0.096
-330.202	-200.000	-0.007	0.140
-329.187	-40.513	-0.150	-0.077
-328.172	-35.557	0.135	-0.073
-327.158	800.000	0.042	-0.172
-326.143	-77.268	0.256	0.088
-325.129	35.183	0.200	-0.174
-324.114	-200.000	-0.020	0.212
-323.099	800.000	-0.069	0.244
-322.085	800.000	-0.044	-0.170
-321.070	-200.000	-0.036	0.157
-320.056	59.254	0.149	-0.146
-319.041	114.155	0.180	0.218
-318.026	800.000	-0.100	0.433
-317.012	52.216	-0.175	0.166
-315.997	337.652	-0.017	-0.032
-314.983	250.681	0.231	0.389
-313.968	-81.532	-0.383	0.125
-312.953	-25.676	0.297	-0.174
-311.939	56.273	0.019	0.018
-310.924	800.000	0.025	-0.100
-309.910	593.973	-0.076	-0.186
-308.895	363.574	0.088	0.176
-307.880	229.238	-0.109	-0.176
-306.866	1.611	-0.267	0.190
-305.851	50.892	-0.117	0.110
-304.837	14.684	0.114	0.088
-303.822	800.000	0.048	0.187
-302.807	60.834	0.196	0.193
-301.793	184.712	0.210	0.308
-300.778	800.000	-0.049	0.155
-299.764	0.998	0.149	0.106
-298.749	800.000	-0.054	-0.208
-297.735	-200.000	-0.041	-0.379
-296.720	-87.117	0.371	-0.112
-295.705	-40.648	-0.080	0.041
-294.691	-110.547	-0.025	0.005
-293.676	800.000	-0.102	0.368
-292.662	-200.000	-0.042	0.255
-291.647	-112.819	0.238	-0.047
-290.632	-79.060	-0.021	-0.007
-289.618	35.643	0.019	-0.016
-288.603	137.695	-0.146	0.189
-287.589	140.577	0.246	-0.322
-286.574	800.000	-0.030	0.099
-285.559	-132.369	0.192	-0.025
-284.545	-22.115	-0.172	-0.104
-283.530	-200.000	0.002	-0.264
-282.516	800.000	0.097	0.281
-281.501	-200.000	0.015	-0.146
-280.486	72.430	0.233	-0.241
-279.472	-125.663	0.293	0.044
-278.457	10.706	-0.091	0.069
-277.443	36.904	0.212	-0.186
-276.428	5.923	0.378	-0.278
-275.413	-137.209	-0.086	0.010
-274.399	122.925	-0.207	-0.257
-273.384	98.291	-0.169	-0.193
-272.370	-200.000	0.101	-0.456
-271.355	-161.003	-0.335	-0.017
-270.340	38.611	-0.330	0.292
-269.326	-82.076	0.109	0.035
-268.311	331.445	0.157	0.300
-267.297	-89.341	0.031	0.009
-266.282	-200.000	-0.001	-0.125
-265.267	139.140	-0.234	-0.305
-264.253	471.396	-0.097	-0.217
-263.238	220.441	-0.221	0.351
-262.224	-25.550	0.330	0.193
-261.209	126.067	-0.065	-0.081
-260.195	179.594	0.078	0.113
-259.180	800.000	-0.030	-0.123
-258.165	727.584	-0.059	-0.156
-257.151	-200.000	0.061	0.403
-256.136	-9.640	-0.275	0.181
-255.122	-134.098	-0.079	0.010
-254.107	202.218	-0.119	0.182
-253.092	6.348	-0.108	-0.080
-252.078	438.379	-0.165	-0.357
-251.063	34.726	-0.203	-0.176
-250.049	-139.932	0.323	0.034
-249.034	-200.000	-0.038	-0.174
-248.019	-11.292	-0.256	0.167
-247.005	139.135	0.059	-0.077
-245.990	50.100	-0.136	0.127
-244.976	-136.203	-0.303	0.035
-243.961	-200.000	0.005	-0.317
-242.946	-105.505	0.210	-0.047
-241.932	-78.439	-0.221	0.075
-240.917	800.000	0.079	-0.286
-239.903	-200.000	0.009	0.055
-238.888	172.579	0.100	-0.142
-237.873	115.693	0.163	-0.197
-236.859	-71.994	0.307	0.113
-235.844	274.532	-0.145	0.254
-234.830	-29.950	-0.163	-0.092
-233.815	304.172	0.157	-0.288
-232.800	41.403	-0.133	0.119
-231.786	-182.283	-0.232	-0.004
-230.771	-161.288	0.042	-0.002
-229.757	104.488	-0.085	-0.099
-228.742	20.422	0.359	-0.287
-227.727	-114.615	-0.128	0.024
-226.713	752.166	-0.014	0.038
-225.698	-141.768	0.209	0.021
-224.684	-200.000	-0.044	0.316
-223.669	-200.000	-0.003	-0.272
-222.655	-125.024	0.245	0.037
-221.640	800.000	-0.044	0.158
-220.625	-200.000	0.008	-0.209
-219.611	-200.000	-0.070	-0.366
-218.596	-96.145	-0.171	0.045
-217.582	690.723	0.035	-0.091
-216.567	-69.946	-0.236	-0.089
-215.552	160.349	-0.199	0.274
-214.538	417.791	0.139	-0.294
-213.523	-200.000	0.035	-0.353
-212.509	-200.000	0.000	-0.069
-211.494	794.833	-0.053	0.145
-210.479	588.971	-0.084	-0.205
-209.465	800.000	0.028	0.118
-208.450	800.000	-0.179	0.587
-207.436	-32.338	-0.162	0.089
-206.421	616.930	0.080	-0.198
-205.406	315.041	-0.158	-0.294
-204.392	-200.000	0.013	0.456
-203.377	-189.219	-0.125	-0.001
-202.363	-110.546	-0.110	0.022
-201.348	-64.485	0.186	-0.075
-200.333	45.869	-0.224	-0.205
-199.319	173.530	0.198	-0.282
-198.304	-174.307	0.230	0.007
-197.290	-200.000	-0.021	0.137
-196.275	16.190	0.375	0.292
-195.260	-1.119	0.399	0.279
-194.246	-67.703	0.396	-0.153
-193.231	-50.212	-0.241	0.113
-192.217	-150.662	-0.176	0.013
-191.202	65.428	-0.137	-0.137
-190.187	-3.868	0.209	-0.143
-189.173	-136.689	-0.174	0.020
-188.158	-200.000	-0.071	-0.327
-187.144	-0.723	-0.193	0.135
-186.129	463.661	0.190	0.420
-185.114	-51.583	0.290	-0.133
-184.100	800.000	0.050	-0.216
-183.085	41.468	-0.053	0.047
-182.071	800.000	0.079	0.271
-181.056	69.511	-0.149	0.152
-180.042	450.211	0.132	0.288
-179.027	285.650	-0.060	0.107
-178.012	-78.410	-0.178	-0.060
-176.998	-144.720	0.246	-0.022
-175.983	13.691	-0.279	0.214
-174.969	-184.212	0.308	-0.005
-173.954	-125.986	0.253	-0.038
-172.939	324.590	0.061	0.115
-171.925	26.018	0.117	0.097
-170.910	-175.000	0.220	-0.006
-169.896	-200.000	0.002	-0.166
-168.881	-200.000	0.011	0.076
-167.866	-65.634	0.089	-0.035
-166.852	-94.657	0.422	-0.113
-165.837	627.988	-0.080	-0.200
-164.823	143.187	0.041	-0.053
-163.808	126.208	0.080	0.100
-162.793	28.610	0.094	-0.078
-161.779	360.060	-0.064	-0.127
-160.764	-17.759	0.346	-0.214
-159.750	800.000	-0.096	0.395
-158.735	-135.441	-0.125	0.015
-157.720	-200.000	-0.017	0.103
-156.706	-200.000	0.005	0.261
-155.691	110.114	-0.061	-0.073
-154.677	-88.854	0.118	0.034
-153.662	648.082	-0.087	0.220
-152.647	-20.574	-0.236	0.143
-151.633	-39.748	-0.097	0.050
-150.618	-44.411	0.069	0.034
-149.604	800.000	0.021	0.079
-148.589	117.061	0.146	-0.177
-147.574	-106.088	-0.083	-0.018
-146.560	105.747	0.227	-0.265
-145.545	-200.000	0.002	0.160
-144.531	92.808	0.289	0.321
-143.516	122.773	0.103	-0.127
-142.502	-200.000	-0.040	0.193
-141.487	262.991	0.121	0.207
-140.472	-125.001	0.101	0.015
-139.458	-101.351	-0.198	-0.048
-138.443	800.000	-0.058	0.217
-137.429	-97.335	0.181	0.046
-136.414	7.260	0.291	0.214
-135.399	800.000	-0.064	0.257
-134.385	-200.000	0.014	0.082
-133.370	-200.000	0.040	0.350
-132.356	-57.692	0.268	-0.116
-131.341	-149.566	-0.111	0.009
-130.326	190.961	-0.110	0.164
-129.312	-142.107	0.349	0.034
-128.297	-158.227	-0.191	0.011
-127.283	20.943	0.104	0.083
-126.268	-6.805	-0.245	-0.164
-125.253	192.207	-0.278	0.413
-124.239	-107.490	-0.263	0.057
-123.224	-200.000	-0.011	-0.144
-122.210	-200.000	-0.006	0.197
-121.195	-135.984	-0.094	-0.011
-120.180	-134.649	-0.160	-0.019
-119.166	36.663	-0.179	-0.156
-118.151	28.391	-0.218	0.182
-117.137	-90.552	0.140	-0.040
-116.122	-200.000	-0.031	0.264
-115.107	-31.149	0.223	0.124
-114.093	-109.337	0.370	0.077
-113.078	-17.024	0.119	-0.074
-112.064	-3.626	0.039	0.027
-111.049	-9.781	0.214	-0.140
-110.034	-45.281	0.319	-0.156
-109.020	566.218	-0.104	-0.250
-108.005	184.758	0.288	0.420
-106.991	371.316	0.153	-0.307
-105.976	-25.111	-0.108	0.063
-104.962	-107.825	-0.410	0.088
-103.947	-108.252	-0.161	0.034
-102.932	-50.479	0.031	-0.014
-101.918	187.358	0.274	-0.402
-100.903	-4.973	-0.050	-0.034
-99.889	-200.000	-0.042	-0.246
-98.874	664.067	0.111	0.282
-97.859	108.222	-0.165	0.194
-96.845	413.002	0.062	-0.130
-95.830	-24.398	0.153	0.090
-94.816	800.000	-0.038	0.114
-93.801	121.094	-0.127	-0.156
-92.786	520.505	0.163	-0.377
-91.772	216.750	0.106	-0.166
-90.757	800.000	0.063	-0.206
-89.743	-41.482	0.322	-0.163
-88.728	221.936	-0.149	0.236
-87.713	800.000	0.100	0.360
-86.699	-200.000	0.001	-0.117
-85.684	800.000	-0.026	-0.105
-84.670	-43.124	0.401	-0.200
-83.655	181.815	0.119	-0.172
-82.640	30.582	0.135	-0.114
-81.626	800.000	-0.138	0.496
-80.611	-88.499	-0.081	0.024
-79.597	79.577	0.202	0.214
-78.582	800.000	-0.065	-0.182
-77.567	-134.331	-0.107	-0.013
-76.553	800.000	-0.055	0.168
-75.538	800.000	-0.107	-0.309
-74.524	432.891	-0.172	-0.366
-73.509	534.804	0.051	-0.119
-72.494	10.321	0.169	-0.127
-71.480	56.517	0.119	0.114
-70.465	8.328	0.237	-0.175
-69.451	406.960	0.236	-0.490
-68.436	-26.914	0.150	0.086
-67.422	224.545	0.094	0.149
-66.407	480.973	0.067	-0.149
-65.392	-200.000	-0.013	0.202
-64.378	-116.522	-0.289	0.052
-63.363	800.000	0.113	-0.476
-62.349	115.748	0.085	-0.102
-61.334	37.622	-1.156	-1.008
-60.319	-54.030	0.938	0.420
-59.305	-200.000	-0.257	-1.200
-58.290	120.364	0.787	0.961
-57.276	800.000	0.419	1.555
-56.261	-200.000	97.009	603.669
-55.246	553.949	1371.256	3241.084
-54.232	162.126	2546.898	3507.694
-53.217	113.661	2132.251	2545.648
-52.203	43.894	1595.235	1436.040
-51.188	35.467	1333.371	1150.050
-50.173	32.111	1292.243	1095.001
-49.159	55.006	1339.749	1271.544
-48.144	57.150	1355.964	1299.578
-47.130	35.605	1314.597	1134.492
-46.115	32.069	1297.825	1099.310
-45.100	31.834	1292.583	1093.454
-44.086	31.805	1289.799	1090.888
-43.071	31.715	1287.635	1088.494
-42.057	31.707	1285.686	1086.754
-41.042	31.650	1284.096	1085.037
-40.027	31.750	1282.561	1084.274
-39.013	31.754	1280.309	1082.353
-37.998	31.779	1278.594	1081.005
-36.984	31.808	1276.984	1079.770
-35.969	31.808	1275.377	1078.367
-34.954	31.888	1273.332	1077.054
-33.940	31.836	1272.409	1075.933
-32.925	31.897	1270.595	1074.704
-31.911	31.903	1269.568	1073.828
-30.896	31.938	1267.807	1072.498
-29.881	31.954	1266.406	1071.360
-28.867	31.894	1265.320	1070.058
-27.852	31.857	1264.321	1068.957
-26.838	31.972	1262.315	1067.872
-25.823	31.892	1261.084	1066.337
-24.809	31.893	1260.091	1065.457
-23.794	31.931	1258.760	1064.509
-22.779	31.922	1257.328	1063.205
-21.765	31.806	1256.742	1062.007
-20.750	31.824	1254.929	1060.538
-19.736	31.840	1253.654	1059.505
-18.721	31.692	1252.447	1057.608
-17.706	31.752	1251.424	1057.043
-16.692	31.717	1249.994	1055.592
-15.677	31.797	1248.786	1054.982
-14.663	31.786	1247.844	1054.084
-13.648	31.763	1246.496	1052.772
-12.633	31.780	1245.587	1052.059
-11.619	31.748	1244.892	1051.248
-10.604	31.687	1244.126	1050.218
-9.590	31.798	1243.129	1049.961
-8.575	31.772	1242.025	1048.840
-7.560	31.729	1241.478	1048.092
-6.546	31.710	1240.442	1047.072
-5.531	31.718	1239.620	1046.380
-4.517	31.843	1238.485	1046.081
-3.502	31.806	1237.620	1045.103
-2.487	31.724	1236.608	1043.746
-1.473	31.721	1233.131	1040.758
-0.458	30.120	1218.395	1019.477
0.556	27.620	1201.850	985.376
1.571	24.673	1208.710	974.868
2.586	24.157	1224.645	984.777
3.600	23.764	1213.797	973.817
4.615	17.624	1140.863	883.485
5.629	7.241	1063.469	773.048
6.644	2.576	1043.349	735.985
7.659	2.207	1040.311	732.011
8.673	2.080	1039.044	730.449
9.688	1.978	1038.172	729.284
10.702	2.558	1037.095	731.229
11.717	9.502	1046.599	771.222
12.731	19.404	1060.370	829.137
13.746	24.245	1066.165	856.928
14.761	25.295	1067.777	863.201
15.775	25.486	1067.112	863.503
16.790	25.247	1066.317	861.636
17.804	25.107	1065.844	860.505
18.819	25.278	1065.574	861.035
19.834	25.534	1064.311	861.162
20.848	25.426	1064.480	860.703
21.863	25.437	1063.781	860.116
22.877	25.343	1063.385	859.272
23.892	25.293	1063.074	858.702
24.907	25.351	1062.103	858.122
25.921	25.292	1061.066	856.926
26.936	25.350	1059.457	855.826
27.950	25.207	1058.296	854.130
28.965	25.121	1055.962	851.765
29.980	25.301	1054.682	851.509
30.994	25.487	1054.204	851.931
32.009	25.438	1052.737	850.440
33.023	25.168	1051.718	848.263
34.038	25.419	1050.775	848.616
35.053	25.462	1050.063	848.165
36.067	25.377	1049.365	847.128
37.082	25.522	1048.829	847.304
38.096	25.529	1048.394	846.911
39.111	25.731	1047.415	846.994
40.126	25.431	1045.929	844.310
41.140	25.169	1044.240	841.639
42.155	24.950	1042.843	839.416
43.169	25.086	1041.782	839.120
44.184	25.033	1041.416	838.505
45.199	24.924	1040.414	837.116
46.213	25.047	1039.290	836.709
47.228	25.211	1038.570	836.821
48.242	25.328	1037.395	836.345
49.257	25.330	1037.039	835.996
50.271	25.338	1036.834	835.791
51.286	25.565	1035.607	835.783
52.301	25.485	1034.736	834.635
53.315	25.407	1033.839	833.477
54.330	25.281	1032.961	832.112
55.344	25.420	1032.189	832.058
56.359	25.320	1031.350	830.845
57.374	25.028	1030.685	828.887
58.388	25.211	1029.486	828.695
59.403	25.158	1028.534	827.609
60.417	24.964	1027.808	826.058
61.432	25.034	1027.453	826.021
62.447	25.048	1026.775	825.469
63.461	25.244	1026.020	825.691
64.476	25.194	1024.612	824.254
65.490	25.036	1024.303	823.207
66.505	25.102	1023.261	822.602
67.520	25.140	1022.466	822.063
68.534	24.891	1021.650	820.194
69.549	24.561	1020.607	817.775
70.563	24.539	1020.094	817.188
71.578	24.640	1018.922	816.639
72.593	24.683	1017.918	815.957
73.607	24.526	1018.063	815.288
74.622	24.739	1017.533	815.759
75.636	24.858	1016.920	815.738
76.651	24.861	1015.554	814.584
77.666	24.707	1015.069	813.425
78.680	24.719	1014.189	812.703
79.695	24.916	1013.785	813.203
80.709	24.966	1012.927	812.665
81.724	24.894	1012.236	811.715
82.739	25.101	1011.721	812.168
83.753	25.394	1010.904	812.767
84.768	25.673	1010.397	813.549
85.782	25.787	1009.384	813.177
86.797	25.484	1008.541	811.055
87.812	25.445	1007.529	809.997
88.826	25.656	1006.536	810.077
89.841	25.725	1005.442	809.434
90.855	25.748	1004.833	808.977
91.870	25.570	1003.778	807.256
92.884	25.530	1002.295	805.814
93.899	25.528	1001.534	805.118
94.914	25.581	1001.103	804.941
95.928	25.425	1000.037	803.315
96.943	25.259	998.656	801.390
97.957	25.010	997.592	799.356
98.972	24.856	996.664	797.857
99.987	25.271	996.044	799.138
101.001	25.360	995.082	798.691
102.016	25.239	994.333	797.479
103.030	25.187	993.828	796.776
104.045	24.963	992.678	794.787
105.060	24.995	991.792	794.151
106.074	25.091	991.292	794.106
107.089	25.395	990.865	795.038
108.103	25.337	989.560	793.662
109.118	25.171	988.052	791.651
110.133	25.012	987.346	790.314
111.147	24.944	986.180	789.010
112.162	24.731	985.458	787.426
113.176	25.158	984.609	788.559
114.191	24.913	984.038	786.954
115.206	24.570	982.842	784.420
116.220	24.661	982.141	784.193
117.235	24.776	981.159	783.841
118.249	24.852	980.260	783.386
119.264	24.635	979.880	782.066
120.279	24.818	978.758	781.899
121.293	24.664	978.857	781.235
122.308	24.848	977.318	780.742
123.322	24.835	976.231	779.749
124.337	24.529	975.274	777.582
125.352	24.199	973.213	774.438
126.366	24.061	972.497	773.199
127.381	24.795	972.798	776.559
128.395	25.170	972.775	778.098
129.410	25.148	972.070	777.368
130.424	25.210	970.880	776.618
131.439	25.420	969.458	776.319
132.454	25.267	968.910	775.151
133.468	25.255	967.709	774.070
134.483	25.343	967.298	774.052
135.497	25.467	966.949	774.238
136.512	25.582	965.529	773.529
137.527	25.534	965.014	772.838
138.541	25.523	964.091	771.984
139.556	25.523	963.207	771.208
140.570	25.719	962.471	771.391
141.585	25.516	961.843	769.950
142.600	25.745	960.103	769.470
143.614	25.811	960.203	769.765
144.629	25.881	959.433	769.377
145.643	25.621	958.594	767.525
146.658	25.658	956.561	765.986
147.673	25.447	955.386	764.081
148.687	25.499	954.403	763.449
149.702	25.447	953.149	762.157
150.716	25.345	952.835	761.406
151.731	25.457	952.001	761.149
152.746	25.742	951.145	761.601
153.760	25.830	950.815	761.643
154.775	25.816	950.648	761.382
155.789	25.721	949.628	760.097
156.804	25.485	949.159	758.656
157.819	25.736	947.794	758.556
158.833	25.859	947.474	758.754
159.848	25.803	946.380	757.574
160.862	25.574	945.465	755.813
161.877	25.563	944.374	754.825
162.892	25.851	943.227	755.051
163.906	25.715	941.944	753.388
164.921	25.656	941.537	752.748
165.935	25.591	941.070	752.035
166.950	25.635	940.101	751.379
167.964	25.632	939.181	750.565
168.979	25.448	938.339	749.057
169.994	25.515	937.154	748.325
171.008	25.726	936.758	748.821
172.023	25.686	935.847	747.860
173.037	25.533	934.535	746.113
174.052	25.321	933.796	744.574
175.067	25.535	932.953	744.724
176.081	25.696	932.263	744.772
177.096	25.484	931.759	743.430
178.110	25.312	930.489	741.639
179.125	25.062	930.251	740.351
180.140	25.176	929.681	740.301
181.154	25.234	929.514	740.343
182.169	25.610	929.586	741.888
183.183	25.729	929.069	741.898
184.198	25.815	927.903	741.253
185.213	25.506	927.682	739.742
186.227	25.849	926.596	740.218
187.242	25.682	926.180	739.135
188.256	25.968	925.139	739.415
189.271	25.862	924.458	738.369
190.286	25.521	923.249	735.941
191.300	24.894	922.065	732.371
192.315	24.204	920.341	728.118
193.329	24.021	920.341	727.304
194.344	24.947	920.640	731.261
195.359	25.569	920.697	733.779
196.373	25.603	920.362	733.588
197.388	25.517	919.804	732.725
198.402	25.446	919.245	731.928
199.417	25.737	917.954	732.016
200.432	25.387	917.296	730.005
201.446	25.215	916.931	728.953
202.461	25.410	915.867	728.833
203.475	24.363	913.864	722.933
204.490	23.572	912.876	718.886
205.504	24.607	913.187	723.258
206.519	25.301	913.168	725.987
207.534	25.306	912.753	725.613
208.548	25.609	912.751	726.773
209.563	25.563	911.317	725.381
210.577	25.465	910.931	724.614
211.592	25.800	911.015	725.964
212.607	25.854	909.748	725.110
213.621	25.857	908.955	724.424
214.636	25.822	908.634	723.964
215.650	25.710	907.945	722.901
216.665	25.918	907.464	723.290
217.680	25.761	906.644	721.943
218.694	25.392	905.057	719.136
219.709	25.255	904.790	718.314
220.723	25.343	904.737	718.561
221.738	25.666	903.531	718.830
222.753	25.624	903.200	718.334
223.767	25.665	902.887	718.186
224.782	26.023	902.457	719.207
225.796	26.033	901.556	718.466
226.811	25.248	900.487	714.427
227.826	24.639	898.958	710.731
228.840	24.779	898.861	711.147
229.855	24.751	898.264	710.501
230.869	24.504	897.085	708.524
231.884	24.903	897.217	710.150
232.899	25.685	896.993	713.007
233.913	25.679	895.906	712.057
234.928	25.596	895.456	711.309
235.942	25.665	895.073	711.216
236.957	25.049	894.037	707.896
237.972	25.124	893.818	707.958
238.986	25.307	893.303	708.209
240.001	25.240	892.597	707.322
241.015	25.455	891.971	707.611
242.030	25.625	891.706	708.004
243.045	25.566	891.238	707.340
244.059	25.778	890.702	707.686
245.074	25.479	890.115	705.982
246.088	25.244	888.989	704.103
247.103	25.579	888.270	704.783
248.117	26.016	888.702	706.780
249.132	26.387	888.402	707.929
250.147	26.390	887.935	707.506
251.161	26.460	887.675	707.510
252.176	26.610	886.358	706.984
253.190	26.705	885.915	706.940
254.205	26.655	885.759	706.556
255.220	26.637	885.409	706.144
256.234	26.430	884.106	704.239
257.249	26.354	883.498	703.394
258.263	26.513	882.974	703.534
259.278	26.532	882.614	703.257
260.293	26.743	881.392	703.042
261.307	26.554	880.727	701.714
262.322	26.329	880.113	700.293
263.336	25.607	878.051	695.797
264.351	24.572	876.131	690.220
265.366	24.721	876.189	690.778
266.380	25.751	876.733	695.127
267.395	26.147	876.703	696.569
268.409	26.118	876.026	695.857
269.424	26.205	875.605	695.795
270.439	26.218	874.972	695.281
271.453	26.367	874.153	695.143
272.468	26.505	873.992	695.484
273.482	26.641	873.504	695.557
274.497	26.313	872.122	693.137
275.512	25.743	871.557	690.443
276.526	26.228	871.731	692.376
277.541	26.525	870.992	692.868
278.555	26.166	870.226	690.823
279.570	26.054	869.614	689.848
280.585	26.212	869.286	690.131
281.599	26.193	867.551	688.618
282.614	25.721	866.429	685.869
283.628	25.550	866.486	685.202
284.643	25.938	866.186	686.384
285.657	25.389	865.103	683.375
286.672	25.313	863.813	682.005
287.687	25.952	864.204	684.684
288.701	25.840	863.896	683.953
289.716	25.521	862.896	681.891
290.730	25.366	862.705	681.093
291.745	25.317	861.348	679.775
292.760	25.637	861.205	680.815
293.774	26.608	861.586	684.729
294.789	26.990	861.011	685.654
295.803	26.937	860.609	685.074
296.818	26.980	860.053	684.732
297.833	26.395	859.038	681.659
298.847	26.306	857.789	680.270
299.862	26.607	858.218	681.684
300.876	26.846	857.722	682.128
301.891	26.865	856.651	681.291
302.906	26.397	855.980	678.938
303.920	26.602	855.761	679.474
304.935	26.847	855.549	680.165
305.949	26.872	854.493	679.358
306.964	26.492	854.439	677.833
307.979	26.688	853.835	678.026
308.993	26.944	853.740	678.847
310.008	27.058	852.785	678.457
311.022	26.647	852.060	676.286
312.037	26.727	851.230	675.863
313.052	26.230	850.528	673.394
314.066	25.415	848.969	669.067
315.081	25.193	848.525	667.830
316.095	26.021	848.509	670.840
317.110	26.516	848.466	672.587
318.125	25.669	847.103	668.304
319.139	24.629	845.256	662.931
320.154	24.665	845.121	662.900
321.168	25.443	845.757	666.227
322.183	26.142	845.834	668.818
323.197	26.479	845.306	669.590
324.212	26.649	844.843	669.791
325.227	26.543	844.588	669.137
326.241	26.482	843.676	668.132
327.256	26.498	842.735	667.385
328.270	26.365	842.193	666.408
329.285	26.277	841.246	665.276
330.300	25.988	840.782	663.784
331.314	26.157	840.692	664.277
332.329	26.642	840.416	665.784
333.343	26.601	840.174	665.383
334.358	26.662	839.666	665.146
335.373	26.817	839.405	665.449
336.387	27.079	839.538	666.456
337.402	27.089	839.685	666.553
338.416	27.134	838.808	665.960
339.431	27.123	838.565	665.669
340.446	27.237	838.325	665.837
341.460	27.098	837.958	664.977
342.475	27.131	836.884	664.187
343.489	27.130	836.716	663.994
344.504	27.229	836.618	664.218
345.519	27.620	836.357	665.378
346.533	27.568	835.662	664.578
347.548	27.358	835.460	663.592
348.562	27.490	834.171	662.989
349.577	27.506	833.998	662.851
350.592	27.451	833.222	661.978
351.606	27.481	832.445	661.412
352.621	27.382	831.700	660.400
353.635	27.177	830.794	658.880
354.650	26.592	829.205	655.445
355.665	25.634	827.983	650.956
356.679	26.101	827.840	652.474
357.694	26.573	827.613	653.942
358.708	26.490	827.025	653.122
359.723	26.893	826.950	654.458
360.738	27.146	826.639	655.068
361.752	27.259	826.221	655.085
362.767	27.596	825.803	655.909
363.781	27.743	825.454	656.102
364.796	27.859	825.136	656.207
365.810	27.949	824.479	655.948
366.825	27.691	824.502	654.983
367.840	27.699	823.309	654.008
368.854	27.147	822.772	651.544
369.869	26.926	822.676	650.617
370.883	27.262	821.354	650.719
371.898	27.251	821.216	650.511
372.913	27.178	821.217	650.195
373.927	27.386	820.380	650.215
374.942	27.540	820.217	650.580
375.956	27.514	820.027	650.279
376.971	27.672	819.533	650.394
377.986	27.862	819.104	650.672
379.000	27.896	818.381	650.158
380.015	27.661	818.108	649.051
381.029	27.652	817.489	648.471
382.044	27.815	816.853	648.487
383.059	27.886	816.424	648.342
384.073	27.905	815.775	647.834
385.088	27.995	814.851	647.363
386.102	27.539	814.650	645.532
387.117	27.490	814.037	644.813
388.132	27.118	812.744	642.418
389.146	26.713	811.742	640.138
390.161	27.245	811.611	641.857
391.175	27.699	811.654	643.437
392.190	27.320	810.708	641.294
393.205	25.836	808.331	634.137
394.219	24.235	806.713	627.184
395.234	24.244	806.636	627.100
396.248	25.814	808.264	633.840
397.263	27.461	808.718	639.934
398.278	27.394	808.262	639.280
399.292	27.234	807.360	637.947
400.307	27.172	807.260	637.597
401.321	27.109	807.062	637.163
402.336	27.615	806.872	638.730
403.350	28.131	806.436	640.133
404.365	28.426	806.296	640.997
405.380	28.477	806.304	641.125
406.394	28.617	805.813	641.166
407.409	28.409	805.434	640.082
408.423	28.541	804.830	640.008
409.438	28.493	804.500	639.521
410.453	28.566	804.124	639.418
411.467	28.463	803.560	638.556
412.482	28.473	803.101	638.169
413.496	28.671	802.631	638.428
414.511	28.572	802.688	638.072
415.526	28.443	802.159	637.146
416.540	28.485	801.066	636.367
417.555	28.256	800.461	635.038
418.569	28.189	800.489	634.771
419.584	28.238	799.536	634.130
420.599	27.970	799.227	632.901
421.613	111.920	1287.112	1459.718
422.628	96.546	1358.179	1459.813
