DTS Sentinel unit serial number:	SN413079Multiplexer serial number:	ORYXHardware model number:	OX4-SRSoftware version number:	ORYX F/W v4.00 Oryx Data Collector v3.7.2.0data status	okinstallation	princeton_trtdifferential loss correction	single-endedforward channel	channel 1reverse channel	N/Adate	2019/09/15time	05:10:36forward acquisition time	60.00reverse acquisition time	0.00gamma	496.2192k internal	0.2325k external	0.2325temperature offset calibration	0.9996default loss term (dB/km)	0.3790temperature slope calibration	1.0000multiplexer offset coefficient	1.0000multiplexer slope coefficient	1.0000fibre end	0.00T internal ref (°C)	30.62T ext. ref 1 (°C)	4.79T ext. ref 2 (°C)	25.30length (m)	temperature (°C)	Stokes	anti-Stokes-747.200	800.000	0.041	-0.139
-746.185	48.167	-0.179	0.169
-745.171	111.035	0.192	-0.233
-744.156	-92.565	0.386	-0.109
-743.142	-200.000	-0.010	-0.090
-742.127	800.000	-0.085	0.369
-741.112	-200.000	0.004	0.080
-740.098	287.602	-0.162	0.295
-739.083	-6.511	-0.196	-0.135
-738.069	-107.592	0.147	-0.033
-737.054	-200.000	-0.057	-0.301
-736.039	800.000	-0.082	0.247
-735.025	-169.965	0.217	0.008
-734.010	-26.976	-0.214	-0.126
-732.996	-93.984	-0.475	-0.132
-731.981	86.044	-0.374	-0.415
-730.966	-108.947	0.335	0.072
-729.952	-7.976	0.269	-0.183
-728.937	23.711	-0.320	-0.266
-727.923	-200.000	0.037	-0.342
-726.908	-75.689	0.280	0.100
-725.894	-200.000	0.002	-0.332
-724.879	8.515	-0.311	-0.236
-723.864	-60.106	-0.295	0.127
-722.850	-52.974	0.152	-0.071
-721.835	373.910	0.141	-0.290
-720.821	-26.609	0.290	-0.171
-719.806	-110.204	0.037	-0.008
-718.791	800.000	0.062	-0.173
-717.777	-13.131	-0.052	-0.034
-716.762	-44.443	-0.353	0.178
-715.748	-17.970	-0.152	-0.096
-714.733	-200.000	0.037	-0.465
-713.718	-100.916	0.085	-0.021
-712.704	-30.117	0.050	0.029
-711.689	136.180	-0.036	0.048
-710.675	56.574	-0.073	0.071
-709.660	558.786	-0.075	0.182
-708.645	800.000	-0.048	-0.170
-707.631	51.122	-0.056	-0.053
-706.616	800.000	-0.052	0.151
-705.602	-200.000	0.017	-0.156
-704.587	83.289	0.096	0.106
-703.572	-96.587	-0.312	-0.083
-702.558	-123.322	-0.262	-0.042
-701.543	-81.118	-0.127	-0.042
-700.529	-200.000	-0.046	0.263
-699.514	-135.129	0.070	0.008
-698.499	-200.000	0.006	-0.213
-697.485	-100.507	-0.026	0.006
-696.470	-197.785	-0.008	0.000
-695.456	-200.000	-0.019	-0.094
-694.441	-200.000	0.023	-0.199
-693.426	269.127	0.167	-0.295
-692.412	-126.750	-0.366	-0.055
-691.397	-93.896	0.373	0.103
-690.383	-7.162	-0.137	-0.094
-689.368	-20.705	0.129	0.080
-688.354	172.027	-0.043	0.062
-687.339	-114.029	0.226	0.044
-686.324	-63.769	-0.448	-0.185
-685.310	-191.597	-0.266	-0.003
-684.295	252.676	0.216	-0.372
-683.281	-167.276	-0.234	0.010
-682.266	192.237	-0.151	-0.229
-681.251	-49.678	-0.201	0.096
-680.237	-200.000	-0.060	-0.292
-679.222	800.000	0.098	-0.287
-678.208	57.822	-0.107	-0.105
-677.193	-10.057	-0.207	-0.139
-676.178	800.000	0.123	-0.409
-675.164	-66.336	0.133	0.053
-674.149	113.901	-0.146	-0.178
-673.135	503.447	-0.089	0.208
-672.120	451.548	0.014	0.032
-671.105	229.358	0.237	-0.390
-670.091	152.639	0.074	-0.101
-669.076	271.338	-0.035	-0.063
-668.062	-133.281	0.300	0.038
-667.047	-38.606	-0.292	-0.155
-666.032	-50.938	-0.334	-0.158
-665.018	103.075	-0.122	-0.143
-664.003	-156.806	-0.054	-0.003
-662.989	-104.685	0.279	-0.065
-661.974	800.000	-0.036	-0.108
-660.959	107.440	0.071	-0.085
-659.945	-36.848	-0.408	0.220
-658.930	-200.000	-0.043	-0.372
-657.916	-89.054	-0.194	-0.058
-656.901	-45.732	0.139	-0.069
-655.886	-36.620	0.224	0.121
-654.872	-64.790	-0.066	0.027
-653.857	333.491	0.053	-0.104
-652.843	-6.511	-0.091	-0.062
-651.828	-200.000	-0.058	0.257
-650.814	333.213	-0.084	-0.164
-649.799	-39.124	-0.232	0.122
-648.784	107.483	-0.213	0.255
-647.770	91.610	-0.058	0.065
-646.755	800.000	0.084	-0.271
-645.741	-2.808	-0.198	0.139
-644.726	-200.000	0.044	-0.305
-643.711	324.719	0.078	-0.150
-642.697	151.222	-0.133	-0.182
-641.682	800.000	-0.103	-0.310
-640.668	4.354	-0.212	0.156
-639.653	-200.000	-0.008	0.271
-638.638	-79.331	-0.181	-0.061
-637.624	53.638	-0.224	0.216
-636.609	21.242	0.421	-0.343
-635.595	-141.119	-0.258	0.027
-634.580	-68.477	-0.237	-0.093
-633.565	-200.000	-0.030	0.191
-632.551	-12.552	-0.221	-0.145
-631.536	79.442	0.070	-0.076
-630.522	800.000	-0.025	-0.100
-629.507	-200.000	0.031	-0.189
-628.492	328.219	0.037	0.071
-627.478	800.000	0.021	-0.085
-626.463	-200.000	-0.078	-0.520
-625.449	237.439	-0.087	-0.145
-624.434	-72.013	0.058	0.022
-623.419	-11.321	-0.090	-0.059
-622.405	384.859	-0.178	0.368
-621.390	-200.000	-0.042	0.289
-620.376	621.008	0.063	0.158
-619.361	35.429	0.260	0.229
-618.346	296.779	-0.016	0.030
-617.332	-200.000	-0.025	-0.360
-616.317	159.226	0.093	-0.130
-615.303	-22.318	0.231	0.141
-614.288	72.110	-0.133	0.139
-613.273	609.486	0.045	-0.113
-612.259	-200.000	0.007	-0.074
-611.244	-200.000	0.018	-0.217
-610.230	-55.847	-0.275	0.123
-609.215	758.556	-0.038	-0.104
-608.201	44.010	-0.220	-0.202
-607.186	-200.000	-0.069	-0.383
-606.171	-200.000	0.028	-0.151
-605.157	-200.000	-0.010	-0.187
-604.142	10.136	-0.174	0.133
-603.128	-99.787	0.063	0.016
-602.113	3.905	-0.124	-0.091
-601.098	-35.507	0.013	-0.007
-600.084	571.714	0.092	-0.225
-599.069	-9.392	0.041	0.028
-598.055	-200.000	0.021	-0.120
-597.040	-200.000	-0.043	-0.218
-596.025	-132.690	-0.201	0.026
-595.011	128.312	0.213	0.272
-593.996	77.606	-0.099	-0.106
-592.982	-200.000	0.035	0.213
-591.967	-20.386	0.191	0.118
-590.952	512.114	0.110	-0.256
-589.938	37.001	0.130	-0.115
-588.923	-37.018	-0.279	-0.150
-587.909	-200.000	-0.038	-0.521
-586.894	25.536	0.186	0.155
-585.879	11.518	-0.099	0.076
-584.865	-200.000	0.030	-0.255
-583.850	13.017	0.355	-0.276
-582.836	-117.511	-0.265	-0.048
-581.821	25.566	0.195	0.163
-580.806	-132.424	-0.246	-0.032
-579.792	14.876	-0.147	-0.115
-578.777	-200.000	0.109	0.000
-577.763	-95.656	-0.253	-0.068
-576.748	-109.248	-0.250	0.053
-575.733	-105.700	0.259	0.059
-574.719	26.521	-0.059	0.050
-573.704	311.868	-0.157	0.295
-572.690	197.837	0.065	0.099
-571.675	-129.610	0.064	-0.009
-570.661	-61.903	-0.249	-0.104
-569.646	800.000	0.021	-0.060
-568.631	-2.474	-0.121	-0.085
-567.617	-0.875	0.032	0.023
-566.602	244.826	-0.046	0.077
-565.588	62.097	-0.319	0.319
-564.573	107.391	-0.314	0.374
-563.558	252.028	0.151	0.258
-562.544	-37.104	-0.286	-0.154
-561.529	-120.207	-0.129	-0.022
-560.515	-9.880	-0.380	-0.253
-559.500	168.446	0.115	-0.164
-558.485	-200.000	0.050	0.260
-557.471	6.218	0.428	0.318
-556.456	-200.000	-0.024	0.209
-555.442	800.000	-0.021	-0.059
-554.427	-55.326	-0.317	0.143
-553.412	-75.761	-0.344	0.122
-552.398	-50.418	-0.178	0.084
-551.383	800.000	0.041	0.130
-550.369	54.727	0.240	0.232
-549.354	189.731	0.105	0.157
-548.339	-200.000	-0.018	0.228
-547.325	-148.277	0.167	0.014
-546.310	79.667	-0.115	-0.124
-545.296	-200.000	-0.005	-0.041
-544.281	226.561	-0.046	0.075
-543.266	88.177	-0.089	0.099
-542.252	-102.641	-0.114	-0.027
-541.237	-133.129	0.153	0.019
-540.223	76.895	-0.219	0.232
-539.208	-0.898	0.268	0.190
-538.193	800.000	-0.102	-0.415
-537.179	592.593	0.059	-0.146
-536.164	-44.968	0.322	-0.161
-535.150	-200.000	-0.020	0.143
-534.135	800.000	0.042	0.129
-533.121	-37.905	-0.161	0.086
-532.106	-125.792	0.232	0.035
-531.091	-137.018	0.284	-0.033
-530.077	344.164	0.121	0.238
-529.062	142.275	-0.110	-0.146
-528.048	-48.110	0.077	0.037
-527.033	147.784	-0.135	0.182
-526.018	800.000	-0.067	-0.273
-525.004	800.000	0.059	-0.222
-523.989	-200.000	0.045	-0.545
-522.975	-23.048	-0.200	0.120
-521.960	176.565	0.128	-0.186
-520.945	256.806	0.164	0.282
-519.931	800.000	-0.129	0.367
-518.916	-152.038	-0.222	0.016
-517.902	800.000	0.053	-0.168
-516.887	-114.452	-0.135	-0.026
-515.872	-65.666	0.110	-0.044
-514.858	-99.058	-0.093	0.023
-513.843	800.000	-0.072	0.264
-512.829	178.451	0.041	0.061
-511.814	54.967	0.200	-0.193
-510.799	110.895	0.099	0.119
-509.785	-105.452	-0.323	-0.073
-508.770	175.386	-0.052	0.075
-507.756	-126.557	0.193	-0.029
-506.741	471.970	0.017	-0.038
-505.726	368.530	0.134	0.272
-504.712	-200.000	-0.012	-0.191
-503.697	408.903	0.024	-0.051
-502.683	-57.346	0.200	0.088
-501.668	173.017	0.083	0.119
-500.653	-39.889	-0.240	-0.125
-499.639	4.128	-0.175	-0.128
-498.624	-114.823	0.097	-0.018
-497.610	-31.994	0.158	0.089
-496.595	70.439	0.066	0.068
-495.581	497.028	0.067	-0.154
-494.566	704.722	-0.046	0.121
-493.551	-80.318	-0.205	-0.068
-492.537	800.000	0.012	0.052
-491.522	-79.765	0.087	0.029
-490.508	72.523	-0.144	0.150
-489.493	153.082	0.172	-0.235
-488.478	-173.008	0.361	0.011
-487.464	537.842	0.130	-0.308
-486.449	-102.958	0.162	-0.038
-485.435	588.251	0.013	-0.031
-484.420	540.426	0.101	-0.239
-483.405	-126.829	0.243	0.036
-482.391	800.000	-0.062	0.199
-481.376	-200.000	0.015	-0.173
-480.362	117.319	0.354	-0.434
-479.347	-200.000	-0.004	-0.242
-478.332	800.000	-0.126	0.378
-477.318	-19.603	0.045	-0.028
-476.303	-1.982	-0.174	0.122
-475.289	-200.000	0.050	0.341
-474.274	-53.019	0.204	0.094
-473.259	-5.449	0.261	-0.179
-472.245	226.038	0.080	0.129
-471.230	384.243	-0.174	0.358
-470.216	-150.552	-0.358	-0.027
-469.201	199.488	-0.073	0.112
-468.186	-119.332	-0.413	-0.072
-467.172	-114.100	0.169	-0.033
-466.157	-33.717	0.127	-0.070
-465.143	120.334	0.249	-0.309
-464.128	87.799	0.096	0.106
-463.113	-116.576	0.055	0.010
-462.099	-200.000	0.032	-0.199
-461.084	50.284	-0.166	-0.157
-460.070	800.000	-0.047	-0.143
-459.055	444.075	0.029	0.064
-458.040	-23.341	-0.102	0.061
-457.026	46.919	0.185	-0.172
-456.011	7.924	0.250	0.187
-454.997	-119.965	-0.297	0.051
-453.982	51.478	0.144	-0.136
-452.968	44.182	0.141	-0.129
-451.953	-158.334	-0.192	-0.011
-450.938	390.033	0.116	0.240
-449.924	800.000	-0.065	0.217
-448.909	139.027	0.102	-0.134
-447.895	-110.192	-0.358	-0.075
-446.880	471.133	0.042	0.095
-445.865	-142.574	0.049	-0.005
-444.851	-200.000	0.085	0.666
-443.836	-57.439	-0.223	0.098
-442.822	-200.000	0.109	-0.493
-441.807	230.744	-0.147	-0.240
-440.792	-111.417	-0.235	-0.048
-439.778	468.959	0.110	-0.245
-438.763	340.761	0.218	-0.424
-437.749	-130.602	0.467	-0.063
-436.734	324.321	0.076	-0.144
-435.719	-52.735	0.233	0.107
-434.705	-53.389	-0.142	-0.065
-433.690	2.329	0.081	-0.059
-432.676	-200.000	-0.010	0.325
-431.661	-76.389	-0.400	0.140
-430.646	251.072	0.019	0.032
-429.632	28.252	-0.118	-0.099
-428.617	707.263	0.184	0.485
-427.603	-133.399	-0.077	-0.010
-426.588	-26.559	-0.143	-0.083
-425.573	-25.663	0.198	0.116
-424.559	111.334	-0.245	-0.294
-423.544	10.721	0.094	-0.071
-422.530	-200.000	-0.059	-0.267
-421.515	63.123	-0.126	0.126
-420.500	-81.730	-0.273	0.089
-419.486	-200.000	0.018	0.112
-418.471	800.000	0.027	0.110
-417.457	-139.506	0.354	0.038
-416.442	-63.838	-0.149	0.061
-415.428	-200.000	0.238	-0.001
-414.413	-111.367	-0.169	0.034
-413.398	114.518	-0.123	-0.149
-412.384	-200.000	-0.066	0.367
-411.369	-101.148	0.235	0.057
-410.355	-178.296	-0.148	-0.003
-409.340	-200.000	0.006	0.190
-408.325	-92.618	0.128	0.036
-407.311	25.106	-0.185	-0.153
-406.296	35.420	-0.042	0.037
-405.282	-109.652	0.425	0.089
-404.267	-24.168	0.261	-0.155
-403.252	640.125	-0.059	-0.151
-402.238	-200.000	0.032	-0.178
-401.223	21.541	-0.122	-0.099
-400.209	354.165	0.107	-0.211
-399.194	-200.000	-0.006	-0.161
-398.179	518.327	0.087	0.203
-397.165	-68.987	0.194	-0.074
-396.150	502.969	0.206	-0.474
-395.136	-41.917	0.137	-0.070
-394.121	613.358	0.107	0.267
-393.106	597.282	0.135	0.334
-392.092	442.319	-0.087	0.189
-391.077	-79.919	0.399	-0.133
-390.063	56.756	0.138	0.134
-389.048	-200.000	0.043	0.206
-388.033	144.043	-0.091	-0.121
-387.019	-110.152	-0.207	0.043
-386.004	-200.000	0.047	0.246
-384.990	-58.885	0.234	0.101
-383.975	129.782	0.115	-0.146
-382.960	-92.987	-0.413	0.114
-381.946	-1.934	-0.308	-0.215
-380.931	331.222	0.155	-0.297
-379.917	-86.317	-0.161	-0.049
-378.902	-136.255	0.129	0.015
-377.888	-200.000	0.026	-0.166
-376.873	-200.000	-0.019	-0.147
-375.858	189.551	0.213	-0.318
-374.844	-95.679	-0.496	0.132
-373.829	672.165	0.016	-0.042
-372.815	-113.379	0.064	-0.012
-371.800	585.700	-0.073	-0.178
-370.785	-197.360	-0.285	0.002
-369.771	-200.000	0.001	0.127
-368.756	-100.416	-0.260	0.064
-367.742	161.733	0.143	0.199
-366.727	85.150	-0.247	-0.269
-365.712	262.433	0.066	0.114
-364.698	-130.755	-0.172	0.023
-363.683	-164.748	-0.261	0.012
-362.669	-157.308	-0.087	-0.005
-361.654	216.450	-0.167	-0.264
-360.639	-60.991	-0.249	-0.105
-359.625	183.702	-0.043	0.064
-358.610	800.000	0.022	-0.094
-357.596	-59.592	0.256	-0.109
-356.581	800.000	0.026	0.084
-355.566	-43.284	-0.061	-0.030
-354.552	-200.000	0.053	-0.341
-353.537	-85.631	0.266	-0.082
-352.523	800.000	-0.059	-0.173
-351.508	28.998	0.287	-0.242
-350.493	-106.544	-0.093	0.021
-349.479	-151.767	0.098	-0.007
-348.464	-200.000	0.093	-0.432
-347.450	-124.415	0.320	-0.049
-346.435	-28.768	-0.259	0.148
-345.420	47.747	0.242	-0.224
-344.406	-22.613	-0.320	0.192
-343.391	112.454	0.151	0.181
-342.377	-14.856	0.153	0.098
-341.362	800.000	-0.040	0.146
-340.348	-200.000	-0.065	-0.303
-339.333	-11.277	-0.241	-0.158
-338.318	-200.000	0.009	-0.253
-337.304	75.009	-0.123	0.129
-336.289	-200.000	0.077	0.603
-335.275	-200.000	-0.001	0.010
-334.260	-200.000	-0.070	-0.309
-333.245	451.599	0.014	-0.030
-332.231	-200.000	0.021	0.156
-331.216	-200.000	-0.042	-0.210
-330.202	-52.282	0.162	-0.075
-329.187	-10.784	-0.151	0.099
-328.172	-38.730	-0.126	-0.066
-327.158	-105.833	0.180	-0.040
-326.143	-114.511	-0.203	0.039
-325.129	14.730	-0.117	0.091
-324.114	170.328	0.082	-0.117
-323.099	17.309	-0.119	-0.094
-322.085	800.000	-0.064	-0.245
-321.070	-80.718	-0.093	-0.031
-320.056	50.170	0.103	0.096
-319.041	-65.094	-0.209	-0.084
-318.026	800.000	0.064	-0.277
-317.012	253.686	0.095	0.161
-315.997	-107.532	0.197	-0.043
-314.983	212.561	0.215	0.336
-313.968	283.802	-0.082	-0.146
-312.953	-200.000	0.012	-0.169
-311.939	-200.000	0.033	0.180
-310.924	119.154	0.051	0.063
-309.910	-87.279	0.358	-0.108
-308.895	-83.239	-0.153	-0.049
-307.880	-7.565	0.360	0.242
-306.866	166.378	0.109	-0.154
-305.851	-200.000	-0.034	-0.263
-304.837	116.909	0.036	-0.044
-303.822	-200.000	-0.028	-0.164
-302.807	800.000	0.105	0.374
-301.793	250.738	0.088	-0.148
-300.778	44.251	-0.033	-0.030
-299.764	146.113	0.095	0.127
-298.749	-189.568	0.501	0.006
-297.735	482.232	-0.117	0.263
-296.720	33.480	0.139	0.120
-295.705	-150.472	0.396	-0.030
-294.691	-200.000	0.002	0.126
-293.676	-200.000	0.011	0.113
-292.662	1.527	0.343	0.245
-291.647	800.000	-0.040	-0.127
-290.632	164.180	-0.083	-0.117
-289.618	5.760	0.360	0.264
-288.603	123.012	-0.213	0.264
-287.589	322.210	-0.112	-0.211
-286.574	-200.000	0.017	0.323
-285.559	-18.190	-0.267	0.166
-284.545	453.024	0.132	-0.289
-283.530	-200.000	-0.003	0.323
-282.516	-81.825	0.202	-0.066
-281.501	-78.679	-0.245	0.083
-280.486	502.445	0.106	-0.242
-279.472	-136.466	0.444	0.051
-278.457	463.433	-0.084	0.186
-277.443	-143.526	0.137	-0.013
-276.428	-26.692	-0.297	0.172
-275.413	-200.000	0.033	-0.343
-274.399	152.347	0.113	-0.153
-273.384	490.059	0.115	0.261
-272.370	-156.874	0.059	-0.004
-271.355	641.184	0.123	-0.309
-270.340	430.255	0.076	-0.162
-269.326	378.088	0.082	-0.166
-268.311	327.030	-0.104	0.197
-267.297	73.434	-0.135	0.140
-266.282	94.227	-0.072	-0.081
-265.267	-200.000	0.050	-0.267
-264.253	526.260	0.140	0.326
-263.238	-120.575	0.075	-0.013
-262.224	800.000	-0.090	0.285
-261.209	-153.889	0.086	0.006
-260.195	-200.000	-0.006	0.198
-259.180	-109.251	0.178	-0.037
-258.165	378.500	0.081	-0.164
-257.151	-200.000	0.042	0.256
-256.136	65.337	-0.267	0.267
-255.122	-17.285	-0.225	-0.140
-254.107	-200.000	0.006	-0.202
-253.092	366.961	0.053	0.107
-252.078	90.059	0.155	-0.171
-251.063	-159.992	-0.041	-0.002
-250.049	-183.868	-0.122	0.002
-249.034	-140.028	-0.147	0.015
-248.019	-97.620	0.399	-0.102
-247.005	800.000	0.086	-0.350
-245.990	-200.000	-0.003	0.093
-244.976	247.492	-0.111	0.186
-243.961	66.884	-0.236	-0.238
-242.946	-43.959	-0.104	-0.052
-241.932	98.021	0.124	0.141
-240.917	735.375	0.083	0.220
-239.903	121.806	0.169	0.208
-238.888	225.072	0.104	-0.167
-237.873	-200.000	0.041	0.278
-236.859	-134.293	-0.276	-0.034
-235.844	-200.000	-0.029	0.181
-234.830	-200.000	0.028	0.401
-233.815	800.000	-0.044	-0.128
-232.800	800.000	-0.065	-0.197
-231.786	800.000	0.055	0.157
-230.771	-65.528	0.059	-0.023
-229.757	-59.741	-0.553	0.234
-228.742	141.759	-0.162	0.212
-227.727	-66.402	-0.519	-0.204
-226.713	-17.537	-0.081	-0.050
-225.698	-200.000	-0.010	0.265
-224.684	800.000	0.122	0.356
-223.669	254.519	0.133	0.224
-222.655	49.090	-0.197	0.183
-221.640	-200.000	-0.029	-0.158
-220.625	-123.516	0.325	-0.051
-219.611	-200.000	0.060	-0.464
-218.596	162.961	0.138	0.192
-217.582	-200.000	0.033	0.278
-216.567	-123.129	-0.229	-0.036
-215.552	77.039	0.238	0.250
-214.538	-106.416	-0.119	-0.026
-213.523	-126.274	0.104	-0.015
-212.509	486.506	-0.077	0.173
-211.494	-140.146	-0.014	0.001
-210.479	141.756	0.067	0.088
-209.465	-59.993	-0.040	0.017
-208.450	-200.000	-0.039	-0.271
-207.436	800.000	0.066	0.231
-206.421	-119.700	0.261	0.045
-205.406	-200.000	-0.029	0.130
-204.392	-200.000	-0.150	0.001
-203.377	-60.324	-0.246	-0.104
-202.363	-200.000	-0.051	0.301
-201.348	59.381	0.096	-0.094
-200.333	-33.601	-0.284	0.155
-199.319	758.926	-0.077	-0.206
-198.304	-66.979	0.159	-0.062
-197.290	-200.000	-0.000	0.129
-196.275	145.935	0.180	-0.238
-195.260	-161.691	0.404	-0.020
-194.246	144.678	0.060	0.079
-193.231	189.433	-0.185	0.274
-192.217	-140.399	-0.097	-0.010
-191.202	-41.203	0.142	-0.073
-190.187	88.959	-0.049	-0.053
-189.173	-200.000	0.016	0.135
-188.158	121.922	0.097	-0.120
-187.144	41.502	-0.127	0.113
-186.129	261.012	0.037	0.063
-185.114	150.419	-0.082	0.110
-184.100	160.844	0.296	0.408
-183.085	-144.334	0.228	-0.021
-182.071	-36.007	0.233	0.124
-181.056	517.937	0.056	0.129
-180.042	189.679	0.042	-0.063
-179.027	690.038	-0.126	-0.327
-178.012	-105.131	-0.063	-0.014
-176.998	15.140	-0.260	0.201
-175.983	-200.000	-0.006	0.054
-174.969	191.043	0.118	-0.175
-173.954	397.498	0.055	0.113
-172.939	-74.098	-0.340	-0.122
-171.925	39.180	-0.199	-0.176
-170.910	196.912	0.045	-0.068
-169.896	66.203	-0.037	-0.037
-168.881	53.179	0.063	-0.059
-167.866	61.987	0.057	-0.056
-166.852	-56.691	-0.145	-0.063
-165.837	800.000	-0.085	0.290
-164.823	800.000	0.072	0.259
-163.808	-20.442	-0.236	0.143
-162.793	800.000	-0.136	0.372
-161.779	16.479	0.182	0.142
-160.764	14.728	-0.305	-0.235
-159.750	-114.961	-0.097	0.018
-158.735	-143.756	0.470	0.044
-157.720	-200.000	0.014	-0.166
-156.706	-200.000	0.044	-0.259
-155.691	-29.429	-0.325	-0.183
-154.677	-200.000	-0.033	-0.392
-153.662	-200.000	-0.013	0.140
-152.647	100.896	-0.109	0.125
-151.633	-78.802	0.200	0.067
-150.618	-41.019	0.140	0.071
-149.604	-74.076	-0.266	0.095
-148.589	113.178	-0.030	-0.035
-147.574	-76.936	0.400	-0.138
-146.560	-200.000	-0.033	-0.164
-145.545	-6.087	-0.170	-0.114
-144.531	-200.000	0.012	-0.133
-143.516	-200.000	0.018	-0.418
-142.502	-121.879	-0.289	-0.047
-141.487	97.722	-0.132	-0.150
-140.472	800.000	-0.050	0.145
-139.458	-82.255	0.180	-0.058
-138.443	-200.000	0.009	0.321
-137.429	523.416	-0.054	-0.124
-136.414	18.967	0.030	0.023
-135.399	-150.312	0.252	0.019
-134.385	-29.074	-0.183	0.104
-133.370	800.000	0.045	-0.151
-132.356	-134.411	0.244	0.030
-131.341	-58.333	0.256	-0.110
-130.326	126.885	-0.133	-0.166
-129.312	247.853	0.166	-0.276
-128.297	-78.989	0.409	0.137
-127.283	-121.045	0.348	-0.057
-126.268	15.382	-0.021	0.016
-125.253	-110.096	-0.328	0.067
-124.239	-93.660	0.196	-0.053
-123.224	85.362	0.025	0.027
-122.210	-121.102	-0.309	0.051
-121.195	-200.000	-0.030	-0.219
-120.180	179.010	0.132	0.190
-119.166	248.524	0.033	-0.055
-118.151	800.000	-0.082	0.275
-117.137	-126.444	-0.222	-0.033
-116.122	186.126	-0.069	-0.102
-115.107	235.671	0.104	0.169
-114.093	417.851	-0.101	-0.213
-113.078	-200.000	0.035	0.214
-112.064	-59.828	0.092	-0.039
-111.049	447.869	-0.127	-0.275
-110.034	-90.694	-0.146	-0.042
-109.020	35.381	0.176	-0.152
-108.005	800.000	0.011	0.039
-106.991	180.075	-0.231	-0.333
-105.976	220.579	-0.051	-0.080
-104.962	-9.915	-0.235	0.154
-103.947	2.579	0.300	0.214
-102.932	800.000	-0.024	-0.075
-101.918	-200.000	-0.021	0.313
-100.903	55.107	-0.110	0.105
-99.889	-106.425	0.184	0.040
-98.874	-121.156	0.094	-0.015
-97.859	-58.501	-0.085	-0.036
-96.845	-116.952	-0.136	-0.024
-95.830	-76.644	0.120	-0.041
-94.816	-39.018	0.091	0.047
-93.801	184.217	-0.059	0.086
-92.786	-162.998	0.150	0.007
-91.772	-176.727	-0.351	-0.009
-90.757	754.474	0.086	-0.230
-89.743	800.000	-0.064	-0.216
-88.728	34.734	-0.321	-0.276
-87.713	-162.767	0.149	-0.007
-86.699	-5.887	0.157	0.106
-85.684	259.845	-0.118	-0.200
-84.670	-26.182	0.196	-0.113
-83.655	501.277	-0.124	0.281
-82.640	-22.951	-0.074	0.044
-81.626	393.252	-0.078	0.159
-80.611	800.000	-0.076	0.320
-79.597	123.780	-0.169	0.209
-78.582	-200.000	0.118	0.528
-77.567	800.000	-0.134	0.487
-76.553	-63.277	-0.126	0.051
-75.538	104.688	0.064	-0.075
-74.524	-41.165	-0.313	0.159
-73.509	-200.000	-0.010	0.123
-72.494	-87.757	0.097	0.029
-71.480	800.000	0.028	-0.087
-70.465	800.000	0.030	0.110
-69.451	-24.629	-0.105	-0.062
-68.436	301.258	0.137	0.249
-67.422	165.245	-0.203	-0.282
-66.407	-120.629	0.365	0.061
-65.392	-87.349	-0.100	-0.030
-64.378	-200.000	0.022	-0.182
-63.363	-55.093	0.307	-0.136
-62.349	68.540	-0.127	0.128
-61.334	68.700	-0.838	-0.845
-60.319	177.830	0.211	0.302
-59.305	168.742	-0.595	-0.833
-58.290	34.510	0.936	0.803
-57.276	343.254	0.671	1.291
-56.261	-200.000	103.110	586.871
-55.246	548.829	1435.729	3378.491
-54.232	187.374	2622.722	3842.446
-53.217	115.633	2145.907	2576.903
-52.203	42.448	1592.989	1422.799
-51.188	34.043	1328.252	1136.346
-50.173	30.934	1286.051	1082.178
-49.159	54.520	1338.232	1266.390
-48.144	55.640	1354.653	1288.508
-47.130	34.342	1310.376	1122.634
-46.115	30.712	1293.295	1086.801
-45.100	30.548	1287.784	1081.173
-44.086	30.445	1285.945	1078.986
-43.071	30.496	1283.421	1077.124
-42.057	30.479	1281.230	1075.143
-41.042	30.582	1279.605	1074.333
-40.027	30.590	1277.922	1072.924
-39.013	30.518	1276.534	1071.300
-37.998	30.585	1274.548	1069.976
-36.984	30.557	1273.045	1068.510
-35.969	30.718	1270.972	1067.654
-34.954	30.648	1269.284	1065.792
-33.940	30.691	1267.810	1064.756
-32.925	30.729	1266.847	1064.127
-31.911	30.700	1265.030	1062.393
-30.896	30.721	1263.680	1061.337
-29.881	30.797	1262.402	1060.652
-28.867	30.728	1261.198	1059.205
-27.852	30.757	1259.628	1058.012
-26.838	30.772	1258.377	1057.001
-25.823	30.667	1257.400	1055.545
-24.809	30.550	1256.532	1054.111
-23.794	30.585	1255.086	1053.053
-22.779	30.654	1253.426	1052.010
-21.765	30.755	1251.705	1051.096
-20.750	30.690	1250.686	1049.829
-19.736	30.579	1249.581	1048.235
-18.721	30.616	1248.082	1047.142
-17.706	30.585	1246.929	1045.958
-16.692	30.732	1245.381	1045.444
-15.677	30.555	1245.110	1044.181
-14.663	30.509	1243.818	1042.798
-13.648	30.549	1242.288	1041.702
-12.633	30.501	1241.610	1040.820
-11.619	30.535	1240.786	1040.278
-10.604	30.657	1239.640	1039.957
-9.590	30.501	1239.146	1038.633
-8.575	30.532	1237.710	1037.559
-7.560	30.628	1236.646	1037.163
-6.546	30.605	1236.057	1036.497
-5.531	30.581	1235.353	1035.737
-4.517	30.574	1234.586	1035.010
-3.502	30.523	1233.805	1034.029
-2.487	30.567	1232.514	1033.155
-1.473	30.660	1228.636	1030.373
-0.458	29.090	1213.491	1009.039
0.556	24.502	1196.789	972.110
1.571	20.897	1202.310	956.750
2.586	20.042	1217.256	963.807
3.600	19.707	1206.366	953.252
4.615	15.188	1136.731	874.610
5.629	7.999	1065.393	784.363
6.644	4.899	1047.179	755.861
7.659	4.841	1043.932	753.171
8.673	4.740	1043.338	752.188
9.688	4.671	1042.481	751.173
10.702	4.793	1040.179	750.032
11.717	8.915	1045.617	773.818
12.731	15.786	1054.664	813.786
13.746	18.573	1057.610	829.486
14.761	18.093	1056.957	826.579
15.775	17.059	1054.597	819.670
16.790	15.989	1052.621	812.900
17.804	15.346	1050.473	808.075
18.819	14.957	1049.656	805.501
19.834	14.680	1049.291	803.817
20.848	14.538	1048.264	802.276
21.863	14.154	1047.442	799.729
22.877	14.197	1046.494	799.141
23.892	14.063	1045.900	797.973
24.907	14.043	1045.270	797.328
25.921	14.263	1043.993	797.336
26.936	14.212	1042.980	796.247
27.950	14.333	1041.140	795.352
28.965	14.366	1039.786	794.405
29.980	14.360	1038.569	793.377
30.994	14.359	1037.626	792.580
32.009	14.339	1037.073	791.992
33.023	14.398	1035.424	790.941
34.038	14.297	1034.265	789.509
35.053	14.067	1033.805	787.997
36.067	14.195	1032.478	787.523
37.082	14.262	1032.003	787.408
38.096	14.383	1030.924	787.087
39.111	14.360	1030.287	786.420
40.126	14.315	1028.806	785.007
41.140	14.103	1027.642	783.054
42.155	13.945	1026.526	781.389
43.169	14.146	1025.466	781.457
44.184	14.038	1024.895	780.446
45.199	14.008	1023.757	779.370
46.213	14.094	1022.350	778.635
47.228	14.131	1021.516	778.102
48.242	14.242	1020.812	778.018
49.257	14.159	1019.745	776.746
50.271	14.299	1018.737	776.563
51.286	14.311	1018.223	776.160
52.301	14.241	1017.481	775.196
53.315	14.124	1016.114	773.544
54.330	14.006	1015.441	772.416
55.344	14.114	1014.082	771.813
56.359	14.155	1013.413	771.428
57.374	14.086	1012.522	770.359
58.388	14.042	1011.436	769.263
59.403	13.944	1010.660	768.153
60.417	14.059	1009.866	768.011
61.432	13.916	1009.619	767.095
62.447	13.889	1008.617	766.141
63.461	13.995	1007.467	765.689
64.476	13.934	1006.841	764.862
65.490	13.830	1006.510	764.065
66.505	13.875	1005.663	763.563
67.520	14.001	1004.424	763.132
68.534	14.067	1003.725	762.836
69.549	13.889	1003.155	761.522
70.563	13.950	1002.493	761.232
71.578	13.762	1002.026	759.947
72.593	13.679	1001.386	759.015
73.607	13.676	1000.545	758.298
74.622	13.865	999.834	758.552
75.636	13.864	998.959	757.820
76.651	13.878	998.171	757.218
77.666	13.869	997.929	756.923
78.680	13.904	997.198	756.462
79.695	13.971	996.471	756.148
80.709	14.000	995.692	755.625
81.724	14.026	995.361	755.425
82.739	13.997	994.798	754.799
83.753	14.215	993.956	755.080
84.768	14.251	993.081	754.515
85.782	14.418	992.262	754.579
86.797	14.255	991.769	753.402
87.812	14.302	990.355	752.472
88.826	14.213	989.676	751.488
89.841	14.353	988.452	751.123
90.855	14.243	987.571	749.893
91.870	14.368	986.945	749.915
92.884	14.352	986.086	749.125
93.899	14.342	985.632	748.666
94.914	14.498	984.408	748.372
95.928	14.411	983.730	747.397
96.943	14.363	982.771	746.387
97.957	14.305	981.864	745.375
98.972	14.299	981.269	744.832
99.987	14.390	980.298	744.432
101.001	14.325	979.587	743.539
102.016	14.319	979.028	743.023
103.030	14.367	977.794	742.230
104.045	14.421	976.883	741.716
105.060	14.285	976.342	740.634
106.074	14.158	975.296	739.210
107.089	14.055	974.014	737.716
108.103	14.101	973.169	737.215
109.118	14.036	972.363	736.252
110.133	13.915	971.922	735.315
111.147	14.026	970.865	734.942
112.162	14.139	970.053	734.762
113.176	14.126	969.148	733.955
114.191	14.122	968.403	733.309
115.206	14.134	967.777	732.821
116.220	14.092	966.818	731.844
117.235	14.047	966.214	731.126
118.249	14.070	965.663	730.745
119.264	14.027	964.808	729.846
120.279	14.003	963.812	728.922
121.293	14.012	962.911	728.217
122.308	14.044	961.994	727.598
123.322	13.970	961.516	726.847
124.337	14.094	959.993	726.173
125.352	13.926	958.970	724.604
126.366	14.026	958.073	724.297
127.381	14.048	957.052	723.558
128.395	14.082	956.012	722.856
129.410	13.984	955.748	722.166
130.424	14.058	955.007	721.862
131.439	14.181	953.736	721.371
132.454	14.190	953.243	720.973
133.468	14.257	952.256	720.452
134.483	14.159	951.649	719.507
135.497	14.188	950.686	718.838
136.512	14.269	949.615	718.316
137.527	14.187	949.182	717.573
138.541	14.286	948.540	717.447
139.556	14.170	947.950	716.442
140.570	14.244	947.162	716.100
141.585	14.348	946.194	715.751
142.600	14.316	945.524	715.044
143.614	14.467	944.642	714.962
144.629	14.547	944.057	714.796
145.643	14.383	943.343	713.494
146.658	14.312	942.411	712.419
147.673	14.265	941.000	711.091
148.687	14.203	940.365	710.281
149.702	14.233	939.663	709.815
150.716	14.235	938.684	709.024
151.731	14.275	937.777	708.446
152.746	14.210	937.501	707.899
153.760	14.254	936.907	707.572
154.775	14.387	936.606	707.850
155.789	14.404	935.587	707.089
156.804	14.388	935.066	706.565
157.819	14.488	934.488	706.490
158.833	14.473	933.634	705.716
159.848	14.470	933.152	705.277
160.862	14.500	931.813	704.331
161.877	14.435	930.835	703.256
162.892	14.324	929.815	701.952
163.906	14.228	929.060	700.919
164.921	14.348	928.340	700.816
165.935	14.352	927.300	699.986
166.950	14.485	926.570	699.930
167.964	14.457	925.664	699.068
168.979	14.477	924.469	698.186
169.994	14.387	923.724	697.186
171.008	14.387	923.683	697.092
172.023	14.546	922.726	696.973
173.037	14.569	921.992	696.453
174.052	14.603	921.089	695.854
175.067	14.294	921.145	694.543
176.081	14.364	920.081	693.973
177.096	14.349	919.437	693.364
178.110	14.428	919.165	693.426
179.125	14.422	918.411	692.768
180.140	14.537	917.611	692.581
181.154	14.579	917.192	692.378
182.169	14.597	917.229	692.418
183.183	14.648	916.386	691.934
184.198	14.697	915.749	691.596
185.213	14.655	915.234	690.970
186.227	14.682	914.193	690.236
187.242	14.694	913.949	690.039
188.256	14.683	913.319	689.457
189.271	14.657	912.749	688.858
190.286	14.679	911.137	687.672
191.300	14.422	910.522	686.089
192.315	14.370	910.034	685.447
193.329	14.384	909.376	684.949
194.344	14.518	909.343	685.414
195.359	14.611	907.956	684.689
196.373	14.742	907.619	684.913
197.388	14.641	907.841	684.603
198.402	14.944	907.075	685.206
199.417	14.902	906.492	684.536
200.432	15.063	905.622	684.474
201.446	15.016	905.158	683.872
202.461	15.076	904.695	683.706
203.475	15.035	904.027	682.973
204.490	14.927	903.212	681.858
205.504	14.820	902.756	681.018
206.519	14.826	902.156	680.528
207.534	14.822	901.241	679.764
208.548	14.784	900.497	678.984
209.563	14.736	900.264	678.558
210.577	14.963	899.066	678.515
211.592	15.014	898.621	678.325
212.607	15.118	897.718	678.005
213.621	15.067	897.038	677.225
214.636	15.128	896.415	676.938
215.650	15.124	895.899	676.476
216.665	15.230	895.139	676.271
217.680	15.109	894.761	675.433
218.694	15.054	894.133	674.680
219.709	15.082	893.261	674.075
220.723	15.069	892.949	673.725
221.738	15.208	891.754	673.323
222.753	15.082	891.394	672.486
223.767	15.184	890.975	672.521
224.782	15.374	889.945	672.446
225.796	15.506	889.323	672.446
226.811	15.325	888.891	671.335
227.826	15.357	887.948	670.691
228.840	15.182	887.508	669.600
229.855	15.293	886.571	669.277
230.869	15.288	885.800	668.616
231.884	15.138	885.315	667.592
232.899	15.283	884.448	667.455
233.913	15.122	883.739	666.220
234.928	15.350	882.934	666.461
235.942	15.174	882.599	665.451
236.957	15.173	882.105	665.016
237.972	15.166	882.058	664.896
238.986	15.075	881.083	663.739
240.001	15.195	880.548	663.754
241.015	15.296	879.372	663.208
242.030	15.295	879.300	663.090
243.045	15.375	878.619	662.836
244.059	15.304	877.752	661.841
245.074	15.437	877.114	661.826
246.088	15.458	876.370	661.291
247.103	15.487	875.826	660.933
248.117	15.505	875.781	660.911
249.132	15.601	875.499	661.020
250.147	15.680	874.581	660.579
251.161	15.788	873.791	660.346
252.176	15.923	873.245	660.406
253.190	15.784	872.840	659.495
254.205	15.812	872.054	658.953
255.220	15.896	871.359	658.698
256.234	15.894	870.815	658.220
257.249	15.804	870.348	657.457
258.263	15.897	869.689	657.267
259.278	15.823	868.861	656.292
260.293	15.856	868.032	655.738
261.307	16.000	867.915	656.152
262.322	16.106	866.803	655.663
263.336	15.996	866.238	654.751
264.351	15.985	866.037	654.500
265.366	16.061	865.202	654.106
266.380	16.031	864.508	653.407
267.395	16.054	863.455	652.641
268.409	16.008	862.587	651.750
269.424	16.107	862.107	651.713
270.439	16.100	861.336	651.044
271.453	15.901	860.796	649.812
272.468	15.940	860.435	649.630
273.482	16.027	859.832	649.455
274.497	15.848	859.433	648.406
275.512	16.030	858.771	648.548
276.526	15.999	858.598	648.242
277.541	16.142	857.755	648.096
278.555	16.173	857.050	647.629
279.570	16.371	856.251	647.724
280.585	16.212	855.724	646.658
281.599	16.196	854.529	645.638
282.614	16.165	854.116	645.150
283.628	16.270	853.576	645.087
284.643	16.176	853.280	644.446
285.657	16.243	852.454	644.023
286.672	16.151	851.894	643.191
287.687	16.177	851.531	642.960
288.701	16.175	850.771	642.321
289.716	16.345	850.218	642.493
290.730	16.357	849.648	642.050
291.745	16.176	849.262	641.015
292.760	16.296	848.838	641.094
293.774	16.382	847.951	640.693
294.789	16.401	847.259	640.186
295.803	16.240	846.611	639.029
296.818	16.183	845.814	638.156
297.833	16.345	845.267	638.298
298.847	16.320	844.695	637.715
299.862	16.375	844.197	637.493
300.876	16.456	843.741	637.398
301.891	16.435	843.087	636.768
302.906	16.415	842.839	636.450
303.920	16.593	842.035	636.453
304.935	16.596	841.695	636.151
305.949	16.467	841.115	635.173
306.964	16.578	840.357	634.963
307.979	16.478	840.115	634.348
308.993	16.781	839.113	634.669
310.008	16.633	838.602	633.673
311.022	16.719	837.627	633.200
312.037	16.584	837.182	632.303
313.052	16.531	836.901	631.838
314.066	16.401	836.257	630.809
315.081	16.506	835.769	630.780
316.095	16.423	834.920	629.774
317.110	16.344	834.606	629.188
318.125	16.474	834.444	629.493
319.139	16.545	834.094	629.435
320.154	16.506	833.497	628.785
321.168	16.548	832.824	628.378
322.183	16.571	832.174	627.920
323.197	16.822	831.338	628.161
324.212	16.652	831.060	627.266
325.227	16.513	830.655	626.390
326.241	16.595	830.049	626.180
327.256	16.614	829.416	625.718
328.270	16.599	828.695	625.062
329.285	16.561	828.400	624.646
330.300	16.613	827.521	624.119
331.314	16.605	827.116	623.728
332.329	16.567	827.024	623.465
333.343	16.691	826.222	623.263
334.358	16.874	825.781	623.547
335.373	16.833	825.746	623.315
336.387	16.862	825.245	622.987
337.402	17.026	824.636	623.075
338.416	17.053	824.854	623.284
339.431	17.017	824.307	622.683
340.446	16.947	824.214	622.302
341.460	16.995	823.617	621.973
342.475	17.064	823.144	621.811
343.489	17.105	822.562	621.468
344.504	17.068	822.297	621.077
345.519	17.171	821.928	621.121
346.533	17.072	821.258	620.198
347.548	17.154	820.047	619.527
348.562	17.112	820.098	619.356
349.577	17.009	819.492	618.470
350.592	17.114	818.583	618.111
351.606	17.077	818.112	617.565
352.621	16.920	817.266	616.301
353.635	17.054	816.863	616.430
354.650	17.047	816.248	615.887
355.665	17.126	815.769	615.756
356.679	17.070	815.412	615.228
357.694	17.186	814.424	614.848
358.708	17.328	813.678	614.746
359.723	17.269	813.244	614.150
360.738	17.092	812.982	613.258
361.752	17.193	812.066	612.879
362.767	17.396	811.528	613.149
363.781	17.420	811.162	612.906
364.796	17.398	811.037	612.677
365.810	17.424	810.888	612.604
366.825	17.451	810.340	612.234
367.840	17.402	809.992	611.739
368.854	17.597	809.160	611.756
369.869	17.438	808.603	610.710
370.883	17.413	808.245	610.297
371.898	17.497	808.293	610.580
372.913	17.566	807.534	610.202
373.927	17.622	806.919	609.882
374.942	17.564	806.414	609.238
375.956	17.721	806.082	609.497
376.971	17.726	805.947	609.357
377.986	17.776	805.083	608.830
379.000	17.635	804.981	608.194
380.015	17.794	804.120	608.057
381.029	17.735	803.812	607.561
382.044	17.832	802.824	607.104
383.059	17.736	802.662	606.586
384.073	17.678	802.051	605.864
385.088	17.794	801.110	605.513
386.102	17.564	801.133	604.659
387.117	17.586	800.248	604.018
388.132	17.602	799.986	603.822
389.146	17.749	799.009	603.552
390.161	17.876	798.736	603.742
391.175	17.817	798.070	602.976
392.190	17.589	798.149	602.177
393.205	17.760	797.195	602.006
394.219	17.717	797.052	601.694
395.234	17.620	796.960	601.231
396.248	17.585	795.980	600.314
397.263	17.694	795.923	600.603
398.278	17.633	795.625	600.108
399.292	17.691	795.120	599.877
400.307	17.462	794.559	598.597
401.321	17.650	793.974	598.763
402.336	17.776	793.453	598.761
403.350	17.935	793.180	599.059
404.365	17.889	793.062	598.755
405.380	17.985	792.277	598.445
406.394	18.109	791.445	598.199
407.409	17.937	791.484	597.572
408.423	18.151	790.973	597.885
409.438	18.281	790.280	597.760
410.453	18.129	790.168	597.091
411.467	18.133	789.987	596.916
412.482	18.081	789.787	596.529
413.496	18.363	788.939	596.822
414.511	18.339	788.759	596.548
415.526	18.199	788.231	595.610
416.540	18.193	787.895	595.282
417.555	18.385	787.385	595.509
418.569	18.220	786.677	594.349
419.584	18.150	786.479	593.906
420.599	18.438	785.811	594.347
421.613	157.548	1370.314	1795.621
422.628	136.174	1455.476	1795.699
