DTS Sentinel unit serial number:	SN413079Multiplexer serial number:	ORYXHardware model number:	OX4-SRSoftware version number:	ORYX F/W v4.00 Oryx Data Collector v3.7.2.0data status	okinstallation	princeton_trtdifferential loss correction	single-endedforward channel	channel 1reverse channel	N/Adate	2019/09/19time	13:30:35forward acquisition time	60.00reverse acquisition time	0.00gamma	496.2192k internal	0.2326k external	0.2326temperature offset calibration	1.0016default loss term (dB/km)	0.3790temperature slope calibration	1.0000multiplexer offset coefficient	1.0000multiplexer slope coefficient	1.0000fibre end	0.00T internal ref (°C)	30.00T ext. ref 1 (°C)	0.96T ext. ref 2 (°C)	27.06length (m)	temperature (°C)	Stokes	anti-Stokes-747.200	-131.483	0.115	0.015
-746.185	9.581	-0.406	0.311
-745.171	32.900	-0.199	0.174
-744.156	81.926	-0.204	0.223
-743.142	199.926	0.210	-0.326
-742.127	163.751	0.099	0.140
-741.112	268.574	-0.110	0.195
-740.098	701.343	-0.090	0.240
-739.083	-200.000	-0.032	0.169
-738.069	-32.582	-0.214	0.120
-737.054	-83.089	0.238	0.077
-736.039	92.203	-0.254	0.289
-735.025	-47.284	0.551	-0.270
-734.010	538.611	0.127	-0.304
-732.996	-63.776	-0.303	0.125
-731.981	-200.000	0.034	0.186
-730.966	-127.424	0.039	-0.006
-729.952	-131.090	-0.643	-0.086
-728.937	-200.000	0.006	0.304
-727.923	409.781	-0.189	0.404
-726.908	-79.968	0.118	-0.040
-725.894	-137.244	-0.150	-0.017
-724.879	-131.073	-0.244	-0.033
-723.864	-140.558	-0.595	0.062
-722.850	-17.721	0.239	-0.151
-721.835	-134.333	-0.349	-0.043
-720.821	312.453	-0.210	-0.398
-719.806	-200.000	0.001	0.240
-718.791	-52.827	0.305	-0.142
-717.777	800.000	0.066	-0.218
-716.762	50.572	0.164	0.156
-715.748	-200.000	-0.011	-0.081
-714.733	684.075	-0.047	-0.122
-713.718	-200.000	0.016	-0.744
-712.704	-200.000	-0.019	-0.103
-711.689	-72.678	0.119	-0.044
-710.675	81.675	0.155	-0.169
-709.660	1.389	-0.142	-0.103
-708.645	-200.000	0.048	-0.293
-707.631	800.000	0.031	0.130
-706.616	800.000	0.070	-0.203
-705.602	-200.000	-0.029	0.181
-704.587	521.440	-0.120	-0.283
-703.572	800.000	0.113	-0.344
-702.558	61.086	0.272	0.272
-701.543	278.422	0.019	0.034
-700.529	13.870	-0.107	-0.084
-699.514	-200.000	0.011	-0.095
-698.499	-116.807	0.108	0.020
-697.485	-143.142	-0.487	0.047
-696.470	-200.000	-0.020	0.156
-695.456	-157.886	-0.505	-0.030
-694.441	138.003	0.103	-0.135
-693.426	-131.920	0.293	-0.039
-692.412	-200.000	-0.016	-0.106
-691.397	800.000	0.042	0.159
-690.383	-60.195	0.071	0.030
-689.368	-3.448	-0.134	0.094
-688.354	77.005	-0.063	0.067
-687.339	76.314	0.184	0.196
-686.324	-55.551	0.122	-0.055
-685.310	176.219	-0.063	-0.091
-684.295	360.460	-0.021	-0.042
-683.281	800.000	-0.020	-0.073
-682.266	30.374	-0.123	-0.106
-681.251	133.932	-0.047	-0.062
-680.237	-83.486	-0.208	0.067
-679.222	-178.770	-0.306	0.007
-678.208	-168.659	-0.191	-0.007
-677.193	-166.941	-0.282	0.012
-676.178	28.635	-0.134	-0.114
-675.164	3.430	0.073	0.053
-674.149	150.756	-0.103	-0.141
-673.135	1.896	0.151	-0.110
-672.120	93.321	-0.155	-0.176
-671.105	157.714	-0.158	-0.220
-670.091	687.415	-0.029	0.076
-669.076	28.733	-0.192	-0.163
-668.062	-24.109	0.227	0.136
-667.047	800.000	-0.080	-0.260
-666.032	-50.238	-0.335	-0.159
-665.018	-20.969	0.131	0.081
-664.003	0.787	-0.142	-0.102
-662.989	800.000	0.065	-0.230
-661.974	-200.000	-0.027	-0.175
-660.959	-68.451	-0.215	-0.084
-659.945	545.962	-0.075	0.179
-658.930	-21.580	0.151	0.092
-657.916	580.006	-0.110	-0.271
-656.901	411.368	0.061	0.131
-655.886	417.457	0.120	-0.257
-654.872	-173.279	-0.086	-0.003
-653.857	-107.901	-0.130	-0.028
-652.843	-200.000	0.004	0.268
-651.828	444.749	-0.096	0.211
-650.814	73.564	-0.035	-0.037
-649.799	-95.517	0.208	-0.056
-648.784	800.000	-0.043	-0.139
-647.770	800.000	0.050	-0.194
-646.755	238.310	0.177	0.296
-645.741	61.528	-0.341	-0.341
-644.726	493.800	0.071	0.164
-643.711	-200.000	0.023	0.156
-642.697	-32.610	0.244	-0.136
-641.682	-200.000	-0.013	-0.090
-640.668	7.545	0.175	0.132
-639.653	120.034	0.207	-0.258
-638.638	-40.398	-0.173	0.090
-637.624	-60.937	0.149	0.063
-636.609	495.275	-0.060	-0.139
-635.595	-200.000	0.026	0.123
-634.580	29.129	0.239	0.204
-633.565	24.679	-0.252	-0.210
-632.551	62.431	0.105	-0.105
-631.536	565.735	-0.052	0.126
-630.522	86.601	0.214	-0.237
-629.507	-200.000	-0.023	0.117
-628.492	-200.000	0.014	0.153
-627.478	203.527	0.139	-0.217
-626.463	5.416	-0.215	-0.159
-625.449	353.346	0.115	0.229
-624.434	-99.337	-0.325	0.082
-623.419	-151.146	-0.335	0.025
-622.405	-42.732	0.239	-0.122
-621.390	0.615	-0.252	0.181
-620.376	-17.491	-0.238	0.150
-619.361	74.076	-0.193	0.203
-618.346	-2.268	-0.130	-0.092
-617.332	-200.000	-0.023	0.149
-616.317	-200.000	0.010	-0.418
-615.303	268.209	0.083	0.146
-614.288	2.411	0.211	-0.153
-613.273	800.000	0.076	0.231
-612.259	-200.000	0.008	-0.094
-611.244	75.832	0.074	0.079
-610.230	-200.000	0.011	-0.190
-609.215	0.508	-0.135	-0.097
-608.201	-65.975	0.091	0.036
-607.186	475.850	0.130	0.294
-606.171	-57.959	-0.320	-0.140
-605.157	-110.601	0.308	-0.064
-604.142	82.710	0.104	-0.114
-603.128	-73.649	-0.068	0.025
-602.113	439.469	-0.043	-0.094
-601.098	543.612	-0.092	-0.219
-600.084	800.000	-0.037	0.146
-599.069	386.180	0.078	0.162
-598.055	-200.000	-0.021	-0.242
-597.040	50.124	-0.118	-0.112
-596.025	62.097	-0.167	0.167
-595.011	-200.000	0.059	-0.437
-593.996	-200.000	0.030	0.309
-592.982	-200.000	0.003	0.061
-591.967	-200.000	-0.023	0.218
-590.952	12.245	0.195	-0.150
-589.938	68.397	-0.083	-0.086
-588.923	570.584	0.122	-0.298
-587.909	-200.000	0.057	0.346
-586.894	800.000	0.106	-0.434
-585.879	504.041	0.105	0.244
-584.865	-67.496	-0.050	-0.019
-583.850	-54.554	-0.145	0.066
-582.836	-85.743	0.225	0.070
-581.821	240.885	-0.109	-0.182
-580.806	-43.377	-0.122	-0.062
-579.792	-121.352	-0.378	-0.063
-578.777	-21.029	-0.041	0.025
-577.763	218.613	-0.050	-0.080
-576.748	747.678	0.087	0.236
-575.733	15.743	0.050	-0.039
-574.719	-18.007	0.196	-0.123
-573.704	-64.339	-0.057	0.023
-572.690	-200.000	0.024	0.157
-571.675	-200.000	-0.035	0.228
-570.661	-78.720	-0.201	-0.069
-569.646	800.000	-0.050	0.150
-568.631	395.723	-0.078	-0.162
-567.617	173.610	0.075	0.109
-566.602	-87.553	0.262	-0.079
-565.588	-85.615	0.074	0.023
-564.573	-31.872	0.201	-0.113
-563.558	-88.106	0.414	-0.124
-562.544	-37.134	-0.246	0.132
-561.529	505.845	-0.070	-0.162
-560.515	800.000	-0.070	-0.223
-559.500	-97.518	0.118	-0.031
-558.485	109.858	0.113	0.136
-557.471	-200.000	0.010	-0.220
-556.456	150.830	0.154	-0.209
-555.442	45.686	0.225	0.208
-554.427	-140.637	0.282	-0.029
-553.412	40.427	-0.241	-0.218
-552.398	-50.468	0.346	0.164
-551.383	-96.550	-0.183	-0.048
-550.369	-33.709	0.197	-0.109
-549.354	56.739	-0.151	0.147
-548.339	-64.905	0.203	-0.082
-547.325	-109.642	-0.030	0.006
-546.310	602.337	0.119	0.295
-545.296	64.825	-0.229	-0.231
-544.281	145.786	0.099	-0.132
-543.266	39.080	0.054	0.048
-542.252	-200.000	-0.054	0.238
-541.237	-71.506	0.370	-0.138
-540.223	178.975	-0.149	-0.218
-539.208	82.383	0.189	-0.205
-538.193	462.343	-0.170	-0.379
-537.179	701.602	0.114	0.299
-536.164	542.858	-0.081	0.193
-535.150	147.417	0.081	-0.110
-534.135	-200.000	0.091	0.427
-533.121	314.974	0.123	0.231
-532.106	209.989	0.161	0.253
-531.091	-200.000	-0.040	0.261
-530.077	223.504	-0.120	0.193
-529.062	499.564	-0.084	-0.194
-528.048	800.000	-0.054	0.167
-527.033	63.916	0.142	-0.142
-526.018	37.208	-0.261	-0.231
-525.004	52.806	-0.208	-0.199
-523.989	340.368	-0.147	0.288
-522.975	135.246	-0.188	0.245
-521.960	40.315	-0.080	0.072
-520.945	-5.040	0.178	0.122
-519.931	379.653	-0.128	0.262
-518.916	-33.361	-0.246	-0.136
-517.902	593.358	-0.011	0.026
-516.887	-22.352	-0.120	-0.072
-515.872	214.002	0.149	-0.235
-514.858	-29.422	-0.221	-0.127
-513.843	-123.317	0.311	0.050
-512.829	800.000	-0.080	-0.312
-511.814	-42.764	0.091	-0.046
-510.799	-44.790	0.201	0.100
-509.785	360.285	-0.017	-0.034
-508.770	163.730	0.157	-0.221
-507.756	296.859	-0.217	-0.398
-506.741	249.878	0.056	0.095
-505.726	-62.052	0.181	0.076
-504.712	-88.977	-0.321	-0.095
-503.697	-90.223	0.294	-0.086
-502.683	-200.000	0.019	0.192
-501.668	800.000	0.025	-0.079
-500.653	-200.000	0.002	-0.035
-499.639	-27.008	-0.090	-0.053
-498.624	470.940	-0.101	-0.226
-497.610	-200.000	-0.022	0.114
-496.595	-82.067	-0.260	-0.085
-495.581	-200.000	0.000	-0.072
-494.566	-160.044	0.104	0.006
-493.551	273.794	0.109	-0.193
-492.537	-200.000	-0.006	0.122
-491.522	-25.229	-0.101	0.060
-490.508	377.858	-0.175	-0.357
-489.493	-200.000	0.016	-0.272
-488.478	-87.190	0.215	-0.065
-487.464	484.883	-0.076	0.174
-486.449	800.000	0.095	-0.318
-485.435	800.000	-0.037	-0.154
-484.420	577.516	0.143	-0.350
-483.405	-91.703	-0.576	-0.163
-482.391	73.931	0.051	-0.053
-481.376	24.815	0.207	0.171
-480.362	-39.245	0.339	-0.178
-479.347	-200.000	-0.043	-0.226
-478.332	36.901	0.037	-0.032
-477.318	-200.000	-0.031	-0.159
-476.303	18.040	0.177	0.141
-475.289	766.606	0.102	-0.277
-474.274	83.967	0.105	0.115
-473.259	-112.193	0.124	-0.025
-472.245	23.514	0.071	0.058
-471.230	-110.220	-0.300	0.062
-470.216	-107.444	-0.246	-0.054
-469.201	229.832	0.055	-0.089
-468.186	-128.309	-0.193	-0.027
-467.172	-138.981	0.131	-0.014
-466.157	-108.035	-0.144	-0.031
-465.143	52.965	0.191	0.182
-464.128	158.466	-0.102	-0.142
-463.113	502.993	-0.072	-0.166
-462.099	800.000	-0.042	0.171
-461.084	361.109	-0.107	-0.213
-460.070	84.516	-0.056	-0.061
-459.055	195.693	0.114	0.173
-458.040	183.174	-0.144	-0.213
-457.026	131.335	0.136	0.175
-456.011	37.853	0.215	-0.191
-454.997	800.000	0.068	-0.254
-453.982	-19.542	0.255	0.158
-452.968	-200.000	0.067	0.317
-451.953	-173.295	-0.124	0.004
-450.938	-42.147	0.228	0.116
-449.924	-200.000	0.030	0.208
-448.909	121.520	-0.224	0.278
-447.895	-55.702	-0.126	-0.056
-446.880	29.879	-0.079	0.067
-445.865	-107.186	0.071	-0.016
-444.851	-7.832	0.146	0.098
-443.836	-36.815	0.108	-0.058
-442.822	-104.055	0.485	-0.113
-441.807	-150.134	-0.154	0.012
-440.792	-200.000	0.028	0.135
-439.778	162.278	0.136	0.190
-438.763	-58.664	-0.023	-0.010
-437.749	800.000	0.038	0.132
-436.734	112.430	0.114	0.138
-435.719	-114.964	-0.193	0.037
-434.705	-51.480	-0.105	0.049
-433.690	611.592	-0.055	-0.136
-432.676	-200.000	-0.006	-0.049
-431.661	714.566	0.093	0.246
-430.646	-142.457	-0.231	-0.023
-429.632	283.182	0.110	0.196
-428.617	268.610	-0.067	-0.117
-427.603	-34.786	-0.203	-0.110
-426.588	30.484	-0.195	-0.166
-425.573	699.576	0.083	-0.217
-424.559	300.017	0.012	-0.023
-423.544	-81.126	0.255	0.084
-422.530	-105.104	-0.042	0.010
-421.515	-3.566	0.133	0.092
-420.500	-200.000	-0.007	0.392
-419.486	747.064	-0.084	0.226
-418.471	172.583	0.089	0.127
-417.457	-138.040	0.083	-0.009
-416.442	800.000	0.047	-0.191
-415.428	103.201	-0.232	0.271
-414.413	800.000	-0.006	0.021
-413.398	-65.915	0.199	0.079
-412.384	-102.762	-0.320	0.076
-411.369	568.916	-0.030	0.072
-410.355	1.783	0.094	-0.068
-409.340	-38.755	-0.423	-0.222
-408.325	-81.406	-0.065	0.021
-407.311	-200.000	0.059	0.377
-406.296	-87.414	-0.258	0.078
-405.282	384.994	-0.109	-0.224
-404.267	-70.119	0.326	-0.124
-403.252	353.239	-0.108	0.212
-402.238	50.380	-0.216	-0.203
-401.223	73.828	0.088	0.092
-400.209	-200.000	-0.001	0.274
-399.194	39.956	-0.148	0.132
-398.179	147.682	0.144	0.194
-397.165	800.000	0.037	0.112
-396.150	-200.000	-0.021	-0.134
-395.136	-45.835	-0.076	-0.037
-394.121	131.532	0.039	-0.050
-393.106	497.989	0.065	0.150
-392.092	800.000	0.092	-0.357
-391.077	-142.375	0.506	0.050
-390.063	-157.657	0.360	0.021
-389.048	800.000	0.043	0.125
-388.033	159.363	-0.110	0.153
-387.019	79.056	-0.062	0.066
-386.004	-158.955	0.061	-0.003
-384.990	-109.023	0.116	0.025
-383.975	193.006	-0.130	0.195
-382.960	-123.127	-0.362	-0.058
-381.946	-172.076	0.253	0.008
-380.931	144.267	-0.097	0.129
-379.917	114.461	0.197	-0.239
-378.902	-200.000	-0.030	0.254
-377.888	-23.523	0.241	-0.144
-376.873	-200.000	-0.037	-0.185
-375.858	341.045	0.023	0.045
-374.844	-200.000	0.040	0.459
-373.829	82.641	0.195	-0.211
-372.815	149.495	0.193	-0.260
-371.800	800.000	0.087	0.248
-370.785	48.129	-0.124	0.115
-369.771	-120.154	-0.184	-0.031
-368.756	-200.000	0.062	-0.385
-367.742	165.531	-0.113	0.159
-366.727	281.430	-0.076	0.136
-365.712	414.789	0.092	-0.195
-364.698	108.518	0.211	-0.250
-363.683	-36.701	-0.372	-0.199
-362.669	15.076	-0.065	-0.051
-361.654	214.354	0.098	0.154
-360.639	414.289	-0.107	0.226
-359.625	555.070	-0.129	-0.309
-358.610	109.584	-0.054	-0.064
-357.596	800.000	-0.045	0.147
-356.581	-177.780	0.268	0.006
-355.566	800.000	0.054	-0.159
-354.552	-200.000	0.022	0.126
-353.537	-43.293	-0.031	0.016
-352.523	-104.328	0.101	-0.023
-351.508	189.759	0.057	-0.085
-350.493	94.451	-0.066	0.074
-349.479	800.000	0.065	0.223
-348.464	-200.000	0.017	0.227
-347.450	131.210	-0.128	0.163
-346.435	-75.761	-0.282	0.099
-345.420	69.619	-0.114	-0.117
-344.406	-56.436	0.242	-0.107
-343.391	-71.959	0.230	-0.085
-342.377	131.812	0.210	-0.269
-341.362	-200.000	-0.014	0.123
-340.348	331.914	0.090	0.172
-339.333	800.000	-0.090	0.328
-338.318	400.452	0.114	0.237
-337.304	-162.213	-0.324	-0.016
-336.289	51.943	0.201	0.190
-335.275	-200.000	-0.036	0.163
-334.260	-19.412	0.276	0.170
-333.245	272.690	0.116	0.203
-332.231	800.000	0.032	0.110
-331.216	-180.083	-0.182	0.004
-330.202	5.666	0.204	-0.150
-329.187	36.452	-0.167	-0.146
-328.172	-200.000	0.003	0.018
-327.158	383.589	0.170	-0.347
-326.143	143.020	0.191	-0.252
-325.129	800.000	0.052	-0.223
-324.114	462.041	0.133	-0.295
-323.099	-11.895	-0.156	0.101
-322.085	178.189	0.191	-0.277
-321.070	98.887	-0.170	-0.195
-320.056	167.800	0.067	0.094
-319.041	-32.645	-0.360	0.199
-318.026	172.674	-0.232	-0.332
-317.012	-200.000	0.029	-0.151
-315.997	800.000	-0.094	0.261
-314.983	-106.276	0.026	-0.006
-313.968	800.000	0.044	-0.145
-312.953	21.673	0.131	0.106
-311.939	-200.000	0.033	0.190
-310.924	96.620	-0.129	-0.146
-309.910	-84.055	-0.111	-0.035
-308.895	-28.738	-0.126	-0.072
-307.880	-167.499	-0.175	-0.007
-306.866	800.000	-0.040	-0.169
-305.851	-92.234	-0.189	-0.053
-304.837	305.480	0.142	0.262
-303.822	59.825	0.097	-0.095
-302.807	40.202	-0.307	-0.273
-301.793	-111.679	-0.034	0.007
-300.778	-83.248	0.099	-0.031
-299.764	83.260	-0.287	0.309
-298.749	186.695	-0.107	-0.157
-297.735	-200.000	-0.316	0.002
-296.720	-194.751	0.100	-0.001
-295.705	7.060	0.181	0.134
-294.691	321.844	-0.045	0.084
-293.676	-51.211	-0.136	-0.063
-292.662	800.000	-0.110	0.384
-291.647	-200.000	0.011	-0.090
-290.632	118.090	0.156	0.190
-289.618	39.323	-0.107	-0.095
-288.603	800.000	0.021	-0.091
-287.589	21.038	0.065	0.052
-286.574	41.019	-0.207	0.185
-285.559	-153.657	-0.170	0.012
-284.545	473.274	-0.103	-0.230
-283.530	-62.771	-0.215	0.088
-282.516	83.470	0.113	0.122
-281.501	-191.115	-0.164	0.002
-280.486	-100.961	0.137	0.033
-279.472	144.463	-0.265	-0.351
-278.457	42.856	-0.178	0.160
-277.443	151.956	0.161	-0.217
-276.428	1.704	-0.301	0.215
-275.413	7.888	0.101	-0.075
-274.399	-23.938	0.153	0.091
-273.384	-26.176	-0.297	-0.173
-272.370	43.266	0.079	-0.072
-271.355	800.000	0.029	0.115
-270.340	-200.000	-0.004	0.068
-269.326	640.353	0.042	0.106
-268.311	-97.973	0.115	-0.029
-267.297	-200.000	-0.016	-0.085
-266.282	55.802	-0.222	-0.213
-265.267	25.103	0.125	0.103
-264.253	109.919	0.209	0.248
-263.238	-200.000	-0.021	0.284
-262.224	258.844	-0.152	-0.260
-261.209	-200.000	-0.007	0.125
-260.195	-129.026	0.139	0.019
-259.180	800.000	-0.047	-0.148
-258.165	328.362	-0.088	-0.167
-257.151	-117.982	-0.057	-0.010
-256.136	-67.412	-0.019	-0.007
-255.122	-195.364	0.127	0.001
-254.107	-79.190	0.169	0.057
-253.092	-92.883	-0.108	0.030
-252.078	-30.449	0.234	0.131
-251.063	-128.933	0.372	-0.052
-250.049	-200.000	-0.025	-0.328
-249.034	-200.000	0.020	-0.185
-248.019	77.170	-0.035	0.037
-247.005	189.034	-0.187	-0.278
-245.990	48.602	0.147	-0.136
-244.976	643.515	0.061	0.155
-243.961	174.029	0.050	-0.071
-242.946	44.667	-0.156	0.142
-241.932	108.912	-0.284	0.336
-240.917	-200.000	0.013	-0.076
-239.903	-200.000	-0.020	0.156
-238.888	-27.935	0.195	0.112
-237.873	-142.988	0.117	-0.011
-236.859	-189.620	0.504	-0.006
-235.844	168.160	-0.123	-0.174
-234.830	37.534	0.081	-0.071
-233.815	594.924	0.057	-0.140
-232.800	-1.953	0.092	0.064
-231.786	-63.782	-0.084	-0.034
-230.771	9.519	0.148	0.111
-229.757	-200.000	-0.040	-0.257
-228.742	800.000	-0.076	0.319
-227.727	-151.229	-0.185	-0.014
-226.713	800.000	0.062	-0.267
-225.698	-139.002	-0.264	0.028
-224.684	404.071	-0.159	-0.332
-223.669	30.579	0.309	-0.261
-222.655	-86.740	-0.257	-0.078
-221.640	30.226	0.325	0.274
-220.625	322.164	0.137	-0.258
-219.611	-200.000	0.026	-0.132
-218.596	657.565	-0.038	-0.098
-217.582	178.099	-0.222	0.320
-216.567	133.855	0.221	0.283
-215.552	-38.685	0.167	0.087
-214.538	222.500	-0.197	0.314
-213.523	229.890	-0.037	-0.060
-212.509	-112.677	0.281	-0.055
-211.494	-52.224	-0.187	0.086
-210.479	800.000	-0.069	-0.208
-209.465	97.776	-0.138	0.157
-208.450	-165.926	0.120	0.005
-207.436	-200.000	0.011	0.058
-206.421	-200.000	-0.019	0.150
-205.406	55.932	-0.193	0.185
-204.392	-200.000	0.020	-0.102
-203.377	587.431	0.093	-0.226
-202.363	800.000	-0.091	0.285
-201.348	-200.000	-0.013	0.080
-200.333	434.368	-0.070	-0.149
-199.319	12.925	0.109	-0.083
-198.304	-200.000	0.021	0.233
-197.290	-23.652	-0.261	-0.154
-196.275	-141.063	0.075	0.008
-195.260	242.233	-0.228	-0.376
-194.246	-200.000	0.030	-0.269
-193.231	37.023	-0.292	-0.255
-192.217	793.142	-0.106	-0.288
-191.202	60.124	0.065	0.063
-190.187	-114.372	-0.257	0.049
-189.173	318.417	0.074	0.138
-188.158	89.893	0.130	0.143
-187.144	11.892	0.097	-0.073
-186.129	-51.564	0.185	-0.085
-185.114	-200.000	0.030	0.430
-184.100	82.834	-0.193	-0.207
-183.085	-67.994	0.096	0.037
-182.071	-34.992	0.194	-0.104
-181.056	-200.000	0.101	0.497
-180.042	-177.565	-0.292	0.007
-179.027	-84.758	0.243	0.075
-178.012	196.775	-0.220	-0.330
-176.998	-47.976	-0.458	-0.219
-175.983	94.955	0.199	0.224
-174.969	331.856	0.092	0.175
-173.954	52.343	-0.204	0.192
-172.939	-46.564	-0.072	0.035
-171.925	13.635	0.115	0.088
-170.910	78.026	-0.216	0.227
-169.896	341.846	0.116	0.223
-168.881	800.000	0.040	0.155
-167.866	-59.626	-0.214	0.090
-166.852	114.650	-0.130	-0.156
-165.837	17.510	0.148	0.116
-164.823	511.469	-0.167	0.383
-163.808	-200.000	0.040	0.464
-162.793	-59.491	0.231	0.098
-161.779	-91.736	-0.080	0.022
-160.764	-125.901	0.303	0.045
-159.750	-178.152	-0.231	0.005
-158.735	800.000	-0.040	0.110
-157.720	583.583	-0.063	0.153
-156.706	-31.940	-0.161	-0.089
-155.691	-132.229	-0.302	-0.039
-154.677	-200.000	0.010	0.049
-153.662	-166.066	0.263	0.011
-152.647	-200.000	0.054	-0.383
-151.633	-200.000	0.002	-0.229
-150.618	-168.377	-0.201	-0.008
-149.604	-181.566	0.188	0.004
-148.589	124.088	0.183	-0.226
-147.574	679.921	-0.123	-0.316
-146.560	-96.796	-0.215	0.056
-145.545	-200.000	-0.037	-0.267
-144.531	-193.548	0.225	0.002
-143.516	-154.332	0.211	0.014
-142.502	127.079	-0.151	-0.189
-141.487	-200.000	0.047	-0.230
-140.472	-200.000	-0.014	0.207
-139.458	109.306	-0.226	-0.266
-138.443	-200.000	0.067	0.406
-137.429	542.240	0.074	0.174
-136.414	-200.000	-0.006	0.364
-135.399	-200.000	-0.011	0.214
-134.385	-100.481	0.181	-0.044
-133.370	217.965	-0.024	-0.037
-132.356	107.213	-0.104	0.122
-131.341	-98.669	-0.261	-0.065
-130.326	250.725	-0.151	-0.253
-129.312	-78.871	0.362	-0.122
-128.297	-65.078	0.242	-0.096
-127.283	31.284	-0.176	0.148
-126.268	-189.627	-0.199	-0.002
-125.253	68.867	-0.264	-0.267
-124.239	-117.348	-0.126	0.023
-123.224	241.094	-0.154	0.253
-122.210	26.846	0.133	0.110
-121.195	-0.860	-0.276	-0.192
-120.180	529.188	0.057	-0.133
-119.166	-125.501	0.020	-0.003
-118.151	157.834	-0.150	-0.204
-117.137	800.000	-0.072	0.257
-116.122	-24.731	-0.148	0.086
-115.107	800.000	0.035	-0.110
-114.093	-68.490	0.101	0.039
-113.078	124.249	-0.097	0.120
-112.064	800.000	-0.048	0.194
-111.049	800.000	-0.030	0.098
-110.034	-105.044	-0.216	0.049
-109.020	122.707	0.053	-0.065
-108.005	-200.000	0.047	-0.338
-106.991	-42.339	0.061	-0.031
-105.976	70.776	0.052	0.053
-104.962	-60.920	-0.104	0.043
-103.947	-200.000	0.131	-0.000
-102.932	-95.595	-0.076	-0.020
-101.918	-200.000	0.032	-0.267
-100.903	102.145	-0.035	0.040
-99.889	134.347	-0.123	-0.157
-98.874	521.130	0.084	0.194
-97.859	492.677	0.154	0.348
-96.845	345.702	-0.104	0.201
-95.830	106.464	0.087	0.102
-94.816	-129.312	0.072	-0.010
-93.801	-101.020	-0.054	-0.013
-92.786	51.298	0.232	0.217
-91.772	800.000	-0.084	0.252
-90.757	76.645	0.237	-0.247
-89.743	-86.204	0.078	0.024
-88.728	-135.153	0.193	-0.023
-87.713	-159.696	0.174	0.009
-86.699	-154.134	-0.259	0.017
-85.684	26.154	0.256	-0.210
-84.670	800.000	-0.059	0.177
-83.655	800.000	-0.036	-0.150
-82.640	621.137	-0.022	-0.054
-81.626	-141.827	0.248	-0.024
-80.611	102.766	-0.180	-0.207
-79.597	-200.000	0.015	0.122
-78.582	-6.276	-0.139	0.093
-77.567	30.065	-0.468	0.392
-76.553	270.961	-0.010	-0.017
-75.538	-63.452	0.275	-0.111
-74.524	15.447	0.084	0.065
-73.509	-54.160	0.100	0.045
-72.494	-5.559	-0.258	-0.174
-71.480	-145.312	-0.222	0.020
-70.465	-95.463	-0.137	-0.036
-69.451	694.938	-0.038	0.098
-68.436	-102.853	-0.172	0.040
-67.422	-96.282	0.309	-0.080
-66.407	27.842	0.070	-0.058
-65.392	-142.140	-0.127	-0.012
-64.378	-200.000	-0.020	0.343
-63.363	-200.000	-0.087	0.401
-62.349	-151.308	-0.289	-0.021
-61.334	173.508	-0.967	-1.370
-60.319	-200.000	0.120	0.639
-59.305	480.521	-0.484	-1.079
-58.290	72.894	0.833	0.854
-57.276	487.143	0.717	1.606
-56.261	-200.000	101.331	579.582
-55.246	455.862	1462.425	3184.781
-54.232	144.587	2680.737	3515.350
-53.217	107.845	2200.694	2573.394
-52.203	42.197	1632.081	1455.183
-51.188	33.475	1361.821	1161.019
-50.173	30.261	1319.440	1105.723
-49.159	54.515	1370.318	1296.096
-48.144	55.105	1386.909	1315.312
-47.130	33.691	1343.755	1146.741
-46.115	30.137	1326.133	1110.414
-45.100	29.993	1320.669	1104.934
-44.086	29.886	1318.256	1102.239
-43.071	29.794	1316.300	1100.014
-42.057	29.988	1313.681	1098.927
-41.042	29.801	1312.618	1096.888
-40.027	29.866	1310.780	1095.692
-39.013	29.919	1308.933	1094.418
-37.998	29.958	1307.135	1093.104
-36.984	30.056	1305.114	1091.948
-35.969	30.051	1303.516	1090.539
-34.954	30.033	1301.844	1088.992
-33.940	29.943	1300.822	1087.561
-32.925	30.003	1299.501	1086.769
-31.911	30.069	1298.025	1085.876
-30.896	30.145	1295.922	1084.520
-29.881	30.112	1294.910	1083.438
-28.867	30.230	1293.318	1082.750
-27.852	30.121	1291.952	1080.928
-26.838	30.165	1290.397	1079.840
-25.823	30.119	1288.822	1078.213
-24.809	29.981	1287.965	1076.648
-23.794	29.970	1286.448	1075.273
-22.779	30.086	1284.924	1074.633
-21.765	30.086	1283.907	1073.736
-20.750	30.101	1282.504	1072.611
-19.736	29.997	1281.466	1071.094
-18.721	29.965	1280.598	1070.145
-17.706	29.986	1279.177	1069.036
-16.692	29.888	1277.793	1067.269
-15.677	30.020	1276.634	1067.019
-14.663	29.977	1275.549	1065.826
-13.648	29.800	1274.744	1064.090
-12.633	29.919	1273.678	1063.843
-11.619	29.948	1272.557	1063.033
-10.604	30.027	1271.490	1062.549
-9.590	29.869	1270.588	1060.849
-8.575	29.842	1269.707	1059.919
-7.560	29.939	1268.270	1059.228
-6.546	29.928	1267.906	1058.824
-5.531	29.979	1266.834	1058.175
-4.517	29.874	1266.259	1057.055
-3.502	29.991	1265.280	1056.864
-2.487	29.896	1264.391	1055.535
-1.473	30.023	1259.965	1052.523
-0.458	29.052	1246.343	1035.639
0.556	25.155	1229.310	999.728
1.571	21.182	1235.098	982.045
2.586	19.715	1248.731	984.453
3.600	18.642	1236.055	968.319
4.615	13.585	1162.105	883.411
5.629	5.128	1086.243	783.365
6.644	1.242	1066.225	749.686
7.659	0.874	1064.149	746.347
8.673	0.886	1062.809	745.398
9.688	0.859	1061.774	744.476
10.702	1.091	1059.729	744.114
11.717	5.655	1065.663	770.710
12.731	13.352	1075.601	815.922
13.746	16.970	1080.062	837.123
14.761	17.504	1079.533	839.272
15.775	16.608	1078.081	833.654
16.790	15.612	1076.075	827.127
17.804	15.013	1074.552	822.940
18.819	14.718	1073.251	820.421
19.834	14.369	1072.228	817.855
20.848	14.063	1071.517	815.738
21.863	13.847	1070.552	813.873
22.877	13.806	1069.676	812.935
23.892	13.660	1069.185	811.776
24.907	13.759	1068.369	811.568
25.921	13.687	1067.404	810.411
26.936	13.730	1066.586	809.926
27.950	13.756	1065.698	809.309
28.965	13.765	1064.571	808.426
29.980	13.912	1062.999	807.875
30.994	13.783	1062.511	806.804
32.009	13.949	1061.268	806.596
33.023	13.968	1060.246	805.840
34.038	13.857	1059.436	804.614
35.053	13.718	1058.816	803.403
36.067	13.866	1057.598	803.122
37.082	13.874	1056.805	802.487
38.096	13.844	1056.077	801.718
39.111	13.819	1055.177	800.842
40.126	13.775	1053.686	799.427
41.140	13.728	1052.966	798.585
42.155	13.639	1051.636	797.080
43.169	13.809	1050.137	796.688
44.184	13.671	1049.688	795.612
45.199	13.722	1048.610	794.970
46.213	13.781	1047.205	794.118
47.228	13.820	1046.026	793.339
48.242	13.808	1045.277	792.647
49.257	13.733	1044.450	791.589
50.271	13.828	1043.694	791.399
51.286	13.839	1042.681	790.612
52.301	13.795	1041.338	789.315
53.315	13.728	1040.468	788.270
54.330	13.734	1039.524	787.511
55.344	13.711	1038.532	786.583
56.359	13.596	1038.057	785.609
57.374	13.643	1037.001	784.963
58.388	13.657	1036.230	784.374
59.403	13.605	1035.263	783.327
60.417	13.614	1034.641	782.829
61.432	13.580	1033.652	781.851
62.447	13.593	1032.839	781.232
63.461	13.681	1032.004	780.945
64.476	13.564	1031.507	779.945
65.490	13.657	1030.160	779.296
66.505	13.598	1029.579	778.510
67.520	13.730	1028.947	778.585
68.534	13.625	1028.777	777.893
69.549	13.674	1027.599	777.166
70.563	13.652	1026.703	776.316
71.578	13.668	1025.882	775.698
72.593	13.546	1025.696	774.918
73.607	13.551	1024.976	774.330
74.622	13.605	1024.197	773.927
75.636	13.583	1023.198	773.001
76.651	13.658	1022.479	772.740
77.666	13.632	1022.009	772.191
78.680	13.573	1021.223	771.256
79.695	13.708	1020.263	771.089
80.709	13.510	1020.257	770.100
81.724	13.614	1019.477	769.923
82.739	13.638	1019.110	769.688
83.753	13.671	1018.107	769.018
84.768	13.844	1016.515	768.548
85.782	13.798	1015.737	767.676
86.797	13.828	1014.674	766.946
87.812	13.735	1014.110	766.022
88.826	13.749	1013.516	765.570
89.841	13.868	1012.488	765.275
90.855	13.808	1011.455	764.150
91.870	13.886	1010.101	763.417
92.884	13.833	1009.575	762.710
93.899	13.973	1008.446	762.433
94.914	13.827	1008.132	761.456
95.928	13.743	1007.388	760.444
96.943	13.784	1006.426	759.837
97.957	13.770	1005.480	758.994
98.972	13.781	1004.770	758.441
99.987	13.824	1003.904	757.916
101.001	13.901	1002.814	757.377
102.016	13.875	1002.091	756.642
103.030	13.901	1001.258	756.068
104.045	13.837	1000.725	755.307
105.060	13.923	999.552	754.745
106.074	13.823	998.361	753.325
107.089	13.714	997.937	752.445
108.103	13.684	996.989	751.527
109.118	13.660	995.925	750.548
110.133	13.641	995.256	749.891
111.147	13.721	994.253	749.433
112.162	13.812	993.123	748.923
113.176	13.766	992.729	748.355
114.191	13.927	991.346	747.971
115.206	13.802	991.061	747.125
116.220	13.866	989.798	746.398
117.235	13.897	988.720	745.657
118.249	13.965	987.712	745.135
119.264	13.821	987.384	744.175
120.279	13.712	987.000	743.334
121.293	13.836	985.910	743.001
122.308	13.778	985.137	742.092
123.322	13.859	984.027	741.553
124.337	13.914	983.060	741.003
125.352	13.858	981.685	739.654
126.366	13.730	980.905	738.429
127.381	13.710	980.070	737.647
128.395	13.914	978.753	737.496
129.410	13.729	978.421	736.359
130.424	13.900	977.378	736.266
131.439	13.840	976.681	735.410
132.454	13.931	975.957	735.204
133.468	14.070	974.717	734.818
134.483	14.003	974.240	734.099
135.497	13.900	973.167	732.772
136.512	13.949	972.468	732.397
137.527	13.762	971.622	730.870
138.541	13.754	971.052	730.343
139.556	13.810	970.435	730.059
140.570	13.866	969.690	729.682
141.585	13.953	968.538	729.131
142.600	13.919	967.780	728.344
143.614	14.025	966.549	727.820
144.629	14.002	965.777	727.072
145.643	14.019	965.301	726.727
146.658	13.904	963.840	725.060
147.673	13.878	963.180	724.387
148.687	14.033	962.499	724.486
149.702	13.990	961.852	723.746
150.716	13.888	961.002	722.597
151.731	13.890	960.477	722.150
152.746	13.921	959.300	721.335
153.760	13.962	958.742	721.029
154.775	14.037	958.349	720.997
155.789	14.103	957.599	720.652
156.804	14.087	956.653	719.807
157.819	14.120	956.244	719.578
158.833	14.178	955.556	719.247
159.848	14.314	954.430	718.926
160.862	14.088	953.618	717.273
161.877	14.051	952.651	716.323
162.892	14.041	951.936	715.680
163.906	14.105	950.764	715.011
164.921	14.113	950.225	714.578
165.935	14.124	949.299	713.863
166.950	14.173	948.040	713.067
167.964	14.186	947.261	712.472
168.979	14.072	946.747	711.535
169.994	14.136	945.759	711.001
171.008	14.243	945.067	710.875
172.023	14.210	944.400	710.169
173.037	14.174	943.673	709.408
174.052	14.094	943.272	708.701
175.067	14.165	942.468	708.340
176.081	14.106	942.093	707.741
177.096	14.131	941.138	707.069
178.110	14.278	940.435	707.101
179.125	14.098	940.133	706.049
180.140	14.152	939.408	705.672
181.154	14.220	939.095	705.662
182.169	14.277	938.222	705.182
183.183	14.217	937.946	704.661
184.198	14.312	936.866	704.187
185.213	14.384	936.341	704.034
186.227	14.455	935.611	703.724
187.242	14.495	934.956	703.337
188.256	14.529	934.503	703.077
189.271	14.416	933.657	701.904
190.286	14.234	932.999	700.580
191.300	14.268	932.120	700.001
192.315	14.362	931.668	699.997
193.329	14.237	931.015	698.917
194.344	14.291	930.687	698.836
195.359	14.384	929.353	698.163
196.373	14.508	928.778	698.189
197.388	14.466	928.549	697.777
198.402	14.489	928.144	697.509
199.417	14.596	927.102	697.112
200.432	14.521	926.654	696.401
201.446	14.574	926.617	696.533
202.461	14.764	925.711	696.580
203.475	14.556	925.266	695.316
204.490	14.563	924.824	694.952
205.504	14.711	923.402	694.437
206.519	14.616	922.962	693.651
207.534	14.599	922.206	692.952
208.548	14.608	921.433	692.348
209.563	14.645	920.828	691.982
210.577	14.730	920.135	691.755
211.592	14.966	918.811	691.672
212.607	14.753	918.132	690.221
213.621	14.688	918.152	689.906
214.636	14.676	917.380	689.216
215.650	14.771	916.653	689.000
216.665	14.875	915.570	688.552
217.680	14.870	914.955	688.008
218.694	14.955	914.437	687.907
219.709	14.941	914.072	687.514
220.723	14.878	913.553	686.804
221.738	14.879	912.527	685.976
222.753	14.963	911.836	685.740
223.767	14.960	911.335	685.292
224.782	14.983	910.893	684.992
225.796	14.944	910.291	684.322
226.811	14.958	909.613	683.809
227.826	14.935	908.839	683.071
228.840	14.968	907.784	682.352
229.855	14.943	907.608	682.057
230.869	15.027	906.562	681.553
231.884	14.997	905.940	680.904
232.899	15.067	904.941	680.376
233.913	14.984	904.497	679.645
234.928	15.027	903.729	679.182
235.942	15.029	903.202	678.734
236.957	15.045	902.779	678.423
237.972	14.955	902.436	677.741
238.986	15.041	901.533	677.350
240.001	15.034	900.570	676.538
241.015	15.157	900.164	676.669
242.030	15.028	899.914	675.900
243.045	15.073	899.283	675.549
244.059	15.071	898.451	674.856
245.074	15.196	897.421	674.525
246.088	15.288	896.673	674.275
247.103	15.173	896.773	673.828
248.117	15.286	895.753	673.456
249.132	15.309	895.152	673.037
250.147	15.421	894.619	673.023
251.161	15.483	893.817	672.609
252.176	15.420	893.002	671.685
253.190	15.319	892.764	671.043
254.205	15.558	891.946	671.325
255.220	15.355	891.746	670.304
256.234	15.544	890.622	670.154
257.249	15.528	890.012	669.572
258.263	15.575	889.230	669.109
259.278	15.478	888.631	668.214
260.293	15.417	888.379	667.724
261.307	15.502	887.735	667.519
262.322	15.658	886.870	667.427
263.336	15.514	886.136	666.244
264.351	15.543	885.174	665.577
265.366	15.729	884.396	665.670
266.380	15.684	884.329	665.383
267.395	15.576	883.510	664.279
268.409	15.716	882.433	663.963
269.424	15.668	882.010	663.398
270.439	15.596	881.286	662.513
271.453	15.667	880.298	661.991
272.468	15.681	880.036	661.788
273.482	15.716	879.589	661.532
274.497	15.515	879.491	660.610
275.512	15.683	878.553	660.504
276.526	15.741	878.054	660.300
277.541	15.698	877.719	659.821
278.555	15.891	876.998	659.977
279.570	15.868	876.189	659.221
280.585	16.008	875.060	658.860
281.599	15.751	874.568	657.427
282.614	15.801	873.975	657.118
283.628	15.949	873.158	657.022
284.643	16.095	872.424	656.982
285.657	15.907	872.219	656.038
286.672	15.914	871.699	655.614
287.687	15.988	870.455	654.907
288.701	15.952	870.224	654.539
289.716	15.915	869.653	653.906
290.730	16.072	869.200	654.115
291.745	15.862	868.605	652.798
292.760	16.081	867.894	653.053
293.774	16.113	867.318	652.684
294.789	16.196	866.694	652.481
295.803	16.078	865.789	651.284
296.818	16.277	864.888	651.317
297.833	16.109	864.489	650.311
298.847	16.168	863.792	649.957
299.862	16.055	863.647	649.354
300.876	16.100	862.920	648.922
301.891	16.168	862.457	648.779
302.906	16.295	861.494	648.488
303.920	16.369	860.833	648.215
304.935	16.272	860.973	647.891
305.949	16.197	860.310	647.046
306.964	16.441	859.533	647.341
307.979	16.541	858.607	646.966
308.993	16.477	858.452	646.548
310.008	16.347	857.818	645.517
311.022	16.434	856.710	644.958
312.037	16.366	856.507	644.489
313.052	16.434	855.764	644.134
314.066	16.378	855.297	643.511
315.081	16.318	855.151	643.114
316.095	16.370	854.455	642.731
317.110	16.366	853.880	642.227
318.125	16.389	853.255	641.787
319.139	16.372	853.098	641.548
320.154	16.513	852.202	641.352
321.168	16.361	852.256	640.759
322.183	16.489	850.829	640.115
323.197	16.471	850.653	639.857
324.212	16.502	849.944	639.388
325.227	16.609	849.452	639.362
326.241	16.416	849.169	638.367
327.256	16.503	848.363	638.031
328.270	16.575	847.487	637.589
329.285	16.441	847.180	636.795
330.300	16.433	846.870	636.478
331.314	16.418	846.421	636.026
332.329	16.616	845.690	636.163
333.343	16.573	845.358	635.695
334.358	16.601	844.734	635.277
335.373	16.669	844.644	635.406
336.387	16.604	843.997	634.620
337.402	16.609	843.899	634.508
338.416	16.780	843.297	634.642
339.431	16.800	843.065	634.485
340.446	16.779	842.703	634.079
341.460	16.835	841.921	633.644
342.475	16.783	841.754	633.268
343.489	16.807	841.343	632.993
344.504	16.974	840.364	632.822
345.519	17.004	840.136	632.707
346.533	16.825	839.780	631.717
347.548	16.868	839.177	631.364
348.562	16.900	838.479	630.904
349.577	16.686	838.393	629.986
350.592	16.870	837.600	630.020
351.606	16.907	836.611	629.358
352.621	16.742	836.525	628.623
353.635	16.801	835.560	628.063
354.650	16.786	835.156	627.646
355.665	16.884	834.376	627.369
356.679	17.089	833.398	627.337
357.694	17.117	832.800	626.933
358.708	17.013	832.601	626.345
359.723	16.987	831.805	625.595
360.738	17.084	830.910	625.222
361.752	16.981	830.802	624.707
362.767	17.116	830.102	624.621
363.781	17.145	829.544	624.254
364.796	17.189	829.089	624.018
365.810	17.111	828.734	623.410
366.825	17.062	828.296	622.845
367.840	17.291	827.804	623.259
368.854	17.232	827.314	622.620
369.869	17.274	827.002	622.483
370.883	17.266	826.484	622.007
371.898	17.373	826.051	622.019
372.913	17.405	825.701	621.818
373.927	17.351	825.156	621.153
374.942	17.418	824.786	621.067
375.956	17.433	824.420	620.788
376.971	17.505	823.802	620.530
377.986	17.298	823.634	619.595
379.000	17.435	823.151	619.674
380.015	17.455	822.614	619.288
381.029	17.645	821.712	619.248
382.044	17.580	821.227	618.591
383.059	17.446	820.843	617.760
384.073	17.509	820.532	617.699
385.088	17.529	819.567	616.992
386.102	17.607	819.011	616.800
387.117	17.433	818.773	615.936
388.132	17.562	817.709	615.546
389.146	17.409	817.694	614.930
390.161	17.587	816.825	614.863
391.175	17.623	816.581	614.756
392.190	17.623	816.161	614.385
393.205	17.583	815.644	613.797
394.219	17.695	815.121	613.752
395.234	17.520	815.127	613.074
396.248	17.490	814.946	612.774
397.263	17.410	814.352	611.985
398.278	17.558	813.824	612.068
399.292	17.491	813.447	611.487
400.307	17.717	812.707	611.689
401.321	17.777	812.062	611.364
402.336	17.806	811.468	610.969
403.350	17.826	811.090	610.698
404.365	17.769	810.500	609.996
405.380	17.870	810.241	610.110
406.394	17.860	809.433	609.413
407.409	17.920	809.237	609.424
408.423	17.804	809.116	608.865
409.438	17.948	808.389	608.778
410.453	17.974	807.877	608.433
411.467	17.938	807.615	608.053
412.482	17.997	807.349	608.008
413.496	17.893	807.162	607.445
414.511	17.974	806.499	607.179
415.526	17.923	806.686	607.082
416.540	17.942	805.928	606.528
417.555	18.024	805.066	606.115
418.569	18.138	804.463	606.014
419.584	18.059	804.256	605.525
420.599	18.159	803.733	605.428
421.613	110.710	1291.983	1467.360
422.628	95.479	1363.093	1467.471
