DTS Sentinel unit serial number:	SN413079Multiplexer serial number:	ORYXHardware model number:	OX4-SRSoftware version number:	ORYX F/W v4.00 Oryx Data Collector v3.7.2.0data status	okinstallation	princeton_trtdifferential loss correction	single-endedforward channel	channel 1reverse channel	N/Adate	2019/09/15time	05:06:35forward acquisition time	60.00reverse acquisition time	0.00gamma	496.2192k internal	0.2325k external	0.2325temperature offset calibration	0.9996default loss term (dB/km)	0.3790temperature slope calibration	1.0000multiplexer offset coefficient	1.0000multiplexer slope coefficient	1.0000fibre end	0.00T internal ref (°C)	30.69T ext. ref 1 (°C)	4.82T ext. ref 2 (°C)	25.21length (m)	temperature (°C)	Stokes	anti-Stokes-747.200	63.732	-0.062	-0.063
-746.185	-87.931	0.119	0.036
-745.171	-142.037	0.113	0.011
-744.156	-102.015	-0.118	0.029
-743.142	145.105	0.225	0.304
-742.127	115.167	0.095	-0.117
-741.112	-69.659	0.335	-0.129
-740.098	686.473	0.136	0.358
-739.083	-92.458	0.223	0.063
-738.069	-200.000	0.025	0.124
-737.054	-200.000	-0.034	-0.188
-736.039	-116.670	-0.171	-0.032
-735.025	-200.000	-0.003	0.077
-734.010	3.871	-0.134	-0.098
-732.996	348.942	-0.155	0.309
-731.981	9.870	-0.387	0.296
-730.966	-20.333	0.144	0.089
-729.952	49.483	-0.060	0.057
-728.937	-200.000	0.001	0.180
-727.923	-200.000	-0.014	0.318
-726.908	193.023	-0.127	-0.193
-725.894	3.607	0.125	-0.092
-724.879	-26.556	-0.200	-0.118
-723.864	24.769	-0.182	0.152
-722.850	144.881	0.097	0.130
-721.835	800.000	0.087	-0.362
-720.821	-200.000	0.038	0.255
-719.806	-48.720	0.394	0.191
-718.791	-47.028	-0.156	-0.077
-717.777	500.300	0.090	-0.210
-716.762	127.464	-0.018	-0.024
-715.748	11.421	-0.244	-0.189
-714.733	800.000	-0.029	0.096
-713.718	161.497	0.059	0.083
-712.704	-89.753	-0.401	0.118
-711.689	61.943	0.093	-0.093
-710.675	-200.000	-0.039	0.187
-709.660	800.000	-0.079	-0.252
-708.645	-77.933	-0.422	-0.147
-707.631	-62.514	-0.035	-0.015
-706.616	-104.224	-0.154	-0.036
-705.602	800.000	0.072	0.202
-704.587	-108.911	-0.262	0.056
-703.572	-25.758	-0.162	0.096
-702.558	10.246	0.221	-0.169
-701.543	67.971	-0.109	-0.112
-700.529	-121.842	-0.063	0.010
-699.514	451.773	0.134	0.298
-698.499	800.000	0.066	-0.223
-697.485	-62.335	-0.226	-0.095
-696.470	-19.325	0.099	0.062
-695.456	28.510	-0.278	0.237
-694.441	-167.486	-0.072	-0.003
-693.426	-200.000	-0.002	0.037
-692.412	-7.339	-0.184	0.126
-691.397	-107.756	-0.109	0.024
-690.383	-113.978	-0.295	-0.058
-689.368	-10.632	0.104	-0.069
-688.354	73.820	0.103	-0.109
-687.339	84.209	-0.140	-0.154
-686.324	-118.859	-0.250	0.044
-685.310	327.866	0.080	-0.154
-684.295	-200.000	0.022	-0.112
-683.281	409.901	-0.086	-0.183
-682.266	86.083	0.207	0.229
-681.251	154.421	-0.134	-0.186
-680.237	-92.912	-0.125	0.035
-679.222	-31.626	-0.103	0.058
-678.208	562.121	-0.058	0.142
-677.193	-36.049	-0.058	-0.031
-676.178	-35.502	-0.159	-0.087
-675.164	-88.017	-0.006	-0.002
-674.149	552.677	0.064	0.155
-673.135	68.023	0.099	-0.102
-672.120	33.758	-0.017	-0.015
-671.105	-184.645	0.193	0.003
-670.091	-200.000	0.042	0.191
-669.076	128.944	0.095	0.122
-668.062	588.071	0.143	-0.355
-667.047	234.612	-0.044	0.072
-666.032	-82.979	0.631	-0.205
-665.018	-116.578	0.128	0.024
-664.003	-200.000	-0.020	0.095
-662.989	800.000	-0.084	0.262
-661.974	-63.888	-0.084	-0.034
-660.959	-200.000	0.013	-0.140
-659.945	-200.000	0.036	0.262
-658.930	100.769	0.157	0.183
-657.916	509.226	-0.084	-0.196
-656.901	800.000	0.039	0.153
-655.886	722.813	-0.031	-0.084
-654.872	539.877	-0.035	0.085
-653.857	-94.419	-0.118	-0.032
-652.843	-1.209	0.145	-0.103
-651.828	9.189	0.163	0.124
-650.814	-200.000	0.017	0.125
-649.799	-200.000	-0.018	-0.101
-648.784	-19.587	0.136	-0.084
-647.770	73.763	0.154	-0.162
-646.755	89.606	-0.157	-0.176
-645.741	800.000	-0.035	0.129
-644.726	-200.000	-0.009	-0.149
-643.711	-200.000	0.029	0.252
-642.697	131.945	-0.248	0.320
-641.682	-21.306	-0.384	0.236
-640.668	618.462	-0.156	-0.393
-639.653	-37.716	-0.246	0.132
-638.638	-54.601	0.169	-0.077
-637.624	-50.940	0.103	-0.048
-636.609	106.459	-0.095	0.113
-635.595	-92.718	0.083	-0.023
-634.580	800.000	-0.058	-0.221
-633.565	351.917	0.038	-0.075
-632.551	42.975	-0.123	0.113
-631.536	143.627	0.125	0.168
-630.522	-120.643	-0.228	-0.039
-629.507	13.103	0.133	0.104
-628.492	-8.819	0.120	-0.081
-627.478	800.000	-0.055	0.180
-626.463	-25.793	0.199	-0.118
-625.449	146.149	0.210	-0.282
-624.434	-8.489	-0.176	0.119
-623.419	89.135	-0.158	-0.176
-622.405	292.896	-0.072	0.132
-621.390	126.846	0.325	-0.414
-620.376	17.921	0.109	-0.087
-619.361	231.482	-0.076	0.124
-618.346	-200.000	0.024	0.117
-617.332	-105.847	-0.270	0.061
-616.317	62.269	0.064	0.064
-615.303	135.565	-0.153	-0.200
-614.288	664.790	0.062	0.162
-613.273	-15.775	-0.270	0.173
-612.259	-90.240	-0.519	-0.151
-611.244	-10.637	-0.062	-0.041
-610.230	-60.804	0.269	0.114
-609.215	-200.000	0.008	-0.275
-608.201	-135.131	0.364	-0.044
-607.186	800.000	-0.092	-0.326
-606.171	800.000	-0.040	-0.113
-605.157	-41.983	-0.369	0.190
-604.142	-200.000	-0.010	-0.151
-603.128	315.384	0.115	-0.217
-602.113	97.472	-0.035	-0.041
-601.098	-37.601	0.263	-0.141
-600.084	-181.454	-0.022	-0.000
-599.069	-1.338	0.113	-0.080
-598.055	800.000	0.059	-0.184
-597.040	-66.327	0.249	-0.099
-596.025	-67.905	-0.472	-0.185
-595.011	92.217	-0.016	-0.018
-593.996	108.142	-0.078	-0.094
-592.982	70.235	-0.073	-0.076
-591.967	800.000	0.086	-0.284
-590.952	-200.000	-0.059	-0.286
-589.938	-102.943	0.544	-0.129
-588.923	-15.223	-0.258	0.166
-587.909	-51.494	-0.063	-0.030
-586.894	392.375	-0.112	-0.234
-585.879	-200.000	0.000	0.477
-584.865	-200.000	0.028	0.402
-583.850	12.700	-0.095	-0.073
-582.836	-200.000	-0.009	-0.209
-581.821	-3.510	0.166	-0.116
-580.806	-69.814	-0.280	-0.107
-579.792	7.287	-0.092	0.069
-578.777	-57.010	-0.130	0.057
-577.763	354.524	-0.117	0.233
-576.748	800.000	0.062	0.190
-575.733	96.291	0.058	0.066
-574.719	235.407	0.107	0.178
-573.704	-200.000	0.056	-0.385
-572.690	50.106	-0.089	-0.084
-571.675	-200.000	0.045	0.307
-570.661	115.251	-0.166	0.203
-569.646	-200.000	-0.009	-0.039
-568.631	70.557	0.136	0.141
-567.617	-85.702	-0.432	-0.134
-566.602	-76.230	-0.328	-0.116
-565.588	-200.000	0.002	0.042
-564.573	771.507	0.112	0.306
-563.558	-200.000	0.033	0.170
-562.544	281.329	-0.135	0.242
-561.529	304.470	0.101	0.187
-560.515	-200.000	0.001	0.196
-559.500	40.462	-0.084	-0.076
-558.485	18.219	0.046	0.036
-557.471	48.890	-0.073	0.069
-556.456	267.049	-0.129	0.225
-555.442	-122.956	-0.306	-0.049
-554.427	-167.932	-0.289	-0.011
-553.412	-200.000	0.019	0.202
-552.398	275.262	-0.121	0.215
-551.383	664.917	-0.019	-0.048
-550.369	50.592	0.103	-0.097
-549.354	621.145	0.056	-0.142
-548.339	-119.764	0.072	-0.012
-547.325	214.602	-0.110	0.174
-546.310	-82.943	0.182	-0.059
-545.296	1.982	0.150	-0.108
-544.281	-125.685	-0.017	-0.003
-543.266	-61.993	-0.164	-0.069
-542.252	-126.006	-0.075	0.011
-541.237	-200.000	0.007	-0.140
-540.223	-55.070	0.275	-0.124
-539.208	-9.828	-0.103	0.069
-538.193	581.963	-0.071	-0.174
-537.179	-22.405	-0.165	0.100
-536.164	312.895	0.037	0.069
-535.150	36.372	-0.093	0.082
-534.135	589.719	0.091	0.224
-533.121	-200.000	-0.029	-0.301
-532.106	-50.913	-0.102	0.048
-531.091	-100.500	-0.064	0.016
-530.077	-200.000	-0.029	-0.137
-529.062	-200.000	-0.073	0.336
-528.048	128.751	-0.067	-0.086
-527.033	-65.059	0.101	0.041
-526.018	139.621	-0.095	-0.126
-525.004	-68.370	-0.180	0.070
-523.989	800.000	-0.098	0.295
-522.975	130.083	-0.208	0.266
-521.960	-119.931	0.154	-0.027
-520.945	384.413	-0.070	-0.145
-519.931	-26.180	0.092	-0.054
-518.916	220.926	0.024	-0.038
-517.902	28.891	0.032	-0.027
-516.887	-88.413	-0.104	0.031
-515.872	202.530	0.056	0.086
-514.858	43.658	0.191	-0.174
-513.843	43.797	0.056	0.051
-512.829	214.509	-0.315	0.499
-511.814	-17.715	-0.327	0.205
-510.799	-1.061	-0.011	0.008
-509.785	800.000	-0.049	-0.188
-508.770	-95.945	0.299	-0.080
-507.756	42.878	-0.126	-0.115
-506.741	-200.000	0.002	0.016
-505.726	-16.061	0.167	0.106
-504.712	-123.393	0.274	-0.044
-503.697	-22.171	0.135	0.082
-502.683	-200.000	0.050	-0.276
-501.668	-200.000	0.023	0.446
-500.653	-106.797	-0.322	-0.071
-499.639	-200.000	-0.017	0.130
-498.624	800.000	0.038	-0.155
-497.610	92.879	0.088	0.100
-496.595	800.000	0.085	-0.311
-495.581	-109.951	0.003	-0.001
-494.566	-73.690	0.230	-0.084
-493.551	634.629	-0.136	-0.346
-492.537	-98.049	0.153	0.039
-491.522	-86.837	0.187	-0.057
-490.508	-99.614	-0.034	0.008
-489.493	48.522	0.270	0.252
-488.478	237.567	-0.138	-0.229
-487.464	-200.000	0.052	-0.382
-486.449	-38.652	0.176	0.093
-485.435	278.910	-0.133	-0.237
-484.420	-105.057	0.230	0.053
-483.405	-200.000	-0.014	-0.165
-482.391	379.072	-0.062	-0.126
-481.376	-27.398	-0.109	-0.063
-480.362	80.259	-0.102	-0.110
-479.347	-91.572	0.092	0.026
-478.332	-165.253	0.132	0.006
-477.318	561.982	-0.058	0.141
-476.303	28.166	-0.155	0.131
-475.289	800.000	-0.026	0.075
-474.274	800.000	-0.088	-0.259
-473.259	-11.421	-0.228	-0.150
-472.245	-200.000	-0.014	0.206
-471.230	343.436	0.096	0.188
-470.216	-135.104	0.230	-0.028
-469.201	-24.479	-0.193	0.115
-468.186	-42.645	-0.280	-0.142
-467.172	-111.540	0.278	0.056
-466.157	43.043	-0.070	0.064
-465.143	156.981	-0.252	0.347
-464.128	800.000	0.066	-0.206
-463.113	-41.003	-0.276	-0.142
-462.099	800.000	0.010	-0.037
-461.084	312.804	0.115	-0.216
-460.070	-33.506	-0.271	0.150
-459.055	-85.969	-0.310	-0.096
-458.040	-19.887	0.295	0.182
-457.026	-200.000	0.005	0.085
-456.011	171.384	-0.121	-0.172
-454.997	233.039	0.159	0.261
-453.982	15.038	-0.182	-0.142
-452.968	458.245	0.120	-0.267
-451.953	-200.000	-0.025	-0.199
-450.938	-116.566	0.072	-0.013
-449.924	23.836	0.076	-0.063
-448.909	-164.507	-0.401	0.018
-447.895	-86.600	0.087	-0.027
-446.880	-132.221	-0.223	0.029
-445.865	-13.021	-0.189	0.122
-444.851	-200.000	-0.021	-0.218
-443.836	-78.833	0.131	-0.045
-442.822	-200.000	0.012	0.194
-441.807	178.471	0.133	-0.194
-440.792	-105.916	0.302	-0.068
-439.778	18.240	0.298	0.237
-438.763	260.779	0.090	0.155
-437.749	46.678	-0.229	-0.212
-436.734	-113.560	0.298	0.058
-435.719	219.290	0.106	-0.169
-434.705	33.836	0.260	0.226
-433.690	201.255	0.119	0.183
-432.676	-53.514	-0.184	0.084
-431.661	-200.000	-0.109	0.000
-430.646	-21.732	-0.226	-0.137
-429.632	-200.000	-0.047	0.290
-428.617	83.750	-0.415	0.451
-427.603	-73.837	0.019	0.007
-426.588	800.000	-0.057	0.213
-425.573	503.638	0.147	0.339
-424.559	46.845	0.127	-0.118
-423.544	-187.255	-0.166	0.002
-422.530	289.426	0.144	0.261
-421.515	800.000	0.120	0.336
-420.500	-153.542	-0.092	-0.006
-419.486	-200.000	0.006	0.190
-418.471	176.333	0.209	0.303
-417.457	371.004	-0.145	-0.292
-416.442	-97.713	0.373	0.096
-415.428	493.745	-0.113	0.258
-414.413	-77.412	-0.314	0.109
-413.398	29.488	-0.225	0.191
-412.384	-6.443	0.059	-0.040
-411.369	-167.546	-0.378	0.015
-410.355	186.355	0.196	-0.291
-409.340	341.528	-0.112	-0.217
-408.325	-85.866	-0.232	-0.072
-407.311	392.963	-0.135	-0.279
-406.296	-89.744	-0.037	-0.011
-405.282	-91.307	0.239	0.068
-404.267	-200.000	-0.019	0.173
-403.252	131.381	0.344	-0.440
-402.238	118.511	0.137	-0.169
-401.223	-200.000	0.012	-0.125
-400.209	-120.660	-0.349	0.059
-399.194	-41.156	-0.169	-0.087
-398.179	217.687	-0.107	-0.170
-397.165	-56.001	0.056	0.025
-396.150	-29.576	-0.243	0.138
-395.136	-30.880	0.205	0.115
-394.121	-200.000	0.026	0.173
-393.106	-94.687	0.194	-0.052
-392.092	341.091	-0.093	-0.181
-391.077	-160.521	0.062	0.003
-390.063	-92.114	0.166	0.047
-389.048	44.570	0.051	0.046
-388.033	-200.000	0.057	0.352
-387.019	379.845	-0.076	0.154
-386.004	-65.926	0.260	-0.103
-384.990	601.907	0.116	0.286
-383.975	800.000	0.040	-0.129
-382.960	581.969	0.034	0.082
-381.946	13.321	-0.100	-0.077
-380.931	108.813	0.072	0.086
-379.917	-115.542	-0.032	-0.006
-378.902	752.672	-0.087	0.234
-377.888	476.012	0.147	-0.330
-376.873	-83.518	0.345	0.110
-375.858	-89.808	-0.147	-0.043
-374.844	-200.000	-0.031	-0.291
-373.829	-14.698	-0.198	0.126
-372.815	800.000	-0.008	-0.031
-371.800	-16.828	-0.087	-0.055
-370.785	-41.226	0.203	0.104
-369.771	578.387	-0.148	-0.359
-368.756	800.000	-0.084	0.326
-367.742	64.786	0.064	0.064
-366.727	-80.682	0.361	-0.119
-365.712	-70.182	0.280	0.106
-364.698	31.794	-0.108	0.092
-363.683	-47.079	0.342	0.166
-362.669	-70.476	0.121	-0.046
-361.654	-67.977	0.324	0.126
-360.639	-200.000	0.072	-0.314
-359.625	-149.717	0.179	0.014
-358.610	76.218	-0.058	-0.061
-357.596	520.060	-0.062	0.146
-356.581	381.425	-0.162	0.330
-355.566	-111.546	0.136	0.027
-354.552	-200.000	0.015	-0.283
-353.537	-51.712	-0.273	0.127
-352.523	267.034	0.072	-0.124
-351.508	285.143	0.233	-0.418
-350.493	67.794	-0.145	-0.148
-349.479	-119.094	0.159	0.028
-348.464	-200.000	-0.041	-0.289
-347.450	-200.000	0.034	0.508
-346.435	-71.271	0.169	0.063
-345.420	-82.468	-0.224	-0.072
-344.406	-76.768	0.144	0.050
-343.391	-57.842	0.156	0.068
-342.377	259.413	0.159	0.273
-341.362	-48.486	0.182	-0.087
-340.348	17.648	-0.158	-0.125
-339.333	118.847	-0.171	-0.210
-338.318	-0.059	-0.195	0.138
-337.304	-142.115	-0.242	0.024
-336.289	44.223	0.150	0.137
-335.275	800.000	-0.029	-0.119
-334.260	208.894	0.044	-0.068
-333.245	-25.878	-0.332	-0.194
-332.231	199.866	0.132	-0.201
-331.216	19.296	-0.267	0.213
-330.202	-30.488	0.092	0.052
-329.187	-200.000	0.020	-0.232
-328.172	455.099	-0.108	-0.237
-327.158	123.411	-0.098	0.122
-326.143	800.000	0.083	-0.238
-325.129	17.150	0.228	-0.179
-324.114	462.033	0.124	0.276
-323.099	127.388	0.061	-0.077
-322.085	-200.000	-0.002	-0.106
-321.070	-87.862	-0.206	0.062
-320.056	633.811	-0.099	0.248
-319.041	-158.351	-0.344	-0.020
-318.026	-73.408	-0.034	-0.012
-317.012	-200.000	-0.001	0.232
-315.997	199.572	0.072	-0.109
-314.983	184.258	-0.152	-0.224
-313.968	557.959	0.061	-0.145
-312.953	304.931	0.035	0.065
-311.939	-66.047	0.087	0.034
-310.924	-45.307	-0.066	-0.032
-309.910	-26.410	-0.320	-0.186
-308.895	74.346	-0.150	0.156
-307.880	800.000	-0.061	0.235
-306.866	-185.146	0.081	0.001
-305.851	-16.607	0.332	0.209
-304.837	-100.352	-0.295	0.073
-303.822	-64.477	-0.507	0.204
-302.807	-78.868	0.248	-0.084
-301.793	97.083	-0.037	0.042
-300.778	800.000	-0.064	0.184
-299.764	238.780	-0.228	0.375
-298.749	58.620	0.244	-0.237
-297.735	254.039	0.080	-0.135
-296.720	473.391	0.158	0.354
-295.705	-90.361	0.187	0.054
-294.691	800.000	0.163	0.535
-293.676	372.939	-0.157	0.315
-292.662	-147.489	0.187	-0.016
-291.647	0.073	0.102	-0.072
-290.632	-18.778	-0.395	-0.244
-289.618	800.000	0.073	-0.294
-288.603	-88.653	0.152	-0.045
-287.589	176.736	-0.165	-0.238
-286.574	13.361	0.194	0.149
-285.559	-35.544	0.135	0.073
-284.545	408.397	0.092	-0.192
-283.530	-166.347	0.129	0.005
-282.516	398.359	-0.153	-0.317
-281.501	-63.260	0.156	-0.064
-280.486	800.000	-0.032	-0.104
-279.472	-86.459	-0.140	-0.042
-278.457	-19.567	-0.151	-0.093
-277.443	-36.621	-0.125	-0.067
-276.428	408.131	0.118	0.246
-275.413	-200.000	-0.001	-0.057
-274.399	229.471	0.132	0.213
-273.384	284.551	0.031	-0.056
-272.370	-200.000	-0.019	-0.312
-271.355	-93.446	-0.275	-0.075
-270.340	-33.125	0.031	0.017
-269.326	268.368	-0.170	0.295
-268.311	-79.211	0.090	-0.030
-267.297	-66.550	-0.083	0.033
-266.282	-16.727	-0.074	-0.046
-265.267	-136.941	0.216	-0.024
-264.253	15.645	0.186	-0.145
-263.238	-200.000	-0.004	-0.018
-262.224	800.000	-0.059	0.186
-261.209	-151.155	0.240	0.018
-260.195	76.181	-0.197	0.206
-259.180	398.616	0.112	-0.231
-258.165	253.022	0.146	0.247
-257.151	800.000	-0.077	0.304
-256.136	-200.000	-0.001	0.504
-255.122	208.513	-0.029	-0.045
-254.107	-192.702	0.222	-0.002
-253.092	352.499	0.099	0.195
-252.078	-58.785	-0.252	0.108
-251.063	800.000	0.054	-0.215
-250.049	172.339	-0.225	-0.321
-249.034	116.070	-0.052	-0.063
-248.019	737.104	0.087	0.231
-247.005	-16.869	-0.127	0.079
-245.990	-200.000	-0.001	-0.024
-244.976	-65.434	0.177	0.070
-243.961	-7.655	0.445	-0.297
-242.946	-64.914	0.161	0.064
-241.932	-99.929	0.023	-0.006
-240.917	328.678	0.048	0.092
-239.903	102.586	0.149	-0.172
-238.888	-80.293	0.283	0.094
-237.873	-1.037	-0.055	0.038
-236.859	56.566	0.072	-0.069
-235.844	227.054	-0.084	-0.134
-234.830	-200.000	-0.019	0.228
-233.815	174.755	-0.144	-0.206
-232.800	-200.000	0.008	0.374
-231.786	114.962	0.257	-0.310
-230.771	104.443	0.077	-0.089
-229.757	494.091	-0.105	-0.239
-228.742	-200.000	0.017	-0.240
-227.727	-74.895	0.067	-0.024
-226.713	-153.363	-0.073	-0.005
-225.698	74.449	0.059	-0.061
-224.684	81.631	0.063	-0.068
-223.669	-133.553	0.250	0.031
-222.655	800.000	-0.114	0.339
-221.640	-82.731	-0.178	0.057
-220.625	-91.600	-0.041	-0.012
-219.611	-25.493	0.113	0.066
-218.596	-76.200	-0.295	-0.103
-217.582	457.426	-0.075	-0.165
-216.567	228.743	-0.215	0.346
-215.552	-200.000	-0.027	-0.209
-214.538	463.230	-0.152	-0.335
-213.523	-70.018	0.274	0.103
-212.509	113.711	-0.079	-0.094
-211.494	800.000	0.012	0.049
-210.479	-121.235	0.380	0.063
-209.465	-200.000	0.018	0.172
-208.450	119.594	0.065	0.079
-207.436	366.838	0.107	0.214
-206.421	-200.000	0.015	0.240
-205.406	-49.229	-0.375	-0.177
-204.392	64.537	0.185	-0.185
-203.377	51.210	0.271	0.254
-202.363	74.222	0.166	-0.172
-201.348	12.342	-0.295	-0.225
-200.333	130.425	0.334	0.423
-199.319	-157.820	0.245	-0.014
-198.304	-90.098	-0.080	0.023
-197.290	-140.660	-0.288	0.029
-196.275	-169.945	-0.021	-0.001
-195.260	-90.206	0.490	-0.141
-194.246	-114.091	0.216	0.041
-193.231	-32.290	-0.037	-0.020
-192.217	489.291	0.021	0.046
-191.202	-110.583	0.189	-0.039
-190.187	78.619	-0.065	0.069
-189.173	-65.125	0.200	-0.080
-188.158	13.568	-0.099	0.076
-187.144	-109.224	0.397	0.083
-186.129	107.858	0.052	0.061
-185.114	-200.000	0.005	0.183
-184.100	736.233	-0.052	-0.138
-183.085	-200.000	-0.006	-0.290
-182.071	-200.000	-0.033	0.383
-181.056	-103.717	0.170	0.039
-180.042	90.876	-0.095	-0.105
-179.027	155.730	-0.092	0.125
-178.012	-200.000	-0.032	0.143
-176.998	130.137	-0.239	-0.302
-175.983	-200.000	0.030	0.148
-174.969	-200.000	-0.003	0.015
-173.954	-84.170	0.246	-0.077
-172.939	193.826	0.178	-0.266
-171.925	-200.000	0.004	0.334
-170.910	180.052	-0.070	-0.101
-169.896	140.303	0.186	-0.243
-168.881	-115.557	-0.210	-0.039
-167.866	-168.829	-0.364	0.014
-166.852	-200.000	0.061	-0.293
-165.837	-125.845	-0.395	0.059
-164.823	176.196	-0.137	-0.196
-163.808	-100.396	-0.140	-0.034
-162.793	-111.059	0.077	0.016
-161.779	413.043	0.102	-0.214
-160.764	-200.000	0.024	-0.187
-159.750	187.321	-0.089	-0.131
-158.735	-13.502	-0.057	0.036
-157.720	121.440	0.172	-0.211
-156.706	-143.573	0.302	-0.028
-155.691	-98.277	-0.220	0.056
-154.677	-155.919	0.290	0.018
-153.662	800.000	-0.063	-0.210
-152.647	-35.587	-0.064	0.034
-151.633	-39.273	0.408	-0.211
-150.618	-68.301	-0.342	-0.131
-149.604	123.943	-0.265	0.328
-148.589	-136.495	0.172	-0.020
-147.574	11.771	-0.036	-0.027
-146.560	-45.758	-0.200	-0.097
-145.545	-200.000	0.024	-0.232
-144.531	-69.762	-0.201	0.076
-143.516	176.920	0.082	0.118
-142.502	-61.003	0.254	-0.106
-141.487	221.071	0.116	0.184
-140.472	12.993	0.362	-0.276
-139.458	-81.877	0.240	-0.077
-138.443	-24.062	0.109	0.064
-137.429	-81.888	0.062	-0.020
-136.414	-43.491	-0.208	0.103
-135.399	-200.000	-0.034	-0.349
-134.385	149.096	-0.107	0.142
-133.370	34.024	-0.239	-0.205
-132.356	613.995	-0.015	-0.036
-131.341	-170.026	-0.360	0.013
-130.326	800.000	-0.094	0.311
-129.312	78.077	0.290	0.305
-128.297	502.223	0.165	0.376
-127.283	338.077	0.125	-0.240
-126.268	-24.236	-0.227	0.133
-125.253	-172.516	0.191	0.006
-124.239	29.763	0.140	-0.118
-123.224	800.000	0.064	0.250
-122.210	800.000	0.043	-0.171
-121.195	-13.817	-0.319	-0.203
-120.180	-44.916	-0.243	0.119
-119.166	-53.767	0.142	0.064
-118.151	450.144	0.107	-0.233
-117.137	-62.397	-0.157	-0.064
-116.122	312.766	-0.238	-0.439
-115.107	-55.112	0.501	0.222
-114.093	142.006	-0.176	0.230
-113.078	-200.000	0.007	0.380
-112.064	800.000	0.051	0.190
-111.049	117.187	-0.082	0.100
-110.034	53.250	0.092	-0.087
-109.020	800.000	0.020	0.076
-108.005	-73.550	-0.263	-0.094
-106.991	33.937	0.090	-0.077
-105.976	-200.000	-0.053	0.243
-104.962	-146.491	-0.093	-0.008
-103.947	-68.961	-0.220	-0.083
-102.932	276.325	0.066	0.114
-101.918	-99.709	-0.430	0.106
-100.903	-200.000	0.040	0.185
-99.889	-200.000	0.037	0.527
-98.874	-88.316	-0.104	0.031
-97.859	22.247	-0.222	0.178
-96.845	18.510	-0.115	-0.091
-95.830	94.199	-0.049	0.055
-94.816	41.071	-0.076	-0.067
-93.801	127.005	-0.060	0.075
-92.786	-200.000	0.020	0.199
-91.772	-126.641	0.224	-0.033
-90.757	-22.847	-0.089	0.053
-89.743	-200.000	0.023	-0.325
-88.728	39.215	0.180	-0.158
-87.713	-200.000	-0.010	0.087
-86.699	-31.838	0.165	-0.091
-85.684	-195.805	0.075	-0.001
-84.670	160.368	0.135	0.186
-83.655	684.134	-0.084	-0.215
-82.640	106.762	0.076	-0.089
-81.626	-200.000	0.014	0.074
-80.611	-36.189	-0.161	-0.085
-79.597	-69.264	0.104	-0.039
-78.582	-200.000	0.041	-0.228
-77.567	579.713	-0.189	-0.456
-76.553	-47.887	-0.201	0.096
-75.538	-75.329	0.186	-0.065
-74.524	-49.120	-0.210	-0.099
-73.509	-101.336	-0.193	0.046
-72.494	-190.542	0.436	0.005
-71.480	644.805	0.053	0.134
-70.465	196.770	0.068	-0.102
-69.451	-30.520	-0.269	0.150
-68.436	-135.330	-0.192	0.023
-67.422	2.430	0.272	-0.194
-66.407	-42.132	-0.245	-0.123
-65.392	-32.806	-0.390	-0.213
-64.378	-50.204	0.186	0.086
-63.363	-200.000	-0.011	0.155
-62.349	-46.714	0.235	0.113
-61.334	21.016	-1.077	-0.858
-60.319	91.265	0.449	0.495
-59.305	138.728	-0.608	-0.784
-58.290	182.389	0.740	1.072
-57.276	-200.000	0.206	1.747
-56.261	-200.000	103.310	588.320
-55.246	547.770	1436.529	3377.177
-54.232	187.557	2622.139	3842.590
-53.217	115.547	2145.356	2575.085
-52.203	42.590	1592.890	1423.474
-51.188	34.256	1328.161	1137.351
-50.173	31.147	1286.241	1083.390
-49.159	54.435	1338.342	1265.781
-48.144	55.641	1354.673	1288.313
-47.130	34.359	1310.629	1122.764
-46.115	30.878	1292.842	1087.209
-45.100	30.676	1288.313	1082.182
-44.086	30.570	1285.803	1079.413
-43.071	30.593	1283.756	1077.787
-42.057	30.528	1281.172	1075.200
-41.042	30.561	1279.875	1074.262
-40.027	30.597	1278.325	1073.125
-39.013	30.619	1276.054	1071.304
-37.998	30.531	1274.780	1069.684
-36.984	30.655	1272.851	1068.734
-35.969	30.767	1271.021	1067.799
-34.954	30.677	1269.843	1066.251
-33.940	30.806	1268.174	1065.544
-32.925	30.755	1266.900	1064.142
-31.911	30.775	1265.274	1062.849
-30.896	30.789	1263.756	1061.607
-29.881	30.861	1262.187	1060.657
-28.867	30.729	1261.496	1059.282
-27.852	30.893	1259.956	1058.880
-26.838	30.790	1258.519	1057.046
-25.823	30.732	1257.042	1055.435
-24.809	30.719	1255.868	1054.335
-23.794	30.745	1254.969	1053.685
-22.779	30.757	1253.347	1052.351
-21.765	30.767	1251.962	1051.199
-20.750	30.722	1250.929	1050.036
-19.736	30.666	1249.787	1048.719
-18.721	30.721	1248.103	1047.577
-17.706	30.705	1247.157	1046.648
-16.692	30.602	1245.959	1045.024
-15.677	30.586	1245.113	1044.182
-14.663	30.673	1243.501	1043.280
-13.648	30.555	1242.707	1041.908
-12.633	30.525	1242.310	1041.369
-11.619	30.640	1240.832	1040.729
-10.604	30.735	1239.794	1040.350
-9.590	30.566	1239.430	1039.058
-8.575	30.598	1238.090	1038.075
-7.560	30.646	1237.032	1037.415
-6.546	30.708	1236.356	1037.150
-5.531	30.580	1235.846	1035.966
-4.517	30.621	1234.536	1035.059
-3.502	30.636	1233.785	1034.472
-2.487	30.630	1232.935	1033.685
-1.473	30.608	1228.788	1030.045
-0.458	29.184	1214.016	1009.818
0.556	24.498	1196.824	971.977
1.571	20.880	1202.314	956.525
2.586	20.063	1217.042	963.615
3.600	19.612	1206.146	952.419
4.615	15.266	1136.572	874.772
5.629	7.865	1065.626	783.760
6.644	4.984	1046.840	755.924
7.659	4.828	1044.299	753.265
8.673	4.743	1043.565	752.260
9.688	4.726	1041.960	750.954
10.702	4.939	1039.959	750.474
11.717	8.947	1045.454	773.741
12.731	15.633	1054.622	812.898
13.746	18.572	1057.636	829.383
14.761	18.029	1057.238	826.372
15.775	17.077	1055.048	819.990
16.790	16.048	1052.617	813.067
17.804	15.347	1050.744	808.172
18.819	15.110	1050.126	806.483
19.834	14.708	1049.559	804.043
20.848	14.448	1048.441	801.864
21.863	14.274	1047.470	800.217
22.877	14.129	1046.671	798.837
23.892	14.109	1046.022	798.177
24.907	14.216	1045.143	797.947
25.921	14.088	1044.388	796.685
26.936	14.283	1042.566	796.158
27.950	14.206	1041.643	795.013
28.965	14.256	1040.346	794.193
29.980	14.528	1038.189	793.771
30.994	14.409	1037.470	792.587
32.009	14.411	1036.638	791.887
33.023	14.393	1035.374	790.769
34.038	14.410	1034.280	789.943
35.053	14.305	1033.567	788.832
36.067	14.282	1032.777	788.051
37.082	14.401	1031.663	787.692
38.096	14.376	1031.026	787.020
39.111	14.243	1030.540	785.951
40.126	14.188	1029.190	784.592
41.140	14.116	1028.201	783.429
42.155	13.956	1027.084	781.754
43.169	14.039	1025.652	780.989
44.184	14.025	1025.145	780.466
45.199	13.886	1024.252	779.063
46.213	14.186	1022.650	779.180
47.228	14.306	1021.786	779.018
48.242	14.147	1020.776	777.437
49.257	14.295	1019.678	777.222
50.271	14.385	1018.809	776.909
51.286	14.209	1018.548	775.819
52.301	14.318	1016.688	774.841
53.315	14.142	1016.498	773.808
54.330	14.247	1014.835	772.962
55.344	14.144	1013.962	771.752
56.359	14.128	1013.482	771.243
57.374	14.099	1012.695	770.441
58.388	14.141	1011.700	769.813
59.403	14.009	1011.098	768.676
60.417	14.022	1010.116	767.923
61.432	13.993	1009.512	767.259
62.447	13.934	1008.654	766.269
63.461	13.852	1007.798	765.173
64.476	13.900	1007.079	764.782
65.490	13.951	1005.835	764.001
66.505	14.002	1004.957	763.503
67.520	14.016	1004.594	763.220
68.534	14.003	1003.954	762.607
69.549	13.994	1003.377	762.064
70.563	14.007	1002.660	761.507
71.578	13.919	1001.662	760.280
72.593	13.800	1001.491	759.539
73.607	13.885	1000.286	758.947
74.622	13.953	999.657	758.712
75.636	13.776	999.228	757.515
76.651	13.873	998.569	757.389
77.666	13.806	997.913	756.520
78.680	13.842	997.398	756.222
79.695	13.947	996.549	755.994
80.709	13.892	996.145	755.370
81.724	13.940	995.708	755.188
82.739	14.158	994.508	755.200
83.753	14.145	993.968	754.667
84.768	14.391	992.678	754.733
85.782	14.474	992.075	754.584
86.797	14.331	991.277	753.263
87.812	14.212	990.405	751.997
88.826	14.356	989.462	751.862
89.841	14.217	989.037	750.847
90.855	14.483	987.522	750.829
91.870	14.384	986.942	749.877
92.884	14.480	985.817	749.389
93.899	14.464	984.981	748.612
94.914	14.539	984.252	748.330
95.928	14.483	983.581	747.504
96.943	14.437	982.477	746.393
97.957	14.386	981.989	745.726
98.972	14.380	980.764	744.701
99.987	14.343	980.298	744.116
101.001	14.408	979.423	743.678
102.016	14.262	978.892	742.556
103.030	14.338	978.217	742.317
104.045	14.377	977.217	741.666
105.060	14.407	975.689	740.574
106.074	14.096	975.754	739.176
107.089	14.120	974.091	737.960
108.103	13.975	973.586	736.870
109.118	14.174	971.887	736.396
110.133	14.002	971.811	735.513
111.147	14.083	970.737	734.995
112.162	14.077	969.961	734.313
113.176	14.270	969.239	734.554
114.191	14.193	968.516	733.602
115.206	14.123	968.285	733.055
116.220	14.132	967.049	732.092
117.235	14.238	966.023	731.717
118.249	14.168	965.370	730.851
119.264	14.097	964.700	729.969
120.279	14.245	963.596	729.715
121.293	14.173	962.937	728.837
122.308	13.983	962.300	727.460
123.322	14.004	961.034	726.531
124.337	13.999	960.282	725.873
125.352	14.133	959.140	725.532
126.366	14.055	958.255	724.456
127.381	14.086	957.625	724.051
128.395	14.036	956.374	722.826
129.410	14.024	955.577	722.105
130.424	14.048	954.922	721.653
131.439	14.143	953.910	721.237
132.454	14.224	953.282	721.047
133.468	14.187	952.532	720.257
134.483	14.174	951.834	719.608
135.497	14.280	950.736	719.175
136.512	14.137	950.050	717.975
137.527	14.256	949.479	717.990
138.541	14.338	948.297	717.386
139.556	14.233	947.824	716.513
140.570	14.323	947.042	716.245
141.585	14.334	946.475	715.800
142.600	14.491	945.806	715.905
143.614	14.487	945.046	715.252
144.629	14.453	944.380	714.537
145.643	14.518	943.100	713.785
146.658	14.444	942.006	712.575
147.673	14.313	940.939	711.148
148.687	14.214	940.676	710.463
149.702	14.353	939.417	710.042
150.716	14.256	938.658	708.992
151.731	14.344	937.930	708.756
152.746	14.340	937.222	708.140
153.760	14.324	936.953	707.806
154.775	14.344	936.168	707.236
155.789	14.439	935.414	707.007
156.804	14.391	935.062	706.475
157.819	14.504	934.154	706.203
158.833	14.629	933.798	706.402
159.848	14.606	933.028	705.657
160.862	14.496	931.811	704.212
161.877	14.345	931.048	702.935
162.892	14.266	930.142	701.856
163.906	14.267	929.213	701.099
164.921	14.304	928.274	700.484
165.935	14.318	927.957	700.239
166.950	14.447	926.941	699.952
167.964	14.477	925.704	699.084
168.979	14.485	924.900	698.449
169.994	14.543	923.944	697.906
171.008	14.470	923.622	697.297
172.023	14.550	922.711	696.882
173.037	14.544	922.349	696.519
174.052	14.475	921.591	695.600
175.067	14.506	920.673	694.973
176.081	14.461	920.029	694.239
177.096	14.451	919.596	693.809
178.110	14.552	919.150	693.833
179.125	14.518	918.278	692.971
180.140	14.575	917.941	692.893
181.154	14.732	916.933	692.719
182.169	14.708	916.967	692.584
183.183	14.779	916.531	692.490
184.198	14.727	915.772	691.638
185.213	14.633	915.079	690.664
186.227	14.806	914.351	690.768
187.242	14.764	914.108	690.353
188.256	14.797	913.057	689.633
189.271	14.877	912.207	689.258
190.286	14.728	911.362	687.947
191.300	14.446	910.791	686.296
192.315	14.399	910.035	685.471
193.329	14.393	909.842	685.239
194.344	14.514	908.898	684.965
195.359	14.641	908.748	685.314
196.373	14.825	907.592	685.136
197.388	14.901	907.416	685.254
198.402	15.056	906.687	685.275
199.417	14.956	906.474	684.645
200.432	15.075	905.763	684.535
201.446	14.965	905.590	683.894
202.461	15.117	904.534	683.656
203.475	14.957	904.217	682.701
204.490	14.930	903.510	682.000
205.504	14.814	902.760	680.900
206.519	14.935	901.629	680.479
207.534	14.829	901.388	679.805
208.548	14.935	900.533	679.531
209.563	14.943	899.990	679.091
210.577	15.134	899.066	679.109
211.592	15.073	898.127	678.095
212.607	15.163	897.949	678.264
213.621	15.165	897.123	677.590
214.636	15.143	896.662	677.093
215.650	15.167	895.811	676.488
216.665	15.148	895.533	676.139
217.680	15.159	894.646	675.452
218.694	15.217	894.358	675.413
219.709	15.152	893.438	674.396
220.723	15.170	892.491	673.691
221.738	15.281	891.598	673.406
222.753	15.256	891.560	673.216
223.767	15.287	891.236	673.035
224.782	15.265	890.600	672.406
225.796	15.516	889.507	672.531
226.811	15.436	888.917	671.703
227.826	15.267	888.353	670.542
228.840	15.271	887.262	669.673
229.855	15.283	886.719	669.255
230.869	15.163	886.353	668.439
231.884	15.269	885.354	668.050
232.899	15.113	884.963	667.073
233.913	15.248	883.747	666.633
234.928	15.146	883.511	665.991
235.942	15.201	883.123	665.858
236.957	15.188	882.731	665.454
237.972	15.270	881.702	664.943
238.986	15.257	881.013	664.312
240.001	15.219	880.564	663.766
241.015	15.284	880.015	663.551
242.030	15.369	879.437	663.391
243.045	15.495	878.286	662.961
244.059	15.487	878.234	662.836
245.074	15.303	877.640	661.602
246.088	15.407	877.083	661.531
247.103	15.480	876.631	661.419
248.117	15.599	875.920	661.294
249.132	15.678	875.674	661.360
250.147	15.794	874.695	661.018
251.161	15.800	874.122	660.552
252.176	15.783	873.565	660.004
253.190	15.821	873.063	659.714
254.205	16.005	872.284	659.791
255.220	15.969	871.460	658.966
256.234	15.962	870.908	658.462
257.249	15.917	870.477	657.902
258.263	15.891	869.566	657.053
259.278	15.867	869.181	656.613
260.293	16.126	868.179	656.807
261.307	15.957	867.934	655.905
262.322	15.874	867.259	655.016
263.336	16.037	866.381	654.925
264.351	16.029	865.873	654.452
265.366	15.976	865.238	653.710
266.380	16.092	864.399	653.468
267.395	15.994	863.846	652.613
268.409	16.082	863.098	652.330
269.424	16.095	862.280	651.704
270.439	15.985	861.828	650.879
271.453	16.114	860.825	650.564
272.468	16.031	860.780	650.153
273.482	16.010	860.255	649.615
274.497	15.901	859.368	648.468
275.512	16.180	858.643	648.936
276.526	16.163	858.322	648.574
277.541	16.042	857.979	647.791
278.555	16.142	857.291	647.597
279.570	16.215	856.661	647.345
280.585	16.230	856.005	646.848
281.599	16.230	855.141	646.139
282.614	16.075	854.737	645.184
283.628	16.164	854.098	644.986
284.643	16.264	853.375	644.764
285.657	16.252	852.630	644.098
286.672	16.222	852.005	643.453
287.687	16.122	851.632	642.734
288.701	16.378	851.124	643.268
289.716	16.333	850.760	642.768
290.730	16.280	849.932	641.883
291.745	16.326	849.304	641.525
292.760	16.423	848.724	641.397
293.774	16.574	848.120	641.459
294.789	16.442	847.631	640.532
295.803	16.369	846.726	639.516
296.818	16.422	846.059	639.156
297.833	16.324	845.369	638.207
298.847	16.429	844.822	638.134
299.862	16.364	844.426	637.531
300.876	16.453	844.181	637.627
301.891	16.544	843.263	637.219
302.906	16.639	842.815	637.185
303.920	16.609	842.778	636.985
304.935	16.686	841.986	636.619
305.949	16.801	840.819	636.113
306.964	16.545	840.732	635.029
307.979	16.670	839.825	634.758
308.993	16.724	839.689	634.800
310.008	16.774	838.827	634.280
311.022	16.567	838.726	633.373
312.037	16.717	837.532	632.978
313.052	16.515	836.988	631.755
314.066	16.568	836.519	631.542
315.081	16.623	836.020	631.316
316.095	16.588	835.320	630.601
317.110	16.574	834.505	629.879
318.125	16.538	834.315	629.545
319.139	16.697	833.955	629.809
320.154	16.578	833.573	629.021
321.168	16.664	832.858	628.747
322.183	16.685	832.337	628.376
323.197	16.549	832.106	627.639
324.212	16.666	831.094	627.256
325.227	16.709	830.267	626.734
326.241	16.678	830.453	626.703
327.256	16.764	829.478	626.233
328.270	16.606	829.221	625.399
329.285	16.647	828.867	625.225
330.300	16.597	827.769	624.158
331.314	16.670	827.389	624.086
332.329	16.789	826.851	624.065
333.343	16.752	826.311	623.465
334.358	16.889	825.978	623.664
335.373	16.847	826.025	623.488
336.387	17.037	825.106	623.437
337.402	16.961	825.374	623.306
338.416	16.962	824.979	622.956
339.431	17.153	824.306	623.094
340.446	17.164	823.838	622.724
341.460	17.074	823.824	622.331
342.475	17.160	823.103	622.044
343.489	17.256	822.339	621.764
344.504	17.220	822.320	621.561
345.519	17.211	821.909	621.162
346.533	17.163	821.506	620.627
347.548	17.236	820.505	620.082
348.562	17.039	820.053	618.968
349.577	17.102	819.460	618.695
350.592	17.009	819.002	617.957
351.606	17.083	818.356	617.683
352.621	17.068	817.507	616.933
353.635	17.093	816.978	616.571
354.650	17.160	816.280	616.234
355.665	17.290	815.931	616.386
356.679	17.181	815.317	615.472
357.694	17.190	814.530	614.856
358.708	17.278	813.988	614.710
359.723	17.163	813.736	614.052
360.738	17.208	813.102	613.680
361.752	17.213	812.669	613.320
362.767	17.348	811.426	612.811
363.781	17.416	811.465	613.031
364.796	17.339	811.335	612.603
365.810	17.510	810.947	612.871
366.825	17.622	810.022	612.522
367.840	17.601	809.961	612.344
368.854	17.408	809.776	611.455
369.869	17.422	808.849	610.755
370.883	17.674	808.183	611.099
371.898	17.448	808.187	610.238
372.913	17.559	807.705	610.219
373.927	17.649	807.219	610.117
374.942	17.550	806.772	609.371
375.956	17.747	806.450	609.780
376.971	17.668	806.107	609.187
377.986	17.834	805.474	609.244
379.000	17.738	804.923	608.431
380.015	17.761	804.592	608.211
381.029	17.871	803.889	608.017
382.044	17.868	803.267	607.481
383.059	17.877	802.742	607.062
384.073	17.692	802.312	606.027
385.088	17.690	801.491	605.345
386.102	17.628	801.022	604.718
387.117	17.597	800.694	604.306
388.132	17.734	799.888	604.130
389.146	17.804	799.413	603.966
390.161	17.792	799.076	603.616
391.175	17.758	798.590	603.075
392.190	17.748	798.157	602.661
393.205	17.840	797.685	602.573
394.219	17.726	797.408	601.910
395.234	17.708	796.846	601.368
396.248	17.658	796.410	600.809
397.263	17.770	795.594	600.537
398.278	17.591	795.742	599.965
399.292	17.825	795.032	600.197
400.307	17.729	794.669	599.534
401.321	17.725	794.346	599.221
402.336	17.744	793.753	598.789
403.350	17.939	793.128	598.950
404.365	18.064	792.694	599.006
405.380	17.845	792.467	598.013
406.394	18.148	791.916	598.606
407.409	18.177	791.587	598.405
408.423	18.147	791.345	598.065
409.438	18.265	790.760	597.984
410.453	18.181	790.507	597.445
411.467	18.169	790.065	597.015
412.482	18.200	789.847	596.908
413.496	18.167	789.596	596.549
414.511	18.493	788.722	596.971
415.526	18.386	788.400	596.303
416.540	18.385	787.774	595.772
417.555	18.362	787.387	595.349
418.569	18.398	786.996	595.124
419.584	18.280	786.491	594.281
420.599	18.502	786.204	594.780
421.613	157.609	1370.383	1795.751
422.628	136.238	1455.531	1795.852
