DTS Sentinel unit serial number:	SN413079Multiplexer serial number:	ORYXHardware model number:	OX4-SRSoftware version number:	ORYX F/W v4.00 Oryx Data Collector v3.7.2.0data status	okinstallation	princeton_trtdifferential loss correction	single-endedforward channel	channel 1reverse channel	N/Adate	2019/09/13time	06:46:35forward acquisition time	60.00reverse acquisition time	0.00gamma	496.2192k internal	0.2336k external	0.2336temperature offset calibration	1.0157default loss term (dB/km)	0.3790temperature slope calibration	1.0000multiplexer offset coefficient	1.0000multiplexer slope coefficient	1.0000fibre end	0.00T internal ref (°C)	26.00T ext. ref 1 (°C)	4.10T ext. ref 2 (°C)	20.65length (m)	temperature (°C)	Stokes	anti-Stokes-747.200	440.327	-0.075	-0.164
-746.185	-181.194	-0.274	0.005
-745.171	9.379	-0.124	0.094
-744.156	165.680	-0.110	0.156
-743.142	294.736	0.099	0.181
-742.127	-107.585	-0.447	-0.098
-741.112	-79.875	0.275	0.093
-740.098	-154.751	-0.395	-0.026
-739.083	-16.330	-0.285	0.181
-738.069	29.223	0.098	-0.084
-737.054	-69.514	0.338	0.130
-736.039	-114.720	-0.416	0.080
-735.025	59.367	0.195	0.193
-734.010	-200.000	-0.033	0.187
-732.996	800.000	-0.086	-0.307
-731.981	549.111	-0.065	0.157
-730.966	-200.000	0.034	-0.428
-729.952	-126.212	0.158	0.024
-728.937	577.318	-0.058	-0.142
-727.923	800.000	0.141	-0.404
-726.908	153.199	-0.039	-0.054
-725.894	140.725	0.056	0.075
-724.879	31.219	0.216	-0.186
-723.864	-200.000	0.011	-0.234
-722.850	-188.608	-0.097	0.001
-721.835	-200.000	0.009	0.154
-720.821	19.088	0.192	0.154
-719.806	800.000	0.121	-0.347
-718.791	800.000	0.135	-0.486
-717.777	-200.000	0.024	-0.290
-716.762	-40.525	-0.332	-0.173
-715.748	42.401	-0.016	0.015
-714.733	610.848	0.033	-0.082
-713.718	-104.430	-0.127	-0.029
-712.704	-200.000	-0.063	-0.324
-711.689	-200.000	-0.033	0.179
-710.675	14.319	-0.102	-0.080
-709.660	225.857	-0.077	-0.124
-708.645	-200.000	0.048	-0.224
-707.631	-70.968	0.146	-0.055
-706.616	123.854	0.061	0.076
-705.602	-52.406	0.212	-0.098
-704.587	-200.000	-0.047	-0.360
-703.572	-63.927	0.129	-0.053
-702.558	-36.732	-0.087	0.047
-701.543	387.744	0.028	-0.059
-700.529	57.318	-0.201	-0.197
-699.514	93.782	0.145	-0.164
-698.499	-35.771	-0.135	0.073
-697.485	-200.000	0.015	0.260
-696.470	-51.480	-0.070	-0.033
-695.456	-200.000	0.050	-0.244
-694.441	800.000	0.071	-0.199
-693.426	-133.838	-0.246	0.031
-692.412	-115.820	0.075	-0.014
-691.397	-114.120	0.093	0.018
-690.383	-200.000	0.041	-0.383
-689.368	-88.660	-0.186	0.055
-688.354	-200.000	-0.049	-0.301
-687.339	800.000	-0.021	-0.085
-686.324	12.860	-0.099	0.076
-685.310	64.437	0.102	-0.103
-684.295	-69.763	0.295	-0.113
-683.281	427.256	0.068	0.147
-682.266	-200.000	0.043	-0.246
-681.251	800.000	0.027	-0.095
-680.237	-200.000	-0.035	-0.404
-679.222	-200.000	-0.021	0.253
-678.208	-7.493	0.043	0.029
-677.193	416.392	-0.024	0.051
-676.178	235.412	-0.102	0.168
-675.164	-200.000	-0.057	-0.366
-674.149	178.509	0.096	-0.141
-673.135	-80.326	0.171	-0.057
-672.120	-200.000	0.003	-0.037
-671.105	-200.000	0.023	0.317
-670.091	346.824	-0.054	-0.106
-669.076	800.000	0.080	-0.240
-668.062	-62.052	0.109	-0.046
-667.047	-49.766	0.399	0.190
-666.032	-16.146	-0.326	0.208
-665.018	582.902	-0.142	0.349
-664.003	-176.210	-0.125	0.003
-662.989	-200.000	0.042	-0.483
-661.974	-200.000	-0.005	-0.082
-660.959	-200.000	-0.067	-0.379
-659.945	-82.752	-0.181	-0.059
-658.930	-171.642	-0.050	-0.002
-657.916	-141.002	-0.194	-0.020
-656.901	20.120	-0.044	0.036
-655.886	150.961	-0.100	0.137
-654.872	5.533	-0.447	0.331
-653.857	800.000	-0.017	0.074
-652.843	-13.052	-0.241	0.157
-651.828	800.000	0.048	0.167
-650.814	-53.643	-0.342	0.156
-649.799	800.000	-0.150	-0.540
-648.784	-138.723	-0.266	0.029
-647.770	-36.313	-0.201	-0.109
-646.755	349.770	-0.077	0.152
-645.741	30.423	-0.105	0.090
-644.726	-60.358	0.224	0.095
-643.711	75.617	-0.132	0.140
-642.697	-29.006	0.337	0.194
-641.682	589.336	0.091	0.225
-640.668	11.767	0.251	-0.192
-639.653	132.617	0.136	-0.175
-638.638	-200.000	0.006	-0.051
-637.624	82.083	-0.161	0.175
-636.609	159.822	-0.133	0.185
-635.595	-67.984	0.282	-0.110
-634.580	756.263	-0.180	-0.488
-633.565	315.952	0.032	0.061
-632.551	-27.593	0.263	0.153
-631.536	800.000	-0.055	0.171
-630.522	25.809	0.165	-0.138
-629.507	800.000	0.058	-0.196
-628.492	130.985	0.181	-0.232
-627.478	-93.189	0.182	-0.051
-626.463	-180.521	-0.238	-0.005
-625.449	-69.837	-0.182	-0.069
-624.434	800.000	-0.075	-0.252
-623.419	68.187	0.244	0.250
-622.405	310.322	-0.109	-0.205
-621.390	200.064	0.129	0.198
-620.376	238.990	-0.019	0.032
-619.361	51.327	0.141	-0.134
-618.346	282.655	-0.085	0.152
-617.332	-200.000	0.014	-0.139
-616.317	-140.569	-0.162	-0.017
-615.303	-200.000	0.004	-0.229
-614.288	434.477	-0.017	-0.036
-613.273	397.106	0.055	0.114
-612.259	-200.000	-0.027	0.134
-611.244	139.499	-0.081	0.107
-610.230	83.298	0.161	0.175
-609.215	581.312	-0.077	0.188
-608.201	76.741	0.125	-0.133
-607.186	-122.207	-0.095	0.015
-606.171	719.051	0.055	0.146
-605.157	800.000	-0.074	-0.249
-604.142	61.015	0.059	-0.058
-603.128	-75.936	-0.161	0.057
-602.113	44.012	-0.124	-0.113
-601.098	368.748	0.085	0.172
-600.084	-17.467	-0.364	-0.229
-599.069	-167.102	0.171	-0.007
-598.055	-84.124	0.359	0.114
-597.040	-68.466	0.253	0.098
-596.025	696.576	-0.101	0.265
-595.011	-200.000	-0.006	0.129
-593.996	-200.000	-0.021	-0.194
-592.982	-200.000	0.009	-0.079
-591.967	43.624	0.034	0.031
-590.952	70.461	0.137	-0.141
-589.938	565.123	-0.069	-0.167
-588.923	246.461	0.131	0.220
-587.909	70.073	-0.149	0.153
-586.894	43.842	-0.093	-0.085
-585.879	-59.277	-0.150	-0.065
-584.865	-151.106	-0.275	0.021
-583.850	-200.000	-0.007	0.159
-582.836	152.139	-0.052	-0.071
-581.821	193.160	-0.074	-0.112
-580.806	800.000	-0.033	-0.104
-579.792	-57.822	0.282	0.123
-578.777	502.474	-0.058	0.133
-577.763	800.000	-0.088	0.380
-576.748	-67.765	0.252	0.098
-575.733	101.676	-0.134	-0.156
-574.719	147.979	-0.024	-0.032
-573.704	-9.592	-0.216	0.144
-572.690	59.558	0.241	-0.237
-571.675	-22.946	-0.301	0.181
-570.661	-113.054	0.296	0.058
-569.646	-121.097	-0.355	0.059
-568.631	-188.797	0.145	-0.002
-567.617	555.561	-0.052	-0.125
-566.602	-200.000	-0.011	0.210
-565.588	-200.000	-0.009	0.043
-564.573	-124.058	0.260	0.041
-563.558	-99.015	0.207	-0.052
-562.544	-84.181	0.275	0.087
-561.529	172.914	-0.207	0.297
-560.515	-200.000	-0.056	-0.251
-559.500	13.736	0.272	-0.211
-558.485	113.132	-0.144	-0.174
-557.471	-200.000	-0.034	-0.213
-556.456	-200.000	-0.003	0.114
-555.442	18.269	0.226	0.180
-554.427	-153.417	-0.195	-0.013
-553.412	627.841	0.112	-0.283
-552.398	-22.842	0.435	-0.262
-551.383	800.000	-0.050	-0.175
-550.369	-8.931	0.052	-0.035
-549.354	506.508	0.072	-0.166
-548.339	-21.978	0.177	0.107
-547.325	800.000	-0.033	0.126
-546.310	-0.156	0.278	0.197
-545.296	275.076	0.242	0.427
-544.281	-32.792	0.137	0.076
-543.266	-138.747	-0.320	0.035
-542.252	-200.000	0.075	0.355
-541.237	-200.000	0.015	-0.230
-540.223	-153.451	0.189	0.013
-539.208	-71.276	-0.092	0.034
-538.193	109.331	0.105	-0.125
-537.179	317.194	-0.182	0.344
-536.164	139.475	0.357	-0.468
-535.150	126.961	-0.049	-0.062
-534.135	-25.744	-0.206	0.121
-533.121	118.317	0.113	-0.139
-532.106	174.459	-0.211	-0.304
-531.091	-11.145	0.311	0.204
-530.077	160.885	0.113	0.157
-529.062	54.555	-0.195	0.187
-528.048	-91.674	0.029	-0.008
-527.033	257.634	0.092	-0.158
-526.018	-14.238	-0.170	0.109
-525.004	-200.000	-0.033	0.178
-523.989	-6.203	0.116	-0.079
-522.975	179.938	0.188	-0.275
-521.960	588.034	0.063	-0.154
-520.945	-122.153	0.127	0.021
-519.931	212.318	-0.213	-0.334
-518.916	-200.000	-0.005	0.142
-517.902	-0.659	0.066	0.047
-516.887	152.596	-0.072	-0.097
-515.872	38.280	-0.120	-0.106
-514.858	-15.233	-0.417	-0.266
-513.843	72.009	0.119	-0.123
-512.829	800.000	0.032	-0.134
-511.814	-200.000	-0.000	-0.418
-510.799	-119.085	-0.171	-0.030
-509.785	800.000	-0.088	-0.249
-508.770	-70.066	0.293	0.111
-507.756	16.311	-0.128	0.100
-506.741	265.751	0.270	-0.468
-505.726	9.959	0.351	-0.265
-504.712	106.552	0.156	-0.184
-503.697	-27.027	0.247	-0.143
-502.683	100.422	0.114	0.132
-501.668	-52.891	-0.081	0.037
-500.653	-200.000	0.004	0.195
-499.639	-96.001	-0.137	0.036
-498.624	-55.644	0.303	-0.135
-497.610	-27.282	0.075	0.043
-496.595	110.886	0.250	-0.299
-495.581	-60.258	-0.311	-0.132
-494.566	8.299	-0.117	0.087
-493.551	188.156	-0.087	0.129
-492.537	-200.000	0.001	-0.014
-491.522	-30.687	0.210	0.118
-490.508	-146.066	0.133	0.012
-489.493	-200.000	0.023	0.314
-488.478	-200.000	-0.033	0.153
-487.464	27.505	-0.082	0.069
-486.449	-200.000	-0.044	0.355
-485.435	-94.667	-0.414	0.112
-484.420	94.101	0.101	0.114
-483.405	43.395	0.145	0.131
-482.391	800.000	0.005	-0.014
-481.376	-200.000	0.035	0.335
-480.362	-200.000	-0.019	-0.491
-479.347	-200.000	0.004	-0.037
-478.332	-73.275	0.244	-0.089
-477.318	328.009	0.131	-0.251
-476.303	279.079	-0.021	0.037
-475.289	125.372	-0.279	-0.350
-474.274	-93.075	-0.184	-0.051
-473.259	560.422	0.029	-0.070
-472.245	75.345	-0.241	-0.253
-471.230	-48.335	-0.219	-0.105
-470.216	-200.000	-0.011	0.179
-469.201	-200.000	-0.002	-0.197
-468.186	-75.457	-0.319	-0.113
-467.172	122.347	-0.214	0.265
-466.157	7.082	-0.131	0.097
-465.143	-143.564	-0.248	-0.023
-464.128	-161.147	-0.052	-0.003
-463.113	-173.505	-0.188	-0.006
-462.099	-200.000	0.013	0.441
-461.084	-44.114	0.337	0.168
-460.070	-165.416	-0.157	-0.007
-459.055	396.591	0.089	0.184
-458.040	-14.223	-0.214	0.137
-457.026	268.093	-0.122	0.212
-456.011	-67.953	-0.035	-0.013
-454.997	-81.074	0.162	-0.053
-453.982	-200.000	0.049	-0.289
-452.968	-40.514	0.156	-0.080
-451.953	-200.000	0.004	-0.065
-450.938	216.637	-0.069	-0.109
-449.924	-131.507	-0.298	-0.039
-448.909	38.461	0.216	-0.191
-447.895	318.441	0.089	-0.168
-446.880	0.237	0.317	0.225
-445.865	106.253	-0.305	0.359
-444.851	56.500	0.070	0.067
-443.836	-102.193	0.279	-0.067
-442.822	-70.504	-0.328	-0.123
-441.807	-86.147	0.080	0.024
-440.792	-200.000	-0.025	-0.460
-439.778	-135.775	0.272	-0.032
-438.763	-125.593	0.146	0.022
-437.749	800.000	-0.032	0.099
-436.734	800.000	-0.020	0.087
-435.719	234.322	-0.022	-0.037
-434.705	253.569	0.138	0.235
-433.690	800.000	-0.085	-0.235
-432.676	125.966	0.030	-0.037
-431.661	274.249	-0.252	-0.442
-430.646	6.975	0.230	0.170
-429.632	3.436	0.160	-0.116
-428.617	-200.000	0.010	0.116
-427.603	371.575	0.180	-0.363
-426.588	-200.000	0.025	0.139
-425.573	800.000	-0.036	0.120
-424.559	-21.340	0.298	0.181
-423.544	-17.518	-0.243	-0.152
-422.530	522.896	0.078	-0.183
-421.515	504.842	-0.014	0.033
-420.500	800.000	0.085	0.243
-419.486	222.013	-0.069	-0.110
-418.471	202.788	0.194	-0.297
-417.457	17.500	-0.271	-0.213
-416.442	54.580	0.193	-0.185
-415.428	-200.000	0.010	-0.294
-414.413	9.639	-0.202	-0.152
-413.398	-98.190	0.016	0.004
-412.384	-67.510	0.208	-0.081
-411.369	-200.000	-0.003	-0.152
-410.355	-200.000	0.028	-0.177
-409.340	-165.330	-0.096	-0.004
-408.325	-200.000	0.055	0.341
-407.311	698.477	0.090	0.234
-406.296	-23.270	-0.260	-0.155
-405.282	-88.080	-0.356	0.106
-404.267	-200.000	0.028	0.240
-403.252	308.428	0.082	0.152
-402.238	126.915	0.156	0.196
-401.223	-176.774	-0.283	-0.007
-400.209	-49.399	-0.080	0.038
-399.194	-136.836	-0.142	0.016
-398.179	123.195	-0.109	0.135
-397.165	-50.477	-0.333	0.156
-396.150	-200.000	0.015	-0.246
-395.136	78.552	0.100	-0.106
-394.121	361.257	-0.108	-0.215
-393.106	-200.000	0.020	0.148
-392.092	180.988	-0.121	-0.176
-391.077	-200.000	0.030	0.144
-390.063	-40.550	-0.434	-0.223
-389.048	-88.514	-0.399	-0.118
-388.033	353.633	0.051	0.100
-387.019	-64.326	-0.089	0.036
-386.004	225.525	0.152	0.244
-384.990	266.490	-0.028	-0.048
-383.975	163.060	-0.314	0.436
-382.960	-72.861	0.176	-0.064
-381.946	800.000	0.048	-0.155
-380.931	75.988	-0.011	-0.012
-379.917	800.000	0.022	0.062
-378.902	-185.071	0.344	0.005
-377.888	-160.604	-0.211	0.011
-376.873	77.193	0.191	0.201
-375.858	-200.000	0.002	-0.217
-374.844	236.698	-0.077	0.125
-373.829	-127.223	-0.150	0.022
-372.815	136.778	0.147	0.190
-371.800	526.637	-0.111	0.258
-370.785	165.219	0.084	-0.118
-369.771	-6.113	-0.068	-0.046
-368.756	573.369	-0.044	0.107
-367.742	-123.545	-0.029	0.005
-366.727	-59.206	-0.114	-0.049
-365.712	9.254	-0.015	0.011
-364.698	-125.557	0.320	-0.048
-363.683	-62.349	-0.321	0.132
-362.669	800.000	-0.007	0.027
-361.654	-85.264	-0.226	-0.070
-360.639	181.325	-0.184	0.268
-359.625	386.253	0.173	0.353
-358.610	-200.000	-0.005	-0.041
-357.596	9.309	-0.239	0.179
-356.581	-73.443	-0.259	0.094
-355.566	-134.143	-0.409	-0.050
-354.552	-119.267	0.265	-0.046
-353.537	24.179	-0.127	-0.104
-352.523	95.861	-0.027	-0.031
-351.508	-200.000	0.050	-0.286
-350.493	171.252	-0.147	-0.209
-349.479	-84.606	0.114	-0.035
-348.464	-161.105	-0.135	-0.007
-347.450	800.000	-0.115	-0.448
-346.435	800.000	-0.034	-0.108
-345.420	426.907	0.156	-0.333
-344.406	-200.000	-0.039	-0.241
-343.391	-55.633	0.307	-0.136
-342.377	83.566	0.053	-0.057
-341.362	800.000	-0.013	0.047
-340.348	-200.000	-0.013	0.105
-339.333	-151.981	-0.206	0.015
-338.318	-200.000	-0.063	0.278
-337.304	159.865	-0.157	0.216
-336.289	-200.000	0.033	0.202
-335.275	800.000	0.011	0.048
-334.260	-200.000	0.001	-0.047
-333.245	800.000	-0.043	-0.181
-332.231	-200.000	0.093	-0.431
-331.216	800.000	0.075	0.224
-330.202	87.377	0.137	0.150
-329.187	-21.293	-0.092	-0.055
-328.172	-17.285	0.173	0.108
-327.158	-113.128	0.322	-0.063
-326.143	-123.203	-0.235	0.037
-325.129	-51.357	0.279	0.129
-324.114	139.169	-0.130	0.169
-323.099	-93.173	0.107	0.029
-322.085	800.000	-0.095	0.322
-321.070	-28.766	0.151	-0.086
-320.056	55.369	0.340	-0.325
-319.041	-123.695	-0.577	-0.090
-318.026	-112.324	0.177	-0.035
-317.012	145.488	0.124	-0.165
-315.997	-97.206	0.094	0.024
-314.983	-24.237	-0.066	-0.039
-313.968	-28.726	-0.232	0.132
-312.953	-52.341	-0.172	-0.079
-311.939	-152.449	-0.266	-0.019
-310.924	800.000	0.088	0.354
-309.910	-88.540	-0.163	0.048
-308.895	800.000	-0.079	-0.238
-307.880	-39.275	0.140	-0.073
-306.866	-200.000	-0.031	0.193
-305.851	-110.867	0.298	-0.061
-304.837	-19.947	0.015	-0.009
-303.822	-87.491	-0.192	-0.057
-302.807	48.360	0.077	-0.071
-301.793	800.000	-0.044	-0.187
-300.778	0.900	-0.210	0.149
-299.764	-88.356	-0.178	-0.053
-298.749	-200.000	-0.018	-0.419
-297.735	-200.000	-0.009	0.187
-296.720	-64.676	-0.249	-0.100
-295.705	-200.000	-0.040	0.312
-294.691	83.913	-0.223	-0.240
-293.676	452.643	-0.127	-0.277
-292.662	156.098	0.157	0.213
-291.647	176.524	0.166	-0.238
-290.632	800.000	-0.056	0.219
-289.618	-179.517	0.173	-0.004
-288.603	-90.148	-0.171	-0.049
-287.589	127.748	0.167	0.209
-286.574	210.701	0.203	-0.314
-285.559	10.299	0.112	0.084
-284.545	-98.414	0.202	0.051
-283.530	321.568	0.118	-0.221
-282.516	-37.871	0.165	-0.087
-281.501	6.994	0.271	-0.199
-280.486	-82.397	0.054	0.017
-279.472	800.000	0.053	-0.217
-278.457	84.676	0.279	0.301
-277.443	227.351	0.048	0.076
-276.428	-117.666	-0.225	-0.040
-275.413	-105.433	0.050	-0.011
-274.399	800.000	0.068	-0.277
-273.384	-90.207	-0.143	0.041
-272.370	800.000	-0.049	-0.178
-271.355	-32.463	0.171	0.094
-270.340	-53.589	-0.063	0.028
-269.326	244.362	0.130	-0.215
-268.311	140.903	-0.061	0.080
-267.297	800.000	0.053	0.223
-266.282	44.685	0.063	-0.057
-265.267	-125.231	0.153	0.023
-264.253	128.407	0.265	0.332
-263.238	185.100	0.172	0.251
-262.224	358.074	-0.075	0.147
-261.209	800.000	-0.065	0.209
-260.195	800.000	0.057	0.206
-259.180	800.000	0.112	0.394
-258.165	10.514	-0.142	0.106
-257.151	-200.000	0.008	0.099
-256.136	-122.175	-0.221	-0.036
-255.122	243.630	-0.305	0.505
-254.107	-200.000	-0.063	-0.274
-253.092	-200.000	-0.027	-0.332
-252.078	447.911	-0.052	0.114
-251.063	-21.255	0.089	-0.053
-250.049	297.289	-0.141	0.256
-249.034	-120.812	-0.131	-0.022
-248.019	-200.000	0.013	0.083
-247.005	-200.000	0.011	-0.059
-245.990	-3.443	-0.229	-0.157
-244.976	-48.202	0.152	-0.072
-243.961	-44.724	0.045	0.022
-242.946	-200.000	0.000	0.016
-241.932	-99.707	0.297	0.073
-240.917	207.391	0.032	-0.049
-239.903	-101.958	-0.277	0.066
-238.888	361.715	0.052	-0.103
-237.873	111.698	0.052	0.062
-236.859	-79.869	0.266	-0.088
-235.844	234.613	0.079	0.129
-234.830	366.387	-0.227	-0.450
-233.815	-7.820	-0.157	0.104
-232.800	800.000	-0.051	0.152
-231.786	-24.492	0.136	0.080
-230.771	55.845	-0.100	0.095
-229.757	-51.045	0.073	-0.034
-228.742	800.000	0.093	0.339
-227.727	182.824	-0.097	0.141
-226.713	-171.113	0.361	-0.012
-225.698	-44.208	-0.216	0.107
-224.684	800.000	0.043	-0.127
-223.669	-200.000	0.015	-0.141
-222.655	800.000	0.040	-0.157
-221.640	26.684	-0.216	0.178
-220.625	180.862	-0.105	-0.152
-219.611	800.000	-0.033	-0.112
-218.596	-53.978	-0.297	0.133
-217.582	-136.893	-0.231	0.026
-216.567	-116.291	0.346	-0.063
-215.552	-43.532	-0.238	-0.118
-214.538	800.000	-0.038	0.124
-213.523	549.371	0.032	-0.075
-212.509	-121.300	-0.409	0.067
-211.494	-99.493	-0.238	0.059
-210.479	-61.930	0.069	0.028
-209.465	-37.635	0.289	0.152
-208.450	-200.000	-0.056	0.456
-207.436	-77.144	0.153	0.052
-206.421	-133.354	-0.150	0.019
-205.406	12.342	-0.347	-0.263
-204.392	337.642	-0.010	0.020
-203.377	-200.000	-0.011	-0.061
-202.363	91.750	0.308	-0.340
-201.348	-200.000	-0.019	-0.146
-200.333	-200.000	-0.038	0.230
-199.319	112.401	0.177	0.211
-198.304	512.791	0.148	0.339
-197.290	259.966	0.110	-0.187
-196.275	233.529	-0.100	0.162
-195.260	-68.458	0.232	0.088
-194.246	800.000	0.075	-0.219
-193.231	-98.119	-0.217	-0.055
-192.217	40.527	0.123	0.109
-191.202	-200.000	-0.006	0.251
-190.187	1.215	-0.193	-0.136
-189.173	-200.000	0.050	-0.349
-188.158	-8.565	0.310	0.205
-187.144	-86.120	0.019	-0.006
-186.129	-200.000	0.017	0.262
-185.114	-96.013	-0.403	0.105
-184.100	-200.000	-0.002	-0.015
-183.085	50.456	-0.328	-0.305
-182.071	-145.886	0.140	-0.012
-181.056	-200.000	-0.068	0.324
-180.042	52.608	-0.307	-0.288
-179.027	-94.584	-0.258	0.069
-178.012	-138.761	0.130	0.014
-176.998	-128.763	0.222	-0.031
-175.983	-42.006	-0.032	0.016
-174.969	-80.051	-0.262	0.086
-173.954	124.315	0.138	-0.171
-172.939	-200.000	0.000	0.360
-171.925	-11.917	-0.176	-0.113
-170.910	260.551	-0.051	0.087
-169.896	-6.644	-0.017	0.012
-168.881	-200.000	0.082	0.503
-167.866	145.069	-0.051	0.067
-166.852	-96.491	0.423	0.110
-165.837	24.154	-0.174	-0.141
-164.823	-38.383	0.064	0.033
-163.808	-22.842	0.394	0.234
-162.793	-135.974	0.374	-0.043
-161.779	-132.606	0.201	0.025
-160.764	117.920	0.110	-0.133
-159.750	7.811	0.350	-0.258
-158.735	627.476	-0.092	-0.227
-157.720	55.599	-0.198	0.188
-156.706	-46.694	0.106	-0.051
-155.691	542.638	0.038	-0.090
-154.677	10.933	-0.073	-0.055
-153.662	182.426	0.133	0.192
-152.647	485.787	0.120	0.268
-151.633	-64.004	-0.272	0.109
-150.618	55.027	0.063	0.060
-149.604	800.000	-0.021	0.058
-148.589	-200.000	0.012	0.118
-147.574	4.129	0.063	-0.045
-146.560	457.660	0.232	-0.505
-145.545	151.260	0.115	0.153
-144.531	55.576	0.262	0.249
-143.516	-200.000	0.032	-0.156
-142.502	-43.152	-0.388	-0.193
-141.487	800.000	0.113	-0.313
-140.472	-200.000	0.075	-0.000
-139.458	-23.493	0.231	0.136
-138.443	-200.000	-0.002	0.147
-137.429	-200.000	0.016	0.105
-136.414	800.000	-0.063	-0.213
-135.399	87.828	0.187	-0.204
-134.385	-200.000	-0.037	0.430
-133.370	450.117	0.115	-0.249
-132.356	102.138	-0.237	-0.272
-131.341	104.730	0.172	-0.199
-130.326	31.500	-0.125	-0.106
-129.312	328.698	0.231	-0.435
-128.297	800.000	-0.027	-0.096
-127.283	61.652	0.162	-0.158
-126.268	-111.066	0.247	-0.050
-125.253	-152.015	0.104	-0.007
-124.239	311.294	0.030	-0.055
-123.224	-200.000	0.024	-0.309
-122.210	-78.869	0.305	0.102
-121.195	482.482	0.016	-0.037
-120.180	-200.000	-0.010	0.293
-119.166	-96.035	0.135	-0.035
-118.151	-88.340	-0.150	0.044
-117.137	-41.077	0.293	0.148
-116.122	-156.386	0.337	-0.021
-115.107	-58.002	0.086	0.037
-114.093	27.759	0.078	-0.064
-113.078	101.427	0.130	-0.148
-112.064	62.523	0.192	0.188
-111.049	-200.000	0.024	-0.573
-110.034	-105.288	-0.476	-0.106
-109.020	294.764	0.097	-0.174
-108.005	-86.269	0.221	0.067
-106.991	-131.863	0.107	0.014
-105.976	39.850	-0.103	-0.091
-104.962	-52.318	0.201	-0.091
-103.947	-200.000	-0.011	0.082
-102.932	63.784	0.302	-0.297
-101.918	-130.872	-0.073	-0.010
-100.903	-25.266	-0.144	0.083
-99.889	-23.521	0.128	0.075
-98.874	-0.528	-0.117	-0.081
-97.859	130.498	0.044	0.055
-96.845	338.696	-0.030	-0.057
-95.830	-200.000	0.009	-0.269
-94.816	-1.161	-0.108	0.075
-93.801	-8.352	-0.210	0.138
-92.786	78.222	-0.131	-0.136
-91.772	363.542	0.104	-0.205
-90.757	287.084	0.025	0.045
-89.743	-135.008	-0.573	0.068
-88.728	-200.000	0.051	-0.238
-87.713	-93.178	0.243	-0.066
-86.699	800.000	0.103	0.341
-85.684	800.000	-0.048	-0.202
-84.670	48.691	0.091	0.084
-83.655	124.463	0.045	0.056
-82.640	177.278	0.012	0.017
-81.626	-200.000	-0.067	-0.388
-80.611	800.000	-0.034	-0.117
-79.597	-200.000	-0.002	-0.100
-78.582	-68.137	0.065	-0.025
-77.567	-200.000	0.001	-0.323
-76.553	-71.459	-0.050	-0.018
-75.538	-49.593	0.222	0.103
-74.524	-95.241	-0.091	0.024
-73.509	-17.677	-0.135	0.083
-72.494	-53.016	-0.304	0.137
-71.480	-200.000	-0.019	0.179
-70.465	-89.878	0.213	-0.061
-69.451	242.175	0.220	-0.360
-68.436	419.327	0.142	-0.297
-67.422	723.486	-0.032	0.082
-66.407	51.780	-0.089	-0.082
-65.392	-164.308	0.096	0.004
-64.378	800.000	-0.112	0.324
-63.363	-67.896	-0.303	0.116
-62.349	103.775	-0.026	0.030
-61.334	87.883	-0.946	-1.026
-60.319	196.226	0.468	0.696
-59.305	260.504	-0.736	-1.244
-58.290	293.672	0.705	1.259
-57.276	781.610	0.556	1.489
-56.261	-200.000	118.447	639.741
-55.246	473.164	1559.898	3436.869
-54.232	173.483	2724.253	3841.902
-53.217	104.548	2155.173	2481.411
-52.203	37.596	1587.765	1377.369
-51.188	29.426	1330.810	1105.701
-50.173	26.509	1292.349	1056.702
-49.159	51.822	1352.498	1258.084
-48.144	50.479	1365.219	1261.841
-47.130	29.333	1318.922	1095.097
-46.115	26.145	1300.926	1061.407
-45.100	25.874	1295.329	1055.210
-44.086	25.867	1293.056	1053.273
-43.071	25.784	1290.893	1050.988
-42.057	25.780	1289.096	1049.459
-41.042	25.840	1287.165	1048.196
-40.027	25.881	1285.566	1047.091
-39.013	25.919	1283.239	1045.369
-37.998	25.919	1281.465	1043.884
-36.984	25.817	1280.609	1042.558
-35.969	26.060	1278.069	1041.851
-34.954	26.023	1276.603	1040.401
-33.940	26.011	1275.402	1039.310
-32.925	26.042	1273.706	1038.065
-31.911	26.129	1272.099	1037.217
-30.896	26.247	1270.513	1036.558
-29.881	26.171	1269.526	1035.275
-28.867	26.137	1268.265	1034.012
-27.852	26.106	1266.672	1032.495
-26.838	26.141	1265.301	1031.537
-25.823	25.997	1264.469	1029.995
-24.809	26.108	1262.871	1029.285
-23.794	26.011	1261.625	1027.676
-22.779	26.122	1260.072	1027.002
-21.765	26.092	1259.355	1026.206
-20.750	26.097	1257.486	1024.669
-19.736	25.965	1256.428	1023.018
-18.721	26.004	1254.750	1021.835
-17.706	25.904	1253.985	1020.604
-16.692	25.939	1252.731	1019.742
-15.677	25.981	1251.907	1019.270
-14.663	25.925	1250.678	1017.908
-13.648	25.962	1249.588	1017.190
-12.633	25.934	1248.409	1016.036
-11.619	25.946	1247.443	1015.276
-10.604	25.989	1247.069	1015.170
-9.590	25.983	1245.991	1014.219
-8.575	25.953	1245.264	1013.419
-7.560	25.913	1244.413	1012.464
-6.546	25.892	1243.516	1011.575
-5.531	25.791	1242.886	1010.457
-4.517	25.884	1241.745	1010.008
-3.502	25.948	1240.632	1009.424
-2.487	25.888	1239.359	1008.012
-1.473	26.002	1235.011	1005.066
-0.458	24.376	1220.884	984.567
0.556	22.572	1204.071	947.748
1.571	18.770	1210.218	931.910
2.586	18.049	1224.775	939.075
3.600	17.867	1213.247	929.164
4.615	13.927	1142.578	854.725
5.629	7.176	1071.894	769.088
6.644	4.390	1054.519	743.229
7.659	4.107	1052.094	740.102
8.673	3.928	1051.066	738.458
9.688	3.987	1049.212	737.371
10.702	4.278	1047.774	737.680
11.717	8.414	1053.459	761.364
12.731	15.993	1064.173	805.394
13.746	20.952	1070.075	833.567
14.761	21.995	1071.067	839.254
15.775	21.338	1069.279	834.645
16.790	20.401	1067.745	828.901
17.804	19.754	1066.168	824.518
18.819	19.478	1065.123	822.322
19.834	19.487	1064.606	821.892
20.848	19.485	1063.834	821.214
21.863	19.434	1063.035	820.283
22.877	19.225	1061.946	818.376
23.892	19.107	1061.632	817.505
24.907	19.042	1061.011	816.643
25.921	19.023	1059.874	815.605
26.936	19.042	1058.460	814.538
27.950	19.137	1056.971	813.767
28.965	19.109	1056.112	812.902
29.980	19.288	1054.283	812.268
30.994	19.423	1053.372	812.128
32.009	19.464	1052.794	811.805
33.023	19.372	1051.667	810.431
34.038	19.296	1050.897	809.410
35.053	19.178	1049.853	807.980
36.067	19.133	1048.735	806.834
37.082	19.342	1048.239	807.360
38.096	19.311	1047.296	806.418
39.111	19.288	1046.857	805.903
40.126	19.189	1045.131	804.040
41.140	18.836	1043.559	801.115
42.155	18.632	1042.566	799.329
43.169	18.614	1041.593	798.432
44.184	18.656	1040.514	797.726
45.199	18.727	1039.573	797.266
46.213	18.962	1038.588	797.530
47.228	19.197	1037.958	798.063
48.242	19.282	1037.215	797.815
49.257	19.150	1036.034	796.225
50.271	19.219	1035.370	795.964
51.286	19.320	1034.699	795.844
52.301	19.298	1033.857	795.025
53.315	19.080	1032.690	793.055
54.330	18.922	1031.760	791.540
55.344	18.864	1030.776	790.450
56.359	18.847	1030.078	789.768
57.374	18.850	1029.459	789.233
58.388	18.815	1027.926	787.831
59.403	18.638	1027.504	786.626
60.417	18.564	1026.854	785.721
61.432	18.570	1025.878	784.930
62.447	18.599	1024.916	784.256
63.461	18.518	1023.889	783.034
64.476	18.459	1022.858	781.903
65.490	18.549	1022.098	781.664
66.505	18.603	1021.898	781.691
67.520	18.571	1021.122	780.879
68.534	18.504	1020.427	779.977
69.549	18.533	1019.417	779.265
70.563	18.487	1018.290	778.126
71.578	18.243	1017.946	776.689
72.593	18.205	1016.831	775.598
73.607	18.109	1016.397	774.760
74.622	18.301	1015.600	774.954
75.636	18.362	1015.510	775.092
76.651	18.316	1014.396	773.967
77.666	18.446	1013.960	774.154
78.680	18.313	1013.446	773.092
79.695	18.552	1012.936	773.711
80.709	18.674	1012.235	773.658
81.724	18.670	1011.500	773.009
82.739	18.932	1010.459	773.323
83.753	19.122	1010.524	774.162
84.768	19.480	1009.605	774.995
85.782	19.504	1009.225	774.743
86.797	19.379	1008.243	773.360
87.812	19.363	1006.794	772.109
88.826	19.296	1006.067	771.186
89.841	19.428	1005.103	770.967
90.855	19.381	1004.575	770.282
91.870	19.548	1003.579	770.199
92.884	19.482	1002.591	769.078
93.899	19.445	1001.946	768.351
94.914	19.528	1001.013	767.936
95.928	19.629	999.989	767.530
96.943	19.416	998.935	765.707
97.957	19.433	998.299	765.226
98.972	19.430	997.560	764.581
99.987	19.497	996.471	763.975
101.001	19.320	995.999	762.762
102.016	19.381	994.610	761.899
103.030	19.493	994.085	761.924
104.045	19.391	993.427	760.903
105.060	19.160	992.629	759.205
106.074	18.914	991.332	757.066
107.089	18.780	989.853	755.277
108.103	18.613	988.906	753.753
109.118	18.476	988.210	752.555
110.133	18.493	987.081	751.703
111.147	18.615	986.078	751.410
112.162	18.703	985.436	751.238
113.176	18.793	985.584	751.676
114.191	18.686	984.738	750.500
115.206	18.868	983.381	750.194
116.220	18.740	982.697	749.047
117.235	18.696	982.151	748.374
118.249	18.645	980.888	747.123
119.264	18.596	980.323	746.413
120.279	18.483	979.734	745.404
121.293	18.419	978.239	743.926
122.308	18.338	977.679	743.081
123.322	18.260	976.394	741.701
124.337	18.192	975.473	740.640
125.352	18.240	974.724	740.212
126.366	18.335	973.384	739.543
127.381	18.375	972.918	739.296
128.395	18.398	971.838	738.507
129.410	18.409	970.767	737.675
130.424	18.614	970.256	738.106
131.439	18.678	970.072	738.177
132.454	18.812	968.797	737.714
133.468	18.778	968.811	737.512
134.483	18.732	967.849	736.517
135.497	18.764	966.758	735.760
136.512	18.773	966.405	735.468
137.527	18.913	964.875	734.837
138.541	18.794	964.552	734.015
139.556	18.884	963.676	733.668
140.570	19.068	963.659	734.376
141.585	19.298	962.598	734.484
142.600	19.307	961.814	733.858
143.614	19.603	960.564	734.097
144.629	19.409	960.582	733.222
145.643	19.450	959.342	732.382
146.658	19.203	957.744	730.052
147.673	19.028	957.192	728.825
148.687	18.872	956.328	727.443
149.702	18.607	955.356	725.520
150.716	18.934	954.134	725.909
151.731	18.844	953.844	725.244
152.746	19.040	953.096	725.436
153.760	18.943	952.864	724.788
154.775	19.153	952.017	724.961
155.789	19.164	950.958	724.139
156.804	19.098	950.699	723.600
157.819	19.183	950.226	723.534
158.833	19.486	949.234	723.986
159.848	19.494	948.699	723.546
160.862	19.353	947.595	722.051
161.877	19.056	945.915	719.465
162.892	18.933	944.982	718.179
163.906	18.751	944.150	716.722
164.921	18.928	943.163	716.646
165.935	18.909	942.870	716.282
166.950	19.031	941.922	716.005
167.964	18.939	941.164	714.983
168.979	18.998	939.452	713.863
169.994	18.972	938.783	713.187
171.008	19.041	938.632	713.295
172.023	19.286	938.004	713.769
173.037	19.393	937.653	713.881
174.052	19.340	936.155	712.461
175.067	18.908	935.735	710.290
176.081	18.745	934.948	708.960
177.096	18.875	934.553	709.133
178.110	18.907	934.037	708.812
179.125	18.936	933.325	708.326
180.140	18.921	933.616	708.420
181.154	19.127	933.050	708.780
182.169	19.402	932.303	709.280
183.183	19.494	931.524	709.001
184.198	19.466	930.564	708.093
185.213	19.563	929.698	707.769
186.227	19.521	929.340	707.264
187.242	19.688	928.497	707.242
188.256	19.603	928.205	706.609
189.271	19.636	928.151	706.642
190.286	19.274	926.473	703.821
191.300	18.849	925.079	700.967
192.315	18.666	924.563	699.767
193.329	18.841	924.239	700.173
194.344	18.916	923.599	699.935
195.359	19.102	922.828	700.042
196.373	19.166	922.744	700.179
197.388	19.363	922.504	700.733
198.402	19.552	922.299	701.284
199.417	19.623	921.656	701.023
200.432	19.859	921.204	701.571
201.446	20.088	920.349	701.788
202.461	20.052	920.224	701.485
203.475	19.981	919.557	700.628
204.490	19.636	918.465	698.338
205.504	19.588	917.153	697.086
206.519	19.379	916.608	695.767
207.534	19.433	916.125	695.557
208.548	19.531	915.223	695.204
209.563	19.523	914.448	694.523
210.577	19.651	914.155	694.751
211.592	19.895	913.688	695.317
212.607	20.000	912.746	694.961
213.621	19.771	912.279	693.624
214.636	19.727	911.735	692.970
215.650	19.768	911.135	692.618
216.665	19.974	910.406	692.830
217.680	20.014	909.592	692.305
218.694	20.016	909.177	691.939
219.709	19.937	908.547	691.083
220.723	19.924	907.868	690.454
221.738	19.892	907.140	689.709
222.753	19.907	906.572	689.279
223.767	20.097	906.144	689.646
224.782	19.972	906.058	689.024
225.796	20.088	905.794	689.222
226.811	19.962	904.701	687.832
227.826	19.808	903.717	686.411
228.840	19.832	902.466	685.494
229.855	19.778	902.390	685.163
230.869	19.798	901.439	684.459
231.884	19.707	900.372	683.227
232.899	19.611	899.670	682.254
233.913	19.636	898.683	681.545
234.928	19.562	898.009	680.682
235.942	19.418	897.883	679.958
236.957	19.443	897.442	679.663
237.972	19.550	896.430	679.258
238.986	19.578	895.670	678.731
240.001	19.504	895.322	678.116
241.015	19.629	894.902	678.230
242.030	19.843	894.330	678.576
243.045	19.742	894.043	677.903
244.059	19.737	893.521	677.426
245.074	19.854	893.038	677.458
246.088	20.030	892.176	677.434
247.103	20.069	891.872	677.295
248.117	20.256	891.356	677.574
249.132	20.530	891.297	678.537
250.147	20.780	890.774	679.055
251.161	20.849	890.300	678.904
252.176	20.810	889.836	678.336
253.190	20.931	888.691	677.875
254.205	21.011	888.299	677.825
255.220	20.806	887.702	676.515
256.234	20.844	887.180	676.203
257.249	20.779	886.239	675.176
258.263	20.767	885.547	674.544
259.278	20.769	884.868	673.975
260.293	21.065	884.119	674.489
261.307	20.917	883.947	673.723
262.322	21.003	883.512	673.667
263.336	21.072	882.524	673.120
264.351	20.844	881.904	671.706
265.366	21.093	880.973	671.898
266.380	21.054	880.479	671.310
267.395	20.765	879.862	669.669
268.409	20.758	878.715	668.710
269.424	20.721	878.082	668.030
270.439	20.744	877.290	667.456
271.453	20.602	876.854	666.519
272.468	20.535	876.456	665.900
273.482	20.601	875.914	665.682
274.497	20.590	875.311	665.126
275.512	20.591	874.677	664.589
276.526	20.542	874.423	664.147
277.541	20.691	873.566	664.006
278.555	20.755	873.737	664.322
279.570	21.076	872.825	664.796
280.585	21.071	871.723	663.877
281.599	20.936	871.014	662.766
282.614	20.764	870.361	661.555
283.628	20.688	869.710	660.713
284.643	20.753	869.129	660.460
285.657	20.738	868.733	660.045
286.672	20.711	867.871	659.230
287.687	20.802	867.451	659.198
288.701	20.678	867.167	658.452
289.716	20.652	866.571	657.845
290.730	21.015	865.633	658.446
291.745	20.885	864.928	657.359
292.760	21.000	864.747	657.596
293.774	21.287	864.041	658.082
294.789	21.029	863.324	656.508
295.803	20.852	862.608	655.241
296.818	20.800	862.062	654.570
297.833	20.693	861.160	653.428
298.847	20.880	860.448	653.529
299.862	20.943	859.998	653.366
300.876	21.140	859.502	653.672
301.891	21.314	859.047	653.919
302.906	21.380	858.741	653.872
303.920	21.407	858.807	653.968
304.935	21.570	857.919	653.842
305.949	21.322	857.167	652.285
306.964	21.137	856.405	650.959
307.979	21.118	855.762	650.341
308.993	21.356	855.375	650.875
310.008	21.394	854.562	650.342
311.022	21.251	853.957	649.291
312.037	21.184	853.153	648.375
313.052	20.891	852.492	646.727
314.066	20.732	852.112	645.790
315.081	20.905	851.239	645.714
316.095	20.895	850.783	645.274
317.110	20.926	850.472	645.094
318.125	20.891	849.827	644.419
319.139	20.748	849.614	643.673
320.154	20.953	848.706	643.684
321.168	20.933	848.475	643.377
322.183	21.056	847.798	643.261
323.197	21.129	846.804	642.718
324.212	20.972	846.897	642.154
325.227	20.937	846.058	641.333
326.241	20.922	845.433	640.746
327.256	20.956	844.639	640.213
328.270	20.821	844.427	639.500
329.285	20.924	843.556	639.163
330.300	21.070	842.673	638.972
331.314	21.016	842.843	638.845
332.329	21.233	842.265	639.147
333.343	21.181	842.334	638.952
334.358	21.249	841.614	638.597
335.373	21.321	841.077	638.397
336.387	21.441	840.761	638.540
337.402	21.422	840.862	638.487
338.416	21.702	840.542	639.211
339.431	21.785	840.134	639.146
340.446	21.783	840.136	639.085
341.460	21.725	839.997	638.712
342.475	21.881	839.453	638.807
343.489	21.869	838.882	638.275
344.504	22.028	838.399	638.427
345.519	22.047	838.141	638.246
346.533	22.033	837.114	637.354
347.548	21.614	836.493	635.304
348.562	21.421	835.775	634.004
349.577	21.519	834.515	633.346
350.592	21.344	834.076	632.325
351.606	21.226	833.859	631.677
352.621	21.526	832.871	631.959
353.635	21.547	832.409	631.627
354.650	21.531	831.509	630.831
355.665	21.562	831.325	630.745
356.679	21.699	830.777	630.766
357.694	21.820	830.267	630.759
358.708	21.579	829.077	628.935
359.723	21.663	829.053	629.163
360.738	21.613	828.375	628.412
361.752	21.793	827.516	628.351
362.767	22.006	826.918	628.605
363.781	22.152	826.834	629.005
364.796	22.253	826.570	629.111
365.810	22.500	825.868	629.404
366.825	22.533	825.630	629.284
367.840	22.284	825.526	628.259
368.854	22.088	824.912	627.039
369.869	21.942	824.374	626.055
370.883	22.120	823.802	626.198
371.898	22.236	823.601	626.405
372.913	22.369	822.876	626.268
373.927	22.098	822.834	625.217
374.942	22.085	822.185	624.623
375.956	22.297	821.698	624.951
376.971	22.383	821.374	624.955
377.986	22.488	820.862	624.882
379.000	22.532	820.720	624.876
380.015	22.492	819.860	624.024
381.029	22.316	819.564	623.119
382.044	22.434	818.789	622.891
383.059	22.577	817.967	622.718
384.073	22.294	817.202	621.080
385.088	22.222	816.140	619.967
386.102	22.040	815.885	619.075
387.117	22.037	815.140	618.446
388.132	21.988	815.004	618.112
389.146	22.201	814.049	618.084
390.161	22.299	814.254	618.529
391.175	22.437	813.519	618.401
392.190	22.182	812.814	616.917
393.205	22.162	812.201	616.325
394.219	22.021	811.968	615.600
395.234	22.095	811.581	615.511
396.248	21.736	810.988	613.751
397.263	21.810	810.315	613.446
398.278	21.773	810.132	613.124
399.292	21.823	809.603	612.844
400.307	21.869	809.109	612.575
401.321	21.865	808.853	612.313
402.336	21.915	808.399	612.090
403.350	22.059	807.917	612.173
404.365	22.284	807.881	612.876
405.380	22.459	807.564	613.192
406.394	22.571	807.289	613.316
407.409	22.645	806.530	612.943
408.423	22.797	806.214	613.178
409.438	22.801	806.209	613.134
410.453	22.854	805.424	612.665
411.467	22.811	805.140	612.246
412.482	22.926	805.034	612.511
413.496	23.032	804.477	612.401
414.511	22.997	803.986	611.850
415.526	22.851	803.314	610.781
416.540	22.858	802.560	610.176
417.555	22.898	802.433	610.163
418.569	22.832	802.203	609.708
419.584	22.829	801.647	609.221
420.599	22.782	801.043	608.544
421.613	165.230	1371.867	1796.972
422.628	143.613	1455.041	1797.082
