DTS Sentinel unit serial number:	SN413079Multiplexer serial number:	ORYXHardware model number:	OX4-SRSoftware version number:	ORYX F/W v4.00 Oryx Data Collector v3.7.2.0data status	okinstallation	princeton_trtdifferential loss correction	single-endedforward channel	channel 1reverse channel	N/Adate	2019/09/16time	13:30:35forward acquisition time	60.00reverse acquisition time	0.00gamma	496.2192k internal	0.2294k external	0.2294temperature offset calibration	0.9945default loss term (dB/km)	0.3790temperature slope calibration	1.0000multiplexer offset coefficient	1.0000multiplexer slope coefficient	1.0000fibre end	0.00T internal ref (°C)	41.77T ext. ref 1 (°C)	13.82T ext. ref 2 (°C)	39.75length (m)	temperature (°C)	Stokes	anti-Stokes-747.200	-185.512	0.229	0.004
-746.185	-109.792	-0.322	-0.069
-745.171	92.028	-0.311	-0.358
-744.156	159.603	-0.192	0.274
-743.142	20.384	-0.165	0.136
-742.127	31.097	-0.158	0.138
-741.112	302.504	-0.138	-0.261
-740.098	337.907	0.114	0.226
-739.083	-137.878	0.448	0.051
-738.069	800.000	-0.049	0.184
-737.054	381.258	-0.046	0.096
-736.039	-49.007	-0.086	0.042
-735.025	52.111	-0.154	0.150
-734.010	44.852	-0.190	-0.178
-732.996	-67.042	0.175	0.070
-731.981	-200.000	0.024	0.414
-730.966	286.839	-0.067	0.124
-729.952	225.606	-0.215	0.357
-728.937	-51.324	-0.064	-0.031
-727.923	146.759	0.102	0.141
-726.908	-200.000	-0.025	-0.225
-725.894	29.102	-0.173	0.150
-724.879	-122.282	-0.206	-0.034
-723.864	-200.000	-0.046	-0.236
-722.850	-49.434	0.231	0.112
-721.835	-144.656	-0.305	-0.029
-720.821	800.000	-0.057	-0.180
-719.806	254.857	0.136	-0.237
-718.791	-148.733	-0.334	-0.028
-717.777	-166.158	-0.207	0.009
-716.762	-200.000	0.007	-0.048
-715.748	-113.177	0.170	0.034
-714.733	74.013	0.016	-0.018
-713.718	10.487	-0.249	0.194
-712.704	800.000	0.061	-0.200
-711.689	-81.559	-0.238	0.080
-710.675	-38.055	-0.184	0.100
-709.660	215.256	-0.145	-0.235
-708.645	-71.516	-0.183	-0.070
-707.631	-39.232	0.279	0.150
-706.616	800.000	-0.129	-0.454
-705.602	-113.279	-0.292	0.059
-704.587	-116.295	-0.198	0.038
-703.572	-200.000	0.004	0.353
-702.558	800.000	0.039	0.150
-701.543	-34.509	0.210	0.117
-700.529	528.981	-0.127	-0.306
-699.514	125.690	0.241	-0.311
-698.499	7.221	0.221	-0.169
-697.485	-200.000	-0.003	-0.044
-696.470	-47.842	-0.284	-0.140
-695.456	29.856	-0.277	0.241
-694.441	388.623	0.093	-0.197
-693.426	-39.068	-0.358	-0.192
-692.412	-103.903	0.247	-0.059
-691.397	618.409	-0.062	-0.159
-690.383	800.000	-0.045	-0.185
-689.368	24.126	0.189	0.159
-688.354	-147.852	0.085	0.007
-687.339	-90.075	-0.455	-0.135
-686.324	-168.167	-0.315	0.012
-685.310	-76.303	-0.027	0.010
-684.295	800.000	-0.082	-0.248
-683.281	-185.767	-0.306	-0.005
-682.266	-200.000	-0.003	-0.055
-681.251	-200.000	0.043	-0.391
-680.237	-44.272	-0.126	-0.065
-679.222	800.000	-0.069	0.266
-678.208	354.446	-0.118	-0.240
-677.193	-200.000	0.069	-0.392
-676.178	20.501	-0.029	0.024
-675.164	-200.000	0.011	-0.167
-674.149	-200.000	0.014	-0.144
-673.135	675.016	0.144	-0.382
-672.120	-96.694	-0.238	0.064
-671.105	-29.671	-0.105	0.061
-670.091	-116.568	-0.163	-0.031
-669.076	733.090	-0.034	-0.092
-668.062	-200.000	0.011	0.236
-667.047	-31.396	0.223	0.128
-666.032	-74.466	-0.310	0.114
-665.018	-127.373	0.214	-0.032
-664.003	-109.589	-0.197	0.042
-662.989	23.707	-0.181	-0.152
-661.974	16.941	-0.141	-0.114
-660.959	172.989	0.183	-0.268
-659.945	-183.747	-0.239	-0.004
-658.930	245.307	-0.092	0.157
-657.916	13.901	-0.223	0.177
-656.901	-200.000	-0.004	-0.208
-655.886	-86.674	-0.145	-0.045
-654.872	-109.604	-0.092	-0.020
-653.857	-33.699	0.039	-0.022
-652.843	-66.043	-0.435	0.177
-651.828	-72.176	-0.084	0.032
-650.814	-31.274	-0.158	0.090
-649.799	74.876	-0.129	-0.138
-648.784	130.178	0.020	0.027
-647.770	-200.000	0.046	0.287
-646.755	-33.309	0.109	-0.061
-645.741	800.000	0.088	-0.375
-644.726	-159.341	0.033	0.002
-643.711	353.828	0.144	0.292
-642.697	149.157	0.031	0.043
-641.682	-58.080	-0.410	0.182
-640.668	160.110	0.223	0.316
-639.653	68.151	-0.224	0.233
-638.638	0.387	-0.302	0.220
-637.624	465.790	0.034	0.077
-636.609	614.660	-0.104	0.264
-635.595	115.675	0.132	0.165
-634.580	-200.000	0.039	-0.476
-633.565	-200.000	0.004	-0.091
-632.551	192.636	0.194	0.298
-631.536	800.000	-0.123	-0.457
-630.522	-200.000	-0.004	0.061
-629.507	204.626	-0.081	0.127
-628.492	-43.380	-0.187	-0.096
-627.478	-24.956	0.035	-0.021
-626.463	147.354	-0.142	0.195
-625.449	-120.044	-0.077	-0.013
-624.434	443.559	-0.165	-0.369
-623.419	800.000	-0.043	-0.135
-622.405	180.679	0.037	-0.056
-621.390	344.200	0.044	-0.087
-620.376	119.330	0.120	-0.150
-619.361	-141.061	0.268	0.028
-618.346	800.000	-0.009	0.036
-617.332	-80.600	0.281	-0.095
-616.317	162.035	-0.254	-0.362
-615.303	-200.000	-0.025	-0.441
-614.288	-200.000	0.048	-0.269
-613.273	-152.524	-0.393	-0.029
-612.259	52.865	0.262	-0.255
-611.244	-54.524	-0.039	0.018
-610.230	66.561	-0.109	-0.113
-609.215	-200.000	0.037	-0.194
-608.201	-123.725	-0.127	0.020
-607.186	93.369	-0.137	0.158
-606.171	-57.612	0.147	-0.066
-605.157	-200.000	-0.038	-0.304
-604.142	15.607	-0.351	-0.280
-603.128	317.702	-0.202	-0.388
-602.113	800.000	-0.097	0.329
-601.098	-109.432	0.274	-0.059
-600.084	81.229	-0.144	0.158
-599.069	167.868	0.112	-0.162
-598.055	-2.463	-0.196	-0.139
-597.040	-200.000	0.015	-0.088
-596.025	1.641	0.144	0.105
-595.011	759.471	-0.035	-0.098
-593.996	-129.276	-0.128	-0.018
-592.982	800.000	-0.027	0.112
-591.967	40.656	-0.138	-0.126
-590.952	-200.000	-0.089	-0.558
-589.938	0.794	0.167	-0.121
-588.923	54.666	-0.125	-0.123
-587.909	300.897	0.101	-0.190
-586.894	-73.751	-0.086	-0.032
-585.879	800.000	0.113	-0.402
-584.865	60.377	0.076	-0.076
-583.850	-66.702	0.197	-0.079
-582.836	-147.679	-0.163	0.014
-581.821	800.000	0.089	-0.300
-580.806	800.000	-0.055	0.180
-579.792	91.156	0.206	-0.235
-578.777	-26.371	0.039	0.023
-577.763	-200.000	0.055	0.326
-576.748	84.537	-0.184	-0.204
-575.733	-200.000	-0.087	-0.581
-574.719	-200.000	0.058	-0.381
-573.704	19.415	-0.033	-0.027
-572.690	129.190	-0.163	0.211
-571.675	378.156	0.029	-0.061
-570.661	82.990	0.057	-0.062
-569.646	-66.826	-0.177	-0.071
-568.631	328.998	0.081	0.157
-567.617	-125.014	0.182	0.028
-566.602	-43.682	-0.365	-0.187
-565.588	-200.000	-0.019	-0.318
-564.573	800.000	0.091	-0.316
-563.558	800.000	-0.073	-0.275
-562.544	-48.275	-0.299	-0.147
-561.529	24.178	0.043	-0.036
-560.515	45.081	0.333	0.311
-559.500	-74.978	0.233	0.085
-558.485	-88.534	-0.390	0.118
-557.471	247.077	0.051	0.088
-556.456	74.288	-0.157	-0.168
-555.442	-116.204	0.095	-0.018
-554.427	-200.000	0.042	-0.325
-553.412	153.732	-0.180	-0.251
-552.398	800.000	0.023	-0.067
-551.383	800.000	0.014	0.046
-550.369	-102.245	-0.065	0.016
-549.354	-200.000	-0.035	0.282
-548.339	-68.103	-0.106	-0.042
-547.325	-200.000	0.044	-0.218
-546.310	800.000	0.099	-0.299
-545.296	587.306	-0.045	0.112
-544.281	-40.860	0.142	0.075
-543.266	-200.000	-0.026	0.243
-542.252	-113.352	0.076	-0.015
-541.237	-125.853	0.099	-0.015
-540.223	-200.000	0.003	-0.228
-539.208	-200.000	0.054	-0.274
-538.193	-58.471	0.261	0.115
-537.179	83.685	0.053	0.059
-536.164	-200.000	-0.033	0.206
-535.150	694.670	-0.065	-0.174
-534.135	800.000	-0.081	-0.230
-533.121	-119.432	0.140	0.025
-532.106	800.000	0.034	0.111
-531.091	80.671	-0.173	0.189
-530.077	271.323	0.090	-0.161
-529.062	675.160	0.036	0.094
-528.048	61.841	0.162	0.164
-527.033	-15.872	-0.047	0.030
-526.018	-200.000	-0.044	-0.221
-525.004	-3.574	-0.046	-0.033
-523.989	504.871	0.100	0.235
-522.975	-88.835	0.124	-0.037
-521.960	652.851	0.015	-0.038
-520.945	14.065	0.241	0.190
-519.931	-82.225	0.111	-0.037
-518.916	-200.000	0.038	-0.185
-517.902	205.025	0.059	-0.094
-516.887	51.829	-0.187	0.180
-515.872	-58.875	-0.563	-0.247
-514.858	-200.000	0.025	-0.225
-513.843	-44.854	-0.335	-0.169
-512.829	-144.018	0.124	0.012
-511.814	-160.538	-0.241	0.013
-510.799	800.000	0.007	0.023
-509.785	69.286	0.084	0.087
-508.770	-125.410	0.316	-0.049
-507.756	72.795	-0.090	-0.096
-506.741	114.951	-0.164	0.203
-505.726	-71.574	0.191	-0.072
-504.712	-167.958	-0.155	-0.006
-503.697	-91.072	0.128	-0.037
-502.683	800.000	-0.045	0.149
-501.668	26.867	0.115	0.098
-500.653	-128.235	0.175	0.025
-499.639	147.944	-0.143	0.195
-498.624	-200.000	0.017	0.230
-497.610	24.020	-0.233	-0.195
-496.595	-1.940	0.285	-0.203
-495.581	-73.362	0.392	-0.145
-494.566	-23.705	0.210	0.127
-493.551	319.799	0.044	0.084
-492.537	-103.399	-0.165	0.039
-491.522	-103.528	0.123	-0.029
-490.508	255.435	-0.062	0.108
-489.493	91.389	-0.154	0.175
-488.478	-63.409	-0.272	-0.113
-487.464	-93.014	-0.313	0.088
-486.449	25.334	0.257	0.216
-485.435	-50.851	-0.208	-0.099
-484.420	-196.754	0.189	0.001
-483.405	-115.468	-0.189	-0.036
-482.391	-200.000	-0.001	0.193
-481.376	800.000	-0.008	0.028
-480.362	-47.237	-0.472	-0.233
-479.347	-75.138	0.134	-0.048
-478.332	-15.076	0.074	0.048
-477.318	-200.000	-0.001	-0.038
-476.303	-84.315	-0.257	-0.082
-475.289	-43.517	-0.090	-0.046
-474.274	-200.000	0.027	0.241
-473.259	-187.076	0.128	0.002
-472.245	-200.000	0.011	-0.113
-471.230	-49.684	0.071	-0.034
-470.216	800.000	-0.057	-0.184
-469.201	24.632	0.082	0.069
-468.186	4.700	0.121	0.090
-467.172	262.129	0.080	-0.141
-466.157	197.985	-0.189	-0.293
-465.143	-129.062	0.389	-0.055
-464.128	-200.000	0.052	0.394
-463.113	-160.623	0.245	-0.013
-462.099	-157.418	0.121	0.007
-461.084	-131.152	0.313	-0.042
-460.070	-200.000	-0.025	-0.181
-459.055	-143.892	0.156	-0.015
-458.040	74.286	-0.175	-0.186
-457.026	75.450	0.119	-0.127
-456.011	88.721	-0.226	-0.254
-454.997	-200.000	0.021	0.249
-453.982	-84.753	0.087	0.028
-452.968	33.459	0.089	0.078
-451.953	-76.150	-0.152	0.054
-450.938	-93.789	0.112	-0.031
-449.924	263.077	-0.112	-0.196
-448.909	12.315	-0.131	-0.102
-447.895	-200.000	0.010	-0.379
-446.880	-152.661	0.218	0.016
-445.865	-101.517	-0.135	0.033
-444.851	48.138	0.097	0.092
-443.836	-200.000	0.007	-0.103
-442.822	-81.957	-0.248	-0.082
-441.807	568.580	-0.126	-0.309
-440.792	-200.000	-0.005	0.037
-439.778	203.231	-0.178	-0.277
-438.763	661.469	0.031	0.081
-437.749	-161.310	0.084	0.004
-436.734	264.725	-0.112	0.197
-435.719	-200.000	0.007	0.159
-434.705	58.411	-0.178	-0.177
-433.690	-200.000	0.030	-0.259
-432.676	800.000	0.058	-0.199
-431.661	686.590	-0.100	-0.265
-430.646	-189.942	-0.065	-0.001
-429.632	800.000	-0.086	0.305
-428.617	-137.772	0.223	-0.025
-427.603	800.000	0.072	0.264
-426.588	-36.601	0.219	0.119
-425.573	-108.075	0.298	-0.065
-424.559	367.659	0.175	-0.357
-423.544	-127.613	0.198	-0.029
-422.530	-68.937	0.278	0.108
-421.515	800.000	-0.105	0.349
-420.500	-67.657	-0.238	0.094
-419.486	327.449	-0.073	-0.141
-418.471	-200.000	0.017	0.260
-417.457	-200.000	-0.014	-0.304
-416.442	-58.078	0.253	-0.112
-415.428	348.841	0.103	0.205
-414.413	-66.412	-0.299	-0.120
-413.398	-84.452	-0.249	-0.079
-412.384	-86.371	0.088	-0.027
-411.369	-123.250	-0.106	-0.017
-410.355	3.259	0.151	-0.111
-409.340	197.304	-0.137	-0.211
-408.325	-55.805	-0.104	0.047
-407.311	-200.000	0.062	0.330
-406.296	-91.844	0.155	0.044
-405.282	-123.768	0.293	0.047
-404.267	83.551	-0.208	0.229
-403.252	-83.290	-0.225	-0.073
-402.238	122.378	-0.192	0.243
-401.223	-45.492	-0.147	0.073
-400.209	8.548	-0.109	0.083
-399.194	54.392	-0.145	-0.141
-398.179	800.000	0.040	0.125
-397.165	-174.386	-0.095	0.003
-396.150	800.000	0.009	-0.025
-395.136	-54.610	0.286	-0.131
-394.121	101.932	0.024	0.028
-393.106	20.733	0.057	-0.046
-392.092	98.744	-0.198	0.230
-391.077	-200.000	-0.017	-0.085
-390.063	800.000	0.075	-0.240
-389.048	9.935	-0.355	0.272
-388.033	-124.715	0.314	0.049
-387.019	-5.659	-0.145	-0.100
-386.004	-1.402	-0.161	-0.115
-384.990	-200.000	0.001	0.165
-383.975	-47.120	0.127	0.062
-382.960	800.000	-0.048	-0.170
-381.946	-36.296	-0.267	-0.145
-380.931	-26.175	0.064	-0.038
-379.917	-200.000	-0.056	-0.263
-378.902	160.156	0.184	0.259
-377.888	-200.000	-0.016	-0.173
-376.873	517.231	0.052	0.123
-375.858	128.901	0.007	0.009
-374.844	-179.992	-0.107	0.002
-373.829	172.947	-0.161	0.234
-372.815	351.148	0.020	0.040
-371.800	800.000	0.038	0.145
-370.785	116.899	0.030	-0.037
-369.771	-63.042	0.244	-0.102
-368.756	800.000	0.088	-0.294
-367.742	5.564	0.244	0.182
-366.727	-79.465	-0.103	-0.035
-365.712	-43.117	-0.304	0.155
-364.698	39.881	-0.243	0.220
-363.683	800.000	0.054	0.225
-362.669	218.715	0.073	-0.118
-361.654	-117.649	-0.297	-0.054
-360.639	-101.659	0.065	-0.016
-359.625	247.929	-0.084	-0.143
-358.610	39.894	0.358	-0.324
-357.596	51.349	-0.125	-0.120
-356.581	33.060	0.267	-0.233
-355.566	403.553	-0.146	-0.309
-354.552	252.743	0.105	-0.181
-353.537	260.015	-0.040	0.069
-352.523	-200.000	0.025	0.299
-351.508	-30.262	0.147	-0.084
-350.493	43.740	0.121	0.112
-349.479	102.458	-0.111	0.130
-348.464	-200.000	0.013	0.485
-347.450	-200.000	-0.008	0.057
-346.435	-72.986	-0.099	-0.037
-345.420	-124.077	0.285	-0.045
-344.406	-16.016	0.088	-0.056
-343.391	-108.154	0.178	0.039
-342.377	-200.000	-0.022	0.329
-341.362	-113.690	-0.217	0.043
-340.348	478.876	0.087	-0.197
-339.333	282.660	-0.143	0.259
-338.318	-36.425	-0.068	0.037
-337.304	645.298	-0.094	-0.243
-336.289	-141.627	-0.175	0.018
-335.275	109.612	0.102	-0.123
-334.260	1.716	0.145	0.105
-333.245	800.000	-0.087	0.365
-332.231	-50.008	-0.120	0.057
-331.216	-9.484	0.019	0.012
-330.202	-62.806	-0.236	0.098
-329.187	-115.478	-0.305	-0.058
-328.172	-141.344	0.243	-0.025
-327.158	338.869	-0.072	-0.141
-326.143	-91.460	-0.030	0.009
-325.129	-200.000	-0.020	0.249
-324.114	414.703	0.060	0.128
-323.099	-200.000	0.029	0.301
-322.085	-47.888	-0.194	0.094
-321.070	-81.976	-0.031	-0.010
-320.056	17.262	-0.116	0.092
-319.041	102.823	-0.084	0.099
-318.026	-179.098	0.332	-0.007
-317.012	800.000	0.094	0.287
-315.997	220.681	-0.112	-0.180
-314.983	-184.915	-0.233	-0.004
-313.968	-114.566	-0.134	0.026
-312.953	-200.000	0.022	-0.195
-311.939	75.187	0.074	0.078
-310.924	-200.000	0.065	-0.349
-309.910	45.675	0.105	-0.097
-308.895	53.533	-0.195	0.188
-307.880	-118.362	-0.190	0.034
-306.866	-30.278	0.244	0.139
-305.851	-22.119	0.226	-0.138
-304.837	-146.318	0.212	0.019
-303.822	54.862	0.100	-0.097
-302.807	-200.000	0.043	0.282
-301.793	-116.737	0.103	0.019
-300.778	-64.611	-0.340	0.139
-299.764	800.000	0.045	-0.151
-298.749	-129.490	-0.271	-0.038
-297.735	236.350	0.067	-0.111
-296.720	-151.715	0.271	0.020
-295.705	-200.000	-0.013	0.202
-294.691	-90.538	0.336	-0.098
-293.676	-129.417	0.117	0.016
-292.662	-59.095	-0.179	0.078
-291.647	48.975	0.099	0.094
-290.632	-95.304	-0.097	-0.026
-289.618	-152.453	0.307	-0.022
-288.603	-27.211	0.149	-0.087
-287.589	-78.601	-0.148	0.051
-286.574	10.719	-0.262	0.201
-285.559	800.000	-0.165	0.604
-284.545	277.254	0.170	0.304
-283.530	185.265	0.024	-0.035
-282.516	209.026	-0.185	0.291
-281.501	-200.000	-0.009	0.060
-280.486	-65.248	-0.284	-0.115
-279.472	-32.906	0.154	0.086
-278.457	-1.577	-0.209	-0.148
-277.443	28.420	-0.142	-0.121
-276.428	-106.062	0.315	0.071
-275.413	66.535	0.042	-0.043
-274.399	-200.000	-0.071	0.562
-273.384	-21.760	0.294	0.179
-272.370	-131.714	0.454	-0.060
-271.355	209.331	-0.157	0.246
-270.340	-77.611	0.096	-0.034
-269.326	380.512	0.110	-0.226
-268.311	-20.744	0.325	0.200
-267.297	296.152	0.075	0.139
-266.282	-200.000	0.004	0.034
-265.267	-156.536	-0.149	-0.009
-264.253	-200.000	0.102	-0.467
-263.238	60.712	-0.078	-0.077
-262.224	-85.400	-0.361	0.113
-261.209	-190.087	0.193	0.002
-260.195	-80.998	-0.185	0.061
-259.180	6.449	-0.164	-0.122
-258.165	187.926	-0.121	-0.182
-257.151	25.087	-0.113	0.094
-256.136	162.196	0.036	-0.050
-255.122	800.000	0.030	0.086
-254.107	-16.547	0.419	-0.266
-253.092	800.000	-0.051	0.186
-252.078	349.518	-0.075	0.149
-251.063	-45.081	0.303	0.151
-250.049	13.098	-0.167	-0.130
-249.034	-200.000	-0.001	0.050
-248.019	6.997	0.123	0.092
-247.005	-155.346	0.092	0.006
-245.990	184.997	-0.069	-0.102
-244.976	302.213	0.155	0.287
-243.961	-19.509	0.328	-0.204
-242.946	-200.000	0.014	-0.076
-241.932	142.512	0.136	0.181
-240.917	800.000	-0.061	0.267
-239.903	800.000	-0.043	0.145
-238.888	-138.895	0.295	-0.032
-237.873	-153.018	-0.290	-0.020
-236.859	56.094	0.023	-0.022
-235.844	641.708	-0.092	-0.234
-234.830	-200.000	0.057	-0.423
-233.815	800.000	0.032	-0.099
-232.800	0.989	-0.353	-0.254
-231.786	-102.322	-0.229	0.055
-230.771	-7.945	0.319	0.215
-229.757	171.462	0.113	-0.163
-228.742	-141.848	-0.310	0.031
-227.727	-142.534	0.229	0.023
-226.713	471.566	0.033	0.074
-225.698	800.000	0.101	-0.292
-224.684	-8.029	-0.224	0.152
-223.669	-200.000	-0.185	-0.000
-222.655	-5.897	0.343	0.235
-221.640	758.687	-0.084	0.229
-220.625	45.295	-0.167	0.155
-219.611	-74.171	0.268	-0.097
-218.596	642.323	-0.030	-0.077
-217.582	-27.758	0.278	0.161
-216.567	-200.000	-0.111	0.490
-215.552	65.216	-0.250	0.253
-214.538	-89.035	-0.390	-0.116
-213.523	37.996	0.202	-0.180
-212.509	-179.430	-0.286	0.006
-211.494	-200.000	0.024	0.202
-210.479	-200.000	-0.019	-0.120
-209.465	8.675	-0.099	0.075
-208.450	712.676	0.067	-0.177
-207.436	-200.000	-0.004	-0.063
-206.421	800.000	-0.044	0.128
-205.406	61.740	-0.087	-0.087
-204.392	547.678	-0.098	-0.235
-203.377	-200.000	0.017	0.293
-202.363	343.477	0.053	0.104
-201.348	184.958	-0.163	0.242
-200.333	263.526	0.085	0.148
-199.319	-200.000	-0.018	0.234
-198.304	-104.412	0.088	0.020
-197.290	384.343	-0.102	0.209
-196.275	-200.000	0.020	0.120
-195.260	184.786	0.088	0.131
-194.246	-95.389	-0.192	0.052
-193.231	579.311	-0.055	0.135
-192.217	63.090	0.319	-0.319
-191.202	800.000	-0.073	-0.234
-190.187	-139.579	-0.105	0.011
-189.173	-200.000	0.013	0.149
-188.158	67.488	0.075	-0.077
-187.144	-110.264	0.434	-0.090
-186.129	391.060	0.119	0.246
-185.114	-111.061	0.403	-0.083
-184.100	-93.795	-0.394	0.109
-183.085	-200.000	-0.033	0.181
-182.071	-68.880	0.224	0.086
-181.056	-200.000	-0.004	-0.087
-180.042	-40.265	-0.148	0.077
-179.027	122.514	-0.205	0.256
-178.012	94.017	0.116	-0.131
-176.998	88.002	0.033	-0.036
-175.983	63.812	-0.128	-0.129
-174.969	-200.000	0.018	0.103
-173.954	-147.487	0.308	-0.026
-172.939	800.000	0.021	0.086
-171.925	-200.000	-0.002	0.047
-170.910	187.107	0.111	-0.166
-169.896	22.814	-0.212	0.174
-168.881	97.606	0.185	0.213
-167.866	-200.000	0.045	0.280
-166.852	-68.875	-0.084	0.032
-165.837	510.782	0.014	-0.032
-164.823	-90.104	0.280	-0.082
-163.808	-26.456	-0.077	-0.045
-162.793	-39.917	-0.079	0.041
-161.779	-78.574	-0.170	0.058
-160.764	-11.821	0.073	-0.048
-159.750	-25.996	-0.286	0.168
-158.735	-45.582	0.212	0.105
-157.720	-184.124	0.111	-0.002
-156.706	282.412	-0.145	0.259
-155.691	-124.208	0.232	-0.036
-154.677	-200.000	0.006	0.047
-153.662	146.807	0.163	0.219
-152.647	-200.000	0.037	0.451
-151.633	-200.000	-0.055	0.270
-150.618	800.000	0.084	0.317
-149.604	-200.000	-0.062	0.412
-148.589	-15.015	-0.282	0.180
-147.574	-62.832	0.338	-0.140
-146.560	800.000	0.152	-0.468
-145.545	16.600	0.104	0.082
-144.531	800.000	0.056	0.229
-143.516	-200.000	-0.071	0.393
-142.502	-41.978	0.180	0.092
-141.487	338.628	-0.200	0.390
-140.472	-63.000	0.063	0.026
-139.458	-174.316	-0.213	-0.006
-138.443	27.035	-0.140	0.117
-137.429	-48.461	-0.285	0.137
-136.414	-44.504	-0.103	-0.051
-135.399	800.000	-0.030	0.090
-134.385	27.911	0.013	-0.011
-133.370	249.101	0.059	0.099
-132.356	-85.480	0.218	-0.068
-131.341	128.309	0.157	-0.199
-130.326	-117.134	-0.291	0.053
-129.312	-100.527	0.560	-0.138
-128.297	38.131	0.252	-0.224
-127.283	52.763	0.239	-0.228
-126.268	-72.985	0.196	-0.072
-125.253	-200.000	-0.074	-0.389
-124.239	-200.000	-0.016	-0.373
-123.224	-200.000	0.024	-0.415
-122.210	-200.000	-0.011	0.112
-121.195	800.000	0.074	0.270
-120.180	571.107	0.166	0.402
-119.166	-200.000	0.034	-0.354
-118.151	712.363	0.075	-0.198
-117.137	-37.589	-0.213	-0.114
-116.122	-163.287	-0.270	-0.013
-115.107	392.154	0.110	-0.227
-114.093	-81.578	0.190	-0.062
-113.078	89.410	0.141	-0.157
-112.064	800.000	0.048	0.185
-111.049	-200.000	-0.010	-0.269
-110.034	-200.000	0.007	-0.108
-109.020	-200.000	-0.007	0.221
-108.005	183.182	-0.142	0.209
-106.991	-200.000	0.016	-0.296
-105.976	-200.000	-0.011	0.234
-104.962	113.621	0.133	-0.161
-103.947	662.850	0.044	-0.113
-102.932	-200.000	-0.059	-0.319
-101.918	92.812	-0.129	-0.145
-100.903	800.000	0.088	-0.257
-99.889	13.651	0.257	0.199
-98.874	-69.953	0.565	0.215
-97.859	324.582	0.039	0.075
-96.845	250.709	0.096	-0.163
-95.830	205.400	0.056	-0.087
-94.816	90.471	-0.191	0.213
-93.801	-63.942	-0.191	0.078
-92.786	565.845	-0.069	0.167
-91.772	12.444	-0.357	0.274
-90.757	88.798	-0.264	-0.292
-89.743	-200.000	0.023	-0.406
-88.728	527.064	-0.122	0.288
-87.713	-111.942	0.391	-0.079
-86.699	-200.000	0.026	-0.138
-85.684	-23.296	-0.245	0.147
-84.670	-54.144	0.102	-0.046
-83.655	485.386	0.091	-0.206
-82.640	155.703	-0.053	-0.073
-81.626	-82.955	-0.362	0.116
-80.611	-43.623	0.163	0.082
-79.597	800.000	-0.008	-0.030
-78.582	-16.125	-0.257	-0.163
-77.567	-86.789	-0.229	-0.070
-76.553	165.694	-0.171	-0.241
-75.538	-60.120	0.135	0.058
-74.524	-200.000	0.097	0.448
-73.509	542.002	-0.104	0.247
-72.494	-200.000	-0.059	-0.278
-71.480	43.361	-0.181	-0.164
-70.465	-164.029	0.181	-0.008
-69.451	-54.297	0.202	0.092
-68.436	356.821	-0.012	-0.024
-67.422	-129.366	0.203	0.028
-66.407	-69.593	0.325	0.124
-65.392	-86.447	0.027	-0.008
-64.378	167.343	-0.072	0.101
-63.363	29.060	0.087	0.073
-62.349	-30.690	0.094	-0.053
-61.334	45.602	-0.848	-0.780
-60.319	800.000	-0.170	0.523
-59.305	88.949	-0.359	-0.398
-58.290	146.731	0.426	0.570
-57.276	208.668	0.650	1.011
-56.261	-200.000	75.907	526.810
-55.246	508.311	1351.479	3123.279
-54.232	138.227	2602.613	3397.063
-53.217	118.052	2256.586	2767.647
-52.203	54.134	1684.252	1612.363
-51.188	45.683	1400.924	1288.252
-50.173	41.933	1353.959	1222.162
-49.159	60.189	1389.429	1367.105
-48.144	67.767	1407.915	1431.841
-47.130	46.193	1370.110	1262.852
-46.115	41.957	1353.541	1221.737
-45.100	41.615	1349.036	1215.540
-44.086	41.582	1346.204	1212.743
-43.071	41.557	1343.737	1210.321
-42.057	41.558	1341.313	1208.097
-41.042	41.468	1340.035	1206.351
-40.027	41.667	1337.741	1205.440
-39.013	41.720	1335.887	1204.041
-37.998	41.609	1334.276	1201.870
-36.984	41.741	1332.067	1200.629
-35.969	41.916	1330.374	1200.103
-34.954	41.886	1328.636	1198.312
-33.940	41.840	1327.441	1196.908
-32.925	41.762	1325.950	1195.050
-31.911	41.882	1324.100	1194.054
-30.896	41.806	1322.865	1192.436
-29.881	41.862	1321.347	1191.354
-28.867	41.920	1319.880	1190.332
-27.852	41.858	1318.298	1188.488
-26.838	41.985	1316.182	1187.289
-25.823	41.909	1315.099	1185.814
-24.809	41.846	1313.788	1184.209
-23.794	41.740	1312.584	1182.451
-22.779	41.861	1311.280	1181.944
-21.765	41.801	1309.987	1180.377
-20.750	41.857	1308.326	1179.164
-19.736	41.773	1307.344	1177.736
-18.721	41.761	1305.642	1176.086
-17.706	41.734	1305.107	1175.402
-16.692	41.732	1303.708	1174.082
-15.677	41.570	1302.857	1172.317
-14.663	41.742	1301.103	1171.702
-13.648	41.652	1300.425	1170.516
-12.633	41.648	1299.509	1169.625
-11.619	41.737	1298.245	1168.960
-10.604	41.748	1297.233	1168.066
-9.590	41.659	1295.936	1166.331
-8.575	41.645	1295.260	1165.598
-7.560	41.696	1294.456	1165.121
-6.546	41.726	1293.328	1164.237
-5.531	41.659	1292.476	1163.037
-4.517	41.625	1291.975	1162.342
-3.502	41.707	1290.603	1161.536
-2.487	41.622	1290.218	1160.651
-1.473	41.797	1286.420	1158.203
-0.458	41.126	1271.996	1141.320
0.556	35.838	1253.551	1102.479
1.571	31.860	1256.374	1081.966
2.586	30.099	1270.684	1083.901
3.600	28.231	1258.412	1062.508
4.615	23.834	1186.751	977.787
5.629	17.569	1110.868	882.815
6.644	14.119	1089.338	848.062
7.659	13.777	1086.692	844.191
8.673	13.710	1084.886	842.373
9.688	13.665	1083.500	840.993
10.702	13.982	1082.590	841.819
11.717	17.832	1088.212	865.685
12.731	21.991	1093.098	890.645
13.746	20.533	1089.399	880.174
14.761	17.783	1085.186	862.802
15.775	16.549	1082.712	854.525
16.790	15.517	1080.239	847.294
17.804	14.659	1078.817	841.779
18.819	14.189	1077.561	838.359
19.834	13.809	1076.548	835.582
20.848	13.609	1075.574	833.747
21.863	13.394	1074.308	831.610
22.877	13.186	1074.163	830.380
23.892	13.113	1073.635	829.533
24.907	13.171	1072.719	829.040
25.921	13.139	1071.680	828.004
26.936	13.267	1070.262	827.475
27.950	13.337	1068.125	826.102
28.965	13.323	1067.291	825.311
29.980	13.388	1065.517	824.195
30.994	13.308	1064.653	823.052
32.009	13.475	1063.471	822.898
33.023	13.407	1062.362	821.628
34.038	13.378	1061.284	820.578
35.053	13.505	1059.870	820.042
36.067	13.291	1059.732	818.799
37.082	13.330	1058.410	817.900
38.096	13.327	1058.066	817.550
39.111	13.269	1057.317	816.608
40.126	13.271	1055.780	815.360
41.140	13.132	1055.061	814.047
42.155	13.125	1053.557	812.783
43.169	13.114	1052.869	812.126
44.184	13.175	1051.289	811.135
45.199	13.052	1050.642	809.958
46.213	13.116	1049.721	809.493
47.228	13.200	1048.483	808.875
48.242	13.273	1046.930	807.965
49.257	13.396	1045.906	807.703
50.271	13.345	1045.166	806.812
51.286	13.380	1044.339	806.273
52.301	13.354	1043.165	805.167
53.315	13.224	1042.167	803.694
54.330	13.241	1041.333	803.062
55.344	13.247	1040.075	802.049
56.359	13.166	1039.355	801.032
57.374	13.119	1038.588	800.140
58.388	13.086	1037.930	799.404
59.403	13.087	1036.501	798.236
60.417	13.127	1035.936	797.924
61.432	13.036	1035.558	797.121
62.447	13.016	1034.424	796.084
63.461	13.107	1033.283	795.572
64.476	13.029	1032.756	794.721
65.490	12.978	1031.766	793.645
66.505	13.092	1030.939	793.483
67.520	13.065	1030.353	792.834
68.534	13.209	1029.169	792.543
69.549	13.104	1028.565	791.507
70.563	13.121	1027.931	791.029
71.578	13.016	1027.202	789.894
72.593	12.989	1026.468	789.131
73.607	12.865	1026.069	788.162
74.622	12.994	1025.200	788.042
75.636	12.958	1024.488	787.253
76.651	13.029	1023.688	786.908
77.666	13.032	1022.841	786.198
78.680	13.007	1022.362	785.646
79.695	13.021	1021.671	785.112
80.709	13.194	1020.986	785.336
81.724	13.091	1020.727	784.578
82.739	13.258	1019.494	784.354
83.753	13.323	1019.079	784.275
84.768	13.456	1017.887	783.918
85.782	13.415	1017.112	783.057
86.797	13.296	1016.309	781.805
87.812	13.183	1015.474	780.562
88.826	13.312	1014.708	780.511
89.841	13.401	1013.484	779.920
90.855	13.289	1012.756	778.762
91.870	13.341	1011.608	778.058
92.884	13.370	1010.805	777.509
93.899	13.451	1010.353	777.472
94.914	13.448	1009.506	776.736
95.928	13.363	1008.547	775.530
96.943	13.378	1007.713	774.891
97.957	13.341	1006.802	773.948
98.972	13.397	1005.865	773.423
99.987	13.341	1005.109	772.512
101.001	13.345	1003.710	771.385
102.016	13.387	1002.697	770.733
103.030	13.425	1002.278	770.523
104.045	13.398	1001.437	769.680
105.060	13.351	1000.341	768.553
106.074	13.260	999.742	767.600
107.089	13.170	998.817	766.406
108.103	13.194	997.793	765.666
109.118	13.159	996.614	764.531
110.133	13.183	995.809	763.957
111.147	13.194	994.798	763.160
112.162	13.191	994.028	762.493
113.176	13.260	993.133	762.054
114.191	13.307	992.467	761.692
115.206	13.272	991.891	761.023
116.220	13.372	990.381	760.255
117.235	13.203	989.703	758.893
118.249	13.284	988.758	758.472
119.264	13.481	987.816	758.585
120.279	13.239	987.365	757.065
121.293	13.271	986.754	756.672
122.308	13.270	985.690	755.787
123.322	13.287	984.553	754.926
124.337	13.168	983.677	753.645
125.352	13.115	983.072	752.872
126.366	13.193	981.504	751.959
127.381	13.257	980.661	751.540
128.395	13.343	979.837	751.234
129.410	13.317	978.960	750.375
130.424	13.219	978.034	749.155
131.439	13.333	977.313	749.052
132.454	13.348	976.555	748.473
133.468	13.452	975.519	748.081
134.483	13.471	974.674	747.455
135.497	13.443	973.898	746.667
136.512	13.406	973.299	745.974
137.527	13.442	972.519	745.473
138.541	13.526	971.665	745.131
139.556	13.420	970.983	744.064
140.570	13.477	970.088	743.571
141.585	13.600	969.438	743.557
142.600	13.619	968.081	742.536
143.614	13.755	967.391	742.548
144.629	13.683	967.233	742.039
145.643	13.599	965.816	740.513
146.658	13.708	964.531	739.946
147.673	13.409	963.975	738.123
148.687	13.504	962.733	737.531
149.702	13.368	962.305	736.531
150.716	13.394	961.372	735.865
151.731	13.501	960.334	735.483
152.746	13.426	960.140	734.937
153.760	13.484	959.271	734.461
154.775	13.451	958.553	733.703
155.789	13.491	958.290	733.612
156.804	13.360	957.913	732.680
157.819	13.637	956.552	732.797
158.833	13.569	956.199	732.164
159.848	13.738	955.232	732.102
160.862	13.675	954.472	731.179
161.877	13.560	953.323	729.727
162.892	13.500	952.571	728.821
163.906	13.451	951.632	727.825
164.921	13.539	950.423	727.222
165.935	13.510	949.632	726.423
166.950	13.656	948.753	726.330
167.964	13.476	948.040	724.932
168.979	13.543	947.207	724.523
169.994	13.522	946.130	723.541
171.008	13.588	945.476	723.268
172.023	13.853	944.918	723.933
173.037	13.738	944.136	722.767
174.052	13.644	943.470	721.783
175.067	13.606	943.113	721.280
176.081	13.511	942.452	720.298
177.096	13.533	941.845	719.866
178.110	13.764	940.595	719.850
179.125	13.799	940.084	719.546
180.140	13.687	939.724	718.723
181.154	13.721	939.362	718.529
182.169	13.671	938.725	717.761
183.183	13.770	938.135	717.676
184.198	13.633	937.903	716.842
185.213	13.721	937.115	716.556
186.227	13.886	935.990	716.344
187.242	14.045	935.250	716.403
188.256	13.957	934.742	715.569
189.271	13.984	933.513	714.680
190.286	13.772	932.991	713.308
191.300	13.675	932.289	712.289
192.315	13.742	931.830	712.166
193.329	13.578	931.315	711.003
194.344	13.741	930.725	711.191
195.359	13.768	930.042	710.721
196.373	13.905	929.349	710.714
197.388	13.879	929.018	710.289
198.402	14.013	928.434	710.349
199.417	14.041	927.714	709.858
200.432	14.047	927.430	709.601
201.446	14.120	927.061	709.568
202.461	14.168	926.680	709.419
203.475	14.032	925.938	708.210
204.490	14.032	925.112	707.515
205.504	14.082	923.909	706.745
206.519	14.023	923.163	705.859
207.534	14.030	922.960	705.674
208.548	14.020	922.274	705.043
209.563	14.020	921.921	704.709
210.577	14.180	920.617	704.329
211.592	14.250	919.680	703.845
212.607	14.245	919.266	703.446
213.621	14.268	918.445	702.853
214.636	14.146	918.062	701.981
215.650	14.277	917.058	701.704
216.665	14.316	916.162	701.122
217.680	14.237	915.744	700.405
218.694	14.397	915.583	700.894
219.709	14.454	914.344	700.124
220.723	14.309	913.718	698.975
221.738	14.312	913.220	698.545
222.753	14.406	912.162	698.066
223.767	14.334	911.992	697.573
224.782	14.401	911.359	697.307
225.796	14.462	910.747	697.034
226.811	14.411	910.231	696.363
227.826	14.309	909.607	695.399
228.840	14.474	908.189	694.940
229.855	14.527	907.486	694.559
230.869	14.321	906.875	693.175
231.884	14.509	906.039	693.257
232.899	14.387	905.475	692.258
233.913	14.534	904.793	692.282
234.928	14.424	904.077	691.221
235.942	14.359	903.678	690.584
236.957	14.403	902.871	690.090
237.972	14.546	902.445	690.293
238.986	14.349	901.805	688.928
240.001	14.446	901.130	688.751
241.015	14.403	900.693	688.178
242.030	14.635	899.476	688.147
243.045	14.514	899.248	687.412
244.059	14.630	898.742	687.441
245.074	14.618	898.120	686.857
246.088	14.628	897.225	686.150
247.103	14.659	896.417	685.599
248.117	14.707	896.132	685.516
249.132	14.797	895.535	685.370
250.147	14.934	894.441	685.033
251.161	14.846	894.187	684.418
252.176	14.976	893.789	684.584
253.190	14.835	893.000	683.345
254.205	14.888	892.136	682.836
255.220	14.982	891.885	682.967
256.234	14.901	891.294	682.126
257.249	14.889	890.599	681.483
258.263	15.046	889.566	681.273
259.278	15.072	888.912	680.816
260.293	15.042	888.660	680.444
261.307	15.084	887.994	680.043
262.322	15.129	887.025	679.423
263.336	15.182	886.256	678.990
264.351	15.189	885.270	678.202
265.366	15.088	885.123	677.621
266.380	15.200	884.487	677.526
267.395	15.225	883.813	677.050
268.409	15.141	883.092	676.099
269.424	15.289	882.143	675.911
270.439	15.178	881.743	675.097
271.453	15.205	880.920	674.516
272.468	15.127	880.534	673.846
273.482	15.067	880.274	673.348
274.497	15.072	879.552	672.754
275.512	15.119	878.888	672.376
276.526	15.091	878.547	671.945
277.541	15.309	877.789	672.178
278.555	15.377	876.998	671.786
279.570	15.315	876.862	671.375
280.585	15.280	875.995	670.511
281.599	15.316	874.929	669.780
282.614	15.509	874.096	669.851
283.628	15.329	873.650	668.734
284.643	15.327	873.272	668.378
285.657	15.358	872.463	667.821
286.672	15.385	872.078	667.574
287.687	15.259	871.396	666.494
288.701	15.456	870.648	666.645
289.716	15.401	870.275	666.082
290.730	15.447	869.693	665.761
291.745	15.409	869.195	665.169
292.760	15.517	868.654	665.122
293.774	15.534	868.002	664.632
294.789	15.426	867.445	663.720
295.803	15.455	866.411	662.984
296.818	15.484	865.737	662.524
297.833	15.512	865.227	662.185
298.847	15.399	865.061	661.557
299.862	15.529	863.989	661.188
300.876	15.586	863.770	661.189
301.891	15.730	862.749	660.914
302.906	15.716	862.355	660.496
303.920	15.683	861.837	659.914
304.935	15.872	860.979	659.938
305.949	15.776	860.459	659.107
306.964	15.740	860.192	658.700
307.979	15.739	859.473	658.090
308.993	15.835	858.825	657.909
310.008	15.834	858.136	657.321
311.022	15.794	857.577	656.680
312.037	15.771	857.196	656.238
313.052	15.742	856.491	655.529
314.066	15.775	855.977	655.203
315.081	15.714	855.441	654.500
316.095	15.932	854.273	654.395
317.110	15.733	853.909	653.283
318.125	15.757	853.678	653.144
319.139	15.961	852.921	653.297
320.154	15.726	852.686	652.149
321.168	15.783	852.236	651.969
322.183	15.870	851.368	651.584
323.197	15.890	851.008	651.326
324.212	15.932	850.348	650.926
325.227	16.019	849.768	650.759
326.241	15.887	849.202	649.761
327.256	15.805	848.921	649.174
328.270	15.956	848.190	649.137
329.285	16.008	847.489	648.744
330.300	15.915	846.871	647.856
331.314	15.923	846.413	647.480
332.329	16.030	845.954	647.482
333.343	15.921	845.706	646.815
334.358	15.999	845.387	646.814
335.373	16.131	844.846	646.851
336.387	16.043	844.635	646.291
337.402	16.066	844.123	645.933
338.416	16.179	844.103	646.293
339.431	16.129	843.580	645.642
340.446	16.112	843.104	645.157
341.460	16.181	842.756	645.098
342.475	16.244	842.542	645.116
343.489	16.244	842.102	644.724
344.504	16.395	841.543	644.814
345.519	16.432	840.728	644.275
346.533	16.390	840.235	643.680
347.548	16.225	840.009	642.821
348.562	16.365	839.158	642.644
349.577	16.378	838.491	642.127
350.592	16.279	837.971	641.296
351.606	16.377	837.016	640.880
352.621	16.250	836.560	639.991
353.635	16.235	836.004	639.455
354.650	16.311	835.341	639.176
355.665	16.442	834.766	639.178
356.679	16.377	834.241	638.472
357.694	16.422	833.984	638.391
358.708	16.400	832.921	637.437
359.723	16.343	832.349	636.726
360.738	16.379	831.916	636.477
361.752	16.513	831.186	636.366
362.767	16.548	830.707	636.073
363.781	16.579	830.055	635.635
364.796	16.613	829.873	635.565
365.810	16.691	828.944	635.093
366.825	16.650	828.984	634.912
367.840	16.721	828.481	634.738
368.854	16.817	827.935	634.623
369.869	16.750	827.307	633.835
370.883	16.814	827.262	633.983
371.898	16.773	826.906	633.502
372.913	16.663	826.653	632.837
373.927	16.753	825.697	632.386
374.942	16.743	825.303	631.991
375.956	16.758	825.179	631.897
376.971	16.948	824.223	631.819
377.986	16.939	823.952	631.519
379.000	16.971	823.547	631.272
380.015	17.028	822.958	630.977
381.029	16.959	822.254	630.126
382.044	17.041	821.651	629.913
383.059	17.072	821.046	629.509
384.073	16.986	820.668	628.842
385.088	17.115	819.713	628.535
386.102	16.905	819.496	627.533
387.117	17.004	818.981	627.450
388.132	17.025	818.124	626.815
389.146	17.067	817.681	626.575
390.161	17.015	817.483	626.175
391.175	17.022	816.852	625.663
392.190	16.915	816.621	625.038
393.205	17.027	815.817	624.779
394.219	16.891	815.776	624.192
395.234	16.941	815.381	624.020
396.248	16.919	814.909	623.522
397.263	16.901	814.483	623.072
398.278	16.908	814.005	622.677
399.292	16.951	813.533	622.420
400.307	16.971	813.114	622.117
401.321	17.026	812.565	621.843
402.336	17.030	812.070	621.424
403.350	16.998	811.892	621.117
404.365	17.172	811.147	621.127
405.380	17.078	810.771	620.441
406.394	17.320	810.014	620.689
407.409	17.319	809.798	620.468
408.423	17.258	809.730	620.136
409.438	17.373	809.235	620.123
410.453	17.285	809.155	619.684
411.467	17.386	808.071	619.170
412.482	17.387	807.823	618.927
413.496	17.377	807.550	618.627
414.511	17.499	806.837	618.470
415.526	17.487	806.615	618.199
416.540	17.623	805.593	617.856
417.555	17.541	805.547	617.468
418.569	17.590	805.211	617.333
419.584	17.579	804.621	616.787
420.599	17.618	804.163	616.524
421.613	88.668	1258.605	1348.953
422.628	75.674	1324.829	1349.092
