DTS Sentinel unit serial number:	SN413079Multiplexer serial number:	ORYXHardware model number:	OX4-SRSoftware version number:	ORYX F/W v4.00 Oryx Data Collector v3.7.2.0data status	okinstallation	princeton_trtdifferential loss correction	single-endedforward channel	channel 1reverse channel	N/Adate	2019/09/12time	18:46:34forward acquisition time	15.00reverse acquisition time	0.00gamma	496.2192k internal	0.2319k external	0.2319temperature offset calibration	1.0102default loss term (dB/km)	0.3790temperature slope calibration	1.0000multiplexer offset coefficient	1.0000multiplexer slope coefficient	1.0000fibre end	0.00T internal ref (°C)	33.00T ext. ref 1 (°C)	2.98T ext. ref 2 (°C)	27.47length (m)	temperature (°C)	Stokes	anti-Stokes-747.200	112.907	-0.252	0.309
-746.185	1.154	-0.293	0.212
-745.171	-99.881	0.836	0.211
-744.156	318.957	-0.674	-1.293
-743.142	-200.000	-0.140	0.877
-742.127	-67.084	-0.995	-0.397
-741.112	-145.403	0.492	-0.045
-740.098	-200.000	-0.089	-0.532
-739.083	-44.712	-0.855	0.432
-738.069	-23.735	-0.395	0.240
-737.054	28.859	0.702	0.601
-736.039	-84.455	0.151	-0.048
-735.025	-122.787	-0.264	0.043
-734.010	800.000	-0.056	-0.232
-732.996	501.784	-0.505	-1.179
-731.981	127.219	-0.433	-0.555
-730.966	-52.825	-0.666	0.310
-729.952	351.763	-0.287	-0.575
-728.937	-47.295	-0.397	0.195
-727.923	615.118	-0.230	-0.582
-726.908	-27.941	-0.461	0.270
-725.894	-99.335	-0.349	0.089
-724.879	-200.000	0.015	-0.501
-723.864	800.000	-0.062	-0.254
-722.850	275.484	-0.203	0.363
-721.835	208.672	0.212	-0.335
-720.821	637.986	-0.275	-0.706
-719.806	-37.268	-0.413	0.223
-718.791	-186.834	-0.248	-0.004
-717.777	25.773	-0.577	-0.486
-716.762	-200.000	0.098	0.640
-715.748	24.735	-0.756	0.633
-714.733	800.000	-0.179	0.621
-713.718	-200.000	0.017	0.339
-712.704	-200.000	0.040	0.404
-711.689	800.000	0.114	-0.330
-710.675	-103.953	-0.267	-0.063
-709.660	-22.676	0.852	-0.520
-708.645	69.260	-0.632	0.657
-707.631	-118.858	0.850	0.151
-706.616	-200.000	0.000	-0.581
-705.602	50.530	0.249	0.238
-704.587	-93.556	-0.745	0.208
-703.572	-200.000	0.090	-0.774
-702.558	10.463	-0.693	0.533
-701.543	101.113	0.345	0.406
-700.529	749.865	0.362	-0.987
-699.514	22.060	-0.137	0.113
-698.499	-27.713	-0.435	0.255
-697.485	236.277	-0.230	0.384
-696.470	623.017	0.170	0.433
-695.456	59.364	0.278	0.276
-694.441	-85.353	0.518	0.163
-693.426	182.392	-0.230	-0.342
-692.412	-28.162	-0.267	-0.156
-691.397	43.134	-0.662	-0.610
-690.383	800.000	-0.065	-0.207
-689.368	-69.454	-0.471	0.182
-688.354	366.289	-0.231	-0.471
-687.339	303.340	0.197	-0.369
-686.324	-170.960	-0.887	0.031
-685.310	-29.419	0.104	-0.060
-684.295	119.024	-0.504	0.629
-683.281	-81.925	0.691	-0.228
-682.266	64.811	-0.931	-0.948
-681.251	800.000	-0.173	-0.619
-680.237	-14.354	-0.546	-0.355
-679.222	-10.685	0.315	0.210
-678.208	-200.000	0.048	0.427
-677.193	479.640	-0.100	-0.230
-676.178	49.083	-0.575	-0.545
-675.164	-31.547	0.372	-0.211
-674.149	-150.770	0.117	-0.009
-673.135	800.000	-0.114	-0.326
-672.120	775.827	0.061	0.167
-671.105	-38.184	0.644	0.345
-670.091	-25.353	0.460	-0.274
-669.076	-91.353	-0.713	-0.206
-668.062	800.000	-0.105	0.317
-667.047	38.330	-0.176	-0.158
-666.032	-89.485	-0.124	-0.037
-665.018	167.797	-0.340	-0.487
-664.003	54.808	-0.207	-0.201
-662.989	55.072	0.799	-0.779
-661.974	325.211	-0.064	-0.123
-660.959	-99.442	0.455	0.116
-659.945	-200.000	0.052	-0.511
-658.930	-153.283	0.464	0.033
-657.916	-200.000	-0.004	-0.073
-656.901	78.534	-0.405	0.436
-655.886	213.461	0.132	-0.210
-654.872	-25.973	-0.803	-0.476
-653.857	-131.141	-0.275	0.037
-652.843	32.787	0.135	0.117
-651.828	-200.000	0.009	0.466
-650.814	-95.894	0.583	0.157
-649.799	-50.599	0.124	0.059
-648.784	102.125	0.151	-0.178
-647.770	422.024	0.230	-0.498
-646.755	-153.401	-0.220	0.015
-645.741	17.347	0.835	-0.668
-644.726	25.726	-0.307	0.257
-643.711	466.618	-0.217	0.491
-642.697	800.000	-0.160	0.648
-641.682	-200.000	0.062	0.782
-640.668	-22.849	-0.303	-0.184
-639.653	297.664	0.214	0.397
-638.638	-200.000	0.002	-0.125
-637.624	32.971	-0.368	0.321
-636.609	-135.556	0.913	-0.109
-635.595	-178.533	-0.789	-0.018
-634.580	79.266	0.221	0.239
-633.565	800.000	-0.060	0.193
-632.551	-161.724	0.779	0.040
-631.536	-113.870	0.298	-0.058
-630.522	622.103	0.226	-0.572
-629.507	488.262	-0.519	1.193
-628.492	-108.479	-0.693	0.150
-627.478	-177.381	0.682	-0.017
-626.463	800.000	-0.145	0.438
-625.449	-200.000	-0.002	0.358
-624.434	33.920	-0.223	0.196
-623.419	140.238	-0.311	-0.413
-622.405	212.494	0.200	-0.318
-621.390	-20.760	0.933	-0.576
-620.376	134.555	-0.128	-0.167
-619.361	-200.000	-0.179	-0.866
-618.346	-93.036	-0.773	0.217
-617.332	-101.076	0.924	0.228
-616.317	117.625	-0.162	0.201
-615.303	-144.684	0.447	0.041
-614.288	-200.000	0.089	-0.871
-613.273	-35.929	0.378	-0.206
-612.259	-74.321	0.217	-0.079
-611.244	661.713	-0.062	-0.161
-610.230	-36.089	-0.879	-0.478
-609.215	-135.024	0.630	0.076
-608.201	-155.138	-0.506	-0.033
-607.186	-200.000	-0.056	-0.532
-606.171	-73.966	-0.734	-0.268
-605.157	-60.168	0.292	0.125
-604.142	-77.128	0.973	-0.341
-603.128	279.343	-0.216	-0.388
-602.113	6.161	0.166	-0.124
-601.098	800.000	-0.013	0.049
-600.084	-181.135	-0.671	-0.013
-599.069	-91.584	-0.591	-0.169
-598.055	-18.458	-0.517	0.325
-597.040	-103.898	0.913	-0.214
-596.025	51.054	0.964	-0.920
-595.011	269.796	0.308	0.544
-593.996	-60.185	-0.474	-0.203
-592.982	187.548	0.283	0.425
-591.967	-200.000	-0.028	0.548
-590.952	54.845	-0.450	-0.436
-589.938	341.374	0.298	-0.586
-588.923	329.347	0.393	0.760
-587.909	-45.470	-0.177	0.088
-586.894	536.093	-0.201	-0.479
-585.879	280.055	0.538	-0.966
-584.865	800.000	-0.157	-0.466
-583.850	-179.798	0.439	0.010
-582.836	-52.431	0.517	0.240
-581.821	-152.185	-0.385	0.028
-580.806	-200.000	-0.007	0.281
-579.792	631.563	-0.107	0.273
-578.777	396.695	-0.182	-0.382
-577.763	-200.000	0.025	0.834
-576.748	760.064	0.165	-0.449
-575.733	142.731	0.203	-0.271
-574.719	800.000	0.142	-0.444
-573.704	47.062	-0.437	-0.409
-572.690	-151.136	-0.858	0.065
-571.675	-67.695	0.660	0.260
-570.661	-193.325	-0.601	-0.005
-569.646	27.060	1.029	0.868
-568.631	-101.648	-0.574	0.140
-567.617	-58.114	-0.387	0.170
-566.602	679.318	0.175	0.458
-565.588	-28.813	0.389	-0.225
-564.573	-155.645	0.410	-0.026
-563.558	-8.439	-0.067	0.045
-562.544	35.335	0.088	-0.077
-561.529	50.557	0.229	0.218
-560.515	800.000	0.111	-0.453
-559.500	266.383	-0.341	0.599
-558.485	-200.000	0.034	0.574
-557.471	30.504	-0.326	0.280
-556.456	-127.145	0.797	-0.117
-555.442	-48.669	-0.272	-0.131
-554.427	-94.009	-0.657	-0.181
-553.412	169.418	-0.250	-0.359
-552.398	-136.574	0.735	0.085
-551.383	1.357	0.310	0.223
-550.369	-122.727	-0.850	0.138
-549.354	254.277	0.468	-0.804
-548.339	-167.715	-0.367	-0.015
-547.325	-137.033	-0.765	0.088
-546.310	800.000	-0.195	-0.543
-545.296	-47.478	0.079	0.038
-544.281	-40.717	0.958	-0.498
-543.266	79.251	0.758	-0.816
-542.252	182.599	0.273	-0.404
-541.237	-32.982	-0.553	0.308
-540.223	14.541	-0.406	0.318
-539.208	93.733	-0.428	0.486
-538.193	-200.000	0.098	-0.804
-537.179	13.604	0.262	-0.204
-536.164	64.890	-0.120	-0.121
-535.150	686.914	0.401	-1.052
-534.135	-200.000	-0.113	-0.704
-533.121	800.000	-0.183	-0.543
-532.106	192.876	-0.066	-0.100
-531.091	-157.078	-0.911	-0.056
-530.077	78.273	-0.099	-0.106
-529.062	78.868	0.303	0.325
-528.048	267.245	0.177	0.310
-527.033	32.277	-0.244	0.211
-526.018	43.190	0.554	0.508
-525.004	210.688	-0.166	0.261
-523.989	-200.000	0.066	-0.838
-522.975	285.138	0.235	-0.425
-521.960	24.829	-0.174	0.145
-520.945	-69.209	-0.647	0.250
-519.931	-200.000	0.019	1.018
-518.916	708.389	0.244	-0.646
-517.902	64.306	0.124	-0.125
-516.887	-200.000	-0.011	-0.387
-515.872	85.739	-0.190	0.210
-514.858	142.134	0.386	0.514
-513.843	-48.354	0.530	-0.256
-512.829	772.061	-0.243	0.665
-511.814	32.764	0.271	-0.235
-510.799	36.252	-0.469	0.414
-509.785	148.750	0.211	0.286
-508.770	800.000	-0.132	-0.466
-507.756	641.882	0.374	-0.956
-506.741	-6.430	0.703	-0.481
-505.726	-142.433	-0.652	-0.064
-504.712	-200.000	-0.091	-0.481
-503.697	103.979	-0.270	0.318
-502.683	-12.454	-0.591	0.387
-501.668	800.000	0.049	0.178
-500.653	-15.613	-0.337	-0.215
-499.639	-189.000	0.548	-0.007
-498.624	20.031	-0.280	0.227
-497.610	800.000	0.056	0.186
-496.595	-99.050	-0.224	-0.057
-495.581	261.413	-0.481	0.835
-494.566	-99.945	-0.254	-0.063
-493.551	-7.642	-0.299	-0.202
-492.537	218.260	-0.316	0.505
-491.522	-124.814	-0.553	-0.086
-490.508	-116.751	0.496	0.091
-489.493	109.685	0.092	0.111
-488.478	800.000	-0.080	0.243
-487.464	-74.654	-0.159	0.057
-486.449	99.606	-0.244	0.283
-485.435	120.310	0.497	-0.618
-484.420	800.000	0.166	-0.614
-483.405	-89.440	-0.323	0.095
-482.391	800.000	0.042	0.178
-481.376	-70.394	-0.118	-0.045
-480.362	405.244	-0.323	-0.681
-479.347	51.781	-0.460	-0.438
-478.332	-165.088	-0.276	0.012
-477.318	299.348	0.261	-0.480
-476.303	87.060	-0.103	0.114
-475.289	-105.439	-0.978	0.223
-474.274	75.513	0.147	0.155
-473.259	-42.178	-0.293	0.150
-472.245	-159.032	0.095	0.005
-471.230	-101.030	-0.257	-0.063
-470.216	-200.000	0.020	0.687
-469.201	-119.574	0.375	0.065
-468.186	-75.791	-0.791	0.281
-467.172	-88.484	1.045	0.312
-466.157	800.000	0.369	1.020
-465.143	-123.520	0.640	0.102
-464.128	-200.000	-0.060	0.616
-463.113	-200.000	0.090	0.497
-462.099	22.097	0.359	-0.293
-461.084	264.842	0.388	-0.676
-460.070	-88.796	-0.590	-0.175
-459.055	597.268	0.134	-0.333
-458.040	65.522	-0.225	0.228
-457.026	-200.000	-0.016	-0.263
-456.011	-116.316	0.215	-0.040
-454.997	-176.029	-0.597	-0.016
-453.982	-200.000	-0.023	0.270
-452.968	-13.538	-0.211	0.137
-451.953	268.685	-0.136	0.238
-450.938	-128.898	0.074	0.010
-449.924	-200.000	-0.072	0.493
-448.909	-200.000	0.390	-0.001
-447.895	-200.000	0.063	-0.333
-446.880	195.331	0.279	-0.424
-445.865	29.309	-0.457	0.389
-444.851	43.779	0.316	-0.290
-443.836	-81.233	0.667	-0.220
-442.822	-128.434	0.352	0.050
-441.807	800.000	-0.209	0.598
-440.792	9.352	-0.421	0.318
-439.778	454.808	-0.191	-0.423
-438.763	-86.084	-0.392	0.121
-437.749	-200.000	-0.024	-0.210
-436.734	-200.000	0.046	-0.214
-435.719	216.322	-0.433	-0.688
-434.705	-94.344	-1.221	0.333
-433.690	717.021	-0.105	-0.280
-432.676	-200.000	-0.004	0.814
-431.661	-200.000	-0.054	1.038
-430.646	-200.000	0.114	0.565
-429.632	-89.342	-0.765	-0.225
-428.617	-108.468	0.718	0.154
-427.603	555.373	0.437	1.052
-426.588	-29.097	-0.468	0.268
-425.573	-85.624	-0.429	-0.133
-424.559	-172.030	-0.643	-0.021
-423.544	-200.000	-0.180	0.942
-422.530	-200.000	0.086	-0.577
-421.515	24.512	-0.184	-0.152
-420.500	800.000	-0.099	0.362
-419.486	-200.000	-0.084	-0.745
-418.471	800.000	0.292	0.929
-417.457	-143.469	0.780	-0.074
-416.442	-35.919	-0.105	0.057
-415.428	-200.000	0.011	0.809
-414.413	-147.109	-0.957	-0.082
-413.398	115.056	0.049	0.060
-412.384	800.000	-0.101	-0.304
-411.369	117.035	0.384	0.471
-410.355	120.847	-0.466	0.579
-409.340	-200.000	-0.753	-0.000
-408.325	-200.000	-0.076	0.499
-407.311	-55.842	0.734	-0.328
-406.296	-200.000	0.067	0.538
-405.282	-146.089	0.363	0.032
-404.267	369.110	-0.124	0.250
-403.252	-106.970	-0.174	-0.039
-402.238	-8.586	-0.946	-0.635
-401.223	-200.000	-0.045	-0.217
-400.209	-200.000	0.149	1.071
-399.194	749.147	-0.280	0.755
-398.179	-71.409	0.474	0.177
-397.165	-105.188	0.488	0.111
-396.150	-200.000	0.192	-0.903
-395.136	-61.451	0.965	-0.405
-394.121	300.197	-0.132	-0.243
-393.106	-200.000	-0.003	0.238
-392.092	-130.281	-0.080	0.011
-391.077	-54.142	-0.307	-0.139
-390.063	178.832	-0.512	-0.746
-389.048	-200.000	0.051	-0.688
-388.033	-83.239	-0.395	-0.127
-387.019	-200.000	-0.007	-0.814
-386.004	-128.777	0.246	-0.035
-384.990	-40.537	-0.614	-0.318
-383.975	716.450	0.317	-0.840
-382.960	-83.816	-1.068	-0.340
-381.946	-28.958	0.237	0.136
-380.931	-134.898	-0.249	-0.030
-379.917	47.829	-0.236	0.220
-378.902	-198.419	-0.608	-0.003
-377.888	-133.297	0.333	-0.042
-376.873	677.247	0.329	-0.854
-375.858	-2.115	0.959	-0.671
-374.844	800.000	0.204	-0.841
-373.829	800.000	-0.170	0.554
-372.815	259.026	-0.211	0.363
-371.800	-156.435	-0.286	0.018
-370.785	-200.000	-0.029	-0.440
-369.771	-121.270	-0.319	-0.053
-368.756	60.956	0.612	-0.605
-367.742	-93.390	-0.213	-0.059
-366.727	36.572	0.400	0.352
-365.712	159.949	0.302	-0.420
-364.698	127.551	0.065	0.082
-363.683	800.000	-0.172	0.485
-362.669	24.583	0.372	0.307
-361.654	-142.614	0.692	0.067
-360.639	-115.834	0.793	0.148
-359.625	800.000	0.333	0.924
-358.610	-12.460	-0.162	-0.106
-357.596	75.116	0.260	-0.273
-356.581	-200.000	0.013	-0.453
-355.566	-18.844	0.173	-0.107
-354.552	-13.569	0.880	-0.568
-353.537	-100.396	0.465	-0.115
-352.523	-84.486	0.691	-0.217
-351.508	36.988	0.510	0.449
-350.493	58.892	0.265	-0.260
-349.479	-68.817	0.372	-0.143
-348.464	173.718	0.326	0.469
-347.450	-200.000	-0.143	-0.895
-346.435	-119.862	0.542	-0.093
-345.420	-200.000	-0.034	0.308
-344.406	12.250	0.294	-0.226
-343.391	-89.049	0.400	-0.118
-342.377	360.370	0.371	0.740
-341.362	96.930	-0.207	-0.236
-340.348	-200.000	-0.153	-0.728
-339.333	-113.896	0.736	-0.142
-338.318	27.583	-0.643	0.539
-337.304	139.742	0.133	-0.175
-336.289	-200.000	0.113	0.658
-335.275	-110.425	-0.868	-0.179
-334.260	-64.872	0.792	-0.319
-333.245	-56.505	1.394	0.616
-332.231	-121.235	-0.312	-0.052
-331.216	800.000	-0.123	-0.341
-330.202	290.304	0.123	0.223
-329.187	389.316	0.246	0.507
-328.172	-35.588	-0.182	0.098
-327.158	127.297	-0.114	-0.144
-326.143	197.037	-0.224	-0.340
-325.129	-75.296	-0.206	-0.073
-324.114	-200.000	-0.111	0.835
-323.099	800.000	0.231	-0.753
-322.085	-91.076	-0.533	-0.152
-321.070	-118.267	0.119	0.021
-320.056	-200.000	-0.033	-0.404
-319.041	49.021	0.252	-0.236
-318.026	-110.087	0.606	0.126
-317.012	-94.804	-0.377	0.102
-315.997	74.417	-0.750	0.784
-314.983	-161.777	-0.271	-0.014
-313.968	-132.823	0.150	-0.019
-312.953	-44.934	-0.289	-0.143
-311.939	-117.272	-1.126	0.203
-310.924	-200.000	-0.129	-0.775
-309.910	-200.000	0.014	0.083
-308.895	33.311	-0.533	0.460
-307.880	-28.790	-0.416	-0.238
-306.866	-194.558	-0.332	-0.003
-305.851	-59.709	-0.712	0.303
-304.837	-200.000	-0.035	0.659
-303.822	-56.709	0.860	0.379
-302.807	100.124	-0.014	0.017
-301.793	-91.891	0.896	-0.253
-300.778	-157.775	-0.598	-0.035
-299.764	800.000	0.072	-0.272
-298.749	91.988	0.276	0.309
-297.735	-118.660	0.646	0.113
-296.720	-16.513	0.342	-0.215
-295.705	268.744	-0.184	0.321
-294.691	800.000	0.167	-0.656
-293.676	115.843	-0.408	-0.497
-292.662	-126.753	-0.534	-0.078
-291.647	-200.000	-0.080	-0.609
-290.632	334.859	-0.174	0.334
-289.618	-12.905	-0.301	-0.195
-288.603	-103.793	-0.298	-0.069
-287.589	210.185	-0.130	0.203
-286.574	-200.000	-0.064	-0.722
-285.559	-22.696	0.767	0.460
-284.545	120.833	0.341	0.421
-283.530	-3.955	-0.390	0.269
-282.516	-51.637	-1.026	0.476
-281.501	-200.000	-0.082	-0.429
-280.486	-200.000	-0.002	0.338
-279.472	84.283	0.329	0.357
-278.457	-164.264	-0.399	0.018
-277.443	527.720	-0.322	0.754
-276.428	-27.691	0.781	0.450
-275.413	800.000	0.138	0.476
-274.399	28.606	0.485	-0.408
-273.384	800.000	-0.217	-0.913
-272.370	-12.726	-0.217	-0.140
-271.355	-18.546	-0.415	0.257
-270.340	84.577	0.818	-0.889
-269.326	-39.254	0.825	-0.430
-268.311	800.000	0.152	0.496
-267.297	800.000	-0.090	0.356
-266.282	7.512	-0.576	0.427
-265.267	9.277	0.696	0.522
-264.253	800.000	-0.194	-0.611
-263.238	36.996	0.438	0.384
-262.224	133.593	-0.318	-0.408
-261.209	250.216	0.409	0.689
-260.195	-96.315	-0.417	-0.110
-259.180	-87.653	0.428	-0.128
-258.165	-71.377	-0.330	0.123
-257.151	620.387	-0.190	-0.475
-256.136	-11.827	0.552	0.360
-255.122	-125.455	-1.120	0.169
-254.107	361.985	0.308	0.613
-253.092	-128.896	0.936	0.130
-252.078	800.000	-0.101	0.371
-251.063	55.809	0.354	-0.341
-250.049	-75.134	-0.700	0.248
-249.034	-200.000	-0.022	-0.298
-248.019	-163.050	0.889	0.043
-247.005	-200.000	0.025	-0.160
-245.990	404.753	0.337	-0.704
-244.976	800.000	-0.044	-0.169
-243.961	800.000	-0.032	0.124
-242.946	27.583	0.355	-0.297
-241.932	800.000	0.204	-0.628
-240.917	800.000	-0.021	-0.077
-239.903	153.439	0.173	-0.235
-238.888	60.822	-0.129	0.127
-237.873	-200.000	-0.042	-0.267
-236.859	251.100	-0.412	-0.695
-235.844	-156.435	0.510	0.032
-234.830	-53.701	-0.461	0.209
-233.815	-59.224	-0.599	0.256
-232.800	-200.000	0.023	0.534
-231.786	-105.143	-0.915	-0.207
-230.771	-94.813	0.673	0.181
-229.757	-200.000	-0.013	-0.112
-228.742	-200.000	0.028	-0.570
-227.727	-14.279	-0.290	0.185
-226.713	530.100	-0.214	-0.502
-225.698	-62.934	0.387	-0.159
-224.684	294.731	0.485	-0.880
-223.669	267.824	-0.177	0.307
-222.655	-61.070	0.485	-0.203
-221.640	58.354	-0.523	0.508
-220.625	-102.605	-0.807	-0.191
-219.611	-73.860	-0.451	0.162
-218.596	-120.829	0.496	0.083
-217.582	-7.915	0.177	0.118
-216.567	130.026	-0.374	0.475
-215.552	154.423	0.297	0.404
-214.538	-200.000	0.069	0.805
-213.523	31.101	-0.127	0.108
-212.509	-70.460	0.381	0.143
-211.494	-79.355	-0.499	0.167
-210.479	108.219	-0.545	0.644
-209.465	116.028	-0.035	-0.042
-208.450	800.000	-0.194	0.806
-207.436	93.017	-0.299	0.334
-206.421	7.049	-0.122	-0.090
-205.406	200.193	-0.133	0.202
-204.392	-3.751	-0.476	-0.327
-203.377	225.261	0.272	-0.436
-202.363	-66.117	-0.025	-0.010
-201.348	800.000	-0.207	-0.734
-200.333	-147.303	-0.242	-0.020
-199.319	-80.922	0.132	-0.043
-198.304	-200.000	0.026	0.246
-197.290	800.000	-0.196	0.574
-196.275	36.659	0.309	-0.270
-195.260	-130.323	-0.582	-0.078
-194.246	361.710	0.183	-0.363
-193.231	800.000	0.281	-0.770
-192.217	-28.728	0.361	-0.206
-191.202	115.048	0.292	0.352
-190.187	-73.996	0.022	0.008
-189.173	-200.000	0.048	0.210
-188.158	-94.248	0.705	0.191
-187.144	99.114	0.335	0.384
-186.129	18.277	0.430	0.340
-185.114	-200.000	0.040	0.713
-184.100	125.919	0.116	-0.145
-183.085	-50.799	0.532	-0.248
-182.071	-200.000	0.220	0.973
-181.056	-200.000	-0.149	0.894
-180.042	-65.222	0.871	0.347
-179.027	-178.316	-0.749	0.017
-178.012	748.998	0.303	0.807
-176.998	295.211	-0.354	0.641
-175.983	111.346	0.247	-0.294
-174.969	46.401	-0.300	-0.275
-173.954	-200.000	-0.009	-0.681
-172.939	-91.818	-0.751	0.211
-171.925	-200.000	0.010	-0.614
-170.910	-126.496	0.098	0.014
-169.896	14.636	-0.466	-0.360
-168.881	134.615	-0.429	-0.551
-167.866	-16.883	-0.761	-0.476
-166.852	-70.075	0.299	-0.113
-165.837	-58.805	-1.052	-0.450
-164.823	-200.000	0.153	-0.846
-163.808	281.669	0.181	-0.320
-162.793	-118.058	0.830	0.147
-161.779	-87.024	1.272	0.383
-160.764	722.856	-0.204	0.537
-159.750	292.461	0.349	0.628
-158.735	471.699	-0.188	0.417
-157.720	212.631	-0.157	0.244
-156.706	800.000	-0.212	0.906
-155.691	155.806	-0.496	0.675
-154.677	-200.000	0.039	-0.821
-153.662	-200.000	-0.101	-0.753
-152.647	120.453	0.177	-0.218
-151.633	-116.826	-0.810	-0.147
-150.618	-160.344	-0.363	0.019
-149.604	-47.353	-0.477	-0.229
-148.589	83.667	-0.078	0.084
-147.574	95.971	0.485	-0.548
-146.560	166.586	-0.349	-0.490
-145.545	-129.736	0.758	-0.103
-144.531	117.796	-0.090	-0.109
-143.516	-200.000	-0.159	-1.218
-142.502	-171.008	-0.995	-0.033
-141.487	-200.000	-0.086	-0.494
-140.472	-3.667	-0.443	-0.304
-139.458	47.910	-0.178	-0.164
-138.443	-14.437	-1.257	0.799
-137.429	-76.509	0.318	0.110
-136.414	65.960	-0.539	0.540
-135.399	-96.315	0.195	-0.051
-134.385	187.990	0.353	0.521
-133.370	-54.600	0.932	0.416
-132.356	160.183	0.583	-0.803
-131.341	234.286	0.431	-0.702
-130.326	-85.660	-0.315	0.097
-129.312	-122.111	0.589	0.095
-128.297	-200.000	0.047	-0.472
-127.283	-200.000	-0.035	-0.402
-126.268	47.925	-0.165	-0.152
-125.253	169.554	0.319	0.450
-124.239	-200.000	0.000	0.317
-123.224	-74.161	-0.340	-0.121
-122.210	-128.808	-0.426	0.059
-121.195	-200.000	0.092	0.625
-120.180	83.781	0.489	0.527
-119.166	-142.308	0.968	0.094
-118.151	458.458	0.158	0.347
-117.137	800.000	-0.076	-0.282
-116.122	-53.707	-0.203	-0.092
-115.107	-106.869	0.064	-0.014
-114.093	283.615	-0.408	-0.723
-113.078	-200.000	0.004	0.269
-112.064	800.000	-0.120	0.421
-111.049	-200.000	0.077	0.522
-110.034	-46.256	-0.159	0.077
-109.020	-116.021	-0.604	0.111
-108.005	-200.000	-0.044	-0.544
-106.991	81.983	-0.577	0.617
-105.976	12.865	0.533	0.407
-104.962	-31.735	0.138	-0.076
-103.947	-45.304	0.176	-0.086
-102.932	-35.487	0.322	0.172
-101.918	800.000	0.130	-0.383
-100.903	78.436	-0.168	-0.177
-99.889	-75.165	-0.738	0.260
-98.874	310.584	-0.056	0.103
-97.859	-200.000	-0.017	-0.461
-96.845	-200.000	0.115	-0.635
-95.830	675.828	0.134	0.342
-94.816	114.956	-0.534	-0.643
-93.801	-127.659	0.611	0.087
-92.786	764.789	0.307	0.821
-91.772	-28.769	-0.119	-0.068
-90.757	-12.264	0.626	-0.404
-89.743	159.468	0.261	0.359
-88.728	90.213	0.342	0.377
-87.713	88.914	0.128	-0.140
-86.699	-3.126	0.240	-0.165
-85.684	-149.569	0.573	-0.045
-84.670	800.000	0.292	0.874
-83.655	-48.459	-0.220	0.105
-82.640	-13.737	0.439	-0.280
-81.626	181.928	-0.445	0.645
-80.611	-45.023	0.647	0.317
-79.597	579.655	-0.285	0.688
-78.582	-110.561	-0.428	-0.087
-77.567	45.106	-0.736	0.668
-76.553	-171.138	-0.252	0.008
-75.538	13.676	0.513	0.392
-74.524	-41.072	0.204	-0.104
-73.509	-69.901	-0.401	0.151
-72.494	-125.678	0.546	-0.081
-71.480	-166.049	-0.270	0.011
-70.465	-82.318	0.794	0.255
-69.451	-12.870	-0.610	-0.391
-68.436	-27.029	0.232	-0.134
-67.422	-200.000	-0.022	-0.178
-66.407	-102.590	1.433	-0.337
-65.392	119.328	-0.120	-0.147
-64.378	800.000	-0.138	-0.445
-63.363	-74.758	-0.609	0.215
-62.349	-200.000	-0.023	0.369
-61.334	28.343	-1.714	-1.427
-60.319	658.843	0.170	-0.432
-59.305	689.661	0.146	-0.375
-58.290	633.663	0.597	1.491
-57.276	800.000	0.695	1.891
-56.261	-200.000	96.254	580.162
-55.246	654.773	1365.007	3450.666
-54.232	202.136	2527.374	3839.221
-53.217	118.698	2127.326	2587.264
-52.203	44.434	1596.345	1443.810
-51.188	36.600	1336.596	1161.993
-50.173	33.398	1294.908	1107.030
-49.159	56.816	1344.478	1289.284
-48.144	58.266	1360.381	1313.097
-47.130	36.729	1318.673	1146.994
-46.115	33.208	1301.931	1111.737
-45.100	32.718	1297.218	1104.801
-44.086	32.937	1293.839	1103.156
-43.071	32.536	1293.496	1100.479
-42.057	32.789	1290.699	1099.533
-41.042	32.750	1288.537	1097.417
-40.027	32.984	1287.406	1097.773
-39.013	32.849	1284.649	1094.595
-37.998	32.668	1284.497	1093.371
-36.984	32.942	1281.452	1092.322
-35.969	32.754	1280.151	1090.083
-34.954	33.293	1277.243	1090.670
-33.940	32.935	1277.365	1088.667
-32.925	33.139	1275.308	1088.047
-31.911	33.080	1273.693	1086.283
-30.896	33.065	1271.983	1084.697
-29.881	33.169	1270.758	1084.206
-28.867	33.218	1268.855	1082.822
-27.852	33.122	1267.945	1081.452
-26.838	33.236	1266.422	1080.763
-25.823	33.294	1265.188	1079.999
-24.809	33.040	1264.078	1077.558
-23.794	33.107	1262.328	1076.404
-22.779	33.259	1260.675	1075.818
-21.765	33.170	1259.597	1074.347
-20.750	33.152	1259.262	1073.916
-19.736	33.082	1257.020	1071.568
-18.721	32.794	1256.389	1069.352
-17.706	33.005	1256.004	1070.181
-16.692	32.918	1254.454	1068.325
-15.677	33.212	1253.072	1068.765
-14.663	32.966	1252.281	1066.659
-13.648	32.788	1251.172	1064.666
-12.633	32.863	1250.080	1064.121
-11.619	32.988	1249.930	1064.655
-10.604	32.790	1249.001	1062.705
-9.590	33.091	1247.573	1063.141
-8.575	32.614	1248.081	1060.848
-7.560	32.843	1246.639	1060.869
-6.546	32.834	1245.099	1059.462
-5.531	32.965	1244.317	1059.489
-4.517	32.931	1243.702	1058.734
-3.502	32.867	1241.914	1056.811
-2.487	33.022	1242.004	1057.715
-1.473	32.712	1237.759	1052.330
-0.458	31.576	1221.355	1032.081
0.556	28.580	1204.865	993.235
1.571	24.531	1210.005	975.322
2.586	23.811	1224.309	982.783
3.600	23.197	1213.161	970.382
4.615	17.169	1141.743	881.970
5.629	7.425	1066.539	776.329
6.644	3.423	1045.328	741.599
7.659	3.096	1043.169	738.432
8.673	2.706	1041.882	735.584
9.688	2.698	1041.059	734.901
10.702	3.153	1038.798	735.415
11.717	9.174	1048.542	771.228
12.731	18.669	1061.509	826.646
13.746	24.099	1067.208	857.228
14.761	24.567	1068.741	860.637
15.775	24.363	1067.116	858.271
16.790	24.186	1066.447	856.805
17.804	24.274	1065.961	856.765
18.819	24.189	1065.933	856.258
19.834	24.470	1065.238	856.973
20.848	24.490	1065.356	857.088
21.863	24.379	1064.644	855.907
22.877	24.421	1063.173	854.848
23.892	24.144	1062.969	853.283
24.907	24.068	1062.207	852.229
25.921	23.858	1060.663	849.915
26.936	24.686	1059.222	852.636
27.950	24.154	1057.727	848.820
28.965	24.158	1056.119	847.477
29.980	24.400	1054.269	847.064
30.994	24.228	1053.337	845.423
32.009	24.290	1052.849	845.253
33.023	24.224	1051.123	843.478
34.038	24.333	1050.287	843.248
35.053	24.400	1050.224	843.441
36.067	24.085	1050.335	841.964
37.082	24.064	1049.584	841.191
38.096	24.331	1048.664	841.640
39.111	24.451	1047.670	841.332
40.126	24.274	1045.985	839.071
41.140	24.275	1044.285	837.640
42.155	24.136	1042.549	835.520
43.169	24.056	1042.882	835.338
44.184	24.267	1040.734	834.531
45.199	24.318	1039.835	833.975
46.213	24.143	1040.281	833.438
47.228	24.208	1039.998	833.443
48.242	24.584	1038.806	834.169
49.257	24.482	1038.390	833.284
50.271	24.242	1037.703	831.544
51.286	24.280	1037.460	831.449
52.301	24.324	1036.184	830.558
53.315	24.522	1035.586	830.928
54.330	24.470	1033.616	829.032
55.344	24.381	1033.190	828.206
56.359	24.266	1032.253	826.848
57.374	24.195	1031.227	825.623
58.388	24.247	1030.189	824.958
59.403	24.050	1029.658	823.552
60.417	24.141	1028.671	823.108
61.432	23.908	1028.988	822.214
62.447	24.111	1027.695	822.044
63.461	23.646	1028.058	820.113
64.476	24.040	1026.648	820.732
65.490	24.209	1024.337	819.591
66.505	23.956	1024.885	818.791
67.520	24.122	1024.598	819.255
68.534	23.869	1023.172	816.878
69.549	23.836	1021.589	815.391
70.563	23.731	1020.940	814.319
71.578	23.725	1020.100	813.552
72.593	22.882	1020.485	809.919
73.607	23.183	1020.243	811.039
74.622	23.735	1018.237	811.892
75.636	23.576	1017.740	810.702
76.651	23.743	1016.871	810.699
77.666	23.990	1016.079	811.122
78.680	23.852	1015.779	810.181
79.695	23.727	1015.238	809.110
80.709	24.195	1013.664	809.911
81.724	23.714	1013.940	807.873
82.739	23.917	1013.450	808.331
83.753	24.392	1012.863	809.949
84.768	24.548	1012.751	810.497
85.782	24.651	1011.836	810.159
86.797	24.428	1010.662	808.137
87.812	24.626	1009.562	808.082
88.826	24.455	1008.214	806.160
89.841	24.598	1007.491	806.153
90.855	24.871	1006.133	806.230
91.870	24.575	1006.720	805.291
92.884	24.726	1004.004	803.728
93.899	24.691	1003.863	803.385
94.914	24.688	1003.078	802.673
95.928	24.436	1002.288	800.841
96.943	24.567	1000.324	799.787
97.957	24.424	999.691	798.568
98.972	24.234	999.605	797.579
99.987	24.422	998.647	797.587
101.001	24.502	997.842	797.227
102.016	24.427	996.970	796.129
103.030	24.715	995.737	796.356
104.045	24.567	995.410	795.365
105.060	24.626	994.334	794.698
106.074	24.274	993.363	792.287
107.089	24.420	992.673	792.314
108.103	24.339	991.112	790.637
109.118	24.142	990.285	789.038
110.133	23.964	989.606	787.637
111.147	23.841	988.335	786.014
112.162	23.889	988.592	786.361
113.176	24.146	987.700	786.717
114.191	24.002	986.231	784.841
115.206	24.018	985.152	783.984
116.220	23.722	984.995	782.486
117.235	23.846	982.986	781.365
118.249	23.673	983.072	780.606
119.264	23.867	981.530	780.164
120.279	23.701	981.973	779.717
121.293	24.005	980.699	779.968
122.308	23.783	980.328	778.632
123.322	23.706	978.341	776.649
124.337	23.725	977.772	776.209
125.352	23.871	977.104	776.247
126.366	23.591	975.351	773.570
127.381	23.849	975.560	774.789
128.395	24.113	975.149	775.545
129.410	24.649	973.490	776.484
130.424	24.354	973.291	774.976
131.439	24.504	972.238	774.722
132.454	24.251	971.609	773.053
133.468	24.414	970.820	773.064
134.483	24.324	970.196	772.110
135.497	24.740	968.676	772.628
136.512	24.189	969.286	770.665
137.527	24.122	968.695	769.839
138.541	24.714	966.143	770.294
139.556	24.685	965.148	769.306
140.570	24.419	966.783	769.393
141.585	24.923	964.982	770.062
142.600	24.572	963.775	767.521
143.614	24.723	963.567	767.939
144.629	24.962	962.789	768.274
145.643	24.609	962.250	766.263
146.658	24.328	959.851	763.083
147.673	24.360	959.090	762.548
148.687	24.177	958.436	761.178
149.702	24.525	957.355	761.736
150.716	24.583	955.583	760.508
151.731	24.694	955.235	760.634
152.746	24.491	954.762	759.325
153.760	24.773	953.605	759.537
154.775	24.734	953.905	759.542
155.789	24.797	951.698	757.985
156.804	24.768	951.113	757.330
157.819	24.877	950.915	757.567
158.833	24.718	950.651	756.616
159.848	24.835	949.165	755.863
160.862	24.669	949.260	755.168
161.877	24.647	948.271	754.221
162.892	24.494	947.145	752.613
163.906	24.405	946.232	751.449
164.921	24.933	943.883	751.732
165.935	24.768	944.400	751.387
166.950	24.607	943.505	749.932
167.964	24.724	943.071	750.010
168.979	24.563	941.960	748.387
169.994	24.936	940.023	748.340
171.008	24.410	940.221	746.231
172.023	24.800	938.965	746.798
173.037	24.720	939.011	746.434
174.052	24.774	938.096	745.868
175.067	24.360	937.510	743.609
176.081	24.150	936.984	742.249
177.096	24.111	936.741	741.832
178.110	24.202	935.348	741.042
179.125	24.062	934.486	739.711
180.140	24.144	933.311	739.055
181.154	24.618	933.289	740.938
182.169	24.512	933.537	740.632
183.183	24.827	932.688	741.194
184.198	24.670	931.740	739.726
185.213	24.598	931.573	739.230
186.227	24.681	930.505	738.663
187.242	24.934	929.636	738.951
188.256	24.566	930.410	737.981
189.271	24.780	928.852	737.561
190.286	24.908	927.000	736.553
191.300	24.151	926.051	732.621
192.315	23.865	925.113	730.640
193.329	23.594	925.415	729.698
194.344	24.376	925.283	732.742
195.359	24.788	924.230	733.533
196.373	24.810	923.912	733.308
197.388	24.771	924.251	733.349
198.402	24.929	923.555	733.383
199.417	24.879	923.219	732.847
200.432	24.870	922.211	731.944
201.446	24.996	921.276	731.650
202.461	24.807	921.899	731.308
203.475	24.561	919.686	728.484
204.490	24.120	917.688	725.044
205.504	24.282	918.911	726.606
206.519	25.003	917.276	728.180
207.534	24.658	916.962	726.464
208.548	25.401	915.331	728.121
209.563	25.014	916.159	727.145
210.577	24.609	915.889	725.221
211.592	24.908	916.226	726.640
212.607	24.879	914.279	724.915
213.621	24.936	913.347	724.341
214.636	24.938	912.765	723.824
215.650	24.917	913.427	724.198
216.665	24.714	912.040	722.215
217.680	24.864	912.408	723.050
218.694	24.886	911.017	721.973
219.709	24.563	910.049	719.839
220.723	24.799	908.187	719.252
221.738	24.316	908.582	717.557
222.753	24.677	907.681	718.232
223.767	24.840	906.822	718.143
224.782	25.290	906.881	719.934
225.796	25.049	906.359	718.490
226.811	24.568	905.875	716.114
227.826	24.316	904.608	714.041
228.840	24.358	903.452	713.231
229.855	24.613	902.525	713.455
230.869	24.118	902.188	711.151
231.884	24.406	902.698	712.638
232.899	24.876	901.210	713.274
233.913	24.609	901.563	712.427
234.928	24.770	899.551	711.412
235.942	24.430	899.849	710.234
236.957	24.084	899.674	708.656
237.972	24.627	896.974	708.621
238.986	24.527	897.236	708.369
240.001	24.340	897.110	707.464
241.015	24.264	896.868	706.910
242.030	24.525	895.817	707.054
243.045	24.915	895.764	708.494
244.059	25.097	894.710	708.314
245.074	25.035	893.421	706.988
246.088	25.064	893.739	707.290
247.103	25.475	892.636	707.972
248.117	25.290	893.365	707.761
249.132	25.490	892.828	708.061
250.147	25.505	892.135	707.508
251.161	26.019	891.268	708.777
252.176	25.766	890.832	707.372
253.190	25.677	890.766	706.911
254.205	25.615	889.838	705.867
255.220	25.334	889.815	704.683
256.234	25.559	888.763	704.671
257.249	25.800	887.711	704.718
258.263	25.308	887.018	702.180
259.278	25.155	887.100	701.583
260.293	25.687	885.848	702.609
261.307	26.008	884.540	702.762
262.322	25.705	885.407	702.205
263.336	25.281	883.912	699.307
264.351	24.675	883.034	696.193
265.366	24.954	882.230	696.580
266.380	25.475	881.754	698.167
267.395	25.699	880.882	698.285
268.409	25.339	881.324	697.176
269.424	25.738	880.170	697.748
270.439	25.684	879.533	696.971
271.453	25.249	878.348	694.289
272.468	25.621	878.580	695.851
273.482	25.492	878.406	695.154
274.497	25.249	877.874	693.732
275.512	25.299	876.718	692.949
276.526	25.392	877.124	693.568
277.541	25.675	875.876	693.611
278.555	25.717	875.310	693.261
279.570	25.706	874.955	692.877
280.585	25.606	873.911	691.604
281.599	25.604	872.820	690.673
282.614	25.227	871.972	688.495
283.628	25.018	872.035	687.682
284.643	25.097	871.046	687.143
285.657	25.025	869.642	685.699
286.672	25.239	869.371	686.244
287.687	25.579	869.135	687.295
288.701	25.594	868.732	686.973
289.716	25.177	869.105	685.614
290.730	25.474	867.703	685.581
291.745	25.373	867.183	684.723
292.760	25.274	866.369	683.644
293.774	25.755	865.689	684.876
294.789	26.079	865.154	685.623
295.803	25.995	865.316	685.371
296.818	25.684	864.421	683.424
297.833	25.647	863.669	682.626
298.847	25.329	862.836	680.701
299.862	25.466	863.791	681.916
300.876	25.433	862.601	680.789
301.891	25.373	862.670	680.558
302.906	25.671	860.889	680.218
303.920	25.796	861.274	680.934
304.935	25.506	860.890	679.476
305.949	25.923	859.241	679.686
306.964	25.401	859.196	677.623
307.979	25.715	858.034	677.828
308.993	25.740	857.126	677.146
310.008	25.940	856.819	677.595
311.022	25.403	857.618	676.147
312.037	25.248	856.518	674.638
313.052	25.334	855.214	673.872
314.066	25.706	852.750	673.263
315.081	25.363	852.751	671.919
316.095	25.626	852.562	672.695
317.110	25.476	852.852	672.306
318.125	25.170	852.217	670.600
319.139	24.561	851.029	667.333
320.154	24.543	850.481	666.776
321.168	25.047	850.231	668.400
322.183	25.230	849.924	668.782
323.197	25.220	850.557	669.186
324.212	25.327	849.678	668.833
325.227	25.425	848.063	667.865
326.241	25.114	847.719	666.381
327.256	25.076	847.859	666.290
328.270	25.297	847.196	666.533
329.285	25.237	845.884	665.216
330.300	25.068	844.917	663.771
331.314	25.161	845.007	664.130
332.329	25.690	844.940	665.974
333.343	25.667	844.408	665.413
334.358	25.507	844.559	664.879
335.373	25.683	844.461	665.397
336.387	25.678	844.247	665.151
337.402	26.126	843.328	666.018
338.416	26.157	842.882	665.723
339.431	26.138	843.490	666.074
340.446	25.881	842.832	664.549
341.460	26.085	842.513	664.989
342.475	26.139	842.274	664.942
343.489	25.899	841.743	663.580
344.504	26.502	840.891	665.067
345.519	26.473	840.242	664.388
346.533	26.293	840.101	663.556
347.548	26.182	839.682	662.758
348.562	26.083	839.170	661.932
349.577	26.024	838.664	661.259
350.592	26.102	837.132	660.277
351.606	25.858	836.417	658.765
352.621	26.464	835.312	660.048
353.635	25.717	834.836	656.886
354.650	25.553	834.438	655.917
355.665	25.234	833.402	653.883
356.679	25.498	833.081	654.536
357.694	25.722	832.769	655.047
358.708	25.857	831.383	654.392
359.723	25.804	830.876	653.739
360.738	25.927	829.962	653.410
361.752	26.102	829.787	653.849
362.767	26.334	829.755	654.604
363.781	26.545	829.368	655.004
364.796	26.315	829.065	653.876
365.810	26.629	828.937	654.854
366.825	26.491	828.143	653.669
367.840	26.359	827.411	652.558
368.854	26.092	826.591	650.888
369.869	26.052	826.787	650.841
370.883	25.921	825.324	649.162
371.898	26.399	825.909	651.285
372.913	25.834	826.629	649.760
373.927	26.010	825.363	649.341
374.942	25.952	824.164	648.132
375.956	26.037	824.295	648.483
376.971	26.312	823.272	648.606
377.986	26.247	822.544	647.743
379.000	26.685	821.699	648.589
380.015	26.188	822.229	647.168
381.029	26.517	820.817	647.175
382.044	26.491	820.802	647.015
383.059	26.521	820.636	646.933
384.073	26.161	819.293	644.534
385.088	26.226	818.987	644.466
386.102	25.917	818.084	642.598
387.117	25.677	817.477	641.208
388.132	26.065	816.730	641.948
389.146	25.923	815.895	640.730
390.161	26.288	816.457	642.411
391.175	26.548	815.940	642.871
392.190	26.039	814.980	640.254
393.205	25.343	814.557	637.393
394.219	24.662	812.681	633.458
395.234	25.295	811.337	634.593
396.248	25.252	813.042	635.718
397.263	25.789	812.594	637.210
398.278	25.491	811.503	635.247
399.292	25.527	811.046	634.961
400.307	25.408	810.058	633.712
401.321	25.739	810.320	635.027
402.336	25.914	810.173	635.472
403.350	26.282	809.940	636.529
404.365	26.241	811.130	637.266
405.380	26.930	809.312	638.203
406.394	26.639	809.493	637.266
407.409	26.831	808.792	637.333
408.423	26.783	808.387	636.789
409.438	26.487	807.843	635.267
410.453	26.607	807.293	635.198
411.467	26.755	806.469	635.011
412.482	26.534	806.159	633.937
413.496	26.200	806.319	632.835
414.511	26.516	805.979	633.619
415.526	26.673	804.791	633.178
416.540	26.566	804.581	632.585
417.555	26.510	804.456	632.234
418.569	26.735	803.420	632.150
419.584	27.039	802.532	632.452
420.599	26.524	803.367	631.260
421.613	159.828	1370.734	1793.133
422.628	138.798	1453.447	1793.131
