DTS Sentinel unit serial number:	SN413079Multiplexer serial number:	ORYXHardware model number:	OX4-SRSoftware version number:	ORYX F/W v4.00 Oryx Data Collector v3.7.2.0data status	okinstallation	princeton_trtdifferential loss correction	single-endedforward channel	channel 1reverse channel	N/Adate	2019/09/13time	10:54:35forward acquisition time	60.00reverse acquisition time	0.00gamma	496.2192k internal	0.2320k external	0.2320temperature offset calibration	1.0157default loss term (dB/km)	0.3790temperature slope calibration	1.0000multiplexer offset coefficient	1.0000multiplexer slope coefficient	1.0000fibre end	0.00T internal ref (°C)	31.75T ext. ref 1 (°C)	4.61T ext. ref 2 (°C)	28.27length (m)	temperature (°C)	Stokes	anti-Stokes-747.200	-200.000	0.023	0.348
-746.185	800.000	0.056	-0.187
-745.171	-121.318	-0.063	-0.011
-744.156	228.863	0.167	0.275
-743.142	579.973	-0.138	-0.342
-742.127	-200.000	0.011	0.320
-741.112	-124.816	0.080	-0.013
-740.098	112.173	0.091	-0.112
-739.083	-142.032	-0.330	0.033
-738.069	168.332	0.238	0.343
-737.054	200.309	0.139	-0.216
-736.039	147.436	0.062	-0.084
-735.025	417.890	-0.092	-0.199
-734.010	101.041	-0.146	-0.172
-732.996	44.379	-0.025	-0.023
-731.981	-118.028	-0.404	-0.073
-730.966	-200.000	0.015	0.119
-729.952	39.115	-0.076	-0.069
-728.937	86.227	-0.089	-0.099
-727.923	1.706	-0.279	0.203
-726.908	-200.000	-0.010	0.222
-725.894	-139.676	-0.067	-0.007
-724.879	-129.460	0.143	0.020
-723.864	297.143	-0.070	0.130
-722.850	-86.522	-0.363	-0.113
-721.835	-143.892	-0.179	0.017
-720.821	800.000	-0.077	-0.273
-719.806	-57.468	0.090	-0.040
-718.791	-19.992	-0.273	0.170
-717.777	-200.000	-0.095	-0.492
-716.762	800.000	-0.020	-0.085
-715.748	-20.088	-0.050	0.031
-714.733	-200.000	-0.042	-0.322
-713.718	560.103	0.059	0.145
-712.704	67.862	0.100	0.103
-711.689	-90.416	-0.145	-0.042
-710.675	800.000	0.043	0.174
-709.660	213.817	-0.045	0.071
-708.645	465.090	0.065	-0.147
-707.631	95.833	0.437	-0.504
-706.616	-200.000	-0.021	-0.101
-705.602	57.368	0.151	-0.149
-704.587	-200.000	-0.095	-0.585
-703.572	-59.136	0.219	-0.095
-702.558	-200.000	0.005	0.232
-701.543	-70.909	-0.458	0.174
-700.529	354.186	-0.022	0.044
-699.514	234.554	-0.108	-0.180
-698.499	34.960	0.236	0.209
-697.485	-7.232	-0.330	0.226
-696.470	-26.673	-0.269	0.159
-695.456	-127.064	0.162	0.024
-694.441	121.538	0.051	0.064
-693.426	-15.427	0.170	-0.109
-692.412	392.641	-0.126	0.264
-691.397	800.000	0.077	-0.255
-690.383	-109.266	-0.341	0.073
-689.368	800.000	-0.104	-0.321
-688.354	-161.453	-0.088	0.005
-687.339	176.818	-0.075	0.110
-686.324	-156.950	-0.263	0.016
-685.310	800.000	-0.039	0.163
-684.295	83.405	-0.059	0.065
-683.281	-139.247	-0.260	0.028
-682.266	-200.000	-0.008	0.438
-681.251	-108.624	-0.039	0.008
-680.237	45.539	-0.382	-0.356
-679.222	-191.993	-0.301	-0.003
-678.208	-200.000	0.011	-0.205
-677.193	62.179	-0.261	0.263
-676.178	-25.299	-0.161	0.096
-675.164	-200.000	-0.027	-0.166
-674.149	80.762	-0.157	-0.171
-673.135	146.206	-0.227	0.307
-672.120	271.253	-0.159	0.282
-671.105	-159.848	-0.352	0.019
-670.091	-123.049	0.193	0.031
-669.076	-49.867	-0.071	-0.034
-668.062	60.906	-0.120	0.120
-667.047	-131.748	-0.254	0.034
-666.032	-16.832	0.036	0.023
-665.018	-200.000	-0.009	-0.271
-664.003	-72.664	0.057	0.021
-662.989	174.564	0.160	0.233
-661.974	213.133	-0.316	-0.504
-660.959	-32.187	-0.265	0.149
-659.945	800.000	0.125	0.511
-658.930	70.579	-0.097	-0.101
-657.916	348.269	-0.132	0.263
-656.901	-200.000	-0.046	0.418
-655.886	-200.000	0.036	0.293
-654.872	-94.629	-0.102	-0.028
-653.857	-76.544	0.239	0.085
-652.843	294.077	0.087	-0.160
-651.828	-200.000	-0.003	-0.019
-650.814	800.000	0.033	0.113
-649.799	169.964	0.192	-0.277
-648.784	141.023	0.184	0.246
-647.770	-28.561	0.144	0.083
-646.755	45.314	0.152	-0.141
-645.741	-94.331	0.290	-0.080
-644.726	31.602	-0.277	-0.240
-643.711	386.188	-0.098	-0.203
-642.697	-70.275	0.188	-0.072
-641.682	-99.994	0.120	0.030
-640.668	-113.071	-0.160	0.032
-639.653	-200.000	0.080	-0.389
-638.638	178.971	0.225	0.332
-637.624	70.641	-0.124	0.130
-636.609	-37.525	-0.174	0.094
-635.595	800.000	0.084	0.293
-634.580	-29.391	-0.177	0.102
-633.565	-58.616	-0.130	-0.057
-632.551	-200.000	-0.003	-0.029
-631.536	327.080	0.168	-0.324
-630.522	142.299	-0.028	-0.037
-629.507	118.334	-0.247	-0.307
-628.492	-56.076	-0.207	-0.093
-627.478	-11.065	-0.196	0.130
-626.463	26.002	-0.280	-0.235
-625.449	108.736	0.102	-0.123
-624.434	-36.834	-0.259	0.140
-623.419	791.974	-0.050	-0.138
-622.405	664.698	0.102	-0.265
-621.390	51.244	-0.177	-0.169
-620.376	-87.321	-0.280	-0.085
-619.361	-102.681	0.144	0.035
-618.346	-200.000	0.017	0.282
-617.332	-149.834	-0.289	0.023
-616.317	8.459	-0.088	0.067
-615.303	800.000	0.077	0.235
-614.288	159.258	-0.092	-0.129
-613.273	-40.134	-0.279	-0.147
-612.259	-200.000	-0.015	-0.199
-611.244	17.780	-0.303	0.243
-610.230	-188.498	-0.108	0.001
-609.215	53.328	0.215	0.207
-608.201	-89.260	-0.199	0.059
-607.186	-157.938	-0.089	0.005
-606.171	598.496	0.129	-0.321
-605.157	-60.525	-0.100	-0.043
-604.142	800.000	0.046	0.144
-603.128	528.075	0.103	0.243
-602.113	-140.242	0.248	0.026
-601.098	-200.000	-0.050	0.235
-600.084	-200.000	0.020	-0.234
-599.069	181.676	-0.096	0.142
-598.055	-41.128	-0.402	-0.209
-597.040	17.538	-0.138	-0.111
-596.025	800.000	0.033	-0.101
-595.011	123.451	-0.113	-0.143
-593.996	-87.799	0.438	-0.133
-592.982	800.000	0.079	0.236
-591.967	67.144	0.201	-0.206
-590.952	325.614	-0.031	0.060
-589.938	800.000	-0.042	0.150
-588.923	181.818	0.020	0.029
-587.909	-200.000	-0.030	0.134
-586.894	-36.768	-0.125	0.067
-585.879	800.000	0.076	0.259
-584.865	-192.080	0.349	0.003
-583.850	-101.813	0.114	-0.028
-582.836	-200.000	0.040	0.190
-581.821	10.361	-0.340	0.260
-580.806	-47.017	-0.158	-0.078
-579.792	89.250	-0.096	0.107
-578.777	-200.000	0.006	0.236
-577.763	326.601	-0.018	-0.035
-576.748	586.367	-0.041	0.102
-575.733	177.647	0.165	-0.242
-574.719	3.929	-0.193	0.142
-573.704	800.000	-0.027	-0.114
-572.690	-200.000	0.006	0.187
-571.675	92.227	0.051	-0.058
-570.661	183.726	0.146	0.217
-569.646	-60.127	0.257	0.110
-568.631	-29.950	0.055	-0.031
-567.617	800.000	-0.073	0.290
-566.602	-86.002	-0.209	-0.065
-565.588	-48.201	-0.027	0.013
-564.573	-132.938	-0.122	0.016
-563.558	-84.894	-0.125	0.039
-562.544	56.381	-0.380	-0.371
-561.529	-142.619	0.145	-0.014
-560.515	-18.286	-0.075	0.047
-559.500	-44.589	0.338	0.169
-558.485	-93.111	-0.174	0.049
-557.471	149.538	0.043	-0.059
-556.456	274.352	0.190	-0.339
-555.442	-144.513	-0.305	-0.028
-554.427	89.701	-0.205	-0.230
-553.412	-200.000	-0.038	-0.313
-552.398	-107.075	-0.184	0.041
-551.383	-172.357	0.070	0.002
-550.369	-138.370	-0.225	0.025
-549.354	57.830	0.109	-0.107
-548.339	585.180	0.039	-0.096
-547.325	420.302	-0.053	0.113
-546.310	-90.421	-0.081	-0.024
-545.296	114.734	0.092	-0.113
-544.281	-66.454	0.080	-0.032
-543.266	-14.522	0.109	0.070
-542.252	-200.000	0.035	-0.236
-541.237	36.533	-0.295	-0.261
-540.223	800.000	-0.063	-0.215
-539.208	-30.756	-0.186	-0.106
-538.193	-200.000	-0.002	-0.040
-537.179	-172.163	0.257	-0.008
-536.164	181.362	-0.219	0.323
-535.150	2.573	0.269	0.196
-534.135	800.000	0.043	0.139
-533.121	-46.196	0.157	-0.077
-532.106	-98.705	0.128	0.033
-531.091	-31.862	-0.262	0.147
-530.077	800.000	-0.048	0.178
-529.062	735.757	-0.101	-0.270
-528.048	-200.000	-0.013	0.082
-527.033	78.630	0.183	0.196
-526.018	-120.272	0.587	0.100
-525.004	48.751	0.205	-0.193
-523.989	-121.164	-0.420	0.070
-522.975	266.268	-0.168	-0.294
-521.960	119.865	0.130	-0.161
-520.945	291.716	0.132	-0.240
-519.931	76.461	-0.061	-0.065
-518.916	-136.974	0.371	0.043
-517.902	-200.000	-0.008	-0.438
-516.887	-89.188	-0.214	0.063
-515.872	-146.567	-0.309	-0.027
-514.858	392.358	0.085	0.178
-513.843	270.289	-0.078	-0.138
-512.829	800.000	-0.059	-0.194
-511.814	800.000	-0.080	-0.248
-510.799	-99.412	0.095	-0.024
-509.785	-200.000	0.076	-0.392
-508.770	800.000	-0.031	0.087
-507.756	-200.000	0.037	-0.225
-506.741	492.414	-0.051	-0.117
-505.726	-200.000	0.012	-0.204
-504.712	-93.260	-0.255	-0.071
-503.697	-151.904	0.355	-0.026
-502.683	-62.716	0.274	-0.114
-501.668	277.106	0.024	-0.042
-500.653	-163.511	0.307	0.015
-499.639	-92.942	-0.045	-0.013
-498.624	-200.000	-0.037	0.174
-497.610	121.867	-0.038	0.047
-496.595	-28.912	-0.319	0.184
-495.581	129.232	0.233	0.298
-494.566	-169.265	-0.029	0.001
-493.551	-200.000	-0.000	-0.225
-492.537	591.581	0.052	-0.129
-491.522	800.000	0.023	-0.067
-490.508	-73.938	-0.157	0.057
-489.493	73.224	-0.111	0.116
-488.478	-69.712	-0.174	0.067
-487.464	314.807	0.072	-0.135
-486.449	-32.047	0.210	0.118
-485.435	-90.574	-0.289	-0.084
-484.420	-200.000	-0.023	-0.245
-483.405	54.027	-0.167	-0.161
-482.391	-184.179	0.043	-0.001
-481.376	800.000	0.033	-0.092
-480.362	-100.029	-0.026	0.006
-479.347	343.642	-0.121	0.238
-478.332	78.026	0.148	0.157
-477.318	-200.000	-0.032	0.158
-476.303	-200.000	-0.011	0.359
-475.289	-0.127	0.083	0.059
-474.274	172.242	0.330	0.476
-473.259	-179.532	-0.364	0.008
-472.245	-200.000	0.031	-0.354
-471.230	23.881	0.303	0.250
-470.216	-18.066	0.240	0.150
-469.201	-200.000	0.021	-0.195
-468.186	227.628	-0.213	-0.346
-467.172	70.993	-0.278	-0.289
-466.157	192.958	-0.204	0.309
-465.143	-78.221	-0.354	0.122
-464.128	613.410	0.171	-0.429
-463.113	561.290	-0.136	-0.329
-462.099	98.384	0.158	0.183
-461.084	-138.001	-0.185	-0.021
-460.070	-96.121	-0.086	-0.023
-459.055	-200.000	0.032	-0.180
-458.040	664.698	0.074	-0.191
-457.026	69.455	0.064	-0.066
-456.011	-81.859	0.113	0.037
-454.997	-200.000	-0.000	-0.227
-453.982	-47.205	0.157	0.076
-452.968	8.439	-0.171	-0.128
-451.953	-59.888	0.204	0.087
-450.938	800.000	-0.052	0.169
-449.924	50.419	0.244	0.230
-448.909	91.672	-0.362	0.407
-447.895	112.884	-0.021	0.026
-446.880	800.000	-0.055	0.194
-445.865	-200.000	0.032	0.169
-444.851	-23.504	-0.078	0.047
-443.836	233.137	0.133	-0.218
-442.822	-143.314	-0.209	0.020
-441.807	-81.916	0.129	0.042
-440.792	-200.000	0.022	-0.105
-439.778	-94.064	-0.281	-0.077
-438.763	-69.921	0.272	-0.104
-437.749	-200.000	0.029	-0.141
-436.734	-11.948	-0.102	-0.067
-435.719	-200.000	0.010	-0.263
-434.705	-42.083	0.197	-0.101
-433.690	-200.000	-0.012	0.143
-432.676	66.470	-0.094	-0.095
-431.661	-200.000	-0.039	0.203
-430.646	-169.826	-0.234	0.008
-429.632	-200.000	0.052	-0.418
-428.617	-33.073	-0.205	-0.113
-427.603	-2.302	-0.177	0.124
-426.588	67.773	0.184	0.188
-425.573	30.999	0.129	-0.111
-424.559	530.790	-0.093	-0.220
-423.544	17.554	-0.386	-0.307
-422.530	-14.772	0.345	-0.221
-421.515	-15.038	-0.143	0.092
-420.500	-200.000	-0.014	-0.071
-419.486	-200.000	-0.022	-0.119
-418.471	134.984	0.035	-0.045
-417.457	202.100	0.143	-0.221
-416.442	-134.091	0.302	-0.037
-415.428	-134.361	0.138	-0.017
-414.413	-200.000	0.045	0.207
-413.398	-56.811	0.212	0.094
-412.384	-200.000	-0.107	-0.473
-411.369	-71.583	0.156	-0.058
-410.355	167.653	-0.068	-0.096
-409.340	-31.901	-0.264	-0.148
-408.325	-94.184	0.187	-0.051
-407.311	393.941	-0.130	-0.270
-406.296	800.000	-0.082	-0.241
-405.282	44.403	0.169	0.155
-404.267	629.195	0.126	0.319
-403.252	9.324	0.178	-0.134
-402.238	11.369	0.364	0.278
-401.223	18.684	-0.180	0.143
-400.209	-35.899	-0.216	-0.116
-399.194	-146.273	0.303	-0.027
-398.179	-200.000	-0.047	0.343
-397.165	-200.000	0.016	-0.107
-396.150	-50.909	-0.154	0.072
-395.136	217.732	0.237	0.377
-394.121	-42.720	-0.220	0.111
-393.106	800.000	-0.085	-0.244
-392.092	-137.517	0.085	0.010
-391.077	184.762	0.126	0.186
-390.063	-200.000	0.050	-0.325
-389.048	-75.512	-0.196	-0.070
-388.033	800.000	0.030	0.087
-387.019	-162.074	-0.076	-0.004
-386.004	25.451	0.290	-0.240
-384.990	-200.000	-0.088	-0.397
-383.975	227.970	-0.117	0.191
-382.960	-136.013	0.458	-0.054
-381.946	-158.186	0.287	0.017
-380.931	252.023	0.186	0.316
-379.917	-28.639	0.077	0.044
-378.902	73.590	-0.121	0.127
-377.888	-69.378	0.087	-0.033
-376.873	-153.916	-0.124	-0.008
-375.858	800.000	-0.033	-0.111
-374.844	-167.436	-0.237	-0.009
-373.829	800.000	0.027	-0.078
-372.815	800.000	0.089	-0.297
-371.800	-9.581	-0.172	-0.114
-370.785	6.157	-0.068	0.050
-369.771	-200.000	-0.015	-0.092
-368.756	800.000	-0.041	0.141
-367.742	-4.371	-0.185	0.127
-366.727	-14.032	-0.120	0.077
-365.712	-53.047	0.020	-0.009
-364.698	-52.610	-0.158	0.073
-363.683	25.276	0.265	0.219
-362.669	286.919	0.130	0.234
-361.654	-200.000	0.005	0.102
-360.639	-200.000	0.020	0.249
-359.625	105.099	-0.150	-0.177
-358.610	800.000	-0.055	0.166
-357.596	261.927	0.192	0.331
-356.581	-200.000	0.018	0.129
-355.566	800.000	-0.064	-0.209
-354.552	-84.577	-0.246	-0.077
-353.537	-159.534	-0.258	-0.014
-352.523	800.000	0.033	0.107
-351.508	141.564	0.064	-0.084
-350.493	-147.855	-0.069	-0.006
-349.479	427.175	0.070	0.149
-348.464	-144.896	-0.272	0.025
-347.450	6.251	-0.268	-0.198
-346.435	38.684	0.176	-0.157
-345.420	205.559	-0.198	-0.306
-344.406	-4.536	-0.132	-0.091
-343.391	-20.520	0.198	-0.121
-342.377	41.934	0.207	0.187
-341.362	-67.943	-0.097	0.038
-340.348	800.000	0.055	0.232
-339.333	120.486	0.309	0.382
-338.318	-65.586	-0.250	0.100
-337.304	-1.474	-0.086	0.060
-336.289	800.000	0.037	0.113
-335.275	316.526	-0.051	-0.097
-334.260	603.590	-0.085	-0.210
-333.245	131.353	0.302	0.387
-332.231	-200.000	-0.096	0.000
-331.216	-43.701	-0.197	-0.099
-330.202	800.000	0.090	-0.274
-329.187	-200.000	0.015	0.074
-328.172	800.000	0.083	-0.360
-327.158	-77.085	-0.412	0.143
-326.143	360.488	-0.072	0.143
-325.129	501.859	-0.077	0.177
-324.114	159.847	0.055	-0.076
-323.099	96.795	-0.133	0.151
-322.085	-76.597	-0.137	0.048
-321.070	-8.204	0.124	0.083
-320.056	51.407	0.131	0.124
-319.041	255.853	-0.059	-0.100
-318.026	-126.491	-0.305	0.045
-317.012	11.158	0.346	0.263
-315.997	453.623	0.144	0.316
-314.983	679.494	-0.055	-0.142
-313.968	357.968	0.119	0.236
-312.953	-113.574	0.415	0.081
-311.939	-176.874	-0.229	-0.006
-310.924	800.000	0.025	-0.089
-309.910	-158.409	-0.327	0.019
-308.895	66.965	0.182	-0.184
-307.880	137.502	0.013	0.017
-306.866	367.782	-0.084	0.168
-305.851	-200.000	-0.008	-0.105
-304.837	142.654	-0.089	0.117
-303.822	27.684	0.100	0.084
-302.807	-25.615	0.197	0.116
-301.793	800.000	0.066	-0.231
-300.778	-40.412	-0.279	-0.144
-299.764	800.000	0.048	0.202
-298.749	380.416	0.091	0.186
-297.735	46.319	-0.095	-0.087
-296.720	353.369	-0.210	0.415
-295.705	3.850	0.110	-0.080
-294.691	-92.591	-0.275	-0.077
-293.676	-200.000	0.004	-0.088
-292.662	222.171	-0.234	-0.375
-291.647	-62.531	0.294	-0.121
-290.632	-89.016	0.027	-0.008
-289.618	-172.887	-0.246	0.008
-288.603	-94.557	0.202	-0.055
-287.589	37.914	0.148	-0.130
-286.574	-200.000	-0.002	0.151
-285.559	800.000	-0.032	0.132
-284.545	800.000	0.083	0.277
-283.530	-33.189	0.161	0.089
-282.516	-133.434	0.431	-0.054
-281.501	112.110	-0.181	-0.218
-280.486	-126.125	-0.086	-0.013
-279.472	-200.000	0.303	-0.001
-278.457	8.695	-0.190	-0.142
-277.443	-5.092	-0.226	0.155
-276.428	-125.083	0.171	0.026
-275.413	50.458	-0.085	0.079
-274.399	69.323	-0.132	0.135
-273.384	25.484	0.204	0.168
-272.370	800.000	0.120	0.391
-271.355	800.000	-0.025	0.070
-270.340	-107.363	0.174	-0.038
-269.326	800.000	0.023	0.069
-268.311	-3.619	0.565	-0.390
-267.297	-200.000	0.024	-0.169
-266.282	86.917	0.080	0.088
-265.267	57.484	0.427	-0.414
-264.253	481.101	0.039	0.088
-263.238	-100.720	-0.130	-0.032
-262.224	221.262	-0.179	-0.285
-261.209	-137.573	0.345	-0.039
-260.195	210.791	0.188	0.292
-259.180	800.000	0.051	0.185
-258.165	-200.000	-0.014	0.396
-257.151	32.570	-0.268	-0.230
-256.136	532.872	0.126	0.296
-255.122	800.000	0.068	0.260
-254.107	-62.962	-0.198	0.081
-253.092	800.000	0.038	0.111
-252.078	6.452	0.182	0.134
-251.063	-86.624	-0.144	-0.044
-250.049	311.727	0.171	0.318
-249.034	-114.327	-0.086	-0.016
-248.019	-200.000	0.011	-0.078
-247.005	481.421	-0.045	0.101
-245.990	800.000	0.026	-0.077
-244.976	256.177	-0.102	0.173
-243.961	-200.000	0.038	0.211
-242.946	-200.000	0.004	0.163
-241.932	432.837	-0.035	0.075
-240.917	-200.000	0.018	-0.146
-239.903	-200.000	0.040	-0.207
-238.888	-137.841	-0.341	-0.038
-237.873	359.493	-0.062	0.123
-236.859	344.951	0.047	0.092
-235.844	-200.000	0.032	0.154
-234.830	-73.186	-0.090	-0.033
-233.815	455.594	-0.008	-0.017
-232.800	-85.703	-0.335	0.103
-231.786	-150.332	-0.175	-0.013
-230.771	-200.000	-0.079	0.466
-229.757	319.401	0.088	0.166
-228.742	-200.000	0.070	0.351
-227.727	207.600	0.069	-0.107
-226.713	-81.547	-0.221	-0.072
-225.698	408.310	-0.117	0.244
-224.684	2.278	0.280	0.200
-223.669	-98.113	0.523	0.133
-222.655	-59.754	-0.142	0.060
-221.640	152.578	0.177	-0.240
-220.625	-200.000	0.017	-0.244
-219.611	-39.773	0.091	0.047
-218.596	171.656	-0.056	0.080
-217.582	333.683	-0.068	-0.131
-216.567	800.000	-0.017	-0.060
-215.552	370.806	0.104	-0.210
-214.538	123.463	0.026	0.033
-213.523	-200.000	0.065	-0.346
-212.509	260.318	0.055	0.094
-211.494	-64.917	0.394	0.158
-210.479	274.780	0.131	0.230
-209.465	-200.000	-0.030	0.273
-208.450	88.118	0.156	-0.171
-207.436	349.166	-0.114	-0.223
-206.421	-114.555	-0.185	-0.035
-205.406	-200.000	0.068	0.362
-204.392	-183.146	0.188	0.003
-203.377	-135.055	0.252	0.030
-202.363	-134.600	-0.151	0.018
-201.348	-200.000	-0.014	-0.121
-200.333	232.299	0.133	0.216
-199.319	-200.000	0.072	0.000
-198.304	-91.849	-0.169	-0.048
-197.290	-154.330	0.250	-0.017
-196.275	-200.000	0.051	-0.280
-195.260	-110.887	0.237	0.048
-194.246	-200.000	-0.028	0.124
-193.231	-112.454	0.238	0.047
-192.217	178.640	-0.074	0.106
-191.202	94.491	0.288	-0.324
-190.187	-200.000	-0.067	-0.346
-189.173	587.961	0.036	0.087
-188.158	-72.276	-0.317	-0.116
-187.144	-95.016	-0.338	0.090
-186.129	-200.000	0.014	-0.414
-185.114	119.005	0.161	0.197
-184.100	-200.000	0.028	0.288
-183.085	-200.000	-0.011	-0.061
-182.071	800.000	-0.064	0.189
-181.056	800.000	-0.086	-0.249
-180.042	-200.000	0.017	0.089
-179.027	133.519	-0.088	0.112
-178.012	-200.000	0.009	0.076
-176.998	252.710	0.086	0.145
-175.983	60.457	0.236	0.231
-174.969	-147.469	0.003	0.000
-173.954	800.000	-0.032	0.115
-172.939	259.411	-0.060	0.103
-171.925	-115.847	-0.192	-0.035
-170.910	124.391	-0.214	0.267
-169.896	800.000	0.072	-0.235
-168.881	-200.000	0.016	-0.375
-167.866	800.000	-0.035	-0.104
-166.852	-86.419	0.239	-0.073
-165.837	-95.924	0.136	-0.036
-164.823	-44.411	0.089	-0.044
-163.808	40.740	-0.155	-0.138
-162.793	87.969	0.111	0.122
-161.779	-95.055	0.186	0.050
-160.764	-39.594	-0.309	0.160
-159.750	-57.849	0.103	-0.045
-158.735	-200.000	-0.041	-0.294
-157.720	81.325	0.150	-0.160
-156.706	-100.886	-0.113	-0.027
-155.691	-51.261	-0.086	-0.040
-154.677	-100.057	0.047	0.012
-153.662	-68.498	-0.177	-0.068
-152.647	317.247	-0.103	-0.193
-151.633	800.000	-0.083	0.243
-150.618	800.000	0.056	-0.172
-149.604	177.466	0.070	-0.101
-148.589	56.755	-0.145	-0.140
-147.574	-59.093	-0.402	-0.171
-146.560	30.987	0.358	0.304
-145.545	-168.751	-0.063	-0.002
-144.531	32.076	0.159	-0.136
-143.516	-200.000	0.051	0.348
-142.502	36.207	0.259	0.225
-141.487	437.325	-0.079	0.170
-140.472	-115.230	0.164	-0.031
-139.458	-200.000	0.027	0.382
-138.443	92.614	0.165	0.184
-137.429	63.079	0.150	0.148
-136.414	800.000	-0.044	-0.154
-135.399	379.102	-0.116	0.234
-134.385	-200.000	-0.000	-0.293
-133.370	21.078	-0.124	0.100
-132.356	-81.188	-0.106	0.035
-131.341	614.585	-0.101	0.250
-130.326	16.340	0.256	-0.200
-129.312	129.838	-0.159	0.201
-128.297	-133.258	-0.179	0.022
-127.283	-200.000	0.065	0.348
-126.268	-39.799	-0.314	-0.162
-125.253	-53.770	-0.072	-0.033
-124.239	89.563	0.156	0.171
-123.224	-71.264	-0.148	0.055
-122.210	-22.506	-0.196	-0.117
-121.195	800.000	0.023	0.089
-120.180	-200.000	0.006	0.052
-119.166	-31.138	0.092	0.051
-118.151	10.116	0.119	-0.089
-117.137	391.746	0.119	0.243
-116.122	800.000	-0.087	-0.357
-115.107	800.000	0.015	0.064
-114.093	622.794	0.061	-0.151
-113.078	112.167	0.267	0.319
-112.064	-200.000	0.033	-0.146
-111.049	30.855	0.256	0.216
-110.034	-40.746	-0.215	-0.110
-109.020	288.977	0.156	0.279
-108.005	-112.500	0.137	-0.027
-106.991	28.472	0.113	-0.094
-105.976	-59.237	-0.214	0.091
-104.962	504.391	-0.046	-0.104
-103.947	-78.952	-0.279	-0.094
-102.932	-200.000	-0.178	0.000
-101.918	-152.379	-0.229	0.016
-100.903	-137.753	0.275	-0.030
-99.889	535.963	0.137	0.320
-98.874	-62.301	0.294	-0.121
-97.859	-8.563	0.160	0.106
-96.845	-91.488	0.255	-0.072
-95.830	-88.180	0.314	0.093
-94.816	800.000	-0.086	-0.349
-93.801	188.949	0.088	-0.130
-92.786	-80.639	-0.252	0.083
-91.772	305.583	0.123	0.225
-90.757	156.345	0.088	-0.120
-89.743	-200.000	0.149	0.001
-88.728	28.370	0.124	0.104
-87.713	-200.000	0.004	-0.122
-86.699	-104.904	-0.483	-0.109
-85.684	800.000	-0.035	0.145
-84.670	303.979	0.120	-0.219
-83.655	42.909	-0.130	0.116
-82.640	-200.000	-0.029	-0.184
-81.626	-108.396	0.403	0.086
-80.611	3.678	0.130	-0.093
-79.597	87.453	0.144	0.158
-78.582	-160.666	0.079	-0.004
-77.567	123.547	-0.082	-0.101
-76.553	-200.000	0.118	0.547
-75.538	77.253	-0.160	0.168
-74.524	498.718	-0.064	0.145
-73.509	29.420	0.122	-0.102
-72.494	800.000	0.043	-0.176
-71.480	18.555	0.127	-0.100
-70.465	167.289	0.043	0.060
-69.451	-200.000	-0.017	-0.174
-68.436	-200.000	-0.469	0.001
-67.422	170.265	0.143	-0.201
-66.407	-125.597	0.174	0.026
-65.392	86.203	0.188	0.204
-64.378	196.817	-0.264	0.396
-63.363	-71.284	0.352	-0.130
-62.349	370.098	-0.141	0.282
-61.334	351.162	-0.495	-0.964
-60.319	52.999	0.591	0.557
-59.305	-200.000	0.089	-1.104
-58.290	392.614	0.551	1.128
-57.276	800.000	0.501	1.716
-56.261	-200.000	95.776	599.831
-55.246	640.527	1395.220	3496.482
-54.232	192.200	2586.628	3841.203
-53.217	119.979	2167.247	2645.750
-52.203	44.058	1619.978	1461.942
-51.188	35.273	1354.840	1169.341
-50.173	32.068	1313.189	1114.359
-49.159	54.990	1359.851	1292.691
-48.144	56.659	1375.982	1318.022
-47.130	35.633	1335.072	1154.258
-46.115	32.070	1317.994	1118.274
-45.100	31.782	1313.062	1112.335
-44.086	31.620	1310.754	1109.376
-43.071	31.690	1308.059	1107.461
-42.057	31.590	1306.123	1105.187
-41.042	31.628	1304.413	1103.921
-40.027	31.630	1303.202	1102.869
-39.013	31.753	1300.653	1101.390
-37.998	31.711	1299.265	1099.925
-36.984	31.753	1297.457	1098.596
-35.969	31.817	1295.555	1097.316
-34.954	31.867	1293.953	1096.208
-33.940	31.846	1292.286	1094.627
-32.925	31.734	1291.314	1093.109
-31.911	31.905	1289.611	1092.622
-30.896	31.806	1288.047	1090.677
-29.881	31.859	1287.004	1090.055
-28.867	31.870	1285.523	1088.822
-27.852	31.878	1283.704	1087.288
-26.838	31.932	1282.501	1086.535
-25.823	31.847	1281.180	1084.883
-24.809	31.798	1280.325	1083.832
-23.794	31.827	1278.870	1082.723
-22.779	31.759	1277.411	1081.056
-21.765	31.882	1275.356	1079.980
-20.750	31.806	1274.502	1078.780
-19.736	31.674	1273.754	1077.343
-18.721	31.711	1271.842	1075.897
-17.706	31.652	1271.083	1074.874
-16.692	31.706	1269.103	1073.462
-15.677	31.672	1268.942	1073.093
-14.663	31.680	1267.299	1071.704
-13.648	31.701	1266.316	1070.949
-12.633	31.760	1265.198	1070.302
-11.619	31.643	1264.678	1069.151
-10.604	31.597	1263.891	1068.181
-9.590	31.715	1262.834	1067.917
-8.575	31.676	1261.275	1066.336
-7.560	31.723	1260.875	1066.217
-6.546	31.607	1259.897	1064.691
-5.531	31.564	1259.240	1063.851
-4.517	31.660	1258.188	1063.461
-3.502	31.742	1256.873	1062.776
-2.487	31.588	1256.297	1061.372
-1.473	31.655	1252.415	1058.432
-0.458	30.474	1236.968	1038.734
0.556	28.678	1218.853	999.406
1.571	24.681	1224.063	981.689
2.586	23.426	1238.571	986.258
3.600	22.187	1226.618	969.824
4.615	16.841	1154.146	884.615
5.629	8.579	1080.079	787.259
6.644	4.942	1060.017	754.972
7.659	4.636	1057.257	751.464
8.673	4.465	1055.661	749.437
9.688	4.398	1054.554	748.260
10.702	4.856	1052.905	749.230
11.717	10.190	1060.689	780.490
12.731	18.426	1071.583	828.422
13.746	21.842	1076.016	848.327
14.761	21.967	1075.455	848.413
15.775	21.130	1073.641	842.869
16.790	20.194	1071.497	836.600
17.804	19.409	1070.357	831.851
18.819	19.260	1069.338	830.268
19.834	19.159	1068.294	828.894
20.848	18.986	1067.566	827.426
21.863	18.654	1067.102	825.398
22.877	18.686	1066.369	824.912
23.892	18.615	1065.643	823.933
24.907	18.619	1064.589	823.065
25.921	18.625	1063.482	822.166
26.936	18.692	1062.099	821.343
27.950	18.682	1060.979	820.358
28.965	18.795	1059.690	819.828
29.980	18.895	1058.300	819.157
30.994	18.947	1057.213	818.491
32.009	19.049	1055.971	817.941
33.023	18.874	1055.337	816.548
34.038	18.798	1054.371	815.367
35.053	18.848	1052.957	814.437
36.067	18.680	1052.433	813.165
37.082	18.691	1051.868	812.706
38.096	18.898	1051.418	813.266
39.111	18.925	1050.276	812.441
40.126	18.640	1048.814	809.895
41.140	18.445	1046.999	807.501
42.155	18.332	1045.890	806.039
43.169	18.170	1045.485	804.898
44.184	18.145	1044.278	803.780
45.199	18.328	1043.089	803.650
46.213	18.375	1042.661	803.469
47.228	18.644	1041.450	803.726
48.242	18.720	1041.122	803.757
49.257	18.729	1039.662	802.603
50.271	18.722	1039.212	802.148
51.286	18.856	1038.217	801.936
52.301	18.792	1037.155	800.750
53.315	18.620	1036.031	799.009
54.330	18.448	1035.090	797.411
55.344	18.487	1033.796	796.526
56.359	18.499	1032.889	795.812
57.374	18.381	1032.325	794.759
58.388	18.353	1031.045	793.572
59.403	18.061	1031.002	792.115
60.417	18.254	1029.682	791.927
61.432	18.228	1028.821	791.072
62.447	18.199	1027.642	789.962
63.461	18.154	1027.075	789.251
64.476	18.081	1026.338	788.275
65.490	18.087	1025.368	787.489
66.505	18.161	1024.489	787.084
67.520	18.124	1023.893	786.389
68.534	18.140	1023.734	786.269
69.549	18.089	1022.566	785.067
70.563	18.035	1021.529	783.955
71.578	17.955	1020.405	782.657
72.593	17.771	1020.198	781.587
73.607	17.870	1019.084	781.115
74.622	17.887	1018.619	780.769
75.636	17.887	1018.271	780.435
76.651	17.932	1017.627	780.075
77.666	18.039	1017.210	780.173
78.680	18.065	1016.163	779.425
79.695	18.036	1015.496	778.710
80.709	18.237	1015.189	779.322
81.724	18.307	1014.753	779.234
82.739	18.422	1013.825	778.976
83.753	18.625	1013.093	779.268
84.768	18.984	1012.561	780.419
85.782	18.988	1012.324	780.187
86.797	18.942	1010.948	778.847
87.812	18.847	1009.581	777.295
88.826	18.813	1008.576	776.298
89.841	18.942	1008.149	776.486
90.855	19.004	1007.286	776.032
91.870	19.077	1006.402	775.610
92.884	19.089	1005.822	775.147
93.899	19.085	1004.650	774.158
94.914	19.124	1003.702	773.535
95.928	18.977	1002.978	772.248
96.943	18.873	1002.315	771.203
97.957	18.823	1001.317	770.143
98.972	18.802	1000.548	769.389
99.987	18.981	999.152	769.050
101.001	18.880	998.366	767.923
102.016	18.815	997.092	766.585
103.030	18.897	996.831	766.686
104.045	18.807	996.111	765.661
105.060	18.803	994.874	764.625
106.074	18.457	994.298	762.573
107.089	18.377	992.322	760.635
108.103	18.333	991.603	759.825
109.118	18.266	990.624	758.707
110.133	18.089	989.840	757.258
111.147	18.115	989.003	756.666
112.162	18.197	988.179	756.330
113.176	18.476	987.543	757.009
114.191	18.409	987.190	756.377
115.206	18.373	986.266	755.443
116.220	18.183	985.610	754.032
117.235	18.278	984.374	753.441
118.249	18.305	983.631	752.923
119.264	18.239	982.672	751.832
120.279	18.090	982.118	750.688
121.293	18.109	981.124	749.947
122.308	17.910	980.417	748.469
123.322	18.024	979.112	747.905
124.337	18.017	978.131	747.059
125.352	18.028	977.346	746.439
126.366	17.963	976.007	745.067
127.381	17.976	975.293	744.511
128.395	18.097	974.148	744.100
129.410	18.169	973.575	743.910
130.424	18.218	972.830	743.488
131.439	18.286	972.427	743.408
132.454	18.444	971.401	743.245
133.468	18.406	970.723	742.495
134.483	18.492	969.384	741.778
135.497	18.437	969.009	741.188
136.512	18.410	968.222	740.401
137.527	18.467	967.262	739.850
138.541	18.377	966.557	738.859
139.556	18.409	965.752	738.316
140.570	18.803	964.991	739.361
141.585	18.877	965.035	739.649
142.600	18.838	963.751	738.432
143.614	19.014	962.881	738.456
144.629	19.041	962.174	737.962
145.643	18.790	961.495	736.303
146.658	18.698	960.043	734.730
147.673	18.722	958.579	733.650
148.687	18.509	958.310	732.469
149.702	18.322	957.715	731.149
150.716	18.325	956.818	730.414
151.731	18.469	956.108	730.421
152.746	18.393	955.320	729.431
153.760	18.664	954.413	729.825
154.775	18.642	953.980	729.339
155.789	18.760	953.583	729.469
156.804	18.752	952.712	728.706
157.819	18.904	951.854	728.628
158.833	18.943	951.515	728.472
159.848	19.255	950.040	728.594
160.862	18.957	949.512	726.866
161.877	18.652	948.523	724.757
162.892	18.470	947.495	723.141
163.906	18.517	946.019	722.147
164.921	18.435	945.308	721.194
165.935	18.641	944.438	721.336
166.950	18.632	944.269	721.106
167.964	18.480	943.284	719.649
168.979	18.573	942.032	719.021
169.994	18.543	940.900	717.968
171.008	18.640	940.589	718.074
172.023	18.928	939.919	718.702
173.037	18.914	939.454	718.225
174.052	18.763	938.816	717.042
175.067	18.545	937.932	715.395
176.081	18.348	937.425	714.123
177.096	18.481	936.624	714.002
178.110	18.552	935.745	713.564
179.125	18.606	935.134	713.261
180.140	18.576	935.156	713.091
181.154	18.759	934.567	713.340
182.169	18.994	933.988	713.807
183.183	18.980	933.838	713.574
184.198	18.824	933.173	712.353
185.213	18.905	932.310	711.968
186.227	18.921	931.577	711.413
187.242	19.140	930.903	711.739
188.256	19.138	930.299	711.206
189.271	19.213	929.473	710.820
190.286	18.775	928.475	708.189
191.300	18.364	927.282	705.523
192.315	18.309	926.217	704.426
193.329	18.474	926.208	705.034
194.344	18.557	925.656	704.894
195.359	18.647	925.202	704.853
196.373	18.672	924.559	704.405
197.388	19.049	924.331	705.714
198.402	19.271	923.729	706.103
199.417	19.336	923.250	705.943
200.432	19.370	922.949	705.787
201.446	19.337	922.535	705.275
202.461	19.472	922.278	705.567
203.475	19.487	921.095	704.660
204.490	19.344	920.162	703.302
205.504	18.997	919.175	701.069
206.519	18.930	918.716	700.387
207.534	19.180	917.560	700.459
208.548	18.996	917.370	699.505
209.563	18.937	916.742	698.725
210.577	18.988	916.209	698.463
211.592	19.345	915.452	699.271
212.607	19.564	914.754	699.566
213.621	19.346	913.770	697.868
214.636	19.311	913.276	697.289
215.650	19.263	912.596	696.513
216.665	19.491	911.892	696.833
217.680	19.558	911.266	696.562
218.694	19.662	910.215	696.117
219.709	19.642	909.909	695.743
220.723	19.397	909.448	694.343
221.738	19.398	908.428	693.505
222.753	19.455	907.768	693.170
223.767	19.508	907.568	693.170
224.782	19.786	906.700	693.558
225.796	19.743	906.908	693.485
226.811	19.557	905.851	691.869
227.826	19.426	905.028	690.657
228.840	19.451	903.951	689.871
229.855	19.517	902.995	689.343
230.869	19.280	902.477	687.942
231.884	19.369	902.108	687.957
232.899	19.310	900.837	686.692
233.913	19.082	900.592	685.536
234.928	19.266	899.442	685.331
235.942	19.164	899.368	684.806
236.957	19.123	898.581	683.986
237.972	19.143	897.970	683.538
238.986	19.130	897.396	682.989
240.001	19.267	896.677	682.927
241.015	19.354	896.094	682.766
242.030	19.364	895.379	682.198
243.045	19.510	894.873	682.333
244.059	19.266	894.761	681.219
245.074	19.510	893.787	681.383
246.088	19.615	893.293	681.361
247.103	19.616	893.175	681.212
248.117	19.840	892.948	681.862
249.132	20.136	892.480	682.611
250.147	20.267	892.145	682.810
251.161	20.508	890.834	682.694
252.176	20.396	890.385	681.848
253.190	20.482	889.613	681.535
254.205	20.536	889.064	681.265
255.220	20.423	888.309	680.185
256.234	20.305	888.100	679.500
257.249	20.271	887.679	678.988
258.263	20.212	886.934	678.127
259.278	20.415	885.742	677.945
260.293	20.329	885.739	677.548
261.307	20.519	885.017	677.676
262.322	20.376	884.683	676.805
263.336	20.447	883.511	676.126
264.351	20.549	882.482	675.674
265.366	20.593	882.157	675.535
266.380	20.496	881.558	674.641
267.395	20.359	880.773	673.448
268.409	20.242	880.181	672.482
269.424	20.399	878.850	672.014
270.439	20.255	878.623	671.227
271.453	20.143	877.710	670.034
272.468	20.102	877.372	669.559
273.482	20.316	876.425	669.603
274.497	20.265	876.164	669.146
275.512	20.177	875.881	668.533
276.526	20.293	875.199	668.401
277.541	20.339	874.837	668.241
278.555	20.493	874.415	668.454
279.570	20.679	874.033	668.817
280.585	20.580	872.845	667.467
281.599	20.492	871.680	666.182
282.614	20.236	871.164	664.745
283.628	20.186	871.021	664.387
284.643	20.294	870.129	664.062
285.657	20.381	869.110	663.557
286.672	20.257	869.102	663.019
287.687	20.285	868.137	662.332
288.701	20.388	867.666	662.304
289.716	20.422	867.225	662.040
290.730	20.275	866.825	661.116
291.745	20.503	866.024	661.313
292.760	20.460	865.555	660.735
293.774	20.721	865.169	661.375
294.789	20.794	864.023	660.714
295.803	20.473	863.392	658.957
296.818	20.500	862.700	658.473
297.833	20.545	861.734	657.849
298.847	20.485	861.102	657.080
299.862	20.584	861.075	657.376
300.876	20.691	860.718	657.449
301.891	20.711	860.002	656.919
302.906	20.902	859.218	656.982
303.920	21.004	859.131	657.242
304.935	21.122	858.331	657.018
305.949	20.921	857.579	655.627
306.964	20.828	856.954	654.740
307.979	20.777	856.705	654.301
308.993	20.837	856.455	654.277
310.008	20.883	855.507	653.668
311.022	20.806	855.122	653.027
312.037	20.761	853.726	651.735
313.052	20.574	853.302	650.655
314.066	20.571	852.713	650.135
315.081	20.436	852.227	649.204
316.095	20.455	851.972	649.026
317.110	20.471	850.914	648.219
318.125	20.572	850.010	647.849
319.139	20.664	849.849	648.012
320.154	20.450	849.831	647.145
321.168	20.451	849.333	646.713
322.183	20.556	848.477	646.394
323.197	20.656	848.427	646.668
324.212	20.618	847.821	646.009
325.227	20.572	847.068	645.207
326.241	20.696	846.239	644.978
327.256	20.704	845.829	644.638
328.270	20.717	844.966	643.973
329.285	20.605	844.409	643.076
330.300	20.617	843.768	642.576
331.314	20.659	843.515	642.483
332.329	20.717	843.428	642.574
333.343	20.788	842.870	642.355
334.358	20.844	842.709	642.379
335.373	20.909	842.111	642.105
336.387	20.986	841.540	641.897
337.402	21.138	841.791	642.594
338.416	21.075	841.719	642.250
339.431	21.338	841.043	642.642
340.446	21.305	840.868	642.331
341.460	21.322	840.384	641.968
342.475	21.421	840.073	642.037
343.489	21.518	839.873	642.182
344.504	21.531	839.038	641.535
345.519	21.487	838.899	641.209
346.533	21.569	837.743	640.569
347.548	21.207	837.172	638.753
348.562	21.032	836.967	637.902
349.577	20.967	835.880	636.778
350.592	20.907	835.228	636.006
351.606	20.989	834.667	635.821
352.621	21.083	833.405	635.148
353.635	21.081	833.338	635.033
354.650	21.166	832.814	634.885
355.665	21.210	831.839	634.245
356.679	21.397	831.271	634.436
357.694	21.294	830.764	633.619
358.708	21.396	829.771	633.176
359.723	21.216	829.384	632.173
360.738	21.242	829.299	632.146
361.752	21.466	828.299	632.138
362.767	21.713	827.626	632.459
363.781	21.608	827.290	631.768
364.796	21.822	827.084	632.327
365.810	21.868	826.961	632.342
366.825	21.931	826.647	632.272
367.840	21.837	826.077	631.443
368.854	21.723	825.228	630.327
369.869	21.547	824.924	629.408
370.883	21.640	824.439	629.313
371.898	21.930	824.144	630.076
372.913	21.844	823.623	629.312
373.927	21.790	822.984	628.575
374.942	21.722	822.859	628.180
375.956	21.819	822.301	628.045
376.971	21.948	821.979	628.205
377.986	22.072	821.555	628.270
379.000	22.008	821.153	627.679
380.015	21.980	820.609	627.106
381.029	21.920	820.027	626.394
382.044	21.997	819.346	626.090
383.059	21.918	818.926	625.433
384.073	22.044	817.824	624.984
385.088	21.728	817.234	623.355
386.102	21.670	816.800	622.763
387.117	21.533	816.506	621.997
388.132	21.560	815.360	621.165
389.146	21.795	814.731	621.463
390.161	21.964	814.519	621.844
391.175	22.054	814.288	621.931
392.190	21.919	813.697	620.947
393.205	21.805	813.169	620.088
394.219	21.661	812.681	619.152
395.234	21.572	812.312	618.500
396.248	21.545	812.195	618.261
397.263	21.532	811.237	617.432
398.278	21.521	810.929	617.103
399.292	21.408	810.583	616.388
400.307	21.559	809.808	616.274
401.321	21.601	809.472	616.113
402.336	21.635	809.165	615.944
403.350	21.849	808.710	616.295
404.365	21.893	808.707	616.396
405.380	22.122	808.055	616.646
406.394	22.118	807.610	616.237
407.409	22.057	807.588	615.951
408.423	22.219	806.728	615.809
409.438	22.272	806.604	615.845
410.453	22.397	806.049	615.805
411.467	22.615	805.389	616.010
412.482	22.664	805.027	615.849
413.496	22.685	804.900	615.771
414.511	22.519	804.387	614.744
415.526	22.484	803.953	614.236
416.540	22.368	803.550	613.470
417.555	22.473	802.987	613.350
418.569	22.379	802.578	612.656
419.584	22.607	802.127	613.053
420.599	22.504	801.679	612.295
421.613	162.732	1368.972	1793.974
422.628	141.430	1451.636	1794.061
