DTS Sentinel unit serial number:	SN413079Multiplexer serial number:	ORYXHardware model number:	OX4-SRSoftware version number:	ORYX F/W v4.00 Oryx Data Collector v3.7.2.0data status	okinstallation	princeton_trtdifferential loss correction	single-endedforward channel	channel 1reverse channel	N/Adate	2019/09/18time	21:46:35forward acquisition time	60.00reverse acquisition time	0.00gamma	496.2192k internal	0.2341k external	0.2341temperature offset calibration	1.0018default loss term (dB/km)	0.3790temperature slope calibration	1.0000multiplexer offset coefficient	1.0000multiplexer slope coefficient	1.0000fibre end	0.00T internal ref (°C)	24.84T ext. ref 1 (°C)	0.81T ext. ref 2 (°C)	18.26length (m)	temperature (°C)	Stokes	anti-Stokes-747.200	99.509	-0.115	0.134
-746.185	132.399	-0.207	0.267
-745.171	14.100	-0.127	0.099
-744.156	-54.494	-0.286	-0.130
-743.142	114.062	-0.172	-0.209
-742.127	-114.162	-0.287	0.056
-741.112	-40.477	0.252	0.131
-740.098	-135.402	0.225	-0.027
-739.083	-140.724	-0.225	0.023
-738.069	521.832	0.140	-0.330
-737.054	-21.742	-0.022	0.014
-736.039	-200.000	-0.020	-0.270
-735.025	-65.247	0.146	0.059
-734.010	-200.000	0.050	-0.326
-732.996	-36.041	0.222	-0.120
-731.981	8.316	-0.189	0.142
-730.966	142.371	0.274	-0.365
-729.952	-86.771	-0.080	-0.025
-728.937	220.695	-0.043	-0.069
-727.923	-33.449	0.215	-0.119
-726.908	-136.617	0.119	-0.014
-725.894	-200.000	-0.035	-0.325
-724.879	-200.000	0.021	-0.167
-723.864	-4.235	-0.037	-0.026
-722.850	88.896	-0.129	0.144
-721.835	16.341	-0.029	-0.023
-720.821	-109.885	0.162	-0.034
-719.806	48.978	-0.091	0.085
-718.791	-43.055	-0.137	0.070
-717.777	687.883	0.081	0.213
-716.762	-200.000	-0.002	-0.229
-715.748	-34.958	-0.335	-0.183
-714.733	40.994	-0.051	-0.046
-713.718	800.000	0.035	-0.150
-712.704	-200.000	-0.007	-0.055
-711.689	800.000	0.105	-0.294
-710.675	-143.569	-0.411	0.039
-709.660	800.000	0.158	-0.451
-708.645	-63.386	0.185	0.076
-707.631	-179.047	0.167	0.004
-706.616	-89.941	0.188	-0.055
-705.602	55.044	-0.086	-0.083
-704.587	330.678	-0.078	0.151
-703.572	-200.000	0.013	0.131
-702.558	-200.000	0.012	-0.127
-701.543	-69.247	-0.204	0.078
-700.529	800.000	0.009	0.031
-699.514	11.123	-0.188	0.144
-698.499	-108.302	0.110	0.024
-697.485	-66.513	-0.123	0.049
-696.470	-120.078	-0.144	0.025
-695.456	-90.786	-0.061	-0.017
-694.441	-61.441	0.320	0.135
-693.426	-200.000	0.016	-0.346
-692.412	-143.149	-0.105	-0.010
-691.397	341.141	0.014	-0.027
-690.383	325.395	-0.051	-0.097
-689.368	178.475	-0.143	0.208
-688.354	-18.616	-0.030	-0.019
-687.339	-153.069	0.082	-0.006
-686.324	800.000	-0.103	-0.381
-685.310	-200.000	0.059	0.521
-684.295	49.296	0.180	0.169
-683.281	800.000	-0.044	-0.124
-682.266	38.372	0.145	0.129
-681.251	-153.416	-0.121	-0.008
-680.237	-200.000	-0.001	-0.023
-679.222	800.000	-0.087	-0.241
-678.208	-88.540	0.039	-0.012
-677.193	-116.068	-0.389	-0.072
-676.178	108.521	-0.241	0.288
-675.164	186.547	-0.176	-0.262
-674.149	-63.534	-0.153	0.063
-673.135	451.546	-0.085	-0.187
-672.120	-134.639	-0.468	0.057
-671.105	43.025	0.118	-0.107
-670.091	800.000	-0.047	0.159
-669.076	624.982	-0.066	-0.166
-668.062	800.000	0.074	0.284
-667.047	-200.000	0.043	-0.236
-666.032	-85.990	-0.178	0.055
-665.018	-145.465	-0.166	0.015
-664.003	-139.171	0.274	-0.030
-662.989	244.514	0.081	0.135
-661.974	449.430	-0.035	-0.078
-660.959	426.360	0.088	0.188
-659.945	37.384	0.129	0.114
-658.930	253.817	-0.117	-0.200
-657.916	179.654	-0.239	-0.350
-656.901	33.779	0.150	-0.130
-655.886	-200.000	-0.003	0.424
-654.872	-19.196	-0.106	0.066
-653.857	-200.000	0.053	-0.265
-652.843	11.342	-0.185	0.142
-651.828	-171.426	-0.143	-0.005
-650.814	9.461	0.149	0.112
-649.799	800.000	-0.099	0.381
-648.784	-32.764	0.177	0.098
-647.770	-81.132	-0.077	0.025
-646.755	293.363	-0.098	0.178
-645.741	12.246	-0.337	-0.259
-644.726	280.428	-0.105	0.188
-643.711	-149.649	0.343	-0.027
-642.697	-29.516	0.349	0.199
-641.682	-200.000	-0.003	-0.142
-640.668	-41.976	0.121	-0.062
-639.653	-12.314	0.137	-0.089
-638.638	-28.182	0.294	-0.169
-637.624	64.286	0.084	-0.085
-636.609	800.000	-0.087	-0.310
-635.595	-140.316	0.185	0.019
-634.580	800.000	-0.020	0.081
-633.565	159.460	-0.230	0.319
-632.551	800.000	-0.043	-0.150
-631.536	-58.694	0.218	-0.094
-630.522	-130.230	-0.205	0.028
-629.507	56.975	0.159	0.154
-628.492	-200.000	0.002	-0.412
-627.478	-200.000	0.010	-0.171
-626.463	-200.000	-0.011	-0.165
-625.449	-105.537	0.173	0.039
-624.434	734.558	-0.013	0.034
-623.419	-200.000	0.029	0.229
-622.405	-198.604	-0.273	0.002
-621.390	5.939	0.221	0.163
-620.376	-38.133	0.229	0.121
-619.361	-85.301	-0.076	-0.024
-618.346	-79.102	0.367	-0.124
-617.332	-99.920	0.335	0.083
-616.317	48.526	-0.267	-0.249
-615.303	-22.698	0.143	0.086
-614.288	-200.000	0.001	-0.213
-613.273	-68.976	-0.076	0.029
-612.259	125.252	-0.230	0.290
-611.244	-99.180	-0.119	0.030
-610.230	109.088	0.043	-0.051
-609.215	-19.171	0.262	-0.162
-608.201	-200.000	-0.034	-0.254
-607.186	-4.528	-0.238	0.164
-606.171	-138.850	0.089	0.010
-605.157	-81.087	-0.027	-0.009
-604.142	800.000	-0.043	0.182
-603.128	-35.327	0.104	0.057
-602.113	429.223	0.123	-0.264
-601.098	-143.199	-0.402	0.039
-600.084	142.362	0.098	0.129
-599.069	-200.000	0.010	-0.175
-598.055	800.000	0.028	-0.119
-597.040	466.534	0.100	-0.223
-596.025	332.765	-0.110	0.211
-595.011	297.056	-0.170	-0.311
-593.996	67.652	-0.106	-0.108
-592.982	-200.000	-0.003	-0.044
-591.967	-95.168	0.096	0.026
-590.952	-124.062	-0.448	-0.070
-589.938	-200.000	0.099	-0.000
-588.923	-123.084	0.265	0.042
-587.909	-58.255	-0.027	0.012
-586.894	54.662	0.190	0.182
-585.879	800.000	-0.037	0.149
-584.865	-31.951	0.042	-0.024
-583.850	-24.116	0.197	-0.117
-582.836	-168.033	0.106	0.004
-581.821	303.795	-0.091	-0.168
-580.806	53.143	-0.111	0.106
-579.792	197.341	-0.092	-0.140
-578.777	-82.292	0.462	-0.150
-577.763	-74.091	-0.221	-0.080
-576.748	144.736	0.127	0.169
-575.733	-93.653	-0.241	0.066
-574.719	-62.029	-0.138	-0.058
-573.704	800.000	-0.090	0.308
-572.690	673.998	0.010	0.026
-571.675	407.726	-0.089	-0.188
-570.661	-92.670	0.255	0.071
-569.646	-18.365	0.211	-0.131
-568.631	259.216	-0.156	-0.268
-567.617	-146.653	-0.193	0.017
-566.602	124.882	0.053	0.067
-565.588	-30.183	0.122	-0.069
-564.573	76.377	0.274	0.289
-563.558	-200.000	0.028	-0.247
-562.544	-61.581	0.282	0.118
-561.529	-33.571	0.046	0.025
-560.515	800.000	-0.022	0.066
-559.500	-15.011	0.543	-0.346
-558.485	75.641	0.189	-0.198
-557.471	-30.518	0.273	-0.154
-556.456	126.749	-0.145	-0.182
-555.442	396.039	-0.063	-0.132
-554.427	120.484	-0.028	-0.035
-553.412	82.514	-0.079	0.085
-552.398	179.477	-0.184	-0.268
-551.383	-85.990	0.134	-0.041
-550.369	-121.058	-0.357	-0.060
-549.354	-151.049	-0.174	-0.013
-548.339	-97.039	-0.410	-0.107
-547.325	57.471	-0.188	-0.183
-546.310	-61.098	0.389	0.163
-545.296	-200.000	0.044	0.336
-544.281	371.408	0.042	0.084
-543.266	-200.000	-0.026	-0.215
-542.252	-81.794	0.117	-0.038
-541.237	425.859	-0.123	0.263
-540.223	-166.799	0.395	-0.016
-539.208	-174.083	0.088	0.003
-538.193	-200.000	-0.029	-0.282
-537.179	211.026	-0.240	-0.375
-536.164	15.813	0.198	0.155
-535.150	652.865	0.110	0.279
-534.135	-200.000	0.009	0.286
-533.121	41.885	-0.379	-0.342
-532.106	-200.000	0.014	-0.128
-531.091	13.650	-0.055	0.042
-530.077	-99.669	-0.167	0.042
-529.062	-17.846	0.138	-0.086
-528.048	-81.788	-0.115	-0.038
-527.033	-141.207	-0.273	-0.028
-526.018	119.532	0.234	-0.287
-525.004	-68.503	0.096	-0.037
-523.989	2.094	-0.260	0.186
-522.975	656.085	0.089	-0.227
-521.960	-144.036	-0.118	-0.011
-520.945	219.084	-0.187	-0.298
-519.931	19.298	0.308	-0.246
-518.916	579.287	0.116	0.281
-517.902	-48.822	-0.240	-0.114
-516.887	368.024	-0.118	-0.237
-515.872	-77.103	0.050	0.017
-514.858	800.000	0.032	-0.100
-513.843	666.573	0.103	-0.264
-512.829	-200.000	-0.014	-0.262
-511.814	-122.624	-0.186	-0.030
-510.799	238.200	-0.091	0.149
-509.785	-155.354	0.262	0.017
-508.770	-200.000	-0.014	0.414
-507.756	33.670	-0.231	-0.200
-506.741	-200.000	-0.084	0.435
-505.726	-200.000	0.008	-0.050
-504.712	204.677	0.085	0.131
-503.697	96.294	0.111	-0.127
-502.683	76.022	-0.067	-0.070
-501.668	-27.607	-0.283	-0.163
-500.653	-200.000	0.013	0.195
-499.639	-81.701	0.096	-0.031
-498.624	-200.000	-0.005	-0.195
-497.610	116.641	-0.137	0.166
-496.595	-57.638	0.133	-0.058
-495.581	92.211	-0.141	0.158
-494.566	-174.225	0.259	0.007
-493.551	-200.000	0.033	-0.182
-492.537	800.000	-0.071	0.287
-491.522	-116.443	-0.207	-0.038
-490.508	27.999	0.220	0.184
-489.493	-200.000	0.034	0.207
-488.478	172.853	-0.217	-0.310
-487.464	2.070	-0.345	-0.247
-486.449	-200.000	0.003	-0.389
-485.435	-64.506	-0.309	0.125
-484.420	-200.000	-0.035	0.322
-483.405	128.196	-0.234	0.295
-482.391	-128.445	0.303	-0.043
-481.376	181.431	0.222	-0.323
-480.362	-200.000	-0.018	0.211
-479.347	325.185	-0.060	-0.113
-478.332	-55.936	-0.092	0.041
-477.318	-153.743	-0.166	-0.011
-476.303	83.265	0.159	-0.172
-475.289	447.968	-0.179	-0.390
-474.274	-200.000	-0.007	-0.074
-473.259	711.724	-0.059	0.156
-472.245	102.577	0.018	-0.021
-471.230	-140.114	-0.012	-0.001
-470.216	204.408	0.070	0.107
-469.201	201.663	-0.269	0.411
-468.186	-200.000	0.030	-0.204
-467.172	279.342	0.128	-0.227
-466.157	-200.000	0.077	-0.393
-465.143	-6.147	0.323	0.219
-464.128	-61.750	-0.082	-0.034
-463.113	-200.000	0.001	0.142
-462.099	483.722	-0.049	-0.110
-461.084	-91.264	-0.154	0.044
-460.070	-91.535	0.191	-0.054
-459.055	-200.000	-0.021	0.187
-458.040	-58.717	0.300	0.129
-457.026	-25.953	0.210	-0.123
-456.011	-200.000	0.000	0.109
-454.997	308.397	0.123	0.228
-453.982	-40.542	0.207	0.106
-452.968	-68.398	0.064	0.024
-451.953	-200.000	-0.012	-0.269
-450.938	800.000	0.077	-0.233
-449.924	-21.541	-0.173	-0.104
-448.909	-18.397	-0.239	-0.148
-447.895	322.886	-0.071	0.134
-446.880	249.616	-0.078	0.131
-445.865	800.000	-0.067	0.262
-444.851	800.000	0.065	0.233
-443.836	-200.000	-0.011	0.182
-442.822	-186.422	-0.269	0.004
-441.807	305.670	0.101	0.185
-440.792	441.739	0.130	0.282
-439.778	-200.000	-0.050	0.222
-438.763	-200.000	0.004	-0.142
-437.749	29.531	0.226	-0.190
-436.734	96.165	0.020	-0.023
-435.719	-4.599	-0.384	0.263
-434.705	31.158	0.160	-0.136
-433.690	800.000	0.057	-0.176
-432.676	-51.859	-0.398	-0.184
-431.661	70.217	0.163	-0.167
-430.646	-200.000	0.019	-0.258
-429.632	-200.000	-0.008	-0.092
-428.617	-200.000	-0.022	0.102
-427.603	800.000	-0.076	-0.235
-426.588	-25.552	0.087	-0.051
-425.573	183.471	0.120	0.176
-424.559	499.765	-0.128	0.293
-423.544	-200.000	0.002	-0.066
-422.530	198.863	0.029	-0.044
-421.515	208.956	0.058	0.091
-420.500	408.083	-0.155	-0.325
-419.486	796.705	0.051	-0.140
-418.471	-49.409	0.123	0.058
-417.457	108.468	0.109	-0.129
-416.442	549.230	-0.106	0.251
-415.428	800.000	-0.049	0.146
-414.413	14.722	-0.082	0.064
-413.398	-200.000	-0.081	-0.399
-412.384	116.262	-0.106	0.128
-411.369	800.000	-0.087	-0.247
-410.355	310.870	-0.176	0.326
-409.340	124.216	0.237	0.294
-408.325	800.000	-0.035	0.110
-407.311	417.524	-0.095	0.201
-406.296	469.834	-0.021	-0.048
-405.282	-112.689	0.146	0.029
-404.267	-101.632	0.060	0.015
-403.252	-200.000	-0.061	0.397
-402.238	-22.471	-0.109	0.065
-401.223	4.995	0.215	-0.156
-400.209	800.000	-0.097	0.335
-399.194	3.908	0.106	0.077
-398.179	-34.949	0.303	-0.163
-397.165	-113.640	0.105	-0.020
-396.150	-200.000	0.016	0.104
-395.136	-200.000	-0.043	-0.352
-394.121	800.000	-0.063	-0.182
-393.106	-200.000	0.019	0.185
-392.092	258.851	-0.124	0.211
-391.077	8.971	-0.087	0.065
-390.063	3.135	-0.077	0.056
-389.048	-151.804	0.108	-0.008
-388.033	49.105	-0.125	-0.116
-387.019	5.036	0.126	0.092
-386.004	-61.437	-0.312	0.130
-384.990	105.137	0.351	-0.410
-383.975	-110.505	-0.149	-0.031
-382.960	-69.827	0.115	-0.043
-381.946	188.440	-0.182	-0.269
-380.931	-59.543	-0.111	-0.047
-379.917	-30.906	-0.234	0.130
-378.902	625.265	0.024	-0.060
-377.888	-142.786	-0.131	0.013
-376.873	681.088	0.075	0.192
-375.858	596.854	-0.034	-0.083
-374.844	800.000	-0.072	-0.201
-373.829	-2.694	0.113	-0.078
-372.815	800.000	0.039	-0.110
-371.800	800.000	0.062	0.256
-370.785	-116.478	-0.315	-0.057
-369.771	264.725	-0.149	0.256
-368.756	800.000	0.055	0.196
-367.742	-27.257	-0.125	0.072
-366.727	-64.347	-0.152	-0.061
-365.712	543.297	-0.091	-0.215
-364.698	800.000	-0.085	0.331
-363.683	294.780	0.126	-0.227
-362.669	-200.000	0.021	-0.271
-361.654	-161.631	-0.141	-0.007
-360.639	-34.149	0.168	-0.091
-359.625	-200.000	-0.002	-0.157
-358.610	-107.497	-0.223	-0.048
-357.596	-177.213	0.023	0.001
-356.581	-100.725	-0.063	-0.015
-355.566	633.675	0.120	0.301
-354.552	381.930	-0.150	-0.303
-353.537	5.750	0.171	0.125
-352.523	-116.335	0.302	0.055
-351.508	448.313	0.111	0.241
-350.493	199.316	-0.108	-0.163
-349.479	-161.316	0.289	0.015
-348.464	26.747	0.134	-0.110
-347.450	800.000	-0.034	-0.120
-346.435	-0.390	0.264	0.185
-345.420	-11.636	-0.168	0.109
-344.406	142.999	0.198	0.260
-343.391	-200.000	0.041	-0.280
-342.377	236.907	-0.279	0.455
-341.362	315.259	-0.143	0.266
-340.348	46.228	-0.132	-0.120
-339.333	40.023	-0.176	-0.156
-338.318	-200.000	-0.013	-0.179
-337.304	-200.000	0.022	-0.280
-336.289	245.219	0.171	-0.284
-335.275	800.000	0.046	-0.168
-334.260	-200.000	-0.047	0.218
-333.245	-16.409	0.225	-0.140
-332.231	607.237	0.063	-0.155
-331.216	30.354	-0.362	-0.305
-330.202	93.343	-0.067	0.075
-329.187	800.000	0.064	0.237
-328.172	800.000	0.032	0.101
-327.158	384.857	-0.119	0.241
-326.143	-123.325	0.193	0.030
-325.129	-48.296	0.063	-0.030
-324.114	-60.218	-0.236	0.099
-323.099	-73.893	0.154	0.055
-322.085	-88.415	-0.296	0.087
-321.070	-200.000	0.059	-0.333
-320.056	-52.110	-0.182	0.083
-319.041	47.150	-0.136	0.125
-318.026	800.000	0.032	0.113
-317.012	-200.000	-0.008	-0.145
-315.997	-200.000	-0.004	-0.136
-314.983	-200.000	-0.040	-0.185
-313.968	800.000	0.061	-0.203
-312.953	-165.117	0.327	-0.014
-311.939	800.000	-0.073	-0.280
-310.924	178.583	-0.100	0.144
-309.910	225.843	-0.167	0.267
-308.895	-97.313	-0.258	-0.066
-307.880	283.436	-0.116	0.206
-306.866	-3.547	0.098	-0.067
-305.851	-200.000	-0.078	-0.421
-304.837	-138.324	-0.157	-0.017
-303.822	196.274	0.071	0.107
-302.807	-48.576	-0.043	-0.020
-301.793	-110.917	-0.061	-0.012
-300.778	265.825	-0.028	-0.049
-299.764	325.149	0.057	-0.108
-298.749	-22.072	0.091	0.054
-297.735	-53.551	-0.089	0.040
-296.720	-153.745	0.292	-0.020
-295.705	-95.007	-0.207	0.055
-294.691	213.400	-0.094	-0.146
-293.676	37.510	-0.188	-0.164
-292.662	95.894	0.142	0.160
-291.647	200.821	-0.138	-0.209
-290.632	-69.174	-0.144	-0.054
-289.618	-200.000	-0.025	0.147
-288.603	-39.288	-0.229	-0.118
-287.589	69.078	-0.294	0.298
-286.574	-100.442	0.453	0.110
-285.559	171.710	-0.216	0.305
-284.545	160.281	-0.072	0.099
-283.530	50.843	0.110	-0.103
-282.516	-173.121	0.087	0.003
-281.501	-85.398	0.164	0.050
-280.486	-200.000	-0.022	0.101
-279.472	-115.286	0.357	0.066
-278.457	142.239	0.199	-0.260
-277.443	129.727	0.154	-0.194
-276.428	-56.399	0.208	0.091
-275.413	-200.000	0.021	0.149
-274.399	30.301	-0.083	0.070
-273.384	43.678	0.097	-0.087
-272.370	-25.165	-0.192	-0.112
-271.355	-28.628	-0.148	0.084
-270.340	-200.000	-0.002	-0.244
-269.326	-40.939	-0.063	-0.032
-268.311	146.701	0.079	0.104
-267.297	-128.195	0.260	0.037
-266.282	800.000	-0.037	0.155
-265.267	800.000	-0.046	-0.179
-264.253	-8.477	0.184	-0.122
-263.238	-53.978	-0.069	0.031
-262.224	546.290	-0.053	0.125
-261.209	69.172	-0.391	0.396
-260.195	-167.795	0.329	-0.013
-259.180	800.000	0.119	-0.346
-258.165	-29.337	-0.291	-0.164
-257.151	800.000	-0.138	0.396
-256.136	-111.477	-0.131	0.026
-255.122	-68.705	0.179	-0.068
-254.107	143.809	0.112	-0.147
-253.092	53.367	-0.300	0.283
-252.078	-104.377	0.131	0.030
-251.063	-93.042	-0.098	0.027
-250.049	4.143	-0.234	-0.168
-249.034	-145.297	-0.180	-0.016
-248.019	25.321	-0.046	-0.037
-247.005	776.322	-0.098	-0.264
-245.990	-200.000	0.037	-0.186
-244.976	192.501	0.189	0.281
-243.961	131.035	-0.193	0.244
-242.946	-118.015	0.052	0.009
-241.932	-200.000	0.060	0.350
-240.917	1.105	0.242	0.171
-239.903	0.517	0.130	0.091
-238.888	-200.000	0.034	-0.232
-237.873	-109.367	0.293	-0.061
-236.859	-200.000	-0.052	-0.267
-235.844	-169.542	0.140	0.005
-234.830	-50.794	-0.080	-0.037
-233.815	-13.668	0.161	-0.102
-232.800	-41.636	-0.217	0.110
-231.786	378.924	-0.093	0.187
-230.771	118.096	-0.142	0.172
-229.757	138.320	0.087	-0.112
-228.742	800.000	0.036	-0.128
-227.727	-19.543	0.144	-0.088
-226.713	14.608	-0.205	0.157
-225.698	-200.000	-0.011	-0.250
-224.684	800.000	0.085	0.273
-223.669	-152.386	0.222	0.016
-222.655	383.876	0.101	-0.204
-221.640	-137.772	0.306	-0.034
-220.625	119.180	-0.153	-0.186
-219.611	800.000	0.037	0.104
-218.596	540.134	-0.029	0.068
-217.582	46.068	0.271	0.246
-216.567	15.043	0.044	0.034
-215.552	-43.460	0.352	0.174
-214.538	137.609	-0.211	-0.271
-213.523	-200.000	-0.005	0.071
-212.509	-98.308	0.142	-0.036
-211.494	800.000	0.070	0.274
-210.479	88.354	-0.195	0.213
-209.465	-45.271	-0.250	0.122
-208.450	-68.914	0.220	0.083
-207.436	-154.607	-0.342	0.022
-206.421	-200.000	0.024	0.145
-205.406	93.378	-0.199	0.221
-204.392	267.562	-0.057	-0.098
-203.377	280.678	0.012	-0.021
-202.363	-12.776	0.170	-0.108
-201.348	19.647	-0.191	-0.151
-200.333	-162.039	-0.407	-0.020
-199.319	160.181	0.180	-0.246
-198.304	424.914	0.057	-0.120
-197.290	-78.862	0.109	0.036
-196.275	800.000	-0.068	0.197
-195.260	684.840	-0.057	0.145
-194.246	-117.371	-0.208	-0.037
-193.231	56.164	0.019	-0.019
-192.217	463.447	0.079	0.173
-191.202	-200.000	0.045	0.297
-190.187	-200.000	0.054	0.274
-189.173	56.241	-0.130	0.124
-188.158	473.580	0.204	0.451
-187.144	72.113	0.091	-0.093
-186.129	36.766	0.073	-0.063
-185.114	-45.222	0.058	-0.028
-184.100	13.594	-0.204	0.155
-183.085	230.005	-0.145	-0.232
-182.071	-34.043	0.088	0.048
-181.056	238.904	0.049	0.080
-180.042	-92.546	0.280	-0.077
-179.027	-200.000	-0.005	-0.082
-178.012	800.000	-0.072	0.225
-176.998	59.879	0.026	0.025
-175.983	387.596	0.153	0.310
-174.969	-86.836	0.099	0.030
-173.954	-200.000	0.012	0.266
-172.939	800.000	-0.099	0.295
-171.925	-10.419	0.130	-0.084
-170.910	-111.467	-0.152	-0.030
-169.896	231.079	-0.154	-0.247
-168.881	27.096	0.313	0.258
-167.866	-200.000	0.043	0.189
-166.852	-82.962	0.278	-0.088
-165.837	24.748	-0.241	0.196
-164.823	-200.000	0.026	-0.174
-163.808	-45.655	-0.167	-0.081
-162.793	272.825	-0.078	-0.136
-161.779	263.628	0.111	0.188
-160.764	42.804	-0.142	-0.127
-159.750	-64.181	0.506	0.202
-158.735	-2.982	0.083	-0.057
-157.720	-85.905	0.115	0.035
-156.706	474.527	-0.107	-0.236
-155.691	-101.601	-0.090	-0.021
-154.677	-148.744	0.196	-0.016
-153.662	68.180	0.131	0.131
-152.647	46.296	-0.312	0.284
-151.633	-110.283	-0.165	-0.034
-150.618	-48.410	0.266	0.125
-149.604	-181.520	-0.254	-0.005
-148.589	-200.000	0.014	0.246
-147.574	-39.904	-0.056	-0.029
-146.560	449.065	0.061	0.132
-145.545	-22.198	-0.213	-0.126
-144.531	-35.809	0.060	0.032
-143.516	415.971	0.086	-0.179
-142.502	-200.000	0.027	-0.350
-141.487	295.826	-0.111	-0.198
-140.472	-200.000	-0.067	-0.374
-139.458	-25.973	-0.230	0.133
-138.443	433.358	0.064	0.137
-137.429	67.068	0.199	0.198
-136.414	181.475	0.113	-0.162
-135.399	-200.000	0.048	0.220
-134.385	-25.751	0.304	-0.175
-133.370	800.000	-0.072	-0.265
-132.356	-62.475	-0.263	0.107
-131.341	-120.338	-0.109	0.018
-130.326	36.904	-0.118	0.102
-129.312	-200.000	0.045	-0.193
-128.297	-34.300	-0.106	-0.057
-127.283	-46.716	0.133	-0.064
-126.268	-200.000	-0.045	-0.286
-125.253	-54.433	0.235	0.104
-124.239	-85.957	0.308	-0.093
-123.224	59.861	-0.252	-0.244
-122.210	800.000	-0.064	-0.185
-121.195	-200.000	0.016	0.150
-120.180	-200.000	-0.004	-0.134
-119.166	138.547	0.040	0.051
-118.151	-180.969	-0.195	0.004
-117.137	11.273	0.184	-0.138
-116.122	67.148	0.242	-0.241
-115.107	185.047	0.132	0.192
-114.093	332.261	-0.218	0.411
-113.078	17.397	0.135	0.105
-112.064	-18.622	-0.227	-0.138
-111.049	69.307	0.042	-0.043
-110.034	228.583	0.076	-0.122
-109.020	-144.815	-0.163	0.015
-108.005	-200.000	-0.055	0.468
-106.991	-165.294	0.151	-0.006
-105.976	800.000	0.105	-0.396
-104.962	-200.000	-0.005	-0.111
-103.947	392.930	-0.072	-0.147
-102.932	-200.000	-0.012	-0.076
-101.918	-156.785	0.042	-0.003
-100.903	148.391	-0.135	-0.178
-99.889	520.919	0.031	-0.070
-98.874	-200.000	-0.016	0.074
-97.859	132.317	0.136	-0.171
-96.845	800.000	-0.024	0.094
-95.830	127.101	-0.161	0.200
-94.816	-55.975	0.215	-0.094
-93.801	51.394	-0.180	-0.167
-92.786	-54.901	-0.056	-0.025
-91.772	-67.063	0.513	0.198
-90.757	-200.000	0.005	-0.062
-89.743	119.149	-0.164	-0.199
-88.728	-23.372	0.173	-0.101
-87.713	6.037	0.160	-0.115
-86.699	173.127	0.153	-0.215
-85.684	449.884	0.048	0.103
-84.670	800.000	0.023	0.090
-83.655	-200.000	-0.003	0.234
-82.640	-48.556	0.143	0.067
-81.626	-96.811	0.242	0.062
-80.611	177.008	0.065	0.092
-79.597	-200.000	0.017	0.085
-78.582	-163.892	-0.392	0.018
-77.567	-21.517	-0.087	0.052
-76.553	29.154	0.115	-0.095
-75.538	-200.000	-0.030	0.224
-74.524	70.412	0.170	0.171
-73.509	39.816	-0.028	-0.025
-72.494	34.766	-0.133	-0.114
-71.480	-120.068	0.148	0.025
-70.465	-32.508	-0.122	-0.066
-69.451	134.458	0.159	0.202
-68.436	-83.529	0.153	-0.048
-67.422	390.988	0.198	-0.402
-66.407	-43.364	0.037	0.018
-65.392	-200.000	0.023	-0.161
-64.378	-200.000	-0.007	-0.196
-63.363	-71.714	-0.130	0.047
-62.349	143.329	0.076	-0.098
-61.334	83.903	-1.059	-1.128
-60.319	76.160	0.759	0.783
-59.305	-200.000	-0.216	-0.965
-58.290	129.287	1.222	1.522
-57.276	800.000	0.492	1.556
-56.261	-200.000	120.306	631.571
-55.246	424.029	1531.613	3212.772
-54.232	149.459	2675.999	3534.844
-53.217	98.824	2127.030	2394.557
-52.203	36.049	1574.290	1351.749
-51.188	28.112	1321.510	1087.681
-50.173	25.480	1283.859	1041.419
-49.159	51.013	1351.744	1249.759
-48.144	48.883	1363.486	1247.866
-47.130	28.168	1311.978	1079.992
-46.115	24.938	1293.778	1046.133
-45.100	24.792	1288.493	1040.968
-44.086	24.847	1285.816	1039.087
-43.071	24.685	1284.136	1036.745
-42.057	24.699	1281.775	1034.881
-41.042	24.764	1280.193	1033.936
-40.027	24.774	1278.527	1032.608
-39.013	24.643	1276.918	1030.513
-37.998	24.661	1275.264	1029.242
-36.984	24.773	1273.537	1028.449
-35.969	24.880	1271.387	1027.290
-34.954	24.816	1269.351	1025.237
-33.940	24.931	1268.459	1025.130
-32.925	24.929	1266.632	1023.603
-31.911	24.865	1265.958	1022.651
-30.896	24.951	1264.383	1021.830
-29.881	25.031	1263.088	1021.200
-28.867	25.032	1261.489	1019.873
-27.852	24.935	1260.269	1018.295
-26.838	24.891	1259.594	1017.456
-25.823	24.906	1258.252	1016.417
-24.809	24.897	1256.569	1014.966
-23.794	24.997	1255.128	1014.332
-22.779	24.925	1254.008	1012.975
-21.765	24.939	1252.812	1012.050
-20.750	24.966	1251.437	1011.053
-19.736	24.794	1250.591	1009.355
-18.721	24.691	1249.578	1007.918
-17.706	24.796	1248.165	1007.334
-16.692	24.842	1246.601	1006.286
-15.677	24.884	1245.775	1005.818
-14.663	24.794	1244.755	1004.450
-13.648	24.847	1243.701	1003.858
-12.633	24.872	1242.490	1002.977
-11.619	24.881	1241.818	1002.448
-10.604	24.672	1241.491	1000.971
-9.590	24.738	1240.311	1000.349
-8.575	24.762	1238.851	999.267
-7.560	24.809	1238.091	998.878
-6.546	24.777	1237.635	998.289
-5.531	24.785	1236.827	997.646
-4.517	24.784	1236.094	997.005
-3.502	24.793	1235.520	996.556
-2.487	24.762	1234.617	995.614
-1.473	24.661	1230.066	991.347
-0.458	22.901	1215.344	969.787
0.556	18.433	1199.171	932.345
1.571	14.620	1206.356	916.937
2.586	13.924	1220.735	923.912
3.600	14.003	1209.730	915.936
4.615	10.577	1139.619	844.963
5.629	4.128	1068.828	760.820
6.644	1.018	1051.299	733.236
7.659	0.732	1049.302	730.398
8.673	0.698	1049.321	730.181
9.688	0.793	1047.590	729.372
10.702	1.049	1045.187	728.864
11.717	5.007	1049.656	751.007
12.731	12.016	1059.142	791.694
13.746	16.417	1064.626	817.045
14.761	17.388	1065.180	822.093
15.775	16.729	1063.432	817.492
16.790	15.635	1061.777	810.873
17.804	14.963	1060.178	806.341
18.819	14.671	1058.870	803.867
19.834	14.450	1057.976	802.059
20.848	14.077	1057.660	799.954
21.863	13.958	1056.279	798.264
22.877	13.821	1055.374	796.853
23.892	13.767	1054.788	796.081
24.907	13.642	1054.320	795.058
25.921	13.715	1053.992	795.089
26.936	13.751	1052.493	794.062
27.950	13.867	1051.417	793.732
28.965	13.941	1050.237	793.127
29.980	13.801	1049.404	791.757
30.994	13.963	1048.154	791.516
32.009	13.903	1047.536	790.695
33.023	13.942	1046.103	789.730
34.038	13.910	1045.116	788.763
35.053	13.859	1044.718	788.149
36.067	13.900	1043.838	787.608
37.082	13.891	1042.960	786.833
38.096	13.943	1042.016	786.299
39.111	13.849	1041.400	785.319
40.126	13.782	1040.061	783.924
41.140	13.756	1039.034	782.961
42.155	13.679	1037.709	781.526
43.169	13.789	1036.674	781.198
44.184	13.713	1035.479	779.870
45.199	13.628	1034.780	778.875
46.213	13.776	1033.737	778.716
47.228	13.713	1033.026	777.818
48.242	13.842	1031.733	777.379
49.257	13.860	1030.404	776.395
50.271	13.844	1029.758	775.761
51.286	13.821	1028.905	774.942
52.301	13.782	1027.866	773.912
53.315	13.800	1026.813	773.135
54.330	13.801	1025.718	772.247
55.344	13.731	1025.376	771.592
56.359	13.871	1024.007	771.145
57.374	13.677	1023.487	769.786
58.388	13.662	1022.525	768.923
59.403	13.715	1021.501	768.331
60.417	13.696	1021.351	768.064
61.432	13.725	1019.909	767.044
62.447	13.567	1019.587	766.004
63.461	13.747	1018.538	765.980
64.476	13.717	1017.315	764.851
65.490	13.625	1016.934	764.078
66.505	13.705	1016.187	763.815
67.520	13.725	1015.834	763.574
68.534	13.637	1015.155	762.589
69.549	13.742	1013.858	762.030
70.563	13.576	1013.476	760.914
71.578	13.599	1012.749	760.406
72.593	13.705	1011.556	759.929
73.607	13.546	1010.932	758.665
74.622	13.594	1010.342	758.376
75.636	13.608	1009.655	757.857
76.651	13.500	1008.901	756.729
77.666	13.633	1008.492	756.965
78.680	13.592	1007.696	756.114
79.695	13.638	1006.831	755.604
80.709	13.640	1006.448	755.259
81.724	13.642	1005.780	754.703
82.739	13.784	1004.786	754.534
83.753	13.819	1004.007	754.042
84.768	13.972	1002.449	753.498
85.782	13.979	1001.990	753.121
86.797	13.829	1001.196	751.779
87.812	13.869	1000.445	751.329
88.826	13.760	999.534	750.082
89.841	13.709	998.532	749.035
90.855	13.786	997.731	748.715
91.870	13.900	997.060	748.659
92.884	13.907	995.694	747.601
93.899	13.852	994.933	746.713
94.914	13.992	994.210	746.735
95.928	13.844	994.019	745.860
96.943	14.055	992.409	745.534
97.957	13.886	992.023	744.417
98.972	13.865	991.518	743.882
99.987	13.865	990.142	742.784
101.001	13.873	989.413	742.207
102.016	13.814	988.616	741.280
103.030	13.845	987.870	740.793
104.045	13.954	986.995	740.557
105.060	13.830	986.523	739.585
106.074	13.824	985.504	738.728
107.089	13.737	984.410	737.458
108.103	13.839	983.146	736.899
109.118	13.735	982.575	735.940
110.133	13.801	981.188	735.131
111.147	13.981	980.351	735.236
112.162	13.863	979.703	734.162
113.176	13.836	978.687	733.218
114.191	13.871	978.673	733.297
115.206	13.882	977.456	732.369
116.220	13.897	976.450	731.613
117.235	13.881	975.417	730.706
118.249	13.802	975.155	730.099
119.264	13.908	974.363	729.907
120.279	13.831	973.399	728.783
121.293	13.910	972.577	728.447
122.308	13.712	971.874	726.990
123.322	13.872	970.502	726.599
124.337	13.755	969.547	725.306
125.352	13.909	968.285	724.974
126.366	13.867	967.222	723.929
127.381	13.882	966.204	723.168
128.395	13.805	965.333	722.115
129.410	13.844	964.906	721.901
130.424	13.890	963.812	721.221
131.439	13.813	963.063	720.264
132.454	13.912	962.313	720.066
133.468	13.822	961.483	718.994
134.483	14.041	960.360	719.035
135.497	13.994	959.533	718.149
136.512	13.938	958.918	717.384
137.527	13.887	958.216	716.574
138.541	13.967	957.317	716.187
139.556	13.943	956.497	715.405
140.570	13.957	956.341	715.287
141.585	13.899	955.144	714.079
142.600	13.929	954.441	713.617
143.614	13.994	953.816	713.368
144.629	14.103	953.174	713.289
145.643	14.077	952.289	712.455
146.658	14.073	950.883	711.321
147.673	13.953	950.256	710.276
148.687	14.023	949.384	709.860
149.702	14.084	948.242	709.203
150.716	14.056	947.305	708.321
151.731	13.947	947.121	707.657
152.746	13.955	946.473	707.145
153.760	14.056	945.719	706.948
154.775	14.152	945.065	706.803
155.789	14.068	944.512	705.972
156.804	14.111	943.890	705.627
157.819	14.203	943.179	705.421
158.833	14.167	942.855	704.965
159.848	14.094	942.212	704.112
160.862	14.117	940.814	703.104
161.877	14.151	939.817	702.439
162.892	14.022	939.081	701.285
163.906	14.101	938.069	700.799
164.921	14.007	937.609	699.996
165.935	14.061	936.690	699.477
166.950	14.249	935.313	699.178
167.964	14.154	934.542	698.141
168.979	14.213	933.747	697.731
169.994	14.211	933.183	697.238
171.008	14.187	932.675	696.699
172.023	14.246	932.169	696.507
173.037	14.212	931.236	695.603
174.052	14.254	930.654	695.282
175.067	14.181	929.959	694.399
176.081	14.201	929.430	694.023
177.096	14.143	928.971	693.377
178.110	14.388	927.793	693.459
179.125	14.316	927.598	692.950
180.140	14.317	926.745	692.256
181.154	14.388	926.057	691.976
182.169	14.378	925.865	691.731
183.183	14.426	925.125	691.316
184.198	14.441	924.151	690.590
185.213	14.504	923.506	690.306
186.227	14.552	922.795	689.912
187.242	14.485	922.402	689.281
188.256	14.536	922.091	689.200
189.271	14.474	920.978	688.048
190.286	14.446	920.467	687.491
191.300	14.345	919.330	686.165
192.315	14.251	919.202	685.623
193.329	14.157	919.078	685.080
194.344	14.417	917.588	684.978
195.359	14.443	916.535	684.239
196.373	14.583	916.555	684.766
197.388	14.659	915.992	684.600
198.402	14.555	915.623	683.836
199.417	14.598	914.690	683.255
200.432	14.641	914.254	683.043
201.446	14.683	913.687	682.731
202.461	14.666	913.700	682.610
203.475	14.735	912.432	681.885
204.490	14.809	911.681	681.567
205.504	14.696	910.884	680.448
206.519	14.765	910.135	680.112
207.534	14.703	909.647	679.433
208.548	14.720	909.144	679.067
209.563	14.780	908.156	678.512
210.577	14.699	907.868	677.909
211.592	14.830	906.778	677.567
212.607	14.828	906.204	677.067
213.621	14.825	905.802	676.696
214.636	14.942	904.693	676.280
215.650	14.846	904.154	675.429
216.665	14.921	903.586	675.248
217.680	14.967	903.025	674.955
218.694	14.980	902.317	674.421
219.709	14.905	901.945	673.779
220.723	14.930	900.906	673.046
221.738	14.931	899.917	672.250
222.753	14.929	899.667	671.995
223.767	15.059	898.987	671.951
224.782	14.977	898.655	671.312
225.796	15.142	898.074	671.483
226.811	14.999	897.180	670.180
227.826	14.873	896.497	669.107
228.840	15.003	895.645	668.931
229.855	15.018	894.851	668.339
230.869	15.087	894.290	668.136
231.884	15.103	893.588	667.616
232.899	15.047	892.776	666.728
233.913	15.153	892.025	666.531
234.928	15.017	891.456	665.506
235.942	15.014	891.115	665.181
236.957	15.034	890.685	664.880
237.972	15.105	890.004	664.592
238.986	15.123	889.152	663.970
240.001	15.003	888.542	662.980
241.015	15.148	887.672	662.848
242.030	15.201	887.294	662.715
243.045	15.166	886.679	662.059
244.059	15.204	886.125	661.736
245.074	15.295	885.536	661.596
246.088	15.205	884.957	660.750
247.103	15.226	884.425	660.378
248.117	15.466	883.223	660.366
249.132	15.448	883.249	660.257
250.147	15.472	882.364	659.632
251.161	15.388	881.818	658.837
252.176	15.509	881.037	658.670
253.190	15.600	880.183	658.328
254.205	15.476	879.599	657.348
255.220	15.593	879.283	657.511
256.234	15.653	878.513	657.112
257.249	15.467	877.990	655.936
258.263	15.521	877.065	655.399
259.278	15.481	876.642	654.866
260.293	15.611	875.643	654.569
261.307	15.694	875.311	654.585
262.322	15.762	874.183	653.951
263.336	15.623	874.212	653.371
264.351	15.673	873.472	652.954
265.366	15.617	873.001	652.330
266.380	15.663	872.488	652.065
267.395	15.742	871.799	651.799
268.409	15.682	870.792	650.756
269.424	15.657	870.237	650.187
270.439	15.786	869.332	649.954
271.453	15.917	868.770	649.981
272.468	15.830	868.267	649.211
273.482	15.831	867.735	648.761
274.497	15.750	866.732	647.640
275.512	15.770	866.526	647.507
276.526	15.827	866.260	647.472
277.541	15.950	865.436	647.269
278.555	15.885	864.920	646.576
279.570	15.963	864.386	646.421
280.585	16.011	863.335	645.759
281.599	15.921	862.883	645.020
282.614	16.002	861.970	644.592
283.628	15.930	862.090	644.346
284.643	15.924	861.186	643.591
285.657	16.042	860.398	643.397
286.672	16.029	859.519	642.632
287.687	16.150	859.159	642.769
288.701	15.985	858.916	641.903
289.716	16.176	858.103	641.965
290.730	16.037	857.462	640.899
291.745	16.107	857.063	640.810
292.760	16.086	856.656	640.368
293.774	16.202	855.948	640.225
294.789	16.171	855.226	639.509
295.803	16.178	854.360	638.831
296.818	16.029	853.861	637.838
297.833	16.102	852.755	637.231
298.847	16.208	852.355	637.275
299.862	16.098	852.071	636.594
300.876	16.194	851.717	636.633
301.891	16.341	850.545	636.254
302.906	16.382	850.055	635.987
303.920	16.445	849.752	635.940
304.935	16.435	848.895	635.204
305.949	16.397	848.336	634.590
306.964	16.364	847.516	633.794
307.979	16.381	847.114	633.500
308.993	16.400	847.043	633.464
310.008	16.548	845.951	633.145
311.022	16.339	845.382	631.880
312.037	16.401	844.831	631.645
313.052	16.434	844.400	631.389
314.066	16.498	844.056	631.315
315.081	16.362	843.393	630.258
316.095	16.299	842.651	629.414
317.110	16.157	842.337	628.591
318.125	16.488	841.395	629.068
319.139	16.448	841.666	629.064
320.154	16.496	840.400	628.242
321.168	16.617	840.098	628.410
322.183	16.459	839.641	627.426
323.197	16.413	839.268	626.922
324.212	16.512	838.796	626.878
325.227	16.530	837.846	626.179
326.241	16.631	836.963	625.840
327.256	16.508	836.622	625.074
328.270	16.554	836.157	624.842
329.285	16.488	835.701	624.200
330.300	16.560	834.788	623.728
331.314	16.610	834.820	623.882
332.329	16.540	834.119	623.044
333.343	16.618	833.665	622.940
334.358	16.695	833.548	623.079
335.373	16.735	832.706	622.542
336.387	16.764	832.113	622.148
337.402	16.816	831.748	622.015
338.416	16.608	832.126	621.478
339.431	16.976	831.118	622.018
340.446	16.916	830.779	621.489
341.460	16.851	830.858	621.257
342.475	16.968	830.116	621.073
343.489	16.831	829.504	620.059
344.504	16.862	829.295	619.963
345.519	16.952	828.845	619.900
346.533	16.854	828.557	619.273
347.548	16.938	827.746	618.917
348.562	16.978	826.812	618.309
349.577	16.891	826.390	617.624
350.592	16.859	825.773	616.990
351.606	16.923	825.024	616.608
352.621	16.987	824.628	616.489
353.635	17.058	823.758	616.043
354.650	16.952	823.429	615.358
355.665	17.073	822.888	615.338
356.679	16.984	822.469	614.648
357.694	17.037	821.722	614.229
358.708	16.970	821.290	613.606
359.723	17.107	820.744	613.640
360.738	17.141	819.786	612.995
361.752	17.157	819.343	612.665
362.767	17.000	819.031	611.811
363.781	17.285	818.096	612.085
364.796	17.331	817.618	611.838
365.810	17.334	817.207	611.487
366.825	17.332	816.946	611.232
367.840	17.328	816.535	610.857
368.854	17.287	815.970	610.234
369.869	17.215	815.849	609.831
370.883	17.348	815.100	609.692
371.898	17.330	815.084	609.562
372.913	17.371	814.639	609.323
373.927	17.417	813.911	608.888
374.942	17.454	813.197	608.434
375.956	17.447	813.193	608.349
376.971	17.591	812.494	608.287
377.986	17.489	812.091	607.568
379.000	17.507	811.909	607.443
380.015	17.454	811.354	606.784
381.029	17.568	810.634	606.598
382.044	17.637	810.002	606.318
383.059	17.620	809.556	605.870
384.073	17.675	808.922	605.536
385.088	17.597	808.332	604.764
386.102	17.612	807.942	604.473
387.117	17.535	807.494	603.811
388.132	17.601	806.746	603.432
389.146	17.536	806.542	602.996
390.161	17.612	806.325	603.049
391.175	17.668	805.437	602.529
392.190	17.627	804.809	601.861
393.205	17.725	804.321	601.788
394.219	17.633	804.191	601.315
395.234	17.619	803.747	600.881
396.248	17.655	803.495	600.766
397.263	17.595	802.941	600.086
398.278	17.613	802.393	599.688
399.292	17.547	802.263	599.303
400.307	17.694	801.532	599.222
401.321	17.673	801.297	598.921
402.336	17.803	800.563	598.774
403.350	17.859	800.187	598.635
404.365	17.847	799.893	598.323
405.380	17.715	799.320	597.379
406.394	17.929	798.554	597.501
407.409	18.022	798.354	597.623
408.423	18.059	797.942	597.394
409.438	17.985	797.205	596.530
410.453	18.021	797.058	596.492
411.467	18.097	796.511	596.295
412.482	18.137	795.976	595.982
413.496	18.025	795.657	595.299
414.511	18.104	795.160	595.150
415.526	18.103	795.044	595.008
416.540	18.181	794.594	594.890
417.555	18.171	794.078	594.415
418.569	18.194	793.475	593.993
419.584	18.142	793.285	593.616
420.599	18.266	792.567	593.457
421.613	115.809	1296.421	1487.695
422.628	99.764	1369.779	1487.787
