DTS Sentinel unit serial number:	SN413079Multiplexer serial number:	ORYXHardware model number:	OX4-SRSoftware version number:	ORYX F/W v4.00 Oryx Data Collector v3.7.2.0data status	okinstallation	princeton_trtdifferential loss correction	single-endedforward channel	channel 1reverse channel	N/Adate	2019/09/13time	15:30:35forward acquisition time	60.00reverse acquisition time	0.00gamma	496.2192k internal	0.2306k external	0.2306temperature offset calibration	1.0166default loss term (dB/km)	0.3790temperature slope calibration	1.0000multiplexer offset coefficient	1.0000multiplexer slope coefficient	1.0000fibre end	0.00T internal ref (°C)	35.12T ext. ref 1 (°C)	4.74T ext. ref 2 (°C)	29.62length (m)	temperature (°C)	Stokes	anti-Stokes-747.200	149.026	-0.047	0.064
-746.185	-36.729	-0.210	0.115
-745.171	-82.617	0.337	-0.111
-744.156	-34.787	0.184	0.102
-743.142	-94.144	-0.107	-0.030
-742.127	-20.844	0.075	-0.047
-741.112	476.086	-0.151	0.346
-740.098	-200.000	-0.003	-0.095
-739.083	29.722	-0.214	0.185
-738.069	800.000	-0.148	0.422
-737.054	-109.494	-0.292	0.063
-736.039	-161.073	-0.435	0.023
-735.025	800.000	-0.094	0.298
-734.010	-77.050	-0.045	-0.016
-732.996	-185.307	-0.220	0.003
-731.981	-200.000	-0.001	-0.086
-730.966	-166.705	-0.301	0.013
-729.952	-64.949	-0.207	-0.085
-728.937	800.000	0.044	0.147
-727.923	294.785	0.085	-0.159
-726.908	-133.893	-0.287	-0.036
-725.894	-93.966	0.147	0.041
-724.879	-112.558	0.267	0.054
-723.864	-74.874	-0.293	0.107
-722.850	16.406	-0.194	-0.155
-721.835	-200.000	-0.011	-0.255
-720.821	167.551	0.287	-0.415
-719.806	-171.439	-0.122	0.004
-718.791	800.000	-0.080	0.328
-717.777	5.265	-0.379	0.284
-716.762	8.403	-0.254	0.194
-715.748	-174.815	0.079	-0.002
-714.733	456.326	0.118	-0.267
-713.718	11.171	0.063	0.049
-712.704	800.000	0.048	-0.189
-711.689	142.477	0.247	0.334
-710.675	-200.000	-0.043	-0.210
-709.660	-200.000	-0.004	-0.050
-708.645	92.624	-0.189	-0.217
-707.631	-49.723	0.283	-0.137
-706.616	6.915	0.156	-0.118
-705.602	-101.878	-0.108	0.027
-704.587	-106.233	0.323	0.074
-703.572	-44.467	0.309	-0.157
-702.558	277.103	-0.089	-0.161
-701.543	-42.329	-0.201	-0.104
-700.529	241.566	-0.099	-0.168
-699.514	-22.459	-0.142	0.087
-698.499	-132.210	-0.278	0.037
-697.485	-175.568	0.128	0.004
-696.470	29.686	0.190	0.164
-695.456	395.924	-0.059	0.126
-694.441	509.223	0.033	-0.078
-693.426	-19.515	0.167	-0.105
-692.412	331.499	-0.083	-0.163
-691.397	-144.473	0.299	-0.028
-690.383	57.337	-0.199	0.197
-689.368	-15.778	-0.354	0.229
-688.354	85.661	0.095	-0.106
-687.339	-129.977	0.111	0.015
-686.324	-155.057	0.195	0.013
-685.310	-200.000	0.099	-0.482
-684.295	-119.134	-0.213	-0.038
-683.281	-200.000	-0.001	-0.054
-682.266	-200.000	0.019	0.089
-681.251	-62.959	-0.497	-0.209
-680.237	-175.801	0.433	0.012
-679.222	-54.438	0.051	0.023
-678.208	150.934	-0.228	-0.315
-677.193	-166.442	0.409	-0.017
-676.178	-200.000	0.034	-0.207
-675.164	-55.171	-0.166	-0.076
-674.149	-200.000	0.004	-0.064
-673.135	-39.119	0.192	0.103
-672.120	-62.729	0.221	0.093
-671.105	-45.872	-0.135	0.068
-670.091	207.745	-0.021	0.033
-669.076	-200.000	0.015	-0.370
-668.062	415.294	-0.140	0.304
-667.047	-148.997	0.280	-0.023
-666.032	800.000	-0.080	-0.340
-665.018	144.054	-0.079	-0.107
-664.003	-200.000	-0.016	0.199
-662.989	-179.146	-0.359	0.008
-661.974	-56.479	0.099	-0.044
-660.959	281.723	-0.003	0.005
-659.945	-49.978	-0.458	-0.220
-658.930	-102.168	-0.266	-0.065
-657.916	26.479	0.041	-0.035
-656.901	99.786	-0.162	0.190
-655.886	-153.584	-0.047	0.003
-654.872	180.553	-0.149	-0.222
-653.857	-10.163	0.293	0.197
-652.843	35.182	-0.173	-0.154
-651.828	-167.444	-0.242	0.010
-650.814	-112.908	-0.117	0.023
-649.799	-60.680	-0.357	0.153
-648.784	-200.000	-0.030	0.357
-647.770	507.025	0.128	0.301
-646.755	-69.969	-0.205	-0.079
-645.741	158.791	-0.076	-0.107
-644.726	38.337	0.223	0.202
-643.711	-49.546	0.178	0.086
-642.697	-38.839	-0.535	-0.286
-641.682	-104.098	-0.385	0.091
-640.668	-200.000	-0.006	-0.163
-639.653	-200.000	-0.042	0.208
-638.638	-47.531	-0.237	-0.117
-637.624	80.820	0.158	-0.173
-636.609	-139.054	0.485	-0.053
-635.595	25.808	0.100	0.084
-634.580	466.712	-0.184	0.417
-633.565	-10.588	-0.112	-0.075
-632.551	-1.803	0.149	-0.106
-631.536	226.384	-0.126	0.207
-630.522	800.000	-0.061	0.186
-629.507	46.393	-0.067	-0.063
-628.492	800.000	0.048	-0.153
-627.478	205.438	-0.033	0.051
-626.463	338.995	-0.055	-0.108
-625.449	-55.832	-0.230	-0.104
-624.434	486.526	-0.053	-0.122
-623.419	800.000	-0.056	0.181
-622.405	273.701	0.220	0.394
-621.390	800.000	-0.057	-0.204
-620.376	48.139	-0.059	0.056
-619.361	28.523	0.049	0.042
-618.346	-57.827	-0.156	0.069
-617.332	688.646	0.018	0.048
-616.317	227.744	0.227	0.374
-615.303	154.290	-0.133	0.185
-614.288	-100.252	0.133	0.033
-613.273	-44.558	-0.141	0.071
-612.259	-151.097	-0.090	-0.007
-611.244	-121.496	0.198	-0.033
-610.230	800.000	0.051	-0.166
-609.215	60.405	-0.100	0.101
-608.201	9.041	0.136	-0.104
-607.186	-74.806	-0.100	0.036
-606.171	800.000	0.027	-0.111
-605.157	-200.000	-0.007	0.053
-604.142	-200.000	-0.032	-0.312
-603.128	-200.000	-0.044	-0.367
-602.113	-21.478	-0.160	-0.099
-601.098	478.299	0.030	0.068
-600.084	-149.751	0.282	-0.022
-599.069	-200.000	-0.033	-0.379
-598.055	-200.000	0.006	-0.145
-597.040	-140.298	0.085	-0.009
-596.025	4.955	-0.379	-0.282
-595.011	-136.559	-0.047	0.006
-593.996	-200.000	0.009	-0.126
-592.982	26.381	0.154	0.131
-591.967	-200.000	-0.033	0.339
-590.952	227.955	-0.086	0.142
-589.938	-200.000	0.013	-0.190
-588.923	-98.990	-0.028	-0.007
-587.909	800.000	-0.106	-0.396
-586.894	-18.292	-0.047	-0.030
-585.879	18.655	0.064	0.052
-584.865	38.489	0.128	0.115
-583.850	84.793	0.241	-0.266
-582.836	-6.799	-0.277	-0.191
-581.821	256.121	-0.163	0.283
-580.806	-200.000	-0.042	0.329
-579.792	-37.379	0.245	0.132
-578.777	116.689	0.164	0.203
-577.763	146.491	0.077	0.104
-576.748	481.848	0.067	-0.154
-575.733	35.056	0.063	-0.056
-574.719	-200.000	0.027	0.230
-573.704	-80.380	0.254	-0.086
-572.690	-30.925	0.226	-0.129
-571.675	713.731	0.119	-0.320
-570.661	-83.114	0.257	0.084
-569.646	115.605	0.056	-0.070
-568.631	-51.706	0.070	0.033
-567.617	-56.191	-0.100	-0.045
-566.602	-3.353	-0.310	-0.218
-565.588	-57.394	0.215	-0.096
-564.573	-140.397	0.200	-0.021
-563.558	43.569	-0.289	-0.267
-562.544	800.000	0.083	-0.260
-561.529	48.663	0.155	0.147
-560.515	-200.000	-0.020	0.161
-559.500	-200.000	-0.017	0.137
-558.485	665.391	0.067	0.175
-557.471	-200.000	-0.053	-0.316
-556.456	-200.000	-0.004	0.134
-555.442	54.274	-0.188	0.183
-554.427	68.663	-0.089	-0.092
-553.412	345.623	-0.133	-0.264
-552.398	-38.487	-0.084	0.045
-551.383	49.995	0.120	0.114
-550.369	225.250	0.176	0.287
-549.354	556.113	-0.008	-0.018
-548.339	-81.492	0.181	0.060
-547.325	-200.000	0.012	0.336
-546.310	-58.244	0.139	0.061
-545.296	-200.000	-0.037	0.217
-544.281	3.534	0.225	-0.166
-543.266	-200.000	0.001	0.055
-542.252	14.385	0.282	-0.222
-541.237	-41.935	-0.236	0.122
-540.223	92.736	-0.178	0.203
-539.208	17.731	-0.213	-0.171
-538.193	-148.241	-0.398	0.033
-537.179	40.104	0.080	-0.072
-536.164	182.728	-0.065	0.097
-535.150	-46.529	-0.067	0.033
-534.135	-69.381	0.068	-0.026
-533.121	-139.816	0.094	0.010
-532.106	800.000	0.042	-0.119
-531.091	181.463	0.128	0.190
-530.077	-200.000	-0.037	0.304
-529.062	-61.298	-0.080	-0.034
-528.048	83.121	-0.161	0.177
-527.033	-55.343	0.165	-0.075
-526.018	-65.758	-0.357	-0.144
-525.004	150.907	-0.249	-0.341
-523.989	92.111	0.064	-0.073
-522.975	-91.186	0.111	0.032
-521.960	800.000	-0.017	-0.068
-520.945	-200.000	0.025	-0.178
-519.931	-18.826	-0.156	-0.098
-518.916	-68.391	0.201	0.079
-517.902	301.022	-0.163	-0.303
-516.887	119.959	0.075	-0.094
-515.872	9.647	-0.114	0.088
-514.858	-24.208	0.122	-0.073
-513.843	50.434	-0.209	0.200
-512.829	246.524	0.172	-0.292
-511.814	-5.522	0.304	-0.210
-510.799	26.595	-0.030	-0.026
-509.785	-200.000	0.015	-0.302
-508.770	-200.000	-0.083	-0.600
-507.756	-140.065	-0.151	-0.016
-506.741	-124.740	0.090	0.014
-505.726	511.525	-0.103	-0.241
-504.712	-144.224	0.123	-0.012
-503.697	-166.486	-0.480	0.020
-502.683	-200.000	-0.087	-0.498
-501.668	-200.000	0.013	-0.477
-500.653	5.637	0.128	-0.095
-499.639	-13.660	-0.133	0.087
-498.624	-101.639	0.077	-0.019
-497.610	12.485	0.127	-0.099
-496.595	-174.667	-0.129	0.004
-495.581	-89.608	0.146	-0.043
-494.566	-48.816	0.073	0.035
-493.551	-52.670	-0.277	0.129
-492.537	230.271	-0.161	-0.266
-491.522	-110.111	0.172	0.036
-490.508	-92.115	0.143	-0.041
-489.493	-200.000	-0.007	-0.182
-488.478	800.000	-0.051	-0.191
-487.464	-197.561	0.197	0.001
-486.449	6.401	-0.209	-0.156
-485.435	-179.952	-0.223	0.005
-484.420	800.000	0.091	0.258
-483.405	-162.006	-0.259	-0.013
-482.391	-200.000	0.037	-0.218
-481.376	-77.221	-0.158	-0.055
-480.362	54.914	0.132	-0.129
-479.347	800.000	0.118	-0.339
-478.332	380.700	-0.131	-0.271
-477.318	235.558	-0.127	0.212
-476.303	800.000	0.022	-0.066
-475.289	80.957	0.182	-0.197
-474.274	-76.116	-0.229	-0.081
-473.259	-98.454	-0.230	0.059
-472.245	-200.000	-0.030	-0.167
-471.230	210.028	-0.065	-0.102
-470.216	-200.000	-0.057	-0.310
-469.201	-200.000	-0.001	-0.091
-468.186	-200.000	-0.026	0.213
-467.172	-14.769	0.074	-0.048
-466.157	-23.633	0.242	0.146
-465.143	296.736	0.073	-0.136
-464.128	73.800	0.130	-0.137
-463.113	-87.364	-0.196	-0.060
-462.099	95.082	0.169	-0.194
-461.084	-75.015	-0.176	0.063
-460.070	-172.533	-0.216	-0.007
-459.055	469.487	-0.079	0.180
-458.040	323.611	0.088	-0.169
-457.026	167.168	0.040	-0.057
-456.011	145.788	0.035	0.047
-454.997	109.459	-0.101	0.122
-453.982	261.948	0.094	-0.164
-452.968	-111.890	-0.210	0.043
-451.953	323.140	0.098	0.187
-450.938	-66.073	0.193	0.077
-449.924	-29.078	0.219	0.127
-448.909	-200.000	0.003	0.158
-447.895	64.584	-0.050	0.051
-446.880	227.286	-0.114	0.187
-445.865	-100.285	-0.291	-0.073
-444.851	-200.000	-0.022	0.108
-443.836	137.563	-0.098	0.129
-442.822	122.933	-0.063	0.079
-441.807	-200.000	-0.001	0.064
-440.792	-74.113	-0.183	-0.067
-439.778	-200.000	-0.007	0.305
-438.763	-114.079	0.191	0.037
-437.749	800.000	-0.032	0.122
-436.734	-174.703	-0.033	0.001
-435.719	-200.000	-0.003	-0.357
-434.705	800.000	0.036	-0.105
-433.690	-124.132	0.140	0.022
-432.676	-200.000	-0.033	0.225
-431.661	-200.000	0.023	-0.132
-430.646	-200.000	0.033	-0.388
-429.632	-200.000	-0.010	0.174
-428.617	800.000	0.086	-0.266
-427.603	-200.000	0.010	-0.126
-426.588	741.759	0.052	0.140
-425.573	800.000	-0.039	0.112
-424.559	-47.487	0.150	-0.073
-423.544	-194.506	0.337	-0.003
-422.530	7.634	-0.209	0.157
-421.515	-118.577	0.308	-0.055
-420.500	342.412	0.083	-0.164
-419.486	40.531	-0.200	0.181
-418.471	-200.000	-0.037	0.201
-417.457	-155.490	0.130	0.008
-416.442	-133.108	-0.268	-0.034
-415.428	96.645	-0.187	0.215
-414.413	-142.242	0.440	0.044
-413.398	270.132	0.123	-0.217
-412.384	800.000	-0.059	-0.220
-411.369	-150.815	0.286	0.022
-410.355	-182.196	-0.259	-0.005
-409.340	139.368	0.022	0.029
-408.325	800.000	-0.042	-0.126
-407.311	31.963	-0.085	0.074
-406.296	19.165	0.129	-0.104
-405.282	458.082	0.137	-0.306
-404.267	110.050	-0.132	-0.159
-403.252	32.700	0.182	0.158
-402.238	366.876	-0.138	0.280
-401.223	800.000	-0.132	-0.369
-400.209	-138.359	0.226	-0.025
-399.194	800.000	-0.030	-0.110
-398.179	174.512	0.110	0.159
-397.165	-23.780	0.313	0.188
-396.150	-200.000	0.022	0.161
-395.136	-125.217	0.076	-0.012
-394.121	800.000	-0.034	0.141
-393.106	52.789	-0.541	-0.519
-392.092	800.000	-0.067	-0.245
-391.077	-200.000	-0.029	-0.210
-390.063	800.000	-0.050	0.164
-389.048	-92.698	-0.022	-0.006
-388.033	131.652	-0.191	0.246
-387.019	-58.161	0.206	0.090
-386.004	-200.000	0.026	0.160
-384.990	-67.157	0.174	0.069
-383.975	116.855	0.076	0.093
-382.960	-132.267	-0.256	0.033
-381.946	-200.000	0.023	-0.189
-380.931	449.958	0.073	0.162
-379.917	-61.264	-0.237	0.100
-378.902	-27.658	0.083	-0.049
-377.888	-12.191	0.335	0.220
-376.873	-41.295	-0.217	0.112
-375.858	19.147	-0.306	0.246
-374.844	72.168	-0.254	0.265
-373.829	-114.134	0.643	0.125
-372.815	395.376	0.044	-0.093
-371.800	14.765	0.095	-0.075
-370.785	-22.422	-0.157	-0.095
-369.771	-76.891	0.041	-0.014
-368.756	800.000	-0.070	0.198
-367.742	144.454	-0.118	-0.158
-366.727	-93.658	-0.357	-0.099
-365.712	31.215	-0.043	0.037
-364.698	-200.000	0.032	-0.216
-363.683	-200.000	-0.004	0.067
-362.669	800.000	-0.188	0.557
-361.654	297.082	-0.105	-0.193
-360.639	154.319	0.066	0.091
-359.625	-115.335	0.082	0.015
-358.610	29.872	-0.156	0.133
-357.596	491.478	0.110	-0.252
-356.581	98.901	0.019	-0.022
-355.566	40.755	0.254	0.229
-354.552	-200.000	0.011	0.415
-353.537	-200.000	-0.002	0.203
-352.523	121.183	0.260	0.325
-351.508	-33.599	-0.131	0.072
-350.493	24.288	0.182	-0.150
-349.479	49.136	0.130	-0.122
-348.464	31.601	-0.101	-0.087
-347.450	-200.000	-0.005	-0.063
-346.435	-82.074	-0.090	-0.029
-345.420	23.114	-0.184	0.151
-344.406	41.089	0.153	0.139
-343.391	332.650	-0.119	-0.230
-342.377	25.439	-0.078	0.065
-341.362	-200.000	-0.005	-0.293
-340.348	-144.386	-0.247	0.023
-339.333	236.068	-0.103	-0.170
-338.318	24.652	0.075	0.062
-337.304	74.775	-0.101	-0.106
-336.289	-200.000	-0.025	0.116
-335.275	96.639	-0.148	0.170
-334.260	78.368	0.034	0.036
-333.245	800.000	0.039	-0.141
-332.231	800.000	0.073	-0.312
-331.216	139.302	0.009	0.012
-330.202	59.336	0.180	-0.178
-329.187	-200.000	-0.083	-0.470
-328.172	-52.101	0.090	-0.042
-327.158	-1.228	-0.178	0.126
-326.143	-200.000	-0.041	0.187
-325.129	174.248	-0.136	-0.197
-324.114	20.416	-0.214	-0.173
-323.099	800.000	-0.009	0.026
-322.085	89.872	0.094	0.106
-321.070	1.647	0.154	-0.111
-320.056	233.854	-0.201	0.332
-319.041	-160.255	-0.152	0.008
-318.026	-200.000	-0.031	0.189
-317.012	-147.795	0.178	0.015
-315.997	5.790	-0.246	-0.182
-314.983	-54.375	0.113	0.051
-313.968	-200.000	-0.004	0.261
-312.953	-148.848	0.289	-0.023
-311.939	-200.000	-0.017	0.167
-310.924	-200.000	-0.025	-0.173
-309.910	-104.221	-0.120	-0.028
-308.895	1.235	-0.098	-0.070
-307.880	651.304	0.061	0.156
-306.866	477.620	-0.099	0.224
-305.851	-109.163	-0.625	0.133
-304.837	-133.064	-0.068	-0.009
-303.822	-200.000	0.018	0.209
-302.807	529.120	0.144	-0.340
-301.793	-200.000	0.056	0.246
-300.778	-17.704	0.080	-0.050
-299.764	138.367	-0.141	0.185
-298.749	-200.000	0.037	-0.173
-297.735	47.930	-0.238	-0.223
-296.720	800.000	-0.033	0.093
-295.705	-20.683	-0.206	0.126
-294.691	-124.945	0.162	0.025
-293.676	153.959	-0.121	-0.166
-292.662	93.313	-0.185	0.209
-291.647	153.698	0.047	0.065
-290.632	-102.094	0.381	0.092
-289.618	35.849	-0.286	-0.251
-288.603	-200.000	0.028	-0.193
-287.589	-29.766	-0.230	0.131
-286.574	-131.620	-0.182	0.024
-285.559	-96.344	-0.098	0.026
-284.545	-200.000	0.026	-0.253
-283.530	-158.527	0.156	0.009
-282.516	701.714	0.140	-0.367
-281.501	-200.000	0.014	0.118
-280.486	-162.175	-0.257	-0.013
-279.472	49.052	-0.128	-0.120
-278.457	406.579	0.091	-0.191
-277.443	800.000	-0.073	-0.215
-276.428	36.206	-0.163	0.144
-275.413	-27.430	-0.166	0.096
-274.399	-200.000	0.018	0.110
-273.384	115.849	0.021	0.025
-272.370	-56.224	-0.335	-0.149
-271.355	-200.000	-0.018	-0.084
-270.340	-50.325	-0.195	-0.092
-269.326	-57.473	0.156	-0.068
-268.311	-96.763	0.401	0.105
-267.297	800.000	-0.024	0.103
-266.282	-45.702	-0.127	-0.063
-265.267	-4.289	0.217	-0.150
-264.253	-46.823	0.164	-0.080
-263.238	557.146	0.060	-0.144
-262.224	240.572	0.132	0.221
-261.209	-51.877	0.213	-0.099
-260.195	-200.000	0.227	0.000
-259.180	-168.106	0.012	-0.000
-258.165	-148.010	-0.297	-0.025
-257.151	800.000	-0.083	0.321
-256.136	-200.000	0.040	-0.277
-255.122	121.746	-0.267	0.333
-254.107	-200.000	0.030	0.239
-253.092	259.015	-0.230	0.396
-252.078	800.000	-0.184	0.524
-251.063	131.205	0.204	0.261
-250.049	-26.070	0.128	0.075
-249.034	-109.973	-0.497	0.104
-248.019	-200.000	0.037	0.247
-247.005	-72.024	-0.138	-0.051
-245.990	800.000	0.071	0.274
-244.976	-88.585	-0.034	-0.010
-243.961	-162.533	-0.146	0.007
-242.946	-138.159	-0.277	0.031
-241.932	-90.546	0.236	-0.068
-240.917	111.642	0.206	-0.248
-239.903	181.290	-0.153	0.225
-238.888	613.348	0.112	0.280
-237.873	-43.613	0.367	-0.185
-236.859	-3.116	0.146	0.101
-235.844	-86.021	-0.154	0.048
-234.830	800.000	-0.048	0.188
-233.815	-172.534	0.159	-0.005
-232.800	110.915	-0.046	0.055
-231.786	800.000	0.075	-0.305
-230.771	-67.331	0.078	0.031
-229.757	-76.108	0.188	-0.066
-228.742	-81.795	-0.364	-0.119
-227.727	60.411	-0.015	-0.015
-226.713	-59.241	0.169	0.072
-225.698	800.000	-0.049	0.183
-224.684	-80.309	0.315	-0.105
-223.669	-3.438	0.058	0.040
-222.655	-41.690	0.239	-0.122
-221.640	-200.000	-0.008	-0.084
-220.625	402.603	-0.057	0.119
-219.611	800.000	0.023	-0.088
-218.596	27.669	0.185	-0.155
-217.582	243.292	-0.143	-0.239
-216.567	-22.999	-0.155	0.093
-215.552	-200.000	-0.013	-0.066
-214.538	302.311	0.124	0.229
-213.523	47.838	-0.155	-0.144
-212.509	-35.890	-0.184	0.099
-211.494	456.503	0.121	-0.268
-210.479	85.394	0.167	0.183
-209.465	-200.000	0.064	0.353
-208.450	88.539	0.108	-0.120
-207.436	146.806	0.012	-0.016
-206.421	129.831	0.190	-0.242
-205.406	-200.000	0.012	-0.090
-204.392	-121.339	-0.180	-0.030
-203.377	800.000	-0.028	-0.082
-202.363	196.829	-0.179	0.271
-201.348	-127.067	-0.300	-0.044
-200.333	-200.000	0.037	0.168
-199.319	17.705	0.248	-0.196
-198.304	221.115	0.110	0.176
-197.290	-84.348	0.239	0.075
-196.275	-200.000	-0.005	0.064
-195.260	164.323	-0.042	0.059
-194.246	-163.520	0.054	-0.003
-193.231	-200.000	-0.090	0.393
-192.217	39.640	0.218	0.194
-191.202	-148.654	0.342	-0.028
-190.187	-63.388	0.402	-0.165
-189.173	69.847	0.319	0.328
-188.158	800.000	-0.042	0.128
-187.144	67.328	0.036	-0.036
-186.129	-160.033	-0.184	-0.010
-185.114	11.717	0.169	-0.129
-184.100	26.880	0.148	0.124
-183.085	44.509	0.368	0.336
-182.071	-42.578	0.350	0.178
-181.056	-200.000	0.020	0.118
-180.042	144.220	0.087	-0.116
-179.027	83.524	-0.136	-0.148
-178.012	-200.000	-0.050	0.290
-176.998	96.202	0.036	0.041
-175.983	546.741	-0.039	0.093
-174.969	-59.102	0.174	-0.075
-173.954	-75.048	-0.177	-0.063
-172.939	5.345	0.280	0.206
-171.925	-120.935	0.114	-0.019
-170.910	671.301	-0.067	0.173
-169.896	-200.000	-0.002	0.201
-168.881	-112.284	0.473	0.094
-167.866	24.980	-0.100	0.083
-166.852	588.100	0.142	0.348
-165.837	166.085	0.152	-0.214
-164.823	29.398	-0.203	-0.171
-163.808	-91.834	-0.367	-0.104
-162.793	-109.707	0.155	0.032
-161.779	-140.580	0.255	-0.026
-160.764	-138.595	-0.093	0.010
-159.750	79.999	0.386	-0.412
-158.735	-91.990	-0.185	-0.052
-157.720	170.930	0.085	-0.121
-156.706	-200.000	0.181	-0.001
-155.691	10.491	-0.122	-0.092
-154.677	373.784	0.044	-0.089
-153.662	-200.000	0.045	0.351
-152.647	349.853	0.042	-0.083
-151.633	-41.200	0.205	-0.105
-150.618	-99.705	0.418	0.104
-149.604	156.152	-0.067	-0.092
-148.589	-162.799	-0.323	-0.016
-147.574	-109.122	-0.208	0.044
-146.560	88.752	-0.333	0.368
-145.545	54.823	0.131	0.126
-144.531	-58.817	-0.332	0.143
-143.516	-200.000	-0.036	0.204
-142.502	-51.830	0.420	0.194
-141.487	108.044	0.067	-0.079
-140.472	-150.925	-0.490	-0.037
-139.458	-144.584	0.128	0.012
-138.443	22.389	-0.236	0.192
-137.429	20.327	0.147	-0.118
-136.414	-8.721	-0.147	0.098
-135.399	-167.930	0.049	0.002
-134.385	83.450	-0.238	0.257
-133.370	46.138	-0.088	0.081
-132.356	800.000	0.128	0.430
-131.341	-200.000	0.093	-0.547
-130.326	-200.000	0.030	0.260
-129.312	-112.910	0.377	0.074
-128.297	-198.550	0.363	-0.002
-127.283	-200.000	-0.030	-0.215
-126.268	-200.000	-0.007	-0.275
-125.253	-59.158	0.192	0.082
-124.239	-192.827	0.152	0.001
-123.224	181.295	0.058	0.085
-122.210	-127.953	-0.256	0.037
-121.195	800.000	0.062	-0.199
-120.180	265.579	0.172	-0.298
-119.166	800.000	-0.057	-0.198
-118.151	283.227	0.159	0.283
-117.137	-123.964	0.193	-0.030
-116.122	561.569	0.059	0.142
-115.107	800.000	0.043	-0.183
-114.093	800.000	0.032	0.119
-113.078	102.742	0.184	-0.214
-112.064	-106.233	0.154	0.034
-111.049	-97.120	0.212	0.055
-110.034	-139.646	0.090	0.010
-109.020	224.046	0.207	0.332
-108.005	-127.531	-0.183	-0.026
-106.991	19.705	0.042	0.034
-105.976	-115.336	-0.240	0.045
-104.962	-74.057	-0.244	0.088
-103.947	89.941	0.147	0.163
-102.932	-200.000	0.022	-0.214
-101.918	-103.180	-0.186	0.044
-100.903	-176.995	0.225	0.006
-99.889	143.829	-0.075	0.099
-98.874	-15.363	-0.249	-0.158
-97.859	109.336	0.110	0.131
-96.845	-61.726	-0.139	-0.058
-95.830	83.514	-0.193	-0.209
-94.816	32.616	0.108	-0.093
-93.801	471.360	0.084	0.188
-92.786	198.827	-0.037	0.057
-91.772	-31.200	0.360	-0.201
-90.757	800.000	0.056	0.229
-89.743	39.394	-0.219	0.194
-88.728	-200.000	0.031	-0.322
-87.713	12.444	-0.069	0.052
-86.699	800.000	0.054	0.206
-85.684	-42.046	0.123	-0.063
-84.670	-200.000	0.032	-0.150
-83.655	92.437	0.153	0.171
-82.640	76.620	0.164	0.173
-81.626	-49.017	0.347	0.165
-80.611	-200.000	-0.022	0.135
-79.597	-200.000	-0.005	-0.130
-78.582	-76.496	-0.302	0.105
-77.567	-200.000	-0.001	-0.177
-76.553	-200.000	-0.037	0.360
-75.538	128.935	-0.211	0.267
-74.524	-20.787	-0.086	-0.052
-73.509	800.000	0.066	0.228
-72.494	-200.000	0.001	0.023
-71.480	-29.409	0.437	-0.248
-70.465	-75.807	0.073	0.026
-69.451	32.276	0.085	-0.073
-68.436	72.596	-0.076	-0.078
-67.422	458.531	-0.109	-0.241
-66.407	55.187	0.169	0.162
-65.392	-200.000	0.024	-0.289
-64.378	-79.195	-0.185	0.062
-63.363	-200.000	-0.003	0.075
-62.349	-116.426	0.170	-0.031
-61.334	135.814	-0.820	-1.057
-60.319	-107.172	0.245	0.053
-59.305	664.042	-0.440	-1.125
-58.290	800.000	0.343	1.013
-57.276	800.000	0.400	1.637
-56.261	-200.000	96.641	584.431
-55.246	655.101	1389.063	3531.896
-54.232	186.164	2604.246	3836.399
-53.217	123.832	2184.829	2716.267
-52.203	47.058	1636.549	1507.677
-51.188	38.758	1370.711	1211.711
-50.173	35.369	1328.051	1153.618
-49.159	57.347	1377.836	1331.920
-48.144	61.701	1395.102	1375.145
-47.130	38.934	1349.263	1193.635
-46.115	35.316	1331.701	1156.286
-45.100	35.060	1326.996	1150.615
-44.086	35.086	1324.424	1148.496
-43.071	34.982	1321.982	1145.706
-42.057	34.962	1319.876	1143.717
-41.042	34.930	1318.130	1141.970
-40.027	35.041	1316.825	1141.457
-39.013	35.089	1314.590	1139.759
-37.998	35.120	1312.590	1138.166
-36.984	35.111	1311.039	1136.719
-35.969	35.167	1309.376	1135.567
-34.954	35.218	1307.372	1134.087
-33.940	35.093	1306.334	1132.400
-32.925	35.207	1305.366	1132.190
-31.911	35.140	1303.995	1130.560
-30.896	35.221	1302.138	1129.381
-29.881	35.182	1300.631	1127.800
-28.867	35.249	1299.379	1127.066
-27.852	35.296	1297.557	1125.718
-26.838	35.225	1296.746	1124.549
-25.823	35.195	1295.201	1122.988
-24.809	35.226	1293.637	1121.769
-23.794	35.235	1291.892	1120.268
-22.779	35.189	1290.886	1119.082
-21.765	35.227	1289.611	1118.151
-20.750	35.144	1288.678	1116.813
-19.736	35.128	1287.190	1115.387
-18.721	35.033	1285.768	1113.560
-17.706	35.144	1284.304	1112.891
-16.692	35.226	1283.061	1112.245
-15.677	35.001	1282.486	1110.395
-14.663	35.139	1280.826	1109.717
-13.648	35.031	1280.126	1108.441
-12.633	35.110	1279.165	1108.024
-11.619	35.025	1278.153	1106.610
-10.604	34.993	1277.823	1106.097
-9.590	35.053	1276.929	1105.624
-8.575	34.977	1276.221	1104.527
-7.560	35.033	1274.725	1103.515
-6.546	35.031	1274.085	1102.906
-5.531	35.033	1273.243	1102.141
-4.517	35.049	1271.956	1101.075
-3.502	35.121	1271.056	1100.669
-2.487	35.061	1270.329	1099.648
-1.473	35.040	1265.999	1095.737
-0.458	33.393	1249.970	1072.503
0.556	30.936	1230.500	1026.584
1.571	26.476	1233.530	1004.330
2.586	24.727	1248.345	1006.464
3.600	23.227	1235.823	987.915
4.615	17.698	1163.090	900.569
5.629	9.256	1087.437	800.056
6.644	5.113	1066.906	764.615
7.659	4.858	1063.962	761.191
8.673	4.543	1062.668	758.658
9.688	4.458	1061.653	757.451
10.702	5.297	1060.186	760.425
11.717	10.761	1068.259	792.877
12.731	19.099	1079.798	842.344
13.746	22.181	1082.959	859.837
14.761	21.773	1082.099	857.087
15.775	20.863	1080.353	851.184
16.790	20.045	1077.796	845.103
17.804	19.160	1076.563	839.749
18.819	18.866	1075.495	837.409
19.834	18.881	1074.407	836.561
20.848	18.650	1074.138	835.151
21.863	18.367	1073.308	833.057
22.877	18.317	1072.606	832.196
23.892	18.308	1071.649	831.334
24.907	18.223	1070.893	830.263
25.921	18.298	1070.117	829.953
26.936	18.280	1068.850	828.807
27.950	18.344	1067.162	827.736
28.965	18.480	1065.727	827.208
29.980	18.614	1064.226	826.612
30.994	18.562	1063.640	825.833
32.009	18.657	1062.167	825.076
33.023	18.645	1061.175	824.174
34.038	18.593	1060.092	823.008
35.053	18.336	1059.591	821.317
36.067	18.381	1058.208	820.386
37.082	18.442	1057.872	820.345
38.096	18.608	1057.150	820.509
39.111	18.557	1056.284	819.520
40.126	18.389	1054.904	817.574
41.140	18.122	1053.755	815.337
42.155	18.031	1051.914	813.408
43.169	17.946	1051.010	812.234
44.184	17.923	1050.108	811.352
45.199	18.061	1049.250	811.277
46.213	18.094	1048.139	810.502
47.228	18.354	1047.066	810.832
48.242	18.364	1046.640	810.475
49.257	18.367	1045.621	809.628
50.271	18.396	1044.481	808.813
51.286	18.443	1044.141	808.698
52.301	18.415	1042.734	807.407
53.315	18.159	1041.769	805.381
54.330	18.108	1040.792	804.316
55.344	18.241	1039.513	803.878
56.359	18.282	1038.733	803.398
57.374	18.063	1038.222	801.906
58.388	17.949	1037.566	800.794
59.403	17.957	1036.379	799.844
60.417	18.011	1035.584	799.410
61.432	17.964	1034.739	798.471
62.447	17.910	1033.713	797.354
63.461	17.870	1033.296	796.778
64.476	17.759	1032.279	795.404
65.490	17.813	1031.328	794.852
66.505	17.931	1030.572	794.749
67.520	17.800	1030.292	793.851
68.534	17.842	1029.388	793.278
69.549	17.947	1028.094	792.702
70.563	17.878	1027.481	791.836
71.578	17.729	1026.626	790.419
72.593	17.621	1025.820	789.228
73.607	17.632	1025.083	788.640
74.622	17.717	1024.379	788.424
75.636	17.783	1023.744	788.168
76.651	17.854	1023.045	787.891
77.666	17.785	1022.623	787.176
78.680	17.852	1021.833	786.808
79.695	17.874	1021.190	786.342
80.709	17.878	1020.738	785.947
81.724	18.251	1019.686	786.779
82.739	18.087	1019.891	786.115
83.753	18.289	1018.949	786.248
84.768	18.599	1017.900	786.789
85.782	18.702	1017.139	786.604
86.797	18.647	1016.312	785.646
87.812	18.560	1015.265	784.368
88.826	18.504	1014.144	783.178
89.841	18.577	1013.486	782.932
90.855	18.660	1012.855	782.752
91.870	18.594	1012.354	781.996
92.884	18.601	1011.280	781.127
93.899	18.749	1010.383	781.040
94.914	18.721	1009.480	780.145
95.928	18.652	1009.035	779.422
96.943	18.583	1007.623	777.949
97.957	18.562	1006.795	777.145
98.972	18.606	1006.032	776.686
99.987	18.530	1005.355	775.749
101.001	18.568	1004.244	774.997
102.016	18.507	1003.335	773.952
103.030	18.570	1002.903	773.832
104.045	18.572	1002.121	773.170
105.060	18.391	1001.112	771.508
106.074	18.191	999.618	769.388
107.089	18.025	998.415	767.650
108.103	17.947	997.844	766.791
109.118	18.049	996.680	766.289
110.133	17.925	995.765	764.958
111.147	18.017	994.625	764.429
112.162	18.013	994.332	764.119
113.176	18.088	993.659	763.870
114.191	18.113	992.724	763.192
115.206	18.082	991.743	762.233
116.220	18.024	991.189	761.483
117.235	17.975	990.164	760.412
118.249	18.003	989.444	759.915
119.264	17.932	988.830	759.058
120.279	17.825	988.027	757.901
121.293	17.792	986.818	756.762
122.308	17.847	985.808	756.162
123.322	17.752	984.856	754.945
124.337	17.818	983.543	754.162
125.352	17.955	982.517	753.912
126.366	17.748	981.587	752.220
127.381	17.930	980.299	751.970
128.395	17.780	980.105	751.094
129.410	18.027	979.052	751.305
130.424	17.952	978.362	750.381
131.439	18.020	977.952	750.297
132.454	18.207	976.782	750.155
133.468	18.052	976.249	749.001
134.483	18.168	975.272	748.690
135.497	18.214	974.209	748.009
136.512	18.221	973.407	747.360
137.527	18.143	972.859	746.533
138.541	18.150	972.167	745.967
139.556	18.236	971.847	746.031
140.570	18.469	970.739	746.125
141.585	18.515	970.561	746.125
142.600	18.563	969.223	745.237
143.614	18.599	968.355	744.660
144.629	18.780	967.690	744.868
145.643	18.651	966.563	743.377
146.658	18.399	965.413	741.334
147.673	18.333	964.365	740.180
148.687	18.275	963.610	739.285
149.702	18.059	962.704	737.590
150.716	18.083	962.150	737.207
151.731	18.124	961.141	736.545
152.746	18.252	960.490	736.529
153.760	18.273	959.903	736.106
154.775	18.367	959.218	735.920
155.789	18.423	959.080	735.990
156.804	18.519	958.052	735.545
157.819	18.515	957.249	734.849
158.833	18.639	956.727	734.913
159.848	18.769	955.899	734.770
160.862	18.659	954.712	733.321
161.877	18.421	953.425	731.253
162.892	18.224	952.368	729.538
163.906	18.168	951.453	728.534
164.921	18.213	950.805	728.163
165.935	18.317	950.075	727.983
166.950	18.410	949.284	727.708
167.964	18.377	948.524	726.920
168.979	18.340	947.265	725.732
169.994	18.317	946.391	724.902
171.008	18.357	945.942	724.662
172.023	18.601	945.672	725.424
173.037	18.682	945.059	725.233
174.052	18.568	944.437	724.208
175.067	18.272	943.228	721.973
176.081	18.214	942.510	721.113
177.096	18.182	942.530	720.929
178.110	18.197	941.261	719.957
179.125	18.390	940.513	720.135
180.140	18.280	940.622	719.689
181.154	18.450	940.134	719.968
182.169	18.799	939.257	720.695
183.183	18.709	939.060	720.103
184.198	18.631	938.125	718.999
185.213	18.719	937.281	718.657
186.227	18.649	936.957	718.050
187.242	18.891	935.933	718.212
188.256	18.944	935.638	718.145
189.271	18.811	935.027	717.057
190.286	18.421	933.862	714.474
191.300	18.255	932.589	712.745
192.315	18.083	932.084	711.579
193.329	18.204	931.841	711.835
194.344	18.339	931.123	711.787
195.359	18.433	930.611	711.723
196.373	18.590	929.797	711.688
197.388	18.702	930.104	712.322
198.402	18.803	929.555	712.258
199.417	19.084	928.602	712.631
200.432	19.098	928.477	712.530
201.446	19.189	928.000	712.475
202.461	19.250	927.324	712.147
203.475	19.196	926.315	711.086
204.490	18.964	925.524	709.459
205.504	18.866	924.596	708.280
206.519	18.772	923.885	707.287
207.534	18.798	923.154	706.771
208.548	18.831	922.534	706.369
209.563	18.875	922.273	706.287
210.577	18.987	921.423	706.034
211.592	19.112	920.894	706.081
212.607	19.054	920.128	705.192
213.621	19.094	919.377	704.717
214.636	19.072	918.633	703.994
215.650	19.070	918.080	703.502
216.665	19.211	917.379	703.479
217.680	19.177	917.296	703.214
218.694	19.291	916.352	702.893
219.709	19.279	915.285	701.963
220.723	19.113	914.745	700.812
221.738	19.251	913.903	700.666
222.753	19.075	913.670	699.708
223.767	19.303	912.640	699.784
224.782	19.376	912.556	699.953
225.796	19.453	912.299	700.006
226.811	19.280	911.488	698.622
227.826	19.118	910.633	697.246
228.840	19.212	909.436	696.648
229.855	19.141	908.950	695.929
230.869	19.082	907.938	694.854
231.884	19.030	907.570	694.301
232.899	19.040	906.716	693.625
233.913	18.970	905.847	692.619
234.928	18.958	904.970	691.840
235.942	18.949	904.559	691.429
236.957	18.986	903.929	691.033
237.972	18.974	903.439	690.548
238.986	18.997	902.904	690.170
240.001	19.051	901.816	689.495
241.015	19.117	901.523	689.476
242.030	19.225	901.141	689.552
243.045	19.111	900.721	688.716
244.059	19.086	900.362	688.280
245.074	19.228	899.478	688.111
246.088	19.438	898.714	688.304
247.103	19.495	898.097	687.998
248.117	19.641	897.588	688.126
249.132	19.954	897.036	688.890
250.147	19.968	896.855	688.744
251.161	19.986	896.214	688.261
252.176	19.967	895.882	687.870
253.190	20.058	895.163	687.618
254.205	20.111	894.426	687.205
255.220	19.919	893.917	685.992
256.234	19.960	893.235	685.569
257.249	20.065	892.457	685.327
258.263	20.072	891.743	684.746
259.278	19.945	891.160	683.734
260.293	20.179	890.345	683.972
261.307	20.311	889.583	683.846
262.322	20.114	889.515	682.957
263.336	20.208	888.752	682.681
264.351	20.294	887.707	682.158
265.366	20.362	887.099	681.898
266.380	20.117	886.690	680.558
267.395	20.221	885.860	680.272
268.409	20.050	885.296	679.105
269.424	19.998	884.255	678.045
270.439	19.997	883.626	677.499
271.453	19.786	883.167	676.262
272.468	19.899	882.267	675.952
273.482	19.918	881.737	675.560
274.497	19.936	881.013	675.017
275.512	20.076	880.253	674.920
276.526	19.990	880.462	674.688
277.541	20.100	879.904	674.627
278.555	20.127	879.401	674.286
279.570	20.420	878.654	674.794
280.585	20.393	877.934	674.076
281.599	20.227	876.918	672.592
282.614	20.110	876.260	671.576
283.628	20.088	875.586	670.916
284.643	20.226	874.817	670.799
285.657	20.082	874.325	669.806
286.672	20.053	873.802	669.234
287.687	20.191	873.165	669.220
288.701	20.097	872.612	668.376
289.716	20.118	872.243	668.113
290.730	20.203	871.798	668.040
291.745	20.223	871.331	667.702
292.760	20.153	870.870	667.018
293.774	20.381	870.277	667.381
294.789	20.370	869.536	666.714
295.803	20.229	868.289	665.157
296.818	20.350	867.361	664.852
297.833	20.239	867.011	664.099
298.847	20.358	866.334	663.976
299.862	20.194	866.546	663.451
300.876	20.287	865.930	663.279
301.891	20.687	864.961	664.003
302.906	20.617	864.664	663.449
303.920	20.678	864.218	663.283
304.935	20.799	863.438	663.086
305.949	20.662	862.652	661.903
306.964	20.618	862.312	661.413
307.979	20.710	861.195	660.850
308.993	20.614	861.206	660.433
310.008	20.543	860.676	659.701
311.022	20.558	860.121	659.273
312.037	20.572	859.198	658.562
313.052	20.316	858.356	656.888
314.066	20.241	857.969	656.251
315.081	20.274	857.529	655.980
316.095	20.253	856.890	655.354
317.110	20.310	856.400	655.138
318.125	20.327	855.820	654.699
319.139	20.301	855.107	653.996
320.154	20.358	854.496	653.686
321.168	20.440	854.058	653.602
322.183	20.472	853.605	653.317
323.197	20.591	852.783	653.080
324.212	20.383	852.718	652.190
325.227	20.414	851.939	651.651
326.241	20.521	851.335	651.533
327.256	20.430	850.834	650.754
328.270	20.330	850.411	649.997
329.285	20.427	849.777	649.818
330.300	20.425	849.063	649.205
331.314	20.444	848.313	648.646
332.329	20.631	848.042	649.080
333.343	20.806	847.463	649.231
334.358	20.678	847.343	648.605
335.373	20.733	847.070	648.545
336.387	20.790	846.757	648.457
337.402	20.864	846.449	648.440
338.416	20.835	846.516	648.329
339.431	21.083	846.186	648.938
340.446	21.063	845.548	648.317
341.460	20.979	845.402	647.838
342.475	20.999	845.280	647.760
343.489	21.322	844.121	648.014
344.504	21.273	844.039	647.711
345.519	21.406	843.277	647.561
346.533	21.398	842.400	646.801
347.548	21.196	841.850	645.575
348.562	20.959	841.457	644.343
349.577	20.855	840.862	643.443
350.592	20.837	840.181	642.800
351.606	20.654	839.290	641.385
352.621	20.723	838.800	641.208
353.635	20.821	838.298	641.129
354.650	20.907	837.615	640.868
355.665	20.922	837.002	640.396
356.679	21.064	836.405	640.403
357.694	21.101	835.568	639.841
358.708	21.116	834.862	639.300
359.723	20.981	834.675	638.605
360.738	20.996	834.076	638.147
361.752	21.037	833.292	637.638
362.767	21.271	832.656	637.951
363.781	21.391	832.221	638.000
364.796	21.400	832.409	638.118
365.810	21.442	832.063	637.950
366.825	21.712	831.545	638.482
367.840	21.436	830.871	636.902
368.854	21.400	830.265	636.249
369.869	21.437	829.815	635.983
370.883	21.343	829.443	635.299
371.898	21.521	829.250	635.742
372.913	21.547	828.832	635.462
373.927	21.620	827.581	634.709
374.942	21.567	827.307	634.254
375.956	21.584	827.633	634.507
376.971	21.684	826.863	634.225
377.986	21.804	826.332	634.192
379.000	21.830	825.816	633.835
380.015	21.880	825.054	633.375
381.029	21.747	824.985	632.786
382.044	21.693	824.312	632.018
383.059	21.704	823.639	631.487
384.073	21.835	822.869	631.312
385.088	21.555	822.068	629.634
386.102	21.450	821.398	628.688
387.117	21.456	821.125	628.445
388.132	21.567	820.750	628.501
389.146	21.508	819.898	627.583
390.161	21.727	819.590	628.077
391.175	21.918	819.426	628.578
392.190	21.631	818.428	626.731
393.205	21.482	818.059	625.860
394.219	21.551	817.491	625.616
395.234	21.609	816.877	625.298
396.248	21.455	816.401	624.329
397.263	21.253	816.412	623.563
398.278	21.348	815.881	623.439
399.292	21.351	815.049	622.758
400.307	21.294	814.897	622.385
401.321	21.403	814.528	622.436
402.336	21.574	814.096	622.657
403.350	21.681	813.297	622.372
404.365	21.823	813.255	622.790
405.380	21.937	812.860	622.836
406.394	21.917	811.946	622.010
407.409	22.049	811.627	622.179
408.423	21.986	811.859	622.080
409.438	22.058	811.684	622.145
410.453	22.068	811.119	621.693
411.467	22.216	810.374	621.589
412.482	22.414	809.794	621.790
413.496	22.359	809.684	621.453
414.511	22.204	809.469	620.688
415.526	22.268	808.770	620.322
416.540	22.143	808.093	619.308
417.555	22.188	807.702	619.112
418.569	22.152	807.169	618.522
419.584	22.138	806.975	618.270
420.599	22.256	806.536	618.292
421.613	159.342	1370.180	1788.730
422.628	138.507	1452.329	1788.851
