DTS Sentinel unit serial number:	SN413079Multiplexer serial number:	ORYXHardware model number:	OX4-SRSoftware version number:	ORYX F/W v4.00 Oryx Data Collector v3.7.2.0data status	okinstallation	princeton_trtdifferential loss correction	single-endedforward channel	channel 1reverse channel	N/Adate	2019/09/13time	20:02:35forward acquisition time	60.00reverse acquisition time	0.00gamma	496.2192k internal	0.2329k external	0.2329temperature offset calibration	1.0071default loss term (dB/km)	0.3790temperature slope calibration	1.0000multiplexer offset coefficient	1.0000multiplexer slope coefficient	1.0000fibre end	0.00T internal ref (°C)	29.73T ext. ref 1 (°C)	3.04T ext. ref 2 (°C)	24.15length (m)	temperature (°C)	Stokes	anti-Stokes-747.200	77.572	0.039	0.042
-746.185	616.478	-0.174	0.441
-745.171	106.458	-0.223	-0.267
-744.156	308.416	-0.067	0.126
-743.142	-200.000	-0.041	-0.255
-742.127	-200.000	0.033	0.195
-741.112	-66.969	-0.288	0.115
-740.098	800.000	-0.038	0.159
-739.083	41.961	-0.121	0.111
-738.069	31.406	-0.212	-0.184
-737.054	-200.000	-0.003	0.181
-736.039	-66.780	-0.034	0.013
-735.025	-200.000	0.011	0.154
-734.010	-29.664	-0.348	-0.200
-732.996	-200.000	-0.052	0.304
-731.981	-170.898	-0.312	-0.011
-730.966	-200.000	-0.001	-0.141
-729.952	159.016	-0.105	-0.146
-728.937	31.446	-0.247	-0.214
-727.923	-53.426	-0.109	0.050
-726.908	-200.000	-0.005	-0.232
-725.894	97.649	-0.226	-0.262
-724.879	800.000	-0.012	0.047
-723.864	-152.031	0.281	0.021
-722.850	-200.000	-0.032	-0.236
-721.835	-200.000	0.070	-0.352
-720.821	-155.260	0.162	-0.011
-719.806	-0.006	-0.108	0.077
-718.791	581.991	-0.069	-0.170
-717.777	-200.000	-0.017	-0.288
-716.762	-140.771	0.303	0.031
-715.748	-113.497	-0.297	-0.059
-714.733	-99.003	0.319	0.081
-713.718	203.275	0.116	-0.181
-712.704	-200.000	-0.026	0.218
-711.689	114.549	-0.079	-0.097
-710.675	-143.461	0.386	0.037
-709.660	482.602	-0.090	0.205
-708.645	187.800	0.108	-0.163
-707.631	-200.000	-0.002	-0.140
-706.616	-61.252	0.289	0.123
-705.602	-116.472	0.057	0.011
-704.587	-59.612	-0.256	0.111
-703.572	-69.030	0.196	0.076
-702.558	800.000	0.091	0.322
-701.543	-78.493	-0.226	-0.078
-700.529	-127.311	-0.320	0.047
-699.514	800.000	-0.099	0.407
-698.499	619.810	0.104	0.263
-697.485	-80.123	0.245	-0.083
-696.470	-110.642	-0.219	0.046
-695.456	-145.982	0.141	0.013
-694.441	-53.340	-0.380	0.175
-693.426	-200.000	-0.016	0.138
-692.412	-23.367	-0.362	-0.219
-691.397	-200.000	0.065	0.290
-690.383	-10.394	-0.195	0.130
-689.368	166.101	-0.122	-0.174
-688.354	-64.268	0.328	0.134
-687.339	-12.770	-0.327	-0.214
-686.324	-117.352	0.117	-0.021
-685.310	22.980	-0.148	-0.122
-684.295	-200.000	-0.026	-0.139
-683.281	-200.000	-0.058	-0.486
-682.266	256.707	0.037	-0.064
-681.251	-44.355	0.120	-0.060
-680.237	800.000	-0.068	0.262
-679.222	-112.602	-0.344	0.069
-678.208	-158.122	0.100	0.006
-677.193	331.863	0.187	-0.362
-676.178	-114.949	0.235	-0.045
-675.164	-200.000	-0.003	0.057
-674.149	-102.490	0.231	-0.056
-673.135	-200.000	-0.066	0.313
-672.120	762.674	0.142	-0.386
-671.105	350.416	0.102	-0.202
-670.091	-77.635	-0.257	-0.089
-669.076	148.975	-0.093	0.126
-668.062	-65.140	0.145	-0.059
-667.047	336.331	-0.085	0.166
-666.032	2.102	0.104	-0.076
-665.018	-200.000	0.022	-0.131
-664.003	-121.313	0.157	0.026
-662.989	45.347	0.119	0.110
-661.974	111.435	0.181	0.219
-660.959	-119.791	0.073	0.013
-659.945	292.766	0.059	-0.109
-658.930	96.133	-0.189	0.216
-657.916	200.315	-0.126	-0.195
-656.901	800.000	0.069	0.293
-655.886	204.039	-0.092	0.142
-654.872	43.304	-0.148	-0.135
-653.857	-87.189	-0.313	0.096
-652.843	-76.078	-0.166	-0.059
-651.828	-98.162	0.420	-0.108
-650.814	199.468	-0.220	-0.338
-649.799	-169.324	-0.206	-0.008
-648.784	64.379	0.191	-0.193
-647.770	110.623	0.065	0.078
-646.755	-68.068	-0.322	0.126
-645.741	800.000	-0.143	-0.479
-644.726	800.000	-0.030	-0.100
-643.711	8.531	-0.087	0.066
-642.697	-200.000	-0.006	0.083
-641.682	800.000	0.086	-0.311
-640.668	-47.089	0.293	-0.143
-639.653	-200.000	-0.039	-0.293
-638.638	339.298	-0.118	0.231
-637.624	-56.501	-0.289	0.129
-636.609	629.491	0.078	0.198
-635.595	-200.000	0.044	0.277
-634.580	800.000	0.013	-0.044
-633.565	-18.520	0.106	-0.066
-632.551	52.478	-0.103	0.099
-631.536	-11.966	-0.192	0.126
-630.522	-119.167	-0.235	0.041
-629.507	-200.000	-0.001	0.114
-628.492	-200.000	-0.019	0.084
-627.478	-133.762	-0.201	-0.025
-626.463	169.064	0.071	-0.102
-625.449	69.836	-0.119	-0.123
-624.434	-104.586	-0.236	0.055
-623.419	179.098	-0.065	0.095
-622.405	-111.054	-0.292	-0.060
-621.390	800.000	-0.056	-0.210
-620.376	-200.000	-0.035	0.158
-619.361	283.703	0.048	0.087
-618.346	-200.000	0.012	-0.140
-617.332	-200.000	0.039	0.313
-616.317	55.994	-0.128	0.124
-615.303	27.475	0.278	0.235
-614.288	-200.000	-0.009	0.240
-613.273	234.046	-0.152	-0.250
-612.259	800.000	-0.059	-0.236
-611.244	-82.411	0.055	0.018
-610.230	-172.448	0.278	0.009
-609.215	-158.064	-0.225	-0.013
-608.201	-61.589	0.263	-0.111
-607.186	99.064	-0.155	0.180
-606.171	-14.605	0.301	-0.194
-605.157	-110.928	0.137	0.028
-604.142	-2.713	-0.286	-0.201
-603.128	-72.702	0.234	0.086
-602.113	-49.729	0.247	0.118
-601.098	-144.348	-0.074	-0.007
-600.084	-2.778	0.104	0.073
-599.069	-28.550	0.364	-0.210
-598.055	-107.573	-0.096	-0.021
-597.040	285.903	-0.086	-0.155
-596.025	-18.398	0.179	0.112
-595.011	393.399	0.064	0.134
-593.996	-97.538	0.185	-0.048
-592.982	-46.824	-0.121	-0.059
-591.967	-80.914	0.142	0.047
-590.952	-200.000	0.009	-0.091
-589.938	78.694	-0.160	0.172
-588.923	-23.115	-0.173	0.104
-587.909	-28.362	0.120	-0.069
-586.894	227.598	-0.068	-0.110
-585.879	416.833	0.025	0.054
-584.865	24.851	-0.182	-0.151
-583.850	-43.439	0.151	0.077
-582.836	51.786	-0.118	-0.113
-581.821	-32.330	-0.296	0.165
-580.806	-69.404	0.240	0.092
-579.792	-81.599	-0.126	0.041
-578.777	7.043	-0.186	-0.139
-577.763	-200.000	-0.021	0.280
-576.748	-58.031	0.144	0.063
-575.733	-87.130	-0.136	0.041
-574.719	184.984	0.087	0.129
-573.704	800.000	-0.029	0.099
-572.690	63.557	-0.072	-0.073
-571.675	-92.143	0.084	0.024
-570.661	426.246	-0.012	-0.026
-569.646	-200.000	-0.061	0.379
-568.631	88.683	0.131	-0.145
-567.617	112.183	0.141	-0.171
-566.602	-111.187	0.126	-0.026
-565.588	52.239	-0.179	-0.171
-564.573	-33.767	0.193	0.107
-563.558	-35.322	0.176	-0.096
-562.544	800.000	-0.030	-0.107
-561.529	-200.000	-0.023	0.218
-560.515	-105.927	0.192	-0.043
-559.500	186.443	-0.084	-0.125
-558.485	125.044	0.075	0.095
-557.471	10.305	-0.100	0.076
-556.456	800.000	-0.076	0.292
-555.442	166.511	0.085	-0.120
-554.427	105.314	0.100	-0.118
-553.412	-71.500	-0.059	0.022
-552.398	-133.275	-0.253	-0.032
-551.383	-200.000	0.007	0.063
-550.369	67.389	0.111	0.113
-549.354	81.990	0.293	0.318
-548.339	-200.000	-0.038	0.252
-547.325	69.450	-0.113	-0.117
-546.310	-66.691	-0.209	-0.083
-545.296	4.048	0.201	-0.147
-544.281	97.432	0.179	0.205
-543.266	101.636	-0.043	-0.050
-542.252	-122.303	0.303	-0.049
-541.237	800.000	0.054	0.169
-540.223	-8.794	-0.170	-0.114
-539.208	147.007	-0.134	0.180
-538.193	286.310	0.250	-0.451
-537.179	-33.142	0.218	0.120
-536.164	-180.214	-0.038	-0.001
-535.150	-200.000	0.001	0.192
-534.135	-200.000	-0.054	-0.446
-533.121	-200.000	-0.002	-0.072
-532.106	-30.574	0.027	0.015
-531.091	-180.045	-0.137	0.003
-530.077	154.867	-0.100	0.137
-529.062	352.035	0.138	-0.273
-528.048	38.861	-0.214	-0.191
-527.033	800.000	-0.062	0.199
-526.018	-72.419	-0.247	-0.091
-525.004	-200.000	0.058	0.408
-523.989	-200.000	-0.004	-0.189
-522.975	168.594	0.129	-0.183
-521.960	154.262	0.143	-0.196
-520.945	-113.745	0.340	-0.066
-519.931	800.000	-0.116	0.424
-518.916	16.079	-0.144	0.113
-517.902	-200.000	-0.022	0.250
-516.887	251.029	0.092	0.155
-515.872	25.347	0.130	-0.108
-514.858	58.794	-0.138	0.135
-513.843	486.334	-0.068	-0.154
-512.829	-166.178	-0.166	-0.007
-511.814	-151.336	0.291	0.022
-510.799	107.025	0.161	-0.191
-509.785	2.495	-0.196	0.141
-508.770	-200.000	0.011	-0.422
-507.756	-14.480	0.226	-0.145
-506.741	101.943	0.059	0.068
-505.726	800.000	0.036	0.144
-504.712	-26.342	-0.108	-0.063
-503.697	65.625	-0.176	0.177
-502.683	-200.000	0.026	-0.132
-501.668	-153.971	-0.343	-0.023
-500.653	-155.434	0.272	-0.018
-499.639	-200.000	0.047	-0.232
-498.624	61.413	-0.162	-0.160
-497.610	-101.891	0.310	-0.075
-496.595	-20.964	0.267	0.163
-495.581	-117.298	-0.292	-0.053
-494.566	156.500	-0.382	-0.526
-493.551	-136.345	0.390	0.045
-492.537	21.457	0.078	-0.063
-491.522	199.026	0.262	-0.400
-490.508	-22.818	-0.228	0.138
-489.493	419.844	-0.077	0.164
-488.478	-81.276	0.056	0.018
-487.464	631.700	0.084	0.212
-486.449	-31.783	-0.030	0.017
-485.435	397.582	-0.058	0.121
-484.420	-48.345	0.178	-0.086
-483.405	-92.648	-0.204	0.057
-482.391	58.207	-0.141	0.138
-481.376	733.592	0.157	0.419
-480.362	186.889	-0.155	0.231
-479.347	-6.906	-0.090	0.061
-478.332	9.475	0.247	0.186
-477.318	-120.991	0.166	-0.028
-476.303	-17.997	-0.183	-0.114
-475.289	256.217	-0.224	-0.383
-474.274	-150.665	-0.288	0.022
-473.259	-134.399	-0.209	0.025
-472.245	455.109	-0.010	-0.023
-471.230	-77.787	0.069	-0.024
-470.216	800.000	-0.025	0.087
-469.201	-200.000	0.013	0.131
-468.186	-65.839	-0.180	-0.072
-467.172	-135.394	0.255	-0.030
-466.157	486.304	-0.081	0.184
-465.143	-39.418	-0.372	0.194
-464.128	298.739	0.150	-0.275
-463.113	800.000	0.052	-0.219
-462.099	239.936	-0.077	-0.128
-461.084	-33.744	0.059	-0.032
-460.070	-48.880	0.127	0.061
-459.055	-85.689	-0.140	-0.043
-458.040	240.180	0.233	0.387
-457.026	82.653	-0.249	0.269
-456.011	-82.067	-0.217	-0.071
-454.997	-79.802	-0.047	0.016
-453.982	800.000	0.025	-0.073
-452.968	-200.000	0.030	0.137
-451.953	800.000	0.043	-0.167
-450.938	297.090	0.119	-0.217
-449.924	-200.000	-0.024	0.401
-448.909	-17.328	-0.081	-0.051
-447.895	-48.924	0.102	0.049
-446.880	-92.599	-0.276	-0.077
-445.865	58.908	0.092	-0.090
-444.851	396.683	-0.071	-0.147
-443.836	-200.000	-0.029	-0.175
-442.822	59.881	-0.101	0.099
-441.807	800.000	0.086	-0.258
-440.792	400.231	0.078	-0.163
-439.778	29.009	0.193	0.163
-438.763	262.027	0.092	0.158
-437.749	-82.461	-0.134	0.043
-436.734	-62.430	-0.211	-0.087
-435.719	-91.832	-0.252	-0.071
-434.705	-28.113	0.159	0.092
-433.690	-200.000	-0.003	0.206
-432.676	-127.660	0.069	-0.010
-431.661	-200.000	0.027	0.258
-430.646	25.905	0.167	0.139
-429.632	-71.549	-0.064	-0.024
-428.617	133.422	0.089	-0.114
-427.603	-200.000	0.003	0.054
-426.588	800.000	-0.042	-0.137
-425.573	238.129	-0.098	-0.162
-424.559	-200.000	-0.021	-0.115
-423.544	-56.595	0.368	-0.162
-422.530	388.581	0.107	0.220
-421.515	-69.535	0.158	-0.060
-420.500	-200.000	0.034	-0.193
-419.486	-116.098	0.299	0.055
-418.471	200.982	-0.073	0.112
-417.457	-125.784	-0.108	0.016
-416.442	55.097	-0.071	0.068
-415.428	-2.287	0.086	0.060
-414.413	-62.748	-0.010	-0.004
-413.398	-58.769	-0.105	0.045
-412.384	-200.000	-0.042	-0.189
-411.369	-116.767	-0.044	-0.008
-410.355	267.036	0.153	-0.266
-409.340	-103.929	0.434	0.101
-408.325	-133.082	-0.241	-0.030
-407.311	-200.000	0.034	-0.181
-406.296	11.174	-0.015	-0.012
-405.282	-200.000	-0.063	-0.419
-404.267	-200.000	-0.011	0.184
-403.252	-12.478	-0.282	0.183
-402.238	223.271	0.167	-0.267
-401.223	800.000	-0.047	-0.136
-400.209	-200.000	-0.023	0.262
-399.194	684.278	0.114	0.296
-398.179	800.000	-0.015	0.042
-397.165	-155.252	-0.134	0.009
-396.150	-75.262	-0.280	-0.099
-395.136	47.168	0.061	0.057
-394.121	252.809	0.120	-0.203
-393.106	312.273	-0.100	0.187
-392.092	-200.000	0.009	-0.346
-391.077	-41.337	-0.169	0.086
-390.063	-35.672	0.481	-0.259
-389.048	564.330	0.113	-0.272
-388.033	43.100	-0.107	0.097
-387.019	-98.903	0.131	-0.033
-386.004	800.000	0.055	-0.152
-384.990	73.333	-0.076	-0.079
-383.975	-89.798	-0.337	0.098
-382.960	84.529	0.108	-0.117
-381.946	159.129	0.115	-0.158
-380.931	-165.814	-0.200	0.009
-379.917	-200.000	-0.015	0.152
-378.902	800.000	0.017	-0.066
-377.888	184.993	-0.200	0.295
-376.873	12.763	-0.188	-0.144
-375.858	-16.979	-0.480	0.301
-374.844	-146.667	0.360	0.031
-373.829	325.849	0.028	-0.053
-372.815	162.744	-0.111	-0.155
-371.800	317.252	-0.098	-0.184
-370.785	-30.118	0.176	0.099
-369.771	32.865	-0.073	-0.063
-368.756	173.566	-0.290	-0.416
-367.742	800.000	0.019	0.067
-366.727	-46.189	0.120	-0.059
-365.712	-122.941	-0.283	-0.045
-364.698	-88.237	0.513	-0.152
-363.683	48.127	0.157	-0.146
-362.669	-124.687	0.214	0.033
-361.654	296.564	-0.121	0.220
-360.639	131.047	-0.158	-0.202
-359.625	-59.683	0.063	-0.027
-358.610	146.614	0.135	-0.181
-357.596	317.989	-0.148	0.278
-356.581	-200.000	-0.023	-0.123
-355.566	-25.684	0.149	-0.087
-354.552	-28.289	0.223	-0.128
-353.537	52.790	0.099	-0.093
-352.523	-145.899	-0.316	0.028
-351.508	800.000	0.033	0.109
-350.493	1.046	-0.086	-0.061
-349.479	69.007	-0.172	-0.175
-348.464	-200.000	-0.028	-0.247
-347.450	800.000	0.030	0.113
-346.435	264.225	0.053	-0.091
-345.420	367.731	0.144	-0.289
-344.406	94.463	-0.195	-0.220
-343.391	-98.246	-0.252	-0.064
-342.377	61.002	0.130	0.128
-341.362	17.245	0.080	-0.063
-340.348	-82.309	0.301	-0.097
-339.333	339.223	0.065	-0.126
-338.318	-92.090	0.297	0.083
-337.304	-52.558	-0.023	0.010
-336.289	-107.725	-0.214	-0.046
-335.275	78.016	-0.070	-0.074
-334.260	197.767	-0.027	0.041
-333.245	800.000	0.055	0.176
-332.231	28.320	0.033	0.028
-331.216	143.668	0.129	-0.170
-330.202	-19.550	0.122	-0.075
-329.187	783.508	0.153	-0.415
-328.172	341.834	-0.155	-0.300
-327.158	-200.000	-0.037	0.266
-326.143	155.612	-0.113	0.154
-325.129	725.402	-0.094	0.248
-324.114	463.630	0.046	-0.102
-323.099	-46.448	0.218	-0.106
-322.085	-200.000	-0.061	0.386
-321.070	51.884	0.089	0.084
-320.056	346.799	0.149	-0.291
-319.041	-200.000	0.019	-0.211
-318.026	800.000	0.176	-0.527
-317.012	-84.373	-0.119	-0.037
-315.997	-200.000	0.002	0.341
-314.983	-200.000	-0.001	-0.181
-313.968	800.000	-0.131	0.366
-312.953	-134.172	-0.326	-0.040
-311.939	-88.540	-0.131	-0.039
-310.924	-53.688	-0.048	0.022
-309.910	313.302	0.147	-0.273
-308.895	-73.353	0.077	0.028
-307.880	463.949	0.085	0.189
-306.866	-68.115	-0.284	-0.110
-305.851	-162.452	-0.159	0.008
-304.837	276.457	0.041	-0.072
-303.822	-38.304	0.092	-0.048
-302.807	-200.000	-0.017	-0.179
-301.793	-27.412	0.145	0.083
-300.778	800.000	0.052	-0.194
-299.764	-49.030	-0.489	-0.232
-298.749	-129.305	-0.085	0.012
-297.735	721.631	-0.089	0.235
-296.720	-200.000	-0.009	0.192
-295.705	-107.851	-0.232	-0.050
-294.691	800.000	0.122	0.351
-293.676	-200.000	-0.017	0.334
-292.662	-142.731	0.290	0.028
-291.647	-137.120	0.178	0.020
-290.632	-116.818	-0.234	0.042
-289.618	-200.000	0.026	-0.151
-288.603	-200.000	-0.000	0.497
-287.589	632.746	-0.072	0.181
-286.574	168.168	-0.162	0.228
-285.559	43.043	0.076	0.069
-284.545	24.285	0.159	-0.130
-283.530	506.020	-0.122	-0.279
-282.516	26.647	0.217	-0.180
-281.501	-200.000	0.147	0.728
-280.486	-135.104	0.094	0.011
-279.472	-33.448	0.174	0.095
-278.457	384.816	-0.092	-0.187
-277.443	-78.119	-0.199	-0.068
-276.428	26.506	0.126	0.104
-275.413	219.589	-0.075	-0.119
-274.399	-200.000	0.004	-0.110
-273.384	800.000	0.018	0.058
-272.370	-159.692	-0.298	0.016
-271.355	362.525	-0.070	-0.140
-270.340	-107.719	0.254	0.055
-269.326	-200.000	0.050	0.583
-268.311	800.000	0.023	-0.064
-267.297	800.000	-0.052	-0.208
-266.282	63.094	0.201	-0.199
-265.267	-162.436	-0.423	0.021
-264.253	-200.000	0.013	-0.202
-263.238	527.704	0.094	-0.219
-262.224	424.646	-0.134	-0.286
-261.209	-200.000	-0.039	0.364
-260.195	-44.155	0.115	0.057
-259.180	-113.031	-0.333	-0.065
-258.165	-104.215	0.207	-0.048
-257.151	-182.234	-0.116	-0.002
-256.136	755.374	0.056	0.151
-255.122	800.000	-0.056	-0.197
-254.107	-54.051	0.135	-0.061
-253.092	24.246	-0.198	-0.162
-252.078	-150.418	0.091	0.007
-251.063	-200.000	-0.020	0.156
-250.049	-200.000	-0.001	-0.041
-249.034	-144.663	0.276	-0.025
-248.019	-61.334	-0.163	0.068
-247.005	304.037	-0.184	-0.337
-245.990	110.770	0.103	-0.122
-244.976	-123.624	0.057	-0.009
-243.961	-184.673	0.209	-0.003
-242.946	-200.000	-0.047	-0.227
-241.932	386.867	0.107	-0.218
-240.917	-15.103	-0.270	-0.171
-239.903	-200.000	-0.016	0.142
-238.888	-200.000	-0.027	0.208
-237.873	375.514	0.048	0.097
-236.859	65.512	-0.213	0.213
-235.844	-3.251	0.205	0.141
-234.830	405.996	0.029	-0.060
-233.815	-200.000	0.046	0.282
-232.800	505.987	-0.013	0.029
-231.786	-200.000	-0.002	-0.014
-230.771	235.281	0.178	0.290
-229.757	235.242	-0.165	0.269
-228.742	-145.216	-0.109	0.010
-227.727	-200.000	-0.019	0.126
-226.713	349.522	-0.266	-0.519
-225.698	-83.920	0.143	-0.045
-224.684	-200.000	-0.029	-0.134
-223.669	800.000	0.005	-0.013
-222.655	-164.504	0.306	0.014
-221.640	85.265	0.127	0.138
-220.625	-166.390	-0.134	-0.006
-219.611	219.811	-0.118	-0.187
-218.596	606.561	0.095	0.234
-217.582	98.150	0.200	0.227
-216.567	52.541	-0.140	0.132
-215.552	-26.946	0.060	0.035
-214.538	-200.000	0.008	0.079
-213.523	68.483	0.244	-0.246
-212.509	-111.420	0.310	-0.062
-211.494	0.199	-0.057	0.040
-210.479	800.000	-0.029	0.086
-209.465	-20.792	0.093	0.056
-208.450	55.060	-0.104	-0.099
-207.436	-142.771	0.148	0.014
-206.421	-22.603	0.063	-0.037
-205.406	415.046	0.124	0.260
-204.392	-73.372	-0.152	0.055
-203.377	-200.000	0.010	0.094
-202.363	-200.000	-0.013	-0.122
-201.348	-200.000	-0.006	0.220
-200.333	-4.704	0.131	-0.089
-199.319	-134.078	-0.194	0.024
-198.304	57.200	0.211	-0.203
-197.290	42.225	-0.247	-0.221
-196.275	-11.305	0.064	0.041
-195.260	-2.897	0.168	0.116
-194.246	-200.000	-0.009	0.064
-193.231	-200.000	0.204	0.001
-192.217	-80.891	0.323	0.106
-191.202	-200.000	0.014	-0.079
-190.187	100.098	-0.116	0.132
-189.173	9.983	0.126	0.094
-188.158	143.070	-0.287	-0.376
-187.144	55.543	0.130	0.124
-186.129	-200.000	-0.019	0.109
-185.114	99.137	0.137	0.156
-184.100	137.186	0.042	-0.054
-183.085	39.843	-0.309	-0.274
-182.071	-200.000	-0.024	0.130
-181.056	63.858	-0.205	0.203
-180.042	-91.756	0.273	0.077
-179.027	-200.000	0.014	-0.076
-178.012	-46.188	0.107	-0.052
-176.998	-72.741	-0.549	-0.199
-175.983	201.491	0.105	0.159
-174.969	-200.000	0.031	0.189
-173.954	-200.000	0.020	-0.254
-172.939	-200.000	-0.021	0.133
-171.925	-99.339	0.214	0.053
-170.910	-200.000	0.013	0.531
-169.896	-200.000	-0.050	0.413
-168.881	125.668	0.056	-0.070
-167.866	-122.651	-0.258	0.041
-166.852	126.151	0.089	0.111
-165.837	800.000	0.018	0.068
-164.823	172.786	0.146	0.207
-163.808	-75.369	0.110	0.039
-162.793	-11.168	-0.237	0.154
-161.779	-200.000	-0.044	-0.216
-160.764	800.000	0.078	0.249
-159.750	555.645	0.059	0.141
-158.735	319.512	-0.134	0.250
-157.720	-34.596	-0.120	-0.064
-156.706	800.000	0.048	-0.134
-155.691	92.922	-0.028	-0.031
-154.677	-86.794	0.424	-0.128
-153.662	-113.270	-0.135	-0.026
-152.647	238.843	-0.099	0.162
-151.633	-67.244	-0.114	-0.044
-150.618	-18.489	-0.316	-0.194
-149.604	800.000	0.116	0.342
-148.589	154.421	-0.113	-0.152
-147.574	-1.063	-0.017	0.012
-146.560	-108.412	0.210	-0.044
-145.545	-183.835	0.200	-0.003
-144.531	-27.320	-0.146	0.084
-143.516	-107.955	-0.131	-0.028
-142.502	109.235	0.084	0.098
-141.487	-58.790	-0.068	-0.029
-140.472	270.390	0.160	-0.277
-139.458	800.000	-0.057	0.166
-138.443	192.084	-0.113	0.168
-137.429	-163.721	0.223	0.010
-136.414	82.699	-0.159	0.170
-135.399	314.851	-0.101	-0.188
-134.385	494.510	-0.103	0.232
-133.370	-118.837	0.115	-0.020
-132.356	-200.000	-0.001	-0.296
-131.341	-131.377	0.156	-0.020
-130.326	173.072	0.129	0.183
-129.312	-112.931	-0.384	0.075
-128.297	209.057	0.080	-0.124
-127.283	-200.000	-0.020	-0.106
-126.268	-110.186	0.158	0.032
-125.253	621.198	-0.082	0.202
-124.239	-111.377	-0.194	0.039
-123.224	-200.000	0.012	0.266
-122.210	-92.295	-0.226	-0.063
-121.195	-200.000	0.057	-0.286
-120.180	14.907	0.164	-0.126
-119.166	-98.069	0.243	-0.062
-118.151	263.874	0.073	0.124
-117.137	266.242	-0.102	-0.174
-116.122	135.587	0.115	0.147
-115.107	-128.356	0.174	0.024
-114.093	19.414	0.264	0.208
-113.078	611.051	-0.078	-0.192
-112.064	-200.000	-0.039	0.193
-111.049	427.330	0.092	0.195
-110.034	179.531	0.191	0.275
-109.020	109.307	0.104	0.123
-108.005	800.000	-0.034	-0.104
-106.991	310.907	-0.190	-0.350
-105.976	17.917	-0.142	-0.111
-104.962	298.534	-0.078	0.140
-103.947	394.442	-0.067	0.137
-102.932	-147.210	-0.127	0.011
-101.918	-34.206	0.188	-0.102
-100.903	149.231	-0.145	-0.192
-99.889	-134.888	0.334	-0.040
-98.874	-117.090	-0.131	0.023
-97.859	618.526	0.119	-0.293
-96.845	70.150	0.106	0.108
-95.830	-200.000	0.115	0.523
-94.816	-74.696	0.039	-0.014
-93.801	-55.167	0.318	0.141
-92.786	-26.656	0.063	0.036
-91.772	800.000	-0.051	-0.220
-90.757	258.934	-0.132	-0.223
-89.743	800.000	-0.093	-0.322
-88.728	236.844	-0.049	-0.079
-87.713	-107.020	0.220	-0.048
-86.699	-78.709	-0.162	-0.054
-85.684	65.138	0.221	0.220
-84.670	-42.255	-0.132	-0.066
-83.655	201.055	0.287	-0.433
-82.640	281.970	-0.124	-0.218
-81.626	800.000	-0.170	0.520
-80.611	65.439	0.065	0.065
-79.597	-53.781	0.221	0.099
-78.582	223.265	-0.290	-0.459
-77.567	-20.129	0.210	-0.127
-76.553	18.483	-0.307	-0.240
-75.538	-200.000	-0.026	-0.165
-74.524	-48.973	0.162	0.076
-73.509	800.000	0.060	0.204
-72.494	-17.840	-0.184	0.113
-71.480	-67.271	-0.138	0.053
-70.465	-109.443	0.186	-0.039
-69.451	-22.670	-0.281	-0.167
-68.436	317.994	-0.177	0.329
-67.422	3.816	-0.119	-0.085
-66.407	37.236	-0.086	0.074
-65.392	-46.930	-0.322	0.154
-64.378	-11.023	-0.265	-0.172
-63.363	-81.016	-0.232	0.075
-62.349	800.000	0.049	0.179
-61.334	6.727	-1.403	-1.024
-60.319	165.907	0.498	0.691
-59.305	250.257	-0.564	-0.939
-58.290	-200.000	0.118	0.943
-57.276	298.892	0.884	1.596
-56.261	-200.000	109.061	618.552
-55.246	520.262	1497.578	3441.851
-54.232	178.878	2682.449	3843.999
-53.217	112.520	2150.588	2551.303
-52.203	41.336	1600.223	1418.691
-51.188	33.415	1341.372	1141.653
-50.173	30.152	1300.998	1088.131
-49.159	54.628	1356.552	1281.978
-48.144	54.711	1372.069	1297.088
-47.130	33.217	1325.772	1127.018
-46.115	29.812	1308.308	1092.062
-45.100	29.737	1302.935	1087.094
-44.086	29.547	1301.006	1084.329
-43.071	29.533	1298.449	1082.073
-42.057	29.586	1295.962	1080.265
-41.042	29.647	1294.596	1079.438
-40.027	29.620	1293.380	1078.228
-39.013	29.631	1291.075	1076.326
-37.998	29.675	1289.273	1075.035
-36.984	29.697	1287.743	1073.847
-35.969	29.652	1285.893	1071.997
-34.954	29.765	1284.228	1071.225
-33.940	29.713	1283.305	1070.108
-32.925	29.809	1281.613	1069.212
-31.911	29.729	1280.202	1067.531
-30.896	29.847	1278.760	1066.964
-29.881	29.892	1277.434	1066.078
-28.867	29.915	1275.953	1064.928
-27.852	29.802	1274.301	1062.860
-26.838	29.880	1273.024	1062.198
-25.823	29.828	1271.488	1060.580
-24.809	29.679	1270.782	1059.092
-23.794	29.794	1269.319	1058.491
-22.779	29.856	1267.872	1057.595
-21.765	29.817	1266.343	1056.054
-20.750	29.764	1265.366	1054.900
-19.736	29.844	1263.815	1054.019
-18.721	29.645	1262.823	1052.016
-17.706	29.634	1262.339	1051.511
-16.692	29.794	1260.194	1050.589
-15.677	29.647	1260.003	1049.554
-14.663	29.764	1258.539	1048.955
-13.648	29.725	1257.398	1047.745
-12.633	29.687	1256.399	1046.652
-11.619	29.645	1255.560	1045.674
-10.604	29.608	1254.749	1044.748
-9.590	29.694	1253.619	1044.255
-8.575	29.725	1252.641	1043.574
-7.560	29.692	1252.133	1042.919
-6.546	29.611	1251.288	1041.720
-5.531	29.744	1250.130	1041.465
-4.517	29.681	1249.420	1040.477
-3.502	29.642	1249.046	1039.904
-2.487	29.812	1247.470	1039.505
-1.473	29.651	1243.328	1035.111
-0.458	27.942	1227.876	1012.743
0.556	24.138	1210.059	971.796
1.571	20.128	1214.645	953.384
2.586	19.003	1229.228	958.480
3.600	18.583	1217.286	946.763
4.615	13.869	1146.492	867.060
5.629	6.394	1074.238	775.644
6.644	3.188	1055.686	746.646
7.659	3.030	1052.816	743.787
8.673	2.970	1051.829	742.734
9.688	2.972	1050.863	741.995
10.702	3.123	1048.953	741.309
11.717	7.412	1054.496	765.902
12.731	15.068	1065.498	811.048
13.746	19.429	1070.875	836.255
14.761	19.769	1070.677	837.677
15.775	18.946	1068.849	832.189
16.790	17.994	1066.622	825.782
17.804	17.315	1065.397	821.483
18.819	16.965	1064.000	818.644
19.834	16.822	1063.528	817.515
20.848	16.716	1062.569	816.199
21.863	16.531	1062.066	814.846
22.877	16.340	1061.203	813.191
23.892	16.394	1060.125	812.555
24.907	16.232	1059.876	811.512
25.921	16.377	1058.575	811.142
26.936	16.334	1057.491	810.033
27.950	16.436	1055.773	809.136
28.965	16.452	1054.777	808.376
29.980	16.631	1052.924	807.741
30.994	16.685	1051.590	806.902
32.009	16.700	1051.166	806.575
33.023	16.705	1049.848	805.515
34.038	16.539	1049.106	804.088
35.053	16.380	1047.808	802.264
36.067	16.360	1047.063	801.531
37.082	16.546	1046.626	802.007
38.096	16.600	1045.628	801.428
39.111	16.575	1045.073	800.810
40.126	16.438	1043.279	798.721
41.140	16.192	1041.594	796.197
42.155	16.073	1041.137	795.218
43.169	16.088	1040.132	794.449
44.184	16.085	1038.896	793.420
45.199	16.138	1037.764	792.736
46.213	16.188	1036.778	792.146
47.228	16.496	1035.804	792.779
48.242	16.458	1034.985	791.902
49.257	16.344	1034.287	790.763
50.271	16.534	1033.293	790.822
51.286	16.484	1032.834	790.170
52.301	16.486	1031.576	789.146
53.315	16.334	1030.555	787.585
54.330	16.177	1029.645	786.088
55.344	16.145	1028.919	785.314
56.359	16.194	1027.976	784.757
57.374	16.161	1027.082	783.848
58.388	16.146	1025.963	782.858
59.403	16.006	1025.311	781.640
60.417	16.034	1024.560	781.128
61.432	16.120	1023.493	780.642
62.447	16.054	1022.925	779.835
63.461	15.910	1021.839	778.275
64.476	15.974	1021.081	777.922
65.490	15.909	1020.292	776.954
66.505	15.853	1020.226	776.576
67.520	16.060	1018.897	776.450
68.534	16.062	1018.069	775.760
69.549	15.953	1017.561	774.800
70.563	16.057	1016.460	774.373
71.578	15.801	1015.799	772.624
72.593	15.689	1015.193	771.583
73.607	15.740	1014.273	771.049
74.622	15.776	1014.224	771.110
75.636	15.812	1013.157	770.394
76.651	15.852	1012.798	770.236
77.666	15.961	1012.050	770.097
78.680	16.004	1010.802	769.273
79.695	15.958	1010.455	768.731
80.709	16.042	1009.993	768.697
81.724	16.154	1009.618	768.851
82.739	16.257	1008.595	768.474
83.753	16.437	1008.072	768.827
84.768	16.724	1007.053	769.288
85.782	16.637	1006.993	768.779
86.797	16.640	1005.495	767.578
87.812	16.386	1004.443	765.559
88.826	16.571	1003.239	765.408
89.841	16.586	1002.529	764.867
90.855	16.742	1001.776	764.929
91.870	16.598	1001.205	763.774
92.884	16.544	1000.398	762.852
93.899	16.751	998.908	762.577
94.914	16.806	998.479	762.433
95.928	16.782	997.448	761.469
96.943	16.647	996.804	760.305
97.957	16.573	995.856	759.183
98.972	16.569	995.458	758.791
99.987	16.721	993.978	758.277
101.001	16.595	993.232	757.076
102.016	16.454	992.553	755.863
103.030	16.534	992.060	755.780
104.045	16.586	990.559	754.799
105.060	16.425	990.317	753.831
106.074	16.141	989.190	751.638
107.089	16.104	988.031	750.529
108.103	16.003	987.172	749.360
109.118	15.987	985.695	748.103
110.133	16.074	984.987	747.883
111.147	16.013	984.533	747.201
112.162	16.160	983.279	746.837
113.176	16.229	982.989	746.854
114.191	16.236	982.093	746.140
115.206	16.267	981.423	745.701
116.220	16.155	980.365	744.338
117.235	16.236	979.267	743.793
118.249	16.179	978.369	742.797
119.264	16.038	977.909	741.761
120.279	16.032	977.051	741.017
121.293	15.968	976.298	740.101
122.308	15.808	975.428	738.672
123.322	15.847	974.211	737.855
124.337	15.851	973.118	736.979
125.352	15.961	971.912	736.484
126.366	16.001	970.774	735.730
127.381	15.960	970.111	734.983
128.395	15.921	969.290	734.128
129.410	16.022	968.218	733.690
130.424	16.150	967.685	733.778
131.439	16.194	967.164	733.511
132.454	16.171	966.301	732.687
133.468	16.115	965.707	731.932
134.483	16.172	964.571	731.252
135.497	16.290	963.860	731.160
136.512	16.223	963.014	730.165
137.527	16.220	962.153	729.435
138.541	16.270	961.455	729.054
139.556	16.276	961.132	728.774
140.570	16.415	960.242	728.633
141.585	16.568	959.233	728.461
142.600	16.612	958.839	728.287
143.614	16.551	957.944	727.280
144.629	16.672	957.246	727.208
145.643	16.627	955.771	725.826
146.658	16.432	955.095	724.416
147.673	16.320	954.358	723.313
148.687	16.267	953.134	722.094
149.702	16.325	951.893	721.339
150.716	16.205	951.793	720.683
151.731	16.366	950.581	720.389
152.746	16.370	950.099	719.978
153.760	16.508	949.273	719.874
154.775	16.384	949.408	719.387
155.789	16.610	948.556	719.637
156.804	16.452	948.021	718.498
157.819	16.531	947.040	718.026
158.833	16.826	946.407	718.732
159.848	16.882	945.485	718.209
160.862	16.555	944.917	716.329
161.877	16.461	943.367	714.691
162.892	16.347	942.577	713.548
163.906	16.353	941.436	712.648
164.921	16.268	940.629	711.615
165.935	16.371	939.840	711.390
166.950	16.288	939.195	710.487
167.964	16.429	938.183	710.251
168.979	16.346	937.332	709.195
169.994	16.665	936.003	709.465
171.008	16.409	936.491	708.701
172.023	16.786	935.583	709.528
173.037	16.805	934.860	708.997
174.052	16.750	933.541	707.706
175.067	16.638	932.814	706.624
176.081	16.369	932.465	705.173
177.096	16.394	932.204	705.019
178.110	16.440	931.255	704.431
179.125	16.581	930.564	704.433
180.140	16.436	930.838	703.975
181.154	16.596	930.543	704.352
182.169	16.754	929.736	704.339
183.183	16.728	929.307	703.843
184.198	16.828	927.830	703.074
185.213	16.807	927.540	702.706
186.227	16.762	927.005	702.053
187.242	16.907	926.404	702.136
188.256	16.984	925.787	701.927
189.271	16.949	924.859	701.016
190.286	16.719	924.018	699.366
191.300	16.284	923.261	696.934
192.315	16.253	922.622	696.264
193.329	16.262	922.132	695.870
194.344	16.436	921.582	696.109
195.359	16.481	920.946	695.754
196.373	16.745	920.803	696.670
197.388	16.941	920.062	696.852
198.402	16.984	919.984	696.907
199.417	17.093	919.094	696.619
200.432	17.301	918.134	696.682
201.446	17.296	917.970	696.474
202.461	17.385	917.608	696.505
203.475	17.055	917.368	694.909
204.490	17.133	915.825	693.997
205.504	16.745	915.708	692.262
206.519	16.971	914.468	692.186
207.534	16.985	913.959	691.799
208.548	17.080	912.879	691.305
209.563	16.835	913.183	690.476
210.577	16.897	912.082	689.835
211.592	17.135	911.483	690.287
212.607	17.322	910.277	690.074
213.621	17.170	909.902	689.111
214.636	17.179	909.164	688.529
215.650	17.181	908.434	687.921
216.665	17.299	907.735	687.810
217.680	17.295	907.433	687.502
218.694	17.343	906.884	687.220
219.709	17.267	906.079	686.243
220.723	17.302	905.341	685.765
221.738	17.253	904.596	684.943
222.753	17.288	904.050	684.609
223.767	17.282	903.391	684.023
224.782	17.533	902.760	684.497
225.796	17.513	902.270	683.983
226.811	17.338	902.031	683.040
227.826	17.235	900.965	681.758
228.840	17.284	899.910	681.096
229.855	17.268	899.120	680.371
230.869	17.229	898.581	679.748
231.884	17.201	897.885	679.051
232.899	17.107	897.142	678.052
233.913	17.107	896.662	677.630
234.928	17.139	895.656	676.936
235.942	17.044	894.957	675.972
236.957	17.122	894.517	675.888
237.972	17.028	894.095	675.138
238.986	17.171	893.305	675.051
240.001	17.238	892.678	674.783
241.015	17.135	892.066	673.850
242.030	17.111	891.922	673.588
243.045	17.102	891.517	673.185
244.059	17.307	890.652	673.284
245.074	17.292	890.150	672.787
246.088	17.372	889.119	672.265
247.103	17.459	888.824	672.326
248.117	17.604	888.371	672.497
249.132	17.859	887.690	672.925
250.147	18.076	887.330	673.448
251.161	18.074	886.684	672.892
252.176	18.112	886.000	672.463
253.190	18.221	885.111	672.157
254.205	18.085	884.530	671.120
255.220	18.127	884.041	670.855
256.234	18.119	883.753	670.546
257.249	18.127	882.983	669.935
258.263	18.068	882.201	669.052
259.278	18.164	881.372	668.740
260.293	18.054	881.225	668.138
261.307	18.232	880.514	668.236
262.322	18.174	879.924	667.503
263.336	18.290	878.699	666.965
264.351	18.327	878.255	666.713
265.366	18.171	877.812	665.711
266.380	18.189	877.197	665.255
267.395	18.343	876.144	664.998
268.409	18.036	875.925	663.577
269.424	18.030	874.926	662.742
270.439	18.153	873.929	662.404
271.453	18.017	873.360	661.388
272.468	17.962	872.754	660.656
273.482	18.088	871.863	660.410
274.497	18.073	871.613	660.105
275.512	18.100	871.485	660.053
276.526	17.979	870.832	659.034
277.541	18.197	870.310	659.421
278.555	18.232	869.847	659.144
279.570	18.446	869.236	659.450
280.585	18.411	868.087	658.383
281.599	18.317	867.345	657.403
282.614	18.042	866.828	655.896
283.628	18.217	866.024	655.903
284.643	18.233	865.709	655.665
285.657	18.212	864.822	654.855
286.672	18.268	864.114	654.477
287.687	18.297	863.825	654.309
288.701	18.232	863.460	653.727
289.716	18.304	862.796	653.441
290.730	18.327	861.852	652.755
291.745	18.373	861.492	652.603
292.760	18.386	861.093	652.291
293.774	18.456	860.252	651.861
294.789	18.528	859.764	651.711
295.803	18.303	858.694	649.987
296.818	18.232	858.119	649.223
297.833	18.224	857.511	648.677
298.847	18.329	856.921	648.569
299.862	18.431	856.298	648.428
300.876	18.474	856.032	648.330
301.891	18.544	855.480	648.120
302.906	18.652	855.084	648.170
303.920	18.761	854.635	648.184
304.935	18.721	854.152	647.608
305.949	18.867	853.017	647.242
306.964	18.552	852.823	645.852
307.979	18.610	852.427	645.711
308.993	18.633	851.979	645.402
310.008	18.855	850.837	645.315
311.022	18.625	850.534	644.164
312.037	18.598	849.834	643.476
313.052	18.455	849.143	642.360
314.066	18.448	848.355	641.678
315.081	18.445	847.765	641.165
316.095	18.470	847.234	640.801
317.110	18.555	846.364	640.405
318.125	18.398	846.270	639.692
319.139	18.529	845.517	639.553
320.154	18.458	845.322	639.082
321.168	18.469	845.156	638.944
322.183	18.456	844.580	638.402
323.197	18.484	843.942	637.969
324.212	18.552	843.041	637.482
325.227	18.609	842.688	637.373
326.241	18.515	842.031	636.468
327.256	18.451	841.711	635.932
328.270	18.731	840.917	636.314
329.285	18.538	840.497	635.227
330.300	18.430	840.003	634.395
331.314	18.596	839.163	634.319
332.329	18.719	839.172	634.727
333.343	18.792	838.767	634.633
334.358	18.729	838.228	633.938
335.373	18.707	837.989	633.618
336.387	18.849	837.677	633.850
337.402	19.023	837.400	634.226
338.416	18.973	837.063	633.731
339.431	19.033	836.793	633.690
340.446	19.206	836.241	633.851
341.460	19.098	835.993	633.212
342.475	19.230	835.347	633.152
343.489	19.182	835.261	632.852
344.504	19.410	834.554	633.099
345.519	19.333	834.081	632.404
346.533	19.237	833.768	631.755
347.548	19.027	833.265	630.551
348.562	19.018	832.102	629.581
349.577	19.068	831.503	629.255
350.592	18.925	830.569	627.969
351.606	18.866	829.949	627.229
352.621	18.879	829.459	626.852
353.635	18.918	829.242	626.774
354.650	19.097	828.411	626.742
355.665	19.063	827.958	626.221
356.679	19.184	827.285	626.097
357.694	19.246	826.681	625.810
358.708	19.102	826.025	624.737
359.723	19.149	825.305	624.306
360.738	19.210	824.844	624.125
361.752	19.162	824.264	623.454
362.767	19.490	823.383	623.919
363.781	19.538	823.003	623.748
364.796	19.724	823.065	624.414
365.810	19.619	822.752	623.741
366.825	19.675	822.078	623.377
367.840	19.602	821.745	622.805
368.854	19.487	820.979	621.759
369.869	19.305	820.868	620.964
370.883	19.388	820.482	620.914
371.898	19.609	819.955	621.254
372.913	19.764	819.403	621.338
373.927	19.576	819.009	620.311
374.942	19.644	818.628	620.210
375.956	19.784	818.207	620.341
376.971	19.719	818.201	620.045
377.986	19.729	817.919	619.814
379.000	19.949	816.703	619.626
380.015	19.777	816.379	618.708
381.029	19.892	815.748	618.586
382.044	19.757	815.415	617.799
383.059	19.796	814.440	617.143
384.073	19.917	813.915	617.123
385.088	19.658	813.122	615.544
386.102	19.669	812.997	615.434
387.117	19.566	812.425	614.580
388.132	19.526	811.757	613.878
389.146	19.689	811.098	613.903
390.161	19.812	811.101	614.288
391.175	19.794	810.490	613.707
392.190	19.669	809.665	612.587
393.205	19.795	808.963	612.448
394.219	19.556	809.104	611.654
395.234	19.611	808.176	611.094
396.248	19.586	807.977	610.798
397.263	19.587	807.161	610.132
398.278	19.537	806.905	609.708
399.292	19.510	806.641	609.358
400.307	19.491	806.211	608.913
401.321	19.648	805.363	608.772
402.336	19.564	805.333	608.399
403.350	19.639	804.968	608.334
404.365	19.701	804.890	608.441
405.380	19.882	804.250	608.537
406.394	20.047	803.489	608.488
407.409	20.036	803.473	608.385
408.423	20.171	803.187	608.586
409.438	20.074	802.680	607.810
410.453	20.127	802.163	607.550
411.467	20.203	801.934	607.590
412.482	20.349	801.202	607.489
413.496	20.101	801.644	606.902
414.511	20.346	800.815	607.079
415.526	20.289	800.094	606.282
416.540	20.301	799.681	605.957
417.555	20.335	799.097	605.578
418.569	20.207	798.666	604.752
419.584	20.286	798.688	604.989
420.599	20.273	797.953	604.333
421.613	161.031	1371.827	1797.483
422.628	139.702	1455.453	1797.555
