DTS Sentinel unit serial number:	SN413079Multiplexer serial number:	ORYXHardware model number:	OX4-SRSoftware version number:	ORYX F/W v4.00 Oryx Data Collector v3.7.2.0data status	okinstallation	princeton_trtdifferential loss correction	single-endedforward channel	channel 1reverse channel	N/Adate	2019/09/16time	02:22:35forward acquisition time	60.00reverse acquisition time	0.00gamma	496.2192k internal	0.2331k external	0.2331temperature offset calibration	0.9976default loss term (dB/km)	0.3790temperature slope calibration	1.0000multiplexer offset coefficient	1.0000multiplexer slope coefficient	1.0000fibre end	0.00T internal ref (°C)	27.62T ext. ref 1 (°C)	10.22T ext. ref 2 (°C)	22.62length (m)	temperature (°C)	Stokes	anti-Stokes-747.200	84.705	-0.170	-0.187
-746.185	-21.534	-0.199	0.122
-745.171	800.000	-0.016	-0.064
-744.156	522.246	-0.046	0.108
-743.142	-14.418	0.083	-0.054
-742.127	524.212	-0.110	0.260
-741.112	-0.970	-0.132	0.094
-740.098	-195.639	-0.258	0.002
-739.083	-55.994	0.326	0.146
-738.069	140.658	-0.218	0.289
-737.054	-101.064	0.251	-0.062
-736.039	-97.717	-0.312	0.081
-735.025	428.085	0.046	0.100
-734.010	152.583	-0.203	-0.279
-732.996	137.514	-0.184	0.242
-731.981	-89.140	0.110	-0.033
-730.966	-200.000	-0.042	-0.208
-729.952	800.000	0.023	-0.079
-728.937	-3.396	-0.177	0.124
-727.923	800.000	0.089	-0.336
-726.908	800.000	-0.050	-0.161
-725.894	51.236	-0.369	-0.352
-724.879	36.626	0.060	-0.053
-723.864	-122.633	0.074	0.012
-722.850	43.407	-0.306	-0.281
-721.835	-200.000	0.005	-0.108
-720.821	-75.775	-0.061	0.022
-719.806	800.000	0.011	-0.038
-718.791	107.738	0.166	-0.199
-717.777	-3.752	-0.153	0.107
-716.762	-197.132	-0.167	-0.001
-715.748	-200.000	-0.030	-0.172
-714.733	-159.480	-0.139	-0.008
-713.718	-200.000	0.008	0.182
-712.704	0.034	-0.264	0.189
-711.689	266.571	-0.118	-0.207
-710.675	196.224	0.126	-0.193
-709.660	-200.000	-0.032	0.154
-708.645	82.484	-0.132	-0.143
-707.631	373.964	0.144	-0.294
-706.616	323.823	-0.184	-0.353
-705.602	92.385	-0.200	-0.226
-704.587	-47.520	-0.252	-0.123
-703.572	800.000	0.086	0.332
-702.558	422.557	-0.213	0.459
-701.543	-200.000	0.008	-0.154
-700.529	-146.390	0.332	-0.029
-699.514	12.637	-0.122	0.095
-698.499	-91.272	-0.178	-0.051
-697.485	226.811	-0.180	-0.294
-696.470	-153.083	-0.168	0.012
-695.456	-54.258	-0.247	-0.113
-694.441	-31.630	0.213	-0.120
-693.426	-72.117	-0.175	0.065
-692.412	306.133	0.145	-0.270
-691.397	327.882	0.134	0.258
-690.383	-70.521	-0.246	0.093
-689.368	-200.000	0.022	0.454
-688.354	48.008	-0.190	0.179
-687.339	93.065	-0.102	0.116
-686.324	-122.711	0.136	0.022
-685.310	-109.433	0.212	-0.045
-684.295	665.278	0.049	0.127
-683.281	-39.855	-0.085	-0.045
-682.266	289.383	-0.056	-0.101
-681.251	-200.000	0.092	0.439
-680.237	-58.062	0.179	0.078
-679.222	-200.000	-0.024	-0.113
-678.208	-69.799	-0.369	-0.141
-677.193	-200.000	-0.056	0.446
-676.178	107.863	0.361	-0.432
-675.164	183.089	-0.073	0.108
-674.149	800.000	-0.058	-0.178
-673.135	85.571	-0.209	-0.231
-672.120	-76.466	-0.417	0.147
-671.105	-59.195	0.179	0.077
-670.091	-125.081	-0.169	0.026
-669.076	164.767	0.117	0.165
-668.062	54.384	0.121	0.117
-667.047	5.048	-0.105	0.078
-666.032	-25.787	0.031	0.018
-665.018	800.000	0.068	0.300
-664.003	102.657	0.316	0.371
-662.989	-200.000	-0.031	-0.251
-661.974	-28.864	-0.209	-0.121
-660.959	-133.796	-0.147	0.018
-659.945	580.748	-0.094	0.231
-658.930	-200.000	-0.016	-0.121
-657.916	800.000	-0.028	-0.092
-656.901	800.000	0.067	0.266
-655.886	-62.683	-0.202	-0.084
-654.872	-200.000	-0.035	-0.173
-653.857	114.365	0.085	-0.103
-652.843	59.507	-0.096	-0.095
-651.828	-200.000	0.048	-0.226
-650.814	584.707	0.138	0.341
-649.799	341.188	-0.191	-0.375
-648.784	-127.092	-0.294	-0.043
-647.770	-5.555	0.128	-0.088
-646.755	38.659	-0.342	-0.306
-645.741	606.851	-0.019	-0.048
-644.726	-59.962	0.174	0.074
-643.711	170.808	-0.235	-0.338
-642.697	121.900	-0.090	-0.113
-641.682	-161.013	0.481	-0.025
-640.668	164.537	0.012	-0.017
-639.653	-102.575	0.022	0.005
-638.638	366.843	-0.052	-0.106
-637.624	-200.000	-0.027	-0.622
-636.609	-77.650	0.383	0.133
-635.595	-66.633	0.055	-0.022
-634.580	-200.000	0.008	0.060
-633.565	-200.000	0.002	-0.053
-632.551	-31.220	-0.009	-0.005
-631.536	-73.389	-0.113	-0.041
-630.522	697.302	0.077	0.202
-629.507	167.381	0.044	0.062
-628.492	-165.916	-0.260	-0.011
-627.478	-200.000	0.017	0.271
-626.463	625.374	0.087	-0.221
-625.449	-89.561	-0.165	-0.049
-624.434	99.398	-0.131	0.152
-623.419	-131.387	-0.075	-0.010
-622.405	-73.868	-0.314	-0.114
-621.390	-84.109	0.165	-0.052
-620.376	-200.000	-0.006	-0.146
-619.361	-51.999	0.267	-0.124
-618.346	-143.360	-0.114	0.011
-617.332	-120.372	0.524	-0.089
-616.317	133.577	0.006	-0.007
-615.303	-200.000	0.009	-0.169
-614.288	-14.802	0.032	-0.021
-613.273	-50.669	0.109	0.051
-612.259	-117.076	-0.145	-0.026
-611.244	568.168	0.104	-0.254
-610.230	-128.301	0.237	0.034
-609.215	-42.186	-0.056	-0.029
-608.201	223.480	0.105	0.170
-607.186	118.937	0.084	-0.104
-606.171	-156.414	0.321	-0.020
-605.157	390.559	0.108	-0.225
-604.142	197.302	-0.118	0.180
-603.128	-200.000	-0.013	0.065
-602.113	800.000	-0.061	-0.182
-601.098	800.000	-0.139	-0.464
-600.084	279.531	0.162	-0.290
-599.069	457.877	0.066	-0.146
-598.055	-118.143	0.298	0.053
-597.040	-85.931	-0.208	-0.064
-596.025	-42.398	0.159	-0.081
-595.011	473.719	0.135	-0.305
-593.996	800.000	0.071	0.260
-592.982	-103.041	0.346	0.082
-591.967	-200.000	0.039	-0.313
-590.952	-8.402	-0.048	0.032
-589.938	-160.914	0.176	-0.009
-588.923	-106.715	-0.039	0.009
-587.909	166.927	-0.144	-0.204
-586.894	46.327	-0.197	-0.182
-585.879	6.162	0.130	-0.096
-584.865	253.426	0.105	0.179
-583.850	757.544	-0.156	0.422
-582.836	-200.000	-0.026	-0.200
-581.821	-200.000	0.025	0.148
-580.806	-200.000	0.001	-0.055
-579.792	127.420	-0.147	-0.187
-578.777	-117.908	0.241	-0.043
-577.763	-140.161	-0.189	-0.020
-576.748	-84.197	-0.319	0.101
-575.733	204.569	-0.036	0.056
-574.719	800.000	-0.113	-0.377
-573.704	-66.012	-0.392	-0.157
-572.690	22.521	-0.101	-0.083
-571.675	-53.245	0.016	-0.007
-570.661	37.267	0.229	-0.203
-569.646	800.000	-0.040	-0.125
-568.631	-200.000	-0.026	0.132
-567.617	-69.651	0.258	0.099
-566.602	66.522	-0.083	0.085
-565.588	800.000	0.012	-0.035
-564.573	-180.736	-0.238	0.005
-563.558	800.000	-0.153	-0.427
-562.544	-200.000	0.011	-0.070
-561.529	-179.167	0.138	0.003
-560.515	-13.546	0.095	0.062
-559.500	122.228	-0.151	0.188
-558.485	19.181	-0.320	-0.257
-557.471	-44.357	-0.181	-0.090
-556.456	-8.068	0.245	0.165
-555.442	26.488	-0.238	0.199
-554.427	800.000	0.012	0.034
-553.412	168.813	-0.252	0.359
-552.398	150.959	-0.170	0.230
-551.383	287.994	0.109	-0.197
-550.369	-154.436	0.168	0.011
-549.354	-21.401	0.294	0.179
-548.339	-93.683	0.239	0.066
-547.325	-98.834	-0.020	0.005
-546.310	73.491	-0.163	0.171
-545.296	268.161	-0.117	0.205
-544.281	-154.312	-0.165	0.011
-543.266	83.559	-0.063	-0.069
-542.252	753.391	-0.058	0.156
-541.237	468.162	-0.179	-0.402
-540.223	-29.143	-0.177	0.101
-539.208	-176.081	0.047	-0.001
-538.193	591.919	0.054	-0.133
-537.179	-18.364	0.047	-0.029
-536.164	408.984	0.057	-0.121
-535.150	22.201	0.234	-0.191
-534.135	28.530	-0.296	-0.250
-533.121	20.289	-0.082	0.066
-532.106	-129.258	0.387	0.054
-531.091	-200.000	-0.006	-0.055
-530.077	-116.000	-0.116	0.022
-529.062	51.624	0.100	0.095
-528.048	196.185	0.141	-0.214
-527.033	78.746	-0.063	-0.067
-526.018	-200.000	0.031	-0.298
-525.004	733.765	-0.126	-0.336
-523.989	-200.000	0.016	-0.320
-522.975	-200.000	-0.025	0.260
-521.960	165.133	-0.148	0.209
-520.945	-11.276	-0.048	0.032
-519.931	118.229	0.086	0.106
-518.916	-200.000	0.019	-0.169
-517.902	-55.960	-0.577	-0.257
-516.887	144.593	-0.154	-0.206
-515.872	-200.000	-0.027	-0.167
-514.858	-91.826	0.143	-0.041
-513.843	225.706	0.040	0.065
-512.829	71.318	0.203	0.210
-511.814	-110.847	-0.261	-0.054
-510.799	-5.999	-0.266	0.181
-509.785	154.473	-0.219	0.300
-508.770	183.171	-0.146	0.215
-507.756	800.000	0.013	0.054
-506.741	-122.328	-0.107	-0.017
-505.726	-115.597	0.372	0.070
-504.712	-30.093	-0.063	0.036
-503.697	-200.000	-0.026	0.330
-502.683	-69.251	0.176	0.067
-501.668	18.735	0.170	0.136
-500.653	236.091	-0.120	0.197
-499.639	800.000	0.071	-0.207
-498.624	153.303	-0.124	-0.169
-497.610	106.472	-0.129	0.153
-496.595	320.454	-0.072	-0.137
-495.581	18.270	-0.202	-0.161
-494.566	-200.000	0.072	-0.324
-493.551	-138.038	-0.426	-0.047
-492.537	800.000	-0.032	-0.102
-491.522	-200.000	-0.018	-0.223
-490.508	800.000	-0.041	0.124
-489.493	800.000	0.043	-0.138
-488.478	43.181	0.147	-0.134
-487.464	-71.256	0.188	-0.070
-486.449	-200.000	-0.055	0.283
-485.435	800.000	0.007	-0.025
-484.420	800.000	-0.052	-0.213
-483.405	-67.485	0.622	-0.243
-482.391	-118.435	-0.201	0.035
-481.376	-39.879	-0.084	-0.044
-480.362	74.805	-0.251	0.264
-479.347	116.267	-0.269	-0.329
-478.332	800.000	-0.087	0.247
-477.318	437.565	-0.138	0.301
-476.303	30.059	-0.061	-0.051
-475.289	191.186	-0.144	0.216
-474.274	5.490	0.110	0.081
-473.259	-200.000	0.015	-0.072
-472.245	585.821	-0.068	0.166
-471.230	221.560	0.177	0.283
-470.216	-107.593	0.423	0.092
-469.201	80.942	-0.224	0.241
-468.186	-128.293	-0.191	0.027
-467.172	61.731	0.067	-0.066
-466.157	7.859	0.130	0.097
-465.143	-86.011	0.126	-0.039
-464.128	497.141	0.102	0.235
-463.113	-87.856	0.163	0.049
-462.099	-119.659	0.158	0.027
-461.084	-200.000	0.027	0.283
-460.070	-119.722	-0.061	0.010
-459.055	-13.141	0.408	-0.264
-458.040	-48.170	-0.266	-0.128
-457.026	-200.000	-0.048	0.234
-456.011	-160.436	0.188	0.010
-454.997	-119.684	-0.041	0.007
-453.982	99.311	0.084	0.097
-452.968	-58.904	-0.225	0.097
-451.953	-147.283	0.041	-0.003
-450.938	401.169	-0.166	-0.347
-449.924	109.110	-0.066	-0.079
-448.909	800.000	0.077	0.264
-447.895	65.383	0.221	0.223
-446.880	-200.000	0.064	0.436
-445.865	-107.617	0.403	-0.088
-444.851	-89.920	0.113	-0.033
-443.836	-107.456	-0.451	0.098
-442.822	800.000	0.070	0.243
-441.807	-31.247	-0.397	0.222
-440.792	281.975	0.063	0.113
-439.778	53.389	-0.130	0.124
-438.763	-120.226	-0.203	0.034
-437.749	238.664	0.094	0.155
-436.734	82.096	-0.031	0.033
-435.719	-200.000	0.037	0.241
-434.705	213.870	0.120	0.189
-433.690	-149.687	-0.464	0.036
-432.676	173.771	0.156	0.224
-431.661	320.215	0.144	-0.272
-430.646	123.903	0.027	0.033
-429.632	800.000	0.025	-0.097
-428.617	-131.405	-0.157	0.021
-427.603	-97.458	0.126	0.032
-426.588	276.434	0.063	0.111
-425.573	-200.000	0.018	0.247
-424.559	-200.000	0.017	0.123
-423.544	81.853	0.117	-0.126
-422.530	800.000	-0.050	0.142
-421.515	321.332	0.019	-0.036
-420.500	98.275	-0.158	-0.180
-419.486	75.990	0.149	-0.156
-418.471	379.447	-0.176	-0.359
-417.457	97.313	-0.133	-0.151
-416.442	140.141	-0.115	0.151
-415.428	8.044	0.305	0.228
-414.413	-200.000	-0.042	0.296
-413.398	110.330	0.135	-0.161
-412.384	-64.335	-0.168	0.068
-411.369	-163.635	0.351	0.016
-410.355	62.466	-0.189	0.187
-409.340	42.492	0.122	0.111
-408.325	152.369	-0.204	-0.277
-407.311	-200.000	-0.025	0.113
-406.296	-75.777	-0.385	0.136
-405.282	-16.158	-0.197	-0.124
-404.267	126.641	0.273	-0.343
-403.252	800.000	0.035	0.138
-402.238	-93.973	-0.259	0.071
-401.223	80.123	-0.148	-0.158
-400.209	-200.000	0.050	-0.238
-399.194	70.040	-0.163	0.167
-398.179	88.179	-0.268	-0.295
-397.165	56.636	-0.271	0.262
-396.150	-72.935	-0.113	-0.041
-395.136	285.259	0.026	-0.047
-394.121	659.553	-0.101	0.259
-393.106	200.074	-0.149	0.227
-392.092	-200.000	-0.079	0.381
-391.077	-126.178	0.217	0.032
-390.063	-80.156	0.112	0.037
-389.048	800.000	-0.034	0.130
-388.033	-100.773	-0.185	0.045
-387.019	378.209	-0.021	0.043
-386.004	75.961	-0.174	0.183
-384.990	-200.000	-0.014	0.140
-383.975	119.581	0.171	0.210
-382.960	-200.000	0.017	-0.297
-381.946	-16.998	0.162	0.101
-380.931	-163.467	-0.481	0.023
-379.917	306.736	0.115	0.212
-378.902	214.245	0.197	0.309
-377.888	-5.574	-0.164	-0.111
-376.873	-123.287	-0.076	-0.012
-375.858	-10.711	0.115	-0.076
-374.844	-45.615	0.259	0.127
-373.829	18.143	-0.316	0.250
-372.815	510.965	0.086	-0.198
-371.800	-200.000	-0.023	-0.296
-370.785	-6.535	0.147	0.099
-369.771	800.000	-0.069	0.202
-368.756	-54.443	-0.159	0.071
-367.742	-200.000	-0.043	0.308
-366.727	153.047	0.148	0.200
-365.712	-200.000	-0.032	0.310
-364.698	114.192	-0.236	-0.285
-363.683	-1.007	-0.235	-0.165
-362.669	83.088	0.060	-0.065
-361.654	-77.363	-0.073	0.025
-360.639	524.670	0.065	0.152
-359.625	342.201	0.137	-0.266
-358.610	-93.335	-0.278	0.076
-357.596	-200.000	-0.036	0.272
-356.581	302.602	-0.060	0.110
-355.566	-200.000	0.001	0.056
-354.552	-5.812	-0.272	0.185
-353.537	279.157	0.037	-0.066
-352.523	-40.054	0.296	-0.153
-351.508	-110.981	-0.131	0.027
-350.493	-95.691	0.308	0.082
-349.479	758.358	-0.181	0.486
-348.464	800.000	-0.041	-0.164
-347.450	90.277	-0.168	-0.186
-346.435	541.390	0.100	-0.235
-345.420	-51.752	0.162	-0.075
-344.406	-108.239	-0.213	-0.046
-343.391	40.931	-0.205	-0.184
-342.377	800.000	-0.081	0.316
-341.362	-200.000	0.011	0.121
-340.348	-42.091	-0.117	0.059
-339.333	253.341	-0.072	0.122
-338.318	74.727	0.314	0.327
-337.304	2.577	-0.124	-0.089
-336.289	-200.000	-0.015	-0.248
-335.275	-200.000	-0.030	0.169
-334.260	-200.000	-0.017	-0.142
-333.245	3.189	0.192	-0.138
-332.231	-198.265	-0.303	0.002
-331.216	-200.000	-0.009	-0.138
-330.202	61.678	0.047	0.046
-329.187	-200.000	0.004	0.136
-328.172	-46.205	-0.089	0.043
-327.158	800.000	-0.058	0.229
-326.143	-38.986	0.272	-0.142
-325.129	-200.000	-0.025	0.360
-324.114	-149.515	-0.315	-0.025
-323.099	-115.743	0.201	-0.037
-322.085	42.067	0.181	0.162
-321.070	800.000	0.086	0.246
-320.056	-196.812	0.234	-0.002
-319.041	-70.431	0.248	-0.093
-318.026	-200.000	0.037	-0.205
-317.012	-200.000	0.060	-0.290
-315.997	-71.589	-0.263	0.097
-314.983	800.000	-0.068	-0.227
-313.968	113.229	0.165	-0.198
-312.953	41.653	-0.110	0.099
-311.939	-95.041	-0.316	-0.084
-310.924	94.591	0.055	0.062
-309.910	-62.850	-0.110	0.045
-308.895	266.579	-0.071	-0.123
-307.880	-1.649	0.328	0.229
-306.866	273.831	0.076	0.134
-305.851	-200.000	0.004	0.296
-304.837	527.305	0.118	-0.275
-303.822	-54.352	0.189	-0.085
-302.807	49.147	0.170	-0.158
-301.793	800.000	0.075	0.315
-300.778	-200.000	0.026	-0.206
-299.764	309.620	0.151	-0.279
-298.749	-53.634	0.253	0.114
-297.735	-179.316	0.104	-0.002
-296.720	4.630	0.140	-0.102
-295.705	-89.384	-0.255	0.074
-294.691	-92.105	-0.244	-0.068
-293.676	523.887	-0.063	-0.146
-292.662	406.469	0.101	0.210
-291.647	-66.822	0.156	-0.061
-290.632	-2.513	0.127	-0.088
-289.618	296.385	0.190	0.344
-288.603	-105.248	-0.319	-0.072
-287.589	94.169	0.065	-0.072
-286.574	-9.378	0.065	-0.043
-285.559	-186.942	0.235	0.003
-284.545	454.090	0.092	-0.201
-283.530	-103.004	0.358	0.084
-282.516	103.257	-0.183	-0.212
-281.501	23.759	-0.176	-0.143
-280.486	171.730	0.127	-0.180
-279.472	141.845	-0.128	-0.167
-278.457	-200.000	-0.014	0.313
-277.443	-80.224	0.095	0.031
-276.428	36.046	-0.212	-0.184
-275.413	-23.613	0.267	-0.158
-274.399	-200.000	0.023	-0.415
-273.384	800.000	0.052	-0.185
-272.370	-200.000	0.008	0.273
-271.355	-96.458	0.175	-0.046
-270.340	205.380	-0.119	-0.183
-269.326	40.438	0.303	-0.270
-268.311	331.349	0.062	0.118
-267.297	-200.000	-0.005	-0.055
-266.282	-14.172	0.194	0.123
-265.267	-200.000	-0.011	0.054
-264.253	246.474	0.173	0.289
-263.238	-88.730	0.153	-0.045
-262.224	-200.000	0.055	-0.264
-261.209	800.000	-0.129	-0.405
-260.195	-200.000	-0.040	0.242
-259.180	79.829	-0.137	0.145
-258.165	90.181	0.296	0.327
-257.151	800.000	-0.055	0.191
-256.136	-100.076	-0.145	-0.036
-255.122	-200.000	-0.012	-0.131
-254.107	300.347	0.103	-0.187
-253.092	-121.090	0.118	-0.019
-252.078	800.000	-0.058	0.181
-251.063	-200.000	0.013	0.120
-250.049	-200.000	0.056	0.318
-249.034	81.914	-0.223	-0.238
-248.019	-200.000	0.053	-0.499
-247.005	-19.008	0.186	0.114
-245.990	79.690	-0.108	-0.115
-244.976	112.780	0.109	-0.130
-243.961	-83.924	-0.042	0.013
-242.946	-101.958	0.307	0.073
-241.932	147.081	0.265	0.352
-240.917	-200.000	-0.547	-0.002
-239.903	-88.786	0.109	-0.032
-238.888	-200.000	0.011	-0.224
-237.873	9.180	0.253	-0.189
-236.859	9.467	-0.198	-0.148
-235.844	58.319	-0.138	-0.134
-234.830	-32.747	0.219	0.120
-233.815	51.544	0.018	0.017
-232.800	-200.000	0.049	-0.249
-231.786	-47.891	0.279	0.133
-230.771	-66.670	0.376	0.147
-229.757	-200.000	0.007	0.079
-228.742	104.020	-0.154	-0.179
-227.727	449.955	-0.170	0.370
-226.713	800.000	0.037	0.125
-225.698	-200.000	0.009	-0.332
-224.684	46.524	-0.147	-0.135
-223.669	-136.882	0.242	0.027
-222.655	-200.000	0.014	0.127
-221.640	-157.243	-0.258	0.015
-220.625	428.830	0.118	-0.252
-219.611	28.316	-0.242	0.201
-218.596	-200.000	-0.027	0.155
-217.582	22.084	-0.187	0.151
-216.567	31.596	-0.073	-0.062
-215.552	800.000	0.033	-0.102
-214.538	650.656	-0.130	-0.328
-213.523	213.531	0.077	-0.119
-212.509	56.219	0.110	0.105
-211.494	186.824	0.136	-0.200
-210.479	276.407	-0.068	0.119
-209.465	800.000	-0.080	0.239
-208.450	213.443	-0.194	-0.301
-207.436	-25.460	0.224	0.130
-206.421	800.000	-0.099	0.347
-205.406	-118.829	0.372	-0.064
-204.392	479.288	-0.066	-0.148
-203.377	37.893	0.091	0.080
-202.363	800.000	-0.120	0.399
-201.348	800.000	0.156	0.556
-200.333	111.574	0.157	-0.186
-199.319	-200.000	-0.001	-0.149
-198.304	419.649	-0.084	-0.178
-197.290	106.031	0.131	-0.152
-196.275	56.856	0.070	-0.067
-195.260	-200.000	0.011	-0.313
-194.246	444.931	0.072	-0.156
-193.231	353.301	0.079	-0.154
-192.217	-56.539	0.418	0.182
-191.202	-200.000	-0.004	-0.441
-190.187	-200.000	-0.004	0.080
-189.173	336.742	0.121	-0.231
-188.158	-110.300	0.273	-0.056
-187.144	780.412	-0.070	0.189
-186.129	800.000	0.137	0.386
-185.114	-90.646	0.232	-0.066
-184.100	800.000	-0.079	-0.218
-183.085	-200.000	-0.024	-0.368
-182.071	721.673	0.083	-0.217
-181.056	206.413	-0.103	-0.158
-180.042	317.032	-0.080	-0.149
-179.027	484.744	0.038	0.085
-178.012	235.871	0.064	-0.104
-176.998	123.893	-0.363	0.448
-175.983	-96.427	-0.081	0.021
-174.969	23.894	-0.051	-0.041
-173.954	124.728	0.132	0.164
-172.939	-200.000	-0.112	0.485
-171.925	699.915	-0.049	0.127
-170.910	-3.582	-0.211	0.144
-169.896	207.187	0.206	-0.317
-168.881	630.843	0.006	0.015
-167.866	606.150	-0.163	0.401
-166.852	-66.368	0.297	-0.116
-165.837	-200.000	0.042	0.386
-164.823	-94.656	-0.203	0.054
-163.808	-73.384	0.200	-0.072
-162.793	800.000	0.044	0.185
-161.779	-200.000	0.000	-0.199
-160.764	-200.000	0.077	0.395
-159.750	-47.051	-0.179	-0.086
-158.735	-200.000	0.002	-0.042
-157.720	126.603	0.060	0.075
-156.706	-98.659	0.357	0.089
-155.691	-119.469	-0.097	0.017
-154.677	87.166	0.142	0.155
-153.662	206.619	-0.245	-0.376
-152.647	169.051	-0.104	0.146
-151.633	-136.371	-0.361	0.041
-150.618	14.484	0.539	-0.414
-149.604	87.601	0.162	0.176
-148.589	136.730	-0.132	0.170
-147.574	-60.857	0.347	0.144
-146.560	414.907	0.022	0.047
-145.545	-146.599	-0.060	0.005
-144.531	201.823	0.435	0.660
-143.516	62.702	0.190	-0.187
-142.502	-168.378	-0.099	-0.004
-141.487	-35.230	-0.176	0.094
-140.472	-152.373	0.031	0.002
-139.458	127.109	0.182	0.227
-138.443	-5.260	0.400	-0.270
-137.429	35.527	0.081	0.070
-136.414	783.217	0.079	0.214
-135.399	111.385	0.113	-0.133
-134.385	-200.000	0.058	0.408
-133.370	580.946	-0.014	-0.033
-132.356	-94.572	-0.026	-0.007
-131.341	-200.000	-0.006	-0.108
-130.326	333.454	0.119	-0.225
-129.312	-19.976	0.101	-0.062
-128.297	-85.709	0.437	0.133
-127.283	-200.000	0.011	-0.055
-126.268	-3.463	-0.359	-0.245
-125.253	-200.000	0.017	0.169
-124.239	-67.966	-0.277	-0.106
-123.224	-73.583	-0.099	0.035
-122.210	316.300	0.101	-0.188
-121.195	87.029	-0.174	-0.189
-120.180	29.411	-0.171	-0.143
-119.166	214.803	-0.031	0.048
-118.151	264.496	-0.127	-0.217
-117.137	-37.160	0.153	-0.080
-116.122	-52.402	-0.170	-0.077
-115.107	357.865	0.080	0.157
-114.093	-178.809	-0.337	0.008
-113.078	21.303	-0.088	0.070
-112.064	-92.142	-0.615	0.171
-111.049	5.761	-0.124	-0.090
-110.034	237.989	-0.247	-0.402
-109.020	-93.796	0.156	0.042
-108.005	-200.000	-0.035	-0.156
-106.991	18.977	0.283	-0.223
-105.976	-119.278	-0.108	-0.018
-104.962	283.027	0.074	-0.131
-103.947	800.000	0.056	-0.199
-102.932	-200.000	-0.018	0.178
-101.918	709.590	-0.039	-0.101
-100.903	-100.629	-0.175	-0.043
-99.889	-116.920	0.119	-0.021
-98.874	384.161	-0.042	-0.084
-97.859	-96.028	0.147	0.038
-96.845	-73.077	-0.142	0.051
-95.830	158.267	0.096	0.130
-94.816	161.942	0.159	-0.218
-93.801	-200.000	-0.021	-0.093
-92.786	350.492	-0.077	-0.149
-91.772	-118.210	0.369	0.064
-90.757	-148.549	0.130	-0.010
-89.743	447.224	0.020	0.043
-88.728	-101.597	0.215	-0.051
-87.713	800.000	-0.041	-0.153
-86.699	127.533	-0.095	-0.118
-85.684	800.000	0.060	0.189
-84.670	114.172	-0.244	-0.291
-83.655	468.445	0.046	0.101
-82.640	800.000	0.036	0.127
-81.626	-78.946	0.184	-0.062
-80.611	-200.000	-0.029	0.129
-79.597	800.000	0.034	0.096
-78.582	-18.972	-0.025	0.016
-77.567	98.099	-0.023	-0.025
-76.553	208.815	0.192	0.295
-75.538	800.000	0.013	0.051
-74.524	-169.851	0.151	0.005
-73.509	253.031	0.249	0.416
-72.494	52.831	-0.220	0.206
-71.480	-48.423	0.392	0.185
-70.465	-101.127	0.423	0.102
-69.451	-9.770	-0.195	0.127
-68.436	-108.815	0.263	0.055
-67.422	-81.478	-0.118	-0.038
-66.407	-80.993	0.261	0.085
-65.392	-200.000	-0.009	-0.118
-64.378	42.609	-0.130	0.116
-63.363	-200.000	-0.003	0.248
-62.349	-17.573	-0.210	-0.130
-61.334	132.499	-1.008	-1.273
-60.319	800.000	0.278	0.833
-59.305	800.000	-0.279	-1.002
-58.290	457.091	0.457	0.993
-57.276	695.306	0.689	1.772
-56.261	-200.000	111.792	642.533
-55.246	478.706	1498.229	3323.526
-54.232	148.674	2662.569	3524.088
-53.217	104.948	2149.568	2483.115
-52.203	38.989	1600.901	1401.361
-51.188	30.828	1348.465	1131.027
-50.173	28.009	1310.128	1082.165
-49.159	55.665	1365.375	1295.393
-48.144	54.505	1380.345	1302.564
-47.130	31.170	1336.394	1122.780
-46.115	27.789	1318.358	1087.477
-45.100	27.459	1313.873	1081.776
-44.086	27.416	1311.486	1079.513
-43.071	27.499	1308.790	1077.741
-42.057	27.437	1307.000	1075.857
-41.042	27.537	1305.401	1075.093
-40.027	27.524	1303.870	1073.711
-39.013	27.397	1302.026	1071.402
-37.998	27.541	1299.933	1070.484
-36.984	27.599	1298.138	1069.300
-35.969	27.595	1296.386	1067.794
-34.954	27.584	1294.992	1066.542
-33.940	27.693	1293.426	1065.843
-32.925	27.678	1292.340	1064.819
-31.911	27.704	1290.494	1063.409
-30.896	27.659	1289.354	1062.167
-29.881	27.789	1288.112	1061.854
-28.867	27.657	1287.112	1060.223
-27.852	27.786	1284.780	1059.006
-26.838	27.754	1283.859	1058.017
-25.823	27.769	1281.821	1056.386
-24.809	27.712	1281.385	1055.656
-23.794	27.698	1279.685	1054.133
-22.779	27.629	1278.370	1052.608
-21.765	27.664	1276.729	1051.415
-20.750	27.728	1275.737	1050.925
-19.736	27.617	1274.413	1049.154
-18.721	27.705	1273.041	1048.490
-17.706	27.627	1272.108	1047.234
-16.692	27.661	1271.121	1046.575
-15.677	27.511	1270.175	1044.892
-14.663	27.619	1268.753	1044.300
-13.648	27.550	1268.023	1043.260
-12.633	27.554	1266.902	1042.320
-11.619	27.584	1265.808	1041.553
-10.604	27.622	1264.878	1040.963
-9.590	27.551	1264.351	1040.080
-8.575	27.570	1262.830	1038.896
-7.560	27.574	1262.163	1038.329
-6.546	27.559	1261.232	1037.436
-5.531	27.546	1260.395	1036.632
-4.517	27.480	1259.964	1035.866
-3.502	27.584	1259.131	1035.727
-2.487	27.671	1257.828	1035.110
-1.473	27.582	1253.892	1031.323
-0.458	26.260	1239.013	1011.652
0.556	21.592	1222.564	976.168
1.571	18.143	1229.687	962.393
2.586	17.417	1244.679	969.901
3.600	17.336	1234.221	961.208
4.615	15.634	1166.749	899.478
5.629	12.103	1099.876	830.007
6.644	10.322	1082.955	808.285
7.659	10.165	1080.452	805.559
8.673	10.189	1079.680	805.035
9.688	10.194	1078.324	803.977
10.702	10.373	1075.772	802.892
11.717	12.393	1078.728	815.054
12.731	15.993	1082.538	835.749
13.746	17.693	1084.639	845.739
14.761	17.473	1084.364	844.359
15.775	16.661	1081.778	838.249
16.790	15.444	1079.648	830.505
17.804	14.751	1078.258	825.939
18.819	14.443	1076.632	823.100
19.834	14.111	1076.052	820.943
20.848	13.901	1075.193	819.180
21.863	13.769	1074.016	817.560
22.877	13.505	1073.386	815.711
23.892	13.475	1072.764	815.019
24.907	13.515	1072.063	814.607
25.921	13.549	1071.127	813.990
26.936	13.760	1069.183	813.480
27.950	13.565	1067.953	811.516
28.965	13.634	1066.596	810.751
29.980	13.770	1065.043	810.162
30.994	13.868	1063.782	809.611
32.009	13.913	1063.020	809.175
33.023	13.790	1061.874	807.633
34.038	13.636	1060.973	806.129
35.053	13.682	1059.890	805.457
36.067	13.627	1059.394	804.741
37.082	13.720	1058.041	804.095
38.096	13.735	1057.481	803.669
39.111	13.861	1056.454	803.431
40.126	13.662	1055.769	801.873
41.140	13.461	1053.986	799.481
42.155	13.351	1053.262	798.325
43.169	13.489	1051.873	797.870
44.184	13.412	1050.928	796.711
45.199	13.377	1049.982	795.754
46.213	13.547	1048.583	795.439
47.228	13.650	1047.689	795.185
48.242	13.659	1046.491	794.249
49.257	13.612	1045.880	793.489
50.271	13.710	1044.861	793.115
51.286	13.617	1044.251	792.137
52.301	13.637	1043.191	791.362
53.315	13.619	1042.176	790.434
54.330	13.572	1040.773	789.078
55.344	13.526	1040.051	788.240
56.359	13.584	1039.273	787.855
57.374	13.691	1037.986	787.318
58.388	13.546	1037.454	786.158
59.403	13.512	1036.761	785.401
60.417	13.544	1035.796	784.752
61.432	13.400	1035.608	783.862
62.447	13.359	1034.424	782.700
63.461	13.344	1033.574	781.917
64.476	13.288	1032.523	780.790
65.490	13.403	1031.853	780.757
66.505	13.416	1031.080	780.164
67.520	13.366	1030.797	779.644
68.534	13.418	1029.605	778.916
69.549	13.546	1028.818	778.856
70.563	13.430	1028.214	777.784
71.578	13.444	1027.174	776.993
72.593	13.361	1026.145	775.756
73.607	13.339	1025.823	775.343
74.622	13.365	1024.857	774.665
75.636	13.441	1024.076	774.363
76.651	13.428	1023.636	773.901
77.666	13.393	1022.829	773.060
78.680	13.313	1022.512	772.378
79.695	13.434	1021.537	772.134
80.709	13.542	1020.676	771.922
81.724	13.436	1020.721	771.390
82.739	13.596	1019.559	771.190
83.753	13.641	1019.241	771.090
84.768	13.759	1017.900	770.559
85.782	13.785	1017.124	770.023
86.797	13.695	1016.508	769.072
87.812	13.636	1015.285	767.802
88.826	13.650	1014.454	767.170
89.841	13.579	1013.704	766.206
90.855	13.699	1012.813	766.020
91.870	13.784	1011.943	765.687
92.884	13.700	1011.271	764.726
93.899	13.766	1010.167	764.127
94.914	13.794	1009.458	763.650
95.928	13.913	1008.452	763.367
96.943	13.690	1007.918	761.874
97.957	13.769	1006.829	761.347
98.972	13.725	1006.166	760.576
99.987	13.838	1005.066	760.192
101.001	13.682	1004.296	758.831
102.016	13.679	1003.633	758.246
103.030	13.740	1002.525	757.623
104.045	13.767	1001.974	757.264
105.060	13.718	1000.783	756.070
106.074	13.569	1000.066	754.782
107.089	13.497	999.281	753.797
108.103	13.436	998.297	752.709
109.118	13.617	996.931	752.434
110.133	13.467	996.474	751.345
111.147	13.520	995.390	750.700
112.162	13.490	994.968	750.178
113.176	13.522	993.814	749.389
114.191	13.650	992.888	749.204
115.206	13.690	992.016	748.658
116.220	13.598	991.362	747.685
117.235	13.664	990.394	747.184
118.249	13.572	989.578	746.088
119.264	13.512	988.769	745.145
120.279	13.603	988.090	744.975
121.293	13.463	987.591	743.905
122.308	13.434	986.761	743.083
123.322	13.560	985.576	742.688
124.337	13.477	984.347	741.324
125.352	13.600	983.320	741.037
126.366	13.580	982.151	739.999
127.381	13.513	981.447	739.105
128.395	13.650	980.057	738.604
129.410	13.676	979.228	738.029
130.424	13.729	978.108	737.354
131.439	13.611	977.833	736.559
132.454	13.692	977.324	736.469
133.468	13.701	976.155	735.566
134.483	13.789	974.987	735.008
135.497	13.772	974.504	734.503
136.512	13.647	973.637	733.233
137.527	13.675	972.717	732.599
138.541	13.706	972.202	732.282
139.556	13.714	971.367	731.623
140.570	13.904	970.502	731.745
141.585	13.852	970.074	731.128
142.600	13.932	968.841	730.488
143.614	13.929	968.044	729.807
144.629	13.997	967.353	729.523
145.643	13.842	966.467	728.109
146.658	13.864	965.354	727.303
147.673	13.729	964.753	726.195
148.687	13.753	963.650	725.407
149.702	13.699	962.900	724.542
150.716	13.735	961.971	723.933
151.731	13.714	961.543	723.456
152.746	13.776	960.377	722.787
153.760	13.836	959.660	722.443
154.775	13.757	959.730	722.089
155.789	13.812	958.723	721.506
156.804	13.880	957.858	721.085
157.819	13.834	957.194	720.323
158.833	13.879	956.630	720.030
159.848	14.046	955.591	719.906
160.862	13.984	954.830	719.000
161.877	13.839	953.561	717.358
162.892	13.902	953.237	717.322
163.906	13.890	951.900	716.199
164.921	13.863	951.224	715.513
165.935	13.801	950.482	714.625
166.950	13.887	949.251	714.003
167.964	13.885	948.276	713.198
168.979	13.899	948.024	713.007
169.994	14.023	946.655	712.447
171.008	14.056	945.958	711.998
172.023	14.057	945.408	711.528
173.037	14.092	944.606	711.011
174.052	14.027	943.932	710.163
175.067	14.035	943.170	709.558
176.081	13.926	942.798	708.751
177.096	13.958	942.204	708.380
178.110	13.970	941.506	707.843
179.125	14.080	940.822	707.736
180.140	14.018	940.651	707.278
181.154	14.045	939.636	706.568
182.169	14.082	939.882	706.848
183.183	14.194	938.647	706.331
184.198	14.227	938.055	705.966
185.213	14.185	937.457	705.271
186.227	14.263	936.536	704.850
187.242	14.362	935.970	704.780
188.256	14.276	935.363	703.897
189.271	14.302	934.630	703.391
190.286	14.151	934.036	702.245
191.300	14.007	933.303	701.025
192.315	14.124	932.334	700.729
193.329	14.000	932.162	700.014
194.344	14.001	931.318	699.320
195.359	14.085	930.729	699.172
196.373	14.228	929.970	699.139
197.388	14.218	930.269	699.261
198.402	14.377	929.367	699.190
199.417	14.512	928.762	699.235
200.432	14.496	928.347	698.795
201.446	14.435	927.991	698.212
202.461	14.509	926.947	697.674
203.475	14.528	926.506	697.361
204.490	14.381	925.602	696.005
205.504	14.378	924.766	695.300
206.519	14.289	924.250	694.479
207.534	14.455	923.118	694.260
208.548	14.447	922.825	693.945
209.563	14.591	921.837	693.738
210.577	14.479	921.594	693.028
211.592	14.572	920.935	692.859
212.607	14.592	920.024	692.196
213.621	14.623	918.739	691.295
214.636	14.604	918.828	691.220
215.650	14.584	917.664	690.201
216.665	14.797	916.718	690.308
217.680	14.684	916.457	689.587
218.694	14.651	915.772	688.871
219.709	14.698	915.079	688.483
220.723	14.661	914.942	688.169
221.738	14.613	914.099	687.276
222.753	14.757	913.275	687.185
223.767	14.733	912.949	686.784
224.782	14.836	912.407	686.736
225.796	14.755	911.797	685.885
226.811	14.819	911.064	685.534
227.826	14.900	909.647	684.739
228.840	14.798	909.417	684.090
229.855	14.752	908.415	683.088
230.869	14.744	907.697	682.453
231.884	14.781	907.223	682.187
232.899	14.673	906.181	680.903
233.913	14.601	905.748	680.226
234.928	14.714	904.804	679.914
235.942	14.690	904.429	679.474
236.957	14.732	903.916	679.201
237.972	14.729	903.307	678.672
238.986	14.755	902.703	678.263
240.001	14.740	902.121	677.706
241.015	14.832	901.383	677.463
242.030	14.777	901.072	676.947
243.045	14.881	899.970	676.479
244.059	14.824	899.975	676.192
245.074	14.885	899.064	675.695
246.088	14.927	898.397	675.304
247.103	14.972	897.293	674.596
248.117	15.138	897.280	675.194
249.132	15.148	896.684	674.729
250.147	15.281	895.842	674.569
251.161	15.213	895.369	673.881
252.176	15.317	894.236	673.386
253.190	15.358	893.603	673.012
254.205	15.244	893.170	672.171
255.220	15.297	892.508	671.827
256.234	15.499	891.390	671.731
257.249	15.323	891.382	670.965
258.263	15.296	890.676	670.262
259.278	15.377	889.949	669.981
260.293	15.371	889.370	669.462
261.307	15.525	888.745	669.545
262.322	15.459	887.906	668.594
263.336	15.433	887.299	667.974
264.351	15.493	886.773	667.755
265.366	15.621	886.082	667.687
266.380	15.569	885.406	666.912
267.395	15.499	884.743	666.077
268.409	15.538	883.700	665.384
269.424	15.574	882.648	664.677
270.439	15.514	882.525	664.287
271.453	15.371	882.170	663.395
272.468	15.378	881.446	662.820
273.482	15.440	880.863	662.567
274.497	15.613	879.929	662.490
275.512	15.582	879.684	662.123
276.526	15.616	879.179	661.819
277.541	15.428	878.745	660.692
278.555	15.751	878.230	661.519
279.570	15.765	877.353	660.854
280.585	15.714	876.629	660.051
281.599	15.693	875.831	659.309
282.614	15.756	874.880	658.783
283.628	15.651	874.639	658.133
284.643	15.675	873.909	657.617
285.657	15.715	873.268	657.235
286.672	15.717	873.228	657.152
287.687	15.713	871.889	656.070
288.701	15.951	871.232	656.448
289.716	15.809	870.906	655.589
290.730	15.818	870.395	655.183
291.745	15.897	869.361	654.653
292.760	15.760	869.305	654.021
293.774	15.882	868.679	653.966
294.789	15.752	868.051	652.931
295.803	15.851	866.816	652.328
296.818	15.816	866.420	651.836
297.833	15.904	866.054	651.842
298.847	15.837	865.236	650.912
299.862	15.874	864.601	650.517
300.876	15.989	863.836	650.330
301.891	15.939	863.519	649.841
302.906	16.101	863.167	650.143
303.920	16.034	862.530	649.348
304.935	16.058	862.424	649.303
305.949	16.203	861.177	648.862
306.964	16.073	860.934	648.125
307.979	16.071	860.672	647.861
308.993	16.117	859.778	647.309
310.008	16.268	858.898	647.164
311.022	16.151	858.528	646.380
312.037	16.100	858.044	645.767
313.052	15.957	857.576	644.810
314.066	15.970	856.875	644.272
315.081	16.126	856.093	644.225
316.095	16.102	855.605	643.709
317.110	16.019	855.322	643.125
318.125	16.088	854.574	642.767
319.139	16.150	853.967	642.489
320.154	16.140	853.633	642.143
321.168	16.059	853.638	641.781
322.183	16.082	852.917	641.271
323.197	16.196	852.118	641.045
324.212	16.340	851.167	640.821
325.227	16.221	850.868	640.085
326.241	16.188	850.278	639.462
327.256	16.132	849.680	638.743
328.270	16.219	849.113	638.588
329.285	16.184	848.630	638.036
330.300	16.147	847.830	637.238
331.314	16.244	847.510	637.311
332.329	16.359	846.941	637.258
333.343	16.351	846.594	636.912
334.358	16.301	846.373	636.499
335.373	16.300	845.774	635.991
336.387	16.354	845.681	636.066
337.402	16.496	845.241	636.213
338.416	16.314	845.008	635.297
339.431	16.537	844.500	635.698
340.446	16.522	844.218	635.372
341.460	16.546	843.853	635.132
342.475	16.625	843.360	635.002
343.489	16.718	842.689	634.787
344.504	16.655	842.718	634.516
345.519	16.739	841.840	634.116
346.533	16.645	841.148	633.186
347.548	16.663	840.620	632.800
348.562	16.693	840.231	632.562
349.577	16.664	839.257	631.667
350.592	16.494	838.978	630.764
351.606	16.749	838.259	631.119
352.621	16.660	837.576	630.218
353.635	16.691	836.843	629.724
354.650	16.586	836.856	629.290
355.665	16.605	835.953	628.627
356.679	16.852	835.126	628.866
357.694	16.769	834.738	628.209
358.708	16.793	833.955	627.652
359.723	16.766	833.350	627.042
360.738	16.790	832.677	626.570
361.752	16.775	831.924	625.891
362.767	16.849	831.771	625.993
363.781	16.901	831.235	625.726
364.796	17.077	830.682	625.905
365.810	17.022	830.531	625.534
366.825	16.910	829.843	624.545
367.840	17.051	829.511	624.762
368.854	16.963	828.649	623.732
369.869	17.103	828.371	623.985
370.883	16.952	828.013	623.102
371.898	17.015	828.096	623.344
372.913	17.112	827.508	623.200
373.927	17.033	826.984	622.462
374.942	17.061	826.124	621.860
375.956	17.254	825.853	622.309
376.971	17.235	825.347	621.803
377.986	17.204	824.469	620.973
379.000	17.267	824.251	620.986
380.015	17.274	823.991	620.760
381.029	17.382	823.134	620.451
382.044	17.352	822.834	620.060
383.059	17.301	822.305	619.421
384.073	17.385	821.579	619.125
385.088	17.142	821.261	617.948
386.102	17.303	820.545	617.939
387.117	17.228	819.795	617.048
388.132	17.162	819.549	616.568
389.146	17.483	818.746	617.073
390.161	17.391	818.642	616.607
391.175	17.347	818.034	615.935
392.190	17.341	817.161	615.203
393.205	17.252	817.182	614.841
394.219	17.298	816.945	614.776
395.234	17.318	816.037	614.108
396.248	17.204	815.911	613.550
397.263	17.262	815.145	613.129
398.278	17.262	814.894	612.887
399.292	17.301	814.292	612.518
400.307	17.367	813.808	612.336
401.321	17.249	813.551	611.665
402.336	17.371	812.955	611.603
403.350	17.456	812.461	611.482
404.365	17.600	812.015	611.609
405.380	17.533	811.287	610.766
406.394	17.523	810.831	610.331
407.409	17.530	810.895	610.353
408.423	17.727	810.476	610.689
409.438	17.706	809.772	610.027
410.453	17.671	809.563	609.694
411.467	17.878	808.921	609.893
412.482	17.698	808.684	609.018
413.496	17.865	808.340	609.300
414.511	17.667	808.111	608.370
415.526	17.875	807.485	608.586
416.540	17.662	807.065	607.455
417.555	17.899	806.476	607.802
418.569	17.887	806.343	607.605
419.584	17.729	805.966	606.706
420.599	17.959	805.077	606.798
421.613	111.258	1295.177	1476.300
422.628	95.964	1366.556	1476.403
