DTS Sentinel unit serial number:	SN413079Multiplexer serial number:	ORYXHardware model number:	OX4-SRSoftware version number:	ORYX F/W v4.00 Oryx Data Collector v3.7.2.0data status	okinstallation	princeton_trtdifferential loss correction	single-endedforward channel	channel 1reverse channel	N/Adate	2019/09/14time	03:34:35forward acquisition time	60.00reverse acquisition time	0.00gamma	496.2192k internal	0.2335k external	0.2335temperature offset calibration	1.0078default loss term (dB/km)	0.3790temperature slope calibration	1.0000multiplexer offset coefficient	1.0000multiplexer slope coefficient	1.0000fibre end	0.00T internal ref (°C)	26.62T ext. ref 1 (°C)	3.27T ext. ref 2 (°C)	21.57length (m)	temperature (°C)	Stokes	anti-Stokes-747.200	-83.538	-0.058	-0.019
-746.185	160.933	-0.065	-0.092
-745.171	-25.400	-0.091	-0.054
-744.156	-77.873	-0.361	0.125
-743.142	776.531	0.044	-0.121
-742.127	-160.164	-0.104	0.006
-741.112	320.080	0.099	0.188
-740.098	-200.000	-0.122	0.572
-739.083	54.062	0.146	0.142
-738.069	-200.000	-0.006	-0.052
-737.054	-94.468	0.422	-0.116
-736.039	-32.703	-0.201	0.112
-735.025	800.000	0.082	0.259
-734.010	154.280	-0.075	0.103
-732.996	-200.000	0.057	-0.385
-731.981	-117.883	-0.344	-0.062
-730.966	-200.000	0.008	-0.090
-729.952	800.000	0.049	-0.214
-728.937	-9.196	0.226	0.152
-727.923	800.000	-0.086	0.323
-726.908	495.975	-0.068	0.158
-725.894	800.000	-0.066	-0.228
-724.879	-200.000	-0.010	-0.383
-723.864	125.210	-0.062	0.078
-722.850	158.612	-0.120	0.167
-721.835	-200.000	-0.018	0.112
-720.821	-200.000	0.001	-0.071
-719.806	-107.261	-0.251	-0.056
-718.791	223.931	-0.129	-0.209
-717.777	76.303	-0.185	-0.197
-716.762	-124.748	-0.228	-0.035
-715.748	5.482	-0.318	0.236
-714.733	-98.983	-0.249	0.063
-713.718	-86.029	-0.299	0.093
-712.704	800.000	-0.033	-0.132
-711.689	-28.843	0.078	0.045
-710.675	-41.884	-0.128	-0.066
-709.660	-8.454	-0.071	-0.048
-708.645	800.000	0.061	-0.186
-707.631	-82.057	-0.041	-0.013
-706.616	-79.116	0.113	0.039
-705.602	-100.231	0.172	0.043
-704.587	-37.050	0.122	-0.066
-703.572	-59.908	-0.125	-0.054
-702.558	-50.906	0.417	0.196
-701.543	162.860	0.098	-0.138
-700.529	161.287	-0.155	0.217
-699.514	-130.431	-0.035	0.005
-698.499	800.000	0.068	0.289
-697.485	-61.632	-0.387	-0.163
-696.470	-59.029	0.246	-0.107
-695.456	0.307	-0.164	0.117
-694.441	21.226	0.268	-0.218
-693.426	-200.000	-0.007	-0.067
-692.412	-200.000	-0.007	0.079
-691.397	101.921	-0.333	-0.390
-690.383	-134.708	0.265	0.032
-689.368	177.188	-0.092	0.134
-688.354	800.000	-0.072	-0.259
-687.339	-200.000	-0.007	-0.317
-686.324	205.506	-0.094	-0.146
-685.310	44.217	0.335	-0.308
-684.295	-76.189	-0.142	-0.050
-683.281	427.218	0.072	-0.156
-682.266	-35.166	0.174	0.095
-681.251	758.856	0.072	-0.197
-680.237	-134.954	-0.236	0.029
-679.222	97.797	-0.184	-0.212
-678.208	106.879	-0.173	0.206
-677.193	-112.369	-0.105	0.021
-676.178	-61.023	-0.235	-0.099
-675.164	107.556	0.265	-0.315
-674.149	32.491	0.187	-0.162
-673.135	28.286	-0.249	0.211
-672.120	171.176	0.186	0.268
-671.105	4.326	-0.241	0.177
-670.091	603.205	-0.109	-0.271
-669.076	222.813	-0.212	0.342
-668.062	-200.000	-0.010	0.105
-667.047	512.745	0.015	0.036
-666.032	-200.000	-0.029	-0.294
-665.018	17.278	0.151	-0.120
-664.003	265.051	-0.162	0.283
-662.989	-11.279	-0.214	-0.141
-661.974	39.820	0.046	0.042
-660.959	291.120	0.079	0.145
-659.945	-102.660	-0.123	-0.029
-658.930	99.758	0.138	-0.160
-657.916	-200.000	0.001	0.072
-656.901	-39.279	0.143	-0.075
-655.886	2.255	-0.063	-0.046
-654.872	184.293	-0.129	-0.191
-653.857	-57.050	0.249	0.110
-652.843	-119.673	0.050	-0.009
-651.828	-190.965	-0.189	-0.002
-650.814	46.665	-0.178	-0.165
-649.799	-1.615	0.157	-0.111
-648.784	3.979	-0.224	-0.164
-647.770	800.000	-0.049	0.179
-646.755	57.506	-0.197	-0.193
-645.741	526.269	0.135	-0.318
-644.726	138.843	0.120	-0.157
-643.711	-147.125	0.266	-0.023
-642.697	-118.509	0.022	0.004
-641.682	23.451	-0.202	0.166
-640.668	698.499	0.037	-0.098
-639.653	42.268	0.158	0.144
-638.638	-192.360	-0.170	-0.002
-637.624	251.753	-0.022	-0.038
-636.609	27.453	0.260	-0.219
-635.595	-28.635	0.178	0.102
-634.580	72.745	-0.160	-0.167
-633.565	70.476	-0.029	0.030
-632.551	-130.123	0.218	0.030
-631.536	-48.711	-0.082	0.039
-630.522	-7.999	0.161	-0.108
-629.507	-108.035	-0.111	0.024
-628.492	47.823	-0.009	0.008
-627.478	-9.124	0.055	-0.037
-626.463	12.624	-0.219	0.169
-625.449	800.000	0.010	-0.035
-624.434	38.489	-0.012	0.011
-623.419	129.843	0.129	0.165
-622.405	69.353	-0.177	-0.183
-621.390	-34.971	-0.040	0.022
-620.376	52.575	0.106	-0.101
-619.361	-63.589	0.081	-0.033
-618.346	800.000	0.150	0.444
-617.332	20.288	-0.337	-0.272
-616.317	-43.070	-0.276	-0.140
-615.303	-200.000	-0.007	-0.155
-614.288	-103.947	0.411	0.096
-613.273	-200.000	0.028	-0.138
-612.259	-107.445	0.198	-0.043
-611.244	-59.313	-0.008	-0.003
-610.230	-128.171	-0.263	0.038
-609.215	-172.161	-0.151	0.005
-608.201	393.693	0.034	0.070
-607.186	36.379	0.160	0.141
-606.171	-32.350	0.166	-0.092
-605.157	-200.000	-0.002	0.201
-604.142	-155.564	-0.206	0.013
-603.128	-62.329	-0.365	-0.152
-602.113	193.663	-0.073	0.110
-601.098	220.020	0.108	0.172
-600.084	-111.319	0.120	-0.024
-599.069	-69.042	-0.184	0.071
-598.055	-200.000	-0.030	-0.163
-597.040	78.991	-0.291	-0.311
-596.025	-200.000	0.055	-0.363
-595.011	120.859	-0.121	-0.150
-593.996	19.924	-0.091	0.074
-592.982	-106.969	0.226	0.050
-591.967	800.000	-0.044	0.191
-590.952	-22.112	0.210	-0.127
-589.938	-200.000	0.074	-0.429
-588.923	-73.011	-0.579	0.212
-587.909	-199.277	0.118	0.001
-586.894	800.000	0.048	-0.207
-585.879	-169.309	0.096	-0.004
-584.865	-87.225	0.249	-0.076
-583.850	-129.270	0.258	-0.036
-582.836	-200.000	0.052	-0.291
-581.821	-84.378	-0.086	-0.027
-580.806	-200.000	-0.049	-0.290
-579.792	183.773	0.087	0.128
-578.777	800.000	-0.038	-0.136
-577.763	3.018	0.056	0.040
-576.748	-51.194	0.123	0.058
-575.733	-200.000	-0.044	0.410
-574.719	403.302	0.056	-0.119
-573.704	-187.228	-0.166	0.002
-572.690	-200.000	-0.005	-0.062
-571.675	728.805	-0.096	0.257
-570.661	-36.965	-0.007	0.004
-569.646	75.644	-0.151	0.159
-568.631	204.196	-0.119	-0.184
-567.617	-200.000	-0.010	-0.315
-566.602	156.939	0.218	0.300
-565.588	-28.381	-0.250	0.144
-564.573	161.084	0.107	-0.149
-563.558	44.694	-0.061	0.056
-562.544	71.094	-0.197	-0.204
-561.529	-65.895	0.303	-0.121
-560.515	157.894	0.156	0.216
-559.500	800.000	0.012	-0.048
-558.485	206.675	0.156	0.242
-557.471	38.088	-0.153	-0.136
-556.456	-200.000	0.024	-0.396
-555.442	400.071	0.077	0.161
-554.427	-14.448	-0.169	0.109
-553.412	-20.523	0.414	-0.254
-552.398	338.819	-0.054	0.105
-551.383	148.048	0.124	-0.167
-550.369	800.000	-0.106	0.440
-549.354	-139.833	-0.057	-0.006
-548.339	800.000	-0.162	-0.662
-547.325	-28.394	-0.205	-0.118
-546.310	-60.290	0.072	0.030
-545.296	305.454	0.052	-0.095
-544.281	65.394	0.164	0.165
-543.266	-200.000	0.002	-0.229
-542.252	800.000	0.019	-0.083
-541.237	300.251	-0.057	-0.105
-540.223	195.056	-0.192	0.290
-539.208	-64.634	-0.150	-0.061
-538.193	37.137	-0.176	0.155
-537.179	-91.194	-0.213	0.061
-536.164	-200.000	0.038	-0.201
-535.150	-200.000	0.042	0.244
-534.135	250.354	0.107	0.181
-533.121	-53.953	-0.272	-0.123
-532.106	-102.764	0.187	-0.044
-531.091	-41.248	-0.062	-0.032
-530.077	97.381	-0.081	0.093
-529.062	-112.299	-0.181	-0.036
-528.048	44.997	0.110	-0.101
-527.033	21.868	0.113	0.092
-526.018	800.000	0.046	-0.158
-525.004	-200.000	-0.011	0.320
-523.989	-143.417	0.154	0.015
-522.975	-73.656	-0.053	0.019
-521.960	-105.030	0.129	0.030
-520.945	-67.575	0.237	-0.093
-519.931	-162.761	0.240	0.012
-518.916	-70.037	-0.160	0.061
-517.902	76.646	-0.200	0.211
-516.887	800.000	-0.037	-0.126
-515.872	207.166	0.093	0.144
-514.858	-40.223	-0.240	0.125
-513.843	800.000	0.095	-0.299
-512.829	800.000	-0.108	0.330
-511.814	-76.248	-0.208	0.073
-510.799	160.216	-0.204	0.283
-509.785	-37.779	0.053	0.028
-508.770	-26.494	-0.277	0.162
-507.756	-200.000	-0.013	0.145
-506.741	800.000	0.093	-0.311
-505.726	5.907	-0.140	-0.103
-504.712	723.827	0.038	-0.102
-503.697	-18.927	-0.295	0.183
-502.683	800.000	0.007	0.030
-501.668	-166.914	-0.443	0.018
-500.653	-142.210	-0.199	-0.020
-499.639	-200.000	0.009	0.136
-498.624	224.831	-0.016	0.025
-497.610	800.000	0.041	0.132
-496.595	149.995	0.198	0.267
-495.581	-100.191	-0.236	0.058
-494.566	-200.000	0.020	0.112
-493.551	668.381	-0.177	-0.457
-492.537	-29.473	-0.311	-0.177
-491.522	-200.000	-0.014	0.253
-490.508	-200.000	-0.068	0.438
-489.493	161.551	0.076	0.105
-488.478	124.986	0.074	-0.093
-487.464	-200.000	0.011	-0.105
-486.449	30.451	-0.147	0.125
-485.435	289.757	0.140	-0.253
-484.420	-90.021	-0.108	0.031
-483.405	-200.000	0.010	0.149
-482.391	-83.917	0.266	0.084
-481.376	18.575	0.158	0.125
-480.362	-66.982	-0.338	-0.133
-479.347	794.876	0.065	-0.179
-478.332	20.494	0.229	-0.184
-477.318	-40.579	0.161	-0.083
-476.303	-119.946	0.145	0.025
-475.289	-128.345	-0.237	-0.034
-474.274	-130.593	-0.128	0.017
-473.259	-200.000	0.017	-0.131
-472.245	800.000	0.085	-0.277
-471.230	194.321	0.119	0.180
-470.216	-47.910	0.085	0.041
-469.201	-9.614	-0.293	0.194
-468.186	114.785	-0.135	0.163
-467.172	-44.247	0.292	-0.146
-466.157	-9.882	0.318	-0.211
-465.143	-200.000	-0.041	0.224
-464.128	506.363	-0.042	0.098
-463.113	-200.000	0.060	0.279
-462.099	800.000	-0.012	-0.041
-461.084	-59.687	0.125	0.053
-460.070	-92.239	-0.168	-0.047
-459.055	-200.000	0.019	0.149
-458.040	-134.519	0.168	0.020
-457.026	290.793	0.078	-0.141
-456.011	-119.511	0.071	-0.012
-454.997	222.354	-0.153	0.245
-453.982	-60.054	0.363	0.154
-452.968	114.322	-0.152	0.183
-451.953	-132.773	-0.458	0.058
-450.938	-30.733	0.362	0.203
-449.924	305.026	-0.151	-0.278
-448.909	-96.397	-0.241	-0.063
-447.895	800.000	-0.111	-0.333
-446.880	-200.000	0.012	-0.096
-445.865	800.000	-0.137	0.451
-444.851	46.596	0.202	0.186
-443.836	450.718	0.138	0.302
-442.822	37.441	0.026	-0.023
-441.807	-200.000	-0.036	0.334
-440.792	18.790	0.239	0.190
-439.778	-121.238	0.172	-0.028
-438.763	-173.558	0.415	-0.012
-437.749	-200.000	0.058	-0.253
-436.734	-147.766	-0.478	-0.040
-435.719	-54.377	0.147	0.066
-434.705	-14.010	-0.233	-0.149
-433.690	-200.000	0.021	0.168
-432.676	85.019	0.209	-0.227
-431.661	-31.236	-0.093	-0.052
-430.646	-200.000	0.012	0.157
-429.632	322.383	-0.078	0.148
-428.617	-120.177	0.114	-0.019
-427.603	16.841	-0.176	0.138
-426.588	-200.000	0.000	-0.127
-425.573	-200.000	0.007	-0.096
-424.559	-200.000	-0.044	-0.223
-423.544	-65.630	-0.288	-0.114
-422.530	-200.000	0.007	-0.061
-421.515	-139.105	-0.155	-0.017
-420.500	-12.249	-0.036	-0.023
-419.486	-200.000	0.022	-0.340
-418.471	-56.775	0.039	-0.017
-417.457	-146.673	0.187	0.016
-416.442	-165.756	0.084	-0.004
-415.428	400.759	0.135	-0.281
-414.413	800.000	-0.020	0.069
-413.398	-174.691	0.165	0.005
-412.384	222.097	-0.234	0.374
-411.369	69.176	-0.043	-0.043
-410.355	-91.393	-0.295	-0.084
-409.340	-200.000	-0.164	0.001
-408.325	85.316	-0.133	-0.145
-407.311	26.499	0.062	-0.051
-406.296	-123.882	0.179	-0.028
-405.282	317.129	0.095	-0.177
-404.267	-193.683	0.146	-0.001
-403.252	525.689	-0.035	-0.083
-402.238	-200.000	0.052	0.374
-401.223	-200.000	-0.007	-0.041
-400.209	48.349	-0.094	-0.087
-399.194	-104.876	-0.436	-0.099
-398.179	-89.699	-0.189	-0.055
-397.165	109.978	-0.055	0.065
-396.150	-97.863	-0.161	-0.041
-395.136	466.998	-0.055	-0.123
-394.121	74.837	0.057	0.059
-393.106	800.000	0.054	-0.210
-392.092	800.000	-0.027	0.084
-391.077	-178.062	0.125	-0.003
-390.063	-200.000	0.016	0.085
-389.048	-104.723	-0.175	0.040
-388.033	-91.461	-0.266	0.075
-387.019	-152.255	0.486	0.035
-386.004	-163.227	-0.052	0.002
-384.990	-167.186	0.325	-0.013
-383.975	-200.000	-0.077	-0.377
-382.960	-200.000	-0.106	-0.460
-381.946	509.700	0.123	0.284
-380.931	-113.587	0.093	-0.018
-379.917	-124.669	0.113	0.017
-378.902	235.692	0.142	0.233
-377.888	-149.740	-0.396	0.031
-376.873	-94.610	-0.182	-0.049
-375.858	-94.938	-0.219	-0.059
-374.844	120.286	0.319	-0.392
-373.829	68.464	0.060	-0.061
-372.815	800.000	-0.110	0.314
-371.800	250.511	-0.089	0.149
-370.785	800.000	0.046	-0.131
-369.771	55.379	0.111	0.107
-368.756	800.000	-0.030	0.089
-367.742	-57.639	0.456	0.198
-366.727	38.223	0.281	-0.247
-365.712	-144.387	-0.378	-0.035
-364.698	-113.370	-0.476	-0.093
-363.683	-36.070	0.301	-0.161
-362.669	169.637	0.183	-0.259
-361.654	15.529	0.095	0.074
-360.639	-200.000	-0.012	0.110
-359.625	800.000	-0.016	0.062
-358.610	-200.000	-0.019	0.183
-357.596	800.000	-0.036	-0.115
-356.581	-200.000	-0.030	-0.142
-355.566	13.838	0.281	0.216
-354.552	-128.237	-0.295	-0.042
-353.537	369.944	0.187	0.375
-352.523	89.587	-0.026	0.029
-351.508	87.578	-0.111	-0.122
-350.493	119.015	0.090	-0.111
-349.479	-9.596	-0.027	-0.018
-348.464	-87.831	-0.266	0.079
-347.450	-200.000	0.010	-0.088
-346.435	-200.000	0.011	0.105
-345.420	-135.917	-0.397	0.046
-344.406	-181.168	0.399	-0.008
-343.391	-83.205	-0.382	0.121
-342.377	-56.929	-0.383	0.167
-341.362	-200.000	-0.026	-0.224
-340.348	80.003	-0.197	-0.209
-339.333	800.000	-0.069	-0.230
-338.318	67.195	0.087	-0.088
-337.304	704.459	0.075	0.195
-336.289	68.009	-0.152	0.154
-335.275	68.611	0.281	-0.285
-334.260	54.822	0.168	0.160
-333.245	800.000	0.025	0.098
-332.231	25.133	-0.137	0.112
-331.216	-33.470	-0.084	0.046
-330.202	-200.000	-0.042	-0.280
-329.187	26.315	0.105	-0.087
-328.172	-24.706	0.165	-0.097
-327.158	-86.889	0.127	-0.038
-326.143	800.000	-0.059	0.208
-325.129	181.711	0.077	-0.112
-324.114	-200.000	-0.040	0.191
-323.099	-34.045	0.181	0.098
-322.085	800.000	0.064	0.261
-321.070	-105.458	0.324	-0.073
-320.056	-200.000	-0.006	-0.423
-319.041	-200.000	0.008	-0.116
-318.026	-167.926	0.292	0.011
-317.012	-200.000	0.004	0.203
-315.997	-111.411	0.370	0.074
-314.983	24.173	0.112	0.092
-313.968	27.809	0.087	0.073
-312.953	572.067	-0.049	0.117
-311.939	-200.000	-0.001	-0.066
-310.924	-200.000	-0.000	-0.045
-309.910	-163.481	0.392	-0.018
-308.895	-23.710	0.168	0.099
-307.880	800.000	0.084	-0.252
-306.866	-164.869	-0.226	-0.010
-305.851	-118.499	0.150	-0.026
-304.837	120.870	0.194	-0.238
-303.822	-200.000	0.024	-0.595
-302.807	-33.699	-0.134	0.073
-301.793	384.215	-0.037	-0.076
-300.778	-4.124	0.255	0.174
-299.764	299.512	0.062	-0.113
-298.749	-164.047	-0.138	0.006
-297.735	64.516	-0.120	0.120
-296.720	-93.433	-0.204	-0.056
-295.705	-183.924	0.320	-0.005
-294.691	-200.000	-0.022	-0.166
-293.676	76.931	-0.253	0.265
-292.662	-66.730	-0.239	0.093
-291.647	-83.154	0.158	-0.050
-290.632	-97.986	-0.201	-0.051
-289.618	-200.000	0.034	0.315
-288.603	-91.681	0.097	0.027
-287.589	800.000	-0.109	0.330
-286.574	-58.019	0.478	0.206
-285.559	223.910	-0.100	-0.160
-284.545	-97.487	-0.276	-0.071
-283.530	69.604	0.125	-0.127
-282.516	-200.000	0.009	-0.354
-281.501	-33.191	0.117	0.064
-280.486	-69.996	0.046	-0.017
-279.472	417.722	0.179	0.378
-278.457	-184.678	-0.166	0.003
-277.443	-200.000	0.078	0.642
-276.428	-133.608	-0.157	-0.019
-275.413	-6.801	0.163	0.109
-274.399	498.988	0.048	0.108
-273.384	800.000	0.055	0.195
-272.370	-14.826	0.108	0.068
-271.355	183.087	-0.088	-0.129
-270.340	-200.000	-0.018	0.161
-269.326	-46.158	-0.198	-0.096
-268.311	255.389	-0.135	-0.228
-267.297	460.626	-0.198	-0.436
-266.282	800.000	-0.057	0.194
-265.267	-82.611	0.173	0.055
-264.253	34.683	0.082	-0.070
-263.238	184.643	0.236	0.344
-262.224	122.504	-0.189	-0.233
-261.209	562.073	-0.076	0.180
-260.195	-200.000	0.004	0.034
-259.180	-77.266	-0.329	-0.113
-258.165	142.122	-0.061	0.079
-257.151	55.943	0.278	0.265
-256.136	13.705	0.106	0.081
-255.122	-200.000	-0.018	0.112
-254.107	125.601	-0.148	0.184
-253.092	-74.419	-0.115	0.041
-252.078	-42.619	0.093	0.047
-251.063	697.539	0.089	-0.231
-250.049	-108.072	0.089	0.019
-249.034	-200.000	-0.021	0.246
-248.019	197.494	0.083	0.125
-247.005	357.945	0.209	0.411
-245.990	104.963	0.105	0.122
-244.976	520.167	0.105	-0.243
-243.961	-42.883	0.095	-0.048
-242.946	-200.000	-0.009	-0.057
-241.932	187.307	0.104	-0.153
-240.917	168.480	-0.168	0.236
-239.903	-58.677	-0.031	-0.013
-238.888	216.796	-0.135	-0.212
-237.873	3.220	-0.095	-0.068
-236.859	399.459	-0.058	0.120
-235.844	317.599	-0.072	-0.134
-234.830	-181.064	-0.586	-0.012
-233.815	138.991	0.029	-0.037
-232.800	208.987	0.103	-0.158
-231.786	-75.697	0.191	0.067
-230.771	86.374	-0.185	0.200
-229.757	95.820	-0.040	0.045
-228.742	171.934	0.126	0.178
-227.727	-200.000	-0.023	0.465
-226.713	-131.567	-0.117	-0.015
-225.698	-200.000	-0.024	-0.438
-224.684	-200.000	-0.014	-0.071
-223.669	202.509	-0.056	-0.085
-222.655	-44.727	-0.479	0.235
-221.640	-200.000	0.001	-0.074
-220.625	-69.561	-0.222	0.084
-219.611	225.017	-0.153	-0.244
-218.596	-200.000	-0.025	-0.227
-217.582	-21.443	0.356	-0.214
-216.567	343.625	-0.030	-0.058
-215.552	-200.000	-0.019	0.140
-214.538	800.000	-0.059	-0.164
-213.523	-164.749	0.138	-0.006
-212.509	331.293	0.111	0.210
-211.494	142.521	0.143	0.186
-210.479	85.912	0.276	0.299
-209.465	-200.000	0.038	0.000
-208.450	207.154	-0.133	-0.203
-207.436	-200.000	-0.005	0.146
-206.421	-141.775	-0.203	-0.020
-205.406	-200.000	-0.040	0.270
-204.392	-112.307	0.132	0.026
-203.377	-74.870	0.065	-0.023
-202.363	800.000	0.119	-0.377
-201.348	203.937	0.342	-0.522
-200.333	-200.000	0.028	-0.443
-199.319	370.638	-0.133	-0.265
-198.304	-100.194	0.227	0.055
-197.290	109.431	-0.184	0.217
-196.275	-97.838	0.142	0.036
-195.260	-200.000	0.055	0.290
-194.246	-122.684	-0.085	-0.013
-193.231	87.268	0.122	0.132
-192.217	-200.000	0.035	0.000
-191.202	-57.414	0.356	-0.154
-190.187	18.254	-0.288	-0.226
-189.173	-31.117	0.134	-0.074
-188.158	-67.311	0.255	0.099
-187.144	-200.000	0.019	0.083
-186.129	-74.144	0.243	0.086
-185.114	487.155	-0.064	-0.144
-184.100	-61.627	-0.293	-0.121
-183.085	-200.000	0.025	-0.395
-182.071	-66.353	0.351	-0.137
-181.056	-121.568	0.132	0.021
-180.042	142.081	-0.166	-0.217
-179.027	-19.590	-0.262	-0.159
-178.012	-12.936	0.180	0.115
-176.998	142.966	0.129	0.169
-175.983	150.315	0.141	-0.188
-174.969	23.984	-0.221	-0.179
-173.954	-200.000	-0.087	0.394
-172.939	-200.000	0.012	0.071
-171.925	17.657	0.415	0.324
-170.910	-200.000	-0.003	-0.334
-169.896	-200.000	-0.042	0.227
-168.881	-99.624	0.316	-0.078
-167.866	-3.504	0.262	0.179
-166.852	80.948	-0.353	-0.374
-165.837	365.330	-0.167	0.329
-164.823	-200.000	0.010	0.473
-163.808	-142.157	0.161	-0.016
-162.793	91.434	-0.090	-0.099
-161.779	-49.101	-0.132	-0.062
-160.764	-18.500	-0.113	-0.070
-159.750	-0.959	0.064	0.045
-158.735	585.300	-0.096	0.231
-157.720	65.287	-0.200	-0.198
-156.706	181.416	-0.100	0.145
-155.691	-42.346	0.095	0.048
-154.677	-56.512	-0.144	-0.063
-153.662	-2.877	0.120	0.082
-152.647	-55.541	0.106	0.047
-151.633	-50.483	0.007	-0.003
-150.618	87.402	-0.132	0.144
-149.604	-33.672	-0.118	0.064
-148.589	-12.769	0.382	-0.244
-147.574	-8.730	-0.296	-0.195
-146.560	-109.827	0.232	-0.048
-145.545	-200.000	0.021	-0.277
-144.531	-200.000	0.010	-0.106
-143.516	-125.117	0.178	0.027
-142.502	-165.495	0.221	0.009
-141.487	-138.205	0.183	0.020
-140.472	65.416	-0.278	0.276
-139.458	76.169	-0.092	0.096
-138.443	-111.638	0.255	-0.051
-137.429	-36.273	-0.144	-0.076
-136.414	-89.094	-0.345	0.100
-135.399	540.584	0.135	-0.316
-134.385	21.914	0.283	-0.227
-133.370	-200.000	0.009	-0.233
-132.356	208.598	0.033	-0.050
-131.341	438.946	0.076	-0.162
-130.326	-200.000	0.013	-0.146
-129.312	30.689	-0.096	0.081
-128.297	-41.035	0.192	-0.097
-127.283	-116.529	0.334	0.060
-126.268	-200.000	-0.001	-0.099
-125.253	800.000	0.099	-0.364
-124.239	-89.638	-0.116	-0.033
-123.224	-82.040	0.286	-0.092
-122.210	800.000	0.192	0.639
-121.195	-20.297	0.346	-0.209
-120.180	264.192	-0.154	-0.264
-119.166	63.897	-0.199	-0.196
-118.151	448.014	-0.059	-0.128
-117.137	240.950	0.085	-0.139
-116.122	-126.952	-0.273	-0.039
-115.107	218.175	-0.005	-0.008
-114.093	-200.000	0.040	-0.376
-113.078	-79.179	0.020	0.007
-112.064	-42.174	0.214	0.107
-111.049	-47.178	0.289	-0.138
-110.034	-66.777	0.247	0.096
-109.020	-151.211	-0.189	0.014
-108.005	-142.683	0.118	-0.011
-106.991	800.000	-0.019	-0.072
-105.976	-29.013	-0.065	-0.037
-104.962	707.976	0.069	0.178
-103.947	-105.230	0.382	-0.085
-102.932	97.142	0.207	0.233
-101.918	-200.000	-0.009	0.066
-100.903	-118.973	0.267	0.046
-99.889	36.589	-0.170	0.147
-98.874	-200.000	-0.008	0.241
-97.859	111.630	0.043	-0.051
-96.845	82.426	-0.049	-0.052
-95.830	-65.524	0.377	0.148
-94.816	54.854	0.138	0.131
-93.801	266.104	0.082	-0.141
-92.786	-85.276	0.240	0.074
-91.772	-82.070	0.139	-0.044
-90.757	276.670	-0.124	0.215
-89.743	-38.148	-0.182	-0.095
-88.728	-134.025	-0.243	0.029
-87.713	-200.000	-0.003	0.325
-86.699	450.160	0.159	0.344
-85.684	36.087	0.175	0.151
-84.670	302.775	0.082	0.149
-83.655	209.936	-0.229	0.351
-82.640	-90.274	-0.391	0.111
-81.626	140.112	0.077	0.099
-80.611	-200.000	-0.011	0.120
-79.597	290.212	0.149	0.266
-78.582	800.000	-0.030	-0.115
-77.567	260.569	-0.162	-0.275
-76.553	-30.330	0.235	0.131
-75.538	-200.000	0.047	0.000
-74.524	-74.213	-0.238	0.084
-73.509	434.096	-0.148	0.315
-72.494	58.750	0.155	-0.149
-71.480	-160.661	-0.121	-0.006
-70.465	181.257	0.177	-0.255
-69.451	800.000	-0.043	0.184
-68.436	-200.000	0.066	0.334
-67.422	-37.877	0.404	0.210
-66.407	-96.152	-0.273	-0.071
-65.392	-78.529	-0.297	0.099
-64.378	-99.397	-0.238	0.059
-63.363	-149.951	0.209	0.016
-62.349	-200.000	-0.025	-0.309
-61.334	39.004	-1.160	-1.014
-60.319	13.439	0.689	0.523
-59.305	104.094	-0.551	-0.634
-58.290	250.217	0.752	1.249
-57.276	558.720	0.574	1.355
-56.261	-200.000	116.090	649.083
-55.246	513.710	1536.992	3505.863
-54.232	175.596	2709.408	3842.563
-53.217	106.906	2158.693	2506.825
-52.203	38.317	1592.766	1387.395
-51.188	29.924	1334.812	1112.470
-50.173	27.094	1296.228	1063.731
-49.159	53.691	1353.966	1271.010
-48.144	51.845	1367.623	1272.756
-47.130	30.065	1322.405	1102.795
-46.115	26.880	1303.978	1068.658
-45.100	26.513	1299.187	1062.537
-44.086	26.381	1296.822	1059.788
-43.071	26.489	1294.159	1058.200
-42.057	26.352	1292.125	1055.693
-41.042	26.524	1290.423	1055.266
-40.027	26.395	1289.038	1053.340
-39.013	26.521	1286.826	1052.222
-37.998	26.512	1285.081	1050.701
-36.984	26.625	1283.143	1049.733
-35.969	26.596	1281.228	1047.956
-34.954	26.663	1279.607	1046.976
-33.940	26.699	1278.309	1046.080
-32.925	26.575	1277.496	1044.653
-31.911	26.716	1275.509	1043.803
-30.896	26.636	1274.688	1042.625
-29.881	26.674	1272.926	1041.366
-28.867	26.709	1271.667	1040.493
-27.852	26.783	1269.894	1039.425
-26.838	26.715	1268.581	1037.922
-25.823	26.712	1267.642	1037.093
-24.809	26.770	1265.797	1035.876
-23.794	26.675	1264.903	1034.559
-22.779	26.716	1263.093	1033.269
-21.765	26.659	1262.243	1032.212
-20.750	26.783	1260.867	1031.748
-19.736	26.674	1259.754	1030.176
-18.721	26.552	1259.022	1028.843
-17.706	26.664	1257.483	1028.183
-16.692	26.638	1256.078	1026.849
-15.677	26.570	1255.419	1025.879
-14.663	26.625	1254.166	1025.128
-13.648	26.525	1252.972	1023.549
-12.633	26.644	1251.815	1023.234
-11.619	26.485	1251.427	1021.977
-10.604	26.576	1250.587	1021.761
-9.590	26.611	1249.541	1021.068
-8.575	26.543	1249.000	1020.200
-7.560	26.637	1247.533	1019.491
-6.546	26.431	1246.879	1017.758
-5.531	26.570	1246.006	1017.783
-4.517	26.660	1244.999	1017.430
-3.502	26.572	1244.579	1016.548
-2.487	26.599	1243.400	1015.695
-1.473	26.677	1238.623	1012.191
-0.458	25.026	1224.648	991.602
0.556	21.988	1208.162	955.584
1.571	18.508	1213.981	941.034
2.586	17.598	1230.027	948.326
3.600	17.285	1218.020	937.261
4.615	13.011	1146.987	860.284
5.629	6.277	1075.911	773.877
6.644	3.402	1058.218	747.161
7.659	3.263	1055.372	744.418
8.673	3.179	1054.983	743.669
9.688	3.246	1053.474	742.865
10.702	3.459	1051.696	742.571
11.717	7.356	1056.394	764.643
12.731	14.538	1066.772	806.948
13.746	18.970	1071.859	832.221
14.761	19.674	1072.190	835.811
15.775	18.867	1070.850	830.792
16.790	17.696	1068.730	823.418
17.804	17.055	1067.310	819.160
18.819	16.843	1066.227	817.236
19.834	16.612	1065.382	815.399
20.848	16.483	1064.785	814.252
21.863	16.283	1063.440	812.190
22.877	16.090	1063.473	811.214
23.892	16.124	1062.165	810.308
24.907	16.125	1061.387	809.648
25.921	16.183	1060.655	809.295
26.936	16.224	1058.980	808.141
27.950	16.142	1057.984	806.919
28.965	16.228	1056.457	806.091
29.980	16.377	1055.330	805.874
30.994	16.391	1053.879	804.758
32.009	16.547	1052.751	804.569
33.023	16.514	1051.832	803.639
34.038	16.291	1050.636	801.597
35.053	16.389	1049.176	800.876
36.067	16.310	1048.565	799.965
37.082	16.288	1048.499	799.739
38.096	16.340	1047.757	799.346
39.111	16.437	1046.937	799.109
40.126	16.258	1045.276	796.925
41.140	16.077	1044.322	795.274
42.155	15.982	1042.906	793.679
43.169	16.047	1041.481	792.831
44.184	15.902	1040.842	791.594
45.199	15.920	1039.943	790.921
46.213	16.123	1038.893	791.005
47.228	16.102	1037.946	790.117
48.242	16.171	1037.280	789.862
49.257	16.171	1036.100	788.896
50.271	16.259	1035.155	788.518
51.286	16.320	1034.294	788.074
52.301	16.259	1033.537	787.145
53.315	16.156	1032.312	785.663
54.330	16.189	1031.165	784.875
55.344	16.081	1030.164	783.542
56.359	16.005	1029.787	782.829
57.374	16.109	1028.168	782.014
58.388	15.915	1027.761	780.733
59.403	16.042	1026.745	780.481
60.417	15.904	1026.277	779.419
61.432	15.937	1024.837	778.410
62.447	15.748	1024.009	776.836
63.461	15.802	1023.572	776.685
64.476	15.893	1022.746	776.414
65.490	15.989	1021.025	775.477
66.505	15.816	1021.113	774.679
67.520	15.912	1020.412	774.523
68.534	15.803	1020.026	773.660
69.549	15.773	1018.921	772.615
70.563	15.885	1017.681	772.120
71.578	15.725	1016.926	770.743
72.593	15.808	1016.003	770.358
73.607	15.650	1015.465	769.158
74.622	15.689	1015.062	768.963
75.636	15.720	1014.307	768.466
76.651	15.669	1013.407	767.481
77.666	15.748	1013.347	767.727
78.680	15.755	1012.209	766.834
79.695	15.754	1011.960	766.572
80.709	15.914	1011.428	766.828
81.724	16.017	1010.345	766.408
82.739	16.217	1009.548	766.645
83.753	16.361	1008.971	766.790
84.768	16.302	1008.477	766.080
85.782	16.336	1007.691	765.571
86.797	16.478	1006.625	765.336
87.812	16.203	1005.605	763.249
88.826	16.288	1004.617	762.816
89.841	16.421	1003.645	762.612
90.855	16.419	1002.658	761.783
91.870	16.420	1002.072	761.277
92.884	16.314	1001.536	760.324
93.899	16.480	1000.269	760.040
94.914	16.437	999.610	759.278
95.928	16.587	998.720	759.211
96.943	16.306	998.046	757.369
97.957	16.332	996.714	756.407
98.972	16.398	996.351	756.360
99.987	16.441	994.968	755.435
101.001	16.296	994.318	754.231
102.016	16.451	993.362	754.128
103.030	16.425	992.678	753.425
104.045	16.513	991.548	752.893
105.060	16.181	991.127	751.029
106.074	16.112	990.164	749.928
107.089	15.955	988.998	748.281
108.103	15.869	988.119	747.166
109.118	15.870	986.679	746.015
110.133	15.968	985.741	745.677
111.147	15.925	984.934	744.809
112.162	15.994	984.371	744.621
113.176	16.060	983.405	744.115
114.191	16.136	982.725	743.873
115.206	16.126	981.887	743.126
116.220	15.953	981.852	742.272
117.235	16.029	979.971	741.119
118.249	15.983	979.381	740.407
119.264	16.002	978.606	739.838
120.279	15.957	977.673	738.869
121.293	15.891	976.968	737.981
122.308	15.878	976.156	737.249
123.322	15.830	974.824	735.964
124.337	15.809	974.292	735.408
125.352	15.847	972.838	734.409
126.366	15.749	972.070	733.337
127.381	15.810	970.891	732.649
128.395	15.812	970.456	732.267
129.410	15.953	969.202	731.867
130.424	15.938	968.595	731.279
131.439	16.182	967.412	731.377
132.454	16.101	967.093	730.720
133.468	16.071	966.297	729.924
134.483	16.143	965.183	729.330
135.497	15.999	964.878	728.415
136.512	16.122	963.800	728.065
137.527	16.092	963.235	727.445
138.541	16.078	962.297	726.612
139.556	16.159	961.617	726.383
140.570	16.223	961.007	726.133
141.585	16.372	960.662	726.452
142.600	16.350	959.539	725.443
143.614	16.482	958.351	725.048
144.629	16.516	957.757	724.678
145.643	16.406	957.103	723.648
146.658	16.352	955.611	722.227
147.673	16.344	954.776	721.495
148.687	16.135	954.351	720.218
149.702	16.013	953.717	719.154
150.716	16.164	952.355	718.710
151.731	16.187	951.603	718.173
152.746	16.206	951.019	717.751
153.760	16.273	950.309	717.439
154.775	16.294	949.982	717.216
155.789	16.378	949.337	717.024
156.804	16.341	948.812	716.406
157.819	16.361	948.154	715.931
158.833	16.511	947.395	715.929
159.848	16.629	946.079	715.371
160.862	16.514	945.443	714.342
161.877	16.362	944.075	712.601
162.892	16.097	943.279	710.822
163.906	16.164	942.163	710.198
164.921	16.331	941.686	710.478
165.935	16.377	940.845	709.977
166.950	16.426	939.881	709.390
167.964	16.351	939.220	708.513
168.979	16.286	937.943	707.216
169.994	16.331	937.199	706.780
171.008	16.431	936.757	706.805
172.023	16.546	936.134	706.749
173.037	16.676	934.929	706.319
174.052	16.601	934.378	705.529
175.067	16.279	933.958	703.808
176.081	16.218	933.435	703.097
177.096	16.251	932.619	702.558
178.110	16.248	932.080	702.078
179.125	16.274	931.776	701.896
180.140	16.372	931.050	701.694
181.154	16.466	930.539	701.636
182.169	16.591	930.345	701.944
183.183	16.701	929.458	701.669
184.198	16.652	929.247	701.247
185.213	16.635	928.173	700.304
186.227	16.677	927.297	699.755
187.242	16.657	927.272	699.590
188.256	16.895	926.260	699.747
189.271	16.832	925.779	699.062
190.286	16.545	924.453	696.817
191.300	16.296	924.038	695.415
192.315	16.218	923.172	694.383
193.329	16.253	922.451	693.921
194.344	16.426	921.595	693.930
195.359	16.361	921.842	693.787
196.373	16.686	920.727	694.217
197.388	16.806	920.660	694.600
198.402	16.852	920.139	694.331
199.417	16.875	919.946	694.217
200.432	17.049	918.650	693.889
201.446	17.097	918.162	693.659
202.461	17.030	918.142	693.307
203.475	17.114	917.283	692.940
204.490	17.036	916.062	691.638
205.504	16.985	915.239	690.747
206.519	16.685	914.972	689.264
207.534	16.841	914.134	689.205
208.548	16.917	913.397	688.899
209.563	16.881	913.045	688.428
210.577	16.962	912.279	688.114
211.592	17.080	911.775	688.152
212.607	17.033	911.154	687.435
213.621	16.977	910.265	686.473
214.636	17.181	908.921	686.225
215.650	17.065	908.975	685.739
216.665	17.170	908.275	685.571
217.680	17.153	907.718	685.023
218.694	17.274	906.938	684.861
219.709	17.245	906.153	684.089
220.723	17.116	905.841	683.274
221.738	17.129	904.831	682.506
222.753	17.033	904.414	681.745
223.767	17.234	903.543	681.834
224.782	17.269	903.498	681.880
225.796	17.395	902.709	681.732
226.811	17.234	901.852	680.378
227.826	17.184	901.327	679.721
228.840	17.201	900.365	679.004
229.855	17.194	899.438	678.218
230.869	17.062	898.764	677.121
231.884	17.159	897.900	676.798
232.899	17.151	897.300	676.252
233.913	16.913	897.097	675.092
234.928	17.098	896.140	675.048
235.942	17.082	895.457	674.411
236.957	17.018	895.049	673.790
237.972	16.930	894.626	673.062
238.986	17.058	893.512	672.674
240.001	17.006	893.426	672.340
241.015	17.068	892.464	671.803
242.030	17.281	892.013	672.248
243.045	17.137	891.724	671.403
244.059	17.321	890.748	671.333
245.074	17.303	890.441	670.970
246.088	17.391	890.148	671.040
247.103	17.451	888.887	670.263
248.117	17.450	888.610	669.992
249.132	17.676	888.223	670.533
250.147	17.755	887.581	670.299
251.161	17.833	886.935	670.055
252.176	17.956	886.251	669.962
253.190	17.931	885.695	669.385
254.205	17.898	885.145	668.781
255.220	17.868	884.414	668.054
256.234	17.946	883.853	667.875
257.249	17.960	883.277	667.436
258.263	17.977	882.126	666.573
259.278	17.926	881.577	665.900
260.293	18.038	881.320	666.083
261.307	18.078	880.638	665.664
262.322	18.102	880.037	665.244
263.336	17.997	879.395	664.291
264.351	18.057	878.541	663.823
265.366	18.004	878.069	663.200
266.380	17.938	877.619	662.545
267.395	17.927	876.567	661.651
268.409	17.953	875.741	661.068
269.424	18.031	874.881	660.662
270.439	17.998	874.320	660.052
271.453	18.003	873.471	659.375
272.468	17.911	873.073	658.658
273.482	18.016	872.420	658.515
274.497	18.102	871.774	658.297
275.512	17.986	871.613	657.674
276.526	17.920	871.392	657.195
277.541	18.008	870.469	656.779
278.555	18.128	869.845	656.711
279.570	18.424	869.355	657.417
280.585	18.262	868.741	656.275
281.599	18.183	867.905	655.282
282.614	18.193	866.879	654.486
283.628	18.025	866.740	653.681
284.643	18.090	866.253	653.503
285.657	18.154	865.423	653.065
286.672	18.221	864.470	652.543
287.687	18.171	863.928	651.886
288.701	18.128	863.481	651.327
289.716	18.194	863.140	651.266
290.730	18.168	862.677	650.758
291.745	18.148	862.329	650.362
292.760	18.315	861.442	650.270
293.774	18.493	861.020	650.571
294.789	18.373	860.025	649.305
295.803	18.273	859.276	648.304
296.818	18.234	858.733	647.688
297.833	18.096	858.532	646.960
298.847	18.409	857.327	647.175
299.862	18.411	856.871	646.779
300.876	18.213	856.827	645.941
301.891	18.408	856.111	646.082
302.906	18.554	855.608	646.193
303.920	18.621	855.244	646.114
304.935	18.638	854.487	645.552
305.949	18.502	853.918	644.554
306.964	18.449	853.347	643.866
307.979	18.449	852.729	643.340
308.993	18.636	852.109	643.518
310.008	18.588	851.570	642.876
311.022	18.716	850.642	642.597
312.037	18.445	850.305	641.271
313.052	18.231	849.519	639.820
314.066	18.245	849.077	639.483
315.081	18.344	848.510	639.369
316.095	18.492	847.921	639.421
317.110	18.302	847.691	638.483
318.125	18.448	846.867	638.349
319.139	18.335	846.359	637.491
320.154	18.325	846.017	637.139
321.168	18.435	845.586	637.166
322.183	18.548	844.875	636.994
323.197	18.503	844.354	636.376
324.212	18.495	844.112	636.110
325.227	18.514	843.400	635.587
326.241	18.531	842.353	634.807
327.256	18.469	841.930	634.200
328.270	18.555	841.273	633.968
329.285	18.602	840.706	633.659
330.300	18.529	840.226	632.971
331.314	18.637	839.731	632.938
332.329	18.684	839.430	632.831
333.343	18.879	838.978	633.151
334.358	18.722	838.510	632.166
335.373	18.745	838.290	632.027
336.387	18.798	837.945	631.908
337.402	18.916	837.760	632.146
338.416	19.017	837.303	632.117
339.431	18.992	836.681	631.497
340.446	19.028	836.418	631.378
341.460	18.932	836.507	631.033
342.475	19.228	835.940	631.637
343.489	19.235	835.674	631.406
344.504	19.136	835.387	630.770
345.519	19.303	834.532	630.682
346.533	19.294	833.545	629.846
347.548	19.164	833.036	628.930
348.562	18.894	832.596	627.559
349.577	18.809	832.405	627.048
350.592	18.972	831.126	626.622
351.606	18.877	830.695	625.897
352.621	18.879	830.025	625.344
353.635	18.784	829.689	624.690
354.650	18.998	828.694	624.662
355.665	19.024	828.690	624.696
356.679	18.992	827.869	623.908
357.694	18.968	827.175	623.243
358.708	19.037	826.639	623.033
359.723	19.164	825.604	622.659
360.738	19.190	825.382	622.529
361.752	19.258	824.845	622.314
362.767	19.238	824.654	622.044
363.781	19.466	823.579	621.999
364.796	19.619	823.125	622.152
365.810	19.654	823.236	622.307
366.825	19.510	822.950	621.519
367.840	19.346	822.364	620.430
368.854	19.424	821.796	620.227
369.869	19.486	821.324	620.040
370.883	19.434	820.931	619.498
371.898	19.389	820.768	619.160
372.913	19.567	820.375	619.448
373.927	19.398	819.803	618.354
374.942	19.642	818.918	618.508
375.956	19.712	818.623	618.480
376.971	19.609	818.433	617.913
377.986	19.817	818.026	618.295
379.000	19.859	817.380	617.903
380.015	19.650	816.973	616.792
381.029	19.737	816.294	616.535
382.044	19.724	815.627	615.931
383.059	19.805	814.996	615.690
384.073	19.750	814.050	614.726
385.088	19.820	813.275	614.333
386.102	19.629	813.295	613.615
387.117	19.600	812.462	612.830
388.132	19.475	812.204	612.137
389.146	19.510	811.683	611.814
390.161	19.808	811.174	612.432
391.175	19.723	810.809	611.803
392.190	19.714	809.902	611.032
393.205	19.658	809.708	610.634
394.219	19.679	809.416	610.432
395.234	19.475	809.078	609.406
396.248	19.429	808.769	608.954
397.263	19.379	808.050	608.182
398.278	19.448	807.613	608.044
399.292	19.556	807.042	607.939
400.307	19.528	806.454	607.344
401.321	19.662	805.952	607.385
402.336	19.593	805.694	606.895
403.350	19.760	805.156	607.020
404.365	19.660	805.087	606.565
405.380	19.986	804.475	607.192
406.394	19.888	804.031	606.461
407.409	20.020	803.641	606.575
408.423	20.243	803.160	606.941
409.438	20.254	802.876	606.710
410.453	20.125	802.514	605.930
411.467	20.246	801.920	605.851
412.482	20.185	801.875	605.550
413.496	20.347	801.327	605.649
414.511	20.195	801.034	604.844
415.526	20.250	800.296	604.424
416.540	20.271	800.100	604.297
417.555	20.262	799.436	603.711
418.569	20.394	798.709	603.567
419.584	20.293	798.623	603.095
420.599	20.201	798.348	602.517
421.613	161.918	1372.610	1797.134
422.628	140.509	1456.260	1797.207
