DTS Sentinel unit serial number:	SN413079Multiplexer serial number:	ORYXHardware model number:	OX4-SRSoftware version number:	ORYX F/W v4.00 Oryx Data Collector v3.7.2.0data status	okinstallation	princeton_trtdifferential loss correction	single-endedforward channel	channel 1reverse channel	N/Adate	2019/09/17time	04:18:35forward acquisition time	60.00reverse acquisition time	0.00gamma	496.2192k internal	0.2323k external	0.2323temperature offset calibration	0.9958default loss term (dB/km)	0.3790temperature slope calibration	1.0000multiplexer offset coefficient	1.0000multiplexer slope coefficient	1.0000fibre end	0.00T internal ref (°C)	29.80T ext. ref 1 (°C)	0.14T ext. ref 2 (°C)	24.24length (m)	temperature (°C)	Stokes	anti-Stokes-747.200	95.934	0.244	0.281
-746.185	-86.393	-0.372	0.115
-745.171	-85.986	-0.232	0.073
-744.156	-146.403	0.075	-0.007
-743.142	-83.550	0.196	-0.063
-742.127	-200.000	0.122	0.609
-741.112	294.105	-0.017	-0.032
-740.098	800.000	-0.074	-0.271
-739.083	33.693	0.107	-0.094
-738.069	-23.391	-0.282	0.171
-737.054	800.000	0.099	0.303
-736.039	-119.672	-0.072	-0.013
-735.025	-200.000	0.049	0.323
-734.010	-74.637	0.129	0.047
-732.996	13.456	-0.432	-0.339
-731.981	-53.369	-0.183	-0.085
-730.966	-12.924	0.214	0.140
-729.952	253.135	-0.224	-0.386
-728.937	-70.051	-0.312	-0.120
-727.923	41.627	-0.235	0.215
-726.908	-136.319	0.227	-0.027
-725.894	91.925	-0.294	-0.334
-724.879	-200.000	-0.009	0.127
-723.864	-73.227	-0.334	-0.123
-722.850	613.487	-0.121	0.305
-721.835	-200.000	0.064	0.360
-720.821	800.000	0.153	0.442
-719.806	35.732	0.093	0.082
-718.791	-192.703	0.275	-0.003
-717.777	-89.661	-0.229	-0.068
-716.762	165.349	-0.164	-0.233
-715.748	32.889	-0.238	-0.208
-714.733	677.202	0.058	0.151
-713.718	-131.620	-0.280	0.037
-712.704	-200.000	-0.014	-0.202
-711.689	-106.720	-0.259	-0.058
-710.675	-13.322	0.390	-0.255
-709.660	-200.000	0.023	-0.200
-708.645	-115.144	-0.209	0.040
-707.631	298.514	0.129	0.240
-706.616	-41.583	-0.073	0.038
-705.602	-127.379	-0.006	-0.001
-704.587	4.303	-0.166	0.123
-703.572	-200.000	0.038	-0.264
-702.558	704.740	-0.059	0.158
-701.543	-2.246	-0.309	-0.219
-700.529	29.614	-0.314	-0.270
-699.514	-200.000	0.002	0.074
-698.499	678.065	0.077	0.202
-697.485	605.287	0.111	-0.278
-696.470	-181.368	-0.231	0.005
-695.456	608.474	-0.123	-0.309
-694.441	-47.669	-0.412	-0.201
-693.426	46.192	-0.293	-0.273
-692.412	-200.000	-0.060	-0.296
-691.397	-200.000	0.000	0.235
-690.383	21.603	-0.008	-0.006
-689.368	-83.415	0.119	-0.038
-688.354	-200.000	0.013	0.056
-687.339	-74.638	-0.232	0.084
-686.324	-89.783	-0.136	-0.040
-685.310	-161.049	0.100	0.005
-684.295	310.703	-0.070	-0.131
-683.281	800.000	0.053	-0.181
-682.266	-30.617	0.188	-0.107
-681.251	-200.000	0.034	-0.462
-680.237	14.561	0.198	-0.156
-679.222	-20.688	0.067	-0.041
-678.208	-39.276	-0.342	-0.181
-677.193	-42.599	-0.112	0.058
-676.178	-131.501	-0.492	-0.065
-675.164	-200.000	0.050	-0.367
-674.149	-200.000	-0.044	-0.352
-673.135	194.278	-0.047	0.071
-672.120	-27.470	0.032	0.019
-671.105	800.000	0.092	0.255
-670.091	1.320	0.386	0.279
-669.076	800.000	0.081	-0.229
-668.062	0.738	0.169	0.122
-667.047	195.860	0.018	-0.027
-666.032	-59.115	-0.027	-0.012
-665.018	-13.126	0.085	-0.056
-664.003	-200.000	-0.027	-0.320
-662.989	154.641	-0.189	-0.261
-661.974	-200.000	-0.005	0.136
-660.959	12.892	-0.138	-0.107
-659.945	447.080	-0.092	0.203
-658.930	-33.330	0.261	0.145
-657.916	528.807	-0.015	-0.037
-656.901	109.370	-0.255	0.307
-655.886	-126.700	0.144	-0.021
-654.872	199.747	0.107	-0.166
-653.857	38.557	0.188	-0.169
-652.843	332.842	-0.033	-0.064
-651.828	-71.862	-0.215	-0.081
-650.814	-200.000	-0.029	-0.144
-649.799	800.000	0.008	0.024
-648.784	-160.389	0.396	0.021
-647.770	-100.914	0.088	-0.022
-646.755	119.955	0.135	0.168
-645.741	-82.077	-0.120	-0.039
-644.726	-83.096	-0.078	-0.025
-643.711	337.541	-0.042	0.081
-642.697	-152.016	-0.218	0.016
-641.682	-95.061	-0.061	0.017
-640.668	-200.000	-0.025	0.280
-639.653	-200.000	-0.072	-0.357
-638.638	299.943	-0.020	0.037
-637.624	73.047	0.227	-0.238
-636.609	800.000	0.081	-0.227
-635.595	-106.143	-0.109	-0.025
-634.580	-31.179	-0.134	0.076
-633.565	-43.545	-0.474	-0.241
-632.551	89.087	-0.223	-0.250
-631.536	-4.417	0.172	0.120
-630.522	181.110	0.163	-0.241
-629.507	-5.993	0.102	-0.070
-628.492	-9.073	0.094	-0.063
-627.478	-76.549	-0.385	-0.136
-626.463	-111.779	0.078	-0.016
-625.449	222.161	0.055	-0.089
-624.434	-200.000	-0.125	-0.595
-623.419	-69.791	-0.166	-0.064
-622.405	306.201	0.118	-0.221
-621.390	681.472	0.042	-0.111
-620.376	-200.000	-0.005	0.083
-619.361	-200.000	-0.006	0.175
-618.346	233.654	-0.182	0.302
-617.332	388.067	-0.193	0.402
-616.317	800.000	-0.032	0.119
-615.303	-76.578	0.064	0.023
-614.288	-52.232	-0.112	0.052
-613.273	-200.000	-0.305	0.001
-612.259	237.772	-0.073	0.122
-611.244	-160.832	-0.308	-0.016
-610.230	-200.000	-0.016	-0.342
-609.215	119.955	0.126	-0.157
-608.201	19.864	-0.088	0.071
-607.186	-20.043	-0.263	-0.163
-606.171	165.514	0.099	0.140
-605.157	-36.897	0.175	0.094
-604.142	-200.000	-0.007	-0.135
-603.128	-175.476	-0.202	-0.006
-602.113	278.129	0.084	0.150
-601.098	-200.000	-0.028	0.230
-600.084	17.832	0.139	-0.111
-599.069	4.715	-0.179	0.132
-598.055	-200.000	0.010	-0.113
-597.040	-46.143	0.145	-0.072
-596.025	-200.000	0.012	-0.213
-595.011	45.014	0.339	-0.314
-593.996	279.833	-0.138	-0.248
-592.982	413.803	-0.124	-0.265
-591.967	-200.000	-0.022	-0.249
-590.952	-200.000	0.004	0.023
-589.938	-148.888	0.306	0.025
-588.923	653.967	-0.079	-0.204
-587.909	-200.000	-0.004	0.354
-586.894	46.503	-0.030	0.028
-585.879	50.733	-0.179	0.170
-584.865	325.269	-0.068	0.131
-583.850	800.000	-0.029	-0.084
-582.836	94.876	-0.118	0.135
-581.821	800.000	-0.047	0.147
-580.806	800.000	0.103	-0.293
-579.792	163.679	-0.183	-0.258
-578.777	64.249	0.101	-0.102
-577.763	800.000	-0.040	0.147
-576.748	-200.000	0.019	-0.273
-575.733	406.972	0.145	0.308
-574.719	286.293	0.065	-0.117
-573.704	261.681	-0.039	0.067
-572.690	-200.000	-0.059	0.401
-571.675	800.000	0.081	0.260
-570.661	19.087	0.177	-0.142
-569.646	118.724	-0.176	-0.218
-568.631	206.011	0.091	-0.141
-567.617	-200.000	-0.012	-0.146
-566.602	-200.000	-0.065	-0.320
-565.588	-200.000	-0.019	0.144
-564.573	-90.992	-0.318	-0.092
-563.558	-200.000	-0.021	-0.246
-562.544	305.060	-0.168	-0.314
-561.529	217.370	0.075	0.120
-560.515	-101.312	0.406	0.099
-559.500	-76.584	-0.405	0.143
-558.485	-179.922	-0.206	0.004
-557.471	285.101	0.134	0.242
-556.456	-24.164	-0.275	0.164
-555.442	45.919	-0.196	-0.182
-554.427	800.000	-0.104	-0.306
-553.412	98.394	0.276	-0.318
-552.398	155.695	0.094	0.130
-551.383	800.000	-0.104	0.314
-550.369	-56.102	-0.137	-0.061
-549.354	679.297	-0.097	0.252
-548.339	242.140	0.222	-0.372
-547.325	384.247	-0.098	0.203
-546.310	800.000	0.041	-0.142
-545.296	-2.172	0.055	0.038
-544.281	-200.000	-0.044	0.387
-543.266	-75.190	-0.305	0.109
-542.252	127.514	0.030	-0.038
-541.237	130.669	0.052	-0.067
-540.223	-85.566	-0.334	-0.104
-539.208	-200.000	-0.055	0.332
-538.193	-86.814	0.263	-0.080
-537.179	92.616	-0.175	-0.198
-536.164	55.259	0.109	-0.106
-535.150	-40.337	0.198	-0.103
-534.135	-200.000	0.054	0.344
-533.121	25.467	0.146	-0.121
-532.106	-111.949	0.159	0.032
-531.091	729.532	-0.038	0.101
-530.077	-18.543	0.262	-0.164
-529.062	145.430	-0.030	-0.040
-528.048	60.070	-0.135	-0.134
-527.033	800.000	-0.099	-0.308
-526.018	800.000	-0.128	0.412
-525.004	219.547	0.239	-0.383
-523.989	24.424	-0.255	-0.211
-522.975	53.858	-0.358	-0.344
-521.960	-106.062	-0.152	-0.034
-520.945	213.220	0.148	0.233
-519.931	10.766	0.201	0.154
-518.916	-56.779	-0.243	0.107
-517.902	-101.598	-0.081	-0.020
-516.887	-186.316	0.303	-0.004
-515.872	48.719	-0.153	-0.144
-514.858	800.000	-0.025	-0.084
-513.843	288.443	-0.166	0.300
-512.829	164.787	-0.096	0.135
-511.814	288.863	-0.069	-0.126
-510.799	58.763	0.202	-0.199
-509.785	158.083	-0.150	0.207
-508.770	-65.105	-0.264	-0.106
-507.756	556.135	-0.106	-0.256
-506.741	41.284	-0.050	-0.045
-505.726	-130.929	0.318	0.043
-504.712	-12.310	0.217	0.142
-503.697	266.834	0.100	-0.175
-502.683	129.606	0.102	0.131
-501.668	168.022	0.066	0.094
-500.653	27.549	0.095	0.080
-499.639	-200.000	-0.005	-0.174
-498.624	569.888	0.022	-0.055
-497.610	129.721	0.109	0.140
-496.595	800.000	-0.044	0.131
-495.581	-2.733	0.075	0.053
-494.566	239.067	0.040	0.067
-493.551	-72.812	-0.319	-0.117
-492.537	98.206	-0.209	0.240
-491.522	62.893	-0.356	-0.357
-490.508	392.009	-0.108	-0.224
-489.493	-124.677	-0.113	0.017
-488.478	99.780	0.240	-0.278
-487.464	800.000	-0.087	-0.268
-486.449	-200.000	-0.016	-0.182
-485.435	-83.706	0.159	-0.051
-484.420	-200.000	-0.312	0.000
-483.405	-141.657	-0.296	0.030
-482.391	-2.917	-0.117	0.082
-481.376	800.000	-0.043	0.160
-480.362	-136.163	-0.210	-0.025
-479.347	8.914	0.172	0.129
-478.332	220.647	-0.033	0.054
-477.318	184.526	0.090	0.133
-476.303	800.000	0.011	0.036
-475.289	-200.000	-0.017	0.173
-474.274	-168.925	0.152	0.006
-473.259	-37.530	-0.103	-0.055
-472.245	100.065	-0.182	-0.211
-471.230	39.114	0.156	-0.140
-470.216	-3.735	0.191	-0.133
-469.201	473.252	-0.144	-0.325
-468.186	-121.717	0.230	-0.038
-467.172	190.558	-0.026	-0.039
-466.157	-31.408	-0.336	0.189
-465.143	-89.460	0.303	-0.089
-464.128	-200.000	0.006	-0.277
-463.113	90.993	-0.044	-0.049
-462.099	-200.000	0.023	0.371
-461.084	800.000	0.105	-0.369
-460.070	-93.957	0.258	-0.071
-459.055	-86.315	-0.143	0.044
-458.040	132.950	-0.167	0.215
-457.026	800.000	0.028	-0.079
-456.011	-175.483	0.357	0.010
-454.997	247.489	-0.149	0.251
-453.982	-200.000	-0.057	0.265
-452.968	19.365	-0.228	0.183
-451.953	20.646	-0.099	-0.080
-450.938	-35.073	0.101	0.055
-449.924	-53.125	-0.291	-0.133
-448.909	288.831	-0.183	-0.331
-447.895	-10.304	0.158	0.105
-446.880	-200.000	-0.015	0.160
-445.865	800.000	-0.040	0.155
-444.851	-170.168	0.269	-0.010
-443.836	-127.362	0.326	-0.047
-442.822	-99.810	0.296	0.074
-441.807	-177.243	-0.105	0.003
-440.792	-127.008	-0.197	-0.029
-439.778	52.479	-0.103	-0.098
-438.763	-127.796	-0.397	-0.057
-437.749	-72.726	0.117	-0.043
-436.734	800.000	-0.058	0.211
-435.719	800.000	-0.069	0.257
-434.705	343.698	0.138	-0.271
-433.690	-200.000	-0.072	-0.362
-432.676	-32.639	0.232	-0.129
-431.661	-200.000	-0.047	-0.319
-430.646	269.959	0.115	0.202
-429.632	-57.762	-0.115	-0.050
-428.617	656.988	0.141	0.363
-427.603	5.707	-0.172	0.127
-426.588	98.418	0.113	0.130
-425.573	800.000	0.131	0.461
-424.559	155.329	-0.240	0.330
-423.544	639.085	0.099	0.252
-422.530	0.500	-0.236	-0.168
-421.515	800.000	0.024	0.093
-420.500	18.181	-0.115	0.092
-419.486	-4.486	0.054	-0.037
-418.471	-21.705	-0.221	-0.134
-417.457	687.832	-0.049	0.128
-416.442	800.000	-0.012	0.040
-415.428	-200.000	-0.004	0.046
-414.413	102.969	-0.224	-0.261
-413.398	-136.620	0.228	0.026
-412.384	296.414	0.059	0.108
-411.369	78.250	-0.121	-0.128
-410.355	-18.526	0.297	0.185
-409.340	-108.383	0.183	-0.039
-408.325	178.795	-0.113	0.165
-407.311	161.284	-0.158	-0.221
-406.296	-120.525	0.240	0.041
-405.282	140.263	0.129	0.169
-404.267	-165.592	0.801	0.035
-403.252	-148.464	-0.190	0.016
-402.238	-54.797	-0.212	0.095
-401.223	-45.432	0.153	0.076
-400.209	-133.492	0.043	-0.005
-399.194	419.185	-0.075	0.160
-398.179	4.052	0.271	-0.197
-397.165	-100.264	0.166	0.041
-396.150	800.000	-0.079	-0.305
-395.136	472.401	0.069	0.154
-394.121	-177.655	0.183	0.004
-393.106	-200.000	-0.008	0.164
-392.092	63.411	0.178	-0.178
-391.077	-19.299	0.237	0.146
-390.063	800.000	0.073	-0.267
-389.048	158.539	-0.109	-0.151
-388.033	4.985	-0.260	-0.190
-387.019	-200.000	-0.024	-0.157
-386.004	92.106	0.321	-0.360
-384.990	-200.000	-0.007	-0.174
-383.975	-192.883	0.184	-0.002
-382.960	269.442	0.161	0.282
-381.946	54.014	0.039	-0.037
-380.931	-62.029	-0.070	0.029
-379.917	-150.139	0.371	-0.029
-378.902	-200.000	0.018	0.101
-377.888	-200.000	-0.026	0.229
-376.873	271.675	0.182	-0.319
-375.858	-118.457	-0.105	0.019
-374.844	54.588	0.168	0.162
-373.829	-124.998	0.150	0.023
-372.815	-200.000	-0.018	0.203
-371.800	212.126	0.179	-0.281
-370.785	800.000	-0.028	-0.098
-369.771	62.340	0.193	0.192
-368.756	800.000	0.042	-0.147
-367.742	-200.000	-0.057	-0.304
-366.727	227.242	-0.052	0.084
-365.712	487.147	0.074	-0.168
-364.698	55.102	0.303	-0.292
-363.683	-200.000	0.103	0.000
-362.669	-200.000	0.014	-0.220
-361.654	441.754	0.112	0.244
-360.639	25.080	0.259	0.213
-359.625	136.543	0.174	-0.226
-358.610	800.000	-0.017	0.066
-357.596	800.000	-0.033	0.113
-356.581	800.000	-0.121	-0.382
-355.566	-200.000	0.023	0.113
-354.552	-200.000	0.116	-0.513
-353.537	800.000	-0.131	-0.386
-352.523	64.823	0.083	-0.083
-351.508	-73.047	-0.222	0.081
-350.493	-21.290	0.024	0.014
-349.479	800.000	0.032	0.093
-348.464	-158.614	0.268	0.015
-347.450	-101.171	-0.326	0.079
-346.435	-22.277	-0.099	0.059
-345.420	-135.200	0.088	0.011
-344.406	48.918	0.317	-0.296
-343.391	638.720	-0.055	0.138
-342.377	78.871	-0.133	0.141
-341.362	-151.924	-0.092	-0.007
-340.348	40.031	0.357	-0.318
-339.333	-2.245	0.148	-0.103
-338.318	-143.381	0.163	0.016
-337.304	-154.177	0.109	-0.007
-336.289	-200.000	-0.038	-0.328
-335.275	-104.179	0.045	0.010
-334.260	-200.000	-0.004	-0.276
-333.245	268.805	0.088	0.154
-332.231	14.464	0.217	0.169
-331.216	-163.170	0.091	-0.004
-330.202	-200.000	0.007	0.280
-329.187	746.111	0.208	0.557
-328.172	800.000	-0.113	0.376
-327.158	9.838	0.124	-0.093
-326.143	-82.817	-0.193	-0.062
-325.129	124.154	0.166	0.207
-324.114	-96.496	-0.203	0.053
-323.099	7.436	0.277	-0.205
-322.085	-133.857	-0.284	-0.035
-321.070	-71.337	-0.096	0.036
-320.056	97.072	-0.032	0.036
-319.041	158.701	0.265	0.366
-318.026	69.995	-0.042	0.043
-317.012	33.088	-0.052	0.045
-315.997	33.972	-0.157	-0.136
-314.983	141.742	-0.180	0.236
-313.968	-200.000	0.009	-0.153
-312.953	117.582	-0.178	-0.218
-311.939	-38.707	0.314	0.165
-310.924	92.668	0.273	0.306
-309.910	-76.950	-0.183	0.064
-308.895	-77.043	0.133	0.046
-307.880	-4.004	0.297	0.204
-306.866	153.689	-0.107	0.146
-305.851	27.614	0.102	0.085
-304.837	-200.000	0.071	-0.333
-303.822	800.000	-0.102	0.298
-302.807	19.842	-0.156	0.125
-301.793	-200.000	-0.062	0.350
-300.778	24.740	-0.213	-0.175
-299.764	-39.682	-0.169	0.088
-298.749	-11.369	-0.032	0.021
-297.735	-90.011	0.282	0.082
-296.720	800.000	0.079	0.274
-295.705	-200.000	0.018	-0.094
-294.691	-17.509	0.287	-0.179
-293.676	738.825	0.187	0.497
-292.662	-200.000	-0.015	-0.115
-291.647	800.000	0.065	-0.248
-290.632	-169.383	0.187	0.007
-289.618	-39.183	-0.113	-0.059
-288.603	-85.091	0.124	0.038
-287.589	-51.652	0.397	0.184
-286.574	-62.813	0.256	0.105
-285.559	-47.790	0.071	0.034
-284.545	-200.000	0.003	0.186
-283.530	119.713	0.095	-0.117
-282.516	318.623	0.027	0.050
-281.501	515.623	-0.108	0.249
-280.486	-200.000	-0.002	0.048
-279.472	3.885	0.012	0.009
-278.457	-200.000	-0.049	0.235
-277.443	-5.158	0.405	0.276
-276.428	-168.606	-0.323	-0.012
-275.413	-72.644	-0.162	-0.059
-274.399	46.693	0.171	-0.157
-273.384	-200.000	0.014	-0.284
-272.370	36.710	0.239	0.210
-271.355	473.624	-0.080	-0.179
-270.340	193.487	-0.277	0.415
-269.326	800.000	0.050	0.191
-268.311	-200.000	0.041	-0.299
-267.297	-71.130	-0.118	-0.044
-266.282	-200.000	0.049	0.398
-265.267	800.000	-0.073	0.199
-264.253	-200.000	-0.019	0.196
-263.238	-200.000	0.001	0.256
-262.224	19.701	-0.267	0.213
-261.209	-200.000	-0.054	-0.289
-260.195	30.632	0.326	0.276
-259.180	-72.388	0.226	-0.083
-258.165	220.718	0.140	0.222
-257.151	311.249	-0.068	0.126
-256.136	-14.450	0.106	0.067
-255.122	57.060	-0.122	0.118
-254.107	39.683	-0.415	0.369
-253.092	-9.212	-0.029	0.019
-252.078	-78.960	-0.261	0.088
-251.063	231.567	0.063	0.103
-250.049	9.167	-0.121	-0.091
-249.034	-98.780	0.009	0.002
-248.019	-124.291	0.225	-0.035
-247.005	317.785	0.004	-0.008
-245.990	800.000	-0.012	0.039
-244.976	14.625	0.260	-0.201
-243.961	-44.217	0.191	0.095
-242.946	4.337	-0.177	-0.129
-241.932	450.470	0.194	0.424
-240.917	27.114	-0.196	-0.163
-239.903	284.634	-0.156	0.277
-238.888	22.865	-0.172	-0.140
-237.873	384.011	-0.094	0.192
-236.859	-200.000	-0.019	0.106
-235.844	-110.677	0.270	-0.055
-234.830	800.000	0.054	0.219
-233.815	-200.000	0.004	0.223
-232.800	-65.314	0.245	0.098
-231.786	544.561	-0.023	0.054
-230.771	106.206	-0.176	-0.206
-229.757	22.018	-0.136	-0.110
-228.742	504.512	-0.076	0.174
-227.727	800.000	-0.056	-0.188
-226.713	761.908	-0.123	0.330
-225.698	-137.561	0.173	0.019
-224.684	185.992	-0.192	-0.283
-223.669	338.011	-0.060	0.116
-222.655	-200.000	0.035	0.280
-221.640	-107.300	0.043	-0.009
-220.625	113.154	0.215	0.258
-219.611	-200.000	-0.003	-0.118
-218.596	646.357	0.054	-0.137
-217.582	-147.243	-0.290	0.024
-216.567	79.962	0.164	-0.175
-215.552	-200.000	0.020	-0.256
-214.538	781.541	-0.110	-0.298
-213.523	-20.592	-0.088	0.053
-212.509	-109.440	-0.172	-0.036
-211.494	-23.933	0.036	-0.022
-210.479	310.643	0.079	0.146
-209.465	-81.706	-0.156	-0.051
-208.450	261.043	0.118	-0.203
-207.436	-200.000	-0.269	-0.001
-206.421	-93.606	0.119	0.033
-205.406	-200.000	0.010	0.357
-204.392	104.563	0.073	-0.085
-203.377	-53.771	0.071	-0.032
-202.363	-200.000	-0.017	-0.423
-201.348	-197.263	0.265	-0.002
-200.333	182.666	0.083	-0.120
-199.319	-2.404	-0.250	0.173
-198.304	-200.000	0.029	0.160
-197.290	171.184	-0.076	-0.108
-196.275	313.371	-0.153	0.285
-195.260	-170.166	0.370	-0.013
-194.246	-200.000	-0.003	-0.228
-193.231	183.969	0.100	-0.146
-192.217	-23.880	0.052	0.031
-191.202	359.966	0.115	-0.227
-190.187	0.298	-0.209	0.148
-189.173	-48.039	-0.179	0.086
-188.158	311.673	0.058	-0.108
-187.144	-200.000	0.076	-0.363
-186.129	344.839	0.136	0.263
-185.114	98.988	-0.089	-0.102
-184.100	-41.193	-0.242	-0.123
-183.085	-169.886	-0.234	0.008
-182.071	800.000	0.082	-0.254
-181.056	-101.569	-0.098	0.024
-180.042	-19.417	-0.080	0.049
-179.027	-104.847	0.070	-0.016
-178.012	-166.213	0.392	0.016
-176.998	-73.686	-0.416	-0.150
-175.983	-107.644	-0.290	0.063
-174.969	96.692	0.104	-0.118
-173.954	-200.000	-0.334	0.001
-172.939	113.912	-0.102	-0.122
-171.925	-112.903	-0.041	0.008
-170.910	-98.396	-0.175	0.044
-169.896	-79.468	0.114	0.038
-168.881	166.004	0.185	0.258
-167.866	-74.151	-0.284	0.101
-166.852	555.709	-0.165	-0.392
-165.837	-200.000	0.038	-0.197
-164.823	-57.716	0.337	0.146
-163.808	73.235	-0.059	0.061
-162.793	-200.000	0.011	0.146
-161.779	-200.000	0.021	-0.449
-160.764	-119.274	0.204	-0.035
-159.750	425.262	-0.097	-0.205
-158.735	800.000	-0.082	0.263
-157.720	-108.550	-0.440	0.093
-156.706	800.000	-0.063	-0.233
-155.691	-175.144	-0.263	-0.007
-154.677	-54.317	0.159	-0.071
-153.662	17.073	-0.117	-0.092
-152.647	25.225	-0.328	0.269
-151.633	800.000	0.088	0.332
-150.618	505.940	-0.120	0.275
-149.604	-2.846	0.357	-0.246
-148.589	800.000	0.085	0.259
-147.574	-36.500	0.418	-0.222
-146.560	800.000	0.093	-0.335
-145.545	-12.685	0.136	-0.087
-144.531	-68.073	-0.066	-0.025
-143.516	141.910	0.187	0.244
-142.502	-72.663	0.171	0.062
-141.487	111.212	-0.078	0.093
-140.472	97.121	-0.131	0.148
-139.458	-200.000	-0.023	0.332
-138.443	403.231	0.191	0.396
-137.429	542.238	0.042	0.099
-136.414	-120.879	-0.270	-0.045
-135.399	-200.000	0.048	0.290
-134.385	169.212	-0.143	-0.201
-133.370	-59.944	0.367	-0.155
-132.356	-54.083	-0.098	0.044
-131.341	0.499	0.216	-0.152
-130.326	-147.687	-0.269	0.022
-129.312	-27.435	-0.119	0.068
-128.297	-48.928	-0.293	-0.139
-127.283	146.606	0.237	0.314
-126.268	-186.330	0.273	-0.004
-125.253	-123.923	0.363	-0.056
-124.239	117.693	0.197	0.239
-123.224	-153.645	-0.102	0.007
-122.210	-121.350	-0.174	0.029
-121.195	800.000	0.084	-0.255
-120.180	-73.798	0.319	-0.114
-119.166	378.723	0.067	-0.135
-118.151	143.927	-0.213	0.280
-117.137	-50.657	0.402	0.187
-116.122	-20.494	0.166	-0.101
-115.107	358.754	0.078	0.153
-114.093	-200.000	-0.016	0.083
-113.078	38.606	-0.159	-0.140
-112.064	-70.245	0.159	0.059
-111.049	800.000	0.080	-0.284
-110.034	-10.897	0.272	-0.177
-109.020	91.998	0.255	-0.283
-108.005	537.369	0.100	-0.234
-106.991	175.655	0.250	0.358
-105.976	225.279	-0.149	0.237
-104.962	-30.491	0.331	-0.185
-103.947	-200.000	0.024	-0.114
-102.932	-85.888	0.117	0.036
-101.918	-164.031	-0.308	0.014
-100.903	-84.387	0.135	0.042
-99.889	-164.462	0.067	-0.003
-98.874	148.967	-0.184	-0.245
-97.859	15.737	-0.194	-0.150
-96.845	62.678	-0.152	-0.149
-95.830	-102.773	-0.025	0.006
-94.816	-21.574	0.026	-0.016
-93.801	-115.773	0.002	0.000
-92.786	800.000	0.043	-0.158
-91.772	114.151	0.263	-0.315
-90.757	-155.441	0.306	-0.020
-89.743	-14.302	-0.124	0.079
-88.728	-200.000	0.010	0.354
-87.713	-32.054	-0.207	0.114
-86.699	-80.199	0.166	-0.055
-85.684	-112.860	-0.174	-0.034
-84.670	338.923	-0.131	0.251
-83.655	33.276	0.139	-0.119
-82.640	-200.000	-0.021	0.223
-81.626	28.809	-0.225	0.188
-80.611	304.039	0.042	0.076
-79.597	-138.334	-0.095	0.010
-78.582	-11.585	0.134	-0.087
-77.567	-103.918	-0.153	-0.035
-76.553	-57.831	-0.064	0.028
-75.538	10.511	-0.200	0.150
-74.524	-121.454	0.086	0.014
-73.509	-200.000	-0.032	-0.188
-72.494	-148.422	-0.155	0.013
-71.480	777.729	-0.081	-0.218
-70.465	-55.883	0.317	0.139
-69.451	266.915	0.190	0.327
-68.436	120.879	-0.148	0.181
-67.422	-67.313	-0.242	0.093
-66.407	143.780	0.068	-0.090
-65.392	132.162	-0.094	0.119
-64.378	99.685	0.269	0.306
-63.363	-70.565	-0.157	-0.058
-62.349	-146.143	0.272	-0.024
-61.334	39.112	-1.124	-0.988
-60.319	253.994	0.326	0.548
-59.305	800.000	-0.357	-0.986
-58.290	-200.000	0.304	1.542
-57.276	800.000	0.489	1.586
-56.261	-200.000	107.932	589.549
-55.246	450.827	1473.486	3197.706
-54.232	147.546	2656.923	3517.745
-53.217	106.687	2158.850	2517.602
-52.203	41.234	1607.574	1428.223
-51.188	33.380	1346.413	1148.745
-50.173	30.210	1305.563	1095.162
-49.159	54.218	1358.842	1285.077
-48.144	55.033	1374.127	1304.382
-47.130	33.459	1329.680	1134.757
-46.115	29.921	1312.341	1098.959
-45.100	29.692	1307.643	1093.623
-44.086	29.693	1304.930	1091.319
-43.071	29.656	1302.473	1089.001
-42.057	29.620	1300.417	1087.027
-41.042	29.679	1298.896	1086.060
-40.027	29.670	1297.195	1084.545
-39.013	29.663	1295.551	1083.082
-37.998	29.656	1293.507	1081.293
-36.984	29.805	1291.516	1080.457
-35.969	29.767	1289.724	1078.692
-34.954	30.011	1287.681	1078.361
-33.940	29.903	1286.604	1076.787
-32.925	29.817	1285.693	1075.482
-31.911	29.851	1283.992	1074.215
-30.896	29.932	1282.583	1073.460
-29.881	29.921	1281.277	1072.262
-28.867	29.914	1280.163	1071.250
-27.852	29.844	1278.407	1069.329
-26.838	29.909	1276.936	1068.430
-25.823	29.874	1276.155	1067.534
-24.809	29.785	1274.993	1066.011
-23.794	29.796	1273.798	1065.027
-22.779	29.898	1271.853	1063.945
-21.765	29.856	1270.924	1062.887
-20.750	29.794	1269.795	1061.545
-19.736	29.889	1267.791	1060.373
-18.721	29.719	1266.891	1058.606
-17.706	29.608	1266.347	1057.470
-16.692	29.793	1264.690	1057.104
-15.677	29.671	1263.832	1055.649
-14.663	29.670	1262.547	1054.527
-13.648	29.752	1261.028	1053.682
-12.633	29.699	1260.553	1052.943
-11.619	29.727	1259.791	1052.422
-10.604	29.902	1258.459	1052.266
-9.590	29.818	1257.367	1050.835
-8.575	29.782	1256.848	1050.153
-7.560	29.740	1255.982	1049.151
-6.546	29.807	1254.718	1048.431
-5.531	29.746	1254.247	1047.650
-4.517	29.834	1252.963	1047.035
-3.502	29.668	1252.706	1045.842
-2.487	29.760	1251.554	1045.354
-1.473	29.815	1247.253	1042.035
-0.458	28.270	1232.201	1020.810
0.556	22.877	1215.481	982.771
1.571	19.098	1221.672	966.507
2.586	18.204	1236.998	973.460
3.600	18.083	1225.573	963.702
4.615	13.318	1152.739	881.027
5.629	4.582	1077.493	779.776
6.644	0.493	1057.391	745.003
7.659	-0.002	1055.566	741.214
8.673	0.026	1054.359	740.438
9.688	0.024	1052.732	739.217
10.702	0.165	1051.135	738.726
11.717	5.412	1057.813	769.212
12.731	13.763	1069.004	818.646
13.746	17.329	1072.869	839.163
14.761	16.956	1071.802	836.413
15.775	15.956	1069.835	829.880
16.790	15.058	1067.396	823.500
17.804	14.290	1065.888	818.488
18.819	14.023	1064.553	816.082
19.834	13.881	1063.488	814.497
20.848	13.273	1063.281	811.285
21.863	13.187	1062.443	810.151
22.877	13.033	1061.827	808.855
23.892	13.028	1060.795	807.972
24.907	13.086	1060.378	807.868
25.921	13.148	1059.203	807.203
26.936	13.048	1058.770	806.312
27.950	13.106	1057.785	805.776
28.965	13.165	1056.396	804.931
29.980	13.386	1054.970	804.848
30.994	13.354	1054.248	804.070
32.009	13.335	1053.243	803.140
33.023	13.274	1052.080	801.889
34.038	13.231	1051.147	800.897
35.053	13.252	1050.110	800.137
36.067	13.240	1049.344	799.429
37.082	13.197	1048.769	798.710
38.096	13.242	1047.995	798.267
39.111	13.284	1047.270	797.848
40.126	13.141	1046.182	796.258
41.140	13.076	1044.675	794.728
42.155	12.992	1043.810	793.597
43.169	12.918	1042.937	792.507
44.184	12.913	1041.999	791.698
45.199	13.155	1040.117	791.357
46.213	13.104	1039.454	790.539
47.228	13.223	1038.134	790.036
48.242	13.140	1037.590	789.155
49.257	13.088	1036.525	788.027
50.271	13.135	1035.381	787.311
51.286	13.087	1034.737	786.524
52.301	13.105	1034.012	785.986
53.315	13.100	1032.631	784.844
54.330	13.076	1031.740	783.983
55.344	12.973	1031.209	783.025
56.359	13.099	1029.880	782.543
57.374	12.973	1029.734	781.767
58.388	12.956	1028.936	781.011
59.403	12.852	1027.878	779.644
60.417	12.939	1027.145	779.431
61.432	12.962	1026.233	778.781
62.447	12.924	1025.485	777.965
63.461	12.929	1024.466	777.144
64.476	12.928	1023.738	776.518
65.490	12.924	1022.612	775.579
66.505	12.937	1022.044	775.140
67.520	12.990	1021.692	775.054
68.534	13.014	1021.106	774.651
69.549	13.023	1020.257	773.982
70.563	13.008	1019.324	773.137
71.578	12.905	1018.498	771.956
72.593	12.992	1017.632	771.641
73.607	12.949	1016.655	770.629
74.622	12.867	1016.410	769.994
75.636	12.809	1015.801	769.192
76.651	12.905	1014.962	768.938
77.666	12.896	1014.228	768.270
78.680	12.881	1013.457	767.549
79.695	12.956	1012.856	767.376
80.709	12.936	1012.552	766.983
81.724	12.977	1011.764	766.508
82.739	12.951	1011.431	766.068
83.753	13.130	1010.614	766.213
84.768	13.208	1009.637	765.768
85.782	13.245	1008.483	764.992
86.797	13.201	1007.700	764.131
87.812	13.091	1007.046	763.059
88.826	13.143	1005.833	762.308
89.841	13.196	1004.559	761.521
90.855	13.249	1003.828	761.144
91.870	13.235	1003.200	760.536
92.884	13.406	1002.417	760.661
93.899	13.282	1001.718	759.495
94.914	13.400	1000.413	758.979
95.928	13.326	999.901	758.185
96.943	13.281	998.692	756.996
97.957	13.158	998.468	756.194
98.972	13.312	997.322	755.965
99.987	13.315	996.400	755.212
101.001	13.220	995.858	754.302
102.016	13.220	994.385	753.118
103.030	13.340	993.356	752.817
104.045	13.236	993.161	752.130
105.060	13.274	992.677	751.871
106.074	13.133	991.419	750.210
107.089	13.094	990.366	749.172
108.103	13.050	989.490	748.244
109.118	13.088	988.362	747.494
110.133	13.030	987.952	746.857
111.147	13.010	986.853	745.869
112.162	13.127	985.757	745.504
113.176	13.122	985.744	745.403
114.191	13.159	984.672	744.693
115.206	13.139	983.838	743.908
116.220	13.113	983.191	743.234
117.235	13.154	982.223	742.622
118.249	12.999	981.337	741.191
119.264	13.110	980.794	741.215
120.279	13.077	979.520	740.037
121.293	13.104	978.848	739.587
122.308	13.068	977.900	738.643
123.322	13.171	977.360	738.631
124.337	13.148	975.678	737.191
125.352	13.251	974.563	736.743
126.366	13.164	973.914	735.798
127.381	13.135	973.019	734.927
128.395	13.136	971.992	734.092
129.410	13.162	971.584	733.834
130.424	13.275	970.281	733.286
131.439	13.249	970.006	732.897
132.454	13.193	969.131	731.924
133.468	13.212	968.504	731.469
134.483	13.311	967.120	730.798
135.497	13.201	966.481	729.763
136.512	13.250	965.853	729.443
137.527	13.257	964.844	728.647
138.541	13.262	963.925	727.909
139.556	13.310	963.137	727.463
140.570	13.285	962.610	726.891
141.585	13.272	961.850	726.193
142.600	13.405	960.609	725.777
143.614	13.333	959.684	724.700
144.629	13.431	958.947	724.507
145.643	13.329	958.118	723.371
146.658	13.274	957.451	722.562
147.673	13.294	956.017	721.502
148.687	13.262	955.500	720.911
149.702	13.337	954.425	720.363
150.716	13.234	953.946	719.488
151.731	13.329	953.027	719.145
152.746	13.204	952.720	718.306
153.760	13.389	951.930	718.447
154.775	13.262	951.550	717.550
155.789	13.368	950.878	717.438
156.804	13.502	949.767	717.118
157.819	13.516	949.083	716.598
158.833	13.482	948.913	716.258
159.848	13.568	947.883	715.788
160.862	13.488	946.926	714.657
161.877	13.414	945.868	713.476
162.892	13.338	944.881	712.342
163.906	13.387	944.164	711.950
164.921	13.391	943.461	711.372
165.935	13.489	942.416	710.944
166.950	13.443	941.715	710.152
167.964	13.494	940.780	709.604
168.979	13.417	939.845	708.509
169.994	13.472	938.906	707.972
171.008	13.486	938.052	707.324
172.023	13.437	937.664	706.761
173.037	13.594	936.777	706.697
174.052	13.653	936.043	706.334
175.067	13.522	935.466	705.277
176.081	13.507	934.859	704.696
177.096	13.507	934.623	704.454
178.110	13.428	933.779	703.420
179.125	13.476	933.381	703.262
180.140	13.553	932.700	703.015
181.154	13.592	932.267	702.792
182.169	13.642	931.475	702.342
183.183	13.555	931.674	702.063
184.198	13.788	930.316	701.963
185.213	13.661	929.653	700.862
186.227	13.859	928.554	700.807
187.242	13.803	928.337	700.344
188.256	13.836	927.709	699.948
189.271	13.702	926.998	698.786
190.286	13.665	926.379	698.102
191.300	13.550	925.491	696.890
192.315	13.627	924.646	696.514
193.329	13.623	924.293	696.169
194.344	13.618	923.900	695.792
195.359	13.665	923.129	695.346
196.373	13.718	922.361	694.927
197.388	13.806	922.029	694.984
198.402	13.900	921.553	694.957
199.417	14.050	920.537	694.757
200.432	13.949	920.385	694.158
201.446	13.905	920.063	693.673
202.461	14.054	919.451	693.768
203.475	14.055	919.020	693.389
204.490	13.818	918.202	691.720
205.504	13.957	917.325	691.577
206.519	14.037	916.385	691.141
207.534	13.912	915.860	690.167
208.548	13.954	914.936	689.580
209.563	14.057	914.572	689.673
210.577	14.073	913.444	688.827
211.592	13.986	913.057	688.114
212.607	14.138	911.994	687.883
213.621	14.164	911.432	687.505
214.636	14.212	910.794	687.159
215.650	14.208	909.979	686.470
216.665	14.175	909.665	686.036
217.680	14.214	908.693	685.399
218.694	14.309	907.922	685.149
219.709	14.141	907.235	683.881
220.723	14.175	906.930	683.731
221.738	14.152	906.198	683.022
222.753	14.198	905.447	682.586
223.767	14.212	905.240	682.426
224.782	14.401	904.246	682.389
225.796	14.389	903.486	681.709
226.811	14.200	903.440	680.840
227.826	14.249	902.483	680.258
228.840	14.173	901.792	679.368
229.855	14.423	900.655	679.469
230.869	14.369	900.063	678.745
231.884	14.254	899.555	677.830
232.899	14.361	898.776	677.622
233.913	14.312	898.306	677.007
234.928	14.250	897.742	676.267
235.942	14.385	896.389	675.738
236.957	14.317	896.311	675.345
237.972	14.284	895.864	674.812
238.986	14.308	895.029	674.221
240.001	14.301	894.477	673.717
241.015	14.391	893.750	673.473
242.030	14.375	893.470	673.137
243.045	14.452	892.551	672.697
244.059	14.435	892.221	672.322
245.074	14.469	891.533	671.880
246.088	14.514	890.690	671.367
247.103	14.596	889.757	670.932
248.117	14.531	889.654	670.536
249.132	14.572	889.332	670.400
250.147	14.619	888.790	670.120
251.161	14.739	888.185	670.084
252.176	14.727	887.234	669.260
253.190	14.715	886.269	668.424
254.205	14.792	885.914	668.408
255.220	14.915	885.087	668.215
256.234	14.817	884.461	667.292
257.249	14.983	883.688	667.313
258.263	14.848	883.062	666.241
259.278	14.908	882.509	666.003
260.293	14.847	882.170	665.447
261.307	14.940	881.596	665.325
262.322	15.012	880.520	664.740
263.336	15.028	880.007	664.358
264.351	14.941	879.499	663.571
265.366	14.924	878.793	662.911
266.380	15.036	878.274	662.906
267.395	15.017	877.265	662.009
268.409	15.155	876.112	661.625
269.424	15.057	875.268	660.542
270.439	14.922	875.046	659.786
271.453	15.092	874.173	659.739
272.468	14.964	874.174	659.176
273.482	15.082	873.166	658.823
274.497	15.077	872.994	658.614
275.512	15.186	872.190	658.376
276.526	14.980	871.841	657.247
277.541	15.103	871.413	657.348
278.555	15.228	870.707	657.248
279.570	15.214	870.192	656.746
280.585	15.281	869.109	656.132
281.599	15.128	868.893	655.314
282.614	15.209	867.808	654.754
283.628	15.191	867.036	654.044
284.643	15.413	866.782	654.660
285.657	15.324	866.012	653.675
286.672	15.143	865.566	652.576
287.687	15.323	865.171	652.919
288.701	15.408	864.267	652.510
289.716	15.267	863.906	651.631
290.730	15.345	863.218	651.360
291.745	15.407	862.622	651.091
292.760	15.397	861.808	650.379
293.774	15.427	861.130	649.928
294.789	15.415	860.434	649.299
295.803	15.426	859.694	648.723
296.818	15.310	859.557	648.118
297.833	15.434	858.764	647.938
298.847	15.392	857.824	647.010
299.862	15.523	857.479	647.200
300.876	15.357	857.193	646.285
301.891	15.543	856.762	646.618
302.906	15.416	856.313	645.735
303.920	15.583	855.551	645.747
304.935	15.638	854.992	645.479
305.949	15.727	854.031	645.037
306.964	15.644	853.594	644.331
307.979	15.525	853.096	643.442
308.993	15.764	852.862	644.122
310.008	15.659	852.174	643.147
311.022	15.679	851.446	642.616
312.037	15.643	850.957	642.052
313.052	15.676	850.119	641.488
314.066	15.722	849.393	641.058
315.081	15.755	849.109	640.916
316.095	15.691	848.599	640.228
317.110	15.574	848.431	639.600
318.125	15.630	847.773	639.262
319.139	15.670	847.228	638.947
320.154	15.650	846.613	638.350
321.168	15.775	845.886	638.218
322.183	15.729	845.605	637.774
323.197	15.780	844.770	637.283
324.212	15.804	844.350	637.000
325.227	15.857	843.841	636.762
326.241	15.825	843.077	636.007
327.256	15.795	842.436	635.354
328.270	15.673	842.428	634.829
329.285	15.670	841.413	633.998
330.300	15.750	840.818	633.794
331.314	15.755	840.533	633.542
332.329	15.901	839.826	633.502
333.343	15.932	839.315	633.178
334.358	15.970	839.147	633.138
335.373	15.917	838.709	632.552
336.387	15.926	838.199	632.147
337.402	16.053	838.278	632.626
338.416	15.990	838.038	632.155
339.431	16.013	837.526	631.796
340.446	16.120	836.626	631.464
341.460	16.006	836.424	630.828
342.475	16.069	836.129	630.785
343.489	16.229	835.422	630.795
344.504	16.217	835.189	630.517
345.519	16.144	835.037	630.074
346.533	16.224	834.002	629.536
347.548	16.157	833.744	629.037
348.562	16.244	832.996	628.738
349.577	16.310	832.122	628.272
350.592	16.213	831.787	627.603
351.606	16.105	831.032	626.574
352.621	16.206	830.424	626.433
353.635	16.208	829.849	625.955
354.650	16.240	829.170	625.505
355.665	16.337	828.726	625.474
356.679	16.344	828.288	625.115
357.694	16.436	827.561	624.850
358.708	16.343	827.140	624.135
359.723	16.320	826.483	623.496
360.738	16.298	825.581	622.682
361.752	16.509	824.622	622.679
362.767	16.455	824.199	622.105
363.781	16.503	824.124	622.169
364.796	16.442	823.457	621.388
365.810	16.353	823.429	620.986
366.825	16.495	822.986	621.116
367.840	16.532	822.313	620.689
368.854	16.488	821.856	620.131
369.869	16.557	821.471	620.037
370.883	16.553	820.994	619.606
371.898	16.627	820.493	619.446
372.913	16.620	820.277	619.202
373.927	16.678	819.919	619.090
374.942	16.653	819.592	618.694
375.956	16.822	818.744	618.616
376.971	16.751	818.450	618.082
377.986	16.783	817.938	617.756
379.000	16.833	817.273	617.383
380.015	16.714	817.144	616.795
381.029	16.695	816.608	616.268
382.044	16.919	815.447	616.153
383.059	16.880	814.997	615.616
384.073	16.933	814.692	615.522
385.088	16.886	814.201	614.927
386.102	16.755	813.523	613.887
387.117	16.804	812.907	613.545
388.132	16.723	812.689	613.033
389.146	16.696	812.242	612.544
390.161	16.930	811.308	612.628
391.175	16.968	810.752	612.293
392.190	16.889	809.968	611.360
393.205	16.929	809.994	611.472
394.219	16.780	809.829	610.756
395.234	16.874	809.326	610.661
396.248	16.856	808.800	610.145
397.263	16.920	808.281	609.931
398.278	16.920	807.794	609.509
399.292	16.908	807.503	609.191
400.307	16.870	807.303	608.853
401.321	16.957	806.577	608.563
402.336	16.936	806.294	608.219
403.350	16.876	805.478	607.336
404.365	16.938	805.147	607.254
405.380	17.103	804.630	607.401
406.394	17.067	804.126	606.838
407.409	17.077	804.039	606.752
408.423	17.182	803.846	606.930
409.438	17.271	803.340	606.813
410.453	17.258	802.494	606.070
411.467	17.297	802.083	605.848
412.482	17.338	801.994	605.874
413.496	17.373	801.350	605.458
414.511	17.332	801.103	605.071
415.526	17.526	800.540	605.281
416.540	17.374	800.344	604.540
417.555	17.386	799.547	603.925
418.569	17.409	799.378	603.827
419.584	17.355	798.965	603.272
420.599	17.405	798.455	603.011
421.613	109.158	1291.970	1469.921
422.628	93.882	1363.860	1469.981
