DTS Sentinel unit serial number:	SN413079Multiplexer serial number:	ORYXHardware model number:	OX4-SRSoftware version number:	ORYX F/W v4.00 Oryx Data Collector v3.7.2.0data status	okinstallation	princeton_trtdifferential loss correction	single-endedforward channel	channel 1reverse channel	N/Adate	2019/09/12time	04:28:11forward acquisition time	60.00reverse acquisition time	0.00gamma	496.2192k internal	0.2324k external	0.2324temperature offset calibration	1.0081default loss term (dB/km)	0.3790temperature slope calibration	1.0000multiplexer offset coefficient	1.0000multiplexer slope coefficient	1.0000fibre end	0.00T internal ref (°C)	31.62T ext. ref 1 (°C)	2.24T ext. ref 2 (°C)	26.16length (m)	temperature (°C)	Stokes	anti-Stokes-747.200	-200.000	0.025	0.316
-746.185	142.961	-0.194	0.260
-745.171	201.041	-0.247	0.384
-744.156	178.174	0.117	0.173
-743.142	-4.260	0.438	-0.306
-742.127	223.087	-0.167	0.272
-741.112	-88.437	0.263	-0.079
-740.098	216.476	0.162	0.260
-739.083	-131.732	-0.236	-0.031
-738.069	-115.109	-0.264	-0.050
-737.054	332.914	0.142	-0.276
-736.039	379.179	-0.112	0.231
-735.025	1.722	-0.206	-0.150
-734.010	410.601	0.164	-0.351
-732.996	7.210	0.162	-0.122
-731.981	-200.000	0.001	0.081
-730.966	-200.000	-0.024	-0.313
-729.952	274.237	0.053	-0.095
-728.937	-200.000	-0.409	0.001
-727.923	-168.474	0.116	-0.004
-726.908	-71.256	-0.514	0.195
-725.894	800.000	-0.075	-0.256
-724.879	40.384	-0.054	-0.049
-723.864	95.164	-0.323	-0.371
-722.850	-200.000	0.034	-0.179
-721.835	405.828	0.109	0.231
-720.821	-54.187	-0.270	0.124
-719.806	391.171	-0.056	-0.118
-718.791	-200.000	-0.015	-0.104
-717.777	27.449	-0.082	-0.070
-716.762	-200.000	0.030	0.145
-715.748	-35.949	-0.013	-0.007
-714.733	-200.000	0.040	0.326
-713.718	-200.000	-0.003	0.047
-712.704	-200.000	0.048	0.242
-711.689	-85.478	0.339	-0.106
-710.675	-149.645	-0.190	0.015
-709.660	-79.276	-0.168	-0.057
-708.645	-9.516	0.191	-0.129
-707.631	35.320	-0.123	0.109
-706.616	283.350	-0.076	0.137
-705.602	29.397	-0.164	-0.140
-704.587	267.345	-0.132	-0.232
-703.572	-86.026	-0.430	-0.134
-702.558	186.237	0.097	-0.145
-701.543	493.557	0.150	-0.346
-700.529	67.261	0.198	-0.204
-699.514	800.000	-0.119	0.385
-698.499	-74.343	0.281	-0.102
-697.485	-160.234	-0.197	-0.011
-696.470	-17.743	0.205	-0.130
-695.456	-200.000	0.010	-0.445
-694.441	-83.367	0.176	0.057
-693.426	-23.758	0.299	-0.181
-692.412	-17.862	0.199	-0.125
-691.397	-7.242	0.183	-0.125
-690.383	-20.442	0.257	0.159
-689.368	21.310	-0.063	-0.052
-688.354	800.000	-0.130	-0.488
-687.339	649.866	0.078	-0.200
-686.324	-19.926	0.182	-0.113
-685.310	-98.670	0.291	-0.075
-684.295	0.243	-0.152	-0.109
-683.281	-137.890	-0.118	0.013
-682.266	-74.747	0.065	-0.023
-681.251	258.024	-0.157	0.272
-680.237	-123.628	0.118	-0.019
-679.222	-200.000	-0.007	-0.167
-678.208	266.766	-0.095	-0.168
-677.193	29.051	-0.147	0.126
-676.178	-156.006	0.135	-0.009
-675.164	148.340	0.030	0.041
-674.149	441.761	0.134	0.295
-673.135	-33.111	0.128	-0.072
-672.120	-72.540	-0.340	-0.126
-671.105	228.806	-0.097	-0.160
-670.091	47.326	-0.156	-0.146
-669.076	-81.795	-0.096	-0.032
-668.062	-146.983	-0.114	-0.010
-667.047	800.000	0.079	-0.308
-666.032	132.344	-0.171	-0.221
-665.018	714.082	-0.088	-0.236
-664.003	-59.562	-0.236	-0.102
-662.989	-2.270	-0.167	-0.118
-661.974	-200.000	0.010	0.269
-660.959	127.679	-0.128	0.163
-659.945	20.189	-0.079	-0.065
-658.930	176.073	-0.190	0.277
-657.916	-78.806	0.221	-0.076
-656.901	93.759	0.163	-0.185
-655.886	-10.177	0.099	0.066
-654.872	800.000	0.008	-0.025
-653.857	-10.253	-0.324	0.216
-652.843	-200.000	-0.033	-0.183
-651.828	71.411	0.297	0.310
-650.814	-118.079	-0.156	-0.028
-649.799	-200.000	0.011	0.169
-648.784	-132.248	-0.124	0.016
-647.770	503.905	0.018	-0.042
-646.755	800.000	-0.071	-0.296
-645.741	604.157	-0.030	-0.075
-644.726	288.772	-0.052	0.096
-643.711	271.183	-0.046	0.082
-642.697	584.849	0.033	0.081
-641.682	-13.075	-0.148	-0.097
-640.668	-181.095	-0.047	-0.001
-639.653	285.742	0.168	0.305
-638.638	-138.200	0.226	0.025
-637.624	77.774	0.061	-0.065
-636.609	581.735	-0.178	-0.439
-635.595	-168.508	0.259	-0.010
-634.580	800.000	-0.045	0.168
-633.565	-30.510	-0.090	-0.051
-632.551	-45.433	-0.339	-0.169
-631.536	627.844	-0.061	0.154
-630.522	-67.564	-0.199	0.078
-629.507	260.786	-0.046	0.080
-628.492	-2.092	-0.190	0.134
-627.478	-46.499	0.121	0.060
-626.463	-10.510	0.134	-0.089
-625.449	200.924	0.135	-0.209
-624.434	108.235	-0.174	-0.208
-623.419	800.000	-0.035	-0.127
-622.405	213.589	-0.140	-0.222
-621.390	15.166	0.170	0.134
-620.376	-75.685	-0.147	-0.052
-619.361	800.000	-0.041	-0.182
-618.346	-200.000	0.009	-0.301
-617.332	-76.358	-0.393	-0.139
-616.317	-200.000	0.044	-0.375
-615.303	187.369	-0.106	0.158
-614.288	35.521	0.109	-0.096
-613.273	90.376	0.149	-0.167
-612.259	370.345	0.111	-0.227
-611.244	251.623	-0.069	0.118
-610.230	196.342	0.304	0.464
-609.215	340.518	-0.164	-0.322
-608.201	-200.000	0.006	-0.490
-607.186	800.000	0.053	-0.155
-606.171	-48.445	-0.247	0.119
-605.157	800.000	0.089	-0.270
-604.142	205.930	0.057	-0.090
-603.128	442.287	-0.095	0.209
-602.113	-79.153	0.174	0.059
-601.098	-200.000	-0.076	0.000
-600.084	-200.000	-0.061	0.570
-599.069	800.000	-0.061	-0.186
-598.055	185.918	-0.010	-0.015
-597.040	269.444	-0.197	0.348
-596.025	-37.730	0.139	0.074
-595.011	331.223	-0.173	-0.335
-593.996	-200.000	-0.068	-0.521
-592.982	-143.720	0.218	0.021
-591.967	-6.919	0.318	-0.217
-590.952	-9.147	-0.120	-0.081
-589.938	-17.158	-0.041	-0.026
-588.923	800.000	0.150	-0.424
-587.909	154.001	-0.203	-0.279
-586.894	75.741	0.175	0.185
-585.879	-200.000	-0.002	0.113
-584.865	134.811	-0.124	-0.162
-583.850	-200.000	-0.021	-0.193
-582.836	800.000	-0.152	-0.453
-581.821	-49.060	0.250	-0.120
-580.806	800.000	-0.081	0.249
-579.792	-177.127	0.288	0.007
-578.777	44.411	0.299	0.275
-577.763	-200.000	0.002	-0.121
-576.748	-200.000	0.001	0.081
-575.733	-200.000	-0.104	-0.477
-574.719	-18.508	-0.425	0.266
-573.704	70.167	-0.117	0.121
-572.690	105.814	-0.046	0.055
-571.675	54.762	-0.209	0.202
-570.661	155.056	0.132	-0.182
-569.646	163.060	0.043	-0.061
-568.631	6.983	-0.079	0.059
-567.617	84.290	-0.218	0.239
-566.602	94.031	0.082	-0.094
-565.588	-200.000	-0.012	-0.318
-564.573	-15.001	-0.173	0.111
-563.558	-104.487	-0.295	-0.068
-562.544	46.226	0.357	-0.332
-561.529	61.678	0.084	0.083
-560.515	800.000	-0.125	-0.364
-559.500	618.839	0.017	0.043
-558.485	27.109	0.065	-0.055
-557.471	522.471	-0.079	-0.186
-556.456	76.387	-0.174	-0.185
-555.442	17.250	0.235	0.187
-554.427	800.000	-0.074	0.225
-553.412	149.661	0.128	-0.174
-552.398	2.297	0.190	-0.138
-551.383	193.407	0.162	-0.246
-550.369	800.000	-0.176	-0.528
-549.354	800.000	0.047	-0.170
-548.339	7.390	0.209	-0.157
-547.325	-21.150	-0.170	0.104
-546.310	-65.837	0.197	-0.079
-545.296	351.169	-0.083	0.165
-544.281	-105.497	0.146	-0.033
-543.266	-108.503	0.504	0.109
-542.252	-65.144	-0.308	0.125
-541.237	71.183	-0.102	-0.106
-540.223	611.117	-0.128	0.320
-539.208	800.000	-0.032	-0.119
-538.193	-200.000	0.028	-0.362
-537.179	747.433	0.090	0.243
-536.164	42.691	0.173	0.158
-535.150	-98.251	0.226	0.058
-534.135	-88.936	0.277	0.082
-533.121	34.030	0.248	-0.216
-532.106	66.933	-0.099	0.101
-531.091	54.222	-0.184	-0.177
-530.077	345.403	-0.020	-0.040
-529.062	122.503	-0.132	0.165
-528.048	641.949	0.149	-0.379
-527.033	302.925	0.017	0.031
-526.018	-59.186	0.287	-0.124
-525.004	-200.000	0.013	0.155
-523.989	-8.000	0.173	0.117
-522.975	-200.000	0.037	0.190
-521.960	-67.712	0.272	-0.106
-520.945	38.133	0.035	-0.031
-519.931	179.193	-0.114	0.167
-518.916	503.101	0.109	0.253
-517.902	-200.000	0.025	0.533
-516.887	104.465	0.153	-0.180
-515.872	-200.000	-0.088	-0.451
-514.858	228.042	-0.094	-0.153
-513.843	-148.739	-0.292	0.024
-512.829	138.252	-0.020	-0.026
-511.814	-131.891	0.167	0.022
-510.799	738.919	-0.183	0.492
-509.785	372.305	0.154	0.313
-508.770	79.085	0.087	0.093
-507.756	-94.334	-0.260	0.071
-506.741	800.000	-0.089	0.304
-505.726	-125.119	0.639	-0.098
-504.712	-200.000	0.016	-0.158
-503.697	-103.710	0.362	0.085
-502.683	-200.000	-0.052	-0.270
-501.668	-27.107	0.151	-0.088
-500.653	-200.000	0.020	0.136
-499.639	-4.900	0.132	0.091
-498.624	163.645	-0.255	0.359
-497.610	256.839	0.143	0.246
-496.595	-154.148	-0.316	-0.021
-495.581	-39.487	-0.268	0.140
-494.566	-200.000	-0.009	0.119
-493.551	-41.663	-0.260	0.133
-492.537	48.217	0.257	-0.240
-491.522	32.898	-0.102	0.089
-490.508	-108.337	0.058	0.012
-489.493	-82.386	-0.038	-0.012
-488.478	163.632	0.127	0.179
-487.464	-143.960	-0.155	-0.015
-486.449	-48.450	0.115	-0.056
-485.435	-137.385	0.232	0.026
-484.420	-26.206	-0.035	0.020
-483.405	-141.070	0.247	-0.025
-482.391	-122.336	-0.195	0.032
-481.376	-142.962	0.166	-0.016
-480.362	-100.816	0.217	0.053
-479.347	-68.005	-0.115	-0.045
-478.332	-148.273	0.089	-0.007
-477.318	-141.359	-0.289	0.029
-476.303	-12.089	0.157	0.103
-475.289	800.000	0.086	-0.249
-474.274	800.000	-0.079	-0.298
-473.259	21.709	-0.022	0.018
-472.245	779.361	0.178	0.485
-471.230	-11.236	0.072	0.047
-470.216	8.096	0.103	0.077
-469.201	-104.178	-0.240	-0.056
-468.186	-200.000	-0.060	-0.325
-467.172	-200.000	-0.028	-0.279
-466.157	-100.657	-0.272	-0.067
-465.143	-74.902	0.353	-0.127
-464.128	-50.566	0.067	-0.031
-463.113	514.071	-0.135	0.315
-462.099	-53.760	0.106	0.048
-461.084	164.106	0.145	0.204
-460.070	-200.000	-0.057	0.263
-459.055	-148.917	0.181	-0.015
-458.040	-121.236	0.136	-0.023
-457.026	545.349	-0.135	0.321
-456.011	-200.000	-0.018	0.142
-454.997	-200.000	-0.029	-0.227
-453.982	85.383	-0.358	0.392
-452.968	-101.275	-0.256	0.062
-451.953	-200.000	-0.035	-0.261
-450.938	386.371	0.140	-0.288
-449.924	-96.428	0.180	0.047
-448.909	-104.242	0.302	-0.070
-447.895	-136.594	0.186	0.021
-446.880	473.796	-0.100	-0.224
-445.865	727.830	-0.039	0.103
-444.851	532.372	0.073	-0.173
-443.836	56.640	-0.074	-0.072
-442.822	-112.955	-0.164	0.032
-441.807	-200.000	-0.000	0.338
-440.792	-46.880	-0.111	-0.054
-439.778	-135.322	-0.475	0.057
-438.763	-116.097	-0.213	-0.039
-437.749	-40.658	-0.216	-0.112
-436.734	-121.563	-0.288	0.048
-435.719	800.000	-0.090	0.340
-434.705	-98.154	-0.433	-0.111
-433.690	800.000	0.075	-0.236
-432.676	-71.670	-0.155	-0.058
-431.661	555.171	0.079	-0.190
-430.646	-200.000	-0.079	0.373
-429.632	376.219	-0.103	0.209
-428.617	25.324	0.221	0.183
-427.603	-47.742	-0.143	-0.069
-426.588	419.455	-0.167	0.356
-425.573	1.806	0.103	-0.074
-424.559	539.797	0.075	0.177
-423.544	-200.000	0.009	0.249
-422.530	354.708	0.146	0.289
-421.515	69.670	0.276	-0.284
-420.500	69.484	0.097	-0.099
-419.486	-60.778	-0.068	0.029
-418.471	-13.521	0.123	-0.079
-417.457	-63.726	-0.158	-0.065
-416.442	-200.000	-0.074	0.379
-415.428	24.637	-0.139	-0.115
-414.413	800.000	-0.088	-0.253
-413.398	-107.005	0.210	0.046
-412.384	1.396	0.132	-0.094
-411.369	182.275	-0.125	0.183
-410.355	-200.000	-0.032	-0.144
-409.340	-141.436	-0.455	0.046
-408.325	47.711	-0.171	0.159
-407.311	398.336	-0.200	0.417
-406.296	-91.762	-0.313	0.089
-405.282	83.227	-0.148	-0.161
-404.267	-78.417	0.156	-0.053
-403.252	136.571	0.176	-0.229
-402.238	-96.412	-0.144	0.038
-401.223	-23.086	0.139	0.083
-400.209	-200.000	0.014	0.126
-399.194	35.716	-0.186	0.162
-398.179	800.000	0.055	-0.176
-397.165	-200.000	-0.008	0.319
-396.150	179.610	-0.010	0.015
-395.136	-200.000	-0.019	-0.130
-394.121	199.471	-0.187	0.285
-393.106	-82.462	-0.476	-0.154
-392.092	636.847	0.179	-0.452
-391.077	669.667	0.144	-0.371
-390.063	800.000	0.096	-0.391
-389.048	800.000	0.139	0.413
-388.033	125.340	0.087	0.109
-387.019	190.151	0.050	0.075
-386.004	-200.000	0.014	0.068
-384.990	171.362	0.120	0.172
-383.975	800.000	0.011	-0.034
-382.960	102.072	0.034	0.039
-381.946	5.343	0.289	0.212
-380.931	732.480	-0.075	0.199
-379.917	-200.000	-0.003	-0.400
-378.902	-162.464	0.109	-0.005
-377.888	-200.000	0.013	-0.064
-376.873	-22.498	0.076	-0.046
-375.858	-101.532	0.319	-0.077
-374.844	49.465	0.113	-0.106
-373.829	83.674	-0.093	0.100
-372.815	-18.252	-0.124	-0.077
-371.800	-167.966	0.110	0.004
-370.785	274.515	-0.044	0.078
-369.771	43.162	-0.159	-0.144
-368.756	-154.517	0.242	-0.016
-367.742	-27.810	-0.265	0.153
-366.727	800.000	0.040	0.122
-365.712	4.299	0.055	0.040
-364.698	-200.000	-0.000	-0.036
-363.683	-28.691	-0.251	-0.143
-362.669	-62.276	0.134	-0.056
-361.654	-141.563	0.069	0.007
-360.639	497.926	0.145	-0.331
-359.625	-200.000	0.011	0.051
-358.610	-135.023	-0.089	-0.011
-357.596	704.486	0.103	0.269
-356.581	179.633	0.166	-0.241
-355.566	414.482	-0.133	-0.281
-354.552	-43.956	0.149	-0.075
-353.537	-107.533	0.174	-0.038
-352.523	750.814	0.051	0.137
-351.508	-88.841	0.252	-0.074
-350.493	-63.234	0.239	0.098
-349.479	-52.232	-0.070	0.032
-348.464	85.131	-0.051	0.055
-347.450	17.545	-0.191	0.151
-346.435	279.472	0.120	0.212
-345.420	-129.536	0.099	0.014
-344.406	-200.000	0.019	0.175
-343.391	-84.674	-0.236	-0.074
-342.377	800.000	0.091	-0.267
-341.362	459.488	-0.119	0.264
-340.348	202.702	-0.026	-0.039
-339.333	-200.000	-0.060	-0.278
-338.318	116.600	0.050	-0.061
-337.304	104.714	-0.111	-0.130
-336.289	131.755	-0.195	-0.249
-335.275	-154.016	-0.252	0.017
-334.260	-53.553	0.158	-0.072
-333.245	-125.069	-0.373	-0.057
-332.231	448.281	0.022	-0.049
-331.216	-5.737	-0.197	-0.134
-330.202	342.970	-0.091	0.178
-329.187	170.381	0.149	-0.212
-328.172	-124.743	0.063	-0.010
-327.158	-200.000	0.085	0.430
-326.143	-126.938	-0.366	0.053
-325.129	146.380	0.219	-0.292
-324.114	66.019	0.189	-0.190
-323.099	-28.736	-0.124	0.071
-322.085	-7.695	0.210	0.141
-321.070	113.263	0.234	0.282
-320.056	145.245	0.096	0.127
-319.041	-3.726	-0.470	-0.324
-318.026	-121.153	-0.158	-0.026
-317.012	-102.913	0.299	0.070
-315.997	199.492	-0.154	0.234
-314.983	25.639	-0.162	-0.134
-313.968	-200.000	-0.035	-0.158
-312.953	642.781	-0.147	0.371
-311.939	191.740	-0.034	-0.051
-310.924	-37.764	0.103	-0.054
-309.910	-200.000	0.068	0.343
-308.895	-200.000	0.028	-0.270
-307.880	72.117	-0.044	0.045
-306.866	-200.000	0.005	0.178
-305.851	-107.040	0.272	0.060
-304.837	-200.000	0.002	0.069
-303.822	154.312	0.119	0.162
-302.807	448.643	-0.079	0.173
-301.793	48.772	-0.088	0.082
-300.778	-200.000	0.036	0.316
-299.764	617.492	0.078	-0.193
-298.749	-78.966	0.181	-0.061
-297.735	-200.000	-0.037	-0.264
-296.720	-200.000	0.033	-0.190
-295.705	-56.347	-0.242	-0.107
-294.691	-71.234	0.127	0.047
-293.676	-8.555	0.263	0.175
-292.662	78.515	0.178	0.189
-291.647	197.135	0.189	0.286
-290.632	-49.384	-0.348	-0.165
-289.618	11.195	-0.242	-0.184
-288.603	-35.428	0.161	-0.087
-287.589	30.185	-0.147	-0.124
-286.574	-151.034	-0.155	0.012
-285.559	87.293	0.190	0.208
-284.545	-29.841	0.193	-0.109
-283.530	242.628	0.100	0.167
-282.516	-135.565	-0.310	-0.037
-281.501	313.538	-0.147	-0.274
-280.486	149.581	-0.043	0.058
-279.472	521.321	0.016	0.037
-278.457	-26.534	-0.405	0.235
-277.443	800.000	0.035	0.129
-276.428	-87.213	0.122	-0.037
-275.413	135.296	-0.128	0.165
-274.399	50.167	0.194	-0.181
-273.384	59.933	0.187	-0.183
-272.370	-200.000	0.013	0.133
-271.355	-186.549	-0.228	0.003
-270.340	-200.000	0.005	0.483
-269.326	42.320	0.041	-0.037
-268.311	60.361	0.182	-0.178
-267.297	-149.117	0.167	-0.013
-266.282	3.773	0.257	0.186
-265.267	-129.069	-0.260	0.036
-264.253	115.908	-0.149	-0.181
-263.238	-6.872	0.248	0.167
-262.224	800.000	-0.088	0.333
-261.209	-39.149	-0.056	0.029
-260.195	-136.459	0.361	-0.042
-259.180	426.945	-0.162	0.347
-258.165	-200.000	-0.001	0.155
-257.151	-179.388	0.222	0.005
-256.136	559.505	-0.104	0.248
-255.122	-68.902	-0.539	-0.206
-254.107	-13.367	0.127	0.082
-253.092	-70.953	0.184	0.069
-252.078	-118.679	0.143	0.025
-251.063	800.000	-0.030	-0.098
-250.049	638.107	0.062	-0.155
-249.034	-68.460	-0.200	-0.077
-248.019	450.914	0.088	0.191
-247.005	-200.000	0.022	-0.293
-245.990	-67.905	0.030	-0.012
-244.976	800.000	-0.083	0.254
-243.961	-10.749	-0.243	0.159
-242.946	353.830	-0.066	-0.130
-241.932	800.000	0.065	0.230
-240.917	-42.299	-0.107	-0.054
-239.903	240.812	-0.069	0.114
-238.888	191.965	0.125	-0.186
-237.873	-15.281	0.259	-0.164
-236.859	-200.000	0.026	0.235
-235.844	800.000	0.084	-0.282
-234.830	123.654	0.078	-0.097
-233.815	72.251	-0.394	0.406
-232.800	-194.195	-0.160	0.001
-231.786	-200.000	-0.002	0.193
-230.771	4.637	0.121	-0.088
-229.757	-200.000	-0.019	0.430
-228.742	800.000	0.127	0.394
-227.727	800.000	-0.031	0.090
-226.713	-159.563	0.045	0.002
-225.698	-130.491	0.170	-0.023
-224.684	-179.072	-0.252	0.006
-223.669	260.820	-0.084	-0.144
-222.655	-84.138	0.056	0.017
-221.640	-200.000	-0.019	-0.143
-220.625	-5.561	-0.120	-0.081
-219.611	-200.000	0.057	-0.311
-218.596	-117.870	-0.295	-0.052
-217.582	-200.000	0.003	-0.065
-216.567	-198.941	0.255	-0.001
-215.552	-51.208	0.127	0.059
-214.538	-200.000	0.005	0.290
-213.523	-98.088	-0.080	0.020
-212.509	-31.158	0.065	0.036
-211.494	106.620	0.139	0.163
-210.479	-82.168	-0.250	-0.080
-209.465	800.000	-0.047	0.172
-208.450	-11.252	0.201	0.131
-207.436	6.589	-0.324	0.238
-206.421	-140.164	0.292	-0.030
-205.406	-200.000	0.009	0.241
-204.392	-150.935	-0.101	0.008
-203.377	-10.004	0.212	-0.139
-202.363	214.362	-0.081	0.127
-201.348	-73.831	0.238	-0.086
-200.333	275.680	-0.191	-0.334
-199.319	4.350	-0.053	-0.038
-198.304	800.000	0.049	0.185
-197.290	-200.000	0.006	0.128
-196.275	-200.000	-0.028	0.159
-195.260	800.000	0.080	-0.243
-194.246	-185.973	0.430	-0.006
-193.231	-200.000	-0.003	-0.305
-192.217	-200.000	-0.017	-0.093
-191.202	800.000	0.067	-0.190
-190.187	-200.000	-0.005	-0.374
-189.173	-200.000	0.033	0.226
-188.158	-125.663	0.266	-0.040
-187.144	-44.620	0.268	-0.132
-186.129	-96.238	-0.043	0.011
-185.114	-200.000	-0.032	0.158
-184.100	-16.653	-0.149	-0.093
-183.085	57.638	0.244	0.236
-182.071	613.295	0.097	0.240
-181.056	-200.000	-0.021	0.203
-180.042	-200.000	-0.090	-0.516
-179.027	800.000	-0.102	-0.391
-178.012	-76.017	0.132	0.046
-176.998	327.564	-0.126	-0.239
-175.983	-169.287	-0.105	0.004
-174.969	-69.934	-0.482	0.181
-173.954	800.000	0.012	-0.034
-172.939	424.787	-0.120	0.254
-171.925	-121.039	-0.090	0.015
-170.910	-200.000	-0.030	-0.141
-169.896	-78.863	-0.104	0.035
-168.881	-141.396	0.158	0.016
-167.866	26.906	0.214	-0.177
-166.852	-116.389	-0.192	0.035
-165.837	-122.309	0.245	0.039
-164.823	112.436	-0.078	-0.093
-163.808	148.307	0.177	0.236
-162.793	180.008	0.178	-0.257
-161.779	-200.000	-0.084	0.461
-160.764	69.796	0.252	-0.256
-159.750	-121.804	-0.143	-0.023
-158.735	-192.770	0.047	0.000
-157.720	800.000	0.075	-0.276
-156.706	135.996	-0.334	-0.429
-155.691	-75.175	-0.186	-0.066
-154.677	-200.000	-0.024	0.149
-153.662	-118.610	-0.027	0.005
-152.647	485.273	-0.102	0.229
-151.633	-52.881	0.134	0.061
-150.618	-37.594	-0.072	0.038
-149.604	-108.417	0.245	0.052
-148.589	663.607	-0.046	0.118
-147.574	312.402	0.077	0.143
-146.560	582.340	0.040	-0.096
-145.545	-19.214	0.221	0.135
-144.531	-66.802	-0.251	0.098
-143.516	-39.750	-0.298	-0.153
-142.502	-85.557	0.435	-0.133
-141.487	15.945	-0.033	0.025
-140.472	-46.514	0.142	0.069
-139.458	-75.889	-0.350	0.122
-138.443	231.444	-0.159	0.257
-137.429	180.716	-0.170	0.247
-136.414	-200.000	0.023	0.211
-135.399	18.992	-0.221	0.174
-134.385	18.625	0.191	0.150
-133.370	390.854	-0.105	0.214
-132.356	-92.966	0.178	-0.049
-131.341	-3.261	0.145	-0.100
-130.326	-34.964	-0.258	0.139
-129.312	-24.801	0.327	0.191
-128.297	-200.000	0.043	0.408
-127.283	-136.376	-0.204	0.023
-126.268	-200.000	0.007	0.152
-125.253	746.242	0.038	0.102
-124.239	800.000	0.031	0.098
-123.224	91.571	-0.261	0.289
-122.210	-92.736	0.436	0.120
-121.195	-115.245	-0.166	-0.031
-120.180	82.778	0.158	-0.169
-119.166	-200.000	0.026	0.136
-118.151	-75.795	-0.143	0.050
-117.137	379.066	0.092	-0.185
-116.122	50.359	0.046	0.042
-115.107	-31.040	-0.070	0.039
-114.093	-200.000	0.015	0.263
-113.078	-43.499	0.383	-0.191
-112.064	-131.773	-0.227	0.029
-111.049	-41.088	0.126	0.064
-110.034	17.145	0.151	-0.118
-109.020	-110.908	0.143	0.029
-108.005	8.075	-0.223	0.164
-106.991	-200.000	0.028	-0.226
-105.976	-105.540	0.310	-0.069
-104.962	341.126	0.100	-0.192
-103.947	-86.028	-0.307	0.093
-102.932	-106.904	0.249	0.054
-101.918	-12.762	0.265	0.170
-100.903	-200.000	-0.056	0.605
-99.889	-93.866	-0.149	-0.040
-98.874	65.325	0.090	-0.089
-97.859	800.000	0.097	0.297
-96.845	-78.560	-0.137	0.046
-95.830	-60.055	0.133	0.056
-94.816	-34.853	0.348	0.187
-93.801	800.000	-0.087	0.277
-92.786	-0.920	-0.045	0.031
-91.772	-78.522	-0.170	0.057
-90.757	-34.514	0.180	0.097
-89.743	191.005	0.183	0.272
-88.728	-200.000	0.051	0.284
-87.713	114.619	-0.111	-0.134
-86.699	82.400	-0.248	0.265
-85.684	-200.000	-0.051	0.235
-84.670	425.516	0.176	-0.372
-83.655	79.502	0.228	0.240
-82.640	-60.914	0.250	0.104
-81.626	-200.000	0.001	-0.113
-80.611	73.665	-0.111	0.115
-79.597	30.892	-0.301	-0.254
-78.582	-115.419	-0.271	-0.050
-77.567	-200.000	0.008	-0.389
-76.553	-83.580	-0.075	0.024
-75.538	800.000	-0.017	0.059
-74.524	800.000	0.075	0.280
-73.509	-200.000	-0.015	0.348
-72.494	-200.000	0.036	0.228
-71.480	-2.264	-0.165	0.114
-70.465	-35.066	0.125	0.067
-69.451	410.753	0.066	-0.138
-68.436	-200.000	0.062	0.361
-67.422	-200.000	-0.010	-0.143
-66.407	11.290	-0.225	0.170
-65.392	368.349	0.115	-0.228
-64.378	322.600	-0.090	-0.169
-63.363	-90.265	0.354	-0.101
-62.349	599.013	0.140	0.342
-61.334	44.865	-0.914	-0.827
-60.319	18.667	0.695	0.546
-59.305	-200.000	-0.225	-1.128
-58.290	237.013	0.523	0.852
-57.276	164.654	1.045	1.449
-56.261	-200.000	97.893	600.741
-55.246	543.143	1378.020	3229.982
-54.232	161.309	2554.715	3509.488
-53.217	112.747	2131.441	2535.921
-52.203	43.539	1593.364	1431.255
-51.188	35.173	1331.106	1145.865
-50.173	31.960	1289.429	1091.291
-49.159	54.426	1337.799	1265.780
-48.144	56.563	1354.120	1293.809
-47.130	35.143	1312.850	1129.793
-46.115	31.736	1295.228	1094.714
-45.100	31.688	1289.739	1089.757
-44.086	31.555	1287.642	1087.169
-43.071	31.490	1285.370	1084.827
-42.057	31.472	1283.026	1082.702
-41.042	31.493	1281.723	1081.679
-40.027	31.553	1279.992	1080.523
-39.013	31.564	1278.414	1079.216
-37.998	31.680	1276.034	1077.829
-36.984	31.592	1274.938	1076.353
-35.969	31.621	1273.134	1074.954
-34.954	31.587	1271.344	1073.203
-33.940	31.669	1270.047	1072.537
-32.925	31.835	1268.417	1072.068
-31.911	31.689	1267.123	1070.100
-30.896	31.634	1265.842	1068.660
-29.881	31.758	1263.978	1067.751
-28.867	31.654	1263.048	1066.329
-27.852	31.722	1261.796	1065.620
-26.838	31.779	1260.128	1064.489
-25.823	31.702	1259.056	1063.108
-24.809	31.689	1257.496	1061.671
-23.794	31.627	1256.752	1060.652
-22.779	31.774	1254.708	1059.716
-21.765	31.738	1253.564	1058.504
-20.750	31.746	1252.263	1057.407
-19.736	31.710	1250.779	1055.910
-18.721	31.597	1249.942	1054.524
-17.706	31.603	1248.948	1053.680
-16.692	31.571	1247.493	1052.228
-15.677	31.568	1246.478	1051.314
-14.663	31.587	1244.993	1050.130
-13.648	31.601	1244.258	1049.543
-12.633	31.513	1242.894	1047.860
-11.619	31.536	1242.803	1047.869
-10.604	31.498	1241.956	1046.904
-9.590	31.544	1240.634	1046.001
-8.575	31.493	1240.045	1045.177
-7.560	31.585	1238.809	1044.612
-6.546	31.500	1238.328	1043.686
-5.531	31.522	1236.964	1042.623
-4.517	31.467	1236.540	1041.913
-3.502	31.556	1235.994	1041.908
-2.487	31.569	1234.355	1040.557
-1.473	31.463	1230.471	1036.656
-0.458	30.132	1215.581	1016.774
0.556	27.481	1199.547	982.537
1.571	24.475	1205.263	970.809
2.586	24.003	1220.606	980.482
3.600	23.409	1210.233	968.816
4.615	17.349	1137.776	879.493
5.629	7.117	1061.312	770.720
6.644	2.556	1040.717	733.883
7.659	2.235	1038.273	730.559
8.673	2.077	1036.586	728.555
9.688	2.104	1035.636	727.949
10.702	2.677	1034.443	729.775
11.717	9.499	1044.626	769.598
12.731	19.364	1058.601	827.388
13.746	24.209	1063.882	854.743
14.761	25.368	1064.888	861.036
15.775	25.352	1064.930	860.921
16.790	25.206	1064.004	859.395
17.804	25.211	1063.179	858.675
18.819	25.312	1062.837	858.805
19.834	25.484	1062.062	858.929
20.848	25.488	1061.837	858.690
21.863	25.386	1061.782	858.080
22.877	25.386	1061.014	857.382
23.892	25.323	1060.321	856.446
24.907	25.290	1059.681	855.697
25.921	25.370	1058.402	854.968
26.936	25.393	1056.969	853.848
27.950	25.300	1055.547	852.182
28.965	25.140	1053.996	850.096
29.980	25.240	1051.942	848.835
30.994	25.515	1051.566	849.757
32.009	25.449	1050.649	848.630
33.023	25.397	1048.970	846.955
34.038	25.379	1048.548	846.451
35.053	25.486	1047.750	846.236
36.067	25.451	1047.289	845.625
37.082	25.645	1046.169	845.560
38.096	25.732	1045.541	845.382
39.111	25.732	1044.789	844.700
40.126	25.522	1043.602	842.684
41.140	25.119	1041.684	839.172
42.155	24.871	1040.634	837.092
43.169	24.969	1039.501	836.567
44.184	25.108	1038.580	836.400
45.199	24.919	1037.511	834.583
46.213	25.096	1036.808	834.766
47.228	25.192	1036.373	834.793
48.242	25.306	1035.477	834.528
49.257	25.352	1034.798	834.117
50.271	25.499	1033.940	834.036
51.286	25.532	1033.284	833.583
52.301	25.570	1032.170	832.789
53.315	25.451	1030.912	831.151
54.330	25.246	1030.441	829.750
55.344	25.387	1030.050	830.013
56.359	25.225	1029.016	828.359
57.374	25.141	1027.630	826.781
58.388	25.130	1026.903	826.071
59.403	25.146	1025.876	825.248
60.417	24.862	1025.573	823.624
61.432	24.995	1024.628	823.402
62.447	25.268	1023.651	823.799
63.461	25.046	1023.456	822.550
64.476	25.003	1022.663	821.642
65.490	25.147	1020.958	820.861
66.505	25.102	1020.881	820.518
67.520	25.203	1019.836	820.068
68.534	24.858	1019.103	817.830
69.549	24.586	1017.988	815.621
70.563	24.633	1017.261	815.179
71.578	24.619	1016.466	814.406
72.593	24.319	1015.770	812.410
73.607	24.575	1015.315	813.143
74.622	24.960	1014.837	814.435
75.636	25.013	1013.637	813.641
76.651	24.887	1012.658	812.212
77.666	24.750	1012.361	811.282
78.680	24.803	1011.955	811.123
79.695	24.905	1010.926	810.690
80.709	24.896	1010.697	810.393
81.724	24.863	1009.984	809.601
82.739	25.056	1009.196	809.770
83.753	25.458	1008.576	811.015
84.768	25.657	1008.175	811.519
85.782	25.560	1007.397	810.385
86.797	25.601	1006.181	809.520
87.812	25.394	1005.482	807.955
88.826	25.563	1004.168	807.586
89.841	25.699	1003.116	807.277
90.855	25.619	1002.773	806.573
91.870	25.581	1002.236	805.898
92.884	25.535	1000.564	804.276
93.899	25.529	999.502	803.326
94.914	25.767	998.657	803.636
95.928	25.450	997.926	801.564
96.943	25.323	996.676	799.924
97.957	24.914	995.701	797.250
98.972	24.888	994.264	795.912
99.987	25.208	993.654	796.775
101.001	25.319	993.011	796.684
102.016	25.353	992.630	796.459
103.030	25.270	991.427	795.055
104.045	25.139	990.623	793.761
105.060	25.124	989.507	792.727
106.074	25.055	989.330	792.212
107.089	25.496	988.633	793.530
108.103	25.237	987.595	791.484
109.118	25.028	986.291	789.451
110.133	25.067	984.724	788.297
111.147	24.894	984.156	787.011
112.162	24.777	983.194	785.660
113.176	25.009	982.803	786.293
114.191	24.952	981.704	785.098
115.206	24.621	980.351	782.498
116.220	24.809	979.321	782.429
117.235	24.863	979.064	782.386
118.249	24.804	978.473	781.591
119.264	24.723	977.540	780.420
120.279	24.816	976.590	779.999
121.293	24.855	975.909	779.556
122.308	24.834	975.195	778.827
123.322	24.820	974.017	777.756
124.337	24.740	972.526	776.149
125.352	24.157	971.171	772.471
126.366	24.128	970.083	771.412
127.381	24.768	970.284	774.273
128.395	25.182	970.149	775.890
129.410	25.236	968.976	775.118
130.424	25.270	967.646	774.129
131.439	25.252	967.332	773.732
132.454	25.345	965.573	772.656
133.468	25.274	964.804	771.668
134.483	25.478	964.119	771.930
135.497	25.448	964.262	771.845
136.512	25.677	962.585	771.420
137.527	25.539	961.803	770.131
138.541	25.557	961.001	769.497
139.556	25.633	960.128	769.055
140.570	25.647	959.696	768.704
141.585	25.698	958.620	767.991
142.600	25.570	957.994	766.874
143.614	25.851	956.973	767.187
144.629	25.880	956.712	767.031
145.643	25.670	954.752	764.501
146.658	25.578	953.640	763.152
147.673	25.498	952.738	762.025
148.687	25.425	951.899	760.976
149.702	25.461	950.457	759.909
150.716	25.432	949.765	759.167
151.731	25.470	949.559	759.096
152.746	25.635	949.093	759.352
153.760	25.790	948.014	759.075
154.775	25.817	947.629	758.812
155.789	25.834	946.502	757.916
156.804	25.803	945.420	756.850
157.819	25.889	944.718	756.582
158.833	25.857	944.602	756.289
159.848	25.966	943.553	755.838
160.862	25.756	941.903	753.572
161.877	25.798	941.185	753.107
162.892	25.720	940.491	752.159
163.906	25.730	939.165	751.071
164.921	25.672	938.497	750.229
165.935	25.768	937.516	749.778
166.950	25.742	936.540	748.823
167.964	25.698	935.956	748.108
168.979	25.676	934.801	747.027
169.994	25.565	933.767	745.676
171.008	25.923	933.328	746.743
172.023	25.818	932.524	745.598
173.037	25.546	931.521	743.605
174.052	25.488	930.291	742.318
175.067	25.454	930.081	741.943
176.081	25.521	929.583	741.759
177.096	25.523	928.877	741.137
178.110	25.230	927.841	739.039
179.125	25.078	927.123	737.776
180.140	25.085	926.723	737.421
181.154	25.357	926.199	738.054
182.169	25.676	925.837	739.013
183.183	25.855	925.902	739.733
184.198	25.531	925.200	737.778
185.213	25.639	924.245	737.393
186.227	25.798	923.485	737.373
187.242	25.759	922.926	736.704
188.256	25.800	922.144	736.183
189.271	25.852	921.301	735.654
190.286	25.522	920.254	733.409
191.300	24.910	918.772	729.671
192.315	24.128	917.210	725.180
193.329	24.174	916.891	725.054
194.344	24.962	917.771	728.891
195.359	25.594	917.259	730.991
196.373	25.686	916.830	730.958
197.388	25.582	915.917	729.741
198.402	25.558	915.674	729.390
199.417	25.575	914.613	728.549
200.432	25.385	914.195	727.382
201.446	25.264	913.410	726.203
202.461	25.300	912.572	725.618
203.475	24.413	911.070	720.776
204.490	23.737	909.397	716.662
205.504	24.682	909.772	720.707
206.519	25.142	910.026	722.700
207.534	25.202	909.628	722.562
208.548	25.626	909.824	724.359
209.563	25.506	908.369	722.655
210.577	25.456	907.545	721.734
211.592	25.764	907.520	722.889
212.607	25.803	906.695	722.322
213.621	25.758	906.133	721.633
214.636	25.830	905.701	721.510
215.650	25.802	904.810	720.626
216.665	25.993	903.709	720.448
217.680	25.889	903.153	719.528
218.694	25.355	902.079	716.479
219.709	25.239	901.492	715.487
220.723	25.526	901.236	716.364
221.738	25.498	900.391	715.516
222.753	25.603	899.797	715.399
223.767	25.658	899.664	715.446
224.782	26.014	898.911	716.200
225.796	25.830	898.763	715.286
226.811	25.245	897.059	711.550
227.826	24.651	895.509	707.905
228.840	24.863	895.269	708.493
229.855	24.947	894.436	708.103
230.869	24.577	893.684	705.982
231.884	24.893	893.944	707.373
232.899	25.605	893.792	710.004
233.913	25.583	893.005	709.229
234.928	25.577	892.689	708.891
235.942	25.533	891.940	708.059
236.957	25.185	890.697	705.643
237.972	25.236	890.238	705.415
238.986	25.432	889.811	705.786
240.001	25.329	889.418	705.006
241.015	25.468	889.028	705.182
242.030	25.559	888.194	704.813
243.045	25.639	888.070	704.965
244.059	25.764	887.730	705.122
245.074	25.670	886.013	703.329
246.088	25.241	885.521	701.200
247.103	25.421	885.078	701.492
248.117	26.088	885.068	704.022
249.132	26.407	884.870	705.047
250.147	26.440	884.400	704.738
251.161	26.591	884.034	704.975
252.176	26.592	883.151	704.211
253.190	26.612	882.904	704.029
254.205	26.824	881.960	704.039
255.220	26.737	881.952	703.633
256.234	26.460	881.205	701.899
257.249	26.511	880.149	701.193
258.263	26.418	879.608	700.341
259.278	26.467	878.990	699.975
260.293	26.622	878.507	700.129
261.307	26.365	878.058	698.715
262.322	26.335	876.796	697.534
263.336	25.376	875.185	692.494
264.351	24.536	873.234	687.656
265.366	24.606	873.124	687.779
266.380	25.644	873.616	692.100
267.395	25.970	873.670	693.335
268.409	25.955	872.754	692.490
269.424	26.318	872.196	693.380
270.439	26.485	871.085	693.072
271.453	26.423	870.932	692.655
272.468	26.643	870.565	693.141
273.482	26.603	870.142	692.591
274.497	26.186	868.862	689.920
275.512	25.839	868.233	688.032
276.526	26.244	867.700	689.094
277.541	26.368	867.784	689.573
278.555	26.239	866.626	688.103
279.570	26.022	865.921	686.655
280.585	26.240	865.259	686.897
281.599	26.146	864.523	685.895
282.614	25.507	863.576	682.657
283.628	25.525	863.277	682.431
284.643	25.912	863.164	683.748
285.657	25.448	861.515	680.625
286.672	25.253	860.909	679.349
287.687	25.917	860.828	681.736
288.701	25.972	860.145	681.341
289.716	25.501	859.615	679.082
290.730	25.539	858.641	678.396
291.745	25.279	857.938	676.800
292.760	25.502	857.933	677.580
293.774	26.580	858.176	681.772
294.789	26.917	857.939	682.790
295.803	26.858	857.370	682.056
296.818	26.960	856.445	681.643
297.833	26.469	855.504	678.991
298.847	26.362	855.204	678.291
299.862	26.714	854.833	679.256
300.876	26.931	854.740	679.935
301.891	26.693	854.071	678.452
302.906	26.552	852.405	676.545
303.920	26.536	852.427	676.440
304.935	26.943	852.291	677.795
305.949	26.710	851.759	676.442
306.964	26.517	850.865	674.952
307.979	26.682	850.245	675.015
308.993	26.920	850.468	676.019
310.008	27.041	849.626	675.740
311.022	26.726	848.642	673.727
312.037	26.749	848.121	673.338
313.052	26.315	847.742	671.366
314.066	25.340	846.022	666.330
315.081	25.066	845.316	664.698
316.095	26.070	845.384	668.413
317.110	26.499	845.351	669.915
318.125	25.655	843.535	665.299
319.139	24.709	842.240	660.727
320.154	24.453	842.050	659.570
321.168	25.612	842.336	664.017
322.183	26.189	842.452	666.182
323.197	26.448	842.199	666.877
324.212	26.553	842.216	667.217
325.227	26.428	841.720	666.305
326.241	26.413	840.672	665.363
327.256	26.530	840.041	665.233
328.270	26.276	839.533	663.841
329.285	26.204	838.264	662.514
330.300	25.801	838.123	660.866
331.314	26.235	837.397	661.824
332.329	26.594	837.585	663.230
333.343	26.824	837.025	663.568
334.358	26.777	836.691	663.074
335.373	26.707	836.439	662.559
336.387	26.996	836.495	663.602
337.402	27.093	836.138	663.616
338.416	27.169	835.818	663.579
339.431	27.244	835.350	663.425
340.446	27.401	835.227	663.837
341.460	27.137	834.771	662.455
342.475	26.918	834.155	661.109
343.489	27.144	833.522	661.373
344.504	27.328	833.606	662.049
345.519	27.511	832.946	662.132
346.533	27.561	832.716	662.072
347.548	27.557	832.213	661.601
348.562	27.486	831.568	660.772
349.577	27.576	830.460	660.157
350.592	27.510	830.127	659.598
351.606	27.526	829.481	659.083
352.621	27.299	828.697	657.580
353.635	27.211	827.879	656.553
354.650	26.599	826.252	653.002
355.665	25.692	825.108	648.770
356.679	26.145	824.780	650.086
357.694	26.453	824.693	651.070
358.708	26.467	824.096	650.592
359.723	26.920	823.929	652.030
360.738	27.184	823.396	652.499
361.752	27.303	822.854	652.438
362.767	27.580	823.006	653.493
363.781	27.766	822.776	653.921
364.796	27.894	822.215	653.876
365.810	27.926	821.747	653.560
366.825	27.862	821.311	652.927
367.840	27.610	820.450	651.283
368.854	27.178	819.625	649.029
369.869	27.275	819.167	648.955
370.883	27.419	818.591	648.954
371.898	27.206	818.438	648.016
372.913	27.306	818.273	648.184
373.927	27.523	817.298	648.129
374.942	27.498	817.273	647.962
375.956	27.647	816.680	647.964
376.971	27.700	816.652	648.072
377.986	27.897	816.270	648.410
379.000	27.806	815.524	647.439
380.015	27.600	815.273	646.452
381.029	27.741	814.462	646.250
382.044	27.923	813.600	646.153
383.059	28.000	813.146	646.007
384.073	28.020	812.628	645.609
385.088	27.867	811.870	644.410
386.102	27.642	811.373	643.165
387.117	27.449	810.888	642.042
388.132	27.240	809.803	640.393
389.146	26.982	808.278	638.224
390.161	27.142	809.042	639.333
391.175	27.718	808.595	640.945
392.190	27.163	807.586	638.142
393.205	25.760	805.342	631.397
394.219	24.344	803.717	625.108
395.234	24.380	803.515	625.021
396.248	25.993	804.535	631.414
397.263	27.537	805.424	637.461
398.278	27.492	805.146	637.026
399.292	27.082	804.846	635.299
400.307	26.961	804.463	634.517
401.321	27.146	803.863	634.635
402.336	27.533	804.052	636.080
403.350	28.111	803.643	637.715
404.365	28.295	803.647	638.305
405.380	28.710	803.012	639.187
406.394	28.573	802.762	638.454
407.409	28.530	802.330	637.907
408.423	28.446	801.941	637.247
409.438	28.541	801.509	637.179
410.453	28.507	801.303	636.840
411.467	28.426	800.360	635.753
412.482	28.515	800.493	636.113
413.496	28.655	799.956	636.114
414.511	28.618	799.562	635.616
415.526	28.728	798.950	635.453
416.540	28.500	798.041	633.888
417.555	28.370	797.437	632.903
418.569	28.328	797.167	632.487
419.584	28.277	796.467	631.699
420.599	28.071	796.471	630.937
421.613	112.319	1287.274	1461.549
422.628	96.832	1358.744	1461.635
