DTS Sentinel unit serial number:	SN413079Multiplexer serial number:	ORYXHardware model number:	OX4-SRSoftware version number:	ORYX F/W v4.00 Oryx Data Collector v3.7.2.0data status	okinstallation	princeton_trtdifferential loss correction	single-endedforward channel	channel 1reverse channel	N/Adate	2019/09/12time	18:19:34forward acquisition time	15.00reverse acquisition time	0.00gamma	496.2192k internal	0.2317k external	0.2317temperature offset calibration	1.0109default loss term (dB/km)	0.3790temperature slope calibration	1.0000multiplexer offset coefficient	1.0000multiplexer slope coefficient	1.0000fibre end	0.00T internal ref (°C)	33.44T ext. ref 1 (°C)	2.99T ext. ref 2 (°C)	28.04length (m)	temperature (°C)	Stokes	anti-Stokes-747.200	800.000	0.093	0.334
-746.185	-2.453	0.452	-0.321
-745.171	-106.186	-0.327	-0.074
-744.156	105.770	0.225	-0.270
-743.142	60.933	-0.482	0.484
-742.127	-73.199	-0.668	-0.248
-741.112	582.703	0.479	-1.190
-740.098	-200.000	0.041	-0.465
-739.083	-83.886	-0.485	-0.156
-738.069	800.000	0.163	-0.575
-737.054	-93.543	0.829	0.232
-736.039	122.320	0.216	-0.273
-735.025	-83.097	0.413	-0.134
-734.010	-109.068	-0.392	0.085
-732.996	-53.759	-0.429	-0.198
-731.981	-103.640	0.371	0.088
-730.966	-184.241	-0.423	-0.007
-729.952	-64.876	-0.588	0.241
-728.937	-200.000	-0.023	-0.188
-727.923	103.811	-0.284	0.337
-726.908	-200.000	0.049	0.663
-725.894	-145.219	0.529	0.048
-724.879	-200.000	-0.060	-0.333
-723.864	-40.860	-0.232	-0.122
-722.850	-200.000	-0.009	0.155
-721.835	294.318	0.135	0.250
-720.821	54.538	-0.619	0.603
-719.806	-49.223	0.284	-0.137
-718.791	-2.580	-0.520	0.368
-717.777	153.948	0.407	0.564
-716.762	800.000	0.055	-0.229
-715.748	746.069	-0.213	-0.579
-714.733	-160.141	-0.412	-0.023
-713.718	-200.000	-0.005	0.098
-712.704	-200.000	0.097	-0.909
-711.689	150.180	-0.170	0.233
-710.675	-200.000	-0.152	-0.713
-709.660	19.538	-0.675	0.548
-708.645	475.782	-0.335	0.765
-707.631	-200.000	-0.035	-0.352
-706.616	109.879	0.152	0.184
-705.602	159.386	-0.538	-0.756
-704.587	0.620	0.028	0.020
-703.572	118.573	0.117	0.146
-702.558	492.783	0.011	0.024
-701.543	139.711	-0.273	0.363
-700.529	-62.963	0.516	-0.215
-699.514	81.434	0.179	0.196
-698.499	-199.314	-0.815	0.004
-697.485	-200.000	-0.046	-0.424
-696.470	800.000	0.363	-1.345
-695.456	800.000	0.033	0.106
-694.441	-3.197	-0.363	-0.256
-693.426	-110.679	-0.566	-0.118
-692.412	-72.848	-0.305	0.113
-691.397	-200.000	-0.020	-0.203
-690.383	69.528	0.283	-0.294
-689.368	800.000	-0.126	-0.546
-688.354	-200.000	0.108	0.557
-687.339	-120.135	-0.267	0.046
-686.324	-200.000	-0.026	-0.206
-685.310	-42.234	0.598	-0.309
-684.295	114.204	0.233	-0.287
-683.281	-121.842	0.277	0.046
-682.266	47.407	0.354	0.333
-681.251	12.862	0.329	-0.257
-680.237	554.378	0.125	0.303
-679.222	-91.689	-0.189	0.054
-678.208	438.009	0.347	0.764
-677.193	407.813	-0.585	1.248
-676.178	37.779	-0.334	-0.300
-675.164	124.428	0.433	0.550
-674.149	13.594	-0.244	-0.191
-673.135	-26.906	-0.575	-0.339
-672.120	800.000	-0.194	0.627
-671.105	-24.013	-0.429	0.259
-670.091	800.000	0.070	-0.198
-669.076	-4.321	0.511	-0.357
-668.062	-131.269	-0.341	-0.046
-667.047	228.711	-0.291	0.478
-666.032	-200.000	-0.007	-0.052
-665.018	-137.884	0.103	0.012
-664.003	379.217	-0.202	-0.417
-662.989	-30.070	-0.659	-0.378
-661.974	445.432	-0.406	0.900
-660.959	44.565	0.613	0.568
-659.945	14.676	-0.051	-0.040
-658.930	11.429	0.791	-0.612
-657.916	489.103	0.348	-0.802
-656.901	-174.670	0.167	-0.005
-655.886	800.000	-0.120	0.391
-654.872	323.647	0.056	-0.107
-653.857	800.000	0.072	-0.260
-652.843	17.887	-0.541	-0.434
-651.828	-200.000	0.073	0.667
-650.814	-25.692	-0.616	-0.366
-649.799	800.000	-0.080	0.296
-648.784	800.000	0.016	-0.044
-647.770	-200.000	0.035	0.186
-646.755	52.279	0.148	0.143
-645.741	-77.670	0.295	-0.103
-644.726	111.784	0.293	0.357
-643.711	-156.098	-0.313	-0.020
-642.697	-200.000	-0.105	0.722
-641.682	-101.689	-0.470	-0.115
-640.668	800.000	-0.157	0.520
-639.653	-200.000	-0.007	-0.243
-638.638	-38.960	0.281	-0.149
-637.624	30.022	-0.148	0.127
-636.609	108.715	0.582	-0.701
-635.595	48.958	-0.199	0.188
-634.580	51.849	1.073	1.029
-633.565	204.893	-0.273	0.428
-632.551	-31.384	-0.140	0.079
-631.536	63.803	-0.142	-0.144
-630.522	-128.245	-0.412	-0.059
-629.507	-69.755	0.047	-0.018
-628.492	-45.234	0.295	-0.148
-627.478	-200.000	0.084	0.493
-626.463	-64.019	-0.191	0.078
-625.449	163.799	-0.308	0.437
-624.434	43.122	0.206	-0.189
-623.419	-107.627	0.288	-0.063
-622.405	-129.049	-0.866	0.122
-621.390	-200.000	-0.113	0.505
-620.376	-89.664	0.734	-0.217
-619.361	102.697	-0.527	-0.622
-618.346	-200.000	-0.019	0.269
-617.332	273.810	0.367	0.654
-616.317	56.377	-0.338	0.331
-615.303	794.956	0.312	-0.865
-614.288	800.000	0.212	-0.695
-613.273	16.743	0.217	0.173
-612.259	800.000	0.065	-0.232
-611.244	800.000	-0.090	0.254
-610.230	35.541	0.569	-0.503
-609.215	800.000	-0.102	0.357
-608.201	-0.060	0.199	0.143
-607.186	175.836	0.136	0.198
-606.171	3.716	0.662	-0.486
-605.157	-200.000	0.046	-0.397
-604.142	-200.000	-0.016	0.806
-603.128	800.000	0.136	0.542
-602.113	333.012	-0.190	0.370
-601.098	-100.053	1.005	0.252
-600.084	-19.843	0.575	0.358
-599.069	-200.000	0.066	-0.353
-598.055	114.110	0.256	-0.314
-597.040	-158.873	0.597	0.034
-596.025	-98.486	0.331	-0.085
-595.011	-200.000	-0.028	-0.204
-593.996	800.000	-0.328	1.039
-592.982	-183.623	0.882	-0.015
-591.967	-200.000	0.036	0.259
-590.952	-200.000	-0.049	0.512
-589.938	-117.206	0.537	0.098
-588.923	-200.000	0.034	0.800
-587.909	-99.900	-0.588	0.148
-586.894	-132.077	0.355	-0.046
-585.879	800.000	-0.115	-0.453
-584.865	-200.000	-0.025	0.397
-583.850	-200.000	-0.009	0.390
-582.836	-48.741	-0.615	0.297
-581.821	-38.231	-0.316	-0.169
-580.806	74.723	-0.153	0.162
-579.792	-28.889	0.111	-0.064
-578.777	-61.056	-0.331	-0.141
-577.763	361.573	-0.150	-0.303
-576.748	758.959	-0.139	-0.379
-575.733	385.246	-0.146	0.303
-574.719	-113.448	0.144	0.028
-573.704	319.734	-0.190	0.363
-572.690	-184.322	0.556	-0.009
-571.675	49.436	0.187	-0.177
-570.661	126.586	0.186	-0.236
-569.646	-200.000	0.027	-0.478
-568.631	287.257	-0.413	-0.750
-567.617	-7.850	-0.505	0.343
-566.602	-200.000	0.045	0.244
-565.588	127.964	0.294	0.376
-564.573	158.919	0.206	0.288
-563.558	59.025	-0.034	-0.034
-562.544	-33.854	-0.669	-0.370
-561.529	95.232	-0.100	0.115
-560.515	15.886	0.442	0.350
-559.500	-111.407	-0.826	0.169
-558.485	-81.418	-0.069	0.023
-557.471	110.471	0.102	-0.123
-556.456	800.000	0.108	-0.392
-555.442	50.846	-0.296	0.282
-554.427	-78.313	-0.166	-0.057
-553.412	203.715	-0.211	-0.329
-552.398	-200.000	0.010	0.674
-551.383	18.035	-0.218	-0.174
-550.369	63.051	0.434	-0.436
-549.354	217.809	-0.464	-0.743
-548.339	-99.336	0.069	-0.018
-547.325	-200.000	0.055	-0.637
-546.310	132.770	0.330	-0.428
-545.296	800.000	-0.275	1.055
-544.281	-98.347	-0.765	-0.197
-543.266	102.014	-0.283	0.332
-542.252	-85.363	0.573	-0.179
-541.237	-28.122	0.332	-0.193
-540.223	-45.067	-0.115	-0.058
-539.208	-9.863	0.698	0.467
-538.193	87.934	0.090	0.100
-537.179	-51.814	-0.110	0.052
-536.164	144.408	-0.063	-0.085
-535.150	-140.885	0.472	-0.049
-534.135	-34.629	-0.606	-0.333
-533.121	-200.000	0.064	-0.727
-532.106	-12.692	0.704	-0.461
-531.091	30.895	-0.433	0.372
-530.077	-200.000	-0.055	-0.690
-529.062	-145.095	0.471	0.043
-528.048	-49.168	-0.840	-0.403
-527.033	331.423	0.310	0.601
-526.018	-200.000	0.040	-0.415
-525.004	52.915	-0.518	-0.497
-523.989	48.136	0.529	0.496
-522.975	-41.228	-0.780	-0.404
-521.960	-125.602	-0.971	0.148
-520.945	-7.264	-0.236	-0.161
-519.931	85.657	0.036	0.039
-518.916	275.752	0.116	-0.207
-517.902	333.458	-0.261	0.506
-516.887	445.863	0.542	1.195
-515.872	-176.230	0.102	0.003
-514.858	422.213	-0.166	0.357
-513.843	40.097	-0.197	0.178
-512.829	-200.000	0.161	-0.845
-511.814	275.903	0.183	-0.326
-510.799	800.000	0.053	-0.178
-509.785	-200.000	0.012	-1.067
-508.770	336.969	-0.135	-0.263
-507.756	98.606	-0.528	0.611
-506.741	-87.869	0.548	-0.165
-505.726	128.618	-0.126	-0.162
-504.712	459.810	-0.269	0.600
-503.697	-9.873	0.568	-0.379
-502.683	800.000	0.209	-0.833
-501.668	1.287	0.215	-0.155
-500.653	242.941	0.441	-0.741
-499.639	205.500	-0.224	-0.349
-498.624	-141.745	0.336	0.034
-497.610	-15.602	-0.873	0.559
-496.595	296.357	-0.358	0.659
-495.581	-55.923	-0.153	-0.068
-494.566	-48.594	-0.412	-0.199
-493.551	-14.698	0.042	0.027
-492.537	-60.496	0.259	0.110
-491.522	-75.744	-0.377	-0.134
-490.508	14.647	-0.352	-0.276
-489.493	-78.862	0.616	0.210
-488.478	-200.000	-0.116	0.876
-487.464	12.894	-0.437	-0.339
-486.449	-54.194	0.280	0.128
-485.435	-200.000	0.055	0.631
-484.420	-159.160	-0.210	-0.012
-483.405	-200.000	0.057	0.623
-482.391	269.727	0.004	0.007
-481.376	-28.281	-0.144	0.083
-480.362	-189.455	-0.574	-0.007
-479.347	800.000	0.113	0.479
-478.332	800.000	0.154	0.452
-477.318	800.000	0.184	0.596
-476.303	-93.142	-0.396	-0.110
-475.289	800.000	-0.197	-0.584
-474.274	656.880	0.112	0.288
-473.259	-24.801	-0.126	-0.075
-472.245	-94.931	1.024	0.278
-471.230	-109.142	-0.544	0.116
-470.216	-122.757	-0.473	0.077
-469.201	-67.733	0.453	-0.177
-468.186	262.859	-0.213	0.370
-467.172	-121.619	-0.350	0.058
-466.157	90.101	0.597	0.669
-465.143	40.923	-0.732	0.661
-464.128	-29.174	0.427	0.245
-463.113	259.998	-0.353	0.611
-462.099	-37.996	-0.255	0.136
-461.084	174.450	0.754	-1.092
-460.070	800.000	-0.279	0.809
-459.055	-81.636	0.190	0.063
-458.040	-200.000	-0.040	-0.264
-457.026	60.498	-0.296	0.294
-456.011	-37.643	-0.340	-0.181
-454.997	593.197	0.370	-0.915
-453.982	53.973	-0.303	-0.292
-452.968	-58.202	0.933	0.407
-451.953	-30.955	-0.323	0.182
-450.938	105.601	-0.713	-0.843
-449.924	7.927	-0.442	-0.332
-448.909	1.447	0.477	0.343
-447.895	351.465	-0.331	-0.656
-446.880	-200.000	-0.093	-0.650
-445.865	64.154	0.103	0.104
-444.851	332.739	-0.020	-0.038
-443.836	-200.000	-0.086	0.891
-442.822	27.168	-0.304	0.256
-441.807	-200.000	0.027	0.354
-440.792	-200.000	-0.045	0.222
-439.778	-200.000	0.064	0.780
-438.763	253.212	-0.376	-0.641
-437.749	-200.000	0.097	-0.734
-436.734	272.083	-0.337	-0.594
-435.719	-40.056	0.178	-0.093
-434.705	800.000	0.072	-0.253
-433.690	82.166	-0.254	-0.276
-432.676	50.588	0.498	-0.471
-431.661	-87.084	-0.122	-0.037
-430.646	-151.193	-0.496	-0.037
-429.632	74.627	0.460	-0.484
-428.617	68.687	-0.587	0.602
-427.603	800.000	0.277	0.768
-426.588	305.907	-0.297	0.553
-425.573	101.081	0.105	-0.122
-424.559	-72.072	-0.700	0.260
-423.544	434.590	0.201	-0.437
-422.530	-102.177	0.236	-0.057
-421.515	-17.293	-0.205	-0.129
-420.500	-75.304	-0.082	-0.029
-419.486	-143.648	0.519	0.049
-418.471	95.491	-0.283	-0.322
-417.457	-136.991	0.368	0.042
-416.442	105.170	-0.341	0.403
-415.428	-0.470	-0.472	0.335
-414.413	-137.453	0.695	-0.079
-413.398	-200.000	0.055	-0.663
-412.384	182.252	0.297	-0.438
-411.369	800.000	0.257	-0.926
-410.355	-89.174	0.411	-0.121
-409.340	-200.000	0.002	0.704
-408.325	494.884	0.386	0.887
-407.311	166.971	0.295	0.419
-406.296	-94.967	0.204	0.055
-405.282	165.021	0.183	0.259
-404.267	-168.666	-0.092	-0.003
-403.252	139.911	-0.227	0.299
-402.238	-72.990	-0.471	-0.173
-401.223	-186.585	0.741	-0.011
-400.209	229.438	0.408	-0.666
-399.194	800.000	-0.293	-0.935
-398.179	-200.000	0.014	-0.175
-397.165	-128.509	0.740	0.105
-396.150	800.000	-0.145	-0.491
-395.136	37.601	-0.297	0.263
-394.121	45.304	0.586	-0.540
-393.106	-24.527	-0.295	0.175
-392.092	41.180	-0.636	0.574
-391.077	47.270	0.478	0.444
-390.063	800.000	-0.454	-1.338
-389.048	-79.559	-0.579	-0.195
-388.033	251.223	0.068	0.116
-387.019	-2.714	0.621	-0.434
-386.004	-69.378	-0.628	-0.241
-384.990	516.786	0.128	-0.298
-383.975	223.976	-0.302	0.487
-382.960	-12.077	-0.403	-0.263
-381.946	-200.000	0.059	0.786
-380.931	-200.000	-0.048	-0.306
-379.917	316.491	0.177	-0.334
-378.902	-86.859	0.705	0.215
-377.888	-67.279	-0.304	0.120
-376.873	-54.918	-0.459	0.207
-375.858	198.001	0.291	-0.444
-374.844	213.525	0.417	-0.658
-373.829	-89.815	0.657	-0.192
-372.815	346.576	0.211	-0.413
-371.800	-10.239	0.318	0.211
-370.785	-200.000	0.199	0.929
-369.771	-37.060	0.579	-0.309
-368.756	-50.210	-0.832	0.393
-367.742	-76.325	0.503	-0.177
-366.727	-89.046	-0.990	-0.292
-365.712	-106.935	-0.332	-0.073
-364.698	-116.182	0.768	-0.142
-363.683	569.151	0.285	0.691
-362.669	229.088	-0.184	-0.300
-361.654	-9.846	-0.097	-0.065
-360.639	-147.671	0.485	-0.041
-359.625	-10.795	0.129	-0.085
-358.610	800.000	0.141	-0.472
-357.596	355.211	0.287	0.570
-356.581	800.000	-0.185	0.513
-355.566	27.443	0.388	0.325
-354.552	-200.000	0.149	0.750
-353.537	-116.362	-0.287	0.053
-352.523	-200.000	-0.088	-0.695
-351.508	-200.000	-0.131	0.727
-350.493	14.595	-0.113	-0.088
-349.479	-61.141	0.774	0.325
-348.464	-200.000	-0.145	0.742
-347.450	-56.598	-0.564	0.249
-346.435	-88.227	-0.399	-0.119
-345.420	-117.271	-0.651	0.118
-344.406	-19.538	0.041	0.025
-343.391	-30.384	0.376	-0.213
-342.377	800.000	-0.054	-0.216
-341.362	-171.848	0.578	-0.019
-340.348	-200.000	0.073	0.340
-339.333	-74.020	-0.790	-0.285
-338.318	-200.000	-0.032	-0.319
-337.304	159.616	-0.082	0.113
-336.289	-7.166	0.205	-0.138
-335.275	-200.000	0.018	0.120
-334.260	-200.000	-0.030	-0.815
-333.245	-200.000	-0.064	-1.156
-332.231	-200.000	0.049	0.735
-331.216	304.087	0.468	0.865
-330.202	-200.000	0.060	0.508
-329.187	521.380	0.204	-0.476
-328.172	19.667	-0.746	-0.598
-327.158	-24.884	-0.483	0.286
-326.143	-19.555	0.266	0.164
-325.129	-200.000	0.147	-0.718
-324.114	157.957	-0.472	0.651
-323.099	269.286	0.314	0.549
-322.085	-0.861	0.176	-0.124
-321.070	7.930	0.301	0.225
-320.056	629.188	-0.161	0.404
-319.041	-2.884	0.397	0.277
-318.026	800.000	-0.193	-0.632
-317.012	86.846	0.370	-0.407
-315.997	48.123	-0.452	0.421
-314.983	70.518	0.091	0.093
-313.968	-30.863	-0.865	-0.486
-312.953	-15.081	-0.662	0.422
-311.939	-122.480	0.895	-0.145
-310.924	181.751	-0.321	0.471
-309.910	549.533	-0.149	-0.355
-308.895	-155.867	0.265	0.017
-307.880	-200.000	0.093	0.725
-306.866	-39.976	-0.406	-0.211
-305.851	-68.299	0.042	0.016
-304.837	-200.000	0.132	1.035
-303.822	-111.429	-0.451	-0.092
-302.807	-68.123	0.649	-0.251
-301.793	-200.000	0.128	-0.635
-300.778	-75.958	0.650	0.229
-299.764	117.895	0.606	-0.743
-298.749	377.832	0.410	0.834
-297.735	37.381	-0.798	0.704
-296.720	-48.133	0.215	0.104
-295.705	-100.796	0.528	-0.129
-294.691	-94.652	0.219	-0.059
-293.676	89.411	-0.257	-0.285
-292.662	-52.385	0.081	0.037
-291.647	101.472	-0.507	0.588
-290.632	37.762	1.026	-0.906
-289.618	-200.000	0.058	0.750
-288.603	15.273	-0.152	-0.119
-287.589	401.158	-0.361	-0.754
-286.574	12.568	0.363	-0.279
-285.559	-5.811	-0.507	-0.345
-284.545	-16.109	-0.681	-0.430
-283.530	45.167	0.215	0.197
-282.516	-74.214	0.517	-0.186
-281.501	271.423	-0.251	-0.439
-280.486	111.946	-0.335	0.402
-279.472	389.331	-0.111	-0.229
-278.457	-130.154	-0.609	0.083
-277.443	800.000	-0.198	-0.699
-276.428	3.610	0.564	-0.409
-275.413	-160.836	-0.599	-0.031
-274.399	180.783	-0.049	0.071
-273.384	209.510	0.225	0.351
-272.370	230.162	0.036	-0.059
-271.355	-5.800	0.317	0.215
-270.340	643.583	0.290	0.735
-269.326	800.000	-0.147	0.427
-268.311	17.878	-0.319	0.252
-267.297	-111.502	-0.643	-0.130
-266.282	-200.000	0.008	-0.129
-265.267	-200.000	-0.030	0.561
-264.253	310.164	-0.143	-0.266
-263.238	230.001	-0.353	-0.573
-262.224	-127.268	-0.166	-0.024
-261.209	-200.000	-0.026	-0.594
-260.195	178.259	-0.467	-0.677
-259.180	-43.955	0.922	0.460
-258.165	-89.437	0.486	0.142
-257.151	672.760	0.191	0.493
-256.136	-53.860	0.935	0.424
-255.122	783.275	0.073	0.198
-254.107	65.753	0.295	0.297
-253.092	187.349	-0.350	0.518
-252.078	-200.000	-0.075	0.551
-251.063	203.298	-0.377	-0.579
-250.049	94.102	0.676	-0.762
-249.034	-49.874	-0.423	-0.200
-248.019	112.130	-0.644	0.773
-247.005	-71.404	-0.289	-0.108
-245.990	800.000	0.067	-0.201
-244.976	47.520	0.483	-0.447
-243.961	23.486	-0.286	0.234
-242.946	438.107	0.094	-0.203
-241.932	-71.785	0.267	0.099
-240.917	-169.759	-0.421	-0.015
-239.903	-110.329	-0.597	0.123
-238.888	-130.929	-0.185	0.025
-237.873	-13.263	-0.187	-0.120
-236.859	-1.020	-0.259	0.182
-235.844	-200.000	-0.079	0.585
-234.830	-200.000	0.003	0.189
-233.815	800.000	-0.094	0.393
-232.800	226.189	0.100	0.161
-231.786	158.417	0.290	-0.399
-230.771	-132.144	1.102	-0.142
-229.757	-81.014	-0.127	0.042
-228.742	38.239	0.092	-0.081
-227.727	506.997	0.169	-0.388
-226.713	-5.708	-0.290	-0.197
-225.698	-41.995	-0.599	0.304
-224.684	-50.210	0.740	0.347
-223.669	-200.000	-0.090	0.882
-222.655	86.760	0.484	-0.530
-221.640	-52.439	-0.294	0.135
-220.625	341.064	0.612	-1.187
-219.611	570.505	0.075	0.182
-218.596	-112.127	-0.287	-0.057
-217.582	300.945	-0.084	0.154
-216.567	-200.000	-0.162	1.186
-215.552	316.754	0.423	0.793
-214.538	483.760	0.135	-0.305
-213.523	534.332	0.480	1.129
-212.509	-40.261	0.418	-0.216
-211.494	105.792	-0.688	0.807
-210.479	-192.931	-0.252	0.002
-209.465	2.425	-0.746	-0.535
-208.450	-200.000	0.044	0.426
-207.436	-200.000	0.071	-0.376
-206.421	-90.887	-0.498	0.142
-205.406	592.702	0.033	-0.080
-204.392	489.283	-0.170	0.385
-203.377	-10.490	0.482	-0.316
-202.363	-200.000	-0.008	-0.472
-201.348	431.044	0.186	-0.400
-200.333	218.185	-0.253	0.400
-199.319	-200.000	-0.090	0.444
-198.304	800.000	-0.201	-0.710
-197.290	-200.000	0.006	-0.213
-196.275	51.986	-0.122	0.115
-195.260	-200.000	-0.045	-0.625
-194.246	119.414	0.230	-0.282
-193.231	-200.000	-0.036	-0.235
-192.217	73.829	-0.259	-0.269
-191.202	-200.000	-0.031	-1.041
-190.187	7.281	0.958	-0.708
-189.173	-41.391	-0.786	-0.401
-188.158	338.297	0.080	0.154
-187.144	224.287	0.227	0.363
-186.129	317.745	-0.260	-0.487
-185.114	-92.123	0.227	-0.063
-184.100	250.994	-0.341	-0.574
-183.085	8.626	0.566	0.422
-182.071	462.811	-0.045	0.100
-181.056	13.090	-0.864	-0.662
-180.042	116.126	-0.098	0.119
-179.027	453.207	-0.402	-0.881
-178.012	-86.535	-0.605	-0.184
-176.998	94.858	0.188	-0.211
-175.983	33.284	0.168	-0.145
-174.969	-200.000	0.058	-0.694
-173.954	-200.000	0.175	-0.903
-172.939	-84.088	-0.614	-0.193
-171.925	-93.755	0.310	-0.085
-170.910	-19.774	-0.322	-0.197
-169.896	175.127	-0.240	0.344
-168.881	153.963	0.613	-0.832
-167.866	-62.161	-0.532	0.219
-166.852	-72.531	-0.747	0.273
-165.837	-4.259	0.523	-0.358
-164.823	0.679	0.355	0.251
-163.808	305.827	-0.164	0.301
-162.793	228.682	-0.430	-0.694
-161.779	-38.495	0.663	-0.347
-160.764	168.072	0.265	0.373
-159.750	83.037	-0.665	0.716
-158.735	-126.910	1.081	-0.157
-157.720	-83.178	0.362	0.115
-156.706	-16.882	-0.491	-0.307
-155.691	-26.839	0.223	0.129
-154.677	-60.769	-0.771	0.323
-153.662	-200.000	0.153	-0.924
-152.647	4.960	0.223	0.162
-151.633	-38.570	0.628	0.328
-150.618	-200.000	-0.053	-0.246
-149.604	1.946	-0.555	0.396
-148.589	-149.965	-0.447	0.034
-147.574	-200.000	0.001	0.025
-146.560	-18.630	-0.646	-0.399
-145.545	800.000	-0.135	-0.490
-144.531	-120.839	0.342	0.057
-143.516	14.226	0.266	0.205
-142.502	33.752	-0.285	-0.245
-141.487	323.446	-0.086	0.162
-140.472	-163.944	0.574	-0.026
-139.458	-200.000	0.067	0.620
-138.443	-8.403	-0.130	-0.087
-137.429	304.328	-0.389	0.714
-136.414	180.138	-0.415	0.601
-135.399	-117.189	-0.489	-0.088
-134.385	-200.000	0.092	0.605
-133.370	24.075	-0.318	-0.259
-132.356	-55.493	0.516	0.229
-131.341	-200.000	0.042	-0.890
-130.326	-200.000	-0.148	-0.937
-129.312	-118.822	-0.211	-0.037
-128.297	-66.198	0.255	-0.100
-127.283	-200.000	0.016	-1.199
-126.268	-7.051	-0.096	0.065
-125.253	-133.914	1.258	0.154
-124.239	-163.528	0.120	-0.006
-123.224	-103.808	-0.565	-0.131
-122.210	8.927	-0.488	-0.364
-121.195	-64.885	0.443	0.177
-120.180	59.017	0.378	0.367
-119.166	-50.604	-0.555	-0.258
-118.151	31.685	0.166	0.141
-117.137	-40.433	-0.445	0.228
-116.122	-200.000	0.166	0.895
-115.107	50.757	-0.210	0.196
-114.093	726.372	-0.301	0.792
-113.078	-65.871	0.957	0.378
-112.064	543.502	0.319	-0.752
-111.049	568.165	0.091	-0.218
-110.034	-20.085	0.486	-0.296
-109.020	435.808	-0.174	0.374
-108.005	276.574	-0.181	0.317
-106.991	800.000	0.122	-0.385
-105.976	32.409	0.688	-0.587
-104.962	-29.472	-0.357	-0.202
-103.947	-200.000	-0.012	0.459
-102.932	-24.141	-0.325	-0.191
-101.918	36.822	-0.034	-0.030
-100.903	139.111	0.662	0.860
-99.889	-114.647	-0.431	-0.081
-98.874	-200.000	-0.047	0.396
-97.859	-139.594	-0.554	0.058
-96.845	-200.000	0.042	0.641
-95.830	-93.460	0.804	0.220
-94.816	800.000	-0.138	-0.594
-93.801	301.390	0.210	0.383
-92.786	196.096	0.146	0.219
-91.772	-92.754	-0.248	-0.068
-90.757	-200.000	0.160	1.105
-89.743	-18.320	-0.664	0.409
-88.728	49.346	-0.195	-0.181
-87.713	-1.553	0.374	0.260
-86.699	187.263	-0.362	-0.533
-85.684	-170.544	0.477	-0.016
-84.670	-143.422	-0.691	0.065
-83.655	-72.954	0.316	-0.115
-82.640	-200.000	0.094	0.884
-81.626	-100.789	-0.442	0.107
-80.611	58.634	-0.151	0.146
-79.597	800.000	0.113	0.373
-78.582	-127.722	-0.533	-0.076
-77.567	-89.712	-0.484	0.140
-76.553	368.879	-0.292	-0.582
-75.538	25.389	0.254	0.208
-74.524	9.069	0.290	0.216
-73.509	-200.000	0.056	0.916
-72.494	506.406	-0.103	0.235
-71.480	-200.000	0.041	-0.577
-70.465	-200.000	-0.011	-0.262
-69.451	-200.000	0.049	0.321
-68.436	21.097	-0.435	0.348
-67.422	800.000	-0.345	-1.435
-66.407	-109.960	-0.608	-0.126
-65.392	-37.993	0.910	-0.477
-64.378	-109.132	-0.295	-0.062
-63.363	62.037	-0.181	-0.178
-62.349	151.109	-0.341	0.457
-61.334	160.850	-0.831	-1.144
-60.319	-122.462	1.054	0.169
-59.305	286.805	-0.265	-0.472
-58.290	-25.233	0.357	0.208
-57.276	260.145	0.985	1.677
-56.261	-200.000	96.226	575.619
-55.246	633.336	1378.037	3441.887
-54.232	198.722	2545.558	3840.037
-53.217	118.645	2131.084	2592.942
-52.203	44.986	1598.825	1450.852
-51.188	36.885	1339.586	1167.008
-50.173	33.884	1297.693	1112.920
-49.159	57.238	1347.678	1295.615
-48.144	58.157	1364.986	1317.678
-47.130	36.921	1321.658	1151.422
-46.115	33.579	1303.667	1116.072
-45.100	33.216	1300.135	1110.872
-44.086	33.469	1296.501	1109.208
-43.071	33.283	1295.372	1107.107
-42.057	33.343	1291.064	1103.730
-41.042	33.118	1291.562	1102.799
-40.027	33.039	1289.961	1100.929
-39.013	33.284	1288.138	1100.756
-37.998	33.388	1285.974	1099.466
-36.984	33.488	1283.742	1098.098
-35.969	33.283	1281.836	1095.233
-34.954	33.574	1280.884	1096.058
-33.940	33.552	1279.762	1094.930
-32.925	33.904	1277.229	1094.747
-31.911	33.497	1276.720	1091.926
-30.896	33.445	1275.506	1090.545
-29.881	33.625	1272.715	1089.148
-28.867	33.563	1271.927	1088.074
-27.852	33.594	1270.638	1087.104
-26.838	33.548	1269.640	1085.948
-25.823	33.289	1269.030	1083.894
-24.809	33.380	1267.244	1082.846
-23.794	33.652	1265.257	1082.660
-22.779	33.712	1264.663	1082.453
-21.765	33.722	1263.171	1081.188
-20.750	33.637	1262.103	1079.750
-19.736	33.744	1260.920	1079.300
-18.721	33.186	1260.142	1075.420
-17.706	33.139	1259.446	1074.518
-16.692	33.578	1256.464	1074.420
-15.677	33.495	1256.095	1073.589
-14.663	33.082	1256.121	1071.227
-13.648	33.478	1254.193	1071.783
-12.633	33.231	1253.307	1069.586
-11.619	33.192	1253.457	1069.450
-10.604	32.999	1252.572	1067.564
-9.590	33.264	1251.710	1068.286
-8.575	33.542	1248.993	1067.486
-7.560	33.115	1249.673	1065.621
-6.546	33.589	1248.143	1066.942
-5.531	33.325	1247.953	1065.250
-4.517	33.282	1246.577	1063.793
-3.502	33.332	1245.940	1063.488
-2.487	33.380	1244.689	1062.649
-1.473	33.216	1240.490	1058.105
-0.458	31.890	1225.309	1037.782
0.556	28.959	1207.260	997.100
1.571	24.907	1213.437	979.989
2.586	24.194	1227.387	987.217
3.600	23.364	1219.017	975.831
4.615	17.384	1144.949	885.424
5.629	7.472	1069.617	778.675
6.644	3.503	1048.328	743.990
7.659	2.951	1046.228	739.776
8.673	2.613	1044.744	737.038
9.688	2.897	1043.172	737.228
10.702	3.139	1042.312	737.716
11.717	9.478	1050.402	773.933
12.731	19.112	1065.184	831.512
13.746	24.631	1071.408	863.029
14.761	25.938	1072.115	869.833
15.775	25.658	1072.038	868.342
16.790	25.613	1071.196	867.366
17.804	25.488	1070.191	865.876
18.819	25.721	1069.805	866.609
19.834	25.867	1069.354	866.870
20.848	25.743	1069.112	866.002
21.863	25.683	1068.872	865.441
22.877	25.816	1068.123	865.399
23.892	25.822	1067.568	864.898
24.907	25.801	1066.031	863.477
25.921	25.654	1065.556	862.310
26.936	25.498	1064.178	860.373
27.950	25.803	1061.915	859.926
28.965	25.493	1061.331	857.897
29.980	25.552	1059.590	856.693
30.994	25.790	1058.240	856.658
32.009	25.941	1057.585	856.772
33.023	25.732	1056.320	854.678
34.038	25.769	1055.865	854.411
35.053	25.483	1055.911	853.015
36.067	25.440	1055.359	852.287
37.082	25.728	1053.604	852.157
38.096	26.028	1052.569	852.663
39.111	25.526	1052.885	850.470
40.126	25.960	1050.786	850.751
41.140	25.742	1048.845	848.075
42.155	25.651	1047.230	846.265
43.169	25.309	1046.852	844.278
44.184	25.331	1046.869	844.320
45.199	24.953	1046.071	841.825
46.213	25.340	1045.072	842.767
47.228	25.704	1044.031	843.556
48.242	26.047	1042.934	844.203
49.257	25.834	1042.444	842.734
50.271	26.019	1041.554	842.802
51.286	25.915	1040.541	841.423
52.301	25.942	1039.849	840.915
53.315	25.771	1038.666	839.086
54.330	25.617	1037.632	837.464
55.344	25.335	1039.310	837.425
56.359	25.778	1035.971	836.719
57.374	25.664	1035.385	835.642
58.388	25.430	1034.338	833.642
59.403	25.257	1034.039	832.522
60.417	25.356	1032.944	832.026
61.432	25.472	1033.120	832.630
62.447	25.649	1031.857	832.359
63.461	25.568	1031.123	831.317
64.476	25.500	1030.555	830.471
65.490	25.267	1029.768	828.690
66.505	25.451	1029.103	828.929
67.520	25.526	1027.817	828.169
68.534	25.337	1026.915	826.496
69.549	25.104	1025.057	823.857
70.563	25.257	1024.701	824.203
71.578	24.897	1024.852	822.595
72.593	24.829	1024.340	821.798
73.607	24.745	1023.442	820.622
74.622	25.354	1023.105	823.072
75.636	25.524	1021.783	822.712
76.651	25.131	1021.382	820.521
77.666	24.965	1022.051	820.222
78.680	25.041	1020.351	819.133
79.695	25.211	1018.616	818.445
80.709	25.441	1019.127	819.834
81.724	25.354	1018.271	818.673
82.739	25.408	1017.137	817.938
83.753	25.602	1017.412	818.969
84.768	26.268	1015.689	820.534
85.782	26.110	1014.909	819.114
86.797	26.148	1013.764	818.289
87.812	25.809	1014.261	817.080
88.826	26.043	1012.815	816.905
89.841	26.222	1011.539	816.614
90.855	26.195	1010.871	815.882
91.870	25.989	1010.183	814.320
92.884	25.879	1008.701	812.561
93.899	26.204	1007.525	813.002
94.914	26.128	1007.295	812.404
95.928	26.225	1006.128	811.827
96.943	25.723	1005.461	808.963
97.957	25.703	1002.931	806.765
98.972	25.706	1002.634	806.467
99.987	25.356	1003.335	805.391
101.001	25.812	1001.680	806.031
102.016	26.169	1000.274	806.426
103.030	25.934	999.059	804.327
104.045	25.632	999.080	802.925
105.060	25.421	998.733	801.633
106.074	25.807	997.412	802.221
107.089	26.135	997.431	803.625
108.103	25.757	995.490	800.312
109.118	25.755	994.462	799.404
110.133	25.543	993.540	797.650
111.147	25.590	991.262	795.959
112.162	25.250	991.718	794.751
113.176	25.542	990.480	794.978
114.191	25.480	989.745	794.044
115.206	24.992	989.390	791.533
116.220	24.913	990.041	791.636
117.235	25.334	987.285	791.216
118.249	24.967	987.424	789.643
119.264	25.296	985.615	789.573
120.279	25.449	984.777	789.503
121.293	25.673	983.745	789.591
122.308	25.465	982.603	787.693
123.322	25.228	981.918	786.037
124.337	25.085	981.887	785.316
125.352	24.776	979.000	781.585
126.366	24.706	978.388	780.723
127.381	25.325	978.458	783.409
128.395	25.401	979.458	784.474
129.410	25.698	977.725	784.310
130.424	25.763	976.473	783.521
131.439	25.841	975.791	783.244
132.454	25.668	975.692	782.341
133.468	26.022	974.778	783.077
134.483	25.929	973.850	781.858
135.497	26.069	973.411	782.043
136.512	25.755	971.760	779.288
137.527	26.045	970.647	779.582
138.541	25.948	970.849	779.255
139.556	25.942	969.993	778.475
140.570	26.120	968.766	778.189
141.585	26.164	967.595	777.369
142.600	25.949	967.778	776.519
143.614	26.474	965.557	776.924
144.629	26.228	966.151	776.276
145.643	26.030	964.265	773.842
146.658	25.953	962.745	772.225
147.673	26.050	962.748	772.576
148.687	25.779	962.032	770.774
149.702	25.817	960.018	769.255
150.716	25.897	958.890	768.623
151.731	25.995	958.813	768.911
152.746	25.749	958.917	767.874
153.760	26.353	957.777	769.466
154.775	26.564	955.547	768.503
155.789	26.588	955.845	768.777
156.804	26.283	955.322	766.992
157.819	26.339	954.965	766.878
158.833	25.919	955.131	765.160
159.848	26.642	953.300	766.686
160.862	26.452	951.273	764.188
161.877	26.248	951.039	763.068
162.892	26.345	949.174	761.914
163.906	26.309	948.718	761.331
164.921	26.221	948.867	761.013
165.935	26.207	947.555	759.831
166.950	26.228	946.403	758.931
167.964	26.076	945.473	757.477
168.979	26.059	945.173	757.098
169.994	26.122	943.258	755.761
171.008	26.373	942.022	755.754
172.023	26.622	941.786	756.538
173.037	26.448	940.700	754.874
174.052	26.138	939.854	752.834
175.067	25.831	940.107	751.692
176.081	26.061	939.167	751.829
177.096	26.451	937.658	752.178
178.110	25.881	937.994	750.012
179.125	25.605	937.597	748.480
180.140	25.921	936.834	749.117
181.154	25.749	936.807	748.314
182.169	25.900	936.488	748.621
183.183	26.250	936.251	749.817
184.198	26.190	935.011	748.509
185.213	26.392	934.354	748.753
186.227	26.363	933.666	748.017
187.242	26.331	933.362	747.575
188.256	26.159	932.752	746.309
189.271	26.740	930.940	747.189
190.286	25.819	930.196	742.728
191.300	25.644	928.549	740.629
192.315	24.812	927.323	736.164
193.329	24.430	927.968	735.037
194.344	25.776	927.723	740.315
195.359	26.098	927.998	741.794
196.373	26.279	927.044	741.707
197.388	26.300	926.156	741.018
198.402	26.224	925.656	740.240
199.417	26.573	924.835	740.948
200.432	26.240	924.147	738.968
201.446	26.113	923.332	737.734
202.461	26.291	922.914	738.061
203.475	25.199	921.481	732.396
204.490	24.700	920.725	729.691
205.504	25.543	919.800	732.331
206.519	25.961	920.184	734.276
207.534	26.121	919.048	733.955
208.548	26.379	919.011	734.906
209.563	26.539	918.053	734.725
210.577	26.632	917.428	734.538
211.592	26.470	917.853	734.155
212.607	26.584	917.255	734.075
213.621	26.802	916.437	734.238
214.636	26.660	915.300	732.688
215.650	26.203	914.726	730.315
216.665	26.470	914.907	731.474
217.680	26.539	913.609	730.652
218.694	26.027	912.757	727.839
219.709	26.108	912.188	727.648
220.723	26.373	910.854	727.585
221.738	26.653	910.472	728.344
222.753	26.542	909.694	727.212
223.767	26.435	909.637	726.669
224.782	26.830	909.373	727.980
225.796	26.619	908.372	726.268
226.811	25.697	907.105	721.497
227.826	25.277	906.601	719.349
228.840	25.732	904.915	719.769
229.855	25.714	905.512	720.106
230.869	25.680	903.986	718.696
231.884	25.731	904.211	719.012
232.899	26.354	903.606	720.955
233.913	26.390	903.179	720.695
234.928	26.466	902.273	720.209
235.942	25.893	901.853	717.531
236.957	26.038	900.990	717.357
237.972	26.096	900.049	716.773
238.986	25.910	899.927	715.876
240.001	25.895	899.608	715.498
241.015	26.031	899.795	716.123
242.030	26.288	898.435	715.995
243.045	26.544	898.034	716.627
244.059	26.281	898.427	715.834
245.074	26.187	896.752	714.067
246.088	26.364	895.028	713.329
247.103	26.583	895.504	714.510
248.117	27.029	895.217	715.975
249.132	26.951	895.589	715.904
250.147	27.188	894.704	716.065
251.161	27.229	894.550	716.038
252.176	27.268	894.233	715.875
253.190	27.518	893.422	716.145
254.205	27.544	893.037	715.877
255.220	26.962	892.502	713.100
256.234	27.154	891.381	712.895
257.249	27.033	891.018	712.065
258.263	26.825	890.623	710.871
259.278	27.125	889.390	710.998
260.293	27.234	888.692	710.805
261.307	27.331	888.658	711.092
262.322	27.457	887.237	710.385
263.336	26.231	885.709	704.320
264.351	25.414	883.812	699.572
265.366	25.447	883.695	699.545
266.380	26.810	883.363	704.519
267.395	27.019	883.699	705.537
268.409	27.122	883.110	705.405
269.424	26.966	882.713	704.420
270.439	26.985	882.468	704.237
271.453	27.270	881.316	704.358
272.468	27.310	881.709	704.765
273.482	27.443	880.331	704.115
274.497	26.955	880.098	701.978
275.512	26.705	879.267	700.289
276.526	27.023	879.231	701.427
277.541	27.120	878.852	701.438
278.555	27.065	877.740	700.274
279.570	26.952	877.046	699.226
280.585	27.043	876.097	698.757
281.599	27.467	874.124	698.748
282.614	26.596	873.889	695.156
283.628	26.201	873.947	693.622
284.643	26.543	873.947	694.877
285.657	26.441	873.303	693.909
286.672	26.372	871.523	692.169
287.687	26.592	872.614	693.819
288.701	26.671	871.666	693.305
289.716	26.518	869.955	691.301
290.730	26.244	869.658	689.955
291.745	26.193	868.504	688.786
292.760	26.764	868.071	690.555
293.774	27.322	868.860	693.251
294.789	27.549	868.525	693.783
295.803	27.806	867.316	693.733
296.818	27.652	867.172	692.974
297.833	26.912	866.899	689.882
298.847	26.973	865.697	689.097
299.862	27.408	866.121	691.024
300.876	27.536	865.660	691.081
301.891	27.618	864.351	690.283
302.906	27.158	863.696	687.961
303.920	27.445	863.770	689.045
304.935	27.995	862.716	690.221
305.949	27.720	862.067	688.604
306.964	27.458	861.372	686.996
307.979	27.298	861.182	686.183
308.993	28.080	860.976	688.906
310.008	27.718	860.347	686.976
311.022	27.258	859.873	684.807
312.037	27.452	858.964	684.750
313.052	26.922	858.804	682.569
314.066	26.221	857.234	678.629
315.081	25.916	855.934	676.396
316.095	27.056	856.844	681.333
317.110	27.344	856.010	681.689
318.125	26.741	854.057	677.818
319.139	25.526	852.694	672.139
320.154	25.843	852.675	673.250
321.168	26.307	853.872	675.870
322.183	27.544	852.834	679.605
323.197	27.307	852.578	678.458
324.212	27.431	852.207	678.565
325.227	27.441	851.765	678.189
326.241	27.085	851.694	676.748
327.256	27.224	851.009	676.662
328.270	27.093	849.238	674.707
329.285	26.825	848.613	673.156
330.300	26.965	847.716	672.904
331.314	27.212	848.184	674.131
332.329	27.408	848.144	674.766
333.343	27.543	847.230	674.479
334.358	27.552	846.532	673.896
335.373	27.790	846.169	674.427
336.387	27.882	847.512	675.780
337.402	27.889	847.134	675.444
338.416	28.078	845.799	675.017
339.431	27.826	846.241	674.380
340.446	27.929	846.213	674.680
341.460	28.113	845.414	674.661
342.475	28.034	844.688	673.729
343.489	28.277	843.786	673.847
344.504	28.491	842.853	673.829
345.519	28.549	843.181	674.241
346.533	28.444	843.069	673.708
347.548	28.340	842.238	672.602
348.562	28.423	841.774	672.477
349.577	28.067	841.888	671.202
350.592	28.103	840.796	670.404
351.606	28.284	839.752	670.175
352.621	27.806	839.630	668.268
353.635	28.088	838.124	668.043
354.650	27.603	836.696	665.075
355.665	26.484	835.315	659.841
356.679	27.020	835.267	661.696
357.694	27.255	835.351	662.561
358.708	27.408	833.921	661.924
359.723	27.527	834.542	662.792
360.738	27.895	833.989	663.632
361.752	28.086	834.007	664.283
362.767	28.634	833.419	665.744
363.781	28.743	832.998	665.743
364.796	28.603	832.462	664.749
365.810	28.616	831.910	664.295
366.825	28.911	830.451	664.137
367.840	28.156	831.129	661.892
368.854	27.902	830.093	660.090
369.869	27.999	829.927	660.250
370.883	28.091	828.926	659.725
371.898	27.880	828.499	658.568
372.913	28.044	828.717	659.272
373.927	28.367	828.088	659.880
374.942	28.239	827.310	658.740
375.956	28.129	827.204	658.200
376.971	28.522	827.423	659.731
377.986	28.394	826.848	658.755
379.000	28.440	825.882	658.091
380.015	28.355	825.841	657.697
381.029	28.460	825.449	657.701
382.044	28.766	824.597	658.062
383.059	28.839	824.507	658.192
384.073	28.339	823.484	655.529
385.088	28.200	823.298	654.827
386.102	28.142	821.654	653.254
387.117	28.292	821.043	653.245
388.132	27.600	819.888	649.803
389.146	27.762	818.694	649.376
390.161	28.001	819.378	650.709
391.175	28.289	819.376	651.676
392.190	28.228	817.743	650.104
393.205	26.717	815.868	643.199
394.219	25.392	813.748	636.776
395.234	25.527	813.528	637.026
396.248	26.747	814.931	642.395
397.263	27.986	815.829	647.440
398.278	28.004	815.212	646.956
399.292	27.857	814.847	646.090
400.307	28.406	813.419	646.837
401.321	28.038	813.441	645.497
402.336	28.593	813.522	647.465
403.350	28.739	814.422	648.637
404.365	28.681	814.008	648.046
405.380	29.181	813.808	649.594
406.394	29.168	813.136	648.955
407.409	29.157	811.894	647.867
408.423	29.318	810.938	647.614
409.438	29.680	810.570	648.533
410.453	29.304	810.968	647.472
411.467	29.161	810.589	646.611
412.482	29.256	810.203	646.579
413.496	29.247	810.144	646.442
414.511	29.213	809.497	645.750
415.526	29.365	809.200	645.987
416.540	29.448	807.945	645.218
417.555	28.944	807.542	643.080
418.569	29.045	807.806	643.585
419.584	28.750	807.535	642.282
420.599	28.864	806.485	641.788
421.613	159.815	1371.577	1793.885
422.628	138.892	1453.918	1793.910
