DTS Sentinel unit serial number:	SN413079Multiplexer serial number:	ORYXHardware model number:	OX4-SRSoftware version number:	ORYX F/W v4.00 Oryx Data Collector v3.7.2.0data status	okinstallation	princeton_trtdifferential loss correction	single-endedforward channel	channel 1reverse channel	N/Adate	2019/09/13time	16:58:35forward acquisition time	60.00reverse acquisition time	0.00gamma	496.2192k internal	0.2304k external	0.2304temperature offset calibration	1.0149default loss term (dB/km)	0.3790temperature slope calibration	1.0000multiplexer offset coefficient	1.0000multiplexer slope coefficient	1.0000fibre end	0.00T internal ref (°C)	34.87T ext. ref 1 (°C)	4.84T ext. ref 2 (°C)	31.98length (m)	temperature (°C)	Stokes	anti-Stokes-747.200	-173.627	-0.315	-0.010
-746.185	17.002	-0.232	0.187
-745.171	-117.563	-0.280	0.051
-744.156	174.850	-0.162	0.238
-743.142	-200.000	-0.003	-0.352
-742.127	-200.000	-0.026	0.265
-741.112	320.469	0.160	0.310
-740.098	136.698	-0.205	-0.273
-739.083	-46.971	-0.201	0.100
-738.069	243.334	-0.152	0.260
-737.054	-26.802	0.158	0.094
-736.039	-200.000	0.012	-0.147
-735.025	98.362	0.113	-0.133
-734.010	800.000	0.024	0.096
-732.996	-200.000	0.002	-0.245
-731.981	-124.774	0.246	-0.039
-730.966	-13.837	0.176	0.116
-729.952	-69.793	-0.140	0.054
-728.937	-40.923	0.084	0.044
-727.923	175.334	-0.184	-0.271
-726.908	-64.401	-0.202	-0.084
-725.894	-200.000	-0.010	-0.276
-724.879	-60.544	-0.144	-0.062
-723.864	451.965	0.058	0.131
-722.850	307.002	0.070	0.133
-721.835	243.274	0.130	-0.221
-720.821	783.165	-0.108	-0.300
-719.806	258.109	0.029	0.050
-718.791	-165.824	-0.578	0.025
-717.777	304.817	-0.099	0.188
-716.762	561.167	-0.130	-0.319
-715.748	-109.644	0.296	0.063
-714.733	-200.000	-0.063	-0.324
-713.718	545.734	0.065	0.159
-712.704	50.256	-0.070	-0.067
-711.689	-189.438	-0.118	0.001
-710.675	-125.951	-0.269	-0.041
-709.660	246.961	0.024	0.041
-708.645	-16.248	-0.397	-0.256
-707.631	-68.322	-0.322	0.127
-706.616	-108.682	0.288	0.063
-705.602	-115.804	-0.248	0.047
-704.587	800.000	-0.018	-0.069
-703.572	312.400	-0.035	0.067
-702.558	-23.479	-0.445	-0.272
-701.543	385.682	-0.131	-0.274
-700.529	-200.000	-0.017	-0.244
-699.514	-200.000	-0.077	0.350
-698.499	800.000	0.020	-0.062
-697.485	-38.559	-0.284	0.153
-696.470	12.757	-0.173	-0.136
-695.456	-123.606	0.237	-0.038
-694.441	396.759	-0.080	-0.171
-693.426	-200.000	0.035	0.170
-692.412	51.286	-0.170	-0.164
-691.397	-200.000	-0.042	-0.193
-690.383	800.000	-0.095	-0.413
-689.368	-59.180	-0.107	-0.047
-688.354	37.701	-0.488	0.440
-687.339	256.848	0.165	-0.288
-686.324	497.265	-0.075	0.176
-685.310	-29.466	0.115	0.067
-684.295	27.959	-0.063	-0.054
-683.281	3.557	-0.006	-0.004
-682.266	800.000	0.048	-0.211
-681.251	67.063	-0.109	-0.112
-680.237	-173.747	0.229	-0.007
-679.222	-76.921	0.319	0.113
-678.208	707.269	-0.048	0.129
-677.193	-200.000	-0.013	-0.224
-676.178	216.785	0.208	-0.336
-675.164	-117.260	0.407	0.075
-674.149	-164.303	-0.257	-0.012
-673.135	587.054	0.173	0.432
-672.120	-96.481	-0.214	-0.057
-671.105	75.676	0.070	0.075
-670.091	-194.977	-0.108	-0.001
-669.076	-155.262	0.289	0.019
-668.062	-57.918	-0.365	-0.162
-667.047	115.083	-0.149	0.184
-666.032	-146.464	-0.167	0.015
-665.018	182.340	0.127	0.190
-664.003	88.019	0.130	0.147
-662.989	-87.688	0.306	-0.094
-661.974	377.121	-0.116	-0.241
-660.959	-200.000	-0.042	-0.196
-659.945	600.746	-0.027	0.068
-658.930	141.026	0.089	-0.120
-657.916	-89.404	0.161	0.048
-656.901	-98.849	-0.208	0.054
-655.886	-59.467	0.288	0.126
-654.872	-111.010	-0.188	-0.039
-653.857	-200.000	0.005	0.119
-652.843	-122.861	0.179	-0.029
-651.828	-61.937	0.315	0.134
-650.814	-16.444	0.184	0.118
-649.799	-200.000	0.037	-0.269
-648.784	-87.553	-0.187	0.057
-647.770	142.267	-0.096	-0.129
-646.755	-200.000	0.003	0.022
-645.741	-147.826	-0.155	-0.013
-644.726	174.730	0.116	0.170
-643.711	646.917	-0.144	0.373
-642.697	-200.000	-0.001	-0.246
-641.682	39.301	0.055	-0.050
-640.668	-200.000	-0.001	-0.175
-639.653	-200.000	-0.016	0.079
-638.638	357.762	0.134	0.271
-637.624	-1.412	-0.139	0.099
-636.609	800.000	-0.060	0.212
-635.595	-174.308	-0.510	-0.015
-634.580	-75.606	-0.304	-0.110
-633.565	-168.033	-0.089	-0.004
-632.551	-200.000	0.018	0.251
-631.536	-101.740	-0.271	0.067
-630.522	-200.000	0.030	-0.231
-629.507	-156.260	-0.145	0.009
-628.492	-200.000	-0.047	0.290
-627.478	62.828	0.292	-0.296
-626.463	-97.717	0.330	0.086
-625.449	-102.329	0.106	0.026
-624.434	43.786	-0.137	-0.127
-623.419	-200.000	0.008	-0.173
-622.405	800.000	0.082	-0.235
-621.390	164.137	0.113	-0.162
-620.376	350.226	-0.135	-0.271
-619.361	-108.807	-0.171	0.037
-618.346	-128.010	0.133	0.019
-617.332	11.799	0.378	-0.294
-616.317	-109.142	-0.094	-0.020
-615.303	-123.801	0.421	0.067
-614.288	58.484	0.140	-0.139
-613.273	212.390	0.048	-0.076
-612.259	-130.327	0.278	-0.038
-611.244	-200.000	0.012	-0.085
-610.230	2.674	0.175	-0.129
-609.215	-60.712	0.173	-0.074
-608.201	-200.000	-0.023	-0.187
-607.186	-149.041	-0.220	-0.018
-606.171	-111.122	-0.209	-0.043
-605.157	653.329	-0.070	-0.182
-604.142	-49.247	0.143	0.069
-603.128	800.000	0.083	-0.366
-602.113	95.313	0.127	0.146
-601.098	-120.747	-0.160	-0.027
-600.084	-52.546	0.363	-0.170
-599.069	43.025	0.059	0.055
-598.055	247.889	-0.087	-0.149
-597.040	-200.000	-0.055	0.381
-596.025	-114.486	-0.132	0.026
-595.011	-127.159	-0.293	-0.043
-593.996	-168.227	0.279	-0.011
-592.982	151.056	-0.342	-0.471
-591.967	-113.072	-0.306	0.061
-590.952	-200.000	0.033	0.348
-589.938	20.568	-0.127	0.104
-588.923	800.000	0.114	-0.421
-587.909	34.670	0.068	0.060
-586.894	19.851	0.065	-0.053
-585.879	-150.068	0.224	0.018
-584.865	-107.097	-0.161	-0.036
-583.850	-3.412	0.072	-0.050
-582.836	585.807	0.130	0.324
-581.821	-76.873	-0.139	0.049
-580.806	-111.591	0.224	-0.046
-579.792	471.990	-0.065	0.148
-578.777	91.580	-0.353	0.402
-577.763	301.225	-0.062	-0.117
-576.748	32.035	0.075	-0.065
-575.733	278.061	-0.084	-0.151
-574.719	77.286	0.170	0.183
-573.704	232.240	0.075	-0.124
-572.690	-10.341	-0.180	-0.121
-571.675	-111.527	-0.519	0.107
-570.661	-22.061	-0.061	-0.038
-569.646	-61.254	-0.338	-0.144
-568.631	132.323	-0.058	0.075
-567.617	611.890	-0.202	-0.511
-566.602	1.486	0.114	0.083
-565.588	131.170	0.042	-0.055
-564.573	-8.033	0.162	0.111
-563.558	-82.805	-0.065	0.021
-562.544	-82.394	-0.178	0.059
-561.529	-200.000	-0.047	0.224
-560.515	-43.458	-0.318	0.162
-559.500	63.514	-0.313	0.318
-558.485	-200.000	0.014	-0.223
-557.471	-156.880	0.111	0.007
-556.456	34.522	-0.169	-0.149
-555.442	35.388	0.096	-0.085
-554.427	-150.292	-0.149	0.012
-553.412	530.727	0.129	-0.308
-552.398	62.051	-0.070	-0.070
-551.383	-20.023	0.195	-0.122
-550.369	143.532	0.064	0.086
-549.354	244.026	0.184	0.312
-548.339	121.763	-0.210	0.265
-547.325	248.563	-0.123	-0.210
-546.310	407.790	-0.110	0.236
-545.296	438.751	-0.018	0.039
-544.281	72.269	0.140	0.147
-543.266	151.813	-0.111	-0.153
-542.252	436.478	-0.141	-0.310
-541.237	-44.571	-0.180	0.091
-540.223	-200.000	-0.008	0.102
-539.208	-200.000	0.014	0.191
-538.193	-31.182	0.131	-0.075
-537.179	-43.560	-0.430	-0.219
-536.164	-200.000	-0.028	-0.332
-535.150	-200.000	0.007	0.089
-534.135	-200.000	-0.048	0.431
-533.121	-117.771	0.039	-0.007
-532.106	800.000	0.055	-0.188
-531.091	127.868	-0.110	0.141
-530.077	5.565	0.170	-0.127
-529.062	54.862	-0.049	-0.048
-528.048	449.180	0.072	0.160
-527.033	20.849	-0.110	-0.090
-526.018	-200.000	-0.010	-0.072
-525.004	106.824	0.043	0.051
-523.989	148.952	-0.076	0.103
-522.975	152.204	0.112	-0.154
-521.960	-127.257	0.355	0.052
-520.945	-200.000	-0.003	0.078
-519.931	-80.134	0.153	0.052
-518.916	800.000	-0.064	0.211
-517.902	378.748	-0.137	-0.283
-516.887	-200.000	0.096	0.483
-515.872	162.624	0.078	0.110
-514.858	-51.216	0.160	-0.076
-513.843	800.000	0.051	0.219
-512.829	-78.730	-0.153	0.053
-511.814	-200.000	0.045	0.301
-510.799	-55.002	0.216	-0.098
-509.785	83.462	-0.185	0.204
-508.770	217.246	0.018	-0.029
-507.756	439.068	-0.088	0.194
-506.741	565.760	-0.090	-0.219
-505.726	-90.974	0.121	-0.035
-504.712	133.463	0.093	-0.122
-503.697	-82.592	-0.109	0.036
-502.683	-19.644	-0.286	0.178
-501.668	100.130	-0.056	-0.065
-500.653	-200.000	-0.005	-0.163
-499.639	-100.316	-0.420	0.105
-498.624	29.698	0.122	-0.105
-497.610	409.966	-0.068	0.146
-496.595	-7.501	-0.133	0.091
-495.581	244.182	-0.289	0.490
-494.566	-123.877	-0.359	0.057
-493.551	67.676	0.131	-0.135
-492.537	-101.087	0.321	-0.079
-491.522	-94.006	0.305	0.084
-490.508	128.939	-0.177	-0.228
-489.493	19.881	0.198	0.160
-488.478	-27.406	-0.471	0.276
-487.464	401.536	0.054	-0.115
-486.449	22.504	0.362	-0.298
-485.435	491.741	0.085	-0.196
-484.420	-131.040	-0.313	-0.042
-483.405	161.180	0.228	0.321
-482.391	467.529	0.083	0.188
-481.376	187.567	0.175	-0.263
-480.362	-200.000	-0.009	0.270
-479.347	288.731	0.119	-0.217
-478.332	-81.006	0.209	-0.070
-477.318	12.239	0.059	-0.045
-476.303	-127.696	0.470	-0.068
-475.289	189.780	-0.098	-0.149
-474.274	160.387	-0.106	-0.149
-473.259	156.173	-0.130	-0.180
-472.245	-130.669	-0.029	-0.004
-471.230	-69.712	-0.152	0.059
-470.216	-69.738	0.298	-0.115
-469.201	-200.000	0.008	0.300
-468.186	3.598	-0.137	-0.100
-467.172	60.840	-0.101	0.101
-466.157	12.925	-0.178	0.138
-465.143	69.047	0.079	-0.082
-464.128	-52.692	-0.061	-0.028
-463.113	5.551	0.045	0.033
-462.099	800.000	-0.115	0.402
-461.084	-200.000	0.002	-0.228
-460.070	-79.644	0.223	0.076
-459.055	-50.214	-0.049	-0.024
-458.040	237.229	0.228	-0.380
-457.026	204.198	-0.077	0.120
-456.011	-200.000	0.060	0.314
-454.997	135.880	0.116	-0.152
-453.982	2.842	0.130	-0.095
-452.968	-59.842	0.387	-0.167
-451.953	370.557	0.057	-0.115
-450.938	704.139	-0.043	-0.114
-449.924	16.963	-0.122	-0.097
-448.909	-150.273	-0.177	-0.014
-447.895	-128.545	0.093	0.013
-446.880	245.116	-0.215	0.364
-445.865	549.419	-0.039	0.093
-444.851	-39.555	-0.229	-0.121
-443.836	-144.423	0.274	-0.026
-442.822	-200.000	-0.016	0.115
-441.807	-200.000	0.051	-0.302
-440.792	-59.044	0.294	0.128
-439.778	38.992	-0.066	0.059
-438.763	191.319	0.134	-0.204
-437.749	-200.000	-0.015	0.124
-436.734	-119.375	-0.189	0.033
-435.719	-145.019	-0.341	0.031
-434.705	-178.124	-0.148	-0.004
-433.690	-123.197	-0.246	0.040
-432.676	-200.000	0.073	-0.367
-431.661	800.000	-0.087	-0.315
-430.646	-200.000	0.003	-0.283
-429.632	44.262	-0.217	-0.200
-428.617	-200.000	-0.006	0.437
-427.603	281.957	-0.088	-0.159
-426.588	42.864	0.274	-0.252
-425.573	61.154	-0.154	-0.154
-424.559	800.000	-0.086	-0.298
-423.544	-131.637	0.290	0.038
-422.530	12.308	-0.028	-0.022
-421.515	8.369	-0.131	0.099
-420.500	101.573	0.240	0.281
-419.486	17.947	-0.120	-0.096
-418.471	-45.874	0.266	0.132
-417.457	-97.219	-0.122	0.032
-416.442	496.888	-0.124	0.286
-415.428	218.413	-0.122	0.195
-414.413	431.403	-0.016	0.035
-413.398	-2.601	0.040	0.028
-412.384	142.117	-0.089	0.119
-411.369	-84.599	0.112	-0.036
-410.355	106.458	0.124	-0.148
-409.340	172.112	-0.090	0.130
-408.325	-200.000	0.007	-0.244
-407.311	67.662	-0.137	-0.141
-406.296	-200.000	-0.005	-0.289
-405.282	-57.881	0.386	0.170
-404.267	-122.489	-0.199	-0.032
-403.252	-200.000	0.048	0.281
-402.238	-107.674	-0.305	0.067
-401.223	41.894	0.409	-0.373
-400.209	141.783	0.090	-0.120
-399.194	-12.392	-0.133	0.087
-398.179	265.841	0.164	-0.287
-397.165	73.624	0.146	-0.154
-396.150	190.383	-0.152	-0.229
-395.136	13.081	0.208	0.162
-394.121	-39.996	-0.240	-0.126
-393.106	-6.225	0.242	0.166
-392.092	-200.000	0.037	0.269
-391.077	-184.118	-0.263	-0.004
-390.063	-3.601	0.080	-0.056
-389.048	-38.532	-0.326	0.173
-388.033	313.068	0.126	0.237
-387.019	800.000	-0.020	0.073
-386.004	-70.597	0.116	-0.044
-384.990	411.251	0.090	0.192
-383.975	-200.000	-0.005	0.146
-382.960	-67.808	0.430	-0.169
-381.946	-200.000	-0.023	0.292
-380.931	-150.705	0.061	-0.005
-379.917	-19.472	-0.145	0.090
-378.902	61.381	-0.305	-0.304
-377.888	800.000	0.122	-0.446
-376.873	-117.439	0.308	-0.056
-375.858	800.000	-0.066	-0.234
-374.844	-200.000	-0.015	-0.489
-373.829	-40.837	0.112	-0.058
-372.815	-43.943	-0.095	0.048
-371.800	800.000	-0.049	0.204
-370.785	47.839	-0.076	-0.072
-369.771	459.176	0.147	0.328
-368.756	800.000	-0.072	-0.216
-367.742	433.516	0.110	-0.239
-366.727	292.208	0.062	0.113
-365.712	69.192	-0.057	0.059
-364.698	800.000	-0.071	-0.207
-363.683	406.129	-0.132	0.280
-362.669	37.490	0.149	-0.132
-361.654	-200.000	0.024	0.151
-360.639	-200.000	0.007	0.200
-359.625	111.174	0.073	-0.088
-358.610	-200.000	0.008	-0.156
-357.596	163.150	0.141	-0.199
-356.581	-105.920	0.305	-0.069
-355.566	-40.951	-0.109	-0.057
-354.552	-200.000	-0.014	0.139
-353.537	-133.619	0.031	0.004
-352.523	-9.022	-0.287	-0.193
-351.508	111.876	0.232	-0.280
-350.493	45.744	0.226	-0.210
-349.479	-200.000	-0.023	-0.141
-348.464	-137.756	0.242	-0.027
-347.450	-180.395	0.133	-0.003
-346.435	-200.000	0.016	0.209
-345.420	275.397	-0.112	-0.199
-344.406	192.707	0.137	0.208
-343.391	-200.000	-0.016	0.279
-342.377	-61.978	0.289	0.121
-341.362	123.438	-0.177	0.222
-340.348	-167.182	-0.320	-0.013
-339.333	131.444	-0.200	0.257
-338.318	120.352	0.096	0.119
-337.304	94.887	0.040	-0.046
-336.289	163.022	-0.077	0.108
-335.275	800.000	-0.017	-0.074
-334.260	-82.829	-0.401	0.130
-333.245	360.902	-0.113	-0.226
-332.231	-100.674	0.071	0.017
-331.216	-200.000	-0.008	0.079
-330.202	-171.099	0.278	-0.009
-329.187	-32.807	0.250	-0.139
-328.172	91.967	0.131	0.147
-327.158	224.540	-0.072	0.116
-326.143	-90.589	0.299	-0.087
-325.129	594.302	-0.083	0.205
-324.114	637.806	0.130	0.330
-323.099	387.863	0.082	0.169
-322.085	-80.194	-0.170	-0.057
-321.070	10.845	-0.028	0.022
-320.056	-84.967	0.315	-0.099
-319.041	476.435	0.012	-0.027
-318.026	253.090	0.091	-0.155
-317.012	-200.000	-0.015	0.129
-315.997	-110.304	0.135	0.028
-314.983	-2.265	-0.095	0.067
-313.968	345.189	0.113	-0.222
-312.953	-46.988	0.065	-0.032
-311.939	-135.404	-0.312	-0.037
-310.924	-113.738	0.135	0.026
-309.910	67.673	-0.316	0.323
-308.895	-105.004	0.114	0.026
-307.880	235.200	0.149	-0.246
-306.866	800.000	0.026	0.101
-305.851	-56.481	0.282	-0.125
-304.837	-103.834	0.138	-0.032
-303.822	-87.036	-0.121	0.037
-302.807	-74.713	0.101	-0.036
-301.793	46.865	0.116	-0.108
-300.778	800.000	0.029	-0.083
-299.764	69.504	-0.178	0.184
-298.749	23.432	0.173	-0.142
-297.735	436.638	-0.073	0.158
-296.720	-93.036	-0.241	0.067
-295.705	254.217	0.143	-0.244
-294.691	61.894	0.154	-0.154
-293.676	714.601	0.092	0.243
-292.662	67.137	-0.215	-0.219
-291.647	-164.980	0.165	-0.007
-290.632	-20.484	0.198	0.122
-289.618	121.590	0.107	-0.134
-288.603	234.315	-0.088	0.145
-287.589	-200.000	0.158	-0.000
-286.574	-200.000	-0.018	0.157
-285.559	-200.000	0.014	0.288
-284.545	-114.983	0.210	0.040
-283.530	262.753	0.265	0.460
-282.516	-33.179	0.270	0.150
-281.501	393.297	0.133	0.276
-280.486	-49.776	0.295	-0.140
-279.472	-44.611	-0.143	-0.072
-278.457	417.887	0.184	0.394
-277.443	-124.476	-0.231	0.036
-276.428	-142.849	-0.263	0.026
-275.413	118.573	-0.087	0.107
-274.399	-12.928	0.120	0.078
-273.384	17.568	0.148	-0.118
-272.370	567.030	0.082	-0.199
-271.355	-113.715	-0.330	0.064
-270.340	-34.096	0.248	-0.136
-269.326	-49.633	-0.189	0.090
-268.311	-200.000	0.042	0.431
-267.297	-200.000	0.058	-0.325
-266.282	-200.000	0.018	-0.125
-265.267	-144.212	0.181	-0.017
-264.253	488.706	0.089	-0.202
-263.238	675.235	0.089	-0.232
-262.224	800.000	-0.047	-0.178
-261.209	-103.889	-0.143	0.033
-260.195	-69.213	0.369	-0.142
-259.180	429.490	0.093	-0.201
-258.165	-166.667	0.318	-0.013
-257.151	-1.653	-0.187	0.132
-256.136	103.331	0.309	0.362
-255.122	800.000	-0.076	0.230
-254.107	-200.000	-0.045	0.310
-253.092	-147.389	-0.097	0.008
-252.078	-84.143	-0.006	0.002
-251.063	-200.000	0.051	0.413
-250.049	-114.204	-0.281	0.054
-249.034	57.568	-0.033	-0.032
-248.019	286.179	-0.085	-0.153
-247.005	158.101	-0.287	0.398
-245.990	-200.000	0.066	-0.307
-244.976	504.218	0.083	-0.193
-243.961	-62.127	-0.360	-0.150
-242.946	-118.243	0.066	-0.012
-241.932	204.024	0.034	-0.053
-240.917	-119.797	0.209	0.036
-239.903	-200.000	-0.017	0.319
-238.888	-200.000	-0.038	0.434
-237.873	233.366	0.064	-0.105
-236.859	-161.507	0.244	0.013
-235.844	233.394	-0.029	-0.047
-234.830	439.121	-0.081	0.176
-233.815	76.969	-0.148	-0.156
-232.800	-66.467	-0.096	0.038
-231.786	-200.000	0.017	-0.124
-230.771	273.929	0.039	0.069
-229.757	77.490	-0.224	-0.238
-228.742	327.474	-0.151	-0.288
-227.727	-200.000	0.014	-0.319
-226.713	272.184	-0.086	0.152
-225.698	-200.000	-0.028	0.153
-224.684	-96.331	-0.167	0.044
-223.669	-200.000	-0.024	-0.312
-222.655	-200.000	0.071	-0.356
-221.640	-15.569	0.223	0.142
-220.625	-200.000	-0.035	0.173
-219.611	167.343	-0.170	-0.242
-218.596	50.349	0.292	-0.275
-217.582	-19.357	-0.147	-0.091
-216.567	-106.226	0.188	0.042
-215.552	180.883	0.078	-0.114
-214.538	-147.909	-0.110	0.009
-213.523	-56.225	-0.286	0.127
-212.509	-32.533	0.119	-0.066
-211.494	800.000	-0.056	0.167
-210.479	-115.855	-0.192	-0.036
-209.465	-154.475	0.128	-0.009
-208.450	95.592	0.093	0.106
-207.436	800.000	0.085	0.297
-206.421	132.250	-0.211	-0.271
-205.406	800.000	0.057	0.249
-204.392	595.707	-0.086	-0.212
-203.377	-200.000	0.005	0.294
-202.363	-11.609	-0.297	0.195
-201.348	210.253	0.105	0.165
-200.333	-200.000	0.037	0.213
-199.319	-164.649	0.167	-0.008
-198.304	800.000	0.028	0.115
-197.290	13.769	-0.149	-0.115
-196.275	-73.409	-0.376	-0.137
-195.260	46.871	0.190	-0.176
-194.246	-86.238	-0.206	0.063
-193.231	-94.673	-0.272	-0.074
-192.217	-200.000	0.012	0.319
-191.202	800.000	-0.044	0.183
-190.187	337.484	0.146	0.282
-189.173	443.321	-0.151	0.330
-188.158	-24.355	0.261	0.155
-187.144	430.117	0.109	-0.234
-186.129	-82.720	0.278	0.090
-185.114	25.406	-0.327	-0.271
-184.100	38.481	-0.158	-0.141
-183.085	-86.559	-0.148	-0.045
-182.071	-200.000	0.019	-0.130
-181.056	800.000	0.055	0.170
-180.042	125.453	-0.114	-0.143
-179.027	-84.077	0.276	0.087
-178.012	393.950	-0.049	0.102
-176.998	-59.185	-0.052	-0.022
-175.983	-88.950	-0.201	-0.059
-174.969	-62.942	-0.196	0.081
-173.954	-200.000	0.006	0.054
-172.939	-111.927	0.335	0.067
-171.925	111.918	0.110	-0.132
-170.910	-163.976	-0.114	-0.005
-169.896	800.000	0.034	-0.125
-168.881	65.829	-0.166	0.168
-167.866	-200.000	0.034	-0.457
-166.852	379.405	-0.101	-0.206
-165.837	13.178	0.107	0.083
-164.823	-200.000	0.012	0.067
-163.808	-19.094	-0.138	-0.085
-162.793	368.019	-0.055	0.111
-161.779	224.407	0.119	0.191
-160.764	-142.615	0.257	0.025
-159.750	-5.041	0.159	0.109
-158.735	-41.626	0.264	-0.135
-157.720	-17.326	-0.196	-0.123
-156.706	-71.824	-0.417	0.154
-155.691	-45.211	-0.251	0.124
-154.677	-200.000	-0.014	-0.240
-153.662	6.192	-0.176	-0.130
-152.647	60.305	-0.118	-0.116
-151.633	39.109	0.274	0.244
-150.618	-112.477	-0.239	-0.047
-149.604	193.136	-0.123	-0.184
-148.589	-153.295	0.258	-0.018
-147.574	95.656	0.012	0.014
-146.560	67.810	-0.225	-0.229
-145.545	-200.000	0.031	-0.281
-144.531	-60.920	-0.302	-0.127
-143.516	-200.000	-0.001	0.264
-142.502	800.000	0.016	-0.058
-141.487	-110.728	0.207	0.043
-140.472	654.117	-0.098	0.251
-139.458	-52.910	-0.210	0.096
-138.443	-200.000	0.136	-0.663
-137.429	-83.400	-0.374	-0.119
-136.414	-200.000	-0.019	0.105
-135.399	61.746	0.054	0.054
-134.385	-176.394	0.407	-0.010
-133.370	-16.012	0.138	-0.087
-132.356	-200.000	-0.075	-0.365
-131.341	-106.306	-0.016	-0.004
-130.326	-60.694	-0.216	0.091
-129.312	-73.510	-0.322	0.117
-128.297	-143.687	0.191	0.018
-127.283	-52.293	0.165	-0.076
-126.268	-63.613	0.143	0.058
-125.253	402.349	0.066	-0.137
-124.239	-200.000	0.007	-0.088
-123.224	167.247	0.039	0.055
-122.210	31.329	0.089	-0.076
-121.195	49.472	-0.143	0.134
-120.180	-89.637	0.154	0.045
-119.166	141.738	-0.133	-0.175
-118.151	800.000	-0.035	-0.099
-117.137	135.046	0.055	0.071
-116.122	-128.402	0.140	0.020
-115.107	-63.799	-0.267	0.109
-114.093	-32.251	0.185	0.103
-113.078	63.106	-0.313	-0.312
-112.064	7.324	0.113	0.084
-111.049	-86.645	-0.346	-0.105
-110.034	17.608	0.097	0.076
-109.020	62.435	0.105	0.104
-108.005	273.103	0.182	-0.319
-106.991	14.917	-0.190	-0.148
-105.976	139.419	0.144	-0.189
-104.962	57.711	0.188	-0.182
-103.947	-0.189	0.342	-0.242
-102.932	-88.076	0.072	0.022
-101.918	562.021	-0.044	-0.105
-100.903	174.178	0.151	0.216
-99.889	-45.338	0.246	0.121
-98.874	161.645	-0.027	-0.038
-97.859	22.589	0.319	-0.259
-96.845	-65.761	0.194	-0.077
-95.830	58.002	0.301	0.292
-94.816	102.791	0.085	0.098
-93.801	-117.374	0.024	-0.004
-92.786	800.000	0.013	-0.042
-91.772	114.375	-0.114	-0.137
-90.757	-133.762	-0.035	0.004
-89.743	-169.704	0.251	-0.009
-88.728	-180.909	0.167	-0.003
-87.713	-200.000	0.012	-0.260
-86.699	169.549	0.106	0.151
-85.684	-81.626	0.239	0.078
-84.670	-200.000	-0.000	0.202
-83.655	39.881	-0.188	-0.168
-82.640	-200.000	-0.093	-0.447
-81.626	89.618	-0.234	-0.259
-80.611	-55.840	-0.110	0.049
-79.597	796.960	0.078	-0.214
-78.582	-73.673	0.102	-0.037
-77.567	800.000	0.024	-0.068
-76.553	205.215	0.176	-0.272
-75.538	-157.429	-0.034	-0.002
-74.524	-110.672	-0.113	-0.023
-73.509	82.389	-0.042	-0.045
-72.494	555.936	0.038	0.092
-71.480	800.000	-0.143	-0.512
-70.465	-139.748	0.185	-0.020
-69.451	96.811	-0.102	0.115
-68.436	-137.148	-0.219	-0.025
-67.422	359.916	0.049	-0.097
-66.407	-200.000	-0.044	-0.204
-65.392	-69.589	-0.210	0.080
-64.378	-131.038	0.514	0.068
-63.363	800.000	0.079	-0.297
-62.349	328.880	0.140	0.268
-61.334	131.257	-0.793	-1.010
-60.319	27.732	0.680	0.568
-59.305	-200.000	-0.075	-0.971
-58.290	308.589	0.437	0.809
-57.276	800.000	0.504	1.655
-56.261	-200.000	95.830	564.083
-55.246	635.132	1380.908	3472.757
-54.232	187.437	2595.153	3837.331
-53.217	123.011	2182.193	2708.014
-52.203	46.681	1636.220	1505.762
-51.188	38.252	1371.774	1210.433
-50.173	35.006	1329.179	1153.280
-49.159	56.057	1378.461	1325.709
-48.144	60.583	1396.497	1370.737
-47.130	38.687	1350.744	1194.343
-46.115	34.972	1332.876	1156.104
-45.100	34.762	1328.077	1150.630
-44.086	34.786	1325.537	1148.525
-43.071	34.627	1323.270	1145.563
-42.057	34.669	1321.341	1144.096
-41.042	34.795	1318.971	1142.756
-40.027	34.809	1317.769	1141.752
-39.013	34.841	1316.057	1140.412
-37.998	34.768	1313.756	1137.939
-36.984	34.878	1312.125	1137.138
-35.969	34.885	1310.711	1135.905
-34.954	34.944	1308.622	1134.403
-33.940	34.943	1307.666	1133.522
-32.925	34.946	1306.156	1132.187
-31.911	34.960	1304.639	1130.908
-30.896	34.991	1302.999	1129.625
-29.881	35.028	1301.804	1128.765
-28.867	35.030	1300.083	1127.235
-27.852	35.047	1298.469	1125.895
-26.838	35.009	1297.281	1124.594
-25.823	34.987	1296.247	1123.527
-24.809	35.005	1294.671	1122.219
-23.794	34.963	1293.266	1120.713
-22.779	34.973	1292.127	1119.739
-21.765	34.935	1290.974	1118.471
-20.750	34.955	1289.495	1117.264
-19.736	34.842	1288.340	1115.557
-18.721	34.873	1287.195	1114.706
-17.706	34.824	1286.030	1113.365
-16.692	34.764	1284.435	1111.593
-15.677	34.837	1283.480	1111.143
-14.663	34.789	1282.390	1109.880
-13.648	34.868	1281.016	1109.103
-12.633	34.764	1279.937	1107.524
-11.619	34.672	1279.828	1106.855
-10.604	34.751	1278.511	1106.125
-9.590	34.706	1278.041	1105.413
-8.575	34.822	1276.572	1104.773
-7.560	34.887	1275.731	1104.376
-6.546	34.803	1275.126	1103.321
-5.531	34.700	1274.322	1101.986
-4.517	34.771	1273.270	1101.444
-3.502	34.882	1272.156	1101.078
-2.487	34.776	1271.425	1099.791
-1.473	34.703	1267.933	1096.304
-0.458	33.795	1253.378	1078.523
0.556	32.445	1234.970	1041.153
1.571	28.267	1239.230	1021.398
2.586	26.545	1252.406	1022.449
3.600	24.686	1239.593	1001.499
4.615	18.465	1165.928	909.010
5.629	9.534	1089.292	804.738
6.644	5.249	1067.967	767.885
7.659	4.814	1065.047	763.582
8.673	4.634	1063.863	761.785
9.688	4.665	1062.571	760.943
10.702	5.288	1061.731	763.320
11.717	10.997	1069.715	797.024
12.731	18.927	1081.377	844.761
13.746	21.953	1083.958	861.581
14.761	21.392	1082.788	857.826
15.775	20.746	1080.283	852.603
16.790	19.634	1078.523	845.697
17.804	18.781	1077.491	840.638
18.819	18.590	1075.877	838.374
19.834	18.354	1075.695	837.002
20.848	18.217	1075.028	835.740
21.863	18.109	1073.693	834.104
22.877	18.022	1072.885	832.975
23.892	17.977	1072.139	832.106
24.907	17.985	1071.544	831.608
25.921	17.869	1070.360	830.051
26.936	17.866	1069.430	829.241
27.950	17.964	1067.644	828.261
28.965	18.140	1066.424	828.094
29.980	18.233	1064.656	827.097
30.994	18.326	1064.287	827.187
32.009	18.219	1063.123	825.691
33.023	18.152	1061.961	824.391
34.038	18.197	1060.629	823.500
35.053	18.115	1059.428	822.103
36.067	17.927	1058.995	820.788
37.082	17.969	1058.198	820.303
38.096	18.212	1057.139	820.574
39.111	18.270	1056.505	820.286
40.126	17.948	1055.408	817.822
41.140	17.717	1053.995	815.550
42.155	17.673	1052.442	814.065
43.169	17.565	1051.621	812.842
44.184	17.627	1050.298	812.042
45.199	17.746	1049.532	811.947
46.213	17.842	1048.784	811.754
47.228	18.073	1047.328	811.649
48.242	18.006	1046.680	810.759
49.257	17.969	1045.863	809.880
50.271	18.158	1044.836	809.907
51.286	18.117	1044.653	809.498
52.301	18.035	1043.705	808.306
53.315	18.042	1041.913	806.879
54.330	17.800	1041.401	805.271
55.344	17.825	1040.303	804.465
56.359	17.868	1039.560	804.022
57.374	17.801	1038.785	803.039
58.388	17.614	1038.264	801.681
59.403	17.568	1037.161	800.542
60.417	17.631	1036.319	800.120
61.432	17.579	1035.544	799.209
62.447	17.579	1034.489	798.322
63.461	17.496	1033.731	797.277
64.476	17.406	1032.958	796.192
65.490	17.450	1031.760	795.403
66.505	17.516	1031.207	795.214
67.520	17.604	1030.195	794.775
68.534	17.575	1029.708	794.192
69.549	17.534	1029.028	793.406
70.563	17.462	1028.360	792.487
71.578	17.347	1027.266	791.039
72.593	17.310	1026.269	790.029
73.607	17.238	1026.316	789.660
74.622	17.401	1025.368	789.616
75.636	17.385	1024.713	788.966
76.651	17.380	1024.071	788.381
77.666	17.399	1024.016	788.358
78.680	17.442	1022.767	787.525
79.695	17.532	1021.995	787.277
80.709	17.667	1021.531	787.473
81.724	17.670	1021.149	787.122
82.739	17.730	1020.624	786.926
83.753	18.114	1019.511	787.766
84.768	18.300	1018.821	788.023
85.782	18.370	1018.033	787.665
86.797	18.256	1016.895	786.192
87.812	18.063	1015.895	784.461
88.826	18.012	1015.326	783.719
89.841	18.284	1014.038	783.903
90.855	18.283	1013.200	783.179
91.870	18.227	1012.552	782.355
92.884	18.231	1011.727	781.666
93.899	18.120	1010.840	780.405
94.914	18.341	1010.249	780.885
95.928	18.266	1009.102	779.590
96.943	18.198	1008.100	778.437
97.957	18.134	1007.500	777.615
98.972	18.110	1006.769	776.871
99.987	18.203	1005.957	776.600
101.001	18.181	1004.980	775.676
102.016	18.147	1003.764	774.513
103.030	18.161	1003.539	774.335
104.045	18.215	1002.064	773.373
105.060	18.035	1001.287	771.894
106.074	17.859	1000.295	770.264
107.089	17.667	999.383	768.630
108.103	17.487	998.473	767.049
109.118	17.535	997.384	766.364
110.133	17.496	996.713	765.601
111.147	17.539	995.416	764.731
112.162	17.691	994.722	764.812
113.176	17.765	994.680	765.046
114.191	17.821	993.684	764.462
115.206	17.754	992.575	763.240
116.220	17.722	991.895	762.507
117.235	17.654	990.908	761.378
118.249	17.587	990.322	760.561
119.264	17.526	989.734	759.770
120.279	17.549	988.758	759.054
121.293	17.517	987.828	758.134
122.308	17.495	986.898	757.254
123.322	17.344	985.701	755.598
124.337	17.420	984.446	754.906
125.352	17.428	983.541	754.180
126.366	17.348	982.611	753.045
127.381	17.535	980.901	752.497
128.395	17.509	980.732	752.185
129.410	17.523	980.188	751.764
130.424	17.538	979.705	751.391
131.439	17.656	978.613	751.009
132.454	17.863	977.714	751.162
133.468	17.889	976.599	750.356
134.483	17.898	975.985	749.854
135.497	17.902	975.384	749.343
136.512	17.943	974.350	748.665
137.527	17.832	973.369	747.358
138.541	17.853	972.996	747.096
139.556	17.891	972.229	746.607
140.570	17.929	972.167	746.659
141.585	18.146	971.241	746.833
142.600	18.236	970.301	746.434
143.614	18.086	969.552	745.140
144.629	18.490	968.640	746.129
145.643	18.348	967.438	744.523
146.658	18.094	966.406	742.559
147.673	17.921	965.742	741.234
148.687	17.881	964.548	740.077
149.702	17.727	963.560	738.585
150.716	17.797	963.021	738.409
151.731	17.897	961.988	737.984
152.746	17.857	961.317	737.233
153.760	17.911	960.679	736.911
154.775	18.025	960.284	737.033
155.789	18.226	959.625	737.332
156.804	18.016	959.520	736.280
157.819	18.250	958.392	736.355
158.833	18.364	957.579	736.155
159.848	18.404	957.097	735.894
160.862	18.330	956.157	734.786
161.877	18.014	954.762	732.297
162.892	17.850	953.668	730.690
163.906	17.946	952.329	730.010
164.921	17.852	951.869	729.192
165.935	17.957	950.928	728.854
166.950	18.040	950.162	728.555
167.964	18.032	949.161	727.688
168.979	17.982	948.006	726.526
169.994	17.956	947.529	725.987
171.008	18.069	946.959	725.965
172.023	18.313	946.296	726.431
173.037	18.492	945.514	726.522
174.052	18.223	944.925	724.868
175.067	18.079	943.805	723.333
176.081	17.821	943.548	721.982
177.096	17.841	943.120	721.673
178.110	18.029	942.264	721.749
179.125	18.030	941.815	721.345
180.140	18.043	941.200	720.865
181.154	18.194	941.226	721.458
182.169	18.363	940.620	721.643
183.183	18.351	939.863	720.949
184.198	18.357	939.120	720.338
185.213	18.397	938.027	719.604
186.227	18.618	937.088	719.749
187.242	18.468	937.081	719.051
188.256	18.677	936.202	719.189
189.271	18.576	935.606	718.242
190.286	18.326	934.424	716.227
191.300	17.804	933.493	713.267
192.315	17.679	933.169	712.435
193.329	17.824	932.536	712.493
194.344	18.029	931.926	712.821
195.359	18.057	931.410	712.481
196.373	18.270	930.827	712.859
197.388	18.387	930.674	713.165
198.402	18.706	929.896	713.831
199.417	18.665	929.654	713.415
200.432	18.766	928.996	713.267
201.446	18.708	928.342	712.458
202.461	18.812	928.262	712.766
203.475	18.694	927.352	711.512
204.490	18.489	926.369	709.850
205.504	18.537	925.286	709.154
206.519	18.461	924.799	708.406
207.534	18.464	924.393	708.041
208.548	18.470	923.672	707.453
209.563	18.333	923.392	706.610
210.577	18.714	921.793	706.892
211.592	18.684	921.781	706.698
212.607	18.730	920.757	706.041
213.621	18.718	920.257	705.544
214.636	18.567	919.500	704.282
215.650	18.726	918.735	704.286
216.665	18.869	918.065	704.297
217.680	18.933	917.632	704.165
218.694	18.876	916.783	703.217
219.709	18.842	915.956	702.382
220.723	18.825	915.663	702.025
221.738	18.683	914.912	700.808
222.753	18.921	914.011	701.025
223.767	18.928	913.562	700.649
224.782	19.078	913.227	700.939
225.796	18.938	913.075	700.190
226.811	18.950	911.959	699.323
227.826	18.946	910.682	698.265
228.840	18.772	910.204	697.130
229.855	18.773	909.491	696.528
230.869	18.801	908.730	695.998
231.884	18.840	908.297	695.760
232.899	18.653	907.472	694.311
233.913	18.638	906.702	693.598
234.928	18.527	905.646	692.283
235.942	18.500	905.469	691.975
236.957	18.656	904.641	691.910
237.972	18.744	903.914	691.646
238.986	18.736	903.408	691.170
240.001	18.645	902.911	690.361
241.015	18.741	902.339	690.250
242.030	18.915	901.644	690.352
243.045	18.893	901.359	689.986
244.059	18.912	900.357	689.233
245.074	18.887	900.029	688.821
246.088	18.982	899.453	688.699
247.103	19.171	898.901	688.972
248.117	19.127	898.904	688.741
249.132	19.468	898.335	689.604
250.147	19.540	897.663	689.314
251.161	19.616	897.185	689.191
252.176	19.530	896.367	688.159
253.190	19.672	895.867	688.281
254.205	19.549	895.463	687.418
255.220	19.579	894.546	686.774
256.234	19.651	893.942	686.533
257.249	19.623	893.263	685.842
258.263	19.800	892.004	685.514
259.278	19.519	891.463	683.928
260.293	19.735	891.176	684.501
261.307	19.798	890.713	684.332
262.322	19.950	889.771	684.151
263.336	19.773	889.453	683.147
264.351	19.766	888.757	682.521
265.366	19.857	887.671	681.986
266.380	19.759	887.453	681.372
267.395	19.698	886.410	680.273
268.409	19.721	885.733	679.782
269.424	19.700	884.669	678.823
270.439	19.591	884.475	678.187
271.453	19.496	883.586	677.074
272.468	19.560	883.231	676.994
273.482	19.560	882.623	676.465
274.497	19.684	881.969	676.392
275.512	19.660	881.095	675.568
276.526	19.653	880.796	675.250
277.541	19.590	880.604	674.796
278.555	20.054	879.897	676.006
279.570	20.096	879.064	675.471
280.585	19.969	878.638	674.588
281.599	19.857	877.531	673.244
282.614	19.719	876.848	672.123
283.628	19.673	876.386	671.530
284.643	19.724	876.042	671.403
285.657	19.685	874.983	670.383
286.672	19.762	874.460	670.223
287.687	19.758	873.293	669.252
288.701	19.869	873.120	669.491
289.716	19.741	873.212	669.007
290.730	19.710	872.381	668.190
291.745	19.790	871.755	667.960
292.760	19.907	871.172	667.906
293.774	20.004	870.628	667.806
294.789	20.084	869.773	667.397
295.803	19.985	868.680	666.117
296.818	19.936	868.117	665.440
297.833	19.895	867.547	664.787
298.847	19.884	867.178	664.403
299.862	20.069	866.421	664.475
300.876	19.954	866.074	663.707
301.891	20.201	865.654	664.275
302.906	20.251	865.015	663.914
303.920	20.298	864.618	663.732
304.935	20.412	863.735	663.431
305.949	20.143	863.370	662.064
306.964	20.204	862.730	661.748
307.979	20.233	862.200	661.393
308.993	20.380	861.596	661.433
310.008	20.305	860.743	660.433
311.022	20.352	860.128	660.080
312.037	20.150	859.534	658.800
313.052	19.890	858.928	657.289
314.066	19.863	858.163	656.544
315.081	19.935	857.884	656.544
316.095	19.901	857.246	655.871
317.110	19.903	856.319	655.112
318.125	19.897	855.964	654.758
319.139	19.863	855.877	654.506
320.154	19.901	855.483	654.290
321.168	20.054	854.992	654.433
322.183	20.019	854.060	653.531
323.197	20.109	853.798	653.612
324.212	20.138	853.302	653.283
325.227	20.000	852.601	652.171
326.241	20.170	851.814	652.150
327.256	19.921	851.389	650.830
328.270	20.150	850.602	651.029
329.285	20.076	849.958	650.201
330.300	20.019	849.275	649.410
331.314	20.096	849.152	649.545
332.329	20.285	848.831	649.952
333.343	20.433	848.051	649.851
334.358	20.389	847.624	649.300
335.373	20.366	847.521	649.077
336.387	20.361	847.305	648.838
337.402	20.499	847.105	649.140
338.416	20.580	846.490	648.915
339.431	20.770	846.277	649.402
340.446	20.748	845.901	648.976
341.460	20.627	846.085	648.607
342.475	20.769	845.403	648.557
343.489	20.807	844.972	648.310
344.504	20.983	844.308	648.397
345.519	21.126	843.802	648.483
346.533	20.823	843.181	646.824
347.548	20.719	842.786	646.078
348.562	20.685	842.017	645.303
349.577	20.365	841.286	643.502
350.592	20.448	840.260	642.967
351.606	20.293	840.136	642.240
352.621	20.338	839.161	641.607
353.635	20.485	838.491	641.578
354.650	20.534	838.244	641.516
355.665	20.779	837.361	641.686
356.679	20.732	836.849	641.064
357.694	20.727	836.081	640.399
358.708	20.679	835.531	639.746
359.723	20.683	834.934	639.246
360.738	20.695	834.215	638.682
361.752	20.666	834.042	638.388
362.767	20.871	833.230	638.460
363.781	21.012	832.805	638.594
364.796	21.155	832.632	638.929
365.810	21.061	832.562	638.475
366.825	21.290	831.938	638.778
367.840	21.142	831.524	637.862
368.854	21.176	830.538	637.172
369.869	21.152	829.959	636.587
370.883	21.015	830.117	636.152
371.898	21.196	829.657	636.403
372.913	21.331	828.903	636.258
373.927	21.153	828.591	635.315
374.942	21.259	827.976	635.171
375.956	21.401	827.862	635.545
376.971	21.476	827.167	635.228
377.986	21.446	826.730	634.728
379.000	21.461	826.377	634.454
380.015	21.427	826.142	634.096
381.029	21.297	825.321	632.939
382.044	21.362	824.721	632.655
383.059	21.490	824.124	632.607
384.073	21.374	823.467	631.627
385.088	21.104	822.531	629.877
386.102	21.174	822.273	629.878
387.117	21.195	821.418	629.241
388.132	21.170	820.522	628.410
389.146	21.328	820.039	628.551
390.161	21.433	820.029	628.865
391.175	21.393	819.602	628.340
392.190	21.196	819.050	627.153
393.205	21.195	818.610	626.757
394.219	21.138	817.903	625.956
395.234	21.113	817.539	625.534
396.248	21.018	817.099	624.802
397.263	21.065	816.495	624.451
398.278	20.900	816.643	623.920
399.292	21.055	815.859	623.820
400.307	21.152	815.270	623.659
401.321	21.117	814.693	623.039
402.336	21.275	814.367	623.297
403.350	21.328	813.767	622.973
404.365	21.421	813.640	623.150
405.380	21.512	812.980	622.914
406.394	21.740	812.688	623.447
407.409	21.682	812.439	622.996
408.423	21.668	812.273	622.762
409.438	21.752	811.505	622.417
410.453	21.882	811.357	622.710
411.467	21.983	810.676	622.491
412.482	21.959	810.489	622.208
413.496	22.040	810.066	622.115
414.511	21.877	809.840	621.310
415.526	21.866	809.417	620.891
416.540	21.754	809.015	620.130
417.555	21.738	808.589	619.691
418.569	21.949	807.629	619.647
419.584	21.832	807.326	618.948
420.599	21.817	807.275	618.800
421.613	158.669	1370.099	1789.722
422.628	137.925	1452.137	1789.862
