DTS Sentinel unit serial number:	SN413079Multiplexer serial number:	ORYXHardware model number:	OX4-SRSoftware version number:	ORYX F/W v4.00 Oryx Data Collector v3.7.2.0data status	okinstallation	princeton_trtdifferential loss correction	single-endedforward channel	channel 1reverse channel	N/Adate	2019/09/13time	01:38:35forward acquisition time	60.00reverse acquisition time	0.00gamma	496.2192k internal	0.2330k external	0.2330temperature offset calibration	1.0146default loss term (dB/km)	0.3790temperature slope calibration	1.0000multiplexer offset coefficient	1.0000multiplexer slope coefficient	1.0000fibre end	0.00T internal ref (°C)	27.75T ext. ref 1 (°C)	3.76T ext. ref 2 (°C)	22.40length (m)	temperature (°C)	Stokes	anti-Stokes-747.200	-200.000	0.011	-0.210
-746.185	800.000	-0.088	0.260
-745.171	268.087	0.031	0.055
-744.156	221.846	0.071	0.115
-743.142	149.916	-0.098	0.134
-742.127	800.000	-0.159	0.464
-741.112	280.490	0.078	0.140
-740.098	-118.381	0.299	0.053
-739.083	-200.000	-0.013	0.452
-738.069	-200.000	0.020	-0.268
-737.054	800.000	0.034	0.115
-736.039	143.282	-0.301	0.403
-735.025	79.765	0.203	-0.219
-734.010	88.344	-0.284	-0.317
-732.996	-139.270	-0.386	0.042
-731.981	-1.228	0.125	-0.089
-730.966	-181.789	0.263	-0.005
-729.952	86.416	-0.244	-0.271
-728.937	25.119	0.038	0.032
-727.923	-120.487	-0.552	-0.094
-726.908	147.071	-0.121	-0.164
-725.894	-200.000	-0.106	-0.470
-724.879	-200.000	-0.017	-0.170
-723.864	-138.247	-0.129	-0.014
-722.850	177.777	0.121	0.178
-721.835	179.576	0.121	-0.178
-720.821	-200.000	-0.054	-0.292
-719.806	800.000	0.042	-0.129
-718.791	-57.858	-0.242	0.106
-717.777	4.569	-0.222	-0.164
-716.762	636.803	0.044	-0.113
-715.748	-181.988	-0.129	-0.002
-714.733	800.000	0.058	0.165
-713.718	-76.486	-0.263	-0.093
-712.704	97.612	0.068	-0.079
-711.689	-88.859	-0.182	0.054
-710.675	-200.000	0.001	-0.008
-709.660	179.500	-0.114	-0.168
-708.645	800.000	0.028	-0.109
-707.631	-122.053	0.360	-0.059
-706.616	10.655	-0.136	0.105
-705.602	-19.393	-0.137	-0.086
-704.587	800.000	0.069	-0.243
-703.572	289.034	-0.150	-0.273
-702.558	98.126	0.197	-0.228
-701.543	387.193	0.048	0.099
-700.529	-121.176	-0.344	-0.058
-699.514	-74.502	0.106	0.038
-698.499	-156.363	-0.213	-0.013
-697.485	39.809	-0.334	0.301
-696.470	-17.406	0.119	-0.075
-695.456	-152.090	-0.229	-0.017
-694.441	800.000	-0.056	-0.208
-693.426	-120.520	0.055	-0.009
-692.412	-23.301	-0.135	0.082
-691.397	-200.000	-0.023	-0.257
-690.383	193.687	0.140	-0.214
-689.368	800.000	0.060	0.246
-688.354	-118.910	0.105	0.019
-687.339	682.086	-0.133	-0.348
-686.324	-200.000	0.029	0.287
-685.310	-200.000	-0.006	-0.125
-684.295	-6.728	-0.051	-0.035
-683.281	642.578	-0.049	-0.125
-682.266	271.928	-0.048	-0.085
-681.251	45.128	0.166	0.154
-680.237	800.000	0.076	0.212
-679.222	-144.890	0.117	-0.011
-678.208	306.640	0.081	0.151
-677.193	-200.000	-0.067	0.329
-676.178	800.000	0.058	0.204
-675.164	-31.547	0.158	-0.089
-674.149	-85.704	-0.296	0.092
-673.135	-166.017	0.238	-0.010
-672.120	71.980	0.150	0.157
-671.105	-76.925	0.167	-0.059
-670.091	392.935	0.045	-0.093
-669.076	29.516	0.082	-0.070
-668.062	165.671	0.216	-0.307
-667.047	800.000	-0.077	-0.231
-666.032	800.000	0.017	0.068
-665.018	800.000	0.122	0.348
-664.003	100.170	0.088	0.102
-662.989	163.190	0.053	-0.075
-661.974	800.000	-0.047	0.199
-660.959	-128.051	-0.081	-0.012
-659.945	800.000	-0.044	0.159
-658.930	174.960	-0.220	-0.320
-657.916	800.000	0.078	-0.237
-656.901	800.000	-0.056	0.184
-655.886	-126.884	-0.078	-0.011
-654.872	800.000	-0.062	0.248
-653.857	-25.639	0.017	-0.010
-652.843	35.074	0.256	-0.225
-651.828	467.199	0.022	-0.049
-650.814	440.673	0.071	0.157
-649.799	800.000	0.041	0.147
-648.784	63.862	0.365	0.368
-647.770	32.967	-0.344	-0.299
-646.755	-199.394	-0.214	-0.001
-645.741	-41.791	-0.085	0.043
-644.726	-200.000	-0.023	-0.183
-643.711	247.492	-0.165	-0.279
-642.697	800.000	0.091	-0.291
-641.682	783.059	-0.034	0.094
-640.668	18.669	-0.221	0.178
-639.653	800.000	0.128	0.438
-638.638	199.207	-0.039	0.061
-637.624	-81.045	-0.448	-0.149
-636.609	-14.848	0.202	0.130
-635.595	-125.770	-0.152	-0.023
-634.580	96.267	-0.150	0.172
-633.565	34.191	-0.159	0.139
-632.551	-62.884	0.286	0.119
-631.536	-16.536	0.257	0.163
-630.522	362.049	-0.101	-0.202
-629.507	-30.038	0.228	0.130
-628.492	-116.692	-0.234	0.043
-627.478	-55.382	0.263	0.118
-626.463	-200.000	0.026	-0.159
-625.449	-200.000	0.027	0.248
-624.434	115.130	-0.146	-0.179
-623.419	377.908	0.035	-0.072
-622.405	452.311	-0.160	-0.355
-621.390	-77.182	-0.138	-0.048
-620.376	-200.000	0.000	0.616
-619.361	182.010	-0.096	0.142
-618.346	800.000	-0.027	0.099
-617.332	246.115	0.124	-0.209
-616.317	156.643	0.068	-0.094
-615.303	-200.000	0.048	0.235
-614.288	199.470	-0.202	-0.310
-613.273	223.305	-0.111	-0.179
-612.259	-142.665	0.341	0.033
-611.244	800.000	-0.055	-0.177
-610.230	-21.706	0.156	-0.095
-609.215	8.821	0.142	-0.107
-608.201	-9.146	0.170	0.114
-607.186	421.448	0.070	-0.150
-606.171	325.645	-0.132	0.252
-605.157	252.639	0.078	-0.134
-604.142	-101.147	0.251	-0.062
-603.128	56.455	0.106	0.103
-602.113	24.541	-0.120	0.099
-601.098	596.023	-0.124	0.307
-600.084	151.581	-0.014	0.019
-599.069	621.868	0.097	-0.243
-598.055	13.338	0.114	0.088
-597.040	-147.810	0.108	0.009
-596.025	-47.789	0.132	-0.064
-595.011	53.300	0.090	-0.086
-593.996	413.503	-0.036	0.076
-592.982	-65.134	-0.097	0.039
-591.967	-96.436	0.228	0.060
-590.952	-48.210	-0.090	-0.044
-589.938	-68.675	-0.156	0.061
-588.923	17.511	0.280	-0.223
-587.909	512.429	0.030	0.070
-586.894	241.259	-0.057	0.095
-585.879	-200.000	0.009	-0.085
-584.865	58.744	0.018	0.017
-583.850	-200.000	-0.011	-0.091
-582.836	36.930	0.233	0.206
-581.821	342.435	-0.163	-0.320
-580.806	200.577	-0.091	-0.139
-579.792	-112.318	-0.304	-0.061
-578.777	-200.000	0.030	0.256
-577.763	-37.265	0.197	0.105
-576.748	18.028	0.208	-0.166
-575.733	270.158	0.082	-0.144
-574.719	151.508	-0.067	0.091
-573.704	146.475	-0.121	0.162
-572.690	14.907	0.135	-0.106
-571.675	85.815	0.187	0.206
-570.661	-20.339	-0.246	-0.151
-569.646	800.000	-0.069	0.231
-568.631	-30.213	0.192	0.109
-567.617	-200.000	-0.003	-0.293
-566.602	800.000	0.066	0.222
-565.588	-106.295	-0.374	0.084
-564.573	68.530	0.286	-0.293
-563.558	-160.965	0.131	0.007
-562.544	-67.851	-0.270	-0.105
-561.529	-200.000	-0.000	0.313
-560.515	-200.000	0.026	-0.123
-559.500	14.328	0.065	-0.051
-558.485	-91.200	-0.312	-0.089
-557.471	-89.989	0.020	0.006
-556.456	-200.000	-0.061	0.330
-555.442	21.855	0.037	0.030
-554.427	-200.000	-0.007	0.142
-553.412	-7.421	-0.270	0.183
-552.398	-114.032	-0.181	0.035
-551.383	-200.000	0.028	-0.191
-550.369	-200.000	0.046	-0.218
-549.354	-122.938	0.117	0.019
-548.339	-82.157	0.269	0.088
-547.325	-113.834	-0.298	0.058
-546.310	-69.233	0.113	-0.043
-545.296	-123.650	0.284	0.045
-544.281	62.368	0.166	0.166
-543.266	52.630	0.176	0.168
-542.252	53.427	0.253	0.242
-541.237	257.921	-0.070	0.121
-540.223	43.208	0.218	-0.199
-539.208	-149.708	0.226	-0.018
-538.193	6.302	-0.038	0.028
-537.179	-11.024	0.051	-0.034
-536.164	-17.223	0.097	-0.061
-535.150	-200.000	-0.108	-0.612
-534.135	685.344	0.111	-0.290
-533.121	355.405	0.067	-0.132
-532.106	-200.000	0.005	0.058
-531.091	-14.808	-0.045	-0.029
-530.077	6.903	0.210	-0.156
-529.062	-71.547	0.040	0.015
-528.048	800.000	0.042	0.118
-527.033	-45.141	-0.119	-0.059
-526.018	-200.000	-0.005	-0.094
-525.004	-105.508	-0.119	-0.027
-523.989	-200.000	-0.038	-0.197
-522.975	-79.921	-0.151	0.051
-521.960	91.797	-0.180	0.202
-520.945	288.224	0.095	0.171
-519.931	-99.569	-0.060	0.015
-518.916	-119.309	0.219	-0.038
-517.902	-6.748	0.065	-0.044
-516.887	800.000	-0.104	0.370
-515.872	-182.662	-0.198	-0.004
-514.858	-200.000	-0.024	0.155
-513.843	800.000	0.043	0.143
-512.829	179.225	0.221	0.323
-511.814	-111.191	-0.043	0.009
-510.799	-167.433	-0.325	-0.013
-509.785	11.015	-0.165	0.125
-508.770	182.390	-0.149	-0.220
-507.756	-110.399	-0.296	-0.061
-506.741	-55.406	-0.143	-0.064
-505.726	198.683	-0.041	-0.063
-504.712	-79.457	-0.234	0.079
-503.697	-69.019	-0.109	-0.042
-502.683	6.450	0.326	-0.241
-501.668	-28.921	0.280	0.161
-500.653	-97.250	-0.137	0.036
-499.639	47.100	-0.208	0.193
-498.624	51.339	-0.086	0.081
-497.610	800.000	-0.086	-0.238
-496.595	272.935	-0.064	0.112
-495.581	800.000	-0.063	0.182
-494.566	-56.367	-0.007	-0.003
-493.551	278.960	-0.066	-0.117
-492.537	-63.064	0.390	-0.161
-491.522	-38.259	-0.088	-0.046
-490.508	119.460	-0.126	0.155
-489.493	480.799	0.055	0.124
-488.478	551.703	0.067	-0.159
-487.464	-103.287	0.263	0.062
-486.449	152.956	-0.037	-0.050
-485.435	800.000	-0.048	0.135
-484.420	478.324	0.043	-0.097
-483.405	-15.189	-0.187	-0.119
-482.391	-114.721	0.083	0.016
-481.376	-16.415	-0.240	-0.152
-480.362	800.000	-0.091	0.265
-479.347	800.000	0.080	0.250
-478.332	-200.000	0.007	-0.245
-477.318	-119.846	0.242	-0.041
-476.303	-36.421	-0.137	0.074
-475.289	0.961	-0.193	-0.138
-474.274	-115.978	-0.235	0.044
-473.259	66.788	0.175	-0.178
-472.245	21.477	0.166	-0.134
-471.230	187.684	0.157	0.233
-470.216	-200.000	-0.042	0.671
-469.201	-86.444	0.288	0.088
-468.186	1.103	-0.290	-0.207
-467.172	106.779	0.089	-0.105
-466.157	86.600	-0.091	0.100
-465.143	57.579	-0.046	0.045
-464.128	734.178	-0.109	-0.290
-463.113	373.784	-0.077	0.157
-462.099	46.698	-0.084	0.078
-461.084	114.037	0.114	0.138
-460.070	-110.158	-0.434	0.090
-459.055	433.505	-0.042	0.091
-458.040	-200.000	-0.018	-0.332
-457.026	123.431	0.153	0.191
-456.011	-130.701	-0.301	0.040
-454.997	-68.325	-0.315	0.122
-453.982	-148.183	-0.322	-0.027
-452.968	163.257	-0.177	0.247
-451.953	-200.000	0.006	0.272
-450.938	-75.304	-0.103	-0.037
-449.924	-200.000	-0.032	0.142
-448.909	2.330	-0.117	-0.084
-447.895	-80.031	-0.139	-0.046
-446.880	800.000	-0.019	0.079
-445.865	3.696	0.191	0.139
-444.851	-45.705	-0.190	0.093
-443.836	-77.114	-0.243	0.084
-442.822	2.998	0.117	-0.085
-441.807	93.840	0.086	0.097
-440.792	-0.671	-0.122	-0.086
-439.778	-109.567	0.179	0.037
-438.763	-200.000	-0.003	-0.119
-437.749	-0.040	-0.161	-0.114
-436.734	-60.392	-0.276	0.117
-435.719	-78.115	-0.058	-0.020
-434.705	-102.592	0.150	-0.036
-433.690	347.782	0.111	-0.217
-432.676	800.000	0.055	-0.238
-431.661	-132.211	0.051	-0.007
-430.646	-200.000	-0.055	0.265
-429.632	-200.000	0.016	0.189
-428.617	-0.444	0.079	-0.056
-427.603	-167.372	0.243	0.010
-426.588	-93.949	0.326	-0.089
-425.573	800.000	-0.059	-0.173
-424.559	504.968	-0.073	0.167
-423.544	800.000	0.093	0.378
-422.530	280.586	-0.069	-0.123
-421.515	40.149	-0.108	-0.097
-420.500	-30.376	0.132	0.074
-419.486	136.680	0.251	-0.325
-418.471	-73.678	-0.330	-0.119
-417.457	800.000	0.078	0.252
-416.442	-200.000	0.013	-0.257
-415.428	79.320	0.045	-0.048
-414.413	-7.362	0.174	-0.117
-413.398	-49.651	0.292	0.138
-412.384	464.793	0.074	-0.165
-411.369	-1.772	0.229	0.160
-410.355	319.358	0.114	-0.214
-409.340	-137.014	-0.082	-0.009
-408.325	800.000	0.075	-0.280
-407.311	-119.080	0.193	-0.034
-406.296	-3.654	0.299	0.207
-405.282	26.992	0.153	-0.127
-404.267	117.065	0.034	0.041
-403.252	6.926	0.156	0.116
-402.238	800.000	-0.116	-0.360
-401.223	74.599	0.205	0.214
-400.209	800.000	-0.038	0.143
-399.194	800.000	-0.137	-0.380
-398.179	-200.000	0.049	0.239
-397.165	281.341	0.192	0.342
-396.150	75.161	0.051	0.053
-395.136	107.584	-0.166	-0.196
-394.121	800.000	0.085	-0.257
-393.106	721.605	0.142	-0.375
-392.092	-58.778	0.271	-0.117
-391.077	-59.582	-0.114	0.048
-390.063	316.112	0.089	-0.167
-389.048	349.576	0.084	0.165
-388.033	491.673	0.144	0.329
-387.019	579.411	0.159	-0.387
-386.004	112.138	-0.116	0.140
-384.990	-159.238	-0.267	0.015
-383.975	800.000	-0.065	0.224
-382.960	-79.548	-0.257	-0.086
-381.946	23.105	0.390	0.318
-380.931	38.160	0.132	0.116
-379.917	-42.182	0.170	0.086
-378.902	-133.580	0.105	-0.013
-377.888	-157.670	-0.292	-0.017
-376.873	-200.000	0.065	-0.380
-375.858	-158.266	0.301	-0.017
-374.844	-53.924	0.332	0.150
-373.829	-55.768	-0.207	0.092
-372.815	-92.045	0.160	-0.045
-371.800	800.000	-0.114	0.421
-370.785	-162.162	-0.205	-0.010
-369.771	-173.344	-0.341	-0.010
-368.756	245.735	0.048	-0.080
-367.742	800.000	0.087	0.289
-366.727	-92.730	0.068	0.019
-365.712	220.319	0.112	-0.178
-364.698	-200.000	-0.027	-0.134
-363.683	800.000	0.045	0.155
-362.669	800.000	0.050	-0.192
-361.654	-113.973	0.260	0.050
-360.639	-44.558	0.222	-0.110
-359.625	-63.376	-0.133	0.054
-358.610	-120.278	-0.122	-0.021
-357.596	-72.983	0.229	-0.083
-356.581	-200.000	0.011	-0.218
-355.566	521.609	-0.203	-0.472
-354.552	142.264	0.139	-0.182
-353.537	185.203	-0.125	-0.184
-352.523	-84.084	-0.105	-0.033
-351.508	-200.000	-0.020	0.204
-350.493	-60.068	-0.146	0.062
-349.479	614.503	0.043	0.106
-348.464	536.467	0.010	-0.024
-347.450	30.226	-0.163	-0.138
-346.435	-27.074	-0.332	0.192
-345.420	180.567	-0.113	-0.165
-344.406	-53.705	0.314	-0.142
-343.391	85.517	0.125	-0.136
-342.377	546.074	0.083	0.197
-341.362	-71.154	0.133	0.050
-340.348	800.000	0.016	-0.056
-339.333	230.297	0.072	0.117
-338.318	83.743	-0.140	0.151
-337.304	-200.000	-0.019	0.275
-336.289	378.541	-0.110	-0.223
-335.275	435.303	-0.097	0.210
-334.260	375.715	0.159	0.321
-333.245	800.000	-0.114	-0.337
-332.231	600.436	-0.101	0.248
-331.216	-18.959	0.252	-0.155
-330.202	-200.000	0.042	-0.242
-329.187	-129.622	0.103	-0.014
-328.172	800.000	0.079	-0.301
-327.158	-119.919	-0.145	-0.025
-326.143	19.961	0.044	-0.035
-325.129	272.990	0.051	-0.089
-324.114	-111.401	0.464	-0.094
-323.099	-200.000	0.005	0.073
-322.085	-67.159	-0.191	-0.074
-321.070	316.551	0.066	0.124
-320.056	-114.108	-0.127	0.024
-319.041	58.605	0.064	0.062
-318.026	800.000	0.060	-0.233
-317.012	-200.000	0.013	-0.301
-315.997	-200.000	0.001	0.034
-314.983	-78.457	0.203	0.069
-313.968	90.198	-0.066	-0.073
-312.953	800.000	0.140	-0.437
-311.939	-4.371	-0.106	-0.073
-310.924	800.000	-0.060	-0.259
-309.910	-200.000	-0.047	-0.276
-308.895	-200.000	0.052	-0.238
-307.880	148.768	-0.087	0.116
-306.866	800.000	-0.097	0.313
-305.851	-14.504	-0.158	-0.100
-304.837	75.065	0.205	0.214
-303.822	-200.000	0.008	0.066
-302.807	572.999	0.062	-0.150
-301.793	255.893	0.102	-0.174
-300.778	316.356	-0.085	-0.158
-299.764	473.246	-0.012	-0.026
-298.749	113.154	-0.227	0.273
-297.735	509.544	-0.107	-0.247
-296.720	760.627	0.028	-0.076
-295.705	182.555	0.089	-0.130
-294.691	-168.455	-0.107	-0.004
-293.676	800.000	0.104	-0.428
-292.662	-181.054	-0.104	0.002
-291.647	-3.542	-0.145	0.099
-290.632	-70.466	-0.177	0.066
-289.618	-27.327	-0.097	-0.056
-288.603	160.971	-0.172	0.238
-287.589	-60.054	0.223	-0.094
-286.574	-187.340	-0.165	0.002
-285.559	-78.380	0.272	0.092
-284.545	88.166	0.271	-0.297
-283.530	18.616	0.102	-0.080
-282.516	-59.540	0.245	0.104
-281.501	231.452	-0.126	0.203
-280.486	132.579	-0.168	-0.214
-279.472	-146.366	-0.229	0.020
-278.457	800.000	-0.057	-0.212
-277.443	4.459	0.071	-0.052
-276.428	43.073	-0.365	0.329
-275.413	102.751	0.098	0.114
-274.399	800.000	0.028	-0.094
-273.384	-200.000	-0.019	-0.203
-272.370	27.755	-0.097	-0.081
-271.355	-47.604	-0.360	0.173
-270.340	-137.060	0.069	-0.008
-269.326	-0.812	-0.261	-0.183
-268.311	-22.184	0.141	-0.084
-267.297	-155.945	-0.027	0.002
-266.282	215.762	0.074	0.117
-265.267	10.558	0.066	0.050
-264.253	394.891	0.108	0.221
-263.238	-132.889	0.208	0.026
-262.224	32.710	-0.180	-0.154
-261.209	800.000	0.007	0.025
-260.195	-8.557	0.251	-0.167
-259.180	800.000	0.041	0.163
-258.165	-53.058	0.086	0.039
-257.151	800.000	-0.074	0.297
-256.136	-1.234	-0.163	0.114
-255.122	2.932	0.160	0.115
-254.107	-200.000	0.202	-0.000
-253.092	133.867	-0.138	0.176
-252.078	-105.497	0.388	-0.087
-251.063	96.721	-0.069	0.078
-250.049	-200.000	-0.011	0.089
-249.034	-200.000	-0.066	0.329
-248.019	-154.553	-0.507	-0.033
-247.005	159.046	-0.135	0.186
-245.990	10.417	0.247	0.186
-244.976	800.000	-0.128	-0.360
-243.961	201.035	0.055	0.084
-242.946	557.938	-0.075	-0.178
-241.932	-84.190	-0.155	-0.048
-240.917	-200.000	-0.031	0.505
-239.903	-15.358	0.222	-0.140
-238.888	9.191	-0.263	-0.196
-237.873	-200.000	0.039	-0.209
-236.859	-200.000	-0.026	-0.129
-235.844	-88.898	-0.331	0.097
-234.830	27.992	-0.239	-0.199
-233.815	-23.790	-0.085	-0.050
-232.800	-30.728	-0.289	-0.161
-231.786	260.816	0.122	-0.208
-230.771	-162.780	0.165	-0.008
-229.757	-177.329	-0.294	-0.007
-228.742	-22.727	-0.369	0.220
-227.727	-53.071	0.017	-0.008
-226.713	-61.277	-0.045	-0.019
-225.698	57.050	0.185	-0.178
-224.684	-79.010	-0.258	0.087
-223.669	-136.782	-0.374	0.042
-222.655	-66.750	0.152	-0.059
-221.640	320.535	0.140	-0.263
-220.625	25.592	-0.118	0.096
-219.611	390.670	-0.034	0.069
-218.596	-85.193	0.089	-0.028
-217.582	-24.407	0.081	0.048
-216.567	333.027	0.158	-0.300
-215.552	-28.682	-0.283	-0.160
-214.538	-90.217	0.217	0.062
-213.523	-63.451	-0.377	0.153
-212.509	-173.232	0.195	0.006
-211.494	62.217	-0.247	-0.243
-210.479	-105.350	0.105	0.024
-209.465	271.331	0.112	-0.195
-208.450	-151.862	0.190	-0.014
-207.436	30.463	-0.156	0.131
-206.421	-107.092	-0.140	-0.030
-205.406	15.712	0.147	-0.114
-204.392	-84.390	0.428	0.133
-203.377	131.159	-0.094	0.119
-202.363	-200.000	-0.003	0.194
-201.348	64.218	0.180	-0.179
-200.333	-200.000	-0.018	0.132
-199.319	800.000	-0.127	-0.429
-198.304	-200.000	0.000	0.087
-197.290	-200.000	-0.011	-0.218
-196.275	-200.000	-0.021	-0.092
-195.260	-200.000	0.008	-0.163
-194.246	34.017	0.081	-0.069
-193.231	-200.000	0.010	-0.181
-192.217	800.000	0.031	-0.089
-191.202	-102.440	-0.108	0.025
-190.187	-200.000	-0.002	0.142
-189.173	-143.433	0.373	-0.035
-188.158	385.163	-0.125	0.253
-187.144	800.000	0.019	-0.074
-186.129	800.000	-0.073	0.228
-185.114	800.000	-0.112	0.399
-184.100	7.259	-0.212	0.156
-183.085	114.332	-0.236	0.282
-182.071	-147.696	-0.096	-0.008
-181.056	800.000	-0.026	-0.075
-180.042	106.586	-0.059	-0.069
-179.027	-121.959	0.334	-0.054
-178.012	90.860	0.086	-0.094
-176.998	-200.000	0.010	0.068
-175.983	207.924	-0.056	0.085
-174.969	-200.000	-0.080	-0.422
-173.954	508.477	0.153	-0.349
-172.939	63.369	0.361	0.357
-171.925	40.465	-0.090	-0.080
-170.910	800.000	-0.047	-0.162
-169.896	30.290	0.149	0.126
-168.881	800.000	0.151	0.464
-167.866	753.674	0.125	0.333
-166.852	-39.615	-0.341	0.176
-165.837	-15.269	-0.088	0.055
-164.823	132.702	-0.163	0.207
-163.808	-59.071	0.406	-0.172
-162.793	-200.000	0.059	0.312
-161.779	-141.346	0.230	0.023
-160.764	-122.992	0.106	0.017
-159.750	800.000	0.064	-0.182
-158.735	28.389	-0.277	0.230
-157.720	-96.209	0.236	0.062
-156.706	-200.000	0.002	-0.059
-155.691	-66.707	0.116	0.045
-154.677	60.085	-0.066	0.064
-153.662	800.000	0.005	0.014
-152.647	-76.008	-0.302	0.105
-151.633	-60.385	-0.114	-0.048
-150.618	102.932	-0.168	0.193
-149.604	69.707	-0.068	0.069
-148.589	229.251	0.097	-0.155
-147.574	800.000	-0.082	0.258
-146.560	800.000	-0.029	-0.111
-145.545	800.000	-0.060	0.216
-144.531	-137.040	-0.260	-0.029
-143.516	800.000	-0.034	-0.104
-142.502	180.140	0.075	-0.109
-141.487	-33.658	0.173	0.094
-140.472	800.000	-0.035	-0.126
-139.458	-29.936	-0.321	-0.179
-138.443	217.583	0.114	0.179
-137.429	-71.387	-0.140	-0.051
-136.414	68.526	-0.290	0.292
-135.399	-200.000	-0.026	0.205
-134.385	-122.193	0.094	0.015
-133.370	144.609	0.176	0.231
-132.356	242.801	0.040	0.066
-131.341	-3.308	-0.286	0.196
-130.326	800.000	0.057	-0.192
-129.312	198.514	0.073	-0.110
-128.297	-72.313	-0.292	0.106
-127.283	-200.000	0.045	0.207
-126.268	-95.792	-0.162	0.043
-125.253	335.119	-0.021	-0.041
-124.239	-4.004	0.183	-0.125
-123.224	-200.000	0.025	0.213
-122.210	-167.384	-0.343	-0.014
-121.195	-51.780	-0.139	0.063
-120.180	57.740	-0.019	-0.018
-119.166	-43.284	-0.202	-0.100
-118.151	-2.213	0.150	0.103
-117.137	800.000	0.098	0.289
-116.122	-9.081	0.260	0.171
-115.107	-37.529	0.138	-0.072
-114.093	-200.000	0.016	-0.115
-113.078	-29.997	0.356	-0.199
-112.064	68.950	-0.251	-0.253
-111.049	736.724	0.013	0.035
-110.034	42.346	-0.071	0.063
-109.020	-115.008	0.069	-0.013
-108.005	-78.253	-0.118	-0.040
-106.991	-200.000	0.032	0.209
-105.976	261.872	0.120	0.205
-104.962	-200.000	0.006	0.078
-103.947	172.696	-0.149	-0.211
-102.932	359.549	-0.060	-0.118
-101.918	139.859	0.145	0.187
-100.903	-200.000	-0.016	-0.074
-99.889	800.000	-0.055	-0.215
-98.874	-200.000	-0.030	0.413
-97.859	-200.000	0.028	-0.400
-96.845	-200.000	0.035	-0.201
-95.830	13.746	-0.134	0.102
-94.816	131.658	-0.220	-0.278
-93.801	-131.787	-0.306	-0.039
-92.786	800.000	0.136	0.402
-91.772	-80.888	0.350	0.114
-90.757	-39.951	-0.265	-0.136
-89.743	70.108	-0.226	0.229
-88.728	800.000	0.043	0.162
-87.713	-169.660	0.371	0.013
-86.699	-200.000	-0.012	0.222
-85.684	-43.369	-0.120	0.060
-84.670	-21.772	0.368	0.220
-83.655	-200.000	-0.037	0.160
-82.640	224.783	-0.088	0.139
-81.626	40.601	-0.208	0.184
-80.611	-96.819	0.241	0.062
-79.597	800.000	-0.055	0.219
-78.582	-14.939	0.125	-0.078
-77.567	800.000	-0.012	0.039
-76.553	-19.394	-0.102	0.062
-75.538	-200.000	-0.054	-0.249
-74.524	62.958	-0.201	0.197
-73.509	-200.000	0.022	0.171
-72.494	-200.000	0.022	-0.220
-71.480	-87.301	-0.277	0.083
-70.465	134.767	0.221	-0.282
-69.451	-200.000	0.024	-0.130
-68.436	17.114	-0.159	0.124
-67.422	-136.757	0.420	0.048
-66.407	-171.772	0.390	0.013
-65.392	124.017	-0.234	0.288
-64.378	800.000	0.102	-0.328
-63.363	203.502	0.190	0.288
-62.349	-138.638	-0.132	-0.014
-61.334	20.429	-1.042	-0.825
-60.319	-19.596	0.727	0.441
-59.305	282.330	-0.514	-0.903
-58.290	191.075	0.896	1.321
-57.276	455.312	0.682	1.481
-56.261	-200.000	114.130	650.238
-55.246	537.140	1519.883	3537.297
-54.232	179.260	2681.006	3843.735
-53.217	110.173	2146.610	2525.443
-52.203	39.334	1595.392	1399.537
-51.188	31.026	1343.992	1128.913
-50.173	28.247	1305.354	1080.048
-49.159	55.239	1362.538	1290.679
-48.144	54.415	1376.622	1299.017
-47.130	31.355	1331.809	1120.473
-46.115	27.820	1314.436	1084.851
-45.100	27.648	1309.847	1080.002
-44.086	27.533	1307.225	1077.119
-43.071	27.596	1305.003	1075.619
-42.057	27.654	1302.888	1074.171
-41.042	27.628	1300.969	1072.394
-40.027	27.735	1299.344	1071.642
-39.013	27.639	1297.875	1069.822
-37.998	27.629	1296.136	1068.291
-36.984	27.651	1294.170	1066.754
-35.969	27.787	1292.438	1066.079
-34.954	27.833	1290.628	1064.811
-33.940	27.682	1289.874	1063.269
-32.925	27.803	1288.028	1062.409
-31.911	27.765	1286.870	1061.192
-30.896	27.813	1285.078	1059.948
-29.881	27.984	1284.139	1060.124
-28.867	27.908	1282.343	1058.157
-27.852	27.804	1281.625	1056.924
-26.838	27.921	1279.506	1055.809
-25.823	27.869	1278.352	1054.515
-24.809	27.828	1277.377	1053.435
-23.794	27.742	1276.309	1052.015
-22.779	27.955	1274.298	1051.540
-21.765	27.768	1273.486	1049.753
-20.750	27.930	1271.821	1049.272
-19.736	27.734	1270.764	1047.232
-18.721	27.710	1269.772	1046.233
-17.706	27.723	1268.403	1045.143
-16.692	27.740	1267.348	1044.328
-15.677	27.764	1266.215	1043.488
-14.663	27.722	1264.967	1042.177
-13.648	27.641	1264.297	1041.120
-12.633	27.729	1263.157	1040.645
-11.619	27.602	1262.746	1039.539
-10.604	27.694	1261.274	1038.812
-9.590	27.682	1260.222	1037.837
-8.575	27.697	1259.629	1037.390
-7.560	27.691	1258.773	1036.613
-6.546	27.671	1257.828	1035.678
-5.531	27.625	1257.021	1034.709
-4.517	27.735	1256.074	1034.516
-3.502	27.686	1255.264	1033.527
-2.487	27.771	1254.216	1033.109
-1.473	27.682	1250.233	1029.284
-0.458	26.074	1235.042	1007.761
0.556	24.077	1217.392	969.691
1.571	20.326	1222.629	953.214
2.586	19.291	1237.170	958.713
3.600	19.148	1225.171	948.544
4.615	14.664	1153.850	869.934
5.629	7.254	1081.696	779.142
6.644	4.066	1063.312	750.403
7.659	3.777	1060.817	747.180
8.673	3.662	1059.222	745.432
9.688	3.536	1058.370	744.159
10.702	4.007	1056.100	744.767
11.717	8.679	1062.454	771.747
12.731	16.892	1074.432	820.273
13.746	21.740	1080.423	848.303
14.761	22.558	1081.442	852.987
15.775	21.952	1079.530	848.475
16.790	21.027	1077.901	842.655
17.804	20.426	1076.538	838.614
18.819	20.385	1075.241	837.331
19.834	20.352	1074.827	836.776
20.848	20.429	1074.522	836.836
21.863	20.118	1073.882	834.763
22.877	20.068	1072.593	833.446
23.892	20.011	1071.871	832.540
24.907	19.710	1071.667	830.862
25.921	19.746	1070.485	830.045
26.936	19.679	1069.466	828.860
27.950	19.842	1067.340	827.917
28.965	19.954	1066.549	827.765
29.980	20.130	1064.987	827.323
30.994	20.331	1063.559	827.096
32.009	20.271	1063.264	826.508
33.023	20.159	1062.624	825.403
34.038	20.157	1061.042	824.090
35.053	19.923	1059.958	822.067
36.067	19.802	1059.526	821.087
37.082	19.887	1058.584	820.686
38.096	20.043	1058.076	820.959
39.111	20.229	1056.790	820.767
40.126	19.966	1055.870	818.734
41.140	19.610	1054.079	815.596
42.155	19.413	1052.977	813.739
43.169	19.310	1051.902	812.355
44.184	19.276	1051.264	811.630
45.199	19.296	1050.641	811.171
46.213	19.558	1049.229	811.236
47.228	19.878	1049.003	812.496
48.242	19.972	1047.937	812.040
49.257	19.898	1046.848	810.776
50.271	20.070	1046.366	811.136
51.286	20.101	1045.636	810.644
52.301	20.086	1044.044	809.266
53.315	20.015	1043.173	808.187
54.330	19.704	1042.370	806.046
55.344	19.675	1041.180	804.921
56.359	19.699	1040.173	804.182
57.374	19.532	1039.502	802.817
58.388	19.435	1038.585	801.585
59.403	19.346	1037.478	800.247
60.417	19.237	1037.325	799.552
61.432	19.264	1036.388	798.882
62.447	19.127	1035.732	797.674
63.461	19.195	1034.461	796.937
64.476	19.002	1034.084	795.683
65.490	19.218	1032.568	795.446
66.505	19.118	1032.929	795.190
67.520	19.160	1031.654	794.331
68.534	19.236	1030.941	794.064
69.549	19.133	1029.918	792.731
70.563	19.016	1029.320	791.660
71.578	18.983	1028.120	790.519
72.593	18.672	1028.009	788.935
73.607	18.798	1026.499	788.281
74.622	18.952	1026.579	788.979
75.636	18.983	1025.736	788.404
76.651	18.988	1025.239	787.979
77.666	19.045	1024.664	787.723
78.680	18.899	1024.004	786.483
79.695	19.048	1023.050	786.359
80.709	19.363	1022.681	787.445
81.724	19.422	1021.758	786.932
82.739	19.573	1021.191	787.114
83.753	19.908	1021.427	788.757
84.768	20.212	1020.757	789.551
85.782	20.422	1019.908	789.783
86.797	20.411	1018.670	788.702
87.812	20.128	1017.719	786.610
88.826	20.076	1016.957	785.716
89.841	20.320	1015.865	785.908
90.855	20.506	1015.292	786.239
91.870	20.425	1014.233	784.983
92.884	20.375	1013.195	783.884
93.899	20.313	1012.339	782.870
94.914	20.297	1011.887	782.381
95.928	20.190	1010.974	781.125
96.943	20.048	1009.859	779.556
97.957	20.203	1008.875	779.424
98.972	20.142	1007.953	778.370
99.987	20.225	1007.544	778.355
101.001	20.147	1006.469	777.106
102.016	20.087	1005.570	776.075
103.030	20.227	1004.926	776.137
104.045	20.376	1003.911	775.951
105.060	20.037	1003.141	773.771
106.074	19.641	1002.153	771.172
107.089	19.508	1000.385	769.153
108.103	19.417	999.188	767.758
109.118	19.155	998.750	766.188
110.133	19.025	997.768	764.789
111.147	19.129	996.536	764.239
112.162	19.269	995.933	764.332
113.176	19.564	995.030	764.877
114.191	19.577	994.910	764.776
115.206	19.414	994.056	763.329
116.220	19.290	993.276	762.113
117.235	19.311	992.129	761.261
118.249	19.096	991.877	760.048
119.264	19.154	990.430	759.131
120.279	19.074	989.843	758.259
121.293	19.026	988.794	757.179
122.308	18.942	987.964	756.106
123.322	18.755	987.062	754.525
124.337	18.893	985.606	753.954
125.352	18.687	985.050	752.558
126.366	18.767	984.192	752.187
127.381	18.896	983.252	751.967
128.395	18.952	982.350	751.453
129.410	19.091	981.275	751.173
130.424	19.057	980.953	750.711
131.439	19.399	979.982	751.391
132.454	19.418	979.288	750.877
133.468	19.371	978.587	750.068
134.483	19.392	977.630	749.358
135.497	19.325	976.945	748.476
136.512	19.545	975.745	748.446
137.527	19.456	975.339	747.680
138.541	19.444	974.645	747.029
139.556	19.473	974.320	746.840
140.570	19.755	973.437	747.317
141.585	20.192	972.731	748.597
142.600	20.051	971.976	747.343
143.614	20.139	971.424	747.230
144.629	20.300	970.438	747.098
145.643	20.113	969.580	745.569
146.658	19.919	967.790	743.292
147.673	19.750	966.793	741.737
148.687	19.557	965.935	740.186
149.702	19.413	964.912	738.717
150.716	19.418	964.104	738.055
151.731	19.415	963.673	737.649
152.746	19.556	962.866	737.566
153.760	19.673	962.136	737.440
154.775	19.860	961.474	737.669
155.789	19.799	961.061	737.025
156.804	19.931	960.284	736.926
157.819	19.950	959.743	736.528
158.833	20.072	959.461	736.765
159.848	20.396	958.278	737.167
160.862	20.136	957.165	735.139
161.877	19.725	956.012	732.451
162.892	19.418	954.691	730.075
163.906	19.506	953.308	729.321
164.921	19.439	953.024	728.761
165.935	19.622	951.644	728.411
166.950	19.734	951.187	728.467
167.964	19.594	950.516	727.301
168.979	19.451	949.700	726.010
169.994	19.473	948.334	724.994
171.008	19.700	947.948	725.589
172.023	20.109	947.435	726.847
173.037	20.214	946.974	726.869
174.052	19.780	946.418	724.559
175.067	19.567	944.293	721.980
176.081	19.354	944.146	720.911
177.096	19.365	944.019	720.795
178.110	19.413	943.223	720.324
179.125	19.535	942.628	720.317
180.140	19.664	942.060	720.356
181.154	19.902	941.880	721.148
182.169	20.094	941.491	721.584
183.183	20.051	940.909	720.894
184.198	19.961	940.300	719.990
185.213	19.908	939.633	719.197
186.227	20.097	938.832	719.305
187.242	20.269	938.433	719.647
188.256	20.312	938.068	719.484
189.271	20.366	937.251	719.017
190.286	20.028	935.938	716.547
191.300	19.365	934.748	712.834
192.315	19.216	934.076	711.641
193.329	19.313	933.487	711.529
194.344	19.462	933.224	711.881
195.359	19.762	932.449	712.465
196.373	19.806	932.158	712.362
197.388	19.967	931.945	712.797
198.402	20.362	931.779	714.234
199.417	20.401	931.354	714.004
200.432	20.528	930.817	714.053
201.446	20.765	930.167	714.462
202.461	20.692	930.158	714.094
203.475	20.519	929.079	712.490
204.490	20.271	927.760	710.400
205.504	20.193	926.925	709.379
206.519	20.076	926.415	708.450
207.534	20.066	925.532	707.672
208.548	20.130	924.754	707.276
209.563	20.166	923.984	706.771
210.577	20.076	924.082	706.413
211.592	20.511	923.322	707.541
212.607	20.728	922.272	707.559
213.621	20.461	921.880	706.108
214.636	20.317	921.190	704.935
215.650	20.469	920.453	704.925
216.665	20.510	920.171	704.811
217.680	20.673	919.132	704.615
218.694	20.746	918.514	704.373
219.709	20.682	917.589	703.344
220.723	20.635	916.991	702.632
221.738	20.382	916.627	701.270
222.753	20.466	915.637	700.789
223.767	20.498	915.622	700.846
224.782	20.783	915.003	701.458
225.796	20.727	914.427	700.728
226.811	20.571	913.640	699.436
227.826	20.455	912.527	698.055
228.840	20.326	911.889	696.989
229.855	20.440	911.056	696.749
230.869	20.261	910.569	695.593
231.884	20.168	909.912	694.658
232.899	20.033	909.297	693.587
233.913	20.033	908.361	692.812
234.928	20.028	907.635	692.177
235.942	19.800	907.318	690.965
236.957	20.046	906.336	691.138
237.972	19.960	905.921	690.414
238.986	19.907	905.487	689.811
240.001	20.047	904.499	689.557
241.015	20.083	904.244	689.443
242.030	20.270	903.530	689.583
243.045	20.332	903.053	689.402
244.059	20.349	902.408	688.917
245.074	20.383	902.091	688.748
246.088	20.444	901.640	688.584
247.103	20.528	901.392	688.667
248.117	20.966	901.032	690.066
249.132	21.124	900.686	690.365
250.147	21.370	900.647	691.247
251.161	21.465	900.034	691.092
252.176	21.597	899.075	690.813
253.190	21.577	898.476	690.215
254.205	21.613	897.735	689.725
255.220	21.507	897.256	688.878
256.234	21.520	896.241	688.090
257.249	21.629	895.436	687.838
258.263	21.310	895.148	686.305
259.278	21.408	894.198	685.900
260.293	21.561	893.864	686.184
261.307	21.592	893.427	685.909
262.322	21.709	892.739	685.776
263.336	21.684	891.964	685.023
264.351	21.534	891.506	684.025
265.366	21.681	891.051	684.191
266.380	21.599	890.375	683.290
267.395	21.556	889.160	682.128
268.409	21.359	888.713	680.959
269.424	21.372	887.683	680.160
270.439	21.310	887.076	679.393
271.453	21.360	886.190	678.849
272.468	21.179	885.709	677.717
273.482	21.197	885.086	677.250
274.497	21.116	884.652	676.544
275.512	21.126	884.491	676.401
276.526	21.370	883.661	676.652
277.541	21.348	883.252	676.193
278.555	21.668	882.755	676.990
279.570	21.771	882.839	677.390
280.585	21.686	881.411	675.909
281.599	21.432	880.451	674.133
282.614	21.122	880.054	672.576
283.628	21.376	879.296	672.913
284.643	21.179	878.809	671.723
285.657	21.171	877.882	670.927
286.672	21.372	877.449	671.307
287.687	21.346	876.972	670.783
288.701	21.296	876.583	670.233
289.716	21.364	875.807	669.843
290.730	21.360	875.271	669.357
291.745	21.344	874.902	668.957
292.760	21.557	874.408	669.332
293.774	21.788	873.770	669.667
294.789	21.632	873.396	668.728
295.803	21.272	872.261	666.425
296.818	21.277	871.489	665.795
297.833	21.208	870.777	664.928
298.847	21.349	869.840	664.692
299.862	21.501	869.427	664.893
300.876	21.567	869.481	665.130
301.891	21.741	869.459	665.715
302.906	21.914	868.734	665.755
303.920	22.145	868.059	666.054
304.935	22.301	867.619	666.251
305.949	22.051	866.917	664.704
306.964	21.638	866.075	662.441
307.979	21.715	865.535	662.258
308.993	21.883	865.325	662.676
310.008	22.022	864.299	662.354
311.022	21.860	863.558	661.117
312.037	21.588	863.160	659.730
313.052	21.362	862.330	658.185
314.066	21.173	861.560	656.828
315.081	21.209	861.050	656.518
316.095	21.478	860.143	656.779
317.110	21.262	859.707	655.577
318.125	21.337	859.066	655.309
319.139	21.263	858.514	654.553
320.154	21.283	858.415	654.494
321.168	21.564	857.452	654.754
322.183	21.379	857.191	653.805
323.197	21.474	857.053	653.996
324.212	21.362	856.516	653.110
325.227	21.272	855.779	652.155
326.241	21.436	855.051	652.155
327.256	21.370	854.292	651.272
328.270	21.310	853.582	650.449
329.285	21.290	852.893	649.794
330.300	21.408	852.502	649.877
331.314	21.393	852.244	649.567
332.329	21.655	852.102	650.374
333.343	21.736	851.541	650.191
334.358	21.884	850.956	650.231
335.373	21.655	851.027	649.382
336.387	21.788	850.656	649.534
337.402	21.896	850.647	649.867
338.416	22.139	850.309	650.453
339.431	22.341	849.996	650.903
340.446	22.281	849.830	650.495
341.460	22.433	849.394	650.667
342.475	22.541	848.984	650.692
343.489	22.489	848.821	650.318
344.504	22.666	848.002	650.288
345.519	22.883	846.922	650.200
346.533	22.684	846.601	649.165
347.548	22.291	845.911	647.131
348.562	21.905	845.419	645.279
349.577	21.701	844.518	643.785
350.592	21.729	843.660	643.178
351.606	21.707	842.997	642.533
352.621	21.735	842.434	642.149
353.635	21.929	841.490	642.085
354.650	21.820	841.493	641.631
355.665	22.117	840.665	642.028
356.679	22.268	839.988	642.005
357.694	22.079	839.636	640.988
358.708	22.165	838.906	640.690
359.723	22.067	838.335	639.839
360.738	22.070	837.999	639.538
361.752	22.236	837.245	639.510
362.767	22.319	836.917	639.503
363.781	22.591	836.517	640.129
364.796	22.756	836.364	640.555
365.810	22.945	835.588	640.589
366.825	22.947	835.157	640.209
367.840	22.878	834.490	639.390
368.854	22.737	834.108	638.533
369.869	22.497	834.004	637.528
370.883	22.519	833.123	636.878
371.898	22.538	833.415	637.111
372.913	22.826	832.425	637.340
373.927	22.669	831.912	636.324
374.942	22.568	831.411	635.521
375.956	22.911	831.229	636.561
376.971	22.927	830.674	636.138
377.986	23.100	830.467	636.545
379.000	23.027	829.818	635.730
380.015	22.979	829.292	635.096
381.029	22.974	828.230	634.208
382.044	23.005	828.043	634.123
383.059	22.979	827.834	633.812
384.073	22.955	826.586	632.716
385.088	22.623	825.683	630.778
386.102	22.433	825.282	629.738
387.117	22.364	824.405	628.766
388.132	22.542	823.903	628.965
389.146	22.406	823.895	628.416
390.161	22.714	823.350	629.044
391.175	22.936	822.828	629.381
392.190	22.637	822.199	627.780
393.205	22.354	821.732	626.359
394.219	22.345	821.318	625.957
395.234	22.357	820.714	625.485
396.248	22.178	820.411	624.562
397.263	22.251	819.514	624.081
398.278	22.141	819.431	623.575
399.292	22.176	818.747	623.123
400.307	22.047	818.405	622.348
401.321	22.095	817.883	622.066
402.336	22.420	817.477	622.854
403.350	22.609	817.057	623.147
404.365	22.782	817.252	623.850
405.380	23.033	816.628	624.205
406.394	23.215	816.218	624.481
407.409	23.305	815.773	624.401
408.423	23.254	815.487	623.948
409.438	23.302	815.259	623.886
410.453	23.283	814.808	623.420
411.467	23.300	814.171	622.937
412.482	23.445	814.100	623.337
413.496	23.648	813.370	623.436
414.511	23.625	813.293	623.241
415.526	23.416	812.407	621.775
416.540	23.317	811.851	620.947
417.555	23.363	811.292	620.626
418.569	23.237	811.381	620.198
419.584	23.364	810.796	620.139
420.599	23.268	810.324	619.389
421.613	163.955	1372.140	1797.490
422.628	142.774	1454.005	1797.580
