DTS Sentinel unit serial number:	SN413079Multiplexer serial number:	ORYXHardware model number:	OX4-SRSoftware version number:	ORYX F/W v4.00 Oryx Data Collector v3.7.2.0data status	okinstallation	princeton_trtdifferential loss correction	single-endedforward channel	channel 1reverse channel	N/Adate	2019/09/12time	01:16:11forward acquisition time	60.00reverse acquisition time	0.00gamma	496.2192k internal	0.2320k external	0.2320temperature offset calibration	1.0076default loss term (dB/km)	0.3790temperature slope calibration	1.0000multiplexer offset coefficient	1.0000multiplexer slope coefficient	1.0000fibre end	0.00T internal ref (°C)	33.00T ext. ref 1 (°C)	2.08T ext. ref 2 (°C)	27.92length (m)	temperature (°C)	Stokes	anti-Stokes-747.200	102.988	0.140	0.166
-746.185	800.000	-0.056	0.161
-745.171	800.000	-0.047	-0.136
-744.156	780.229	-0.014	-0.039
-743.142	544.180	-0.032	0.078
-742.127	111.908	-0.023	0.028
-741.112	-17.750	-0.264	-0.167
-740.098	800.000	0.044	-0.125
-739.083	79.800	-0.141	-0.153
-738.069	-87.400	0.105	0.032
-737.054	-110.715	0.097	0.020
-736.039	-37.974	-0.059	-0.032
-735.025	-54.446	0.292	0.134
-734.010	0.600	-0.252	-0.182
-732.996	-19.082	-0.393	-0.247
-731.981	-16.782	0.242	-0.155
-730.966	274.802	0.035	-0.063
-729.952	-109.915	-0.232	0.049
-728.937	-1.108	-0.304	-0.217
-727.923	-200.000	-0.051	-0.241
-726.908	-123.037	-0.224	-0.036
-725.894	-67.449	-0.070	0.028
-724.879	212.819	0.134	-0.214
-723.864	-8.843	-0.135	0.091
-722.850	153.890	-0.086	0.120
-721.835	800.000	0.110	0.327
-720.821	-78.957	-0.078	-0.027
-719.806	307.744	-0.058	0.109
-718.791	651.818	0.147	-0.382
-717.777	335.815	0.065	-0.127
-716.762	-65.428	-0.295	0.120
-715.748	188.080	-0.006	-0.009
-714.733	277.356	-0.046	0.082
-713.718	-200.000	-0.036	-0.168
-712.704	-200.000	-0.023	0.325
-711.689	-79.206	-0.354	-0.121
-710.675	800.000	0.108	-0.383
-709.660	-159.687	0.417	-0.023
-708.645	-160.081	0.170	0.009
-707.631	-46.754	0.173	0.086
-706.616	76.209	0.207	0.221
-705.602	-94.298	0.185	-0.051
-704.587	800.000	-0.159	-0.473
-703.572	63.194	-0.150	0.152
-702.558	383.518	-0.102	-0.212
-701.543	-200.000	0.080	0.396
-700.529	-200.000	0.062	0.279
-699.514	-113.858	-0.105	-0.021
-698.499	-200.000	-0.006	-0.137
-697.485	374.046	-0.055	-0.113
-696.470	-23.129	0.354	-0.215
-695.456	-39.932	0.233	-0.123
-694.441	-96.067	0.077	-0.021
-693.426	224.827	-0.174	-0.284
-692.412	-86.479	0.216	0.067
-691.397	-35.222	-0.199	-0.109
-690.383	-114.965	0.101	0.019
-689.368	532.987	-0.025	-0.060
-688.354	1.986	0.133	0.097
-687.339	-54.002	0.082	-0.038
-686.324	31.126	0.091	0.079
-685.310	736.949	0.094	-0.255
-684.295	-38.208	0.339	-0.181
-683.281	-49.660	-0.195	-0.094
-682.266	-33.964	0.156	-0.087
-681.251	-101.831	-0.300	-0.073
-680.237	-36.348	-0.036	0.019
-679.222	-39.918	-0.248	-0.130
-678.208	-128.480	-0.171	0.025
-677.193	-64.566	0.131	-0.054
-676.178	-101.435	-0.209	-0.051
-675.164	-200.000	0.008	-0.108
-674.149	22.380	0.174	0.143
-673.135	-200.000	-0.008	-0.111
-672.120	-173.849	0.412	-0.012
-671.105	-200.000	-0.006	0.280
-670.091	89.595	0.182	0.205
-669.076	-71.700	-0.268	0.101
-668.062	17.046	-0.134	-0.107
-667.047	-200.000	0.030	-0.146
-666.032	52.541	0.147	-0.141
-665.018	800.000	0.045	0.189
-664.003	-200.000	0.026	-0.313
-662.989	200.729	-0.095	-0.147
-661.974	-200.000	0.004	-0.614
-660.959	178.250	0.033	0.048
-659.945	-56.876	0.010	0.005
-658.930	-22.222	-0.148	0.091
-657.916	-200.000	-0.049	-0.245
-656.901	18.651	0.143	-0.116
-655.886	20.922	-0.258	-0.211
-654.872	-200.000	-0.049	-0.254
-653.857	33.053	-0.164	-0.144
-652.843	151.431	-0.035	0.048
-651.828	-65.155	0.269	0.109
-650.814	-84.595	0.301	0.096
-649.799	-68.219	0.357	0.140
-648.784	40.264	0.145	0.131
-647.770	-200.000	0.001	0.200
-646.755	-200.000	0.037	0.284
-645.741	-100.473	0.283	-0.071
-644.726	-22.315	0.216	-0.132
-643.711	-200.000	0.081	-0.382
-642.697	-200.000	0.034	-0.366
-641.682	-43.212	-0.179	0.091
-640.668	800.000	-0.052	-0.223
-639.653	-57.143	-0.173	0.077
-638.638	800.000	-0.054	-0.222
-637.624	-200.000	0.007	0.045
-636.609	-31.843	-0.090	0.051
-635.595	-14.789	0.214	0.138
-634.580	396.518	0.041	-0.086
-633.565	667.290	-0.150	-0.390
-632.551	41.646	0.202	0.184
-631.536	191.950	-0.264	0.401
-630.522	-70.345	0.176	-0.067
-629.507	-34.358	0.220	0.121
-628.492	122.706	0.131	-0.165
-627.478	103.823	0.266	-0.315
-626.463	-200.000	0.008	-0.244
-625.449	-143.966	-0.027	0.003
-624.434	-101.696	-0.257	-0.063
-623.419	-200.000	-0.003	0.321
-622.405	-200.000	-0.002	-0.096
-621.390	229.635	-0.148	0.243
-620.376	80.615	-0.200	-0.216
-619.361	-200.000	-0.044	-0.421
-618.346	-200.000	0.022	0.333
-617.332	297.537	0.129	0.239
-616.317	-117.007	-0.024	-0.004
-615.303	-153.959	0.063	0.004
-614.288	149.096	-0.104	0.142
-613.273	800.000	0.125	0.392
-612.259	186.965	-0.148	0.222
-611.244	-135.260	0.280	0.034
-610.230	-200.000	0.036	0.366
-609.215	-107.043	-0.206	0.046
-608.201	0.035	-0.177	0.127
-607.186	-9.807	0.106	-0.071
-606.171	-122.264	0.203	0.033
-605.157	-157.724	0.122	0.007
-604.142	-141.674	-0.242	-0.024
-603.128	5.191	-0.191	-0.141
-602.113	62.454	0.036	-0.037
-601.098	362.701	0.239	0.482
-600.084	-111.850	0.297	-0.060
-599.069	-200.000	-0.014	-0.077
-598.055	-72.911	-0.319	-0.118
-597.040	538.222	0.046	-0.110
-596.025	41.674	0.190	-0.173
-595.011	88.841	-0.135	0.151
-593.996	-42.491	0.129	0.066
-592.982	800.000	0.110	0.355
-591.967	84.224	0.158	-0.174
-590.952	-156.196	0.195	0.012
-589.938	-200.000	-0.036	-0.480
-588.923	-48.529	0.066	0.032
-587.909	40.820	0.324	-0.294
-586.894	169.510	-0.162	-0.232
-585.879	-53.716	-0.173	-0.079
-584.865	-91.422	-0.129	0.037
-583.850	-200.000	0.077	-0.542
-582.836	83.415	-0.289	-0.317
-581.821	102.421	-0.216	-0.253
-580.806	168.037	-0.153	-0.219
-579.792	185.512	0.120	-0.179
-578.777	-20.909	0.268	0.165
-577.763	-139.878	0.200	0.021
-576.748	-120.617	-0.373	-0.064
-575.733	171.458	0.208	0.300
-574.719	32.658	-0.179	0.155
-573.704	800.000	-0.031	-0.098
-572.690	-101.793	0.300	-0.073
-571.675	-200.000	-0.009	0.278
-570.661	-124.802	-0.040	-0.006
-569.646	55.106	-0.204	-0.198
-568.631	-200.000	-0.038	-0.217
-567.617	800.000	-0.039	0.113
-566.602	-97.488	-0.236	0.062
-565.588	-157.062	-0.164	-0.010
-564.573	-83.437	0.200	-0.064
-563.558	-199.192	0.299	-0.002
-562.544	352.537	0.039	0.077
-561.529	-200.000	-0.017	-0.180
-560.515	121.768	0.041	0.051
-559.500	58.911	-0.120	-0.119
-558.485	-200.000	0.011	0.082
-557.471	43.948	-0.122	0.113
-556.456	-139.871	0.069	0.007
-555.442	174.534	0.115	0.167
-554.427	112.158	-0.072	-0.088
-553.412	800.000	-0.028	-0.089
-552.398	81.837	0.161	-0.175
-551.383	570.201	-0.067	0.165
-550.369	52.184	0.116	0.111
-549.354	-80.819	0.054	0.018
-548.339	800.000	-0.109	-0.312
-547.325	-128.308	0.100	0.014
-546.310	-32.656	0.288	0.161
-545.296	-88.090	0.072	-0.022
-544.281	800.000	-0.042	0.159
-543.266	282.963	0.037	0.066
-542.252	431.907	-0.063	-0.138
-541.237	84.220	0.148	-0.162
-540.223	800.000	0.101	0.326
-539.208	-72.726	-0.088	-0.032
-538.193	60.640	-0.179	-0.178
-537.179	-72.651	0.079	-0.029
-536.164	53.292	0.103	-0.099
-535.150	115.180	0.129	-0.158
-534.135	27.281	0.179	-0.151
-533.121	-98.001	0.126	0.033
-532.106	-83.140	-0.347	0.112
-531.091	800.000	0.099	-0.365
-530.077	9.426	0.180	-0.137
-529.062	800.000	-0.031	0.107
-528.048	447.466	-0.132	-0.291
-527.033	81.778	0.340	0.369
-526.018	131.294	-0.175	-0.226
-525.004	800.000	-0.017	-0.059
-523.989	-73.315	-0.130	0.048
-522.975	-166.202	0.136	-0.006
-521.960	800.000	0.179	-0.664
-520.945	-100.572	0.235	-0.058
-519.931	-112.366	-0.120	-0.024
-518.916	-102.648	-0.173	0.041
-517.902	-101.930	-0.108	0.026
-516.887	554.638	-0.059	-0.141
-515.872	-200.000	-0.003	0.015
-514.858	-75.278	0.162	0.058
-513.843	325.802	-0.154	0.295
-512.829	197.485	-0.205	0.314
-511.814	-121.842	0.133	0.022
-510.799	555.861	-0.051	0.124
-509.785	-26.075	-0.190	-0.112
-508.770	-31.662	0.090	-0.051
-507.756	300.603	0.150	0.277
-506.741	612.476	0.041	0.103
-505.726	22.584	-0.230	-0.189
-504.712	157.661	-0.056	-0.078
-503.697	99.777	-0.184	0.214
-502.683	334.532	-0.221	-0.429
-501.668	62.085	0.095	0.095
-500.653	-150.950	-0.329	-0.025
-499.639	-75.807	-0.032	0.011
-498.624	23.387	-0.219	0.180
-497.610	-153.855	-0.122	0.008
-496.595	42.524	0.167	-0.152
-495.581	-88.149	-0.164	0.049
-494.566	-10.004	-0.104	0.070
-493.551	-5.208	-0.225	-0.155
-492.537	84.538	-0.207	-0.227
-491.522	254.318	-0.027	-0.046
-490.508	403.985	0.151	-0.319
-489.493	800.000	0.016	0.057
-488.478	-148.362	-0.092	0.008
-487.464	49.300	-0.147	0.139
-486.449	-89.795	-0.511	0.150
-485.435	121.984	0.127	-0.159
-484.420	-104.465	0.261	0.060
-483.405	-200.000	-0.003	-0.038
-482.391	800.000	-0.037	-0.130
-481.376	564.744	0.040	-0.097
-480.362	800.000	-0.040	0.145
-479.347	-77.839	0.066	0.023
-478.332	-68.281	0.415	0.162
-477.318	15.017	0.170	0.133
-476.303	254.974	-0.187	0.321
-475.289	-155.538	-0.171	0.011
-474.274	-102.636	-0.214	0.051
-473.259	-200.000	0.005	0.059
-472.245	86.691	0.136	0.150
-471.230	-142.358	0.124	0.012
-470.216	800.000	0.040	-0.157
-469.201	-174.039	0.475	-0.014
-468.186	-38.332	-0.333	0.176
-467.172	-200.000	0.009	0.132
-466.157	-66.103	-0.239	-0.095
-465.143	215.822	-0.131	-0.208
-464.128	69.612	0.020	-0.021
-463.113	-2.622	-0.034	0.024
-462.099	-76.959	0.280	-0.098
-461.084	800.000	-0.076	0.255
-460.070	-55.997	0.110	0.049
-459.055	-2.830	0.109	-0.076
-458.040	24.636	-0.145	0.120
-457.026	60.147	-0.186	-0.184
-456.011	135.852	-0.061	0.080
-454.997	-200.000	0.009	-0.045
-453.982	-68.507	-0.201	-0.078
-452.968	49.688	-0.098	-0.092
-451.953	-73.173	-0.345	0.127
-450.938	-109.318	0.165	-0.035
-449.924	124.338	0.051	-0.065
-448.909	-200.000	0.020	0.240
-447.895	-149.908	-0.200	0.016
-446.880	800.000	-0.052	-0.176
-445.865	800.000	-0.058	-0.206
-444.851	-117.705	-0.388	-0.070
-443.836	258.330	0.158	0.272
-442.822	-105.262	0.148	-0.034
-441.807	-56.367	-0.153	0.068
-440.792	175.279	0.087	0.126
-439.778	800.000	-0.075	0.246
-438.763	-131.595	0.142	-0.019
-437.749	-133.159	0.152	-0.019
-436.734	60.613	-0.105	0.104
-435.719	8.266	0.113	-0.085
-434.705	-200.000	0.021	0.113
-433.690	-30.021	-0.163	-0.092
-432.676	99.828	-0.201	-0.233
-431.661	447.352	-0.070	0.154
-430.646	-116.793	0.379	0.069
-429.632	-45.168	-0.411	-0.204
-428.617	800.000	-0.090	0.282
-427.603	-86.909	-0.300	-0.091
-426.588	-10.625	-0.111	-0.073
-425.573	-200.000	-0.038	0.317
-424.559	80.788	-0.119	-0.128
-423.544	-1.973	-0.392	0.275
-422.530	-200.000	-0.023	-0.250
-421.515	-200.000	0.000	-0.223
-420.500	-200.000	-0.010	-0.202
-419.486	103.709	-0.253	-0.296
-418.471	800.000	-0.086	-0.317
-417.457	-24.817	0.091	-0.054
-416.442	-200.000	0.024	-0.336
-415.428	295.991	0.060	-0.109
-414.413	-10.860	-0.294	0.194
-413.398	-46.336	-0.060	-0.030
-412.384	-200.000	0.007	-0.038
-411.369	203.700	0.055	-0.086
-410.355	590.903	0.117	-0.289
-409.340	800.000	0.047	0.148
-408.325	-200.000	-0.058	0.332
-407.311	-200.000	-0.024	0.299
-406.296	-148.269	0.146	0.012
-405.282	633.441	-0.078	0.198
-404.267	-200.000	0.018	0.115
-403.252	703.086	-0.036	-0.095
-402.238	95.186	0.222	0.252
-401.223	-110.418	0.390	-0.081
-400.209	-137.837	0.052	0.006
-399.194	-174.120	0.388	0.011
-398.179	85.794	-0.180	0.198
-397.165	74.678	0.051	-0.054
-396.150	-200.000	0.052	0.327
-395.136	-47.250	-0.232	0.113
-394.121	-56.939	0.148	-0.065
-393.106	-71.824	-0.112	0.041
-392.092	93.265	0.074	-0.084
-391.077	800.000	0.058	-0.167
-390.063	-14.799	0.276	0.176
-389.048	558.301	-0.028	0.068
-388.033	-68.403	-0.305	-0.118
-387.019	-117.210	0.311	-0.056
-386.004	168.090	0.121	-0.171
-384.990	23.472	-0.124	-0.102
-383.975	-10.616	0.282	0.186
-382.960	-112.645	0.245	-0.049
-381.946	7.377	0.162	0.120
-380.931	-109.543	-0.289	0.061
-379.917	-28.798	0.363	0.208
-378.902	127.874	-0.080	0.101
-377.888	-122.532	0.349	-0.057
-376.873	800.000	-0.037	0.144
-375.858	-200.000	-0.029	0.158
-374.844	-96.657	0.286	-0.075
-373.829	-96.877	-0.152	-0.040
-372.815	19.782	0.539	0.433
-371.800	-81.160	0.412	-0.136
-370.785	16.474	0.182	0.144
-369.771	-64.833	0.314	0.127
-368.756	52.451	0.184	0.175
-367.742	191.983	-0.108	0.162
-366.727	-57.281	0.141	-0.062
-365.712	-121.523	0.113	0.019
-364.698	-128.624	0.211	0.030
-363.683	-151.822	-0.294	-0.022
-362.669	-51.041	-0.162	0.076
-361.654	25.489	0.261	0.216
-360.639	-200.000	-0.007	0.188
-359.625	-121.228	0.178	-0.030
-358.610	800.000	-0.037	-0.116
-357.596	311.038	-0.078	-0.146
-356.581	-98.337	-0.288	0.074
-355.566	461.896	-0.156	-0.346
-354.552	-160.267	-0.230	0.012
-353.537	-29.078	-0.092	-0.053
-352.523	-26.348	-0.041	0.024
-351.508	198.513	-0.220	0.336
-350.493	800.000	-0.117	0.377
-349.479	-72.310	-0.233	0.086
-348.464	-77.966	0.198	-0.068
-347.450	-136.175	0.200	-0.023
-346.435	-1.373	-0.203	-0.143
-345.420	-1.749	0.053	0.037
-344.406	-64.760	0.254	-0.102
-343.391	-124.870	-0.262	-0.040
-342.377	-45.888	0.115	0.056
-341.362	-55.336	0.400	-0.179
-340.348	125.632	-0.166	-0.209
-339.333	104.379	-0.094	0.110
-338.318	202.978	-0.115	-0.176
-337.304	121.165	0.091	-0.113
-336.289	-171.991	-0.105	-0.003
-335.275	-30.496	-0.198	0.112
-334.260	105.275	0.128	0.150
-333.245	-32.495	-0.211	-0.117
-332.231	-154.756	-0.187	0.012
-331.216	12.266	0.199	-0.152
-330.202	85.991	0.141	0.155
-329.187	-96.541	-0.271	-0.071
-328.172	800.000	0.057	0.229
-327.158	144.186	-0.111	-0.147
-326.143	17.377	0.198	-0.156
-325.129	598.774	0.118	-0.290
-324.114	379.421	0.108	-0.220
-323.099	20.787	-0.061	-0.049
-322.085	-200.000	0.019	0.454
-321.070	395.607	-0.117	-0.244
-320.056	336.857	-0.021	-0.041
-319.041	-75.764	0.116	0.041
-318.026	-56.002	-0.039	0.017
-317.012	-107.798	-0.318	0.069
-315.997	-3.668	0.110	0.076
-314.983	800.000	0.045	0.126
-313.968	163.713	-0.148	0.208
-312.953	-200.000	0.020	-0.117
-311.939	51.548	0.065	-0.061
-310.924	-60.923	-0.284	-0.119
-309.910	-115.369	-0.267	-0.050
-308.895	-200.000	-0.014	-0.383
-307.880	-66.655	0.385	0.152
-306.866	306.556	0.118	-0.218
-305.851	-120.152	-0.307	-0.052
-304.837	36.748	-0.074	-0.065
-303.822	148.477	0.085	-0.114
-302.807	-48.824	-0.404	-0.193
-301.793	-47.944	-0.229	0.110
-300.778	109.308	-0.123	0.146
-299.764	-46.924	-0.314	-0.152
-298.749	349.105	-0.110	-0.216
-297.735	-170.534	0.210	-0.007
-296.720	159.400	0.079	-0.110
-295.705	-9.208	0.061	0.040
-294.691	-116.016	-0.079	0.015
-293.676	-98.908	-0.228	0.057
-292.662	-200.000	-0.048	0.291
-291.647	347.107	0.001	0.002
-290.632	-5.217	-0.202	0.138
-289.618	-101.834	0.303	0.073
-288.603	340.689	-0.082	0.159
-287.589	35.514	0.463	-0.404
-286.574	-144.968	0.255	-0.023
-285.559	-30.923	-0.036	-0.020
-284.545	27.329	0.188	0.157
-283.530	168.049	0.054	0.076
-282.516	117.803	0.447	0.547
-281.501	155.935	0.118	-0.161
-280.486	-28.114	-0.213	-0.122
-279.472	-200.000	0.017	0.202
-278.457	-110.766	-0.504	-0.103
-277.443	-200.000	-0.023	0.227
-276.428	-200.000	0.031	0.439
-275.413	-42.088	-0.131	0.067
-274.399	-66.197	0.221	0.087
-273.384	158.571	-0.095	-0.131
-272.370	-189.213	-0.037	-0.000
-271.355	-200.000	0.008	-0.256
-270.340	604.482	0.085	-0.209
-269.326	-143.980	0.046	0.004
-268.311	-98.953	-0.136	0.034
-267.297	50.002	-0.176	0.164
-266.282	-78.003	0.111	0.038
-265.267	-168.017	-0.237	-0.009
-264.253	-200.000	0.018	0.090
-263.238	-159.526	0.092	0.005
-262.224	-128.351	0.148	-0.021
-261.209	800.000	-0.056	0.191
-260.195	-200.000	0.027	-0.256
-259.180	463.112	-0.118	-0.261
-258.165	88.209	0.116	0.128
-257.151	-77.930	0.121	-0.041
-256.136	-82.552	0.148	0.048
-255.122	481.589	-0.183	-0.411
-254.107	249.213	-0.240	0.403
-253.092	201.109	0.249	0.379
-252.078	-149.805	-0.143	-0.011
-251.063	-32.326	0.159	-0.088
-250.049	-170.978	-0.277	-0.009
-249.034	137.381	-0.095	-0.123
-248.019	183.908	0.094	-0.139
-247.005	-200.000	-0.027	-0.201
-245.990	355.816	0.061	-0.120
-244.976	800.000	-0.019	-0.066
-243.961	-41.980	-0.336	-0.171
-242.946	800.000	-0.078	0.281
-241.932	-72.272	0.078	0.029
-240.917	-86.448	-0.086	-0.026
-239.903	-200.000	0.029	-0.166
-238.888	-200.000	-0.062	0.279
-237.873	-200.000	-0.075	-0.416
-236.859	-94.502	-0.340	0.092
-235.844	560.476	-0.050	-0.119
-234.830	800.000	-0.061	-0.169
-233.815	-200.000	-0.014	0.299
-232.800	-200.000	-0.006	-0.101
-231.786	800.000	0.138	0.433
-230.771	135.613	0.121	0.156
-229.757	-44.187	-0.062	-0.031
-228.742	-102.146	-0.184	-0.044
-227.727	-63.568	-0.308	-0.125
-226.713	81.377	-0.218	-0.234
-225.698	-121.008	-0.364	-0.061
-224.684	38.947	-0.136	0.121
-223.669	-83.233	0.081	0.026
-222.655	-149.853	0.170	-0.013
-221.640	-200.000	0.022	0.277
-220.625	-19.448	0.189	0.116
-219.611	57.263	-0.238	0.230
-218.596	152.843	-0.070	0.095
-217.582	-120.352	0.131	-0.022
-216.567	-54.929	0.018	-0.008
-215.552	72.485	-0.157	-0.162
-214.538	-153.209	0.030	0.002
-213.523	244.091	-0.113	0.188
-212.509	1.070	-0.139	-0.099
-211.494	-110.515	-0.192	0.039
-210.479	86.982	-0.178	0.195
-209.465	-200.000	0.005	-0.074
-208.450	513.063	0.084	-0.194
-207.436	-200.000	0.022	-0.114
-206.421	800.000	0.049	-0.196
-205.406	-88.378	0.172	0.051
-204.392	-101.567	0.214	0.051
-203.377	-200.000	-0.015	-0.188
-202.363	-60.130	0.086	-0.036
-201.348	-27.635	0.136	-0.078
-200.333	-109.724	0.220	0.046
-199.319	81.552	-0.077	-0.083
-198.304	-200.000	-0.010	0.127
-197.290	290.052	-0.137	0.246
-196.275	-18.008	-0.131	0.081
-195.260	18.808	0.133	-0.105
-194.246	306.857	0.042	-0.078
-193.231	-200.000	-0.012	-0.276
-192.217	-70.323	-0.138	0.052
-191.202	-200.000	0.025	0.174
-190.187	800.000	-0.004	0.013
-189.173	-127.959	-0.021	-0.003
-188.158	-81.753	-0.199	-0.064
-187.144	439.497	0.036	0.079
-186.129	-100.200	0.149	0.037
-185.114	34.324	0.323	0.279
-184.100	46.754	-0.213	0.196
-183.085	6.553	0.098	-0.072
-182.071	10.009	-0.307	-0.230
-181.056	-65.942	0.143	-0.057
-180.042	-9.998	0.082	-0.054
-179.027	84.227	0.182	-0.196
-178.012	800.000	0.147	-0.455
-176.998	-0.661	0.178	-0.125
-175.983	800.000	0.147	0.415
-174.969	-72.713	0.269	-0.098
-173.954	-91.170	0.200	-0.057
-172.939	-85.403	-0.242	-0.075
-171.925	-134.570	0.281	0.034
-170.910	-79.815	-0.195	-0.065
-169.896	82.337	0.340	0.364
-168.881	800.000	0.177	0.710
-167.866	-200.000	0.031	-0.219
-166.852	6.192	0.026	-0.019
-165.837	14.832	0.058	-0.045
-164.823	-78.138	-0.309	0.105
-163.808	98.182	0.213	0.243
-162.793	-87.927	0.084	0.025
-161.779	65.264	-0.028	0.028
-160.764	21.197	0.380	-0.305
-159.750	-200.000	0.010	0.061
-158.735	35.627	0.111	0.097
-157.720	-4.215	0.184	0.126
-156.706	50.041	0.202	-0.189
-155.691	458.259	0.029	-0.064
-154.677	163.445	-0.109	0.151
-153.662	134.846	-0.106	0.136
-152.647	-102.150	-0.085	0.020
-151.633	-200.000	-0.028	-0.290
-150.618	-50.146	-0.337	0.157
-149.604	329.801	0.134	-0.255
-148.589	441.839	-0.045	0.098
-147.574	33.275	-0.010	-0.008
-146.560	-123.504	0.288	-0.045
-145.545	-110.273	-0.229	-0.047
-144.531	-200.000	0.031	0.152
-143.516	93.101	-0.263	-0.294
-142.502	-118.002	0.145	0.026
-141.487	-200.000	0.002	0.033
-140.472	-51.275	-0.452	-0.209
-139.458	-11.373	0.248	-0.161
-138.443	-200.000	0.000	-0.071
-137.429	-146.710	-0.122	0.010
-136.414	-22.686	-0.084	0.050
-135.399	716.652	-0.105	-0.276
-134.385	-200.000	0.064	-0.321
-133.370	-16.619	0.075	-0.047
-132.356	-66.654	0.315	-0.123
-131.341	-21.102	0.110	-0.066
-130.326	57.339	0.090	-0.086
-129.312	25.566	-0.067	0.055
-128.297	103.630	-0.062	0.071
-127.283	800.000	0.123	-0.414
-126.268	-175.989	0.409	0.011
-125.253	340.569	-0.036	-0.069
-124.239	-11.617	0.127	0.082
-123.224	-7.555	0.162	0.108
-122.210	722.611	-0.123	0.322
-121.195	800.000	0.056	0.162
-120.180	-44.299	0.158	0.078
-119.166	106.358	0.188	-0.220
-118.151	-127.569	-0.134	-0.019
-117.137	-0.063	-0.123	-0.086
-116.122	-87.717	-0.039	-0.012
-115.107	73.520	0.065	0.067
-114.093	-200.000	0.006	-0.345
-113.078	312.043	0.025	-0.046
-112.064	-200.000	0.007	0.141
-111.049	-49.074	0.285	0.135
-110.034	-81.201	-0.069	-0.022
-109.020	-117.632	-0.117	-0.021
-108.005	-93.186	0.174	-0.048
-106.991	53.338	0.075	0.071
-105.976	29.502	-0.109	-0.091
-104.962	800.000	0.036	-0.132
-103.947	-200.000	0.008	0.194
-102.932	-138.630	0.370	0.040
-101.918	800.000	0.102	-0.299
-100.903	453.337	-0.091	0.198
-99.889	79.976	0.174	0.185
-98.874	189.317	-0.028	0.041
-97.859	-127.631	0.233	-0.033
-96.845	-100.238	0.100	-0.024
-95.830	96.693	-0.183	0.206
-94.816	57.860	-0.015	-0.014
-93.801	-58.575	-0.190	-0.081
-92.786	-200.000	0.032	-0.442
-91.772	-87.281	-0.167	0.050
-90.757	-40.355	0.397	0.204
-89.743	42.250	-0.108	0.097
-88.728	67.776	-0.011	-0.011
-87.713	92.901	-0.329	-0.366
-86.699	107.634	-0.046	0.054
-85.684	-2.603	0.328	0.226
-84.670	180.706	0.132	-0.191
-83.655	-149.947	0.239	0.018
-82.640	-48.441	0.230	-0.109
-81.626	-17.902	-0.167	0.103
-80.611	-200.000	0.031	0.190
-79.597	-200.000	-0.047	0.216
-78.582	-190.975	0.176	0.002
-77.567	40.329	-0.248	0.219
-76.553	-200.000	0.060	-0.437
-75.538	229.603	0.094	-0.151
-74.524	166.236	-0.291	-0.406
-73.509	-79.737	0.095	-0.032
-72.494	800.000	0.032	0.136
-71.480	-200.000	0.038	0.262
-70.465	-23.980	-0.184	-0.108
-69.451	-16.850	0.033	-0.021
-68.436	-10.975	0.069	0.045
-67.422	-41.016	0.135	-0.068
-66.407	800.000	0.145	0.478
-65.392	800.000	0.042	0.173
-64.378	23.568	0.090	0.073
-63.363	-31.866	0.089	-0.049
-62.349	-200.000	-0.035	-0.236
-61.334	67.379	-1.069	-1.074
-60.319	21.286	0.321	0.257
-59.305	-200.000	-0.078	-1.032
-58.290	425.266	0.466	0.988
-57.276	766.067	0.737	1.973
-56.261	-200.000	96.345	573.936
-55.246	547.503	1377.881	3246.312
-54.232	159.992	2554.234	3503.357
-53.217	111.976	2142.341	2547.208
-52.203	44.550	1604.919	1451.622
-51.188	36.580	1343.629	1167.364
-50.173	33.377	1301.551	1111.989
-49.159	55.404	1348.854	1284.461
-48.144	57.520	1365.324	1312.724
-47.130	36.540	1324.150	1150.019
-46.115	33.078	1306.705	1114.455
-45.100	33.019	1301.827	1109.902
-44.086	32.832	1299.562	1106.833
-43.071	32.912	1297.154	1105.205
-42.057	32.850	1295.125	1103.068
-41.042	32.835	1293.615	1101.654
-40.027	33.014	1291.722	1101.039
-39.013	32.833	1290.420	1098.834
-37.998	33.011	1288.218	1097.950
-36.984	32.931	1286.638	1096.091
-35.969	33.020	1285.087	1095.243
-34.954	32.957	1283.245	1093.268
-33.940	33.141	1281.672	1092.948
-32.925	33.000	1280.603	1091.178
-31.911	33.070	1278.737	1089.947
-30.896	33.109	1277.285	1088.891
-29.881	33.013	1276.669	1087.773
-28.867	33.192	1274.782	1087.151
-27.852	33.144	1273.399	1085.652
-26.838	33.073	1272.003	1084.011
-25.823	33.053	1271.301	1083.254
-24.809	33.008	1269.101	1081.078
-23.794	33.063	1268.118	1080.511
-22.779	33.074	1266.620	1079.256
-21.765	33.101	1265.152	1078.119
-20.750	33.047	1264.073	1076.848
-19.736	33.014	1262.786	1075.520
-18.721	33.034	1262.034	1074.952
-17.706	33.072	1260.674	1073.967
-16.692	33.015	1259.364	1072.484
-15.677	32.938	1258.736	1071.468
-14.663	32.960	1257.703	1070.672
-13.648	32.934	1256.693	1069.622
-12.633	32.983	1255.372	1068.736
-11.619	32.998	1254.458	1068.000
-10.604	33.028	1253.212	1067.061
-9.590	32.923	1252.696	1065.987
-8.575	32.845	1252.163	1065.054
-7.560	32.888	1251.266	1064.493
-6.546	32.883	1250.172	1063.488
-5.531	32.885	1249.553	1062.930
-4.517	32.874	1248.737	1062.132
-3.502	32.933	1247.672	1061.517
-2.487	32.883	1246.852	1060.497
-1.473	32.939	1242.250	1056.853
-0.458	31.669	1227.480	1037.219
0.556	28.515	1211.529	1000.336
1.571	25.060	1217.437	986.154
2.586	24.450	1233.174	995.413
3.600	24.013	1222.437	984.242
4.615	17.606	1149.537	892.027
5.629	7.014	1072.122	779.901
6.644	2.450	1050.486	742.008
7.659	2.067	1047.948	738.300
8.673	1.908	1046.690	736.577
9.688	1.906	1045.209	735.464
10.702	2.408	1044.120	737.049
11.717	9.057	1053.766	776.028
12.731	19.193	1068.422	836.209
13.746	24.250	1073.930	865.054
14.761	25.203	1075.024	870.484
15.775	25.157	1074.555	869.807
16.790	24.987	1073.820	868.313
17.804	24.858	1073.841	867.626
18.819	24.982	1073.051	867.513
19.834	25.124	1072.570	867.735
20.848	25.299	1071.992	868.036
21.863	25.188	1071.585	867.091
22.877	25.061	1071.307	866.176
23.892	25.221	1069.625	865.511
24.907	25.074	1069.814	864.877
25.921	25.020	1068.491	863.474
26.936	25.159	1067.025	862.881
27.950	25.017	1065.681	861.034
28.965	24.963	1063.869	859.236
29.980	25.020	1062.387	858.235
30.994	25.295	1061.478	858.739
32.009	25.207	1060.303	857.294
33.023	24.961	1059.252	855.196
34.038	25.000	1058.705	854.862
35.053	25.192	1058.018	855.150
36.067	25.251	1057.013	854.542
37.082	25.299	1056.551	854.321
38.096	25.457	1055.546	854.185
39.111	25.514	1054.927	853.880
40.126	25.158	1053.699	851.117
41.140	24.918	1051.844	848.407
42.155	24.747	1050.371	846.334
43.169	24.824	1049.517	845.938
44.184	24.715	1048.915	844.862
45.199	24.715	1047.905	843.976
46.213	24.802	1046.871	843.478
47.228	25.014	1046.201	843.859
48.242	25.080	1045.678	843.676
49.257	25.083	1044.733	842.853
50.271	25.127	1044.324	842.652
51.286	25.306	1043.190	842.504
52.301	25.210	1042.146	841.135
53.315	25.138	1041.235	839.991
54.330	25.186	1040.104	839.227
55.344	25.163	1039.738	838.750
56.359	25.047	1038.828	837.402
57.374	24.940	1037.546	835.793
58.388	24.953	1037.003	835.342
59.403	24.797	1036.035	833.762
60.417	24.686	1035.099	832.418
61.432	24.933	1034.501	833.015
62.447	25.006	1033.912	832.802
63.461	24.894	1033.705	832.042
64.476	24.907	1031.940	830.612
65.490	24.838	1031.008	829.464
66.505	24.875	1030.434	829.101
67.520	24.991	1029.799	829.057
68.534	24.673	1028.797	826.704
69.549	24.478	1027.696	824.846
70.563	24.375	1026.723	823.518
71.578	24.433	1025.775	822.952
72.593	24.418	1024.830	822.050
73.607	24.417	1024.491	821.702
74.622	24.625	1024.654	822.715
75.636	24.780	1023.430	822.373
76.651	24.623	1022.730	821.019
77.666	24.576	1021.482	819.729
78.680	24.547	1021.440	819.490
79.695	24.676	1020.759	819.459
80.709	24.752	1020.044	819.162
81.724	24.680	1019.359	818.212
82.739	24.931	1018.185	818.345
83.753	25.209	1018.013	819.400
84.768	25.509	1016.655	819.604
85.782	25.635	1016.153	819.700
86.797	25.437	1015.495	818.198
87.812	25.230	1014.684	816.531
88.826	25.237	1013.401	815.456
89.841	25.297	1012.702	815.093
90.855	25.411	1011.753	814.776
91.870	25.305	1010.904	813.541
92.884	25.276	1009.642	812.323
93.899	25.320	1008.472	811.508
94.914	25.404	1007.680	811.177
95.928	25.352	1006.460	809.887
96.943	25.013	1005.281	807.341
97.957	24.622	1004.441	804.834
98.972	24.613	1003.540	804.002
99.987	24.920	1002.589	804.546
101.001	25.124	1002.026	804.941
102.016	25.011	1001.510	803.945
103.030	25.107	1000.097	803.170
104.045	24.914	999.428	801.700
105.060	24.672	998.346	799.676
106.074	24.868	997.633	799.913
107.089	25.109	997.373	800.711
108.103	25.036	995.896	799.125
109.118	24.809	994.532	796.951
110.133	24.897	993.599	796.523
111.147	24.688	992.184	794.391
112.162	24.520	991.448	792.984
113.176	24.779	990.932	793.650
114.191	24.622	990.294	792.376
115.206	24.480	988.943	790.594
116.220	24.437	988.400	789.900
117.235	24.492	987.843	789.630
118.249	24.588	986.886	789.218
119.264	24.542	986.043	788.270
120.279	24.579	985.480	787.916
121.293	24.565	984.701	787.158
122.308	24.623	983.619	786.481
123.322	24.553	982.012	784.818
124.337	24.400	981.571	783.726
125.352	24.000	979.567	780.300
126.366	23.969	978.843	779.521
127.381	24.661	978.822	782.466
128.395	24.956	978.819	783.683
129.410	25.039	978.006	783.326
130.424	25.064	976.772	782.379
131.439	25.135	975.696	781.756
132.454	25.167	974.498	780.867
133.468	25.009	973.869	779.608
134.483	25.108	973.161	779.400
135.497	25.278	972.581	779.607
136.512	25.334	971.674	779.052
137.527	25.322	971.126	778.491
138.541	25.294	970.347	777.680
139.556	25.428	969.059	777.157
140.570	25.311	968.718	776.311
141.585	25.441	967.428	775.768
142.600	25.396	966.346	774.639
143.614	25.550	966.005	774.962
144.629	25.574	965.353	774.469
145.643	25.441	964.182	772.892
146.658	25.429	962.567	771.476
147.673	25.322	961.498	770.094
148.687	25.109	961.098	768.790
149.702	25.144	959.445	767.550
150.716	25.067	959.060	766.847
151.731	25.293	958.269	767.111
152.746	25.408	958.065	767.370
153.760	25.478	957.665	767.283
154.775	25.654	956.636	767.138
155.789	25.407	956.159	765.636
156.804	25.434	955.056	764.802
157.819	25.568	954.196	764.612
158.833	25.673	953.571	764.491
159.848	25.709	952.381	763.622
160.862	25.553	951.105	761.871
161.877	25.428	950.182	760.535
162.892	25.629	949.611	760.860
163.906	25.416	948.301	758.845
164.921	25.417	947.557	758.188
165.935	25.511	946.829	757.933
166.950	25.640	945.385	757.253
167.964	25.550	944.487	756.090
168.979	25.315	943.623	754.342
169.994	25.139	943.026	753.061
171.008	25.516	942.351	754.035
172.023	25.645	941.682	753.974
173.037	25.387	940.490	751.876
174.052	25.239	939.608	750.485
175.067	25.106	939.114	749.467
176.081	25.229	938.664	749.553
177.096	25.339	937.516	749.031
178.110	24.923	936.714	746.589
179.125	24.753	935.987	745.236
180.140	24.954	935.731	745.802
181.154	25.106	935.514	746.195
182.169	25.293	935.581	746.962
183.183	25.459	935.051	747.164
184.198	25.373	934.107	745.987
185.213	25.442	933.279	745.546
186.227	25.360	932.946	744.871
187.242	25.400	932.287	744.446
188.256	25.501	931.338	744.040
189.271	25.576	930.570	743.670
190.286	25.275	929.439	741.457
191.300	24.601	927.976	737.446
192.315	23.971	926.249	733.412
193.329	23.908	925.714	732.662
194.344	24.830	926.272	736.837
195.359	25.271	926.413	738.701
196.373	25.475	925.752	738.948
197.388	25.324	925.050	737.702
198.402	25.241	924.759	737.064
199.417	25.328	923.693	736.503
200.432	25.056	923.021	734.787
201.446	25.056	922.221	734.087
202.461	24.988	921.867	733.460
203.475	24.092	919.826	728.112
204.490	23.396	918.615	724.246
205.504	24.411	918.857	728.520
206.519	24.868	919.041	730.463
207.534	25.068	918.519	730.799
208.548	25.395	918.426	731.993
209.563	25.173	917.325	730.149
210.577	25.184	916.732	729.658
211.592	25.623	916.520	731.209
212.607	25.507	915.835	730.127
213.621	25.612	914.870	729.717
214.636	25.582	914.077	728.901
215.650	25.605	913.407	728.395
216.665	25.581	912.687	727.657
217.680	25.575	911.976	727.003
218.694	25.304	910.939	725.019
219.709	25.123	910.405	723.798
220.723	25.299	910.407	724.444
221.738	25.336	909.440	723.762
222.753	25.357	908.888	723.342
223.767	25.554	908.468	723.738
224.782	25.792	907.994	724.255
225.796	25.752	907.398	723.552
226.811	24.977	906.010	719.271
227.826	24.387	904.761	715.849
228.840	24.451	904.392	715.750
229.855	24.545	903.715	715.529
230.869	24.382	902.325	713.714
231.884	24.640	902.809	715.067
232.899	25.480	902.374	718.013
233.913	25.470	901.800	717.456
234.928	25.273	901.420	716.302
235.942	25.184	900.752	715.354
236.957	24.931	900.101	713.765
237.972	24.883	899.750	713.232
238.986	25.039	898.666	712.928
240.001	25.166	897.850	712.725
241.015	25.098	897.938	712.461
242.030	25.346	897.037	712.669
243.045	25.301	896.908	712.322
244.059	25.469	896.633	712.710
245.074	25.287	895.474	711.003
246.088	25.057	894.457	709.223
247.103	25.359	894.485	710.377
248.117	25.895	894.005	712.052
249.132	25.957	893.937	712.180
250.147	26.196	893.512	712.720
251.161	26.311	892.946	712.661
252.176	26.353	892.197	712.166
253.190	26.424	891.599	711.905
254.205	26.653	891.009	712.272
255.220	26.571	890.504	711.482
256.234	26.239	889.879	709.617
257.249	26.133	889.530	708.858
258.263	26.259	888.625	708.569
259.278	26.268	887.984	708.028
260.293	26.335	887.371	707.742
261.307	26.299	886.563	706.894
262.322	26.069	885.806	705.329
263.336	25.244	883.970	700.583
264.351	24.302	882.006	695.295
265.366	24.359	882.002	695.452
266.380	25.478	882.538	700.176
267.395	25.945	882.389	701.811
268.409	25.824	881.298	700.410
269.424	26.040	881.046	700.990
270.439	26.070	880.377	700.512
271.453	26.133	879.954	700.357
272.468	26.444	879.604	701.223
273.482	26.474	878.824	700.653
274.497	26.031	877.675	697.965
275.512	25.675	876.895	695.904
276.526	26.129	876.650	697.404
277.541	26.231	876.618	697.713
278.555	25.950	875.518	695.688
279.570	25.939	874.817	695.028
280.585	26.103	874.488	695.336
281.599	25.888	873.322	693.521
282.614	25.359	872.255	690.580
283.628	25.337	872.053	690.273
284.643	25.714	871.732	691.407
285.657	25.311	870.437	688.774
286.672	25.048	869.710	687.129
287.687	25.694	869.559	689.422
288.701	25.652	869.477	689.135
289.716	25.297	868.184	686.692
290.730	25.362	867.467	686.314
291.745	25.086	866.638	684.541
292.760	25.287	866.783	685.363
293.774	26.368	867.574	690.056
294.789	26.731	866.537	690.555
295.803	26.794	865.721	690.086
296.818	26.672	865.407	689.307
297.833	26.093	864.027	685.947
298.847	26.139	863.557	685.689
299.862	26.432	863.569	686.749
300.876	26.473	863.478	686.775
301.891	26.521	862.251	685.918
302.906	26.060	861.862	683.802
303.920	26.220	861.131	683.767
304.935	26.674	860.717	685.093
305.949	26.821	859.783	684.846
306.964	26.306	859.351	682.497
307.979	26.332	859.141	682.369
308.993	26.751	859.079	683.839
310.008	26.596	858.552	682.775
311.022	26.355	857.776	681.188
312.037	26.346	856.940	680.430
313.052	26.000	856.018	678.339
314.066	25.217	854.581	674.197
315.081	24.904	853.834	672.375
316.095	25.772	854.256	675.905
317.110	26.373	853.450	677.460
318.125	25.467	852.004	672.862
319.139	24.477	850.318	667.772
320.154	24.289	850.261	666.965
321.168	25.263	850.999	671.129
322.183	25.922	851.231	673.717
323.197	26.128	850.578	673.907
324.212	26.338	850.315	674.423
325.227	26.557	849.534	674.562
326.241	25.998	849.305	672.236
327.256	26.082	848.382	671.761
328.270	26.001	847.973	671.074
329.285	25.920	847.016	669.956
330.300	25.748	845.870	668.353
331.314	26.072	845.777	669.422
332.329	26.388	845.620	670.411
333.343	26.630	845.097	670.833
334.358	26.458	844.663	669.792
335.373	26.647	844.182	670.051
336.387	26.802	844.779	671.040
337.402	27.030	844.401	671.524
338.416	26.997	844.079	671.085
339.431	27.106	843.774	671.188
340.446	27.055	843.633	670.827
341.460	26.898	842.648	669.404
342.475	26.872	841.843	668.612
343.489	26.867	841.756	668.463
344.504	27.268	841.229	669.463
345.519	27.525	841.054	670.210
346.533	27.424	840.864	669.628
347.548	27.374	840.288	668.926
348.562	27.209	839.921	667.968
349.577	27.244	838.720	667.080
350.592	27.338	837.806	666.640
351.606	27.234	837.483	665.943
352.621	27.153	836.849	665.083
353.635	27.073	835.794	663.894
354.650	26.435	834.469	660.456
355.665	25.466	832.892	655.613
356.679	25.829	832.779	656.791
357.694	26.363	832.521	658.475
358.708	26.334	831.529	657.526
359.723	26.685	831.749	658.920
360.738	26.840	831.783	659.452
361.752	27.074	830.857	659.508
362.767	27.242	830.958	660.140
363.781	27.557	830.723	661.039
364.796	27.695	830.133	661.012
365.810	27.766	829.423	660.645
366.825	27.677	829.114	660.018
367.840	27.464	827.978	658.285
368.854	26.926	827.887	656.208
369.869	26.874	827.389	655.570
370.883	27.180	826.572	655.968
371.898	27.038	826.201	655.102
372.913	27.125	825.973	655.176
373.927	27.140	825.488	654.791
374.942	27.257	825.039	654.796
375.956	27.549	824.598	655.439
376.971	27.710	824.050	655.526
377.986	27.503	824.274	654.900
379.000	27.584	823.094	654.196
380.015	27.429	822.730	653.291
381.029	27.530	822.123	653.115
382.044	27.715	821.646	653.342
383.059	27.515	821.178	652.194
384.073	27.515	820.933	651.942
385.088	27.656	820.115	651.738
386.102	27.478	819.213	650.328
387.117	27.439	818.553	649.607
388.132	26.915	817.697	647.005
389.146	26.507	816.806	644.789
390.161	26.917	816.587	646.019
391.175	27.382	816.449	647.508
392.190	27.070	815.326	645.451
393.205	25.739	813.132	638.937
394.219	24.110	811.421	631.760
395.234	24.136	811.418	631.794
396.248	25.729	812.646	638.350
397.263	27.201	813.748	644.379
398.278	27.192	813.305	643.942
399.292	26.977	812.399	642.405
400.307	26.775	812.299	641.556
401.321	27.140	811.613	642.246
402.336	27.431	812.045	643.561
403.350	27.714	811.442	644.026
404.365	28.048	811.426	645.134
405.380	28.228	811.251	645.572
406.394	28.322	810.541	645.281
407.409	28.269	810.049	644.645
408.423	28.172	809.610	643.897
409.438	28.274	809.498	644.110
410.453	28.345	808.786	643.735
411.467	28.225	808.193	642.787
412.482	28.379	808.211	643.285
413.496	28.407	807.755	642.964
414.511	28.639	806.762	642.929
415.526	28.421	806.609	641.986
416.540	28.100	806.074	640.381
417.555	28.056	805.217	639.488
418.569	28.057	804.766	639.078
419.584	28.007	804.480	638.620
420.599	27.814	803.844	637.383
421.613	110.893	1285.026	1455.473
422.628	95.777	1355.130	1455.603
