DTS Sentinel unit serial number:	SN413079Multiplexer serial number:	ORYXHardware model number:	OX4-SRSoftware version number:	ORYX F/W v4.00 Oryx Data Collector v3.7.2.0data status	okinstallation	princeton_trtdifferential loss correction	single-endedforward channel	channel 1reverse channel	N/Adate	2019/09/14time	15:34:35forward acquisition time	60.00reverse acquisition time	0.00gamma	496.2192k internal	0.2294k external	0.2294temperature offset calibration	1.0075default loss term (dB/km)	0.3790temperature slope calibration	1.0000multiplexer offset coefficient	1.0000multiplexer slope coefficient	1.0000fibre end	0.00T internal ref (°C)	38.81T ext. ref 1 (°C)	5.15T ext. ref 2 (°C)	33.81length (m)	temperature (°C)	Stokes	anti-Stokes-747.200	800.000	0.045	-0.149
-746.185	-131.036	0.171	0.023
-745.171	-200.000	0.013	-0.179
-744.156	-99.401	0.222	0.057
-743.142	-200.000	0.016	-0.119
-742.127	800.000	0.018	-0.072
-741.112	-200.000	0.047	0.241
-740.098	-69.549	-0.151	0.059
-739.083	109.229	0.097	-0.119
-738.069	-44.377	0.266	0.136
-737.054	-129.358	0.141	0.020
-736.039	33.414	-0.283	-0.251
-735.025	-200.000	-0.005	-0.224
-734.010	-187.429	-0.244	-0.003
-732.996	44.420	0.078	-0.073
-731.981	-200.000	0.026	-0.183
-730.966	448.923	-0.229	0.515
-729.952	59.910	-0.219	0.221
-728.937	4.397	-0.194	0.145
-727.923	800.000	0.059	0.246
-726.908	-200.000	-0.019	-0.289
-725.894	-46.202	0.306	-0.154
-724.879	343.080	0.054	-0.109
-723.864	-97.671	-0.357	-0.095
-722.850	-74.943	0.295	-0.108
-721.835	-133.569	-0.450	0.058
-720.821	519.250	-0.018	-0.043
-719.806	-33.063	-0.222	-0.126
-718.791	800.000	-0.037	-0.140
-717.777	628.930	-0.138	0.356
-716.762	-35.876	-0.238	0.132
-715.748	-140.296	-0.552	-0.059
-714.733	-63.301	-0.199	-0.084
-713.718	-38.060	0.151	-0.082
-712.704	28.625	-0.128	0.111
-711.689	-200.000	-0.059	-0.337
-710.675	-77.890	-0.090	-0.032
-709.660	800.000	-0.079	-0.346
-708.645	-88.824	-0.166	-0.050
-707.631	-200.000	-0.001	0.018
-706.616	-27.705	0.136	-0.081
-705.602	-92.899	0.082	0.023
-704.587	800.000	-0.045	-0.174
-703.572	-0.267	-0.287	0.209
-702.558	405.088	0.186	-0.400
-701.543	-33.148	-0.251	0.142
-700.529	2.815	-0.125	0.092
-699.514	-55.671	0.220	-0.100
-698.499	256.922	-0.076	0.133
-697.485	18.157	0.262	-0.213
-696.470	397.702	0.023	0.049
-695.456	96.647	-0.140	0.163
-694.441	4.595	0.090	0.067
-693.426	420.311	-0.126	0.275
-692.412	-30.789	0.203	0.117
-691.397	-3.997	0.264	0.187
-690.383	-6.612	0.231	-0.160
-689.368	800.000	0.116	0.410
-688.354	88.651	-0.187	-0.212
-687.339	-9.776	-0.137	-0.093
-686.324	-143.104	0.157	-0.016
-685.310	-63.245	-0.251	0.105
-684.295	217.956	0.035	0.057
-683.281	800.000	0.046	-0.134
-682.266	64.777	0.106	-0.109
-681.251	-43.490	0.284	0.146
-680.237	-121.277	0.137	0.023
-679.222	70.728	-0.183	-0.194
-678.208	120.156	-0.136	0.172
-677.193	-138.188	-0.123	0.014
-676.178	-32.970	0.280	-0.158
-675.164	-200.000	-0.008	-0.133
-674.149	304.854	0.042	0.080
-673.135	80.925	0.205	0.225
-672.120	-200.000	0.029	-0.171
-671.105	-44.581	-0.203	-0.104
-670.091	-37.556	-0.111	-0.060
-669.076	-106.041	-0.314	0.072
-668.062	-200.000	0.006	0.059
-667.047	800.000	0.075	-0.285
-666.032	-14.494	-0.050	-0.033
-665.018	-200.000	0.038	0.267
-664.003	-120.511	-0.168	0.029
-662.989	800.000	-0.069	0.273
-661.974	-200.000	0.018	-0.216
-660.959	-152.499	0.064	-0.005
-659.945	194.285	0.144	0.222
-658.930	203.713	0.242	-0.381
-657.916	-100.825	-0.243	-0.061
-656.901	-158.448	-0.220	-0.013
-655.886	-200.000	0.021	-0.295
-654.872	-24.315	0.140	0.085
-653.857	-39.781	0.120	0.064
-652.843	-69.951	-0.334	0.130
-651.828	151.050	-0.132	0.182
-650.814	-88.177	-0.147	-0.045
-649.799	-27.963	-0.193	-0.114
-648.784	255.582	0.119	-0.207
-647.770	379.314	-0.063	0.131
-646.755	70.625	0.042	0.044
-645.741	129.860	-0.099	-0.129
-644.726	119.079	-0.087	0.110
-643.711	30.477	-0.254	-0.221
-642.697	-200.000	-0.036	0.234
-641.682	291.868	0.136	-0.252
-640.668	50.664	0.135	-0.130
-639.653	78.862	0.316	-0.344
-638.638	-89.091	-0.178	-0.054
-637.624	-4.528	-0.168	-0.118
-636.609	53.500	0.094	0.092
-635.595	245.820	0.245	0.420
-634.580	67.937	0.158	0.165
-633.565	66.454	0.149	-0.154
-632.551	800.000	-0.060	0.193
-631.536	-63.670	0.102	0.043
-630.522	-75.344	0.161	-0.058
-629.507	-150.526	0.149	-0.012
-628.492	-168.978	0.263	-0.010
-627.478	254.113	0.083	-0.145
-626.463	-174.767	0.194	0.006
-625.449	92.077	0.198	-0.227
-624.434	800.000	-0.045	-0.175
-623.419	-138.687	-0.166	-0.018
-622.405	-141.157	0.109	0.011
-621.390	166.793	0.091	-0.132
-620.376	-200.000	-0.012	0.153
-619.361	105.068	-0.043	-0.051
-618.346	7.367	-0.014	0.010
-617.332	234.399	0.051	-0.085
-616.317	-2.826	0.059	-0.042
-615.303	-200.000	0.288	0.000
-614.288	-54.412	-0.126	-0.058
-613.273	800.000	0.078	0.274
-612.259	381.615	0.057	-0.118
-611.244	199.217	0.076	-0.118
-610.230	111.550	0.009	-0.011
-609.215	800.000	0.025	-0.093
-608.201	-53.090	-0.291	0.136
-607.186	-161.561	-0.224	0.012
-606.171	-109.299	0.238	-0.051
-605.157	-168.709	-0.106	-0.004
-604.142	-64.045	-0.185	0.077
-603.128	800.000	0.043	0.171
-602.113	800.000	0.024	0.092
-601.098	-97.073	-0.356	-0.095
-600.084	-15.616	-0.201	-0.131
-599.069	-200.000	-0.084	0.417
-598.055	-65.935	-0.170	0.069
-597.040	-200.000	0.048	-0.269
-596.025	-200.000	0.034	-0.219
-595.011	-66.181	0.169	-0.069
-593.996	32.427	0.146	-0.128
-592.982	380.617	0.069	-0.143
-591.967	3.633	0.170	0.126
-590.952	-158.405	-0.352	0.021
-589.938	151.124	-0.074	0.102
-588.923	78.750	-0.013	-0.015
-587.909	-200.000	0.036	-0.333
-586.894	-27.769	0.222	0.131
-585.879	-84.378	0.094	0.030
-584.865	276.942	0.043	-0.078
-583.850	178.368	-0.127	0.189
-582.836	-200.000	0.036	-0.410
-581.821	-200.000	0.016	0.315
-580.806	29.836	-0.014	-0.013
-579.792	177.505	0.258	-0.382
-578.777	58.461	0.137	0.137
-577.763	-52.016	-0.341	0.161
-576.748	-126.224	-0.431	0.065
-575.733	-45.386	0.266	0.134
-574.719	800.000	-0.010	-0.034
-573.704	-179.689	-0.104	0.002
-572.690	268.350	-0.163	-0.290
-571.675	440.727	-0.093	0.208
-570.661	101.490	0.304	0.360
-569.646	83.000	-0.282	0.311
-568.631	-190.169	0.193	0.002
-567.617	-37.804	-0.135	-0.073
-566.602	432.701	0.140	0.309
-565.588	86.154	-0.120	-0.135
-564.573	645.360	-0.059	0.152
-563.558	-200.000	-0.010	-0.155
-562.544	-162.537	-0.100	0.005
-561.529	-72.132	-0.343	-0.129
-560.515	800.000	-0.052	-0.202
-559.500	-138.602	0.206	-0.023
-558.485	556.789	0.089	-0.218
-557.471	-40.348	-0.164	-0.086
-556.456	-62.153	-0.147	-0.062
-555.442	-200.000	-0.007	0.044
-554.427	54.907	-0.191	0.188
-553.412	428.515	0.058	-0.127
-552.398	173.221	-0.023	0.033
-551.383	390.013	0.064	0.135
-550.369	5.931	0.359	0.270
-549.354	-200.000	0.018	-0.161
-548.339	-200.000	-0.016	-0.158
-547.325	-200.000	-0.001	0.388
-546.310	-200.000	0.015	0.181
-545.296	47.747	0.117	0.111
-544.281	62.708	-0.295	-0.299
-543.266	-74.971	-0.285	-0.104
-542.252	-145.104	0.391	0.036
-541.237	153.024	-0.225	-0.312
-540.223	-49.447	-0.157	-0.076
-539.208	-55.373	-0.131	-0.059
-538.193	250.212	0.109	-0.187
-537.179	-99.224	-0.373	0.096
-536.164	465.242	0.124	0.281
-535.150	-165.182	-0.094	-0.004
-534.135	-112.998	-0.265	0.053
-533.121	712.523	-0.058	-0.157
-532.106	-113.175	-0.078	-0.016
-531.091	-38.231	0.336	0.181
-530.077	-200.000	-0.034	-0.273
-529.062	-200.000	-0.055	0.277
-528.048	800.000	-0.043	-0.161
-527.033	-200.000	0.050	-0.360
-526.018	19.716	0.217	0.177
-525.004	87.803	-0.234	0.263
-523.989	-180.729	0.277	0.006
-522.975	68.723	0.023	-0.024
-521.960	-66.850	0.225	0.090
-520.945	-25.488	0.313	0.188
-519.931	-67.878	-0.125	-0.050
-518.916	-26.285	-0.087	-0.052
-517.902	-200.000	0.018	0.115
-516.887	800.000	0.075	-0.246
-515.872	590.945	-0.029	-0.074
-514.858	-40.619	0.017	0.009
-513.843	800.000	0.074	0.322
-512.829	581.319	-0.087	-0.216
-511.814	-34.241	-0.234	-0.130
-510.799	-200.000	0.034	0.343
-509.785	-134.518	-0.339	-0.042
-508.770	-153.145	-0.135	0.010
-507.756	205.766	0.111	-0.175
-506.741	286.789	0.100	-0.182
-505.726	-62.884	-0.202	-0.085
-504.712	105.390	-0.130	0.155
-503.697	111.042	-0.099	0.120
-502.683	4.188	-0.195	-0.145
-501.668	-200.000	-0.024	0.246
-500.653	215.797	0.064	-0.103
-499.639	545.140	-0.114	0.277
-498.624	800.000	0.140	0.439
-497.610	-200.000	-0.003	0.015
-496.595	800.000	0.101	-0.371
-495.581	-158.769	0.340	0.020
-494.566	800.000	0.083	-0.255
-493.551	-147.653	0.097	0.008
-492.537	155.566	0.144	-0.201
-491.522	800.000	0.072	0.224
-490.508	98.266	0.116	0.136
-489.493	182.372	-0.023	0.034
-488.478	-200.000	-0.002	0.132
-487.464	-35.983	-0.130	0.071
-486.449	-134.356	-0.432	0.054
-485.435	189.368	0.084	-0.128
-484.420	-96.158	0.150	0.040
-483.405	-78.184	0.276	-0.096
-482.391	226.766	0.113	-0.186
-481.376	44.407	0.150	-0.139
-480.362	-90.509	0.391	0.115
-479.347	231.390	0.178	0.294
-478.332	-69.087	0.257	-0.100
-477.318	-123.955	0.254	-0.040
-476.303	759.985	0.102	-0.279
-475.289	-200.000	-0.002	-0.122
-474.274	130.784	0.191	0.247
-473.259	-200.000	-0.043	-0.288
-472.245	-200.000	0.023	-0.230
-471.230	-54.368	0.136	0.062
-470.216	-91.525	0.046	-0.013
-469.201	45.709	-0.066	-0.062
-468.186	743.825	0.013	0.035
-467.172	153.072	0.183	0.253
-466.157	800.000	0.078	-0.239
-465.143	800.000	0.063	0.231
-464.128	800.000	0.019	-0.065
-463.113	-107.307	0.046	0.010
-462.099	-98.846	-0.215	-0.055
-461.084	-182.103	-0.207	0.004
-460.070	-90.121	0.167	0.049
-459.055	697.925	0.124	-0.329
-458.040	-200.000	-0.017	0.155
-457.026	-25.548	-0.088	0.053
-456.011	-12.304	-0.300	-0.198
-454.997	800.000	0.039	0.153
-453.982	-200.000	-0.009	-0.163
-452.968	45.488	0.183	-0.171
-451.953	800.000	0.048	-0.212
-450.938	800.000	0.005	-0.020
-449.924	-131.150	-0.054	-0.007
-448.909	82.498	0.177	0.194
-447.895	-83.280	-0.322	0.105
-446.880	-153.700	-0.511	-0.036
-445.865	-200.000	-0.002	0.082
-444.851	-200.000	-0.021	-0.138
-443.836	-200.000	-0.043	-0.416
-442.822	738.438	-0.013	-0.036
-441.807	346.078	0.091	-0.180
-440.792	84.091	-0.147	0.163
-439.778	263.454	-0.190	-0.333
-438.763	-106.025	-0.089	0.020
-437.749	-200.000	-0.012	-0.087
-436.734	19.895	0.170	-0.139
-435.719	45.174	-0.119	0.111
-434.705	-200.000	-0.022	0.175
-433.690	291.074	0.067	0.124
-432.676	800.000	-0.039	-0.129
-431.661	-96.872	0.218	-0.058
-430.646	85.439	-0.109	-0.120
-429.632	-139.888	-0.148	-0.016
-428.617	264.120	-0.014	0.025
-427.603	29.917	0.201	-0.173
-426.588	-200.000	0.027	0.138
-425.573	-34.955	-0.408	0.225
-424.559	-200.000	-0.035	-0.198
-423.544	-149.960	0.110	0.009
-422.530	-104.914	0.118	0.027
-421.515	-200.000	-0.012	0.243
-420.500	-157.059	-0.042	-0.003
-419.486	-34.782	0.288	0.159
-418.471	-162.616	-0.169	0.008
-417.457	18.503	0.065	0.053
-416.442	-15.079	-0.183	-0.118
-415.428	-69.467	0.064	-0.025
-414.413	13.134	-0.175	-0.137
-413.398	215.293	0.158	-0.254
-412.384	-200.000	0.025	0.136
-411.369	-200.000	-0.006	-0.258
-410.355	-126.380	-0.148	0.022
-409.340	-149.410	0.110	-0.009
-408.325	464.513	-0.050	-0.113
-407.311	-151.761	-0.255	0.019
-406.296	-92.012	-0.323	0.092
-405.282	-46.824	-0.067	0.033
-404.267	-79.362	-0.086	0.029
-403.252	-100.992	0.420	-0.104
-402.238	7.792	0.063	0.048
-401.223	167.226	0.255	0.366
-400.209	-81.829	-0.210	-0.069
-399.194	-63.909	0.177	-0.073
-398.179	256.485	-0.151	0.261
-397.165	645.339	-0.084	-0.217
-396.150	507.447	0.043	0.102
-395.136	800.000	0.053	-0.171
-394.121	205.400	-0.018	-0.028
-393.106	-200.000	0.050	0.298
-392.092	-32.403	0.113	-0.064
-391.077	-200.000	-0.018	0.196
-390.063	101.097	0.113	-0.133
-389.048	800.000	-0.030	-0.125
-388.033	-200.000	-0.008	-0.122
-387.019	-114.944	0.252	-0.048
-386.004	5.820	-0.066	0.049
-384.990	-143.238	0.073	-0.007
-383.975	14.733	-0.286	-0.225
-382.960	-95.624	-0.215	-0.058
-381.946	724.355	-0.031	-0.083
-380.931	621.232	0.104	0.263
-379.917	104.127	-0.119	0.141
-378.902	345.624	-0.061	0.122
-377.888	-192.812	0.188	0.002
-376.873	302.423	-0.096	0.178
-375.858	-100.464	-0.071	-0.018
-374.844	-200.000	-0.058	-0.366
-373.829	800.000	0.062	0.201
-372.815	201.847	-0.157	-0.243
-371.800	464.632	0.141	0.317
-370.785	-55.692	-0.233	0.105
-369.771	194.520	-0.107	0.164
-368.756	-97.466	0.188	0.049
-367.742	-102.892	-0.341	0.082
-366.727	-77.787	-0.262	0.091
-365.712	-200.000	-0.001	0.120
-364.698	-145.059	0.359	-0.033
-363.683	-72.284	-0.060	0.022
-362.669	-102.212	0.177	0.043
-361.654	-80.351	-0.072	-0.024
-360.639	-121.557	0.229	-0.038
-359.625	308.761	0.038	-0.072
-358.610	199.054	-0.174	-0.268
-357.596	268.919	-0.159	-0.281
-356.581	-77.871	0.215	-0.075
-355.566	-200.000	0.021	0.096
-354.552	244.510	0.063	0.106
-353.537	679.776	0.098	-0.257
-352.523	26.373	-0.337	0.284
-351.508	-200.000	0.068	0.309
-350.493	-127.743	-0.116	-0.017
-349.479	-64.723	-0.438	0.179
-348.464	127.404	0.121	0.154
-347.450	-153.427	0.273	0.019
-346.435	239.346	0.076	-0.128
-345.420	-15.461	-0.109	-0.070
-344.406	-200.000	-0.022	-0.120
-343.391	800.000	-0.073	-0.227
-342.377	-65.563	-0.128	-0.052
-341.362	-34.784	0.191	0.105
-340.348	-115.301	-0.016	0.003
-339.333	800.000	0.091	0.275
-338.318	-194.828	0.200	-0.002
-337.304	-152.977	0.162	-0.011
-336.289	-200.000	0.043	-0.326
-335.275	222.671	-0.203	0.328
-334.260	-72.919	-0.172	0.063
-333.245	800.000	0.026	0.099
-332.231	800.000	0.027	0.097
-331.216	85.716	-0.160	0.177
-330.202	223.649	0.081	0.131
-329.187	-200.000	0.024	0.272
-328.172	-200.000	-0.025	-0.195
-327.158	259.681	-0.244	-0.424
-326.143	99.671	0.228	0.266
-325.129	34.091	-0.050	0.044
-324.114	6.775	0.167	-0.125
-323.099	-133.560	0.269	0.034
-322.085	3.710	-0.057	0.041
-321.070	-113.639	-0.324	-0.064
-320.056	9.667	0.088	0.067
-319.041	-200.000	0.004	0.152
-318.026	-25.125	0.141	-0.084
-317.012	-10.532	0.413	-0.275
-315.997	36.514	-0.133	-0.118
-314.983	495.486	0.096	0.221
-313.968	800.000	0.074	-0.228
-312.953	-200.000	0.027	-0.230
-311.939	-200.000	0.004	-0.154
-310.924	296.636	-0.154	0.285
-309.910	-200.000	0.048	-0.462
-308.895	61.641	-0.314	0.315
-307.880	154.186	-0.139	0.192
-306.866	-200.000	0.029	0.245
-305.851	800.000	-0.035	0.123
-304.837	212.904	-0.154	-0.244
-303.822	-200.000	-0.026	-0.117
-302.807	-90.937	-0.044	0.013
-301.793	49.053	-0.213	0.201
-300.778	126.730	-0.080	-0.102
-299.764	800.000	0.082	0.284
-298.749	-200.000	0.020	0.211
-297.735	-14.550	0.119	-0.077
-296.720	20.845	-0.141	-0.115
-295.705	75.857	0.020	-0.021
-294.691	-24.381	-0.157	0.094
-293.676	-103.164	0.151	0.036
-292.662	83.881	-0.160	-0.175
-291.647	-200.000	-0.003	-0.147
-290.632	-200.000	-0.005	-0.046
-289.618	-47.939	-0.057	-0.028
-288.603	-200.000	0.066	0.300
-287.589	446.950	0.139	0.307
-286.574	-46.784	-0.230	0.113
-285.559	-152.702	0.265	-0.019
-284.545	-159.106	-0.072	0.004
-283.530	196.210	-0.131	0.200
-282.516	-200.000	0.063	-0.362
-281.501	-83.101	0.185	-0.060
-280.486	64.612	-0.179	0.181
-279.472	484.343	0.171	0.391
-278.457	-200.000	-0.010	0.109
-277.443	-113.929	-0.307	0.060
-276.428	800.000	0.080	0.270
-275.413	-140.517	-0.127	-0.013
-274.399	79.209	-0.186	0.200
-273.384	-149.214	-0.249	0.020
-272.370	110.990	-0.055	-0.066
-271.355	800.000	-0.033	0.093
-270.340	228.639	-0.195	0.319
-269.326	-29.082	-0.192	-0.111
-268.311	360.039	0.163	-0.328
-267.297	-4.309	-0.125	0.087
-266.282	-200.000	0.031	0.162
-265.267	-113.401	0.489	-0.096
-264.253	-200.000	0.015	-0.235
-263.238	79.188	-0.071	-0.076
-262.224	-74.964	-0.354	-0.127
-261.209	108.788	-0.096	-0.115
-260.195	93.130	0.310	0.351
-259.180	-118.600	-0.495	0.088
-258.165	800.000	-0.047	-0.195
-257.151	73.601	-0.294	-0.309
-256.136	-78.694	0.255	-0.087
-255.122	-166.557	-0.201	-0.008
-254.107	-2.450	0.234	-0.164
-253.092	142.905	-0.167	-0.222
-252.078	3.959	0.235	-0.172
-251.063	90.309	0.040	-0.045
-250.049	-200.000	0.012	-0.249
-249.034	-154.275	0.245	-0.017
-248.019	38.617	-0.196	0.175
-247.005	-200.000	0.007	-0.255
-245.990	-200.000	0.059	-0.488
-244.976	-22.690	-0.098	-0.059
-243.961	570.916	0.096	-0.234
-242.946	61.933	0.151	0.151
-241.932	-54.324	0.206	0.094
-240.917	182.574	-0.154	0.228
-239.903	-37.993	-0.311	-0.166
-238.888	63.034	-0.029	0.029
-237.873	265.520	0.118	0.207
-236.859	35.647	0.124	0.109
-235.844	758.982	-0.051	0.139
-234.830	-200.000	0.007	0.038
-233.815	8.286	0.185	0.139
-232.800	113.093	0.128	0.155
-231.786	-40.893	-0.159	0.083
-230.771	113.400	0.139	0.169
-229.757	800.000	0.086	-0.267
-228.742	-164.450	0.359	0.016
-227.727	-118.743	0.093	0.016
-226.713	144.631	-0.098	-0.131
-225.698	800.000	0.090	-0.343
-224.684	800.000	0.047	-0.141
-223.669	800.000	-0.057	-0.207
-222.655	-78.238	0.110	0.038
-221.640	-200.000	-0.010	0.182
-220.625	-95.256	0.088	-0.024
-219.611	-26.926	-0.082	-0.048
-218.596	-200.000	0.052	0.264
-217.582	-200.000	0.095	0.514
-216.567	107.034	-0.217	0.258
-215.552	-128.774	0.227	0.032
-214.538	800.000	-0.051	0.222
-213.523	35.218	-0.142	0.125
-212.509	-117.339	-0.262	-0.048
-211.494	144.568	0.025	-0.034
-210.479	-94.834	0.330	-0.090
-209.465	187.239	0.129	-0.192
-208.450	17.613	0.281	-0.224
-207.436	153.967	0.094	0.129
-206.421	-200.000	-0.019	0.164
-205.406	208.473	0.061	-0.096
-204.392	18.162	0.215	-0.172
-203.377	28.260	0.061	-0.051
-202.363	76.043	-0.281	-0.297
-201.348	-153.575	0.392	-0.027
-200.333	99.208	0.370	0.428
-199.319	372.989	-0.087	-0.177
-198.304	136.599	0.191	0.250
-197.290	123.737	0.061	-0.077
-196.275	13.941	-0.116	0.090
-195.260	148.111	0.158	-0.214
-194.246	-200.000	-0.003	0.095
-193.231	50.817	-0.083	-0.079
-192.217	23.285	-0.353	0.290
-191.202	-200.000	0.010	0.164
-190.187	800.000	0.045	0.146
-189.173	-94.442	0.245	-0.067
-188.158	-200.000	-0.011	0.104
-187.144	11.292	0.165	0.126
-186.129	-25.757	-0.183	-0.108
-185.114	-17.787	-0.099	-0.062
-184.100	479.553	0.014	0.031
-183.085	-182.536	-0.206	-0.004
-182.071	47.857	-0.204	0.190
-181.056	0.923	0.498	0.357
-180.042	-160.424	-0.502	0.027
-179.027	672.448	0.066	-0.170
-178.012	156.160	0.103	-0.143
-176.998	-97.959	0.224	-0.058
-175.983	186.924	-0.054	-0.081
-174.969	40.483	-0.215	-0.194
-173.954	-81.859	-0.159	-0.052
-172.939	-94.036	-0.443	0.122
-171.925	-103.064	-0.285	0.068
-170.910	-144.045	-0.097	0.009
-169.896	207.370	-0.045	-0.069
-168.881	-118.799	0.334	-0.059
-167.866	-41.547	-0.123	0.063
-166.852	288.284	0.089	0.160
-165.837	149.472	-0.011	-0.015
-164.823	49.006	-0.044	-0.041
-163.808	800.000	-0.027	0.086
-162.793	800.000	-0.054	-0.182
-161.779	-63.123	0.284	0.117
-160.764	800.000	-0.106	0.380
-159.750	-200.000	0.220	-0.001
-158.735	800.000	-0.100	-0.287
-157.720	-26.039	-0.195	0.114
-156.706	-60.483	0.269	0.114
-155.691	-200.000	-0.005	-0.068
-154.677	-113.985	0.308	-0.060
-153.662	-101.447	0.174	-0.042
-152.647	48.483	-0.142	-0.133
-151.633	-196.009	-0.221	0.002
-150.618	800.000	-0.104	0.430
-149.604	72.674	0.109	0.114
-148.589	92.285	0.187	0.210
-147.574	-200.000	-0.014	-0.186
-146.560	-83.383	-0.206	-0.066
-145.545	526.045	-0.090	0.211
-144.531	32.592	-0.140	0.121
-143.516	-38.029	0.141	0.075
-142.502	26.894	-0.075	-0.063
-141.487	-189.867	0.256	-0.003
-140.472	-58.040	0.115	0.050
-139.458	-150.245	0.291	0.022
-138.443	166.875	-0.115	-0.162
-137.429	-49.875	0.130	0.061
-136.414	365.670	-0.042	-0.084
-135.399	-22.564	-0.170	-0.103
-134.385	-200.000	-0.002	-0.077
-133.370	800.000	-0.065	0.217
-132.356	-200.000	0.017	0.140
-131.341	-200.000	0.022	0.273
-130.326	-9.726	0.150	0.100
-129.312	800.000	-0.035	-0.113
-128.297	-200.000	0.077	0.539
-127.283	-11.070	0.285	0.188
-126.268	36.441	0.235	0.207
-125.253	-57.428	-0.042	0.018
-124.239	58.732	-0.281	0.275
-123.224	800.000	-0.100	-0.437
-122.210	-75.695	-0.185	0.066
-121.195	756.408	-0.067	0.182
-120.180	-7.754	0.068	-0.046
-119.166	-200.000	-0.033	0.269
-118.151	800.000	-0.077	0.284
-117.137	59.144	-0.167	-0.164
-116.122	-104.577	-0.269	0.062
-115.107	-190.572	0.284	-0.003
-114.093	-88.271	0.313	-0.093
-113.078	-49.795	-0.136	0.065
-112.064	684.907	-0.032	-0.084
-111.049	204.086	0.183	-0.282
-110.034	428.761	-0.060	-0.128
-109.020	800.000	-0.079	0.242
-108.005	800.000	-0.012	-0.039
-106.991	336.064	-0.034	-0.066
-105.976	-65.847	0.224	0.089
-104.962	171.587	-0.099	0.142
-103.947	752.699	0.113	0.304
-102.932	-15.804	0.084	-0.053
-101.918	67.358	-0.135	-0.138
-100.903	800.000	-0.048	0.152
-99.889	-72.671	0.238	-0.087
-98.874	-158.524	-0.169	-0.010
-97.859	-200.000	0.002	-0.015
-96.845	680.867	-0.062	-0.160
-95.830	0.545	-0.185	-0.132
-94.816	46.141	-0.149	0.138
-93.801	242.783	0.042	0.071
-92.786	-179.729	0.148	-0.003
-91.772	-94.385	-0.215	-0.059
-90.757	-200.000	0.022	-0.146
-89.743	-86.657	-0.447	0.136
-88.728	-113.993	-0.239	-0.046
-87.713	22.918	0.221	0.180
-86.699	6.685	0.240	-0.178
-85.684	2.022	-0.225	-0.162
-84.670	490.072	-0.048	0.109
-83.655	-200.000	0.003	-0.190
-82.640	113.712	0.081	-0.097
-81.626	800.000	0.090	0.251
-80.611	282.684	-0.176	-0.314
-79.597	91.183	-0.087	0.097
-78.582	-76.646	0.192	-0.067
-77.567	-48.453	-0.239	-0.115
-76.553	-91.681	0.149	0.042
-75.538	-200.000	0.011	-0.116
-74.524	-181.906	0.207	0.004
-73.509	-56.471	0.420	-0.186
-72.494	-41.642	-0.204	0.105
-71.480	44.845	0.035	0.032
-70.465	-124.373	0.263	-0.041
-69.451	-180.390	0.198	0.004
-68.436	-10.021	0.158	0.105
-67.422	528.158	0.101	-0.236
-66.407	-39.577	-0.331	0.172
-65.392	-9.816	0.210	0.139
-64.378	-200.000	0.010	0.075
-63.363	-41.319	-0.174	0.089
-62.349	-200.000	-0.026	-0.116
-61.334	7.420	-0.983	-0.732
-60.319	-14.114	0.384	0.247
-59.305	-200.000	-0.104	-1.074
-58.290	278.997	0.414	0.735
-57.276	235.268	1.025	1.685
-56.261	-200.000	82.931	502.870
-55.246	563.378	1362.690	3283.907
-54.232	185.296	2584.221	3818.095
-53.217	121.332	2232.346	2767.199
-52.203	49.875	1685.558	1581.822
-51.188	42.261	1417.426	1281.713
-50.173	38.927	1373.185	1220.964
-49.159	56.945	1413.511	1370.723
-48.144	62.274	1432.571	1422.728
-47.130	42.685	1392.026	1261.208
-46.115	38.862	1375.187	1222.149
-45.100	38.677	1370.549	1216.831
-44.086	38.671	1368.047	1214.522
-43.071	38.556	1365.637	1211.624
-42.057	38.602	1363.420	1209.892
-41.042	38.756	1361.287	1208.899
-40.027	38.723	1360.422	1207.883
-39.013	38.724	1358.359	1206.009
-37.998	38.682	1356.842	1204.355
-36.984	38.778	1355.219	1203.453
-35.969	38.891	1352.803	1201.957
-34.954	38.735	1351.508	1199.803
-33.940	38.855	1349.801	1198.974
-32.925	38.846	1348.346	1197.578
-31.911	38.947	1346.466	1196.478
-30.896	38.919	1345.334	1195.252
-29.881	38.933	1343.907	1194.018
-28.867	38.953	1342.454	1192.806
-27.852	38.857	1341.268	1191.123
-26.838	38.967	1339.685	1190.335
-25.823	38.950	1337.742	1188.456
-24.809	38.898	1336.680	1187.153
-23.794	38.880	1335.364	1185.826
-22.779	38.834	1334.081	1184.366
-21.765	38.955	1332.503	1183.645
-20.750	38.839	1331.274	1181.809
-19.736	38.838	1329.787	1180.437
-18.721	38.877	1328.734	1179.691
-17.706	38.701	1327.868	1177.815
-16.692	38.835	1325.954	1176.876
-15.677	38.816	1325.106	1175.959
-14.663	38.754	1324.394	1174.913
-13.648	38.811	1322.657	1173.663
-12.633	38.742	1322.464	1173.032
-11.619	38.745	1321.164	1171.849
-10.604	38.712	1320.535	1171.050
-9.590	38.787	1319.153	1170.227
-8.575	38.760	1318.359	1169.316
-7.560	38.702	1317.599	1168.245
-6.546	38.714	1316.913	1167.666
-5.531	38.620	1316.053	1166.300
-4.517	38.853	1314.633	1166.380
-3.502	38.845	1314.052	1165.769
-2.487	38.793	1313.001	1164.483
-1.473	38.757	1308.794	1160.492
-0.458	37.347	1293.498	1138.629
0.556	33.823	1273.439	1094.068
1.571	29.394	1276.389	1070.865
2.586	27.956	1290.980	1074.559
3.600	26.332	1279.083	1055.092
4.615	19.672	1202.816	955.403
5.629	9.871	1122.053	840.379
6.644	5.288	1098.990	799.622
7.659	4.955	1096.294	795.889
8.673	5.122	1095.768	796.289
9.688	5.235	1094.010	795.516
10.702	5.408	1092.273	795.064
11.717	10.684	1100.741	828.130
12.731	19.075	1112.778	880.204
13.746	21.389	1114.121	893.024
14.761	19.690	1112.126	882.674
15.775	18.674	1109.489	875.328
16.790	17.588	1107.511	868.158
17.804	16.907	1105.815	863.286
18.819	16.589	1104.673	860.696
19.834	16.229	1104.026	858.289
20.848	16.105	1102.957	856.751
21.863	15.774	1102.265	854.458
22.877	15.580	1101.489	852.795
23.892	15.796	1100.486	853.037
24.907	15.738	1099.770	852.113
25.921	15.711	1098.708	851.078
26.936	15.684	1097.579	849.994
27.950	15.848	1095.759	849.333
28.965	15.886	1094.534	848.504
29.980	15.983	1092.904	847.650
30.994	15.988	1091.234	846.307
32.009	16.003	1090.627	845.834
33.023	16.032	1089.115	844.737
34.038	15.884	1088.746	843.633
35.053	15.786	1087.772	842.313
36.067	15.822	1086.453	841.394
37.082	15.837	1086.159	841.167
38.096	15.959	1085.054	840.849
39.111	15.871	1084.632	840.007
40.126	15.898	1082.952	838.767
41.140	15.601	1081.810	836.331
42.155	15.432	1080.733	834.583
43.169	15.496	1079.653	833.993
44.184	15.596	1078.288	833.361
45.199	15.480	1077.684	832.246
46.213	15.724	1076.308	832.315
47.228	15.640	1075.647	831.317
48.242	15.776	1073.987	830.633
49.257	15.831	1073.197	830.218
50.271	15.800	1072.608	829.537
51.286	15.864	1071.904	829.234
52.301	15.797	1070.793	827.973
53.315	15.696	1069.688	826.547
54.330	15.696	1068.589	825.623
55.344	15.657	1067.653	824.636
56.359	15.684	1066.963	824.163
57.374	15.648	1065.687	822.928
58.388	15.552	1064.884	821.764
59.403	15.626	1063.792	821.215
60.417	15.609	1063.526	820.854
61.432	15.401	1062.639	819.081
62.447	15.438	1062.031	818.720
63.461	15.588	1060.572	818.250
64.476	15.500	1059.575	816.981
65.490	15.357	1059.063	815.817
66.505	15.472	1058.344	815.750
67.520	15.515	1058.102	815.701
68.534	15.502	1057.099	814.796
69.549	15.419	1056.907	814.172
70.563	15.452	1055.637	813.282
71.578	15.370	1054.718	812.106
72.593	15.233	1054.025	810.834
73.607	15.402	1052.960	810.763
74.622	15.404	1052.455	810.312
75.636	15.262	1052.111	809.290
76.651	15.381	1051.103	809.013
77.666	15.496	1050.411	808.963
78.680	15.435	1049.967	808.256
79.695	15.363	1049.140	807.204
80.709	15.522	1048.506	807.409
81.724	15.569	1047.789	807.013
82.739	15.640	1046.943	806.630
83.753	15.806	1046.484	806.998
84.768	16.004	1045.600	807.194
85.782	15.989	1044.867	806.485
86.797	15.921	1044.002	805.424
87.812	15.894	1042.846	804.331
88.826	15.838	1041.877	803.242
89.841	15.852	1041.033	802.588
90.855	15.948	1039.889	802.092
91.870	16.034	1039.426	802.074
92.884	15.988	1038.356	800.959
93.899	16.053	1037.484	800.523
94.914	16.065	1036.789	799.977
95.928	16.005	1035.964	798.981
96.943	15.941	1034.915	797.801
97.957	15.972	1034.085	797.236
98.972	15.789	1033.424	795.792
99.987	15.908	1032.275	795.398
101.001	15.932	1031.311	794.697
102.016	15.984	1030.413	794.182
103.030	15.893	1029.813	793.217
104.045	15.915	1028.686	792.386
105.060	15.926	1027.728	791.626
106.074	15.786	1026.928	790.285
107.089	15.627	1025.721	788.537
108.103	15.507	1024.792	787.195
109.118	15.514	1023.806	786.399
110.133	15.432	1022.962	785.296
111.147	15.575	1021.950	785.120
112.162	15.552	1021.166	784.338
113.176	15.706	1020.641	784.586
114.191	15.714	1020.016	784.076
115.206	15.680	1018.809	782.916
116.220	15.701	1018.084	782.389
117.235	15.602	1017.204	781.183
118.249	15.711	1015.685	780.453
119.264	15.612	1015.513	779.792
120.279	15.503	1014.684	778.580
121.293	15.553	1014.199	778.373
122.308	15.513	1012.631	776.917
123.322	15.500	1011.558	775.965
124.337	15.464	1010.780	775.133
125.352	15.547	1009.424	774.407
126.366	15.556	1008.588	773.737
127.381	15.712	1007.075	773.227
128.395	15.516	1006.645	771.928
129.410	15.651	1005.961	771.952
130.424	15.742	1004.888	771.482
131.439	15.850	1004.017	771.237
132.454	15.874	1003.125	770.593
133.468	15.798	1002.677	769.832
134.483	15.783	1001.888	769.090
135.497	15.835	1001.062	768.627
136.512	15.798	1000.137	767.679
137.527	15.898	999.209	767.354
138.541	15.900	998.494	766.749
139.556	15.847	997.927	766.005
140.570	15.931	997.263	765.807
141.585	16.128	996.099	765.742
142.600	16.084	995.139	764.734
143.614	16.159	994.304	764.366
144.629	16.064	994.009	763.639
145.643	16.122	993.165	763.190
146.658	16.030	991.942	761.763
147.673	15.951	990.305	760.084
148.687	15.900	989.771	759.377
149.702	15.820	988.674	758.107
150.716	15.719	988.156	757.187
151.731	15.935	987.060	757.252
152.746	15.822	986.351	756.135
153.760	16.010	985.597	756.334
154.775	15.888	985.476	755.626
155.789	15.989	984.783	755.480
156.804	15.913	983.954	754.437
157.819	16.038	983.439	754.533
158.833	16.103	982.572	754.092
159.848	16.089	981.975	753.506
160.862	16.170	980.835	752.926
161.877	16.037	979.294	751.084
162.892	15.849	978.506	749.575
163.906	15.916	977.602	749.117
164.921	15.907	976.672	748.298
165.935	15.981	975.830	747.915
166.950	16.053	975.049	747.571
167.964	15.853	974.162	745.937
168.979	16.046	973.055	745.876
169.994	15.885	972.860	744.950
171.008	15.939	971.789	744.302
172.023	16.163	970.767	744.441
173.037	16.174	970.512	744.231
174.052	16.106	969.967	743.446
175.067	16.022	968.949	742.231
176.081	15.876	968.588	741.245
177.096	15.895	967.944	740.769
178.110	16.036	967.080	740.662
179.125	15.883	966.730	739.657
180.140	16.094	966.110	740.042
181.154	16.048	965.697	739.461
182.169	16.363	964.976	740.223
183.183	16.186	964.562	739.064
184.198	16.277	963.499	738.583
185.213	16.289	962.888	738.101
186.227	16.309	962.239	737.624
187.242	16.396	961.629	737.471
188.256	16.550	960.760	737.411
189.271	16.457	959.712	736.137
190.286	16.138	959.236	734.321
191.300	16.061	957.810	732.827
192.315	15.890	957.428	731.727
193.329	15.988	957.117	731.851
194.344	15.997	956.427	731.298
195.359	16.148	956.038	731.589
196.373	16.372	955.335	731.959
197.388	16.360	955.082	731.648
198.402	16.423	954.732	731.585
199.417	16.640	953.545	731.552
200.432	16.647	952.931	731.046
201.446	16.673	952.522	730.779
202.461	16.674	952.360	730.596
203.475	16.693	951.398	729.874
204.490	16.471	950.359	728.058
205.504	16.451	949.799	727.479
206.519	16.354	949.159	726.505
207.534	16.463	948.144	726.132
208.548	16.434	947.538	725.481
209.563	16.303	947.342	724.704
210.577	16.539	946.189	724.769
211.592	16.677	945.697	724.918
212.607	16.702	944.660	724.165
213.621	16.670	944.181	723.600
214.636	16.557	943.536	722.556
215.650	16.595	942.580	721.922
216.665	16.760	942.005	722.122
217.680	16.832	941.242	721.783
218.694	16.863	940.360	721.171
219.709	16.824	940.220	720.836
220.723	16.775	939.084	719.692
221.738	16.751	938.330	718.948
222.753	16.792	937.628	718.524
223.767	16.791	937.393	718.273
224.782	16.974	936.719	718.467
225.796	16.910	936.274	717.793
226.811	16.911	935.500	717.140
227.826	16.789	934.844	716.060
228.840	16.814	933.677	715.206
229.855	16.865	932.861	714.732
230.869	16.765	932.053	713.631
231.884	16.780	931.355	713.096
232.899	16.837	930.470	712.593
233.913	16.687	930.042	711.574
234.928	16.686	929.413	711.024
235.942	16.732	928.822	710.701
236.957	16.724	928.558	710.404
237.972	16.612	927.812	709.303
238.986	16.721	927.083	709.136
240.001	16.842	926.244	708.939
241.015	16.877	925.651	708.568
242.030	16.884	925.137	708.141
243.045	16.944	924.188	707.604
244.059	16.920	923.915	707.232
245.074	17.002	923.096	706.882
246.088	17.005	922.814	706.616
247.103	17.159	921.817	706.434
248.117	17.200	921.535	706.323
249.132	17.304	921.105	706.365
250.147	17.429	920.339	706.233
251.161	17.427	919.821	705.766
252.176	17.488	919.133	705.426
253.190	17.466	918.621	704.881
254.205	17.352	917.666	703.613
255.220	17.468	917.039	703.551
256.234	17.538	916.207	703.139
257.249	17.510	915.526	702.439
258.263	17.519	914.861	701.902
259.278	17.527	914.313	701.455
260.293	17.493	913.371	700.530
261.307	17.581	913.005	700.550
262.322	17.594	912.273	699.979
263.336	17.821	911.549	700.293
264.351	17.617	910.990	698.966
265.366	17.742	910.245	698.844
266.380	17.723	909.724	698.305
267.395	17.509	908.884	696.722
268.409	17.579	907.535	695.912
269.424	17.530	907.392	695.539
270.439	17.556	906.766	695.106
271.453	17.520	905.869	694.210
272.468	17.446	905.603	693.641
273.482	17.466	904.779	693.032
274.497	17.589	903.926	692.816
275.512	17.588	903.857	692.696
276.526	17.478	903.511	691.925
277.541	17.516	903.179	691.762
278.555	17.744	902.171	691.857
279.570	17.882	901.267	691.658
280.585	17.809	900.478	690.699
281.599	17.785	899.393	689.706
282.614	17.662	899.188	688.993
283.628	17.712	898.434	688.556
284.643	17.702	897.625	687.833
285.657	17.792	897.294	687.884
286.672	17.761	896.328	686.956
287.687	17.977	895.548	687.165
288.701	17.958	895.112	686.697
289.716	17.853	894.841	686.004
290.730	17.734	894.524	685.221
291.745	17.766	893.777	684.718
292.760	17.876	892.650	684.237
293.774	17.910	892.503	684.199
294.789	17.899	891.799	683.552
295.803	17.920	890.994	682.961
296.818	17.713	890.622	681.788
297.833	17.868	889.748	681.677
298.847	17.937	888.724	681.109
299.862	17.928	888.635	680.944
300.876	17.965	888.109	680.626
301.891	18.148	887.480	680.812
302.906	18.114	886.857	680.140
303.920	18.129	886.350	679.751
304.935	18.186	885.879	679.555
305.949	18.280	884.949	679.153
306.964	18.140	884.333	678.067
307.979	18.328	883.585	678.180
308.993	18.254	883.045	677.410
310.008	18.246	882.450	676.862
311.022	18.190	881.892	676.154
312.037	18.286	881.238	675.971
313.052	18.132	880.638	674.846
314.066	17.962	880.102	673.701
315.081	17.985	879.598	673.350
316.095	17.968	879.130	672.864
317.110	18.003	878.400	672.382
318.125	18.098	877.420	671.946
319.139	18.085	877.078	671.575
320.154	18.007	876.891	671.064
321.168	18.026	876.373	670.685
322.183	18.161	875.608	670.569
323.197	18.088	875.342	670.021
324.212	18.118	874.874	669.720
325.227	18.096	873.852	668.794
326.241	18.141	873.298	668.487
327.256	18.097	873.060	668.073
328.270	18.184	872.093	667.610
329.285	18.168	871.048	666.692
330.300	18.097	870.927	666.264
331.314	18.142	870.741	666.237
332.329	18.269	870.038	666.135
333.343	18.314	869.521	665.855
334.358	18.417	869.073	665.853
335.373	18.361	869.104	665.600
336.387	18.461	868.679	665.604
337.402	18.515	868.082	665.299
338.416	18.615	867.747	665.369
339.431	18.572	867.488	664.944
340.446	18.607	867.075	664.703
341.460	18.675	866.717	664.636
342.475	18.684	866.069	664.114
343.489	18.735	865.626	663.914
344.504	18.761	864.981	663.460
345.519	18.741	864.834	663.212
346.533	18.716	864.400	662.722
347.548	18.703	863.589	661.994
348.562	18.463	862.990	660.551
349.577	18.461	862.755	660.302
350.592	18.639	861.372	659.871
351.606	18.503	860.965	658.979
352.621	18.734	859.815	658.929
353.635	18.588	859.619	658.158
354.650	18.901	858.705	658.598
355.665	18.831	857.987	657.724
356.679	18.843	857.630	657.438
357.694	18.659	857.033	656.219
358.708	18.812	856.097	656.027
359.723	18.792	855.853	655.707
360.738	18.967	854.890	655.576
361.752	18.873	854.345	654.742
362.767	18.795	854.332	654.376
363.781	18.919	853.613	654.241
364.796	19.041	853.365	654.458
365.810	19.167	853.110	654.684
366.825	19.151	852.360	653.988
367.840	19.219	851.670	653.660
368.854	19.039	851.225	652.579
369.869	19.130	850.512	652.317
370.883	19.166	850.201	652.158
371.898	19.128	850.103	651.881
372.913	19.181	849.641	651.672
373.927	19.159	849.219	651.207
374.942	19.088	848.626	650.424
375.956	19.261	848.083	650.604
376.971	19.324	847.768	650.544
377.986	19.463	847.331	650.673
379.000	19.495	846.781	650.316
380.015	19.438	845.778	649.274
381.029	19.404	845.880	649.165
382.044	19.389	845.100	648.454
383.059	19.384	844.708	648.077
384.073	19.264	843.979	647.010
385.088	19.150	843.594	646.228
386.102	19.189	842.789	645.702
387.117	19.243	842.176	645.376
388.132	19.182	841.560	644.618
389.146	19.225	841.118	644.384
390.161	19.340	840.744	644.472
391.175	19.460	840.031	644.313
392.190	19.256	839.671	643.221
393.205	19.327	839.083	642.978
394.219	19.305	838.711	642.555
395.234	19.316	838.107	642.076
396.248	19.236	837.870	641.537
397.263	19.263	837.426	641.242
398.278	19.122	837.142	640.444
399.292	19.212	836.484	640.218
400.307	19.103	836.041	639.418
401.321	19.270	835.306	639.418
402.336	19.359	834.960	639.430
403.350	19.177	834.707	638.501
404.365	19.445	834.066	638.947
405.380	19.379	833.805	638.447
406.394	19.502	833.171	638.360
407.409	19.693	832.584	638.560
408.423	19.611	832.849	638.405
409.438	19.735	832.091	638.224
410.453	19.759	831.555	637.844
411.467	19.793	830.737	637.285
412.482	19.741	831.080	637.302
413.496	19.885	830.444	637.288
414.511	19.804	830.147	636.703
415.526	19.794	829.476	636.097
416.540	19.846	829.097	635.940
417.555	19.739	828.609	635.116
418.569	19.943	827.925	635.285
419.584	19.848	827.517	634.569
420.599	19.861	827.142	634.271
421.613	151.061	1367.722	1770.624
422.628	131.730	1446.498	1770.730
