DTS Sentinel unit serial number:	SN413079Multiplexer serial number:	ORYXHardware model number:	OX4-SRSoftware version number:	ORYX F/W v4.00 Oryx Data Collector v3.7.2.0data status	okinstallation	princeton_trtdifferential loss correction	single-endedforward channel	channel 1reverse channel	N/Adate	2019/09/12time	18:26:34forward acquisition time	15.00reverse acquisition time	0.00gamma	496.2192k internal	0.2318k external	0.2318temperature offset calibration	1.0096default loss term (dB/km)	0.3790temperature slope calibration	1.0000multiplexer offset coefficient	1.0000multiplexer slope coefficient	1.0000fibre end	0.00T internal ref (°C)	33.31T ext. ref 1 (°C)	2.88T ext. ref 2 (°C)	27.97length (m)	temperature (°C)	Stokes	anti-Stokes-747.200	71.430	-0.051	-0.053
-746.185	44.473	0.205	0.191
-745.171	49.838	-0.219	-0.209
-744.156	-80.844	0.328	0.110
-743.142	800.000	0.075	0.318
-742.127	-133.324	-0.644	-0.082
-741.112	-43.179	0.380	0.195
-740.098	-91.718	-0.505	-0.145
-739.083	-119.278	1.028	0.181
-738.069	-26.225	0.472	-0.281
-737.054	800.000	0.076	0.265
-736.039	250.204	-0.437	-0.751
-735.025	-16.020	0.202	0.130
-734.010	800.000	-0.122	-0.425
-732.996	-200.000	0.080	0.547
-731.981	-71.248	0.338	0.128
-730.966	-74.942	0.123	0.045
-729.952	-9.185	0.627	0.424
-728.937	-96.100	-0.399	-0.107
-727.923	-200.000	0.029	0.271
-726.908	-132.315	-0.207	0.027
-725.894	65.375	0.363	-0.372
-724.879	800.000	-0.054	-0.180
-723.864	11.660	-0.462	0.358
-722.850	89.238	-0.223	-0.251
-721.835	81.103	-0.385	0.420
-720.821	-77.819	-0.829	0.290
-719.806	-141.672	0.587	0.060
-718.791	3.984	0.403	-0.298
-717.777	366.367	0.125	-0.254
-716.762	95.864	0.333	-0.384
-715.748	12.357	0.279	-0.217
-714.733	300.929	0.125	0.234
-713.718	-33.726	0.666	-0.371
-712.704	79.854	0.221	0.240
-711.689	738.319	0.193	-0.524
-710.675	11.334	-0.267	-0.207
-709.660	362.705	-0.240	0.487
-708.645	-200.000	0.018	0.208
-707.631	278.764	0.137	-0.246
-706.616	-40.758	-0.491	0.257
-705.602	101.933	0.356	-0.420
-704.587	-200.000	0.033	-0.328
-703.572	339.956	-0.534	1.054
-702.558	-61.615	-0.163	0.069
-701.543	-200.000	0.227	0.001
-700.529	-200.000	-0.009	0.108
-699.514	339.278	0.408	-0.803
-698.499	-130.387	0.505	0.069
-697.485	-63.573	-0.535	0.222
-696.470	-1.796	-0.172	0.122
-695.456	-128.341	0.488	-0.070
-694.441	47.798	0.542	-0.511
-693.426	-200.000	-0.006	0.282
-692.412	16.895	-0.521	0.417
-691.397	358.274	-0.279	0.563
-690.383	-200.000	-0.079	0.526
-689.368	70.037	0.259	0.270
-688.354	-9.513	0.269	-0.181
-687.339	-102.883	-0.338	-0.081
-686.324	234.474	0.265	0.442
-685.310	-200.000	0.093	0.971
-684.295	209.126	-0.211	0.334
-683.281	205.941	0.400	0.629
-682.266	34.746	0.358	0.316
-681.251	73.860	0.459	0.486
-680.237	-200.000	-0.012	0.583
-679.222	-75.897	-0.264	0.095
-678.208	-152.362	-0.484	0.035
-677.193	-200.000	0.068	0.560
-676.178	800.000	-0.144	-0.564
-675.164	36.360	0.415	-0.370
-674.149	125.959	-0.352	0.449
-673.135	67.496	-0.312	0.322
-672.120	-65.744	-0.159	0.064
-671.105	281.842	0.204	0.369
-670.091	-161.182	0.235	0.012
-669.076	-98.193	-0.654	-0.170
-668.062	-200.000	0.054	-0.432
-667.047	76.240	0.354	-0.378
-666.032	-200.000	-0.201	-1.217
-665.018	800.000	-0.099	0.364
-664.003	237.779	-0.125	0.209
-662.989	-8.325	0.405	0.275
-661.974	67.057	-0.482	-0.495
-660.959	-200.000	0.004	-0.389
-659.945	34.363	0.399	0.352
-658.930	-157.064	-0.653	-0.040
-657.916	106.308	-0.414	0.494
-656.901	-140.948	-0.301	0.031
-655.886	75.075	-0.143	-0.152
-654.872	-200.000	-0.013	0.076
-653.857	-191.664	0.432	-0.004
-652.843	-200.000	0.153	-0.767
-651.828	148.764	0.677	0.923
-650.814	-101.963	0.579	0.141
-649.799	107.088	-0.565	0.677
-648.784	800.000	-0.037	-0.122
-647.770	-200.000	-0.038	-0.519
-646.755	-200.000	-0.020	0.606
-645.741	800.000	-0.081	0.254
-644.726	-145.548	0.339	-0.031
-643.711	-78.044	-0.830	0.288
-642.697	102.039	0.489	0.576
-641.682	-175.649	0.155	-0.004
-640.668	-95.095	-0.943	0.257
-639.653	-200.000	-0.137	-0.696
-638.638	23.171	-0.215	-0.178
-637.624	-141.912	-0.570	0.057
-636.609	61.702	-0.644	-0.646
-635.595	-32.580	0.874	-0.491
-634.580	3.237	0.445	-0.326
-633.565	153.182	0.215	0.297
-632.551	-200.000	0.050	-0.266
-631.536	-15.888	-0.447	-0.287
-630.522	142.398	0.442	-0.592
-629.507	501.808	0.157	-0.366
-628.492	-52.970	-0.474	-0.220
-627.478	-91.372	0.446	-0.128
-626.463	217.391	-0.209	0.335
-625.449	800.000	0.055	-0.155
-624.434	-43.832	0.285	0.144
-623.419	318.736	-0.324	0.618
-622.405	267.084	0.514	-0.905
-621.390	-171.847	0.359	0.012
-620.376	313.260	0.334	-0.633
-619.361	-86.971	-1.253	-0.385
-618.346	-200.000	0.034	0.233
-617.332	49.673	0.049	-0.046
-616.317	20.954	0.186	-0.152
-615.303	-200.000	0.010	-0.220
-614.288	73.343	0.039	0.041
-613.273	7.065	-0.324	0.243
-612.259	60.840	-0.359	0.358
-611.244	365.425	-0.517	1.049
-610.230	-200.000	0.114	0.643
-609.215	-102.929	-0.082	0.020
-608.201	100.167	-0.116	-0.135
-607.186	-87.267	0.094	0.029
-606.171	-200.000	-0.002	-0.470
-605.157	-18.724	0.757	-0.475
-604.142	-72.154	0.250	0.093
-603.128	-13.473	0.501	0.327
-602.113	-200.000	0.156	-0.703
-601.098	-113.525	-0.316	0.062
-600.084	158.116	0.120	-0.167
-599.069	203.026	0.389	-0.606
-598.055	-200.000	0.033	0.912
-597.040	-3.497	0.675	0.473
-596.025	382.286	0.272	-0.563
-595.011	-38.187	0.113	0.060
-593.996	287.645	0.098	0.178
-592.982	800.000	0.213	0.728
-591.967	-146.071	-0.260	-0.023
-590.952	-48.608	-0.701	0.339
-589.938	60.262	0.807	0.804
-588.923	7.122	0.396	0.297
-587.909	21.610	0.654	-0.535
-586.894	373.697	0.165	0.338
-585.879	186.643	-0.181	0.272
-584.865	-63.810	-0.314	-0.130
-583.850	-200.000	0.061	-0.809
-582.836	242.404	-0.051	0.086
-581.821	800.000	0.249	0.753
-580.806	-5.347	0.490	0.339
-579.792	178.345	-0.230	0.338
-578.777	103.372	-0.388	0.458
-577.763	-194.934	-0.434	-0.003
-576.748	-62.824	-0.708	-0.295
-575.733	527.571	-0.256	-0.608
-574.719	-45.036	-0.680	-0.340
-573.704	-175.042	-0.396	0.011
-572.690	800.000	-0.073	0.296
-571.675	-44.569	-0.724	-0.364
-570.661	140.343	0.247	-0.328
-569.646	-200.000	0.015	0.073
-568.631	-12.446	0.595	0.391
-567.617	113.880	0.530	-0.648
-566.602	-118.693	0.633	0.112
-565.588	30.564	-0.283	-0.243
-564.573	231.886	-0.118	0.195
-563.558	-133.233	-0.677	-0.086
-562.544	-106.596	0.459	-0.103
-561.529	78.685	0.180	0.193
-560.515	87.669	0.255	0.283
-559.500	-200.000	0.126	0.769
-558.485	-105.238	-0.341	0.078
-557.471	-200.000	0.089	1.038
-556.456	-53.816	-0.252	-0.116
-555.442	-4.264	1.070	0.744
-554.427	-126.314	0.653	-0.098
-553.412	-200.000	-0.165	0.790
-552.398	373.599	0.311	0.635
-551.383	50.330	0.593	-0.563
-550.369	-18.604	0.643	-0.403
-549.354	-38.885	-0.503	0.266
-548.339	307.319	0.272	-0.510
-547.325	-117.250	-0.267	0.049
-546.310	18.701	-0.974	0.783
-545.296	487.865	0.270	0.619
-544.281	-200.000	-0.063	0.305
-543.266	-57.857	0.658	0.289
-542.252	13.350	-0.090	-0.070
-541.237	-50.294	-0.422	0.200
-540.223	40.237	-0.349	0.315
-539.208	-160.955	1.106	0.058
-538.193	-26.558	-1.193	-0.702
-537.179	-200.000	0.040	0.285
-536.164	532.728	-0.154	0.367
-535.150	223.699	-0.609	0.987
-534.135	-200.000	0.077	0.501
-533.121	-150.738	0.556	0.042
-532.106	201.354	0.147	-0.227
-531.091	-200.000	-0.017	0.225
-530.077	-48.730	-0.238	-0.114
-529.062	223.598	-0.210	0.341
-528.048	173.417	0.547	0.792
-527.033	184.956	0.329	-0.490
-526.018	283.595	-0.411	0.741
-525.004	217.278	-0.151	-0.241
-523.989	-200.000	-0.018	-0.381
-522.975	313.947	-0.101	0.190
-521.960	-146.604	-0.228	0.020
-520.945	266.082	-0.289	0.506
-519.931	-11.295	-0.172	-0.114
-518.916	800.000	-0.305	0.858
-517.902	-130.527	0.537	0.073
-516.887	128.267	-0.242	-0.309
-515.872	366.430	-0.046	0.094
-514.858	-117.387	1.078	-0.196
-513.843	-200.000	-0.058	-0.631
-512.829	-60.708	0.618	0.263
-511.814	126.582	0.627	0.796
-510.799	800.000	0.083	0.343
-509.785	-200.000	0.026	0.146
-508.770	-180.049	-0.304	-0.006
-507.756	126.093	-0.184	-0.233
-506.741	-40.968	-0.261	-0.135
-505.726	106.501	-0.170	-0.202
-504.712	-115.115	-0.306	0.058
-503.697	-132.567	0.355	0.046
-502.683	356.858	-0.184	0.368
-501.668	-200.000	0.041	0.799
-500.653	-156.010	-0.830	-0.053
-499.639	-145.248	0.293	0.027
-498.624	-72.142	-0.148	-0.055
-497.610	544.554	0.153	0.367
-496.595	-200.000	0.076	0.343
-495.581	-200.000	-0.202	0.974
-494.566	258.850	-0.232	0.401
-493.551	-200.000	-0.117	0.758
-492.537	-200.000	0.022	-0.444
-491.522	19.597	0.323	-0.260
-490.508	669.430	-0.166	-0.431
-489.493	-200.000	0.005	-0.656
-488.478	241.124	-0.234	-0.392
-487.464	-8.204	0.433	-0.292
-486.449	112.379	-0.266	0.322
-485.435	-54.809	0.340	-0.154
-484.420	56.281	0.157	0.152
-483.405	43.652	0.635	-0.582
-482.391	-200.000	0.213	-0.984
-481.376	214.853	0.301	-0.479
-480.362	-81.595	1.065	0.351
-479.347	-90.685	0.644	0.186
-478.332	-91.547	-0.393	0.112
-477.318	548.142	-0.216	0.519
-476.303	-10.239	-0.386	0.256
-475.289	216.541	-0.621	-0.990
-474.274	-38.446	-0.171	0.091
-473.259	-95.115	0.412	-0.111
-472.245	-200.000	0.069	-1.108
-471.230	-30.912	0.367	-0.207
-470.216	-200.000	-0.049	-0.731
-469.201	-56.788	-0.803	0.356
-468.186	-152.201	0.399	-0.029
-467.172	-22.896	0.293	-0.177
-466.157	305.831	-0.199	-0.370
-465.143	115.143	-0.402	0.491
-464.128	1.612	0.537	0.387
-463.113	800.000	0.100	-0.399
-462.099	800.000	-0.341	-0.989
-461.084	2.434	0.262	-0.190
-460.070	-68.604	0.205	-0.079
-459.055	-51.063	-0.106	-0.050
-458.040	-133.099	0.598	-0.076
-457.026	297.659	-0.359	-0.660
-456.011	149.742	-0.222	-0.301
-454.997	131.453	-0.152	-0.195
-453.982	-133.723	-0.832	0.104
-452.968	-116.881	0.597	0.109
-451.953	53.590	-0.512	-0.492
-450.938	101.914	0.165	-0.192
-449.924	734.831	0.187	0.500
-448.909	-200.000	0.023	-0.521
-447.895	-170.165	0.904	0.032
-446.880	593.656	-0.253	0.627
-445.865	-200.000	-0.006	0.481
-444.851	-21.941	-0.474	-0.288
-443.836	-200.000	0.080	0.982
-442.822	339.101	0.136	0.266
-441.807	796.392	0.243	0.671
-440.792	-93.954	0.860	-0.236
-439.778	-200.000	0.027	0.401
-438.763	176.268	0.110	-0.160
-437.749	106.143	0.397	-0.471
-436.734	547.693	-0.150	-0.360
-435.719	-127.008	-0.280	-0.041
-434.705	-54.538	-0.614	0.278
-433.690	-97.635	0.293	0.076
-432.676	-154.634	1.100	-0.073
-431.661	39.584	0.796	0.714
-430.646	532.185	-0.130	0.308
-429.632	-86.440	-0.400	-0.123
-428.617	-136.090	0.124	0.015
-427.603	-200.000	-0.436	-0.001
-426.588	-47.953	0.157	0.076
-425.573	-200.000	-0.007	-0.719
-424.559	172.941	0.447	-0.644
-423.544	80.766	0.350	0.377
-422.530	213.754	0.413	-0.652
-421.515	-41.792	-1.188	0.609
-420.500	182.080	-0.127	0.186
-419.486	117.915	0.454	0.559
-418.471	-161.215	0.800	-0.042
-417.457	-99.069	-0.928	-0.235
-416.442	345.710	-0.193	-0.379
-415.428	249.028	-0.303	0.514
-414.413	418.118	-0.187	-0.400
-413.398	234.300	-0.216	-0.356
-412.384	710.516	0.206	0.545
-411.369	674.432	-0.212	-0.549
-410.355	-67.083	-0.745	-0.294
-409.340	-2.481	0.172	-0.121
-408.325	257.498	0.151	0.260
-407.311	498.745	-0.203	-0.467
-406.296	-174.929	-0.266	-0.007
-405.282	-94.123	0.498	-0.136
-404.267	-83.501	0.475	0.152
-403.252	179.292	0.318	0.465
-402.238	-200.000	-0.001	-0.164
-401.223	-144.589	-0.423	0.039
-400.209	571.316	-0.309	-0.751
-399.194	180.541	-0.273	0.401
-398.179	411.339	-0.267	-0.566
-397.165	800.000	0.149	0.463
-396.150	-73.705	0.464	-0.169
-395.136	-41.713	-0.569	-0.292
-394.121	-48.575	-0.082	0.040
-393.106	-110.041	0.086	-0.018
-392.092	-39.890	-0.583	-0.304
-391.077	469.289	-0.119	-0.266
-390.063	-91.364	0.498	0.142
-389.048	-131.851	0.390	0.051
-388.033	54.080	-0.219	0.210
-387.019	-74.409	0.859	0.309
-386.004	800.000	-0.044	0.154
-384.990	243.068	-0.158	0.265
-383.975	114.816	-0.124	-0.150
-382.960	8.551	-0.889	0.668
-381.946	-131.048	-0.257	-0.034
-380.931	-10.378	0.383	0.253
-379.917	221.577	-0.183	-0.293
-378.902	206.293	0.153	-0.237
-377.888	800.000	-0.296	0.985
-376.873	-200.000	0.088	-0.529
-375.858	-200.000	-0.138	-0.825
-374.844	-73.612	0.178	0.065
-373.829	-200.000	0.190	0.947
-372.815	-200.000	0.003	0.014
-371.800	136.836	0.269	0.351
-370.785	-114.079	-0.565	0.109
-369.771	-120.388	-1.015	-0.172
-368.756	-133.749	-0.702	-0.087
-367.742	111.055	0.431	-0.517
-366.727	183.166	0.293	0.432
-365.712	800.000	-0.324	1.007
-364.698	-41.273	0.628	0.323
-363.683	503.255	0.307	0.708
-362.669	-200.000	-0.014	-0.184
-361.654	-161.478	0.489	-0.025
-360.639	369.029	0.241	-0.487
-359.625	-7.320	-0.634	0.428
-358.610	800.000	0.057	-0.190
-357.596	163.653	-0.452	-0.634
-356.581	-132.204	0.725	0.094
-355.566	5.002	0.667	-0.489
-354.552	208.362	-0.191	-0.298
-353.537	-57.563	-0.411	0.180
-352.523	28.797	0.203	0.172
-351.508	-47.458	-1.146	-0.555
-350.493	216.149	-0.308	-0.489
-349.479	607.849	-0.227	-0.565
-348.464	-200.000	-0.021	0.403
-347.450	309.747	0.397	-0.740
-346.435	-200.000	0.059	-0.482
-345.420	377.431	0.098	-0.200
-344.406	412.502	0.242	-0.513
-343.391	58.446	0.275	0.269
-342.377	94.879	0.158	0.179
-341.362	-200.000	0.082	-0.452
-340.348	-200.000	0.087	-0.389
-339.333	-54.105	0.494	0.224
-338.318	-1.689	-0.647	-0.454
-337.304	239.137	-0.162	0.269
-336.289	-17.376	0.350	-0.219
-335.275	800.000	0.159	0.507
-334.260	-200.000	0.147	0.716
-333.245	-137.389	0.677	0.076
-332.231	-200.000	0.058	-0.339
-331.216	-96.087	-0.427	0.113
-330.202	12.349	-0.177	-0.136
-329.187	-30.327	-0.312	-0.176
-328.172	-200.000	-0.018	-0.123
-327.158	6.634	0.468	0.347
-326.143	-10.045	0.396	0.262
-325.129	-91.679	-0.486	-0.138
-324.114	-200.000	0.008	0.326
-323.099	162.207	0.123	0.172
-322.085	36.359	0.509	-0.447
-321.070	184.404	0.783	-1.155
-320.056	800.000	0.014	-0.045
-319.041	-200.000	-0.009	-0.260
-318.026	800.000	0.302	-1.150
-317.012	-17.358	-0.453	-0.284
-315.997	-110.948	0.386	0.079
-314.983	-200.000	0.043	-1.100
-313.968	-33.456	0.475	0.261
-312.953	-45.084	1.081	-0.535
-311.939	152.427	-0.556	0.755
-310.924	374.008	0.293	0.594
-309.910	-200.000	0.145	0.636
-308.895	53.173	-0.659	-0.628
-307.880	-189.071	-0.907	-0.011
-306.866	-200.000	-0.010	0.226
-305.851	800.000	0.125	0.540
-304.837	91.755	-0.481	0.539
-303.822	-3.615	-0.427	-0.295
-302.807	-100.279	0.671	-0.166
-301.793	124.100	-0.234	-0.292
-300.778	800.000	-0.291	-0.911
-299.764	37.751	-0.387	0.342
-298.749	-81.217	0.252	0.083
-297.735	84.988	0.270	-0.294
-296.720	534.698	0.179	0.422
-295.705	-110.682	-0.323	-0.066
-294.691	552.210	0.318	0.761
-293.676	-200.000	0.050	-0.413
-292.662	-92.388	-0.578	0.162
-291.647	-107.916	0.540	0.117
-290.632	-200.000	0.057	0.440
-289.618	-200.000	0.007	-0.126
-288.603	574.048	-0.052	-0.127
-287.589	113.773	-0.664	-0.802
-286.574	800.000	0.226	0.624
-285.559	800.000	0.129	-0.497
-284.545	-200.000	-0.032	-0.750
-283.530	-45.722	0.764	-0.375
-282.516	439.434	-0.405	0.879
-281.501	30.734	-0.579	0.492
-280.486	-180.641	-0.354	-0.007
-279.472	-87.129	-0.490	0.148
-278.457	-18.703	-0.576	-0.357
-277.443	-2.324	-0.582	-0.406
-276.428	-16.605	-0.222	0.140
-275.413	-9.907	0.980	-0.648
-274.399	800.000	0.020	0.056
-273.384	64.621	0.328	-0.329
-272.370	-126.491	-0.780	0.115
-271.355	-200.000	0.011	0.059
-270.340	532.058	-0.242	0.569
-269.326	-200.000	0.029	-0.680
-268.311	24.686	0.430	-0.354
-267.297	475.065	0.398	0.892
-266.282	332.901	-0.065	0.126
-265.267	-134.200	-0.168	-0.021
-264.253	-15.731	0.290	0.184
-263.238	-200.000	-0.116	0.504
-262.224	-25.276	0.224	-0.132
-261.209	-16.780	-0.697	0.438
-260.195	21.142	-0.696	-0.561
-259.180	-43.356	-0.445	-0.223
-258.165	63.733	0.240	0.240
-257.151	-73.715	-0.469	-0.169
-256.136	-175.605	-0.373	0.010
-255.122	-200.000	-0.139	0.983
-254.107	158.844	0.376	0.518
-253.092	287.926	0.587	1.055
-252.078	498.331	-0.250	-0.573
-251.063	-69.409	-0.849	-0.323
-250.049	-130.875	0.395	0.053
-249.034	177.204	-0.271	0.392
-248.019	641.886	-0.296	-0.749
-247.005	-133.624	-0.818	-0.102
-245.990	-200.000	-0.006	-0.631
-244.976	-95.728	-0.200	0.053
-243.961	57.796	-0.061	-0.059
-242.946	66.462	0.352	-0.355
-241.932	499.042	0.212	0.485
-240.917	-16.962	-0.266	0.167
-239.903	-200.000	0.110	0.699
-238.888	-102.405	0.552	-0.131
-237.873	-7.992	0.618	0.414
-236.859	68.718	-0.494	0.503
-235.844	79.011	-0.570	0.606
-234.830	-124.625	0.406	-0.062
-233.815	88.623	-0.578	0.637
-232.800	304.505	-0.063	0.115
-231.786	461.041	0.159	0.352
-230.771	75.678	0.395	0.414
-229.757	800.000	0.134	0.382
-228.742	-200.000	-0.012	0.114
-227.727	148.573	-0.497	-0.666
-226.713	61.421	-0.220	0.217
-225.698	675.712	-0.100	0.257
-224.684	800.000	-0.211	-0.814
-223.669	52.675	-0.044	0.041
-222.655	-25.706	-0.243	-0.142
-221.640	140.581	-0.419	0.549
-220.625	-200.000	0.042	-0.278
-219.611	149.335	0.074	-0.099
-218.596	254.822	0.358	0.608
-217.582	-117.357	-0.220	0.040
-216.567	1.233	0.494	0.352
-215.552	800.000	0.164	-0.472
-214.538	84.658	0.173	-0.188
-213.523	15.195	-0.382	0.297
-212.509	-200.000	-0.045	-0.256
-211.494	382.558	-0.204	0.416
-210.479	800.000	0.232	0.687
-209.465	561.288	-0.083	-0.199
-208.450	-200.000	-0.002	-0.865
-207.436	-200.000	-0.106	1.099
-206.421	-98.743	0.711	0.179
-205.406	173.512	-0.136	-0.194
-204.392	275.169	-0.218	-0.382
-203.377	-2.620	0.620	-0.430
-202.363	-200.000	-0.029	-1.131
-201.348	577.150	0.167	0.404
-200.333	161.219	-0.709	0.982
-199.319	-113.110	-0.723	0.141
-198.304	130.656	-0.109	0.139
-197.290	53.807	0.538	-0.512
-196.275	-200.000	0.095	-0.607
-195.260	-48.041	0.744	0.356
-194.246	800.000	-0.069	0.196
-193.231	685.446	0.233	0.604
-192.217	509.104	-0.397	-0.913
-191.202	-112.464	-0.291	0.058
-190.187	476.560	-0.247	0.552
-189.173	-200.000	0.795	-0.004
-188.158	800.000	-0.151	-0.529
-187.144	133.503	0.398	-0.510
-186.129	178.360	0.143	-0.206
-185.114	-161.056	-0.496	0.026
-184.100	458.323	-0.248	-0.545
-183.085	173.458	0.309	-0.442
-182.071	-129.477	0.571	-0.078
-181.056	782.803	0.211	-0.572
-180.042	88.073	0.267	-0.293
-179.027	165.046	-0.201	-0.281
-178.012	-35.783	0.787	0.422
-176.998	18.654	-0.279	-0.221
-175.983	363.149	-0.476	0.948
-174.969	-200.000	0.108	-1.198
-173.954	-200.000	-0.023	0.563
-172.939	-18.726	-0.821	-0.507
-171.925	-200.000	-0.009	0.484
-170.910	-73.174	0.276	-0.100
-169.896	397.284	0.558	-1.154
-168.881	118.366	0.249	-0.303
-167.866	415.972	-0.294	-0.621
-166.852	240.622	0.227	0.375
-165.837	-168.222	0.428	-0.016
-164.823	-127.291	0.971	0.140
-163.808	-88.499	-0.458	-0.135
-162.793	304.586	-0.130	-0.240
-161.779	353.333	-0.101	0.198
-160.764	-98.075	0.267	0.068
-159.750	-57.841	-0.512	-0.222
-158.735	-60.303	-0.412	0.173
-157.720	-200.000	0.068	-0.370
-156.706	-69.839	-0.187	0.071
-155.691	-200.000	-0.021	-0.404
-154.677	-61.496	-0.402	0.167
-153.662	800.000	-0.202	-0.559
-152.647	174.362	-0.567	-0.811
-151.633	248.849	0.189	-0.316
-150.618	-107.765	0.413	-0.089
-149.604	83.508	0.529	-0.570
-148.589	433.322	0.183	0.392
-147.574	-200.000	0.003	0.502
-146.560	221.942	0.186	0.295
-145.545	-14.605	1.015	-0.645
-144.531	-61.802	0.792	-0.328
-143.516	71.640	-0.311	-0.320
-142.502	-135.414	0.242	0.029
-141.487	-57.458	0.905	0.393
-140.472	433.050	-0.280	-0.600
-139.458	-24.565	0.253	-0.149
-138.443	800.000	0.099	-0.354
-137.429	321.607	-0.132	0.249
-136.414	-200.000	0.072	0.487
-135.399	325.751	0.295	0.558
-134.385	-200.000	0.006	-0.283
-133.370	475.654	0.253	0.565
-132.356	415.769	-0.381	-0.803
-131.341	21.312	0.608	-0.489
-130.326	-132.210	0.877	-0.112
-129.312	-156.077	0.481	-0.030
-128.297	-44.171	-0.410	-0.204
-127.283	530.291	0.237	-0.553
-126.268	445.573	-0.264	-0.573
-125.253	-41.684	-0.740	0.376
-124.239	-135.817	0.548	0.064
-123.224	-147.656	0.530	-0.044
-122.210	-200.000	-0.107	-0.798
-121.195	-200.000	-0.003	0.746
-120.180	25.345	-0.255	0.210
-119.166	-91.580	-0.445	0.125
-118.151	-37.356	-0.462	0.244
-117.137	-123.874	-0.725	0.113
-116.122	-200.000	-0.132	-0.690
-115.107	-200.000	-0.015	-0.922
-114.093	-200.000	-0.018	0.586
-113.078	-200.000	0.001	0.401
-112.064	-107.503	-0.545	-0.118
-111.049	-17.232	-0.228	0.142
-110.034	-172.283	0.179	-0.006
-109.020	418.920	0.274	-0.578
-108.005	268.292	0.390	-0.675
-106.991	-82.453	-0.337	-0.108
-105.976	-200.000	-0.017	-0.481
-104.962	800.000	-0.263	0.903
-103.947	800.000	-0.059	0.193
-102.932	-200.000	0.038	-0.195
-101.918	-1.098	-0.433	0.302
-100.903	547.603	-0.214	-0.506
-99.889	-90.311	0.704	0.202
-98.874	53.036	-0.596	0.563
-97.859	-38.899	-0.320	0.166
-96.845	-23.406	-0.268	0.159
-95.830	417.768	-0.216	-0.455
-94.816	101.329	0.232	0.266
-93.801	65.543	0.370	0.369
-92.786	-200.000	-0.018	-1.428
-91.772	151.873	-0.273	0.368
-90.757	-200.000	-0.021	0.168
-89.743	-98.402	-0.298	-0.075
-88.728	-168.720	0.418	-0.016
-87.713	800.000	-0.176	-0.514
-86.699	19.699	0.440	-0.350
-85.684	135.714	0.499	0.640
-84.670	-10.558	0.343	0.224
-83.655	499.967	-0.297	0.676
-82.640	185.796	-0.221	-0.324
-81.626	691.911	0.378	0.978
-80.611	-56.735	0.349	0.152
-79.597	93.278	-0.297	-0.331
-78.582	67.330	0.573	0.576
-77.567	756.298	0.168	0.448
-76.553	-7.327	-0.244	-0.163
-75.538	754.020	-0.317	-0.844
-74.524	-43.532	-0.457	-0.228
-73.509	-89.981	0.728	0.209
-72.494	-200.000	-0.033	0.396
-71.480	800.000	-0.270	0.758
-70.465	-7.814	-0.393	-0.262
-69.451	-121.511	-0.939	-0.154
-68.436	338.562	-0.158	-0.303
-67.422	121.933	0.546	0.672
-66.407	119.370	-0.286	0.348
-65.392	-8.987	-0.746	-0.493
-64.378	36.264	0.688	-0.598
-63.363	-59.666	0.717	-0.303
-62.349	-12.855	0.592	0.380
-61.334	46.322	-1.210	-1.106
-60.319	-64.445	0.325	-0.130
-59.305	329.279	-0.721	-1.366
-58.290	800.000	0.650	2.080
-57.276	475.659	0.963	2.143
-56.261	-200.000	96.025	572.754
-55.246	642.155	1369.684	3438.683
-54.232	200.083	2537.188	3838.523
-53.217	118.590	2129.300	2589.983
-52.203	44.923	1597.482	1449.002
-51.188	36.839	1338.382	1165.537
-50.173	33.734	1296.428	1110.819
-49.159	57.147	1345.017	1292.359
-48.144	58.036	1361.959	1313.876
-47.130	37.199	1319.012	1150.620
-46.115	33.650	1302.265	1115.152
-45.100	33.233	1298.602	1109.526
-44.086	33.211	1296.203	1107.303
-43.071	33.322	1293.233	1105.366
-42.057	33.014	1291.883	1102.372
-41.042	33.326	1289.586	1102.189
-40.027	33.087	1288.557	1099.873
-39.013	33.296	1286.570	1099.349
-37.998	33.273	1284.580	1097.472
-36.984	33.318	1282.006	1095.485
-35.969	33.177	1281.314	1094.038
-34.954	33.302	1280.793	1094.273
-33.940	33.261	1277.237	1090.952
-32.925	33.178	1276.791	1090.054
-31.911	33.554	1274.509	1090.226
-30.896	33.473	1273.568	1088.907
-29.881	33.477	1271.945	1087.500
-28.867	33.634	1270.681	1087.280
-27.852	33.731	1268.999	1086.348
-26.838	33.557	1267.635	1084.142
-25.823	33.475	1265.710	1081.987
-24.809	33.636	1264.765	1082.056
-23.794	33.446	1264.588	1080.776
-22.779	33.251	1263.724	1078.883
-21.765	33.365	1260.991	1077.158
-20.750	33.091	1260.681	1075.290
-19.736	33.371	1259.626	1075.936
-18.721	33.388	1258.257	1074.824
-17.706	33.061	1257.236	1072.051
-16.692	33.284	1255.999	1072.221
-15.677	33.127	1255.631	1070.975
-14.663	33.156	1253.763	1069.503
-13.648	33.581	1251.199	1069.669
-12.633	33.201	1251.182	1067.471
-11.619	33.118	1251.383	1067.127
-10.604	33.091	1250.634	1066.298
-9.590	33.246	1248.813	1065.574
-8.575	33.061	1248.336	1064.084
-7.560	33.137	1247.654	1063.887
-6.546	33.489	1246.622	1064.945
-5.531	33.041	1246.402	1062.196
-4.517	33.312	1245.081	1062.549
-3.502	33.092	1244.694	1060.946
-2.487	33.081	1243.505	1059.826
-1.473	33.123	1239.112	1056.274
-0.458	31.888	1223.267	1035.910
0.556	28.865	1206.056	996.741
1.571	24.512	1212.087	977.857
2.586	24.044	1226.737	986.992
3.600	23.374	1215.924	974.525
4.615	17.187	1144.794	885.294
5.629	7.302	1068.766	778.111
6.644	3.243	1047.623	743.088
7.659	3.076	1044.923	740.304
8.673	2.659	1043.298	737.083
9.688	2.546	1042.427	735.859
10.702	3.088	1040.769	737.225
11.717	8.949	1049.285	771.450
12.731	18.561	1063.978	828.861
13.746	24.206	1069.599	860.511
14.761	25.114	1070.926	865.890
15.775	25.336	1069.936	866.083
16.790	24.961	1069.807	864.096
17.804	24.820	1069.123	862.784
18.819	24.906	1069.075	863.086
19.834	25.252	1068.573	864.270
20.848	25.310	1067.917	863.941
21.863	25.293	1067.149	863.160
22.877	25.056	1066.207	861.184
23.892	25.225	1065.351	861.228
24.907	25.078	1065.102	860.247
25.921	24.974	1063.972	858.761
26.936	24.962	1062.446	857.394
27.950	24.678	1061.971	855.574
28.965	24.829	1060.136	854.742
29.980	24.887	1058.970	854.004
30.994	25.315	1057.343	854.654
32.009	25.366	1055.479	853.314
33.023	24.974	1055.031	851.015
34.038	25.038	1055.230	851.405
35.053	25.211	1053.326	850.614
36.067	25.111	1052.669	849.532
37.082	25.190	1052.663	849.825
38.096	25.683	1050.357	850.220
39.111	25.524	1051.097	849.992
40.126	25.052	1049.663	846.526
41.140	24.947	1047.030	843.834
42.155	24.936	1046.554	843.324
43.169	24.748	1045.780	841.743
44.184	24.712	1045.380	841.174
45.199	24.621	1044.035	839.593
46.213	24.906	1043.699	840.585
47.228	25.355	1041.982	841.231
48.242	25.109	1042.255	840.226
49.257	25.354	1040.661	840.012
50.271	25.435	1039.530	839.404
51.286	25.340	1039.238	838.649
52.301	25.416	1038.542	838.371
53.315	24.996	1038.393	836.216
54.330	25.091	1036.960	835.427
55.344	25.092	1036.213	834.758
56.359	25.286	1035.548	835.051
57.374	24.928	1034.973	832.850
58.388	25.054	1034.211	832.747
59.403	24.874	1033.063	830.914
60.417	25.054	1031.135	830.123
61.432	24.670	1032.090	829.039
62.447	24.952	1030.800	829.234
63.461	25.116	1030.201	829.438
64.476	25.024	1029.587	828.445
65.490	24.606	1029.072	826.027
66.505	24.733	1028.441	826.034
67.520	25.056	1027.351	826.573
68.534	24.792	1026.748	824.798
69.549	24.435	1025.353	821.962
70.563	24.363	1024.858	821.163
71.578	23.972	1024.700	819.161
72.593	24.620	1021.350	819.384
73.607	24.646	1021.465	819.524
74.622	24.570	1022.182	819.677
75.636	24.787	1021.246	819.846
76.651	24.660	1020.639	818.707
77.666	24.712	1019.158	817.681
78.680	24.907	1018.540	818.007
79.695	24.557	1019.289	816.937
80.709	24.803	1017.906	816.876
81.724	24.789	1017.260	816.221
82.739	24.835	1016.368	815.643
83.753	25.224	1015.913	816.980
84.768	25.575	1015.823	818.433
85.782	25.700	1014.711	818.031
86.797	25.850	1012.471	816.835
87.812	25.507	1011.818	814.679
88.826	25.281	1011.632	813.435
89.841	25.482	1010.220	813.139
90.855	25.609	1009.467	813.033
91.870	25.301	1008.974	811.171
92.884	25.196	1007.990	809.836
93.899	25.605	1008.003	811.620
94.914	25.854	1005.697	810.812
95.928	25.426	1005.233	808.442
96.943	25.119	1003.781	805.821
97.957	25.105	1003.686	805.613
98.972	24.929	1002.503	803.799
99.987	25.430	1001.652	805.294
101.001	25.162	1001.738	804.092
102.016	25.538	1000.257	804.515
103.030	25.151	999.560	802.150
104.045	24.956	998.795	800.594
105.060	25.128	997.724	800.433
106.074	25.326	996.090	799.933
107.089	25.411	996.564	800.623
108.103	25.031	995.608	798.092
109.118	24.954	993.775	796.210
110.133	25.208	993.095	796.722
111.147	25.027	991.261	794.379
112.162	24.934	991.039	793.719
113.176	24.948	990.226	793.057
114.191	24.806	988.995	791.372
115.206	24.862	987.629	790.459
116.220	24.842	988.054	790.642
117.235	24.846	987.023	789.761
118.249	24.728	985.957	788.319
119.264	24.544	985.644	787.188
120.279	24.625	984.679	786.705
121.293	24.752	984.309	786.897
122.308	24.623	983.632	785.719
123.322	24.943	981.174	785.092
124.337	24.462	981.272	782.991
125.352	24.284	979.360	780.618
126.366	24.066	979.528	779.724
127.381	24.657	979.334	782.090
128.395	25.638	976.833	784.301
129.410	25.298	976.983	782.872
130.424	25.089	976.583	781.572
131.439	25.246	975.100	780.996
132.454	25.338	974.215	780.617
133.468	24.985	973.722	778.621
134.483	25.361	972.770	779.423
135.497	25.708	971.975	780.222
136.512	25.362	971.704	778.436
137.527	25.590	970.115	778.078
138.541	25.595	969.399	777.459
139.556	25.549	968.151	776.189
140.570	25.749	968.640	777.378
141.585	25.861	966.772	776.292
142.600	25.318	966.435	773.613
143.614	25.832	966.015	775.423
144.629	25.807	965.630	774.935
145.643	25.697	963.039	772.319
146.658	25.574	961.635	770.595
147.673	25.643	959.941	769.465
148.687	24.992	960.258	766.864
149.702	25.092	960.140	767.133
150.716	24.955	958.936	765.518
151.731	25.567	957.264	766.725
152.746	25.368	957.448	765.953
153.760	25.759	956.997	767.191
154.775	25.653	956.157	766.001
155.789	25.528	954.964	764.445
156.804	25.920	953.353	764.754
157.819	25.935	953.336	764.733
158.833	25.917	953.015	764.333
159.848	25.806	952.895	763.696
160.862	25.886	950.653	762.170
161.877	25.779	949.309	760.576
162.892	25.660	948.465	759.329
163.906	25.627	947.820	758.608
164.921	25.545	947.401	757.857
165.935	25.666	945.720	756.956
166.950	25.642	945.476	756.594
167.964	25.792	944.469	756.351
168.979	25.664	943.550	755.012
169.994	25.376	942.754	753.099
171.008	25.958	941.655	754.593
172.023	25.981	940.778	753.919
173.037	26.055	939.791	753.368
174.052	25.672	939.024	751.088
175.067	25.672	938.632	750.709
176.081	25.628	938.455	750.319
177.096	25.844	937.210	750.157
178.110	25.438	936.540	747.864
179.125	25.202	935.481	745.969
180.140	25.312	935.537	746.405
181.154	25.385	935.689	746.766
182.169	25.869	933.944	747.315
183.183	26.041	933.777	747.827
184.198	25.918	933.495	747.026
185.213	25.613	933.150	745.421
186.227	26.110	931.707	746.258
187.242	26.099	931.159	745.705
188.256	25.767	932.029	744.963
189.271	26.128	930.091	744.838
190.286	25.648	929.219	742.097
191.300	24.640	928.356	737.186
192.315	24.538	926.539	735.259
193.329	24.424	925.620	733.994
194.344	25.402	926.258	738.459
195.359	25.802	926.550	740.270
196.373	25.663	926.072	739.250
197.388	25.621	925.982	738.940
198.402	25.736	926.014	739.373
199.417	25.929	924.601	738.970
200.432	26.029	922.911	737.966
201.446	25.909	922.129	736.785
202.461	25.811	922.052	736.256
203.475	24.864	920.786	731.314
204.490	24.373	918.861	727.716
205.504	25.003	919.807	730.972
206.519	25.541	919.848	733.137
207.534	25.535	918.724	732.150
208.548	25.685	918.828	732.778
209.563	25.558	917.578	731.202
210.577	25.819	916.606	731.424
211.592	25.956	916.907	732.156
212.607	26.105	915.554	731.612
213.621	26.087	915.790	731.664
214.636	25.974	914.220	729.889
215.650	26.011	913.287	729.228
216.665	25.972	913.604	729.259
217.680	26.073	911.985	728.309
218.694	26.039	910.424	726.860
219.709	25.425	910.572	724.441
220.723	25.889	910.000	725.790
221.738	26.126	909.554	726.324
222.753	25.541	909.270	723.678
223.767	25.858	908.539	724.307
224.782	26.136	908.302	725.170
225.796	26.597	907.397	726.235
226.811	25.785	906.241	721.989
227.826	25.108	904.885	718.137
228.840	25.466	904.192	718.953
229.855	25.763	903.844	719.802
230.869	25.146	903.529	717.022
231.884	25.686	903.064	718.748
232.899	25.637	903.932	719.176
233.913	25.570	902.444	717.662
234.928	25.607	902.823	718.049
235.942	25.932	901.015	717.839
236.957	25.695	899.896	715.942
237.972	25.527	899.799	715.133
238.986	25.370	900.218	714.780
240.001	25.666	898.769	714.743
241.015	25.484	899.012	714.147
242.030	26.094	897.143	715.020
243.045	26.297	896.882	715.550
244.059	26.199	896.422	714.733
245.074	25.916	895.693	712.970
246.088	25.699	894.897	711.417
247.103	26.167	894.867	713.176
248.117	26.365	895.645	714.515
249.132	26.805	894.141	714.989
250.147	27.045	893.792	715.593
251.161	27.002	893.352	715.008
252.176	26.848	893.272	714.274
253.190	26.898	892.849	714.070
254.205	26.955	892.204	713.716
255.220	26.814	891.694	712.690
256.234	27.057	890.297	712.465
257.249	26.626	889.563	710.124
258.263	26.327	889.823	709.094
259.278	26.708	888.316	709.322
260.293	26.476	888.353	708.380
261.307	26.755	887.510	708.738
262.322	26.899	885.761	707.839
263.336	26.088	885.978	704.786
264.351	25.273	883.752	699.777
265.366	25.266	883.746	699.682
266.380	26.076	884.052	703.021
267.395	26.568	883.168	704.168
268.409	26.555	881.866	703.017
269.424	26.570	882.743	703.712
270.439	26.490	882.076	702.810
271.453	26.640	881.065	702.520
272.468	26.606	881.403	702.599
273.482	26.560	879.850	701.120
274.497	26.503	878.941	700.113
275.512	26.291	878.516	698.890
276.526	26.738	877.421	699.686
277.541	26.650	877.868	699.639
278.555	26.686	876.763	698.837
279.570	26.514	876.595	697.979
280.585	26.584	876.100	697.789
281.599	26.415	875.646	696.719
282.614	25.995	873.904	693.656
283.628	25.954	873.683	693.260
284.643	26.428	872.725	694.256
285.657	26.193	871.570	692.376
286.672	26.093	870.405	691.008
287.687	26.406	871.395	692.930
288.701	26.216	871.358	692.114
289.716	26.102	869.059	689.791
290.730	26.363	868.456	690.249
291.745	25.961	867.724	688.071
292.760	25.776	869.303	688.556
293.774	26.878	868.946	692.419
294.789	27.405	868.007	693.620
295.803	27.104	867.692	692.157
296.818	27.289	866.844	692.124
297.833	26.792	865.642	689.214
298.847	26.850	865.086	688.934
299.862	26.891	864.761	688.769
300.876	27.466	863.707	690.049
301.891	27.387	863.324	689.380
302.906	26.530	862.535	685.446
303.920	27.311	861.969	687.889
304.935	27.460	861.870	688.312
305.949	27.290	860.754	686.718
306.964	27.039	860.668	685.643
307.979	26.846	860.982	685.104
308.993	27.357	860.948	686.944
310.008	27.382	859.258	685.631
311.022	27.016	859.069	684.038
312.037	26.653	858.369	682.057
313.052	26.818	857.775	682.143
314.066	25.749	856.015	676.667
315.081	25.667	855.551	675.933
316.095	26.438	855.859	679.012
317.110	27.063	854.555	680.259
318.125	26.287	853.945	676.809
319.139	25.118	853.187	671.770
320.154	25.155	852.140	671.023
321.168	26.132	852.648	675.023
322.183	26.697	852.930	677.298
323.197	26.784	852.698	677.380
324.212	26.816	851.775	676.707
325.227	26.514	851.891	675.611
326.241	26.649	850.780	675.172
327.256	26.685	849.355	674.114
328.270	26.832	849.238	674.508
329.285	26.487	848.637	672.689
330.300	26.119	847.149	670.084
331.314	26.573	847.435	671.939
332.329	27.099	847.243	673.676
333.343	27.409	846.305	674.019
334.358	27.160	846.234	672.980
335.373	27.030	846.617	672.746
336.387	27.280	846.070	673.175
337.402	27.500	845.853	673.758
338.416	27.207	845.785	672.561
339.431	27.350	845.542	672.836
340.446	27.694	845.062	673.664
341.460	27.362	844.281	671.757
342.475	27.588	843.432	671.857
343.489	27.675	842.869	671.670
344.504	27.918	842.710	672.377
345.519	28.071	841.532	671.940
346.533	27.688	842.093	670.922
347.548	27.675	841.454	670.305
348.562	27.577	841.474	669.900
349.577	27.347	841.374	668.916
350.592	27.483	839.933	668.210
351.606	27.420	839.767	667.789
352.621	27.192	839.426	666.622
353.635	27.472	837.045	665.696
354.650	27.161	835.831	663.537
355.665	26.447	834.731	659.998
356.679	26.646	834.974	660.860
357.694	26.900	834.821	661.606
358.708	26.901	834.146	661.017
359.723	26.742	833.343	659.744
360.738	27.280	832.903	661.294
361.752	27.217	832.453	660.649
362.767	27.774	831.483	661.841
363.781	27.913	831.447	662.259
364.796	27.902	831.162	661.934
365.810	28.335	830.227	662.698
366.825	27.686	830.223	660.286
367.840	27.820	829.891	660.449
368.854	27.454	828.661	658.087
369.869	27.486	828.518	658.033
370.883	27.682	828.452	658.630
371.898	27.760	827.267	657.909
372.913	27.789	828.115	658.631
373.927	27.676	826.238	656.672
374.942	27.802	826.338	657.148
375.956	27.460	825.802	655.434
376.971	27.743	825.897	656.469
377.986	27.719	825.048	655.649
379.000	27.807	824.215	655.247
380.015	28.019	823.132	655.087
381.029	27.526	824.464	654.317
382.044	28.113	823.252	655.402
383.059	28.075	823.402	655.329
384.073	27.527	822.672	652.726
385.088	27.670	821.893	652.562
386.102	27.247	821.305	650.525
387.117	27.249	820.629	649.940
388.132	27.329	818.699	648.637
389.146	27.084	818.501	647.549
390.161	27.522	817.902	648.578
391.175	27.856	817.957	649.756
392.190	27.758	817.176	648.729
393.205	26.414	814.756	641.984
394.219	24.844	813.794	635.595
395.234	24.935	813.395	635.551
396.248	26.390	814.134	641.239
397.263	27.000	815.114	644.115
398.278	27.083	814.590	643.939
399.292	26.915	814.059	642.866
400.307	26.770	813.207	641.624
401.321	27.124	812.380	642.165
402.336	27.270	811.953	642.287
403.350	27.924	812.212	644.747
404.365	27.646	812.574	643.994
405.380	28.224	812.395	645.835
406.394	28.240	811.092	644.797
407.409	28.292	810.892	644.767
408.423	27.758	811.689	643.460
409.438	28.092	809.884	643.148
410.453	28.071	809.591	642.783
411.467	27.847	809.014	641.483
412.482	28.269	807.720	641.879
413.496	28.047	808.222	641.442
414.511	27.890	808.269	640.872
415.526	27.950	807.868	640.707
416.540	27.925	806.461	639.449
417.555	27.831	806.254	638.899
418.569	28.065	805.842	639.332
419.584	27.998	806.116	639.259
420.599	27.917	804.065	637.294
421.613	159.128	1371.320	1792.340
422.628	138.208	1453.979	1792.451
