DTS Sentinel unit serial number:	SN413079Multiplexer serial number:	ORYXHardware model number:	OX4-SRSoftware version number:	ORYX F/W v4.00 Oryx Data Collector v3.7.2.0data status	okinstallation	princeton_trtdifferential loss correction	single-endedforward channel	channel 1reverse channel	N/Adate	2019/09/13time	03:02:35forward acquisition time	60.00reverse acquisition time	0.00gamma	496.2192k internal	0.2331k external	0.2331temperature offset calibration	1.0160default loss term (dB/km)	0.3790temperature slope calibration	1.0000multiplexer offset coefficient	1.0000multiplexer slope coefficient	1.0000fibre end	0.00T internal ref (°C)	27.42T ext. ref 1 (°C)	4.05T ext. ref 2 (°C)	22.17length (m)	temperature (°C)	Stokes	anti-Stokes-747.200	-143.423	0.312	-0.030
-746.185	81.943	-0.270	0.294
-745.171	-200.000	0.103	0.547
-744.156	-75.152	-0.145	-0.052
-743.142	123.177	-0.207	0.260
-742.127	86.653	0.058	0.065
-741.112	-200.000	-0.004	0.167
-740.098	-200.000	-0.042	0.347
-739.083	-71.872	0.138	-0.052
-738.069	473.956	-0.140	0.319
-737.054	-51.488	0.170	0.080
-736.039	-70.662	-0.100	0.038
-735.025	800.000	-0.016	-0.047
-734.010	100.270	-0.086	-0.100
-732.996	-35.529	0.199	-0.109
-731.981	135.766	-0.103	-0.135
-730.966	-138.248	-0.366	0.041
-729.952	-200.000	0.008	-0.130
-728.937	-200.000	0.003	-0.125
-727.923	121.701	-0.203	-0.254
-726.908	-103.715	-0.380	-0.089
-725.894	-65.091	-0.396	-0.161
-724.879	99.269	0.059	0.069
-723.864	274.501	-0.026	0.046
-722.850	-141.356	-0.212	-0.022
-721.835	-1.282	0.016	-0.012
-720.821	-200.000	-0.054	-0.270
-719.806	597.012	-0.171	-0.427
-718.791	-121.161	0.219	0.037
-717.777	-76.003	-0.237	0.084
-716.762	89.139	0.187	-0.209
-715.748	-27.186	0.070	-0.041
-714.733	606.139	0.039	-0.099
-713.718	-200.000	0.023	-0.189
-712.704	800.000	-0.092	-0.304
-711.689	9.932	-0.139	-0.106
-710.675	-200.000	0.014	-0.286
-709.660	-55.751	0.250	0.112
-708.645	134.267	0.214	0.278
-707.631	90.988	-0.219	0.247
-706.616	541.137	-0.051	0.122
-705.602	-200.000	-0.003	-0.138
-704.587	73.924	-0.117	0.124
-703.572	-101.508	-0.485	0.119
-702.558	68.027	0.134	-0.138
-701.543	105.400	-0.205	0.243
-700.529	756.377	-0.087	-0.236
-699.514	-57.831	-0.168	0.074
-698.499	46.604	-0.170	0.159
-697.485	-66.606	-0.350	0.139
-696.470	-200.000	0.045	-0.202
-695.456	-116.862	-0.105	0.019
-694.441	-111.478	0.199	0.041
-693.426	5.423	0.284	-0.210
-692.412	132.144	-0.039	-0.051
-691.397	-200.000	-0.118	0.701
-690.383	-98.776	0.335	-0.086
-689.368	16.202	0.210	0.166
-688.354	74.428	0.114	-0.120
-687.339	61.262	-0.280	-0.279
-686.324	-200.000	0.106	-0.514
-685.310	-109.793	-0.144	0.030
-684.295	-67.739	0.340	-0.134
-683.281	42.461	0.153	-0.140
-682.266	-40.544	-0.315	0.164
-681.251	-200.000	0.027	-0.152
-680.237	-85.942	-0.070	0.022
-679.222	-73.711	-0.085	0.031
-678.208	800.000	-0.044	0.153
-677.193	-37.505	0.374	0.200
-676.178	133.297	0.112	0.145
-675.164	601.665	-0.032	-0.079
-674.149	-2.072	0.161	0.113
-673.135	-200.000	-0.051	-0.280
-672.120	312.737	-0.170	0.320
-671.105	-151.872	0.139	-0.010
-670.091	800.000	0.043	0.175
-669.076	-134.568	-0.246	0.030
-668.062	-200.000	0.040	0.393
-667.047	-2.603	0.059	-0.041
-666.032	99.315	0.126	-0.146
-665.018	-101.458	0.280	0.068
-664.003	-106.187	0.023	0.005
-662.989	182.116	-0.158	-0.234
-661.974	-103.908	-0.135	-0.032
-660.959	-95.808	-0.218	-0.058
-659.945	-87.674	0.308	0.093
-658.930	-115.082	0.287	0.055
-657.916	-200.000	0.023	-0.132
-656.901	800.000	0.132	0.369
-655.886	-200.000	-0.021	0.212
-654.872	-117.804	0.213	-0.038
-653.857	133.382	0.178	0.230
-652.843	-200.000	0.005	0.277
-651.828	-72.834	0.211	-0.078
-650.814	351.989	0.036	0.072
-649.799	153.238	-0.031	0.042
-648.784	515.191	-0.066	0.155
-647.770	-53.103	-0.239	0.110
-646.755	800.000	0.073	-0.217
-645.741	148.857	-0.135	0.183
-644.726	-111.799	-0.119	0.024
-643.711	97.403	-0.208	-0.239
-642.697	-200.000	-0.002	-0.148
-641.682	26.789	-0.119	-0.100
-640.668	107.946	-0.191	-0.228
-639.653	81.687	0.297	-0.322
-638.638	-200.000	0.001	-0.341
-637.624	212.151	-0.102	-0.161
-636.609	73.207	-0.154	-0.161
-635.595	-135.964	0.445	0.052
-634.580	800.000	0.063	-0.184
-633.565	-159.642	-0.175	-0.010
-632.551	-83.252	-0.142	0.046
-631.536	762.518	-0.130	-0.352
-630.522	-61.957	-0.232	-0.097
-629.507	-26.342	0.155	0.091
-628.492	800.000	0.019	0.064
-627.478	-26.067	-0.177	-0.104
-626.463	-158.733	-0.230	0.013
-625.449	19.757	0.377	-0.304
-624.434	95.944	-0.089	0.102
-623.419	-85.426	-0.300	-0.094
-622.405	-77.804	-0.329	-0.114
-621.390	225.377	0.036	0.058
-620.376	-115.254	-0.201	-0.038
-619.361	-200.000	-0.061	0.423
-618.346	-66.960	0.214	0.085
-617.332	366.883	0.139	0.281
-616.317	-200.000	-0.011	-0.098
-615.303	597.583	-0.022	0.056
-614.288	231.994	-0.373	-0.613
-613.273	672.045	-0.178	-0.462
-612.259	18.799	0.102	0.081
-611.244	-200.000	0.028	0.131
-610.230	-140.125	-0.284	0.030
-609.215	24.078	-0.196	-0.162
-608.201	-200.000	-0.007	-0.171
-607.186	-27.715	0.186	0.108
-606.171	-120.398	-0.356	0.061
-605.157	604.128	0.026	0.064
-604.142	800.000	0.099	0.410
-603.128	-200.000	0.004	0.079
-602.113	-133.693	-0.385	0.048
-601.098	800.000	-0.071	0.274
-600.084	-2.936	0.342	-0.239
-599.069	-25.636	0.091	-0.054
-598.055	-184.067	0.276	0.005
-597.040	-110.263	-0.373	-0.078
-596.025	-123.827	-0.373	0.059
-595.011	800.000	-0.064	-0.222
-593.996	-193.874	0.051	-0.000
-592.982	-104.172	-0.207	-0.048
-591.967	-141.556	-0.182	-0.018
-590.952	-123.881	0.155	0.024
-589.938	-200.000	-0.009	0.088
-588.923	-143.153	0.155	-0.015
-587.909	-117.783	-0.245	0.044
-586.894	800.000	0.029	0.109
-585.879	-61.810	-0.156	0.065
-584.865	-154.223	0.568	0.038
-583.850	-200.000	0.014	0.084
-582.836	-34.532	0.209	0.114
-581.821	-112.948	-0.419	0.083
-580.806	98.803	-0.080	-0.093
-579.792	257.588	0.121	-0.208
-578.777	45.838	-0.109	-0.101
-577.763	800.000	0.026	0.074
-576.748	2.167	-0.345	0.249
-575.733	-200.000	0.034	0.267
-574.719	800.000	0.072	0.276
-573.704	40.920	-0.183	-0.165
-572.690	-53.758	-0.020	0.009
-571.675	44.090	0.303	0.278
-570.661	286.236	0.108	-0.195
-569.646	-149.164	-0.132	0.011
-568.631	-172.275	-0.095	0.003
-567.617	-200.000	0.014	-0.204
-566.602	-96.280	-0.347	0.092
-565.588	-100.081	-0.069	0.017
-564.573	800.000	-0.057	0.193
-563.558	-200.000	0.001	-0.118
-562.544	-40.025	-0.255	0.133
-561.529	-200.000	0.004	0.200
-560.515	-62.086	0.226	0.094
-559.500	-51.280	-0.351	0.164
-558.485	554.241	0.151	-0.363
-557.471	-200.000	0.040	-0.182
-556.456	-112.163	0.344	-0.069
-555.442	-121.862	0.330	0.054
-554.427	-38.401	0.132	-0.070
-553.412	27.850	-0.018	0.015
-552.398	-114.728	0.182	-0.035
-551.383	78.702	0.083	-0.089
-550.369	-76.039	0.211	0.074
-549.354	-61.599	-0.217	0.091
-548.339	88.884	0.290	0.323
-547.325	-200.000	-0.028	0.167
-546.310	-200.000	0.027	-0.159
-545.296	-200.000	-0.010	0.234
-544.281	79.991	-0.177	-0.190
-543.266	-39.460	0.223	-0.117
-542.252	-75.996	0.410	0.145
-541.237	-67.014	-0.203	-0.080
-540.223	800.000	-0.046	0.179
-539.208	62.260	0.105	0.105
-538.193	252.478	-0.114	-0.194
-537.179	-200.000	0.036	0.294
-536.164	-200.000	0.023	0.177
-535.150	-200.000	-0.037	0.423
-534.135	70.848	0.321	0.331
-533.121	-127.894	-0.030	-0.004
-532.106	728.726	0.086	-0.229
-531.091	800.000	-0.051	0.148
-530.077	-200.000	0.084	0.387
-529.062	-10.011	0.025	-0.017
-528.048	-116.285	-0.092	-0.017
-527.033	-137.806	0.100	0.011
-526.018	-200.000	-0.001	0.047
-525.004	-109.539	-0.191	-0.040
-523.989	499.244	0.013	0.029
-522.975	-3.749	0.109	0.076
-521.960	189.137	-0.039	-0.058
-520.945	84.146	-0.174	-0.190
-519.931	-59.030	0.184	0.079
-518.916	-21.413	-0.161	-0.098
-517.902	630.286	0.116	-0.292
-516.887	-62.053	-0.048	-0.020
-515.872	-200.000	-0.117	-0.539
-514.858	452.508	-0.067	-0.147
-513.843	263.717	0.160	0.278
-512.829	136.706	-0.094	-0.123
-511.814	314.096	-0.086	-0.162
-510.799	-200.000	-0.023	-0.109
-509.785	-20.888	-0.126	0.077
-508.770	-116.348	-0.354	0.065
-507.756	-200.000	0.052	0.337
-506.741	580.110	-0.048	0.117
-505.726	-153.836	0.134	0.009
-504.712	-92.919	0.345	0.096
-503.697	-57.637	-0.239	-0.104
-502.683	86.909	-0.161	-0.178
-501.668	126.577	0.041	-0.052
-500.653	-200.000	-0.016	-0.156
-499.639	4.377	-0.041	-0.030
-498.624	92.432	-0.106	-0.119
-497.610	60.930	-0.072	0.071
-496.595	-200.000	0.002	-0.162
-495.581	118.682	0.059	-0.072
-494.566	800.000	-0.081	0.322
-493.551	114.552	-0.163	-0.197
-492.537	-18.398	0.119	0.074
-491.522	-200.000	0.070	-0.339
-490.508	90.510	-0.294	-0.328
-489.493	28.170	-0.168	0.141
-488.478	-93.605	-0.043	-0.012
-487.464	-33.583	-0.178	0.098
-486.449	-163.603	-0.120	-0.006
-485.435	350.886	-0.155	-0.305
-484.420	-35.062	-0.298	0.162
-483.405	-10.999	0.121	0.079
-482.391	-32.239	-0.014	-0.008
-481.376	-200.000	-0.029	0.129
-480.362	-88.371	-0.325	-0.097
-479.347	-200.000	-0.050	-0.341
-478.332	666.801	0.127	0.327
-477.318	-146.689	-0.233	0.020
-476.303	-20.064	0.243	-0.149
-475.289	30.134	-0.124	0.105
-474.274	279.617	0.035	0.062
-473.259	58.313	0.098	-0.096
-472.245	-71.137	0.150	0.056
-471.230	68.382	-0.136	0.139
-470.216	-200.000	0.016	-0.158
-469.201	-200.000	-0.013	0.093
-468.186	-112.628	-0.297	-0.059
-467.172	800.000	0.051	0.161
-466.157	-145.973	-0.128	-0.011
-465.143	242.360	-0.157	0.261
-464.128	800.000	0.084	-0.309
-463.113	-60.125	-0.547	0.232
-462.099	-55.127	-0.134	0.060
-461.084	800.000	0.035	0.119
-460.070	-200.000	-0.028	-0.154
-459.055	-41.637	0.211	0.108
-458.040	800.000	0.044	-0.156
-457.026	471.419	0.159	-0.355
-456.011	-200.000	-0.002	-0.103
-454.997	800.000	-0.046	-0.189
-453.982	118.785	0.057	0.070
-452.968	-121.170	0.262	0.044
-451.953	-200.000	-0.004	0.179
-450.938	800.000	-0.045	-0.177
-449.924	-49.421	0.103	0.049
-448.909	112.490	0.102	-0.122
-447.895	-122.577	0.163	0.026
-446.880	800.000	0.021	-0.065
-445.865	-200.000	-0.023	0.177
-444.851	264.502	-0.230	0.398
-443.836	800.000	-0.053	0.177
-442.822	-75.565	-0.281	-0.099
-441.807	-200.000	-0.008	0.364
-440.792	758.662	0.098	-0.265
-439.778	78.711	0.134	-0.142
-438.763	-67.600	-0.109	-0.043
-437.749	49.243	0.018	-0.017
-436.734	-96.497	-0.208	0.055
-435.719	-94.298	0.129	-0.035
-434.705	-69.565	0.334	-0.127
-433.690	31.868	0.043	-0.037
-432.676	-125.513	0.159	-0.024
-431.661	800.000	0.066	-0.191
-430.646	590.816	-0.108	-0.264
-429.632	32.231	-0.245	-0.210
-428.617	177.531	-0.089	-0.129
-427.603	-79.897	-0.065	0.022
-426.588	51.604	0.096	0.090
-425.573	-90.020	-0.260	-0.075
-424.559	-200.000	0.011	0.069
-423.544	679.974	-0.045	-0.115
-422.530	-200.000	-0.054	-0.255
-421.515	-24.814	0.097	0.057
-420.500	-120.450	-0.108	-0.018
-419.486	-200.000	-0.011	-0.160
-418.471	93.618	0.124	-0.139
-417.457	-21.148	0.129	0.079
-416.442	112.662	-0.032	0.038
-415.428	115.973	-0.324	-0.394
-414.413	-151.315	0.260	0.019
-413.398	15.445	-0.112	-0.087
-412.384	-106.941	-0.084	-0.018
-411.369	-63.088	-0.269	0.110
-410.355	-49.164	0.302	-0.143
-409.340	800.000	-0.173	-0.596
-408.325	-200.000	0.041	0.406
-407.311	-200.000	-0.050	0.235
-406.296	-99.074	-0.222	0.056
-405.282	-200.000	0.051	-0.270
-404.267	-167.504	-0.305	0.012
-403.252	53.080	-0.070	-0.067
-402.238	107.473	0.216	0.255
-401.223	65.394	0.265	-0.266
-400.209	-200.000	-0.025	0.284
-399.194	191.085	0.072	0.107
-398.179	63.674	0.080	-0.079
-397.165	595.210	0.062	0.152
-396.150	122.820	0.072	0.089
-395.136	29.237	0.168	-0.142
-394.121	-7.073	-0.201	0.136
-393.106	-143.421	-0.155	0.015
-392.092	-37.746	-0.010	-0.005
-391.077	564.484	-0.036	0.087
-390.063	16.123	0.191	-0.150
-389.048	-150.541	0.139	0.011
-388.033	168.379	-0.027	0.038
-387.019	-141.501	0.112	-0.011
-386.004	-119.047	-0.223	0.039
-384.990	562.518	0.086	0.206
-383.975	-116.014	0.014	0.003
-382.960	-59.742	0.212	0.090
-381.946	-200.000	0.052	0.430
-380.931	-2.777	0.147	-0.102
-379.917	-15.617	0.108	0.068
-378.902	-35.253	0.267	0.144
-377.888	800.000	-0.027	-0.093
-376.873	-109.998	-0.207	0.043
-375.858	-41.138	-0.024	-0.012
-374.844	152.773	0.089	-0.120
-373.829	-14.311	-0.092	-0.059
-372.815	-77.437	-0.182	-0.063
-371.800	-123.471	0.291	0.046
-370.785	10.126	0.157	0.118
-369.771	177.373	-0.240	0.346
-368.756	-200.000	0.008	-0.096
-367.742	-29.057	-0.068	0.039
-366.727	-119.783	0.626	0.107
-365.712	-68.425	-0.177	0.068
-364.698	-95.715	0.357	-0.095
-363.683	-200.000	0.003	-0.025
-362.669	458.970	0.087	0.192
-361.654	-200.000	0.067	0.332
-360.639	-200.000	0.024	0.241
-359.625	264.269	-0.075	-0.129
-358.610	-81.205	-0.055	-0.018
-357.596	800.000	-0.058	-0.188
-356.581	-112.802	0.272	-0.053
-355.566	99.788	0.111	0.127
-354.552	800.000	0.016	-0.062
-353.537	-44.186	-0.082	-0.041
-352.523	-27.237	-0.281	0.162
-351.508	-143.394	0.468	0.044
-350.493	-200.000	0.046	0.260
-349.479	13.172	-0.099	0.076
-348.464	800.000	-0.097	-0.329
-347.450	445.845	-0.169	-0.368
-346.435	-116.012	0.164	-0.030
-345.420	665.801	0.082	-0.211
-344.406	285.455	-0.089	-0.159
-343.391	-32.651	0.094	-0.052
-342.377	-66.962	0.124	-0.049
-341.362	-200.000	-0.075	0.412
-340.348	-82.014	0.185	0.060
-339.333	-116.295	-0.429	-0.079
-338.318	-151.102	-0.076	-0.006
-337.304	-43.541	0.158	-0.079
-336.289	173.088	-0.070	0.100
-335.275	-160.001	0.298	-0.016
-334.260	-200.000	0.008	0.233
-333.245	-58.117	0.066	0.029
-332.231	482.165	-0.074	0.165
-331.216	62.750	0.192	0.190
-330.202	313.491	0.052	-0.097
-329.187	-3.801	-0.230	-0.158
-328.172	659.193	0.052	-0.132
-327.158	-12.632	-0.195	0.126
-326.143	-112.161	0.223	0.044
-325.129	-200.000	0.043	0.236
-324.114	40.748	0.253	0.226
-323.099	416.383	-0.188	-0.396
-322.085	47.793	0.252	-0.233
-321.070	-72.737	0.179	-0.065
-320.056	595.695	0.046	0.114
-319.041	800.000	0.070	0.266
-318.026	234.069	-0.074	0.120
-317.012	53.003	0.150	0.142
-315.997	8.500	0.158	0.118
-314.983	206.561	0.137	0.211
-313.968	38.927	-0.108	-0.096
-312.953	659.834	0.139	-0.355
-311.939	133.259	-0.036	0.046
-310.924	115.818	0.124	-0.150
-309.910	-54.575	0.224	0.100
-308.895	-130.917	0.298	-0.039
-307.880	62.609	-0.284	-0.281
-306.866	-200.000	-0.005	-0.405
-305.851	-15.102	0.068	0.043
-304.837	78.183	-0.220	-0.232
-303.822	-120.803	0.247	0.041
-302.807	-200.000	0.001	-0.202
-301.793	-83.767	0.195	0.061
-300.778	131.746	-0.155	-0.197
-299.764	-38.431	-0.293	-0.153
-298.749	-200.000	0.019	0.308
-297.735	-156.503	0.229	0.014
-296.720	-42.030	0.311	0.158
-295.705	727.709	0.028	0.073
-294.691	-60.841	-0.210	0.088
-293.676	-22.029	0.286	0.172
-292.662	-200.000	-0.050	-0.320
-291.647	-48.954	-0.189	0.090
-290.632	517.490	-0.072	0.165
-289.618	244.657	0.068	0.113
-288.603	353.504	-0.107	0.211
-287.589	344.179	-0.047	0.092
-286.574	-77.180	-0.133	-0.046
-285.559	10.974	0.157	0.118
-284.545	-122.084	0.113	-0.018
-283.530	800.000	-0.089	0.308
-282.516	-176.567	0.050	0.001
-281.501	-125.562	0.149	0.022
-280.486	34.543	-0.180	-0.155
-279.472	547.907	-0.060	-0.142
-278.457	44.893	-0.388	0.353
-277.443	244.054	0.027	0.044
-276.428	351.033	0.158	-0.308
-275.413	-22.814	-0.202	0.121
-274.399	-200.000	0.019	0.247
-273.384	-170.322	0.034	-0.001
-272.370	495.547	-0.082	-0.187
-271.355	271.420	-0.124	0.216
-270.340	-200.000	0.044	-0.192
-269.326	105.672	0.106	0.124
-268.311	-130.295	0.108	-0.014
-267.297	774.129	0.034	-0.091
-266.282	-150.203	-0.009	-0.001
-265.267	-94.669	0.429	-0.115
-264.253	-200.000	0.017	0.192
-263.238	-151.171	0.149	0.011
-262.224	-30.728	0.225	-0.126
-261.209	-200.000	-0.078	0.345
-260.195	-106.063	-0.240	-0.053
-259.180	-68.439	-0.154	0.059
-258.165	-4.542	-0.120	-0.082
-257.151	89.612	-0.135	-0.149
-256.136	-64.435	0.253	0.101
-255.122	35.738	0.298	-0.259
-254.107	-200.000	-0.015	-0.084
-253.092	800.000	0.055	0.228
-252.078	-200.000	-0.013	0.101
-251.063	-120.105	0.285	0.048
-250.049	-112.472	-0.281	0.055
-249.034	291.869	-0.180	-0.324
-248.019	549.140	-0.094	-0.223
-247.005	155.756	-0.047	0.064
-245.990	800.000	0.164	0.490
-244.976	-74.509	-0.380	0.135
-243.961	-88.701	-0.154	0.045
-242.946	-60.960	0.181	-0.075
-241.932	22.063	0.062	0.050
-240.917	-13.503	0.177	0.113
-239.903	77.843	-0.042	-0.044
-238.888	10.786	-0.154	0.116
-237.873	154.785	0.022	-0.030
-236.859	-22.459	0.197	0.118
-235.844	81.007	0.104	-0.111
-234.830	-106.289	0.157	0.035
-233.815	54.162	0.068	0.065
-232.800	-15.772	0.122	-0.077
-231.786	244.777	-0.179	-0.298
-230.771	191.069	0.409	-0.607
-229.757	-167.833	0.223	-0.009
-228.742	4.801	-0.134	-0.097
-227.727	-16.424	-0.125	0.078
-226.713	800.000	-0.036	0.099
-225.698	243.258	-0.144	0.239
-224.684	168.830	0.058	0.081
-223.669	-200.000	-0.028	-0.152
-222.655	-200.000	-0.032	0.201
-221.640	719.540	-0.109	0.284
-220.625	800.000	0.041	0.113
-219.611	-200.000	0.005	0.143
-218.596	128.289	0.212	-0.265
-217.582	-88.951	-0.234	0.068
-216.567	-9.336	0.155	-0.102
-215.552	-138.382	-0.185	0.020
-214.538	-200.000	0.041	0.218
-213.523	800.000	-0.016	0.059
-212.509	-65.089	0.219	-0.087
-211.494	-31.696	-0.334	-0.185
-210.479	232.871	0.143	-0.232
-209.465	-48.631	0.236	0.112
-208.450	-12.109	-0.295	-0.190
-207.436	27.527	0.246	-0.204
-206.421	-87.508	0.378	-0.113
-205.406	140.662	0.135	-0.176
-204.392	-102.838	0.122	0.029
-203.377	-200.000	0.002	0.123
-202.363	-31.553	0.161	-0.089
-201.348	207.173	-0.160	0.246
-200.333	800.000	-0.121	0.388
-199.319	143.072	-0.100	-0.131
-198.304	-163.266	-0.371	-0.018
-197.290	-84.368	0.043	-0.013
-196.275	-200.000	0.016	0.245
-195.260	235.663	0.392	-0.639
-194.246	-200.000	0.048	0.288
-193.231	-186.144	0.221	-0.003
-192.217	163.458	0.174	-0.241
-191.202	800.000	-0.059	0.231
-190.187	58.862	-0.099	-0.096
-189.173	121.852	0.302	0.371
-188.158	-177.953	-0.107	-0.003
-187.144	-200.000	0.002	0.096
-186.129	800.000	0.070	-0.252
-185.114	800.000	0.026	0.077
-184.100	301.158	0.225	0.409
-183.085	-79.360	-0.182	0.061
-182.071	-78.980	-0.293	-0.098
-181.056	-51.060	-0.072	0.033
-180.042	-44.859	-0.152	0.075
-179.027	-170.405	-0.511	0.018
-178.012	-181.693	0.149	0.003
-176.998	-186.224	0.492	-0.007
-175.983	272.900	-0.172	-0.299
-174.969	-61.422	0.058	-0.024
-173.954	521.386	-0.112	0.259
-172.939	-109.756	-0.198	0.041
-171.925	27.832	-0.322	-0.267
-170.910	65.316	0.144	-0.143
-169.896	-47.983	0.106	0.051
-168.881	-125.371	-0.367	-0.055
-167.866	-116.148	0.299	0.055
-166.852	145.274	0.064	0.085
-165.837	-107.291	-0.029	-0.006
-164.823	-73.041	0.231	0.084
-163.808	-139.805	0.337	0.035
-162.793	-36.224	-0.263	0.140
-161.779	312.679	0.089	-0.165
-160.764	-200.000	-0.014	-0.141
-159.750	19.343	0.034	-0.027
-158.735	63.504	0.314	-0.310
-157.720	800.000	-0.035	0.117
-156.706	-200.000	0.059	-0.472
-155.691	267.423	0.053	0.091
-154.677	514.602	-0.043	0.098
-153.662	236.766	-0.103	0.168
-152.647	-11.905	0.207	0.133
-151.633	76.189	0.038	0.039
-150.618	-4.348	-0.352	-0.239
-149.604	741.575	-0.133	0.352
-148.589	-200.000	-0.035	-0.166
-147.574	-200.000	0.013	0.241
-146.560	594.306	0.096	0.233
-145.545	143.616	0.161	0.211
-144.531	4.223	-0.111	0.080
-143.516	-3.772	-0.240	-0.164
-142.502	-46.578	0.185	0.089
-141.487	-200.000	0.025	0.248
-140.472	-123.682	-0.175	0.027
-139.458	-4.146	0.123	0.083
-138.443	42.938	0.204	-0.182
-137.429	-200.000	-0.000	-0.021
-136.414	-64.646	-0.117	-0.047
-135.399	-17.132	0.240	0.149
-134.385	-124.682	0.231	0.035
-133.370	-13.206	-0.287	-0.183
-132.356	-137.313	0.188	0.021
-131.341	-100.937	0.201	-0.049
-130.326	787.130	-0.036	0.096
-129.312	-200.000	0.015	-0.252
-128.297	-174.573	-0.104	0.003
-127.283	227.796	-0.207	-0.331
-126.268	-200.000	0.012	0.073
-125.253	38.749	-0.088	0.077
-124.239	-88.911	-0.078	-0.023
-123.224	560.046	0.125	0.296
-122.210	155.779	-0.206	0.278
-121.195	34.113	0.113	0.097
-120.180	-134.250	-0.114	0.014
-119.166	29.927	0.198	0.166
-118.151	-152.112	-0.209	0.015
-117.137	130.814	-0.238	0.300
-116.122	-200.000	0.032	0.296
-115.107	44.557	-0.368	0.332
-114.093	0.103	0.105	-0.073
-113.078	800.000	-0.063	0.181
-112.064	-200.000	0.025	0.176
-111.049	143.846	0.147	0.193
-110.034	-200.000	-0.023	0.187
-109.020	-16.681	0.152	-0.095
-108.005	-64.972	0.219	-0.087
-106.991	-106.469	-0.188	0.041
-105.976	-134.068	-0.109	-0.013
-104.962	17.053	-0.123	0.096
-103.947	-200.000	-0.022	0.125
-102.932	-55.476	-0.419	-0.184
-101.918	277.730	-0.171	0.300
-100.903	-110.476	-0.352	0.072
-99.889	87.512	0.144	0.156
-98.874	315.369	0.052	-0.096
-97.859	-200.000	-0.015	-0.077
-96.845	180.166	-0.156	0.224
-95.830	190.030	-0.033	-0.048
-94.816	-98.836	0.239	0.060
-93.801	-111.217	0.211	0.042
-92.786	-68.826	-0.121	0.046
-91.772	114.152	0.103	-0.123
-90.757	65.668	0.178	0.177
-89.743	4.771	0.232	-0.167
-88.728	476.977	0.112	-0.249
-87.713	800.000	0.106	-0.352
-86.699	229.755	-0.087	0.140
-85.684	9.316	-0.030	0.022
-84.670	249.414	0.075	0.125
-83.655	52.799	0.220	-0.206
-82.640	-75.854	-0.049	0.017
-81.626	-200.000	-0.074	0.362
-80.611	800.000	-0.075	-0.217
-79.597	-108.068	-0.327	-0.070
-78.582	800.000	-0.022	0.064
-77.567	800.000	0.027	0.112
-76.553	-105.366	-0.252	0.056
-75.538	-200.000	-0.012	-0.304
-74.524	-200.000	0.003	-0.049
-73.509	-56.479	0.043	0.019
-72.494	-122.594	-0.143	-0.023
-71.480	-32.084	-0.029	-0.016
-70.465	800.000	-0.051	-0.140
-69.451	-200.000	-0.086	-0.469
-68.436	56.964	0.111	0.106
-67.422	320.961	-0.098	0.182
-66.407	-111.231	-0.158	0.032
-65.392	-130.987	-0.112	-0.015
-64.378	34.689	-0.079	0.068
-63.363	-48.350	-0.115	-0.054
-62.349	743.972	0.065	0.171
-61.334	28.616	-1.424	-1.181
-60.319	9.926	0.652	0.485
-59.305	-200.000	-0.339	-1.486
-58.290	800.000	0.366	1.282
-57.276	336.704	0.791	1.506
-56.261	-200.000	114.389	659.628
-55.246	539.318	1525.971	3556.080
-54.232	178.301	2688.469	3844.142
-53.217	109.145	2149.586	2519.296
-52.203	38.929	1595.872	1396.601
-51.188	30.829	1342.874	1126.396
-50.173	27.780	1305.525	1077.063
-49.159	55.486	1362.729	1291.878
-48.144	53.825	1376.448	1294.862
-47.130	31.009	1331.621	1117.859
-46.115	27.567	1313.976	1082.594
-45.100	27.357	1309.043	1077.250
-44.086	27.314	1306.058	1074.493
-43.071	27.153	1304.565	1072.273
-42.057	27.220	1302.367	1070.817
-41.042	27.218	1301.056	1069.688
-40.027	27.231	1299.565	1068.497
-39.013	27.381	1297.205	1067.395
-37.998	27.302	1295.604	1065.571
-36.984	27.350	1293.998	1064.488
-35.969	27.474	1291.881	1063.426
-34.954	27.370	1290.488	1061.634
-33.940	27.479	1288.570	1060.646
-32.925	27.478	1287.461	1059.687
-31.911	27.529	1285.944	1058.694
-30.896	27.549	1284.936	1057.936
-29.881	27.534	1283.519	1056.638
-28.867	27.521	1282.243	1055.471
-27.852	27.535	1280.281	1053.897
-26.838	27.525	1279.266	1052.960
-25.823	27.608	1277.607	1052.036
-24.809	27.449	1276.998	1050.570
-23.794	27.436	1275.638	1049.340
-22.779	27.544	1273.621	1048.257
-21.765	27.506	1272.714	1047.253
-20.750	27.589	1271.119	1046.372
-19.736	27.438	1269.857	1044.425
-18.721	27.381	1269.269	1043.577
-17.706	27.408	1267.855	1042.524
-16.692	27.389	1267.022	1041.694
-15.677	27.406	1265.454	1040.461
-14.663	27.382	1265.025	1039.925
-13.648	27.337	1263.794	1038.617
-12.633	27.423	1262.532	1038.029
-11.619	27.295	1261.965	1036.793
-10.604	27.400	1260.914	1036.485
-9.590	27.357	1259.840	1035.315
-8.575	27.312	1258.998	1034.328
-7.560	27.297	1258.241	1033.577
-6.546	27.250	1257.760	1032.875
-5.531	27.329	1256.278	1032.068
-4.517	27.349	1255.229	1031.277
-3.502	27.369	1254.453	1030.715
-2.487	27.353	1253.784	1030.031
-1.473	27.458	1249.027	1026.676
-0.458	25.818	1234.577	1005.611
0.556	24.164	1217.750	968.734
1.571	20.496	1224.123	953.630
2.586	19.516	1238.883	959.595
3.600	19.181	1227.690	948.996
4.615	14.624	1156.452	870.146
5.629	7.345	1083.715	779.662
6.644	4.287	1065.943	752.001
7.659	4.065	1063.273	748.977
8.673	3.955	1061.689	747.264
9.688	3.915	1060.812	746.387
10.702	4.194	1059.018	746.402
11.717	8.944	1065.372	773.780
12.731	17.057	1076.294	821.041
13.746	21.757	1082.947	848.866
14.761	22.636	1083.393	853.397
15.775	21.995	1081.711	848.896
16.790	20.971	1079.856	842.419
17.804	20.430	1078.128	838.389
18.819	20.222	1077.404	836.748
19.834	20.256	1076.751	836.331
20.848	20.168	1076.396	835.556
21.863	20.019	1075.717	834.235
22.877	19.929	1074.603	832.865
23.892	19.827	1074.468	832.199
24.907	19.701	1073.452	830.729
25.921	19.766	1071.915	829.780
26.936	19.885	1070.520	829.197
27.950	19.792	1069.485	827.877
28.965	19.880	1068.221	827.248
29.980	19.910	1067.007	826.377
30.994	20.095	1066.262	826.607
32.009	20.185	1065.162	826.113
33.023	20.032	1064.420	824.734
34.038	19.999	1063.087	823.472
35.053	19.870	1061.665	821.684
36.067	19.826	1061.251	821.084
37.082	19.891	1060.193	820.502
38.096	20.095	1059.384	820.768
39.111	20.138	1058.987	820.590
40.126	19.835	1057.088	817.614
41.140	19.468	1055.982	814.952
42.155	19.257	1054.761	812.943
43.169	19.278	1053.685	812.140
44.184	19.293	1052.798	811.457
45.199	19.245	1051.746	810.347
46.213	19.533	1051.112	811.143
47.228	19.904	1050.497	812.336
48.242	19.888	1049.391	811.334
49.257	19.910	1048.406	810.603
50.271	19.980	1047.588	810.229
51.286	19.973	1047.030	809.693
52.301	19.938	1046.215	808.828
53.315	19.746	1044.961	806.888
54.330	19.569	1044.157	805.375
55.344	19.509	1042.989	804.119
56.359	19.517	1042.243	803.510
57.374	19.450	1041.315	802.412
58.388	19.453	1040.126	801.440
59.403	19.122	1039.668	799.477
60.417	19.329	1038.630	799.570
61.432	19.225	1038.098	798.610
62.447	19.254	1037.003	797.830
63.461	19.105	1036.157	796.419
64.476	19.061	1034.976	795.238
65.490	19.071	1034.025	794.483
66.505	19.123	1033.599	794.324
67.520	19.170	1032.975	793.993
68.534	19.186	1032.352	793.516
69.549	18.999	1031.585	791.995
70.563	18.981	1030.329	790.879
71.578	18.875	1029.495	789.682
72.593	18.707	1028.696	788.226
73.607	18.761	1028.457	788.221
74.622	18.815	1027.700	787.821
75.636	18.882	1027.073	787.576
76.651	19.007	1025.963	787.226
77.666	18.999	1025.689	786.910
78.680	19.025	1024.524	786.065
79.695	18.999	1024.225	785.650
80.709	19.216	1024.386	786.693
81.724	19.327	1023.261	786.266
82.739	19.500	1022.581	786.461
83.753	19.810	1022.203	787.515
84.768	20.150	1021.954	788.802
85.782	20.340	1021.508	789.251
86.797	20.199	1020.210	787.535
87.812	19.925	1019.395	785.596
88.826	19.866	1018.565	784.618
89.841	20.136	1017.305	784.801
90.855	20.297	1016.753	785.035
91.870	20.120	1016.039	783.615
92.884	20.244	1014.745	783.104
93.899	20.178	1013.967	782.140
94.914	20.304	1012.834	781.761
95.928	20.180	1011.982	780.478
96.943	20.021	1011.286	779.156
97.957	20.082	1009.966	778.345
98.972	20.118	1009.377	777.986
99.987	20.137	1008.503	777.325
101.001	20.022	1007.497	775.970
102.016	20.065	1006.543	775.356
103.030	20.054	1006.522	775.220
104.045	20.162	1004.975	774.445
105.060	19.918	1004.265	772.738
106.074	19.581	1002.752	770.003
107.089	19.358	1001.647	768.097
108.103	19.302	1000.634	767.003
109.118	19.162	1000.035	765.852
110.133	19.011	998.546	763.973
111.147	19.051	997.690	763.428
112.162	19.085	997.161	763.107
113.176	19.388	996.854	764.146
114.191	19.422	996.071	763.631
115.206	19.433	994.980	762.775
116.220	19.408	993.948	761.804
117.235	19.270	993.306	760.635
118.249	19.130	992.448	759.294
119.264	19.171	991.372	758.586
120.279	19.053	990.969	757.690
121.293	19.017	989.582	756.402
122.308	18.826	988.933	754.999
123.322	18.894	987.657	754.258
124.337	18.718	986.751	752.730
125.352	18.839	985.380	752.148
126.366	18.800	984.564	751.288
127.381	18.860	983.902	750.977
128.395	18.978	982.840	750.614
129.410	18.980	981.872	749.818
130.424	19.039	981.642	749.834
131.439	19.371	980.882	750.632
132.454	19.298	979.959	749.542
133.468	19.301	979.327	749.006
134.483	19.368	978.088	748.283
135.497	19.395	977.314	747.741
136.512	19.337	976.816	747.041
137.527	19.439	975.690	746.558
138.541	19.498	974.960	746.188
139.556	19.489	974.614	745.816
140.570	19.635	974.379	746.200
141.585	19.885	973.869	746.825
142.600	19.896	972.889	746.054
143.614	20.147	971.890	746.302
144.629	20.081	971.487	745.644
145.643	19.998	970.364	744.360
146.658	19.795	968.713	742.157
147.673	19.658	967.488	740.564
148.687	19.437	967.188	739.321
149.702	19.261	966.197	737.745
150.716	19.313	965.532	737.395
151.731	19.576	964.280	737.497
152.746	19.438	964.122	736.722
153.760	19.579	963.346	736.664
154.775	19.778	962.907	737.112
155.789	19.679	962.378	736.220
156.804	19.608	961.646	735.293
157.819	19.791	960.819	735.373
158.833	19.978	960.420	735.796
159.848	20.271	959.331	736.140
160.862	19.973	958.288	734.013
161.877	19.570	956.717	731.040
162.892	19.398	955.525	729.338
163.906	19.380	954.403	728.339
164.921	19.471	953.564	728.018
165.935	19.505	953.248	727.858
166.950	19.625	952.589	727.795
167.964	19.596	951.536	726.803
168.979	19.500	950.280	725.376
169.994	19.514	949.506	724.781
171.008	19.639	949.140	724.963
172.023	19.930	948.815	725.870
173.037	20.024	948.125	725.670
174.052	19.878	947.116	724.224
175.067	19.489	946.076	721.739
176.081	19.349	945.327	720.517
177.096	19.475	944.380	720.257
178.110	19.411	944.169	719.765
179.125	19.265	944.241	719.146
180.140	19.674	943.374	720.131
181.154	19.794	943.421	720.602
182.169	19.881	943.201	720.731
183.183	19.923	942.403	720.235
184.198	19.888	941.155	719.069
185.213	19.835	940.695	718.435
186.227	19.990	940.209	718.642
187.242	20.078	939.637	718.507
188.256	20.384	939.028	719.247
189.271	20.169	938.230	717.683
190.286	19.826	936.958	715.228
191.300	19.335	935.513	712.034
192.315	19.232	934.833	711.030
193.329	19.195	934.880	710.848
194.344	19.551	933.907	711.514
195.359	19.604	933.481	711.345
196.373	19.643	933.409	711.388
197.388	20.078	933.044	712.834
198.402	20.177	932.463	712.736
199.417	20.315	931.828	712.753
200.432	20.534	931.341	713.218
201.446	20.580	931.175	713.216
202.461	20.641	930.777	713.096
203.475	20.507	930.095	711.962
204.490	20.206	928.685	709.588
205.504	20.068	928.000	708.440
206.519	19.908	927.279	707.172
207.534	19.928	926.428	706.541
208.548	20.072	925.863	706.635
209.563	20.040	925.276	705.993
210.577	20.137	924.708	705.895
211.592	20.373	924.367	706.531
212.607	20.440	923.457	706.045
213.621	20.277	922.988	704.962
214.636	20.268	921.800	703.955
215.650	20.332	921.066	703.593
216.665	20.438	920.699	703.678
217.680	20.581	920.467	704.021
218.694	20.606	919.546	703.355
219.709	20.483	918.967	702.353
220.723	20.442	918.132	701.484
221.738	20.350	917.286	700.407
222.753	20.422	916.549	700.070
223.767	20.563	916.160	700.280
224.782	20.631	915.773	700.199
225.796	20.630	915.644	700.030
226.811	20.552	914.693	698.930
227.826	20.278	913.654	696.974
228.840	20.286	912.730	696.238
229.855	20.314	912.017	695.744
230.869	20.399	911.003	695.252
231.884	20.142	910.759	693.976
232.899	20.125	909.482	692.873
233.913	19.995	908.974	691.902
234.928	19.813	908.537	690.782
235.942	19.981	908.117	691.076
236.957	19.957	907.532	690.473
237.972	19.975	906.747	689.886
238.986	20.016	905.544	689.071
240.001	19.933	904.970	688.245
241.015	20.056	905.054	688.735
242.030	20.163	904.488	688.671
243.045	20.363	903.863	688.925
244.059	20.330	903.558	688.501
245.074	20.360	903.032	688.158
246.088	20.478	902.151	687.893
247.103	20.724	901.826	688.559
248.117	20.902	901.295	688.797
249.132	21.265	901.484	690.313
250.147	21.454	901.075	690.685
251.161	21.493	900.139	690.061
252.176	21.350	900.209	689.490
253.190	21.511	899.152	689.254
254.205	21.486	898.463	688.569
255.220	21.458	897.599	687.732
256.234	21.408	897.534	687.427
257.249	21.413	896.482	686.579
258.263	21.262	895.541	685.205
259.278	21.397	894.692	685.024
260.293	21.374	894.749	684.918
261.307	21.496	893.761	684.580
262.322	21.614	893.288	684.616
263.336	21.673	892.120	683.889
264.351	21.549	891.834	683.128
265.366	21.559	891.441	682.804
266.380	21.559	890.689	682.167
267.395	21.436	889.876	681.006
268.409	21.218	889.357	679.699
269.424	21.245	888.465	679.063
270.439	21.312	887.325	678.392
271.453	21.031	886.673	676.743
272.468	21.068	886.259	676.510
273.482	21.076	885.728	676.079
274.497	21.166	884.743	675.614
275.512	21.057	884.548	674.985
276.526	21.041	884.300	674.671
277.541	21.137	883.705	674.531
278.555	21.446	883.632	675.608
279.570	21.679	882.697	675.730
280.585	21.664	881.823	674.948
281.599	21.252	881.043	672.702
282.614	21.309	879.923	672.006
283.628	21.156	879.915	671.353
284.643	21.044	879.167	670.293
285.657	21.243	878.397	670.409
286.672	21.330	877.700	670.152
287.687	21.420	876.786	669.740
288.701	21.364	876.393	669.165
289.716	21.449	875.746	668.938
290.730	21.310	875.654	668.276
291.745	21.280	875.206	667.761
292.760	21.394	874.848	667.864
293.774	21.581	874.392	668.170
294.789	21.595	873.298	667.328
295.803	21.362	872.959	666.124
296.818	21.339	871.540	664.896
297.833	21.277	871.134	664.290
298.847	21.293	870.669	663.939
299.862	21.323	870.234	663.661
300.876	21.562	869.598	664.025
301.891	21.705	869.454	664.399
302.906	21.961	868.735	664.760
303.920	21.948	868.838	664.729
304.935	22.145	868.066	664.826
305.949	21.959	867.111	663.331
306.964	21.630	866.367	661.463
307.979	21.759	865.653	661.346
308.993	21.947	865.363	661.774
310.008	21.924	864.659	661.090
311.022	21.813	864.143	660.220
312.037	21.623	863.420	658.894
313.052	21.397	862.577	657.345
314.066	21.152	861.954	655.889
315.081	21.190	861.316	655.491
316.095	21.282	860.708	655.312
317.110	21.321	860.182	655.001
318.125	21.253	859.687	654.311
319.139	21.205	859.183	653.690
320.154	21.241	859.027	653.648
321.168	21.378	858.419	653.641
322.183	21.400	857.762	653.164
323.197	21.377	857.238	652.620
324.212	21.542	856.585	652.682
325.227	21.435	855.820	651.642
326.241	21.283	855.415	650.710
327.256	21.250	855.210	650.375
328.270	21.381	854.085	649.949
329.285	21.409	853.409	649.479
330.300	21.175	853.277	648.453
331.314	21.411	852.752	648.873
332.329	21.544	852.496	649.116
333.343	21.805	852.181	649.786
334.358	21.831	851.895	649.604
335.373	21.753	851.657	649.076
336.387	21.833	851.135	648.918
337.402	21.880	851.246	649.120
338.416	22.206	850.503	649.702
339.431	22.220	850.153	649.426
340.446	22.332	849.968	649.640
341.460	22.473	849.663	649.871
342.475	22.351	849.405	649.166
343.489	22.570	848.776	649.437
344.504	22.556	848.265	648.935
345.519	22.539	847.919	648.553
346.533	22.528	847.540	648.163
347.548	22.131	846.434	645.803
348.562	21.935	845.909	644.623
349.577	21.880	844.732	643.470
350.592	21.657	844.162	642.158
351.606	21.771	843.365	641.913
352.621	21.736	842.935	641.402
353.635	21.910	842.269	641.473
354.650	21.866	841.504	640.673
355.665	22.165	840.935	641.276
356.679	22.276	840.350	641.176
357.694	22.075	839.893	640.039
358.708	22.030	839.253	639.331
359.723	22.150	838.408	639.067
360.738	22.095	837.837	638.376
361.752	22.229	837.505	638.554
362.767	22.374	837.725	639.191
363.781	22.406	837.260	638.896
364.796	22.783	836.476	639.606
365.810	22.832	836.291	639.587
366.825	22.964	835.751	639.594
367.840	22.864	834.877	638.506
368.854	22.719	834.309	637.493
369.869	22.575	833.621	636.391
370.883	22.558	833.424	636.122
371.898	22.803	833.538	637.037
372.913	22.825	833.356	636.922
373.927	22.611	832.308	635.292
374.942	22.681	831.477	634.856
375.956	22.679	831.444	634.765
376.971	22.945	831.058	635.374
377.986	22.943	830.747	635.072
379.000	22.956	830.237	634.671
380.015	22.952	829.542	634.070
381.029	22.783	828.756	632.806
382.044	22.995	828.063	632.982
383.059	22.988	827.770	632.676
384.073	22.831	827.011	631.479
385.088	22.561	826.136	629.788
386.102	22.423	825.563	628.806
387.117	22.435	824.651	628.096
388.132	22.413	824.406	627.777
389.146	22.546	823.933	627.833
390.161	22.718	823.653	628.179
391.175	22.828	823.262	628.217
392.190	22.627	822.812	627.102
393.205	22.491	822.030	625.968
394.219	22.492	821.305	625.363
395.234	22.282	821.227	624.502
396.248	22.281	820.636	623.995
397.263	22.139	820.161	623.074
398.278	21.955	819.976	622.226
399.292	22.125	819.428	622.360
400.307	22.006	819.208	621.713
401.321	22.206	818.344	621.711
402.336	22.453	818.050	622.306
403.350	22.644	817.651	622.621
404.365	22.917	817.036	623.061
405.380	22.993	817.013	623.256
406.394	23.139	816.452	623.289
407.409	23.159	816.051	622.996
408.423	23.152	815.858	622.770
409.438	23.303	815.612	623.058
410.453	23.267	815.133	622.510
411.467	23.418	814.879	622.793
412.482	23.424	814.424	622.411
413.496	23.485	814.296	622.473
414.511	23.530	813.412	621.900
415.526	23.323	812.764	620.624
416.540	23.216	812.258	619.807
417.555	23.353	811.665	619.778
418.569	23.330	811.357	619.409
419.584	23.386	810.631	618.997
420.599	23.435	810.099	618.705
421.613	164.705	1372.382	1798.128
422.628	143.446	1454.286	1798.211
