DTS Sentinel unit serial number:	SN413079Multiplexer serial number:	ORYXHardware model number:	OX4-SRSoftware version number:	ORYX F/W v4.00 Oryx Data Collector v3.7.2.0data status	okinstallation	princeton_trtdifferential loss correction	single-endedforward channel	channel 1reverse channel	N/Adate	2019/09/18time	19:10:35forward acquisition time	60.00reverse acquisition time	0.00gamma	496.2192k internal	0.2314k external	0.2314temperature offset calibration	1.0040default loss term (dB/km)	0.3790temperature slope calibration	1.0000multiplexer offset coefficient	1.0000multiplexer slope coefficient	1.0000fibre end	0.00T internal ref (°C)	34.94T ext. ref 1 (°C)	1.22T ext. ref 2 (°C)	24.09length (m)	temperature (°C)	Stokes	anti-Stokes-747.200	-110.515	-0.221	-0.046
-746.185	800.000	0.036	-0.135
-745.171	462.406	0.154	-0.348
-744.156	-56.906	0.082	0.037
-743.142	-144.610	-0.392	-0.037
-742.127	151.659	0.162	0.224
-741.112	69.521	0.114	0.119
-740.098	-77.160	-0.293	0.103
-739.083	-200.000	-0.057	0.628
-738.069	63.092	0.163	0.166
-737.054	-133.502	-0.427	-0.054
-736.039	-58.948	-0.294	0.129
-735.025	-114.234	0.317	0.062
-734.010	-200.000	-0.014	0.107
-732.996	800.000	-0.185	-0.577
-731.981	190.243	0.113	0.173
-730.966	800.000	0.052	0.191
-729.952	-129.099	0.052	0.007
-728.937	256.128	0.137	-0.239
-727.923	53.875	-0.255	0.248
-726.908	-79.980	-0.189	-0.064
-725.894	-138.245	-0.168	0.019
-724.879	800.000	0.126	-0.370
-723.864	-32.109	-0.200	0.113
-722.850	124.792	-0.237	-0.302
-721.835	-200.000	0.044	-0.200
-720.821	423.546	-0.043	-0.093
-719.806	-109.827	-0.364	-0.077
-718.791	34.451	0.052	-0.046
-717.777	279.164	-0.103	0.185
-716.762	-200.000	0.026	-0.338
-715.748	-96.988	0.299	0.079
-714.733	-88.711	-0.078	-0.024
-713.718	395.079	-0.085	0.179
-712.704	20.256	-0.168	0.137
-711.689	125.079	0.133	-0.169
-710.675	204.925	0.187	-0.294
-709.660	467.952	0.033	-0.075
-708.645	4.823	0.239	0.178
-707.631	-200.000	0.105	0.000
-706.616	94.553	-0.301	-0.346
-705.602	137.615	-0.069	-0.091
-704.587	43.456	-0.096	0.089
-703.572	415.716	-0.124	0.267
-702.558	800.000	-0.094	-0.312
-701.543	-56.092	0.160	-0.072
-700.529	800.000	0.040	-0.149
-699.514	401.534	-0.084	-0.178
-698.499	-112.404	-0.183	-0.037
-697.485	-51.118	0.119	-0.057
-696.470	-137.341	0.365	0.042
-695.456	-47.404	0.061	0.030
-694.441	-34.092	-0.145	0.081
-693.426	-200.000	0.003	0.036
-692.412	-200.000	-0.012	-0.106
-691.397	-19.839	0.201	-0.126
-690.383	-160.515	-0.134	-0.007
-689.368	113.097	-0.200	0.245
-688.354	22.028	-0.098	-0.081
-687.339	-16.340	0.210	-0.135
-686.324	-158.066	-0.449	-0.027
-685.310	800.000	0.114	-0.407
-684.295	-10.488	-0.085	0.057
-683.281	29.957	0.034	-0.029
-682.266	103.893	0.208	0.247
-681.251	16.904	-0.192	-0.154
-680.237	-131.617	-0.204	-0.027
-679.222	-200.000	-0.065	0.325
-678.208	-200.000	-0.001	0.103
-677.193	252.936	-0.159	-0.274
-676.178	-1.305	0.115	-0.082
-675.164	52.939	0.268	-0.259
-674.149	-93.839	0.233	-0.065
-673.135	-135.181	0.136	0.016
-672.120	304.481	0.111	0.208
-671.105	-200.000	0.007	0.119
-670.091	127.656	-0.103	-0.132
-669.076	-104.974	-0.204	0.047
-668.062	84.398	0.073	0.080
-667.047	119.132	-0.224	0.279
-666.032	800.000	0.019	-0.060
-665.018	-168.413	0.275	0.011
-664.003	-195.030	-0.370	0.003
-662.989	800.000	0.060	0.228
-661.974	-200.000	-0.022	0.139
-660.959	282.116	-0.045	-0.082
-659.945	87.192	0.047	-0.053
-658.930	-100.116	-0.325	-0.082
-657.916	155.597	0.057	0.079
-656.901	-183.377	0.363	-0.006
-655.886	-200.000	0.030	0.195
-654.872	125.038	0.230	0.293
-653.857	-99.002	-0.329	-0.084
-652.843	-97.386	-0.492	-0.129
-651.828	-36.792	-0.170	0.092
-650.814	324.774	0.148	0.285
-649.799	-10.970	0.199	-0.133
-648.784	192.669	-0.196	-0.299
-647.770	27.504	0.434	-0.369
-646.755	276.468	-0.182	-0.326
-645.741	26.192	-0.095	0.080
-644.726	800.000	-0.035	-0.121
-643.711	-17.533	0.078	-0.049
-642.697	800.000	-0.136	-0.384
-641.682	97.244	-0.179	-0.207
-640.668	-200.000	0.014	0.435
-639.653	-200.000	0.001	-0.499
-638.638	-40.136	-0.081	0.042
-637.624	193.424	-0.182	-0.278
-636.609	72.331	0.117	-0.123
-635.595	-16.458	0.203	-0.130
-634.580	545.774	0.030	0.071
-633.565	-200.000	0.069	-0.315
-632.551	-59.889	-0.149	-0.064
-631.536	330.814	0.109	0.212
-630.522	107.521	-0.261	0.314
-629.507	496.649	0.222	-0.516
-628.492	649.272	-0.055	0.141
-627.478	-101.279	-0.286	0.071
-626.463	-46.167	0.214	0.106
-625.449	-9.572	0.075	-0.050
-624.434	800.000	0.085	-0.351
-623.419	-62.769	-0.202	-0.084
-622.405	-124.994	0.250	-0.039
-621.390	-92.992	-0.163	0.046
-620.376	158.437	-0.082	0.115
-619.361	194.967	0.353	0.541
-618.346	-34.643	0.320	0.177
-617.332	-75.450	0.147	-0.053
-616.317	50.016	-0.094	-0.090
-615.303	-164.435	-0.120	0.006
-614.288	-200.000	0.026	0.249
-613.273	-119.825	-0.054	-0.009
-612.259	-56.773	0.170	0.076
-611.244	-200.000	0.014	-0.243
-610.230	-200.000	0.063	-0.328
-609.215	-53.835	0.155	-0.071
-608.201	212.004	-0.191	-0.303
-607.186	-200.000	0.093	-0.423
-606.171	-200.000	-0.070	-0.575
-605.157	40.352	0.004	-0.004
-604.142	-78.291	0.246	0.085
-603.128	-200.000	0.029	-0.212
-602.113	3.747	-0.102	-0.075
-601.098	-200.000	-0.014	-0.098
-600.084	800.000	-0.116	-0.404
-599.069	162.647	0.127	-0.179
-598.055	49.899	-0.032	0.031
-597.040	-134.061	0.465	-0.058
-596.025	-44.326	0.254	-0.128
-595.011	284.858	-0.131	-0.237
-593.996	-124.326	0.130	0.020
-592.982	42.214	-0.087	-0.080
-591.967	-88.741	-0.483	0.145
-590.952	44.196	-0.092	-0.085
-589.938	333.332	0.170	-0.331
-588.923	-81.445	-0.125	-0.042
-587.909	656.451	-0.040	-0.104
-586.894	-90.032	-0.167	0.049
-585.879	-200.000	-0.032	0.248
-584.865	-51.396	0.135	-0.064
-583.850	-70.687	-0.197	-0.075
-582.836	-4.741	0.092	-0.064
-581.821	65.465	0.234	0.239
-580.806	9.167	-0.143	-0.109
-579.792	-126.356	0.142	-0.021
-578.777	164.286	-0.110	0.157
-577.763	190.967	-0.278	0.422
-576.748	-58.185	-0.360	0.158
-575.733	88.822	0.231	-0.258
-574.719	128.055	0.164	0.210
-573.704	275.507	-0.071	-0.127
-572.690	36.545	-0.271	0.241
-571.675	-36.423	-0.211	-0.115
-570.661	-200.000	-0.001	0.045
-569.646	-37.057	-0.208	0.112
-568.631	118.051	0.035	0.043
-567.617	800.000	-0.032	0.121
-566.602	737.937	-0.032	0.087
-565.588	-174.742	-0.027	-0.001
-564.573	-200.000	-0.056	0.265
-563.558	-14.277	-0.128	0.083
-562.544	57.304	0.104	0.102
-561.529	173.798	-0.121	-0.176
-560.515	-89.969	-0.131	0.038
-559.500	-12.994	0.090	0.059
-558.485	-59.420	-0.211	0.091
-557.471	-48.298	0.011	-0.005
-556.456	120.998	0.329	0.412
-555.442	-200.000	-0.029	0.190
-554.427	429.128	0.106	0.231
-553.412	712.272	-0.137	-0.364
-552.398	-53.173	0.244	-0.113
-551.383	-16.354	0.299	0.191
-550.369	288.142	-0.073	-0.133
-549.354	48.163	-0.039	-0.037
-548.339	-119.983	0.275	0.048
-547.325	331.149	0.143	0.277
-546.310	-24.069	-0.117	-0.070
-545.296	-200.000	0.174	0.000
-544.281	-55.052	0.233	-0.106
-543.266	-39.365	0.031	0.016
-542.252	-13.866	-0.061	-0.040
-541.237	-200.000	0.029	0.162
-540.223	-200.000	-0.022	0.126
-539.208	-108.520	-0.242	0.052
-538.193	342.397	-0.049	0.097
-537.179	-200.000	-0.024	-0.261
-536.164	800.000	0.069	0.243
-535.150	-200.000	0.013	0.103
-534.135	800.000	-0.147	0.543
-533.121	-146.061	0.411	0.037
-532.106	-171.771	-0.402	0.013
-531.091	-200.000	0.009	-0.257
-530.077	-116.190	-0.072	0.013
-529.062	-193.336	0.320	0.003
-528.048	-167.040	-0.211	0.009
-527.033	-92.001	0.130	-0.037
-526.018	-25.687	0.241	-0.143
-525.004	349.052	-0.129	-0.256
-523.989	-168.393	-0.209	0.008
-522.975	15.491	0.131	0.103
-521.960	800.000	0.101	-0.297
-520.945	151.420	0.147	-0.202
-519.931	222.838	0.141	0.228
-518.916	589.616	-0.066	0.165
-517.902	800.000	-0.039	-0.152
-516.887	-80.266	-0.522	-0.175
-515.872	-161.313	-0.307	-0.016
-514.858	239.089	-0.189	-0.316
-513.843	800.000	0.061	-0.223
-512.829	226.485	0.026	-0.043
-511.814	-28.592	0.131	0.076
-510.799	42.772	0.228	0.208
-509.785	468.431	0.067	0.150
-508.770	800.000	0.044	0.141
-507.756	-6.828	0.090	0.062
-506.741	133.188	-0.141	0.183
-505.726	-136.770	-0.336	0.039
-504.712	199.017	-0.225	-0.346
-503.697	89.063	0.257	-0.287
-502.683	-200.000	-0.033	-0.184
-501.668	-124.167	-0.123	0.019
-500.653	-79.160	0.135	0.046
-499.639	-200.000	0.011	-0.120
-498.624	76.236	0.051	-0.054
-497.610	13.702	-0.233	-0.181
-496.595	356.724	-0.110	0.219
-495.581	269.982	0.080	-0.141
-494.566	-105.022	0.177	-0.041
-493.551	800.000	-0.049	-0.199
-492.537	58.888	-0.110	0.108
-491.522	-42.582	-0.132	0.068
-490.508	97.614	-0.036	0.042
-489.493	-43.604	0.248	0.125
-488.478	-200.000	0.011	-0.216
-487.464	-60.843	0.182	-0.077
-486.449	-91.288	-0.422	-0.121
-485.435	-80.392	-0.491	0.164
-484.420	-80.030	0.414	-0.139
-483.405	-100.715	-0.262	0.065
-482.391	-200.000	0.029	-0.137
-481.376	-200.000	-0.039	-0.209
-480.362	800.000	0.042	0.178
-479.347	-17.447	-0.136	0.086
-478.332	-92.293	-0.137	0.039
-477.318	-150.100	0.233	0.018
-476.303	-45.256	0.179	0.089
-475.289	-49.314	-0.312	-0.149
-474.274	-200.000	0.024	-0.409
-473.259	-114.724	0.174	-0.033
-472.245	719.328	-0.051	-0.135
-471.230	27.855	-0.059	-0.050
-470.216	1.158	-0.365	0.263
-469.201	-8.171	-0.360	0.243
-468.186	71.550	0.135	0.140
-467.172	-80.870	-0.141	0.047
-466.157	64.050	-0.315	0.318
-465.143	-2.242	0.226	-0.159
-464.128	-157.649	0.261	-0.016
-463.113	-152.530	-0.073	0.005
-462.099	800.000	0.026	0.114
-461.084	497.572	0.046	-0.107
-460.070	46.024	-0.166	0.154
-459.055	371.972	0.054	-0.109
-458.040	133.677	0.055	0.072
-457.026	23.153	0.325	0.268
-456.011	800.000	0.084	0.282
-454.997	800.000	0.012	0.040
-453.982	105.407	0.287	-0.340
-452.968	80.108	0.202	0.217
-451.953	-106.508	0.191	-0.043
-450.938	188.516	0.191	-0.287
-449.924	55.286	-0.196	0.190
-448.909	-11.770	-0.366	0.241
-447.895	-197.153	0.183	0.001
-446.880	800.000	-0.090	-0.263
-445.865	-59.984	-0.099	-0.042
-444.851	590.666	0.134	0.330
-443.836	-56.467	-0.144	0.064
-442.822	-200.000	0.019	-0.119
-441.807	271.815	0.085	-0.150
-440.792	347.517	-0.156	-0.308
-439.778	110.659	0.055	0.066
-438.763	53.974	-0.385	0.370
-437.749	-190.464	-0.165	-0.002
-436.734	631.379	0.023	-0.058
-435.719	-88.122	-0.049	0.015
-434.705	-200.000	-0.015	0.199
-433.690	-27.611	-0.067	-0.039
-432.676	195.640	0.062	0.095
-431.661	49.407	-0.051	0.048
-430.646	394.176	-0.028	0.059
-429.632	-92.368	0.279	-0.079
-428.617	-200.000	-0.007	-0.054
-427.603	-111.878	-0.182	-0.037
-426.588	-22.039	0.131	0.080
-425.573	548.376	0.173	0.416
-424.559	-68.056	-0.229	-0.089
-423.544	36.278	-0.184	0.162
-422.530	-34.025	-0.138	-0.076
-421.515	-200.000	-0.016	0.400
-420.500	-128.093	0.304	-0.044
-419.486	-200.000	-0.003	0.160
-418.471	800.000	0.071	-0.237
-417.457	-200.000	0.037	-0.319
-416.442	-4.175	0.179	-0.124
-415.428	-122.072	0.274	-0.045
-414.413	270.723	-0.062	-0.108
-413.398	501.782	0.028	0.064
-412.384	-188.681	-0.569	0.007
-411.369	800.000	-0.058	-0.180
-410.355	-200.000	-0.007	0.282
-409.340	-4.265	0.130	-0.090
-408.325	12.734	-0.202	-0.156
-407.311	-88.895	-0.220	0.065
-406.296	800.000	0.071	-0.203
-405.282	468.218	0.080	0.180
-404.267	-98.565	-0.369	-0.094
-403.252	-58.490	-0.359	0.156
-402.238	427.084	0.126	0.273
-401.223	-111.403	0.323	-0.066
-400.209	69.780	-0.097	-0.100
-399.194	39.410	-0.253	-0.227
-398.179	20.394	-0.030	0.024
-397.165	160.442	-0.062	0.087
-396.150	-86.996	-0.201	-0.061
-395.136	-142.280	0.282	0.028
-394.121	187.542	-0.113	0.169
-393.106	63.439	0.128	0.128
-392.092	-35.486	0.053	0.029
-391.077	259.068	-0.091	0.157
-390.063	-165.283	-0.018	0.001
-389.048	407.764	0.080	-0.170
-388.033	-49.422	-0.293	0.140
-387.019	-43.683	0.087	0.044
-386.004	474.181	0.075	-0.169
-384.990	-59.597	-0.105	0.045
-383.975	279.290	0.183	0.327
-382.960	-200.000	-0.022	-0.132
-381.946	-46.387	-0.106	-0.052
-380.931	-25.982	-0.174	-0.102
-379.917	800.000	0.036	-0.136
-378.902	-57.397	0.106	0.047
-377.888	-42.629	-0.069	-0.035
-376.873	4.428	-0.044	0.032
-375.858	-132.583	-0.199	0.026
-374.844	648.974	0.076	0.194
-373.829	-200.000	-0.030	-0.377
-372.815	266.071	-0.133	0.231
-371.800	11.415	0.242	-0.185
-370.785	-64.325	-0.220	0.090
-369.771	-147.853	0.302	-0.025
-368.756	-32.218	0.263	-0.147
-367.742	-31.645	0.228	-0.128
-366.727	-123.326	0.268	-0.043
-365.712	-165.441	-0.336	-0.015
-364.698	-200.000	0.015	0.148
-363.683	800.000	0.034	-0.102
-362.669	110.977	-0.106	-0.127
-361.654	800.000	0.109	0.327
-360.639	800.000	-0.042	-0.159
-359.625	-42.158	-0.148	-0.076
-358.610	-134.323	0.150	0.018
-357.596	-73.723	-0.265	-0.096
-356.581	-76.636	0.135	-0.047
-355.566	-1.595	0.108	-0.076
-354.552	-140.517	0.054	0.006
-353.537	800.000	-0.042	0.144
-352.523	-200.000	0.006	-0.191
-351.508	120.110	-0.088	0.109
-350.493	-169.623	0.193	-0.007
-349.479	-26.673	0.048	0.028
-348.464	156.406	-0.041	0.057
-347.450	134.846	-0.048	0.062
-346.435	-48.160	-0.162	-0.078
-345.420	58.992	0.196	0.192
-344.406	174.993	-0.104	0.151
-343.391	-18.105	-0.070	0.044
-342.377	-200.000	0.023	0.217
-341.362	-65.448	-0.302	-0.121
-340.348	-200.000	-0.011	-0.056
-339.333	-106.407	-0.112	0.025
-338.318	-20.083	0.069	0.043
-337.304	-200.000	0.011	-0.103
-336.289	1.587	0.255	-0.183
-335.275	661.174	0.118	-0.302
-334.260	-123.369	-0.165	0.026
-333.245	-158.163	0.242	0.014
-332.231	-79.560	-0.095	-0.032
-331.216	50.749	-0.214	0.203
-330.202	-53.527	0.211	-0.096
-329.187	557.804	0.033	-0.079
-328.172	135.548	-0.077	-0.100
-327.158	-196.840	0.209	0.001
-326.143	562.537	-0.111	0.267
-325.129	-29.849	-0.277	0.157
-324.114	-45.335	-0.150	-0.074
-323.099	-200.000	0.007	-0.063
-322.085	-59.017	0.149	0.064
-321.070	1.346	-0.150	-0.108
-320.056	-200.000	-0.016	-0.100
-319.041	-200.000	0.035	0.154
-318.026	15.026	-0.048	0.037
-317.012	-200.000	-0.031	0.345
-315.997	-101.943	-0.260	0.063
-314.983	-28.818	-0.160	0.092
-313.968	800.000	0.099	-0.322
-312.953	81.187	0.356	-0.383
-311.939	-142.325	-0.044	-0.004
-310.924	-200.000	-0.074	0.448
-309.910	-147.621	0.094	-0.008
-308.895	-59.306	-0.313	-0.134
-307.880	-94.812	0.215	-0.058
-306.866	90.285	-0.197	-0.220
-305.851	800.000	-0.043	-0.155
-304.837	7.891	-0.115	0.086
-303.822	-200.000	0.030	-0.353
-302.807	-200.000	0.051	0.224
-301.793	-200.000	0.067	-0.305
-300.778	-200.000	-0.008	0.230
-299.764	-89.999	0.085	0.025
-298.749	800.000	-0.051	0.183
-297.735	-110.171	-0.159	0.033
-296.720	-34.469	0.177	-0.096
-295.705	-55.249	0.295	0.132
-294.691	80.345	-0.129	0.138
-293.676	322.828	0.122	0.231
-292.662	-102.060	0.055	0.013
-291.647	800.000	-0.070	-0.203
-290.632	83.383	0.190	0.206
-289.618	342.873	0.123	0.240
-288.603	28.067	0.021	0.017
-287.589	-79.124	0.066	0.022
-286.574	800.000	0.066	0.208
-285.559	-138.669	-0.118	0.013
-284.545	251.349	-0.053	-0.090
-283.530	-200.000	0.016	0.255
-282.516	-4.711	-0.073	0.050
-281.501	229.939	0.093	-0.152
-280.486	62.408	-0.132	0.132
-279.472	449.049	0.065	-0.142
-278.457	-168.875	0.199	0.007
-277.443	-149.471	-0.072	-0.006
-276.428	-144.635	0.170	0.016
-275.413	142.620	-0.046	-0.061
-274.399	-126.328	0.124	-0.018
-273.384	-100.428	0.039	0.010
-272.370	-113.814	0.231	0.045
-271.355	244.129	0.182	-0.304
-270.340	-37.353	0.205	0.109
-269.326	112.905	-0.075	-0.090
-268.311	-65.746	0.118	-0.047
-267.297	800.000	0.137	-0.395
-266.282	-102.332	-0.245	0.058
-265.267	67.548	-0.142	0.144
-264.253	4.623	0.092	0.067
-263.238	-200.000	0.089	0.485
-262.224	800.000	0.011	0.030
-261.209	97.353	-0.046	-0.053
-260.195	45.993	0.222	-0.204
-259.180	111.139	-0.201	-0.241
-258.165	-12.623	0.223	-0.145
-257.151	-10.561	-0.380	0.250
-256.136	609.249	0.080	-0.198
-255.122	-200.000	-0.015	0.300
-254.107	-169.504	-0.238	0.009
-253.092	800.000	0.121	0.350
-252.078	114.952	0.186	-0.225
-251.063	514.355	-0.054	-0.126
-250.049	800.000	-0.098	0.294
-249.034	800.000	0.109	-0.422
-248.019	-68.666	0.186	-0.071
-247.005	-8.838	-0.318	0.212
-245.990	171.033	-0.150	-0.214
-244.976	-200.000	0.008	0.192
-243.961	-200.000	0.020	-0.146
-242.946	49.775	-0.251	-0.235
-241.932	-25.190	0.136	-0.080
-240.917	-98.986	0.105	-0.027
-239.903	800.000	0.086	0.290
-238.888	11.625	-0.196	0.149
-237.873	-74.903	0.316	-0.112
-236.859	32.105	0.202	-0.173
-235.844	-200.000	-0.062	-0.334
-234.830	-38.049	-0.187	0.098
-233.815	-200.000	0.089	-0.000
-232.800	800.000	0.078	-0.222
-231.786	211.949	0.127	-0.199
-230.771	63.131	-0.146	-0.145
-229.757	209.531	0.051	-0.079
-228.742	-107.208	-0.322	0.070
-227.727	86.163	-0.003	0.003
-226.713	-111.259	0.471	-0.096
-225.698	490.417	-0.074	0.167
-224.684	-200.000	0.015	0.082
-223.669	174.521	0.186	0.267
-222.655	-17.918	0.165	-0.103
-221.640	-63.847	0.303	0.123
-220.625	800.000	-0.122	0.456
-219.611	36.176	-0.305	0.267
-218.596	-200.000	-0.012	0.072
-217.582	-193.297	0.157	0.001
-216.567	-200.000	-0.010	0.076
-215.552	523.024	0.092	0.215
-214.538	-110.893	-0.238	0.049
-213.523	49.108	0.164	0.153
-212.509	100.739	-0.133	-0.153
-211.494	-200.000	0.024	0.346
-210.479	-81.552	0.111	0.036
-209.465	10.829	0.125	0.094
-208.450	106.050	0.166	0.195
-207.436	527.175	-0.010	0.024
-206.421	14.903	-0.070	0.055
-205.406	33.743	0.390	0.337
-204.392	-15.984	0.202	0.128
-203.377	-200.000	-0.043	0.203
-202.363	194.352	0.083	0.124
-201.348	760.795	-0.053	0.142
-200.333	42.602	0.248	0.224
-199.319	-200.000	0.001	0.081
-198.304	436.725	-0.082	-0.177
-197.290	69.574	-0.238	-0.244
-196.275	-49.340	0.236	-0.112
-195.260	61.744	-0.065	0.064
-194.246	323.526	0.027	0.052
-193.231	-139.941	-0.184	0.019
-192.217	-200.000	0.077	0.375
-191.202	747.832	0.062	0.167
-190.187	2.874	-0.081	-0.059
-189.173	-150.111	-0.286	0.022
-188.158	387.883	0.133	0.274
-187.144	800.000	-0.111	0.397
-186.129	-32.642	0.204	-0.112
-185.114	-62.640	0.168	-0.069
-184.100	-154.596	-0.077	-0.005
-183.085	800.000	-0.041	0.159
-182.071	213.757	0.059	0.092
-181.056	529.130	-0.109	0.255
-180.042	-200.000	-0.014	0.148
-179.027	-200.000	0.016	-0.358
-178.012	28.135	0.298	0.249
-176.998	174.687	-0.302	-0.433
-175.983	61.984	-0.035	0.034
-174.969	104.436	0.219	-0.255
-173.954	-91.640	-0.258	-0.073
-172.939	34.927	0.070	0.061
-171.925	-45.448	0.130	-0.064
-170.910	-88.211	0.241	0.072
-169.896	490.098	0.046	0.104
-168.881	-200.000	0.024	-0.236
-167.866	-44.971	-0.246	-0.121
-166.852	-200.000	-0.010	0.168
-165.837	333.163	0.086	0.164
-164.823	-68.045	0.372	-0.144
-163.808	-32.629	-0.223	-0.123
-162.793	363.616	-0.057	-0.113
-161.779	19.928	-0.027	-0.022
-160.764	-200.000	0.032	-0.149
-159.750	-95.545	-0.212	0.056
-158.735	701.366	-0.012	-0.032
-157.720	-96.882	-0.333	-0.087
-156.706	-200.000	-0.029	0.207
-155.691	121.957	0.138	-0.171
-154.677	27.900	-0.035	-0.029
-153.662	800.000	0.003	0.009
-152.647	-47.958	0.135	-0.065
-151.633	66.927	-0.123	0.124
-150.618	362.607	0.092	-0.183
-149.604	-172.728	0.350	-0.011
-148.589	-104.113	0.368	-0.085
-147.574	-136.690	-0.149	-0.017
-146.560	49.668	-0.158	-0.148
-145.545	109.931	0.070	0.083
-144.531	800.000	-0.027	0.110
-143.516	177.475	0.219	0.316
-142.502	-115.456	0.197	-0.037
-141.487	800.000	0.110	0.313
-140.472	-31.860	0.190	0.105
-139.458	-200.000	0.027	0.231
-138.443	59.530	-0.196	-0.191
-137.429	-94.435	0.238	-0.064
-136.414	-111.692	0.385	0.077
-135.399	82.085	-0.019	0.020
-134.385	800.000	-0.119	0.334
-133.370	46.096	-0.092	0.084
-132.356	385.398	-0.152	0.310
-131.341	184.878	0.069	0.101
-130.326	-104.974	-0.255	-0.058
-129.312	-200.000	-0.042	0.229
-128.297	-60.646	0.170	-0.071
-127.283	408.007	0.198	0.414
-126.268	-117.788	0.291	0.052
-125.253	-55.041	0.324	0.144
-124.239	17.075	0.281	0.220
-123.224	-200.000	0.007	-0.437
-122.210	34.678	0.236	-0.204
-121.195	800.000	0.103	0.417
-120.180	103.234	-0.036	0.042
-119.166	-99.148	-0.097	-0.024
-118.151	-200.000	-0.014	-0.118
-117.137	-84.186	-0.335	-0.105
-116.122	-32.426	0.107	-0.059
-115.107	-140.638	-0.044	-0.004
-114.093	-56.959	-0.112	0.049
-113.078	196.131	-0.054	0.081
-112.064	9.421	-0.339	0.254
-111.049	-200.000	0.012	-0.053
-110.034	800.000	0.108	-0.419
-109.020	-200.000	-0.028	-0.178
-108.005	616.332	0.078	-0.193
-106.991	-73.526	0.333	-0.120
-105.976	20.326	-0.064	0.051
-104.962	49.966	0.243	-0.227
-103.947	-65.774	-0.148	-0.059
-102.932	-58.706	0.409	-0.175
-101.918	800.000	-0.044	-0.135
-100.903	-200.000	0.013	0.337
-99.889	-120.763	0.140	-0.023
-98.874	311.450	0.073	-0.136
-97.859	-35.096	-0.035	0.019
-96.845	45.228	-0.377	-0.344
-95.830	-96.394	0.281	0.074
-94.816	800.000	0.167	-0.589
-93.801	-48.036	0.420	0.201
-92.786	92.086	-0.068	-0.075
-91.772	-46.990	0.218	0.105
-90.757	119.473	-0.167	-0.204
-89.743	-60.182	0.046	0.019
-88.728	25.975	-0.223	0.184
-87.713	-200.000	-0.027	0.206
-86.699	-21.028	-0.164	-0.099
-85.684	29.555	-0.126	-0.106
-84.670	-44.406	-0.216	0.107
-83.655	-17.130	0.287	-0.179
-82.640	155.331	-0.096	-0.131
-81.626	103.925	0.190	-0.220
-80.611	-57.389	-0.226	0.098
-79.597	-68.003	-0.096	0.037
-78.582	-117.888	0.119	-0.021
-77.567	3.693	0.402	0.289
-76.553	-200.000	-0.012	0.390
-75.538	336.474	-0.380	-0.729
-74.524	-15.257	-0.301	0.190
-73.509	-200.000	-0.038	-0.201
-72.494	-200.000	0.010	-0.098
-71.480	61.338	-0.113	0.111
-70.465	800.000	-0.100	-0.284
-69.451	800.000	0.070	0.281
-68.436	272.693	-0.074	-0.129
-67.422	-155.669	0.099	0.006
-66.407	42.188	-0.127	0.114
-65.392	-157.751	-0.051	0.003
-64.378	265.861	0.074	-0.128
-63.363	5.560	0.063	0.046
-62.349	-65.008	0.328	0.131
-61.334	38.090	-0.855	-0.751
-60.319	-162.753	0.412	0.020
-59.305	800.000	-0.287	-0.863
-58.290	107.770	0.600	0.705
-57.276	332.658	0.899	1.713
-56.261	-200.000	93.296	565.392
-55.246	555.249	1375.114	3266.027
-54.232	157.175	2563.046	3497.605
-53.217	114.504	2168.638	2606.502
-52.203	46.648	1628.268	1491.496
-51.188	38.426	1365.344	1200.436
-50.173	35.205	1322.954	1143.932
-49.159	56.951	1367.374	1314.514
-48.144	59.947	1385.281	1349.806
-47.130	38.587	1343.821	1182.300
-46.115	35.070	1327.031	1146.463
-45.100	34.897	1322.391	1141.379
-44.086	34.798	1320.092	1138.759
-43.071	34.804	1317.756	1136.732
-42.057	34.858	1315.490	1135.053
-41.042	34.693	1314.566	1133.234
-40.027	34.835	1312.648	1132.378
-39.013	34.844	1310.470	1130.508
-37.998	34.840	1308.359	1128.615
-36.984	34.887	1307.324	1127.958
-35.969	35.095	1304.981	1127.117
-34.954	35.007	1303.716	1125.457
-33.940	35.037	1302.756	1124.764
-32.925	35.068	1301.507	1123.821
-31.911	34.954	1299.892	1121.713
-30.896	35.060	1298.235	1120.858
-29.881	35.088	1297.014	1119.926
-28.867	35.046	1295.924	1118.696
-27.852	34.952	1294.494	1116.865
-26.838	35.105	1292.988	1116.415
-25.823	35.052	1292.070	1115.267
-24.809	35.005	1290.504	1113.601
-23.794	34.903	1289.297	1111.921
-22.779	34.968	1287.654	1110.838
-21.765	34.976	1286.338	1109.702
-20.750	35.024	1285.028	1108.808
-19.736	34.934	1284.173	1107.503
-18.721	34.857	1282.723	1105.768
-17.706	34.896	1281.299	1104.722
-16.692	34.933	1279.846	1103.636
-15.677	34.859	1279.528	1102.893
-14.663	34.925	1278.025	1101.934
-13.648	34.814	1277.628	1100.908
-12.633	34.900	1276.224	1100.147
-11.619	34.884	1275.362	1099.269
-10.604	34.844	1274.377	1098.146
-9.590	34.919	1273.467	1097.749
-8.575	34.856	1272.958	1096.906
-7.560	34.877	1271.997	1096.156
-6.546	34.833	1270.620	1094.672
-5.531	34.868	1269.981	1094.278
-4.517	34.860	1269.388	1093.681
-3.502	34.946	1268.499	1093.363
-2.487	34.799	1267.734	1091.820
-1.473	34.681	1262.885	1086.926
-0.458	31.924	1246.085	1056.916
0.556	25.799	1224.251	1001.823
1.571	19.984	1226.969	971.435
2.586	18.145	1240.521	971.641
3.600	17.478	1229.259	958.976
4.615	13.218	1158.464	881.003
5.629	5.487	1083.624	785.337
6.644	1.490	1063.120	750.699
7.659	1.175	1060.715	747.381
8.673	1.033	1059.697	745.900
9.688	1.192	1058.494	745.769
10.702	1.304	1056.760	745.031
11.717	5.773	1061.863	770.563
12.731	13.207	1071.957	814.585
13.746	17.364	1076.924	838.834
14.761	17.887	1077.153	841.515
15.775	17.127	1075.466	836.379
16.790	16.070	1073.366	829.475
17.804	15.418	1071.737	824.939
18.819	15.068	1070.480	822.181
19.834	14.819	1069.636	820.235
20.848	14.500	1068.998	818.108
21.863	14.298	1067.406	815.831
22.877	14.056	1067.348	814.527
23.892	14.176	1066.181	814.152
24.907	14.041	1065.861	813.176
25.921	14.048	1065.184	812.619
26.936	14.145	1064.372	812.402
27.950	14.166	1062.994	811.382
28.965	14.264	1061.534	810.672
29.980	14.234	1060.068	809.336
30.994	14.274	1059.335	808.898
32.009	14.258	1058.345	807.993
33.023	14.378	1057.169	807.607
34.038	14.356	1056.152	806.650
35.053	14.140	1055.707	805.196
36.067	14.206	1054.399	804.446
37.082	14.143	1054.340	804.023
38.096	14.249	1053.066	803.494
39.111	14.315	1051.871	802.828
40.126	14.124	1050.978	801.154
41.140	14.143	1049.873	800.335
42.155	14.150	1048.664	799.375
43.169	14.050	1047.957	798.287
44.184	14.111	1046.547	797.433
45.199	14.046	1046.009	796.640
46.213	14.127	1044.570	795.862
47.228	14.108	1043.846	795.152
48.242	14.179	1042.665	794.521
49.257	14.092	1042.227	793.698
50.271	14.207	1041.322	793.490
51.286	14.193	1040.072	792.398
52.301	14.261	1039.002	791.837
53.315	14.103	1038.476	790.617
54.330	14.213	1037.128	790.043
55.344	14.190	1036.363	789.281
56.359	14.205	1035.596	788.697
57.374	14.114	1034.882	787.650
58.388	14.184	1033.685	787.001
59.403	13.947	1033.183	785.429
60.417	14.112	1032.069	785.293
61.432	14.029	1031.695	784.547
62.447	14.055	1030.713	783.852
63.461	14.008	1029.708	782.799
64.476	14.043	1028.483	781.963
65.490	14.080	1027.797	781.545
66.505	13.941	1027.494	780.594
67.520	14.008	1027.107	780.543
68.534	14.115	1025.911	780.069
69.549	14.004	1024.934	778.736
70.563	14.080	1024.270	778.521
71.578	14.089	1023.491	777.900
72.593	14.052	1022.312	776.764
73.607	13.998	1022.276	776.412
74.622	14.022	1021.815	776.110
75.636	13.959	1020.952	775.091
76.651	13.859	1020.648	774.325
77.666	14.057	1019.382	774.218
78.680	14.050	1018.792	773.666
79.695	14.056	1018.112	773.110
80.709	14.182	1017.091	772.851
81.724	14.020	1016.939	771.916
82.739	14.170	1015.982	771.819
83.753	14.298	1014.776	771.427
84.768	14.312	1014.232	771.011
85.782	14.162	1014.170	770.201
86.797	14.269	1012.975	769.718
87.812	14.200	1011.890	768.508
88.826	14.079	1010.774	767.032
89.841	14.222	1009.720	766.827
90.855	14.217	1008.972	766.166
91.870	14.311	1007.757	765.607
92.884	14.352	1006.749	764.963
93.899	14.330	1006.355	764.494
94.914	14.289	1005.770	763.796
95.928	14.253	1005.346	763.241
96.943	14.268	1004.082	762.281
97.957	14.369	1003.144	761.963
98.972	14.297	1002.424	761.021
99.987	14.270	1001.510	760.137
101.001	14.262	1000.378	759.175
102.016	14.273	1000.134	758.969
103.030	14.286	999.108	758.182
104.045	14.413	997.802	757.703
105.060	14.316	997.422	756.906
106.074	14.181	996.769	755.729
107.089	14.160	995.275	754.436
108.103	14.138	994.805	753.915
109.118	14.085	993.709	752.776
110.133	14.218	992.764	752.596
111.147	14.114	992.042	751.513
112.162	14.179	991.307	751.183
113.176	14.285	990.198	750.753
114.191	14.198	990.197	750.294
115.206	14.314	989.045	749.876
116.220	14.344	988.016	749.167
117.235	14.284	987.219	748.224
118.249	14.242	986.388	747.339
119.264	14.136	985.624	746.218
120.279	14.251	984.669	745.948
121.293	14.238	983.951	745.278
122.308	14.257	983.061	744.625
123.322	14.116	982.306	743.354
124.337	14.198	981.166	742.792
125.352	14.236	980.223	742.183
126.366	14.348	978.739	741.490
127.381	14.221	978.267	740.503
128.395	14.299	976.835	739.700
129.410	14.309	976.496	739.424
130.424	14.297	975.065	738.222
131.439	14.329	974.392	737.788
132.454	14.337	973.895	737.380
133.468	14.434	972.907	736.998
134.483	14.348	971.944	735.823
135.497	14.369	971.229	735.307
136.512	14.490	970.121	734.937
137.527	14.244	969.467	733.294
138.541	14.272	968.997	732.997
139.556	14.254	968.327	732.344
140.570	14.326	967.669	732.101
141.585	14.476	966.424	731.752
142.600	14.392	965.492	730.612
143.614	14.472	964.400	730.073
144.629	14.525	963.961	729.906
145.643	14.539	962.912	729.112
146.658	14.430	962.169	728.005
147.673	14.332	961.234	726.809
148.687	14.307	960.363	725.975
149.702	14.442	959.491	725.838
150.716	14.313	958.546	724.499
151.731	14.348	958.113	724.261
152.746	14.352	957.593	723.823
153.760	14.319	956.833	723.037
154.775	14.361	956.774	723.113
155.789	14.476	955.836	722.839
156.804	14.561	954.718	722.299
157.819	14.627	953.916	721.910
158.833	14.743	953.060	721.704
159.848	14.596	952.317	720.440
160.862	14.554	951.820	719.822
161.877	14.507	950.996	718.931
162.892	14.500	949.574	717.762
163.906	14.442	948.986	717.004
164.921	14.609	948.091	716.982
165.935	14.459	947.549	715.866
166.950	14.536	946.179	715.095
167.964	14.581	945.340	714.593
168.979	14.557	944.683	713.928
169.994	14.721	943.776	713.881
171.008	14.679	943.139	713.156
172.023	14.605	942.651	712.408
173.037	14.770	941.556	712.222
174.052	14.771	940.859	711.636
175.067	14.530	940.760	710.470
176.081	14.594	940.528	710.504
177.096	14.662	939.112	709.661
178.110	14.713	938.294	709.197
179.125	14.641	938.255	708.801
180.140	14.591	937.697	708.103
181.154	14.743	937.154	708.274
182.169	14.682	936.673	707.590
183.183	14.772	936.140	707.507
184.198	14.704	935.199	706.446
185.213	14.850	934.532	706.495
186.227	14.943	933.395	705.967
187.242	14.918	933.338	705.754
188.256	15.035	932.287	705.390
189.271	14.990	931.449	704.505
190.286	14.740	931.117	703.139
191.300	14.728	930.106	702.262
192.315	14.701	929.849	701.895
193.329	14.611	929.454	701.154
194.344	14.794	928.646	701.253
195.359	14.885	927.409	700.638
196.373	14.810	927.381	700.239
197.388	14.872	926.857	700.041
198.402	15.050	926.083	700.140
199.417	15.034	925.341	699.450
200.432	15.103	924.687	699.181
201.446	15.019	924.751	698.820
202.461	15.174	924.035	698.861
203.475	15.040	923.554	697.877
204.490	15.098	922.457	697.228
205.504	15.074	921.565	696.393
206.519	15.118	920.799	695.937
207.534	15.189	920.150	695.677
208.548	15.084	919.763	694.888
209.563	14.988	919.145	693.962
210.577	15.119	918.387	693.872
211.592	15.202	917.374	693.388
212.607	15.284	916.954	693.347
213.621	15.181	916.076	692.199
214.636	15.082	915.762	691.488
215.650	15.193	914.885	691.224
216.665	15.343	913.885	691.028
217.680	15.325	913.411	690.534
218.694	15.260	912.980	689.876
219.709	15.254	912.464	689.400
220.723	15.237	911.838	688.799
221.738	15.251	911.126	688.256
222.753	15.367	909.859	687.716
223.767	15.376	909.486	687.409
224.782	15.423	909.150	687.286
225.796	15.447	908.831	687.082
226.811	15.453	907.854	686.309
227.826	15.383	907.740	685.875
228.840	15.422	906.179	684.792
229.855	15.412	905.855	684.445
230.869	15.432	904.880	683.731
231.884	15.446	904.563	683.487
232.899	15.403	903.798	682.674
233.913	15.274	903.276	681.694
234.928	15.292	902.699	681.273
235.942	15.440	901.736	681.086
236.957	15.429	901.261	680.622
237.972	15.401	900.545	679.910
238.986	15.440	899.626	679.313
240.001	15.525	899.116	679.213
241.015	15.610	898.296	678.875
242.030	15.519	898.178	678.358
243.045	15.562	897.463	677.930
244.059	15.458	897.200	677.252
245.074	15.595	896.507	677.224
246.088	15.544	895.624	676.288
247.103	15.569	895.020	675.877
248.117	15.638	894.955	676.045
249.132	15.732	894.190	675.785
250.147	15.804	893.169	675.242
251.161	15.805	892.401	674.607
252.176	15.840	891.767	674.206
253.190	15.867	891.236	673.853
254.205	15.779	890.481	672.873
255.220	15.971	889.865	673.115
256.234	15.944	889.201	672.442
257.249	15.880	888.707	671.756
258.263	16.097	887.683	671.785
259.278	16.096	886.966	671.181
260.293	16.090	886.681	670.880
261.307	16.154	886.076	670.617
262.322	16.190	885.037	669.916
263.336	16.096	884.541	669.108
264.351	16.111	883.685	668.462
265.366	16.066	883.296	667.929
266.380	16.179	882.607	667.797
267.395	16.119	882.156	667.160
268.409	16.073	881.304	666.274
269.424	16.130	880.230	665.628
270.439	16.280	879.793	665.829
271.453	16.188	879.156	664.925
272.468	16.013	878.850	663.946
273.482	16.162	878.002	663.834
274.497	16.215	877.425	663.546
275.512	16.068	876.962	662.561
276.526	16.270	876.691	663.089
277.541	16.189	876.204	662.344
278.555	16.258	875.491	662.017
279.570	16.364	874.564	661.676
280.585	16.246	873.908	660.658
281.599	16.313	873.300	660.403
282.614	16.279	872.510	659.613
283.628	16.343	871.841	659.297
284.643	16.340	871.524	658.989
285.657	16.315	870.618	658.148
286.672	16.340	870.173	657.849
287.687	16.371	869.462	657.375
288.701	16.489	868.462	657.019
289.716	16.343	868.395	656.345
290.730	16.548	867.803	656.635
291.745	16.442	867.338	655.811
292.760	16.387	866.758	655.104
293.774	16.658	865.706	655.298
294.789	16.541	865.197	654.403
295.803	16.393	864.634	653.347
296.818	16.456	863.908	652.983
297.833	16.536	863.208	652.705
298.847	16.509	862.386	651.921
299.862	16.701	861.685	652.075
300.876	16.556	861.457	651.286
301.891	16.683	860.448	650.956
302.906	16.611	860.488	650.649
303.920	16.664	859.987	650.420
304.935	16.695	859.103	649.810
305.949	16.695	858.761	649.494
306.964	16.664	858.053	648.784
307.979	16.850	856.846	648.525
308.993	16.833	856.901	648.444
310.008	16.840	855.776	647.564
311.022	16.871	855.582	647.475
312.037	16.830	855.084	646.886
313.052	16.656	854.512	645.731
314.066	16.781	854.058	645.809
315.081	16.770	853.187	645.051
316.095	16.792	852.503	644.559
317.110	16.912	852.251	644.769
318.125	16.943	851.692	644.406
319.139	16.804	851.283	643.514
320.154	16.987	850.814	643.795
321.168	16.796	850.706	642.932
322.183	16.901	849.801	642.589
323.197	16.956	849.136	642.238
324.212	16.916	848.800	641.775
325.227	16.933	847.972	641.158
326.241	16.876	847.783	640.740
327.256	17.010	846.973	640.577
328.270	17.037	846.303	640.115
329.285	16.971	845.838	639.458
330.300	16.959	845.475	639.083
331.314	16.957	844.872	638.564
332.329	16.942	844.257	637.984
333.343	17.004	843.838	637.845
334.358	17.009	843.373	637.455
335.373	16.973	843.112	637.068
336.387	17.114	842.565	637.126
337.402	17.192	842.361	637.211
338.416	17.113	842.103	636.662
339.431	17.176	841.309	636.241
340.446	17.155	841.115	635.959
341.460	17.236	840.686	635.882
342.475	17.172	840.829	635.695
343.489	17.345	839.811	635.515
344.504	17.317	839.391	635.036
345.519	17.413	839.262	635.241
346.533	17.321	838.459	634.235
347.548	17.392	838.041	634.125
348.562	17.293	837.136	633.017
349.577	17.182	837.254	632.636
350.592	17.275	836.566	632.407
351.606	17.372	835.596	631.979
352.621	17.340	834.907	631.282
353.635	17.388	834.041	630.748
354.650	17.472	833.436	630.548
355.665	17.389	832.886	629.766
356.679	17.320	832.366	629.064
357.694	17.481	831.438	628.903
358.708	17.466	831.402	628.762
359.723	17.418	830.683	627.987
360.738	17.475	830.383	627.913
361.752	17.541	829.494	627.431
362.767	17.723	828.326	627.159
363.781	17.640	827.898	626.475
364.796	17.750	827.786	626.740
365.810	17.615	827.549	626.009
366.825	17.674	827.162	625.877
367.840	17.730	826.456	625.493
368.854	17.651	825.715	624.588
369.869	17.676	825.231	624.257
370.883	17.689	825.388	624.369
371.898	17.742	824.910	624.147
372.913	17.866	823.944	623.812
373.927	18.000	823.459	623.878
374.942	17.814	823.194	622.944
375.956	17.962	823.290	623.504
376.971	18.013	822.325	622.904
377.986	17.970	822.246	622.633
379.000	17.901	821.831	622.011
380.015	17.893	821.393	621.594
381.029	17.925	820.793	621.203
382.044	17.976	819.988	620.724
383.059	18.001	819.521	620.405
384.073	18.035	819.003	620.082
385.088	18.019	818.067	619.260
386.102	17.986	817.912	618.970
387.117	17.933	817.294	618.256
388.132	18.121	816.676	618.413
389.146	18.035	816.133	617.636
390.161	18.123	815.518	617.435
391.175	18.111	815.175	617.075
392.190	18.051	814.637	616.398
393.205	18.010	814.430	616.037
394.219	18.011	813.818	615.525
395.234	18.117	813.736	615.789
396.248	18.002	813.319	615.006
397.263	17.983	812.613	614.348
398.278	18.077	812.620	614.639
399.292	18.100	812.120	614.287
400.307	18.155	811.230	613.758
401.321	18.076	810.835	613.123
402.336	18.252	810.138	613.170
403.350	18.121	809.860	612.439
404.365	18.130	809.546	612.179
405.380	18.190	809.108	612.007
406.394	18.286	808.616	611.925
407.409	18.313	807.954	611.465
408.423	18.286	807.668	611.098
409.438	18.196	807.506	610.599
410.453	18.377	806.756	610.625
411.467	18.346	806.559	610.312
412.482	18.451	806.194	610.354
413.496	18.436	805.638	609.827
414.511	18.479	805.459	609.791
415.526	18.532	805.064	609.627
416.540	18.450	804.646	608.964
417.555	18.648	803.686	608.885
418.569	18.495	803.532	608.173
419.584	18.560	803.015	607.959
420.599	18.590	802.580	607.682
421.613	107.593	1286.522	1449.585
422.628	92.662	1357.030	1449.690
