DTS Sentinel unit serial number:	SN413079Multiplexer serial number:	ORYXHardware model number:	OX4-SRSoftware version number:	ORYX F/W v4.00 Oryx Data Collector v3.7.2.0data status	okinstallation	princeton_trtdifferential loss correction	single-endedforward channel	channel 1reverse channel	N/Adate	2019/09/13time	13:46:35forward acquisition time	60.00reverse acquisition time	0.00gamma	496.2192k internal	0.2303k external	0.2303temperature offset calibration	1.0163default loss term (dB/km)	0.3790temperature slope calibration	1.0000multiplexer offset coefficient	1.0000multiplexer slope coefficient	1.0000fibre end	0.00T internal ref (°C)	35.12T ext. ref 1 (°C)	4.57T ext. ref 2 (°C)	30.96length (m)	temperature (°C)	Stokes	anti-Stokes-747.200	-19.776	-0.232	0.146
-746.185	10.049	0.269	0.209
-745.171	8.469	0.187	0.143
-744.156	-200.000	0.047	0.320
-743.142	-200.000	0.116	-0.000
-742.127	-95.024	0.035	0.010
-741.112	179.761	0.146	0.218
-740.098	-165.814	0.276	-0.012
-739.083	737.654	0.069	0.188
-738.069	-200.000	0.041	0.405
-737.054	439.118	-0.115	0.255
-736.039	-158.660	0.146	0.009
-735.025	-4.858	-0.185	-0.130
-734.010	-143.078	-0.383	-0.038
-732.996	62.531	0.215	-0.219
-731.981	-98.987	-0.188	-0.049
-730.966	-85.933	-0.119	0.038
-729.952	-70.502	-0.250	-0.096
-728.937	-48.565	-0.093	-0.046
-727.923	-18.083	-0.086	-0.055
-726.908	-82.898	0.019	-0.006
-725.894	146.580	-0.334	-0.457
-724.879	-200.000	-0.013	-0.278
-723.864	-46.772	-0.041	-0.021
-722.850	11.249	-0.259	-0.202
-721.835	655.979	0.085	-0.223
-720.821	-200.000	-0.011	-0.111
-719.806	102.560	-0.145	-0.173
-718.791	580.626	0.050	-0.125
-717.777	800.000	0.050	-0.154
-716.762	-95.077	-0.346	0.095
-715.748	-88.284	-0.151	-0.046
-714.733	-73.504	-0.232	-0.086
-713.718	-28.032	0.104	-0.062
-712.704	-143.705	-0.497	-0.048
-711.689	-76.588	-0.264	-0.094
-710.675	800.000	0.084	0.295
-709.660	40.292	0.066	0.060
-708.645	800.000	-0.103	-0.314
-707.631	-156.077	-0.204	-0.013
-706.616	-200.000	-0.037	0.510
-705.602	800.000	0.035	-0.121
-704.587	-7.503	-0.224	-0.154
-703.572	3.474	0.134	0.099
-702.558	84.890	-0.179	0.199
-701.543	-121.357	-0.244	0.041
-700.529	78.607	0.220	-0.239
-699.514	255.225	0.083	-0.144
-698.499	-0.524	-0.154	-0.111
-697.485	138.504	0.060	-0.080
-696.470	52.869	-0.124	-0.121
-695.456	-153.957	-0.339	0.024
-694.441	-200.000	-0.006	-0.514
-693.426	-200.000	0.014	-0.071
-692.412	254.187	-0.107	0.186
-691.397	-200.000	0.060	-0.399
-690.383	-72.277	-0.329	-0.124
-689.368	706.929	0.063	-0.170
-688.354	800.000	-0.065	-0.250
-687.339	800.000	0.039	0.120
-686.324	-95.252	-0.272	0.074
-685.310	-2.208	-0.247	-0.176
-684.295	800.000	0.045	0.165
-683.281	-36.056	-0.196	0.108
-682.266	-32.715	0.179	-0.101
-681.251	-200.000	0.035	-0.333
-680.237	-26.875	-0.183	-0.109
-679.222	800.000	0.069	-0.256
-678.208	-36.317	-0.219	-0.120
-677.193	530.250	0.063	0.152
-676.178	-63.988	0.099	-0.041
-675.164	-137.543	-0.420	0.048
-674.149	286.181	0.064	0.117
-673.135	262.878	0.104	0.183
-672.120	-144.487	0.363	-0.034
-671.105	800.000	-0.035	-0.115
-670.091	800.000	-0.030	-0.115
-669.076	-65.166	0.431	-0.177
-668.062	-109.756	0.174	-0.037
-667.047	230.795	-0.074	0.123
-666.032	-177.729	-0.478	0.012
-665.018	-200.000	-0.079	-0.558
-664.003	37.900	-0.216	0.195
-662.989	-20.421	-0.129	-0.080
-661.974	5.133	0.153	-0.114
-660.959	779.796	-0.058	0.160
-659.945	-63.216	-0.118	-0.050
-658.930	42.951	0.213	0.197
-657.916	-105.888	0.275	-0.063
-656.901	134.421	0.175	-0.230
-655.886	123.525	-0.243	-0.309
-654.872	-167.208	-0.081	-0.003
-653.857	146.892	-0.155	0.211
-652.843	800.000	0.071	0.203
-651.828	172.084	0.112	-0.163
-650.814	-151.671	-0.570	-0.043
-649.799	324.889	0.107	0.208
-648.784	7.837	0.117	0.089
-647.770	-200.000	-0.004	0.064
-646.755	86.627	-0.078	-0.087
-645.741	-200.000	0.007	0.163
-644.726	-200.000	0.011	-0.100
-643.711	-76.759	0.380	0.135
-642.697	-131.732	0.313	-0.042
-641.682	-0.516	-0.137	0.099
-640.668	-200.000	0.017	0.106
-639.653	-158.456	-0.109	-0.006
-638.638	-200.000	0.014	-0.236
-637.624	800.000	0.050	-0.209
-636.609	-100.591	-0.002	0.001
-635.595	-200.000	-0.011	-0.069
-634.580	-200.000	-0.002	0.035
-633.565	353.795	-0.072	-0.146
-632.551	-49.665	-0.123	-0.059
-631.536	-200.000	0.001	-0.198
-630.522	637.090	-0.092	0.236
-629.507	-53.438	-0.419	-0.194
-628.492	251.759	-0.099	0.171
-627.478	-143.411	-0.249	-0.024
-626.463	-200.000	0.008	0.174
-625.449	-86.113	0.147	-0.046
-624.434	20.817	-0.112	-0.092
-623.419	340.316	0.074	-0.146
-622.405	800.000	0.049	-0.206
-621.390	800.000	-0.063	-0.241
-620.376	-200.000	-0.054	0.276
-619.361	-161.398	-0.213	-0.011
-618.346	-30.420	0.299	-0.172
-617.332	35.929	0.092	-0.082
-616.317	-121.661	-0.085	0.014
-615.303	800.000	0.058	-0.180
-614.288	160.104	-0.287	0.406
-613.273	-89.831	-0.248	0.073
-612.259	28.149	0.293	0.251
-611.244	800.000	-0.100	0.443
-610.230	800.000	-0.052	0.226
-609.215	-143.291	0.075	0.007
-608.201	800.000	0.059	0.187
-607.186	423.730	0.128	-0.280
-606.171	-13.590	-0.074	-0.048
-605.157	-85.721	0.308	0.097
-604.142	73.822	-0.156	-0.166
-603.128	-143.147	-0.150	-0.015
-602.113	-100.386	0.205	0.051
-601.098	-48.273	0.239	-0.117
-600.084	-169.426	-0.202	0.007
-599.069	347.509	-0.038	0.075
-598.055	121.709	0.163	0.206
-597.040	335.183	-0.105	-0.206
-596.025	108.230	0.177	0.213
-595.011	-182.331	-0.355	0.007
-593.996	-53.413	0.029	0.013
-592.982	-141.352	0.309	-0.032
-591.967	-53.842	0.186	-0.086
-590.952	80.585	-0.083	0.091
-589.938	101.904	0.094	0.111
-588.923	61.936	-0.229	-0.232
-587.909	-95.707	-0.109	0.030
-586.894	-200.000	-0.007	-0.164
-585.879	-92.114	0.082	0.024
-584.865	800.000	-0.044	0.131
-583.850	149.135	-0.159	0.217
-582.836	784.989	-0.092	0.255
-581.821	723.552	-0.092	-0.249
-580.806	285.077	-0.061	-0.112
-579.792	139.041	-0.134	0.178
-578.777	-200.000	-0.029	0.130
-577.763	-28.768	0.077	0.045
-576.748	798.670	-0.146	0.407
-575.733	800.000	-0.075	-0.283
-574.719	-200.000	-0.000	0.016
-573.704	-41.123	-0.232	-0.121
-572.690	-92.190	-0.074	-0.021
-571.675	136.725	-0.225	0.297
-570.661	800.000	0.034	0.137
-569.646	800.000	0.018	0.075
-568.631	-34.388	0.027	-0.015
-567.617	-200.000	-0.024	-0.252
-566.602	-55.667	-0.158	0.072
-565.588	800.000	-0.044	-0.134
-564.573	176.739	-0.111	0.163
-563.558	-200.000	0.041	-0.272
-562.544	-169.418	0.036	-0.001
-561.529	43.204	0.140	-0.129
-560.515	73.370	-0.180	0.191
-559.500	-147.482	-0.152	-0.013
-558.485	-100.367	0.205	-0.051
-557.471	-35.258	-0.236	0.130
-556.456	-200.000	-0.004	-0.139
-555.442	25.875	0.343	0.289
-554.427	492.716	-0.037	0.086
-553.412	51.226	-0.148	0.142
-552.398	79.366	-0.141	-0.153
-551.383	-100.015	-0.068	-0.017
-550.369	15.567	-0.218	0.173
-549.354	216.302	0.137	0.219
-548.339	245.692	0.095	0.161
-547.325	-13.758	-0.064	-0.042
-546.310	-91.608	0.120	0.034
-545.296	-166.480	-0.121	-0.005
-544.281	112.598	-0.115	0.141
-543.266	126.103	0.116	0.148
-542.252	-200.000	-0.048	0.216
-541.237	80.276	-0.158	0.172
-540.223	-63.178	0.176	-0.073
-539.208	-85.891	-0.339	-0.106
-538.193	144.118	0.069	-0.093
-537.179	264.949	0.257	-0.453
-536.164	-129.804	-0.259	0.036
-535.150	800.000	0.073	0.289
-534.135	-134.455	-0.072	0.009
-533.121	-168.861	-0.209	-0.008
-532.106	-39.139	-0.117	0.062
-531.091	-42.880	0.330	0.169
-530.077	54.240	-0.198	0.193
-529.062	800.000	-0.052	0.170
-528.048	173.882	-0.113	0.165
-527.033	-125.435	-0.235	0.036
-526.018	50.638	0.157	-0.150
-525.004	-68.652	0.116	-0.045
-523.989	-200.000	-0.010	0.180
-522.975	12.261	-0.158	0.123
-521.960	800.000	-0.050	0.176
-520.945	88.891	-0.133	0.149
-519.931	-141.762	0.400	-0.041
-518.916	121.082	-0.221	0.277
-517.902	-77.087	0.259	0.091
-516.887	530.748	-0.069	-0.164
-515.872	-75.529	-0.239	0.086
-514.858	-139.712	0.150	0.016
-513.843	-11.310	0.207	-0.137
-512.829	62.114	0.340	-0.342
-511.814	-123.611	-0.050	0.008
-510.799	366.027	-0.091	-0.186
-509.785	-200.000	0.009	0.176
-508.770	800.000	-0.037	-0.104
-507.756	-52.820	-0.255	-0.119
-506.741	173.814	0.107	-0.156
-505.726	-53.078	-0.156	0.072
-504.712	-37.826	-0.278	-0.149
-503.697	164.088	0.128	-0.182
-502.683	-200.000	-0.014	0.232
-501.668	327.427	-0.222	-0.430
-500.653	116.333	-0.066	0.082
-499.639	-174.570	0.134	-0.004
-498.624	-0.174	0.315	-0.226
-497.610	-200.000	-0.007	0.126
-496.595	13.740	-0.165	0.129
-495.581	-78.793	-0.258	0.089
-494.566	-200.000	0.005	-0.269
-493.551	-200.000	-0.003	0.033
-492.537	-114.673	0.230	0.044
-491.522	92.344	0.236	0.269
-490.508	500.170	0.045	-0.105
-489.493	-127.690	-0.250	0.037
-488.478	9.492	-0.167	-0.127
-487.464	-52.041	-0.176	-0.083
-486.449	103.863	0.167	-0.198
-485.435	289.922	-0.117	0.215
-484.420	-200.000	0.047	0.321
-483.405	422.535	0.123	0.265
-482.391	-51.045	-0.187	-0.089
-481.376	-97.015	0.103	-0.027
-480.362	-176.405	0.162	0.004
-479.347	800.000	0.103	-0.290
-478.332	503.497	-0.133	-0.310
-477.318	66.497	0.169	-0.173
-476.303	-107.122	-0.167	0.037
-475.289	-149.661	0.133	0.011
-474.274	26.317	-0.139	0.117
-473.259	-67.902	0.218	0.086
-472.245	1.698	-0.362	-0.263
-471.230	-200.000	-0.031	0.152
-470.216	238.932	-0.253	0.424
-469.201	726.158	-0.069	-0.187
-468.186	800.000	0.079	-0.312
-467.172	-200.000	-0.029	-0.149
-466.157	27.201	-0.099	0.084
-465.143	-31.918	0.224	0.126
-464.128	-200.000	0.073	-0.376
-463.113	315.307	0.063	0.120
-462.099	23.379	0.171	0.141
-461.084	21.259	0.205	0.168
-460.070	-200.000	0.001	0.026
-459.055	-20.435	-0.374	-0.232
-458.040	-36.215	0.094	0.051
-457.026	800.000	0.052	-0.176
-456.011	-200.000	-0.020	-0.275
-454.997	573.401	-0.117	0.286
-453.982	481.876	0.160	0.366
-452.968	-2.400	-0.166	0.117
-451.953	217.408	0.074	-0.118
-450.938	-112.090	-0.251	-0.051
-449.924	13.567	-0.124	-0.097
-448.909	35.608	-0.055	0.049
-447.895	-68.190	0.305	0.120
-446.880	-159.699	0.232	-0.013
-445.865	-63.239	0.396	0.164
-444.851	-144.122	-0.104	0.010
-443.836	682.313	0.084	0.221
-442.822	-65.030	0.047	0.019
-441.807	143.043	0.186	-0.249
-440.792	1.217	0.307	-0.222
-439.778	-62.525	-0.176	-0.074
-438.763	-200.000	-0.027	-0.159
-437.749	-13.009	-0.064	-0.042
-436.734	800.000	0.059	0.255
-435.719	674.599	-0.085	0.223
-434.705	-6.083	0.324	-0.223
-433.690	-137.287	-0.339	-0.039
-432.676	-200.000	0.001	-0.265
-431.661	105.025	0.160	-0.190
-430.646	-200.000	0.013	0.269
-429.632	-200.000	-0.047	-0.312
-428.617	562.606	-0.031	0.076
-427.603	-70.269	-0.151	-0.058
-426.588	191.500	-0.106	0.161
-425.573	186.089	-0.154	0.231
-424.559	800.000	0.122	-0.344
-423.544	-200.000	0.085	-0.442
-422.530	-107.288	0.200	0.044
-421.515	-200.000	0.006	0.066
-420.500	40.825	0.022	0.020
-419.486	326.207	-0.071	-0.137
-418.471	-49.783	-0.104	-0.050
-417.457	800.000	0.086	-0.296
-416.442	502.534	-0.058	-0.135
-415.428	-114.800	-0.218	0.042
-414.413	101.049	0.153	-0.179
-413.398	-69.563	-0.211	0.081
-412.384	800.000	-0.066	-0.241
-411.369	-152.215	0.064	0.005
-410.355	800.000	-0.048	-0.191
-409.340	22.927	0.294	-0.242
-408.325	-200.000	0.035	-0.414
-407.311	-112.031	0.079	0.016
-406.296	25.168	-0.083	-0.069
-405.282	-200.000	0.035	0.308
-404.267	36.627	0.398	0.354
-403.252	99.375	-0.210	0.244
-402.238	-155.028	-0.058	-0.004
-401.223	-45.853	-0.080	-0.040
-400.209	15.642	0.084	0.066
-399.194	-200.000	-0.016	0.174
-398.179	-200.000	-0.003	-0.040
-397.165	365.949	-0.142	-0.287
-396.150	-56.044	-0.236	0.106
-395.136	800.000	-0.099	0.356
-394.121	-1.006	-0.162	0.115
-393.106	36.214	-0.025	0.022
-392.092	-173.754	0.084	-0.003
-391.077	-83.828	0.133	-0.043
-390.063	800.000	-0.090	0.293
-389.048	179.155	-0.277	0.407
-388.033	-67.743	-0.167	-0.066
-387.019	-11.421	0.222	-0.147
-386.004	-111.619	0.426	0.087
-384.990	53.573	-0.149	-0.144
-383.975	-10.390	-0.195	0.130
-382.960	-70.163	0.164	0.063
-381.946	-39.706	0.112	-0.059
-380.931	800.000	-0.043	-0.169
-379.917	360.105	0.034	-0.068
-378.902	117.133	-0.163	0.202
-377.888	-153.429	0.111	-0.008
-376.873	-200.000	-0.000	0.012
-375.858	-12.388	-0.146	0.096
-374.844	110.605	-0.075	-0.090
-373.829	-200.000	-0.018	-0.209
-372.815	-126.556	-0.318	0.047
-371.800	21.617	0.193	-0.158
-370.785	-108.967	-0.068	0.015
-369.771	-168.640	-0.343	-0.013
-368.756	-41.870	0.239	-0.123
-367.742	-160.907	0.446	0.024
-366.727	628.784	0.066	-0.169
-365.712	-200.000	-0.006	-0.106
-364.698	-200.000	-0.008	0.082
-363.683	128.733	-0.285	0.364
-362.669	800.000	-0.067	0.203
-361.654	-97.402	0.080	-0.021
-360.639	-153.665	0.297	-0.021
-359.625	6.835	-0.083	-0.062
-358.610	97.408	-0.236	-0.272
-357.596	100.713	-0.122	0.142
-356.581	300.414	-0.118	-0.218
-355.566	-29.767	-0.166	0.095
-354.552	-12.654	-0.114	0.074
-353.537	56.968	0.418	-0.409
-352.523	-4.262	0.196	0.136
-351.508	86.084	-0.155	0.171
-350.493	800.000	0.045	-0.136
-349.479	44.634	-0.248	-0.229
-348.464	562.095	-0.016	-0.039
-347.450	-77.007	-0.304	-0.106
-346.435	-137.205	0.136	-0.016
-345.420	800.000	0.055	0.167
-344.406	-157.611	0.192	-0.011
-343.391	43.302	-0.131	0.120
-342.377	-112.782	-0.082	-0.016
-341.362	-17.403	-0.304	-0.192
-340.348	-200.000	-0.001	0.185
-339.333	-200.000	0.057	-0.283
-338.318	-22.780	0.247	0.150
-337.304	-7.929	0.246	-0.166
-336.289	-35.169	0.039	-0.021
-335.275	283.215	0.089	-0.160
-334.260	99.337	0.153	0.178
-333.245	-200.000	-0.038	-0.252
-332.231	-128.888	0.164	0.023
-331.216	19.885	0.298	-0.240
-330.202	59.371	-0.077	0.076
-329.187	-61.964	0.243	-0.102
-328.172	35.190	-0.177	0.156
-327.158	400.949	-0.077	0.163
-326.143	-200.000	-0.060	0.266
-325.129	-199.954	-0.030	-0.000
-324.114	440.731	0.100	-0.219
-323.099	4.420	-0.328	0.241
-322.085	-200.000	0.027	-0.178
-321.070	73.446	0.162	-0.169
-320.056	800.000	-0.054	-0.162
-319.041	117.555	0.191	-0.236
-318.026	-37.082	-0.106	-0.057
-317.012	-14.911	0.120	0.077
-315.997	-171.942	-0.321	-0.010
-314.983	134.341	0.296	-0.385
-313.968	-183.845	-0.293	0.005
-312.953	80.783	0.047	-0.050
-311.939	94.251	0.106	-0.120
-310.924	800.000	-0.012	-0.043
-309.910	-63.272	0.077	0.032
-308.895	-46.644	-0.153	0.075
-307.880	421.162	0.083	-0.179
-306.866	-138.672	-0.130	0.014
-305.851	35.660	0.161	-0.142
-304.837	-5.489	0.170	-0.117
-303.822	301.233	0.019	0.035
-302.807	-200.000	0.018	0.159
-301.793	347.890	0.151	-0.298
-300.778	161.237	0.161	-0.225
-299.764	-167.475	0.161	0.006
-298.749	236.448	-0.217	0.359
-297.735	-200.000	-0.052	0.238
-296.720	-200.000	-0.030	-0.180
-295.705	19.864	0.188	0.152
-294.691	166.056	-0.051	-0.073
-293.676	139.373	-0.050	-0.066
-292.662	60.051	-0.245	0.242
-291.647	-200.000	-0.016	0.209
-290.632	-20.051	0.078	0.048
-289.618	-117.392	-0.332	0.060
-288.603	41.558	0.143	-0.130
-287.589	-135.174	0.113	-0.014
-286.574	-200.000	0.022	-0.282
-285.559	-200.000	-0.011	0.248
-284.545	-97.334	-0.087	-0.023
-283.530	-42.288	-0.299	-0.153
-282.516	38.632	0.219	0.196
-281.501	-16.192	-0.209	0.133
-280.486	-200.000	0.026	-0.198
-279.472	-106.493	-0.162	-0.036
-278.457	-88.603	-0.181	0.054
-277.443	-200.000	-0.017	0.101
-276.428	-115.557	-0.308	0.058
-275.413	146.049	-0.178	0.239
-274.399	35.044	0.265	0.232
-273.384	-95.123	-0.176	0.047
-272.370	105.432	0.079	0.093
-271.355	49.624	-0.259	-0.244
-270.340	-30.096	-0.276	0.157
-269.326	-95.162	0.134	-0.036
-268.311	-42.836	-0.305	-0.155
-267.297	-90.178	0.231	0.067
-266.282	-152.812	-0.513	0.036
-265.267	-200.000	-0.042	-0.297
-264.253	-200.000	-0.021	-0.110
-263.238	382.942	-0.224	0.461
-262.224	-57.135	0.225	0.099
-261.209	800.000	0.083	-0.275
-260.195	50.758	0.221	0.210
-259.180	800.000	-0.045	-0.142
-258.165	-58.177	0.391	-0.170
-257.151	-66.631	0.181	-0.072
-256.136	-38.360	0.120	0.064
-255.122	800.000	-0.045	-0.137
-254.107	-164.338	0.324	-0.015
-253.092	-22.722	0.029	-0.017
-252.078	145.625	-0.180	0.241
-251.063	138.290	0.073	0.095
-250.049	-200.000	0.013	0.192
-249.034	-38.221	0.394	0.209
-248.019	47.900	-0.398	0.371
-247.005	-93.355	-0.085	-0.024
-245.990	-97.228	0.108	0.028
-244.976	-200.000	-0.010	-0.188
-243.961	377.216	-0.163	0.333
-242.946	-200.000	-0.019	-0.536
-241.932	88.470	-0.157	0.174
-240.917	800.000	0.017	0.052
-239.903	23.579	0.157	0.129
-238.888	274.836	-0.058	0.102
-237.873	-200.000	0.000	0.059
-236.859	529.562	-0.097	0.228
-235.844	-81.234	-0.218	-0.072
-234.830	800.000	-0.054	0.162
-233.815	76.713	-0.035	0.037
-232.800	-102.351	-0.165	0.040
-231.786	-77.562	-0.226	-0.078
-230.771	375.068	0.144	-0.293
-229.757	-66.131	0.298	-0.118
-228.742	412.198	-0.135	-0.286
-227.727	-48.448	-0.062	0.030
-226.713	186.934	-0.208	-0.309
-225.698	194.041	0.175	-0.264
-224.684	77.627	0.060	-0.064
-223.669	162.748	0.092	-0.129
-222.655	-161.236	0.210	-0.011
-221.640	800.000	0.008	0.027
-220.625	78.350	0.166	-0.177
-219.611	-41.622	-0.202	0.104
-218.596	-33.423	-0.090	-0.050
-217.582	-56.022	0.292	-0.130
-216.567	-200.000	0.006	0.092
-215.552	228.577	-0.110	0.180
-214.538	-200.000	-0.088	0.426
-213.523	-120.796	0.271	0.046
-212.509	-188.054	0.272	0.003
-211.494	-132.657	-0.240	0.031
-210.479	-41.018	-0.192	-0.099
-209.465	-58.971	-0.133	0.057
-208.450	319.297	0.133	-0.252
-207.436	-54.965	0.197	0.089
-206.421	-59.110	0.227	-0.098
-205.406	-87.176	-0.110	0.033
-204.392	-200.000	-0.038	-0.169
-203.377	-179.161	0.107	-0.002
-202.363	-113.417	0.297	0.058
-201.348	709.920	0.090	0.238
-200.333	136.657	0.194	0.252
-199.319	31.870	-0.162	0.139
-198.304	16.853	0.199	-0.157
-197.290	499.052	-0.098	-0.225
-196.275	-122.576	0.128	0.021
-195.260	37.685	0.190	0.168
-194.246	687.742	-0.170	0.444
-193.231	420.150	-0.150	0.320
-192.217	800.000	0.037	-0.121
-191.202	-200.000	-0.011	-0.103
-190.187	-200.000	-0.004	-0.050
-189.173	-87.987	0.353	-0.106
-188.158	25.071	-0.068	-0.056
-187.144	27.267	-0.073	-0.061
-186.129	9.057	-0.145	-0.109
-185.114	443.922	-0.112	-0.244
-184.100	800.000	0.079	0.282
-183.085	800.000	0.094	-0.394
-182.071	-200.000	-0.005	0.228
-181.056	-36.099	-0.502	0.270
-180.042	39.050	0.195	0.174
-179.027	175.348	0.203	-0.294
-178.012	452.708	0.104	-0.229
-176.998	-152.758	0.231	-0.016
-175.983	-200.000	0.031	-0.250
-174.969	-200.000	0.038	-0.323
-173.954	204.968	0.110	0.170
-172.939	-98.128	-0.094	0.024
-171.925	10.261	0.210	-0.159
-170.910	-61.563	0.165	0.069
-169.896	-97.250	-0.245	0.064
-168.881	66.578	0.314	-0.318
-167.866	363.133	0.130	0.260
-166.852	800.000	0.036	0.126
-165.837	245.050	-0.070	-0.117
-164.823	800.000	-0.064	0.199
-163.808	105.212	0.188	-0.221
-162.793	-200.000	0.018	0.168
-161.779	-85.613	0.291	-0.090
-160.764	-50.827	0.123	0.058
-159.750	-121.839	-0.174	-0.029
-158.735	-10.620	0.432	-0.285
-157.720	800.000	0.062	0.171
-156.706	-14.779	-0.045	-0.029
-155.691	-90.902	0.329	0.094
-154.677	-84.243	0.121	0.038
-153.662	480.521	-0.081	0.183
-152.647	-126.677	0.138	-0.020
-151.633	-62.875	0.222	-0.091
-150.618	12.887	-0.055	0.042
-149.604	-139.964	0.187	-0.020
-148.589	23.916	0.099	-0.081
-147.574	-66.970	-0.253	0.099
-146.560	322.034	-0.069	-0.131
-145.545	212.417	0.195	0.307
-144.531	121.747	0.063	0.078
-143.516	-84.377	-0.112	0.035
-142.502	-47.504	-0.126	-0.061
-141.487	-131.654	0.116	-0.015
-140.472	-48.384	0.154	-0.074
-139.458	42.313	0.101	0.092
-138.443	476.197	0.051	0.115
-137.429	800.000	-0.044	0.121
-136.414	-200.000	0.021	0.096
-135.399	-200.000	0.010	-0.122
-134.385	-200.000	-0.020	-0.164
-133.370	-83.431	0.201	-0.064
-132.356	-152.580	-0.296	0.021
-131.341	19.390	-0.143	-0.114
-130.326	492.449	0.104	0.237
-129.312	-200.000	-0.019	-0.123
-128.297	289.792	0.229	0.413
-127.283	139.742	-0.027	-0.035
-126.268	-152.903	0.272	0.019
-125.253	545.748	-0.098	0.232
-124.239	171.923	0.099	-0.142
-123.224	-98.203	0.123	0.032
-122.210	-100.516	-0.164	-0.040
-121.195	-200.000	0.016	0.311
-120.180	-5.049	-0.320	0.219
-119.166	441.846	0.103	0.225
-118.151	-68.611	-0.012	0.005
-117.137	-55.602	0.076	0.034
-116.122	57.239	0.088	-0.085
-115.107	-200.000	-0.021	-0.198
-114.093	-63.629	0.384	0.157
-113.078	510.984	0.053	-0.124
-112.064	48.557	-0.026	0.024
-111.049	60.835	0.189	-0.186
-110.034	-200.000	-0.020	-0.132
-109.020	278.400	0.103	-0.182
-108.005	800.000	-0.076	-0.242
-106.991	260.896	-0.041	-0.070
-105.976	27.489	-0.148	0.124
-104.962	-41.211	0.257	0.132
-103.947	-15.841	-0.104	-0.066
-102.932	-72.813	0.402	-0.147
-101.918	-87.433	-0.117	-0.035
-100.903	-106.852	0.315	-0.069
-99.889	80.392	0.111	0.119
-98.874	83.790	0.221	0.239
-97.859	-35.664	-0.283	0.152
-96.845	-5.457	0.136	-0.093
-95.830	558.888	-0.059	-0.141
-94.816	-106.719	-0.124	-0.027
-93.801	-136.484	-0.174	0.020
-92.786	-118.252	0.160	0.028
-91.772	3.966	0.141	0.103
-90.757	100.243	0.240	0.276
-89.743	68.649	0.065	0.066
-88.728	207.744	-0.121	0.188
-87.713	-200.000	0.064	0.286
-86.699	-200.000	-0.006	-0.253
-85.684	-15.629	-0.247	-0.156
-84.670	-200.000	-0.008	-0.221
-83.655	4.866	-0.036	0.026
-82.640	-150.563	-0.169	-0.013
-81.626	76.956	0.204	0.215
-80.611	-200.000	-0.011	-0.176
-79.597	-163.289	-0.384	0.018
-78.582	80.007	0.119	-0.127
-77.567	-70.776	-0.156	-0.058
-76.553	-113.666	0.265	-0.051
-75.538	-200.000	0.005	-0.022
-74.524	-121.287	0.315	0.052
-73.509	183.249	-0.085	0.125
-72.494	336.315	0.075	-0.145
-71.480	-56.484	-0.075	0.033
-70.465	-39.509	0.165	0.086
-69.451	800.000	-0.054	0.191
-68.436	480.440	0.097	0.218
-67.422	-78.309	-0.110	0.037
-66.407	-50.603	0.093	0.044
-65.392	-200.000	-0.023	0.128
-64.378	-200.000	-0.033	0.208
-63.363	119.491	-0.008	-0.009
-62.349	800.000	0.088	0.242
-61.334	19.782	-1.121	-0.895
-60.319	191.122	0.374	0.559
-59.305	-200.000	-0.038	-0.961
-58.290	-17.133	0.809	0.506
-57.276	800.000	0.415	1.632
-56.261	-200.000	94.586	560.613
-55.246	638.826	1381.759	3483.938
-54.232	185.591	2604.406	3835.835
-53.217	123.285	2198.160	2731.250
-52.203	47.197	1647.951	1520.941
-51.188	38.689	1381.329	1222.061
-50.173	35.349	1338.895	1164.243
-49.159	55.559	1386.699	1331.106
-48.144	59.969	1405.146	1375.986
-47.130	38.997	1359.390	1204.350
-46.115	35.245	1341.504	1165.695
-45.100	35.005	1337.240	1160.491
-44.086	35.036	1334.490	1158.246
-43.071	35.022	1331.885	1155.853
-42.057	35.008	1329.529	1153.675
-41.042	35.050	1328.192	1152.726
-40.027	35.041	1326.624	1151.261
-39.013	35.085	1324.579	1149.704
-37.998	34.974	1322.929	1147.560
-36.984	35.103	1321.125	1146.728
-35.969	35.120	1319.174	1145.089
-34.954	35.155	1317.592	1143.878
-33.940	35.126	1315.977	1142.255
-32.925	35.185	1315.038	1141.747
-31.911	35.209	1313.357	1140.389
-30.896	35.193	1312.000	1139.069
-29.881	35.305	1310.353	1138.260
-28.867	35.323	1308.985	1137.132
-27.852	35.203	1307.371	1134.973
-26.838	35.177	1306.014	1133.594
-25.823	35.333	1304.863	1133.474
-24.809	35.204	1303.582	1131.558
-23.794	35.179	1301.622	1129.664
-22.779	35.201	1300.477	1128.753
-21.765	35.183	1299.444	1127.704
-20.750	35.244	1297.763	1126.560
-19.736	35.170	1296.818	1125.258
-18.721	35.093	1295.409	1123.542
-17.706	35.118	1294.452	1122.816
-16.692	35.020	1292.987	1120.927
-15.677	35.073	1292.185	1120.496
-14.663	35.042	1290.769	1119.044
-13.648	35.039	1290.186	1118.474
-12.633	35.063	1288.786	1117.358
-11.619	35.064	1287.671	1116.353
-10.604	35.085	1287.045	1115.886
-9.590	35.092	1286.105	1115.069
-8.575	35.053	1285.036	1113.869
-7.560	35.014	1284.747	1113.351
-6.546	35.095	1283.726	1112.889
-5.531	34.970	1282.281	1110.869
-4.517	35.083	1281.709	1110.986
-3.502	34.983	1281.067	1109.804
-2.487	35.075	1279.729	1109.131
-1.473	35.059	1275.795	1105.588
-0.458	33.746	1260.153	1084.491
0.556	31.701	1240.601	1040.743
1.571	27.286	1244.297	1019.079
2.586	25.610	1258.480	1021.101
3.600	23.938	1245.901	1001.396
4.615	17.959	1171.899	910.073
5.629	8.980	1095.742	805.928
6.644	4.938	1073.828	769.806
7.659	4.558	1071.181	765.967
8.673	4.378	1069.951	764.136
9.688	4.407	1068.406	763.107
10.702	4.927	1067.758	765.129
11.717	10.757	1075.757	799.563
12.731	19.125	1087.914	850.017
13.746	22.410	1090.682	868.331
14.761	21.953	1089.773	865.280
15.775	21.061	1087.763	859.217
16.790	19.978	1085.683	852.173
17.804	19.311	1084.430	847.832
18.819	18.989	1083.508	845.456
19.834	18.812	1082.700	843.881
20.848	18.776	1081.854	842.970
21.863	18.582	1081.053	841.317
22.877	18.521	1080.137	840.233
23.892	18.430	1080.000	839.603
24.907	18.349	1079.003	838.360
25.921	18.346	1077.429	837.048
26.936	18.332	1076.361	836.074
27.950	18.422	1074.985	835.372
28.965	18.602	1073.259	834.832
29.980	18.734	1072.039	834.450
30.994	18.645	1071.436	833.477
32.009	18.737	1070.314	832.976
33.023	18.658	1069.217	831.667
34.038	18.680	1067.740	830.550
35.053	18.514	1066.982	829.086
36.067	18.441	1066.033	827.920
37.082	18.429	1065.826	827.627
38.096	18.685	1064.714	827.925
39.111	18.699	1064.407	827.683
40.126	18.555	1062.755	825.630
41.140	18.254	1061.335	823.008
42.155	18.224	1059.775	821.581
43.169	18.115	1058.415	819.932
44.184	18.117	1058.052	819.589
45.199	18.039	1057.324	818.576
46.213	18.268	1056.327	818.828
47.228	18.538	1055.231	819.197
48.242	18.526	1054.475	818.479
49.257	18.427	1053.498	817.179
50.271	18.549	1052.854	817.187
51.286	18.628	1051.931	816.774
52.301	18.560	1051.196	815.809
53.315	18.267	1049.895	813.335
54.330	18.216	1048.608	812.025
55.344	18.170	1048.188	811.409
56.359	18.367	1046.450	810.921
57.374	18.248	1046.223	810.114
58.388	18.145	1045.317	808.853
59.403	18.036	1044.195	807.399
60.417	17.958	1043.361	806.311
61.432	18.072	1042.787	806.335
62.447	17.973	1041.817	805.048
63.461	17.892	1041.205	804.122
64.476	17.880	1040.093	803.138
65.490	17.838	1039.202	802.178
66.505	17.833	1038.670	801.674
67.520	17.862	1038.056	801.267
68.534	17.921	1037.131	800.756
69.549	17.874	1036.359	799.868
70.563	17.783	1035.512	798.718
71.578	17.647	1034.938	797.570
72.593	17.711	1033.477	796.671
73.607	17.711	1032.661	795.974
74.622	17.794	1032.251	795.971
75.636	17.738	1031.690	795.209
76.651	17.891	1030.892	795.239
77.666	17.700	1030.767	794.182
78.680	17.894	1029.502	794.036
79.695	17.938	1029.095	793.858
80.709	17.978	1028.587	793.581
81.724	18.117	1028.120	793.798
82.739	18.193	1026.924	793.154
83.753	18.447	1026.432	793.883
84.768	18.641	1026.182	794.516
85.782	18.720	1025.333	794.157
86.797	18.724	1024.043	793.105
87.812	18.544	1023.039	791.427
88.826	18.586	1022.204	790.902
89.841	18.561	1021.489	790.163
90.855	18.757	1020.746	790.423
91.870	18.744	1019.782	789.548
92.884	18.696	1018.742	788.450
93.899	18.712	1017.917	787.817
94.914	18.772	1017.246	787.504
95.928	18.728	1016.369	786.554
96.943	18.623	1015.404	785.256
97.957	18.528	1014.611	784.140
98.972	18.549	1014.122	783.786
99.987	18.678	1012.822	783.301
101.001	18.660	1011.740	782.313
102.016	18.490	1011.245	781.086
103.030	18.622	1010.471	781.020
104.045	18.603	1009.571	780.167
105.060	18.582	1008.367	779.075
106.074	18.234	1007.441	776.710
107.089	18.106	1005.929	774.896
108.103	18.179	1004.423	774.000
109.118	18.071	1003.894	773.033
110.133	17.913	1003.087	771.630
111.147	17.802	1002.302	770.454
112.162	18.007	1001.898	771.001
113.176	18.188	1001.189	771.204
114.191	18.258	1000.467	770.894
115.206	18.248	999.377	769.943
116.220	18.112	998.444	768.545
117.235	18.304	997.363	768.506
118.249	18.028	996.927	766.863
119.264	18.221	995.507	766.570
120.279	18.020	994.838	765.085
121.293	17.939	994.216	764.175
122.308	17.831	993.556	763.117
123.322	17.817	992.093	761.864
124.337	17.795	991.100	760.935
125.352	17.919	989.421	760.131
126.366	17.807	989.008	759.249
127.381	17.847	987.741	758.389
128.395	18.000	987.077	758.490
129.410	17.954	986.068	757.445
130.424	18.058	985.721	757.574
131.439	18.183	984.871	757.404
132.454	18.218	984.139	756.931
133.468	18.167	983.592	756.219
134.483	18.248	982.362	755.562
135.497	18.188	982.016	754.962
136.512	18.367	980.752	754.714
137.527	18.353	979.664	753.748
138.541	18.310	979.153	753.098
139.556	18.231	978.558	752.226
140.570	18.399	978.172	752.604
141.585	18.687	977.005	752.901
142.600	18.764	976.203	752.554
143.614	18.734	975.532	751.841
144.629	18.754	974.936	751.400
145.643	18.636	973.606	749.793
146.658	18.457	972.802	748.327
147.673	18.399	971.467	746.979
148.687	18.314	970.628	745.899
149.702	18.332	969.642	745.153
150.716	18.230	968.977	744.133
151.731	18.293	968.072	743.647
152.746	18.237	967.705	743.055
153.760	18.436	966.972	743.290
154.775	18.445	966.250	742.709
155.789	18.465	965.911	742.467
156.804	18.541	965.035	742.059
157.819	18.591	964.360	741.689
158.833	18.640	963.976	741.540
159.848	18.739	963.281	741.370
160.862	18.698	961.964	740.111
161.877	18.397	960.416	737.562
162.892	18.228	959.654	736.184
163.906	18.279	958.617	735.541
164.921	18.219	957.876	734.652
165.935	18.246	957.112	734.114
166.950	18.420	956.265	734.145
167.964	18.431	955.069	733.212
168.979	18.333	954.094	731.977
169.994	18.182	953.354	730.700
171.008	18.505	952.491	731.351
172.023	18.690	951.957	731.665
173.037	18.743	951.174	731.226
174.052	18.596	950.607	730.098
175.067	18.371	949.566	728.279
176.081	18.329	949.241	727.785
177.096	18.251	948.743	727.008
178.110	18.337	947.716	726.524
179.125	18.373	947.133	726.165
180.140	18.366	946.998	725.968
181.154	18.618	946.597	726.660
182.169	18.674	946.442	726.716
183.183	18.798	945.302	726.299
184.198	18.767	944.592	725.562
185.213	18.711	943.792	724.645
186.227	18.791	943.389	724.608
187.242	18.867	942.738	724.367
188.256	18.968	942.512	724.553
189.271	18.981	941.345	723.646
190.286	18.761	939.595	721.313
191.300	18.285	939.380	719.084
192.315	18.196	938.262	717.792
193.329	18.181	938.132	717.565
194.344	18.356	937.536	717.781
195.359	18.454	937.211	717.877
196.373	18.688	936.887	718.546
197.388	18.829	936.573	718.830
198.402	19.041	935.536	718.859
199.417	18.950	935.342	718.266
200.432	19.182	934.849	718.790
201.446	19.194	934.425	718.452
202.461	19.275	933.743	718.202
203.475	19.144	933.388	717.320
204.490	18.983	932.207	715.677
205.504	18.781	931.348	714.116
206.519	18.788	930.725	713.605
207.534	18.889	929.638	713.125
208.548	18.871	929.368	712.783
209.563	18.944	928.545	712.389
210.577	18.894	927.759	711.519
211.592	19.036	927.416	711.778
212.607	19.233	926.462	711.799
213.621	19.109	925.845	710.747
214.636	19.151	925.077	710.271
215.650	19.021	924.901	709.535
216.665	19.281	923.861	709.748
217.680	19.301	923.276	709.315
218.694	19.350	922.490	708.850
219.709	19.330	921.910	708.258
220.723	19.284	921.065	707.359
221.738	19.212	920.535	706.595
222.753	19.210	919.888	706.026
223.767	19.318	919.306	705.960
224.782	19.387	919.188	706.089
225.796	19.422	918.493	705.634
226.811	19.327	917.491	704.416
227.826	19.171	916.807	703.190
228.840	19.174	916.004	702.527
229.855	19.083	915.498	701.705
230.869	19.142	914.754	701.314
231.884	18.950	914.146	700.003
232.899	19.128	912.972	699.768
233.913	18.972	912.522	698.725
234.928	18.984	911.311	697.785
235.942	18.892	911.321	697.358
236.957	18.963	910.806	697.189
237.972	18.997	910.075	696.706
238.986	19.064	909.433	696.424
240.001	18.984	909.001	695.707
241.015	19.077	908.420	695.578
242.030	19.200	907.713	695.470
243.045	19.180	907.541	695.197
244.059	19.230	906.807	694.775
245.074	19.239	906.220	694.299
246.088	19.407	905.456	694.329
247.103	19.569	904.725	694.359
248.117	19.585	904.506	694.192
249.132	19.847	904.400	695.103
250.147	20.054	903.870	695.465
251.161	20.170	902.605	694.895
252.176	20.148	902.260	694.482
253.190	20.072	902.035	693.941
254.205	20.033	901.394	693.232
255.220	20.111	900.731	692.971
256.234	20.049	900.157	692.219
257.249	20.142	898.541	691.289
258.263	19.970	898.391	690.424
259.278	20.069	897.508	690.079
260.293	20.206	896.924	690.114
261.307	20.264	896.539	689.989
262.322	20.260	896.130	689.598
263.336	20.279	895.247	688.932
264.351	20.238	894.420	688.073
265.366	20.288	893.836	687.760
266.380	20.135	893.330	686.704
267.395	20.174	892.471	686.139
268.409	20.099	891.719	685.202
269.424	20.142	890.608	684.456
270.439	20.253	889.770	684.192
271.453	20.024	888.989	682.626
272.468	19.934	888.979	682.205
273.482	19.904	888.487	681.648
274.497	19.856	887.844	680.907
275.512	20.000	887.186	680.908
276.526	20.094	886.561	680.736
277.541	19.985	886.156	679.936
278.555	20.202	885.952	680.574
279.570	20.513	884.989	680.992
280.585	20.352	884.117	679.628
281.599	20.243	883.112	678.373
282.614	20.072	883.092	677.627
283.628	20.130	882.298	677.184
284.643	20.112	881.838	676.702
285.657	20.142	880.959	676.083
286.672	20.119	880.488	675.575
287.687	20.272	879.670	675.482
288.701	20.256	878.921	674.784
289.716	20.238	878.489	674.324
290.730	20.182	878.305	673.904
291.745	20.283	877.537	673.647
292.760	20.324	877.276	673.544
293.774	20.509	876.204	673.380
294.789	20.490	875.995	673.087
295.803	20.290	875.248	671.681
296.818	20.281	874.032	670.653
297.833	20.204	873.538	669.917
298.847	20.408	872.964	670.205
299.862	20.491	872.004	669.728
300.876	20.501	872.218	669.869
301.891	20.547	871.601	669.515
302.906	20.695	870.948	669.523
303.920	20.807	870.797	669.780
304.935	20.695	870.580	669.122
305.949	20.756	869.200	668.235
306.964	20.548	868.529	666.865
307.979	20.532	868.248	666.528
308.993	20.639	867.920	666.628
310.008	20.712	867.418	666.463
311.022	20.576	866.448	665.137
312.037	20.416	866.148	664.238
313.052	20.281	864.823	662.648
314.066	20.370	864.303	662.529
315.081	20.342	864.302	662.364
316.095	20.364	863.290	661.611
317.110	20.271	862.759	660.792
318.125	20.447	861.579	660.499
319.139	20.381	861.549	660.166
320.154	20.387	861.372	659.996
321.168	20.305	861.175	659.475
322.183	20.597	860.384	659.920
323.197	20.404	860.060	658.880
324.212	20.583	859.119	658.777
325.227	20.504	858.449	657.908
326.241	20.538	857.843	657.514
327.256	20.327	857.237	656.193
328.270	20.479	856.473	656.126
329.285	20.375	855.989	655.303
330.300	20.441	855.363	655.017
331.314	20.532	855.016	655.035
332.329	20.667	854.610	655.173
333.343	20.715	854.058	654.875
334.358	20.892	853.742	655.240
335.373	20.754	853.487	654.467
336.387	20.817	853.077	654.331
337.402	20.984	853.007	654.846
338.416	20.974	852.957	654.713
339.431	21.056	853.022	655.011
340.446	21.175	852.151	654.731
341.460	21.229	851.832	654.632
342.475	21.240	851.398	654.282
343.489	21.406	850.581	654.216
344.504	21.477	850.225	654.149
345.519	21.397	850.152	653.739
346.533	21.301	849.508	652.827
347.548	21.093	848.627	651.316
348.562	21.137	847.611	650.640
349.577	20.954	847.135	649.537
350.592	20.871	846.159	648.421
351.606	20.832	846.014	648.108
352.621	20.817	845.019	647.233
353.635	20.907	844.052	646.768
354.650	20.852	844.266	646.671
355.665	20.900	843.667	646.334
356.679	21.077	842.760	646.237
357.694	21.101	842.137	645.793
358.708	21.078	841.693	645.309
359.723	21.142	841.093	645.029
360.738	21.254	839.936	644.495
361.752	21.194	839.951	644.229
362.767	21.241	839.596	644.074
363.781	21.475	839.371	644.706
364.796	21.543	838.658	644.351
365.810	21.750	838.156	644.670
366.825	21.688	837.925	644.209
367.840	21.595	837.201	643.254
368.854	21.522	836.570	642.442
369.869	21.506	836.089	641.958
370.883	21.477	835.909	641.657
371.898	21.624	835.511	641.834
372.913	21.724	834.942	641.705
373.927	21.622	834.322	640.800
374.942	21.542	834.188	640.347
375.956	21.685	833.693	640.433
376.971	21.778	833.370	640.467
377.986	22.008	832.788	640.804
379.000	21.874	832.480	640.020
380.015	21.863	831.885	639.469
381.029	21.696	831.400	638.430
382.044	21.766	831.107	638.401
383.059	21.865	830.127	637.956
384.073	21.705	829.401	636.758
385.088	21.496	828.857	635.525
386.102	21.418	828.054	634.570
387.117	21.536	827.791	634.742
388.132	21.597	826.765	634.118
389.146	21.517	826.483	633.558
390.161	21.726	826.402	634.195
391.175	21.765	825.883	633.882
392.190	21.858	824.534	633.124
393.205	21.516	824.483	631.795
394.219	21.603	824.009	631.689
395.234	21.510	823.491	630.902
396.248	21.369	823.036	629.989
397.263	21.318	822.542	629.373
398.278	21.285	822.039	628.812
399.292	21.307	821.737	628.605
400.307	21.474	821.126	628.682
401.321	21.392	820.867	628.134
402.336	21.395	820.374	627.711
403.350	21.548	820.058	627.964
404.365	21.796	819.547	628.407
405.380	21.909	819.138	628.442
406.394	21.923	818.680	628.086
407.409	22.201	818.221	628.672
408.423	22.249	818.244	628.806
409.438	22.128	818.260	628.330
410.453	22.090	817.669	627.684
411.467	22.203	816.966	627.491
412.482	22.475	816.612	628.134
413.496	22.506	815.908	627.649
414.511	22.316	815.521	626.619
415.526	22.260	815.177	626.101
416.540	22.323	814.324	625.613
417.555	22.376	813.888	625.409
418.569	22.173	813.944	624.676
419.584	22.248	813.398	624.468
420.599	22.273	813.052	624.235
421.613	158.717	1370.043	1788.128
422.628	138.158	1451.233	1788.215
