DTS Sentinel unit serial number:	SN413079Multiplexer serial number:	ORYXHardware model number:	OX4-SRSoftware version number:	ORYX F/W v4.00 Oryx Data Collector v3.7.2.0data status	okinstallation	princeton_trtdifferential loss correction	single-endedforward channel	channel 1reverse channel	N/Adate	2019/09/15time	16:34:35forward acquisition time	60.00reverse acquisition time	0.00gamma	496.2192k internal	0.2292k external	0.2292temperature offset calibration	0.9935default loss term (dB/km)	0.3790temperature slope calibration	1.0000multiplexer offset coefficient	1.0000multiplexer slope coefficient	1.0000fibre end	0.00T internal ref (°C)	44.00T ext. ref 1 (°C)	5.61T ext. ref 2 (°C)	40.44length (m)	temperature (°C)	Stokes	anti-Stokes-747.200	382.079	-0.087	0.184
-746.185	712.187	-0.035	0.094
-745.171	-28.665	-0.279	-0.164
-744.156	-200.000	0.010	-0.091
-743.142	-60.154	-0.105	0.046
-742.127	212.785	0.208	0.336
-741.112	372.199	0.057	-0.118
-740.098	-200.000	0.073	0.397
-739.083	-90.921	-0.172	0.051
-738.069	137.832	-0.163	0.218
-737.054	-151.695	0.146	0.011
-736.039	68.832	-0.122	0.128
-735.025	-91.365	-0.229	0.067
-734.010	-50.394	-0.275	-0.133
-732.996	-200.000	0.005	-0.358
-731.981	-35.988	-0.185	-0.103
-730.966	-20.670	-0.347	-0.218
-729.952	-23.692	-0.312	0.191
-728.937	-135.072	-0.193	-0.024
-727.923	89.452	0.075	0.085
-726.908	179.113	-0.114	0.170
-725.894	170.450	-0.055	-0.081
-724.879	-107.349	-0.211	-0.047
-723.864	-0.119	0.042	0.031
-722.850	-200.000	0.005	0.192
-721.835	-59.895	-0.358	-0.157
-720.821	-194.145	-0.255	0.002
-719.806	-26.707	-0.034	0.020
-718.791	165.059	-0.116	0.168
-717.777	-80.667	-0.026	-0.009
-716.762	-56.677	0.186	-0.084
-715.748	-197.557	0.089	-0.001
-714.733	-47.404	-0.194	-0.096
-713.718	-149.493	0.064	-0.005
-712.704	-162.423	-0.080	0.004
-711.689	-133.097	-0.184	0.024
-710.675	-106.673	0.241	0.055
-709.660	454.888	-0.023	0.052
-708.645	130.169	-0.116	0.152
-707.631	-200.000	0.021	0.320
-706.616	66.675	0.216	-0.224
-705.602	-200.000	-0.066	0.364
-704.587	-69.419	0.247	0.097
-703.572	217.726	0.029	0.047
-702.558	149.208	0.102	0.141
-701.543	-76.501	0.258	-0.093
-700.529	-95.146	-0.484	0.133
-699.514	689.571	-0.038	-0.103
-698.499	316.126	-0.117	0.225
-697.485	-148.866	0.128	0.011
-696.470	-82.878	-0.101	0.033
-695.456	296.496	0.142	0.266
-694.441	652.577	0.052	-0.136
-693.426	156.355	0.039	-0.055
-692.412	-200.000	-0.005	0.095
-691.397	131.983	0.090	0.119
-690.383	-96.437	-0.255	-0.069
-689.368	-20.704	0.077	-0.049
-688.354	-183.953	-0.559	-0.010
-687.339	5.590	-0.155	0.117
-686.324	800.000	-0.079	0.226
-685.310	163.282	-0.237	0.341
-684.295	-45.185	-0.050	-0.025
-683.281	-92.625	-0.257	0.074
-682.266	21.255	-0.150	-0.124
-681.251	69.459	0.090	0.094
-680.237	-200.000	0.020	-0.106
-679.222	-13.876	-0.356	0.235
-678.208	104.350	-0.067	-0.080
-677.193	25.822	-0.092	-0.079
-676.178	57.509	0.191	0.191
-675.164	783.967	-0.076	-0.212
-674.149	-140.521	-0.114	-0.012
-673.135	-200.000	0.129	-0.000
-672.120	592.035	0.009	-0.022
-671.105	80.532	-0.169	0.186
-670.091	-200.000	-0.037	-0.232
-669.076	-41.647	0.239	-0.125
-668.062	-200.000	0.023	0.294
-667.047	800.000	-0.120	0.423
-666.032	-23.895	-0.283	0.173
-665.018	-200.000	-0.015	0.108
-664.003	-74.335	0.252	0.093
-662.989	-72.456	-0.383	0.145
-661.974	800.000	-0.020	0.066
-660.959	-111.520	0.081	-0.017
-659.945	108.068	-0.147	0.179
-658.930	800.000	-0.055	0.197
-657.916	88.600	0.077	-0.088
-656.901	209.887	-0.120	-0.192
-655.886	-200.000	0.008	-0.412
-654.872	-15.664	-0.083	-0.054
-653.857	-8.335	0.123	-0.084
-652.843	129.297	0.117	0.153
-651.828	131.982	0.043	0.057
-650.814	27.039	0.085	0.073
-649.799	617.650	0.082	-0.210
-648.784	800.000	0.109	-0.411
-647.770	700.135	-0.097	-0.259
-646.755	-200.000	0.031	0.314
-645.741	-19.630	-0.237	-0.149
-644.726	-155.148	0.369	-0.025
-643.711	-17.515	-0.065	0.042
-642.697	72.165	-0.136	0.145
-641.682	128.822	-0.117	-0.152
-640.668	2.795	0.247	0.183
-639.653	800.000	-0.051	0.214
-638.638	443.429	0.036	0.080
-637.624	60.458	-0.135	-0.137
-636.609	443.150	0.138	-0.308
-635.595	794.225	-0.067	0.189
-634.580	76.057	-0.204	0.220
-633.565	152.324	-0.127	0.176
-632.551	318.384	-0.130	0.250
-631.536	331.824	0.203	0.398
-630.522	463.451	-0.139	0.318
-629.507	10.832	0.220	0.171
-628.492	-58.791	-0.244	-0.108
-627.478	192.978	0.069	-0.106
-626.463	222.200	0.157	-0.257
-625.449	61.748	0.070	-0.071
-624.434	160.287	-0.127	-0.180
-623.419	800.000	-0.020	-0.083
-622.405	87.156	-0.081	-0.092
-621.390	124.782	0.247	-0.317
-620.376	527.745	0.064	-0.153
-619.361	316.884	0.192	0.369
-618.346	11.177	-0.146	-0.114
-617.332	58.844	-0.050	-0.050
-616.317	-88.135	0.234	0.072
-615.303	800.000	0.041	0.133
-614.288	-34.680	-0.245	-0.136
-613.273	-146.200	-0.059	0.005
-612.259	-163.071	0.115	0.006
-611.244	104.233	0.169	-0.203
-610.230	-132.249	0.159	0.021
-609.215	7.626	-0.123	-0.094
-608.201	-21.308	0.092	-0.057
-607.186	800.000	0.044	-0.191
-606.171	-113.120	0.143	0.029
-605.157	-200.000	0.015	-0.347
-604.142	410.753	0.082	-0.178
-603.128	60.786	-0.166	-0.167
-602.113	95.155	-0.143	-0.166
-601.098	800.000	-0.089	0.294
-600.084	-116.002	0.446	-0.085
-599.069	-116.007	-0.281	0.053
-598.055	800.000	0.113	-0.380
-597.040	-140.426	0.393	-0.042
-596.025	-200.000	0.020	-0.368
-595.011	-188.415	0.193	-0.002
-593.996	-6.512	-0.102	-0.070
-592.982	-54.157	0.181	-0.084
-591.967	-200.000	0.011	0.362
-590.952	800.000	0.078	0.262
-589.938	-118.423	0.275	0.050
-588.923	136.908	0.200	0.266
-587.909	-23.145	0.065	0.040
-586.894	202.604	0.035	-0.054
-585.879	520.076	0.078	-0.185
-584.865	-200.000	-0.015	0.255
-583.850	212.168	0.146	0.235
-582.836	-103.072	0.120	0.029
-581.821	516.121	-0.100	-0.237
-580.806	-200.000	0.028	-0.144
-579.792	-140.562	0.222	-0.023
-578.777	66.546	0.177	0.183
-577.763	528.082	-0.118	0.283
-576.748	116.410	0.219	0.273
-575.733	-200.000	-0.001	0.087
-574.719	-8.421	-0.241	0.165
-573.704	-200.000	-0.011	-0.135
-572.690	-200.000	-0.018	0.083
-571.675	-200.000	-0.029	-0.142
-570.661	96.472	0.107	-0.124
-569.646	-2.660	0.079	-0.057
-568.631	-65.160	-0.374	0.153
-567.617	35.726	-0.016	0.014
-566.602	95.274	-0.086	0.100
-565.588	800.000	-0.041	0.124
-564.573	470.472	0.085	0.195
-563.558	63.370	0.015	0.015
-562.544	800.000	-0.035	0.143
-561.529	160.126	0.217	-0.307
-560.515	-51.855	0.284	-0.134
-559.500	-146.158	0.073	-0.006
-558.485	3.547	-0.058	0.043
-557.471	-103.244	0.246	0.059
-556.456	-19.112	0.148	0.093
-555.442	-162.752	0.334	-0.017
-554.427	249.292	0.156	-0.269
-553.412	-200.000	-0.028	-0.275
-552.398	53.955	-0.143	-0.140
-551.383	55.407	-0.166	-0.163
-550.369	389.743	0.056	-0.119
-549.354	800.000	-0.144	-0.528
-548.339	246.702	0.184	-0.315
-547.325	-108.528	0.094	-0.021
-546.310	388.865	-0.118	-0.249
-545.296	-71.326	0.045	0.017
-544.281	-168.155	0.119	-0.005
-543.266	-69.487	0.291	-0.113
-542.252	800.000	0.040	-0.115
-541.237	-200.000	-0.017	-0.206
-540.223	214.397	0.055	0.089
-539.208	-63.348	-0.081	0.034
-538.193	41.866	-0.322	-0.296
-537.179	-149.617	-0.244	-0.020
-536.164	-117.190	0.123	-0.023
-535.150	200.964	0.067	-0.104
-534.135	-77.803	0.276	-0.097
-533.121	-11.361	0.245	0.164
-532.106	-114.926	0.206	-0.040
-531.091	101.178	0.135	-0.159
-530.077	-45.877	0.171	-0.086
-529.062	247.301	-0.096	0.165
-528.048	125.135	-0.287	0.367
-527.033	-169.122	0.056	0.002
-526.018	-37.400	-0.342	-0.185
-525.004	-130.478	-0.391	0.054
-523.989	-66.200	-0.039	-0.016
-522.975	25.675	-0.271	-0.229
-521.960	-59.898	-0.184	-0.080
-520.945	800.000	-0.064	-0.267
-519.931	83.450	-0.154	-0.170
-518.916	31.188	-0.270	-0.235
-517.902	662.569	-0.128	-0.334
-516.887	383.870	-0.113	0.237
-515.872	-120.927	-0.274	-0.047
-514.858	1.809	0.101	0.074
-513.843	-200.000	0.035	-0.229
-512.829	49.260	0.295	0.281
-511.814	-200.000	-0.009	-0.113
-510.799	87.335	-0.074	-0.083
-509.785	151.011	0.052	-0.072
-508.770	185.073	-0.225	0.339
-507.756	-25.458	0.203	0.122
-506.741	-119.280	-0.485	-0.086
-505.726	-168.885	-0.095	0.004
-504.712	800.000	-0.077	-0.324
-503.697	-125.776	0.367	0.056
-502.683	-200.000	0.014	0.414
-501.668	-48.003	0.035	-0.017
-500.653	-91.771	0.208	0.060
-499.639	193.259	-0.196	0.300
-498.624	-200.000	0.021	0.202
-497.610	-136.106	0.280	0.033
-496.595	179.900	-0.126	0.188
-495.581	-20.230	0.180	0.112
-494.566	65.910	-0.072	0.074
-493.551	95.099	0.296	0.342
-492.537	-118.675	0.063	0.011
-491.522	-38.826	-0.328	0.175
-490.508	326.468	-0.133	-0.258
-489.493	-73.137	0.225	0.083
-488.478	-52.073	-0.195	-0.092
-487.464	21.893	-0.050	0.041
-486.449	-186.403	0.247	0.004
-485.435	79.740	0.159	0.173
-484.420	-100.441	-0.015	-0.004
-483.405	384.568	-0.103	0.215
-482.391	-115.012	0.249	-0.048
-481.376	-14.880	0.300	0.195
-480.362	1.541	0.155	-0.113
-479.347	34.567	-0.288	0.254
-478.332	240.082	0.133	0.225
-477.318	40.735	0.074	0.068
-476.303	431.229	-0.059	0.129
-475.289	281.656	0.033	0.060
-474.274	18.992	0.080	0.065
-473.259	800.000	-0.048	0.192
-472.245	-134.231	-0.152	-0.019
-471.230	-200.000	-0.015	0.246
-470.216	-122.797	-0.501	-0.082
-469.201	-142.151	-0.052	0.005
-468.186	-151.379	-0.131	-0.010
-467.172	-70.569	-0.155	-0.059
-466.157	-92.225	0.241	-0.069
-465.143	342.900	-0.075	-0.149
-464.128	191.181	-0.120	0.183
-463.113	35.302	-0.037	-0.032
-462.099	-85.525	-0.153	-0.048
-461.084	427.556	-0.162	-0.355
-460.070	345.001	0.075	0.150
-459.055	243.667	-0.104	0.177
-458.040	-200.000	-0.054	0.422
-457.026	800.000	-0.103	-0.297
-456.011	0.345	0.112	-0.081
-454.997	50.937	0.241	0.231
-453.982	9.344	0.170	0.130
-452.968	38.617	-0.059	-0.053
-451.953	-200.000	0.008	-0.176
-450.938	-19.694	-0.299	-0.187
-449.924	-200.000	0.000	-0.077
-448.909	-154.352	-0.436	-0.030
-447.895	-200.000	0.012	0.103
-446.880	63.672	0.101	-0.102
-445.865	138.734	-0.127	-0.169
-444.851	279.084	0.081	0.146
-443.836	-200.000	0.078	0.363
-442.822	-135.937	0.158	-0.019
-441.807	-46.375	-0.126	-0.063
-440.792	-200.000	0.040	0.350
-439.778	-82.622	0.217	0.071
-438.763	181.384	0.142	-0.212
-437.749	-19.018	0.100	-0.063
-436.734	-43.896	-0.149	0.076
-435.719	45.022	-0.117	-0.109
-434.705	167.146	-0.157	0.225
-433.690	800.000	0.058	0.228
-432.676	28.890	0.109	0.094
-431.661	-76.678	0.144	0.051
-430.646	800.000	-0.037	0.125
-429.632	-178.795	-0.395	0.009
-428.617	475.627	-0.076	0.173
-427.603	-200.000	0.041	-0.193
-426.588	634.405	-0.022	0.055
-425.573	158.800	-0.316	-0.444
-424.559	-35.783	0.104	-0.057
-423.544	-3.640	-0.094	0.066
-422.530	-17.842	-0.168	0.106
-421.515	-200.000	-0.022	0.312
-420.500	-36.014	0.085	0.046
-419.486	-200.000	-0.009	-0.225
-418.471	-106.621	0.294	0.066
-417.457	-5.261	0.100	-0.070
-416.442	-200.000	-0.014	0.184
-415.428	-65.384	0.071	-0.029
-414.413	172.371	-0.150	0.218
-413.398	-164.752	-0.311	0.014
-412.384	-8.121	0.157	0.107
-411.369	-152.158	0.154	0.011
-410.355	800.000	0.089	0.318
-409.340	-200.000	0.007	0.106
-408.325	800.000	-0.017	-0.055
-407.311	-200.000	-0.041	-0.308
-406.296	430.489	-0.014	-0.032
-405.282	-137.921	0.162	0.018
-404.267	482.261	0.130	0.299
-403.252	-77.211	-0.057	0.020
-402.238	-150.287	-0.237	-0.018
-401.223	33.213	0.052	0.045
-400.209	632.893	0.097	0.248
-399.194	-121.480	0.048	-0.008
-398.179	546.729	0.140	-0.339
-397.165	-129.573	0.182	-0.025
-396.150	800.000	-0.061	-0.198
-395.136	-102.911	-0.379	-0.091
-394.121	-200.000	-0.356	0.001
-393.106	-18.061	-0.140	-0.089
-392.092	-200.000	-0.087	0.455
-391.077	800.000	-0.072	0.308
-390.063	220.552	-0.080	0.129
-389.048	2.084	0.024	-0.018
-388.033	800.000	-0.039	0.130
-387.019	-162.409	0.388	-0.019
-386.004	-144.889	0.158	-0.015
-384.990	-200.000	-0.024	-0.421
-383.975	218.269	-0.095	-0.152
-382.960	541.170	-0.067	0.162
-381.946	-87.030	0.163	0.050
-380.931	800.000	0.048	-0.154
-379.917	-118.117	0.135	0.024
-378.902	-200.000	-0.031	0.339
-377.888	527.065	-0.170	-0.405
-376.873	-200.000	-0.030	-0.311
-375.858	182.388	0.091	0.136
-374.844	250.672	-0.059	-0.101
-373.829	-117.560	0.031	0.006
-372.815	389.536	0.108	0.225
-371.800	-89.226	0.142	0.042
-370.785	257.200	-0.145	0.251
-369.771	-163.960	-0.486	-0.023
-368.756	47.519	0.126	-0.118
-367.742	325.125	-0.118	0.228
-366.727	-110.865	0.285	0.059
-365.712	-159.014	0.297	0.017
-364.698	800.000	-0.045	0.194
-363.683	214.083	-0.129	0.205
-362.669	30.014	-0.324	0.278
-361.654	257.985	0.107	-0.186
-360.639	2.413	0.313	-0.229
-359.625	-110.036	-0.171	-0.036
-358.610	70.345	0.202	0.210
-357.596	-56.230	0.204	-0.091
-356.581	800.000	0.059	-0.192
-355.566	-200.000	0.041	-0.199
-354.552	-53.577	-0.284	0.131
-353.537	-68.467	-0.327	-0.128
-352.523	-11.270	0.148	0.099
-351.508	-82.317	-0.151	-0.049
-350.493	800.000	-0.024	0.074
-349.479	-110.165	0.142	-0.030
-348.464	-106.891	-0.197	-0.044
-347.450	-46.336	-0.419	0.208
-346.435	800.000	0.039	0.141
-345.420	-22.377	0.051	-0.031
-344.406	-200.000	0.021	0.319
-343.391	-200.000	-0.016	0.274
-342.377	201.738	-0.121	0.188
-341.362	602.042	0.034	0.086
-340.348	255.514	-0.195	-0.338
-339.333	-18.036	-0.135	-0.085
-338.318	120.376	0.096	0.121
-337.304	-17.960	-0.277	0.175
-336.289	800.000	0.040	-0.148
-335.275	-33.854	0.190	-0.105
-334.260	-129.627	0.140	-0.019
-333.245	130.266	-0.167	0.216
-332.231	521.226	0.071	0.168
-331.216	-101.688	0.384	0.094
-330.202	-106.470	0.258	-0.058
-329.187	-148.751	0.617	-0.050
-328.172	-200.000	0.005	-0.206
-327.158	743.797	-0.113	0.307
-326.143	-200.000	-0.039	0.223
-325.129	800.000	0.097	0.386
-324.114	-97.216	-0.296	-0.078
-323.099	800.000	-0.048	-0.152
-322.085	800.000	-0.102	-0.414
-321.070	1.463	0.269	0.195
-320.056	322.010	-0.048	0.092
-319.041	92.802	-0.230	-0.261
-318.026	-200.000	-0.014	0.213
-317.012	479.110	0.101	-0.229
-315.997	-89.809	0.358	-0.105
-314.983	261.594	0.128	-0.223
-313.968	-25.195	0.219	0.130
-312.953	800.000	0.107	0.375
-311.939	-132.026	0.245	0.032
-310.924	-92.535	-0.428	-0.121
-309.910	405.210	-0.091	-0.192
-308.895	-200.000	0.042	-0.267
-307.880	-200.000	0.070	0.592
-306.866	-62.943	0.256	0.107
-305.851	769.816	-0.059	-0.163
-304.837	-200.000	-0.010	0.109
-303.822	-11.526	0.375	0.248
-302.807	-154.528	-0.330	0.022
-301.793	-200.000	-0.029	0.156
-300.778	800.000	0.016	-0.063
-299.764	55.182	0.105	-0.102
-298.749	-200.000	0.009	-0.086
-297.735	-61.045	0.291	0.124
-296.720	-25.355	0.276	-0.164
-295.705	-2.640	0.178	0.126
-294.691	-53.543	-0.149	-0.068
-293.676	119.010	0.201	-0.250
-292.662	646.422	0.174	-0.447
-291.647	800.000	-0.043	0.179
-290.632	32.796	-0.179	0.156
-289.618	372.786	0.060	0.123
-288.603	800.000	-0.148	-0.502
-287.589	800.000	-0.091	-0.266
-286.574	-200.000	-0.017	-0.287
-285.559	-200.000	0.041	-0.193
-284.545	-81.591	-0.286	-0.094
-283.530	800.000	-0.062	-0.175
-282.516	32.158	-0.041	0.036
-281.501	85.099	0.064	-0.071
-280.486	800.000	0.064	0.211
-279.472	-39.100	-0.057	0.030
-278.457	-134.463	0.148	-0.018
-277.443	-200.000	0.007	0.106
-276.428	-21.088	-0.158	-0.097
-275.413	-17.416	-0.200	-0.127
-274.399	-200.000	-0.143	-0.001
-273.384	800.000	-0.028	-0.088
-272.370	136.518	-0.143	0.188
-271.355	-200.000	-0.046	-0.368
-270.340	-126.466	0.124	-0.018
-269.326	35.605	-0.208	0.183
-268.311	-82.787	-0.220	0.072
-267.297	-77.470	0.233	-0.081
-266.282	-70.719	0.147	-0.056
-265.267	-12.599	-0.249	0.163
-264.253	182.131	-0.208	0.307
-263.238	-200.000	0.036	0.472
-262.224	-36.137	0.156	0.085
-261.209	49.792	0.121	-0.115
-260.195	270.228	0.120	-0.213
-259.180	800.000	-0.141	-0.401
-258.165	552.024	0.121	-0.291
-257.151	9.535	0.215	0.163
-256.136	-168.435	-0.121	0.005
-255.122	386.115	0.086	-0.178
-254.107	-77.474	-0.252	0.088
-253.092	-133.422	0.106	-0.013
-252.078	-200.000	-0.025	-0.196
-251.063	-85.501	-0.017	0.005
-250.049	-92.244	-0.100	0.028
-249.034	-82.040	-0.281	0.092
-248.019	156.581	0.156	0.217
-247.005	-188.423	0.132	0.002
-245.990	-200.000	-0.009	0.119
-244.976	18.091	-0.091	0.073
-243.961	200.988	-0.016	-0.025
-242.946	-89.115	0.275	-0.082
-241.932	-200.000	0.023	-0.238
-240.917	-200.000	-0.023	-0.179
-239.903	250.215	-0.125	-0.213
-238.888	37.482	-0.190	-0.169
-237.873	800.000	-0.045	0.159
-236.859	-138.752	-0.209	0.023
-235.844	-139.918	0.040	-0.004
-234.830	193.828	-0.202	0.307
-233.815	-160.160	-0.089	-0.005
-232.800	800.000	-0.058	-0.221
-231.786	-92.233	0.161	-0.046
-230.771	106.533	-0.042	-0.049
-229.757	137.167	0.167	-0.219
-228.742	139.719	-0.230	-0.304
-227.727	546.710	0.077	0.184
-226.713	92.572	-0.149	0.169
-225.698	-200.000	-0.000	-0.009
-224.684	-138.362	-0.338	-0.037
-223.669	33.644	0.135	-0.117
-222.655	308.184	-0.071	-0.133
-221.640	800.000	-0.067	-0.209
-220.625	115.242	-0.092	0.112
-219.611	-30.106	0.355	-0.202
-218.596	204.797	-0.116	0.181
-217.582	-148.768	-0.233	-0.019
-216.567	-103.891	0.184	0.043
-215.552	-22.554	0.155	-0.094
-214.538	387.276	0.059	0.122
-213.523	42.010	-0.054	0.049
-212.509	141.691	0.128	0.170
-211.494	148.361	0.123	0.167
-210.479	-200.000	-0.030	-0.254
-209.465	-74.139	0.447	-0.162
-208.450	-34.524	-0.239	0.131
-207.436	-57.801	-0.084	0.037
-206.421	535.463	-0.132	0.314
-205.406	-200.000	-0.028	-0.312
-204.392	-111.870	-0.077	0.016
-203.377	-154.764	0.265	0.018
-202.363	-200.000	0.006	0.038
-201.348	415.417	-0.045	0.096
-200.333	92.693	0.144	-0.163
-199.319	-61.085	0.013	0.006
-198.304	30.457	-0.102	0.087
-197.290	-200.000	0.062	0.388
-196.275	515.868	0.087	0.203
-195.260	17.079	0.122	0.097
-194.246	55.284	0.105	0.102
-193.231	-16.920	0.090	0.057
-192.217	-200.000	0.002	0.186
-191.202	-62.130	-0.041	-0.017
-190.187	800.000	0.048	-0.153
-189.173	-71.032	-0.148	-0.056
-188.158	-35.873	-0.063	0.034
-187.144	-113.319	-0.222	-0.044
-186.129	70.908	-0.141	0.147
-185.114	-11.028	-0.054	0.036
-184.100	-84.828	0.089	0.028
-183.085	-200.000	0.034	-0.372
-182.071	-162.325	-0.301	0.015
-181.056	-200.000	-0.031	0.273
-180.042	619.495	-0.037	-0.092
-179.027	800.000	0.069	-0.300
-178.012	-200.000	0.033	-0.182
-176.998	99.408	-0.217	-0.252
-175.983	181.940	-0.028	-0.041
-174.969	117.337	-0.207	-0.254
-173.954	28.455	0.114	-0.097
-172.939	370.633	0.108	-0.218
-171.925	-200.000	0.004	0.121
-170.910	302.581	-0.156	-0.288
-169.896	-153.393	0.381	-0.027
-168.881	55.282	-0.206	-0.200
-167.866	-114.895	-0.309	0.059
-166.852	92.840	0.073	-0.082
-165.837	-11.634	0.376	0.247
-164.823	46.753	0.230	0.214
-163.808	-108.660	-0.302	-0.065
-162.793	118.696	-0.103	0.127
-161.779	-200.000	-0.083	0.425
-160.764	-200.000	0.045	0.211
-159.750	-200.000	0.038	-0.255
-158.735	-200.000	-0.003	-0.097
-157.720	175.033	-0.118	-0.171
-156.706	369.900	-0.155	-0.313
-155.691	483.143	-0.096	0.219
-154.677	-100.138	-0.278	-0.069
-153.662	-38.629	-0.178	0.094
-152.647	-31.788	0.112	-0.063
-151.633	41.096	-0.068	0.062
-150.618	-146.528	0.202	-0.018
-149.604	-87.605	0.230	-0.069
-148.589	-200.000	-0.043	0.208
-147.574	181.402	-0.121	0.177
-146.560	800.000	-0.038	-0.133
-145.545	-67.809	-0.070	0.027
-144.531	636.167	-0.088	0.223
-143.516	-153.307	0.170	-0.012
-142.502	-86.216	0.195	0.060
-141.487	-110.375	-0.262	0.054
-140.472	-30.885	0.226	-0.128
-139.458	-49.010	-0.136	-0.065
-138.443	-73.359	-0.186	-0.068
-137.429	145.046	0.048	0.064
-136.414	-158.950	-0.111	0.006
-135.399	-200.000	-0.093	0.475
-134.385	160.788	-0.025	-0.034
-133.370	398.677	-0.116	-0.244
-132.356	-64.258	0.144	0.059
-131.341	-200.000	0.003	-0.118
-130.326	-200.000	-0.002	0.013
-129.312	-200.000	0.027	0.131
-128.297	-200.000	-0.018	0.099
-127.283	800.000	0.088	0.261
-126.268	119.504	0.183	-0.226
-125.253	12.437	0.189	0.145
-124.239	19.361	0.160	0.129
-123.224	-200.000	-0.010	0.074
-122.210	-167.394	-0.098	-0.004
-121.195	-173.015	-0.278	-0.009
-120.180	399.532	-0.088	-0.184
-119.166	-49.846	-0.078	-0.037
-118.151	800.000	0.066	0.273
-117.137	290.655	-0.120	0.219
-116.122	18.103	0.244	0.194
-115.107	-84.441	0.180	0.057
-114.093	-34.855	-0.343	0.187
-113.078	800.000	0.059	0.211
-112.064	-60.432	-0.228	-0.097
-111.049	43.666	0.188	-0.172
-110.034	-142.374	-0.286	0.028
-109.020	13.849	0.072	-0.056
-108.005	-200.000	-0.037	0.233
-106.991	344.345	-0.126	0.247
-105.976	-78.382	0.222	0.076
-104.962	-41.283	0.052	0.027
-103.947	-20.379	0.135	0.083
-102.932	126.351	0.061	0.077
-101.918	228.996	0.138	-0.225
-100.903	-33.182	0.333	-0.184
-99.889	-32.403	0.079	-0.044
-98.874	-74.763	-0.183	0.065
-97.859	-113.981	-0.121	0.024
-96.845	11.538	-0.227	0.173
-95.830	232.306	0.064	-0.105
-94.816	252.286	0.051	-0.087
-93.801	-23.855	0.127	-0.076
-92.786	93.550	0.217	0.245
-91.772	-200.000	-0.003	0.210
-90.757	-200.000	0.010	0.180
-89.743	-200.000	0.002	-0.049
-88.728	244.591	0.067	0.113
-87.713	-31.629	-0.080	0.045
-86.699	-10.908	0.218	-0.144
-85.684	-200.000	-0.061	0.289
-84.670	-147.017	0.324	-0.028
-83.655	61.759	0.179	-0.178
-82.640	38.937	0.145	-0.130
-81.626	16.527	0.124	-0.098
-80.611	39.924	-0.133	0.119
-79.597	7.490	-0.123	-0.092
-78.582	-18.250	-0.078	-0.049
-77.567	120.262	-0.163	0.202
-76.553	-30.003	0.206	0.117
-75.538	-128.327	0.163	-0.023
-74.524	645.462	-0.103	0.261
-73.509	354.757	0.085	0.168
-72.494	-200.000	-0.035	0.267
-71.480	-11.286	-0.331	-0.217
-70.465	-132.551	0.129	0.017
-69.451	-140.447	-0.108	-0.011
-68.436	194.851	-0.141	0.213
-67.422	800.000	-0.102	0.355
-66.407	-141.511	-0.327	-0.033
-65.392	527.686	-0.073	-0.172
-64.378	-1.992	0.190	0.133
-63.363	-200.000	-0.025	-0.133
-62.349	-45.526	-0.165	-0.082
-61.334	-40.191	-0.648	-0.336
-60.319	-200.000	-0.006	0.056
-59.305	800.000	-0.130	-0.559
-58.290	5.612	0.510	0.375
-57.276	800.000	0.510	1.632
-56.261	-200.000	70.315	528.440
-55.246	586.996	1273.139	3121.640
-54.232	140.241	2532.429	3328.592
-53.217	122.311	2249.097	2799.493
-52.203	57.387	1688.698	1642.731
-51.188	48.339	1402.817	1308.126
-50.173	44.371	1354.105	1238.530
-49.159	61.796	1385.540	1374.565
-48.144	70.467	1404.296	1446.179
-47.130	48.486	1368.213	1276.555
-46.115	44.226	1351.914	1235.449
-45.100	43.978	1347.128	1229.518
-44.086	43.909	1344.435	1226.598
-43.071	43.818	1342.500	1224.231
-42.057	43.653	1340.863	1221.691
-41.042	43.796	1338.823	1220.647
-40.027	43.989	1336.481	1219.626
-39.013	43.879	1334.610	1217.213
-37.998	43.895	1332.979	1215.771
-36.984	44.041	1331.000	1214.790
-35.969	44.111	1328.888	1213.236
-34.954	44.175	1327.640	1212.426
-33.940	44.018	1326.204	1210.131
-32.925	44.192	1324.757	1209.802
-31.911	44.024	1323.470	1207.578
-30.896	44.095	1321.781	1206.413
-29.881	44.069	1320.374	1204.922
-28.867	44.047	1319.183	1203.658
-27.852	44.033	1317.527	1202.015
-26.838	44.156	1315.938	1201.247
-25.823	44.140	1314.228	1199.546
-24.809	44.041	1313.128	1197.910
-23.794	43.979	1312.136	1196.592
-22.779	44.152	1310.298	1195.885
-21.765	44.068	1309.088	1194.237
-20.750	44.118	1307.365	1192.912
-19.736	43.975	1306.600	1191.327
-18.721	43.846	1305.629	1189.641
-17.706	43.953	1303.954	1188.693
-16.692	43.993	1303.102	1188.101
-15.677	43.936	1301.835	1186.567
-14.663	43.994	1300.785	1185.905
-13.648	43.915	1299.540	1184.258
-12.633	43.946	1298.788	1183.707
-11.619	43.945	1297.649	1182.617
-10.604	43.962	1297.200	1182.257
-9.590	43.949	1296.266	1181.286
-8.575	43.876	1294.890	1179.557
-7.560	43.873	1294.073	1178.748
-6.546	43.897	1293.034	1177.895
-5.531	43.966	1291.799	1177.127
-4.517	43.907	1291.324	1176.302
-3.502	43.966	1290.416	1175.776
-2.487	44.003	1289.705	1175.295
-1.473	44.121	1286.111	1172.653
-0.458	43.329	1271.402	1154.670
0.556	37.517	1250.407	1111.680
1.571	32.659	1251.881	1085.008
2.586	30.637	1264.703	1084.251
3.600	28.587	1253.599	1062.775
4.615	21.934	1178.204	962.415
5.629	11.420	1096.813	841.885
6.644	6.063	1071.983	795.686
7.659	5.577	1069.284	791.153
8.673	5.433	1067.559	789.083
9.688	5.389	1066.001	787.639
10.702	5.806	1065.468	789.272
11.717	11.713	1074.512	825.810
12.731	19.228	1084.740	871.768
13.746	19.887	1083.798	874.264
14.761	17.613	1080.022	859.682
15.775	16.378	1077.636	851.486
16.790	15.228	1075.556	843.979
17.804	14.528	1073.603	838.851
18.819	14.160	1072.657	836.187
19.834	13.729	1071.794	833.277
20.848	13.465	1071.087	831.325
21.863	13.331	1070.168	829.867
22.877	13.210	1069.396	828.587
23.892	13.068	1069.034	827.522
24.907	13.178	1067.468	826.786
25.921	13.212	1066.646	826.250
26.936	13.296	1065.092	825.393
27.950	13.226	1063.777	823.953
28.965	13.247	1062.577	823.053
29.980	13.353	1060.880	822.191
30.994	13.420	1059.489	821.375
32.009	13.603	1058.612	821.528
33.023	13.468	1057.414	819.858
34.038	13.370	1056.520	818.610
35.053	13.372	1055.593	817.827
36.067	13.337	1054.593	816.807
37.082	13.411	1053.841	816.516
38.096	13.522	1052.983	816.329
39.111	13.397	1052.326	815.128
40.126	13.272	1051.390	813.718
41.140	13.200	1049.752	812.025
42.155	13.076	1048.720	810.546
43.169	13.058	1047.470	809.419
44.184	13.087	1046.490	808.735
45.199	13.244	1045.729	808.840
46.213	13.216	1044.850	807.952
47.228	13.251	1043.546	807.046
48.242	13.272	1042.629	806.364
49.257	13.279	1041.516	805.466
50.271	13.285	1040.576	804.699
51.286	13.308	1039.764	804.110
52.301	13.233	1038.869	802.985
53.315	13.367	1037.704	802.663
54.330	13.216	1036.491	800.920
55.344	13.278	1035.452	800.350
56.359	13.235	1035.018	799.731
57.374	13.154	1034.176	798.622
58.388	13.077	1033.102	797.347
59.403	13.012	1032.077	796.175
60.417	13.130	1030.767	795.664
61.432	13.055	1030.818	795.271
62.447	12.989	1029.780	794.082
63.461	12.927	1028.965	793.084
64.476	13.067	1027.828	792.807
65.490	12.969	1026.803	791.481
66.505	12.998	1026.473	791.295
67.520	13.035	1025.872	790.936
68.534	13.067	1024.925	790.291
69.549	13.027	1024.547	789.738
70.563	13.016	1023.373	788.710
71.578	12.955	1022.344	787.555
72.593	12.981	1021.798	787.188
73.607	12.890	1021.187	786.213
74.622	12.926	1020.938	786.127
75.636	12.970	1019.883	785.451
76.651	12.903	1019.178	784.523
77.666	12.937	1018.538	784.121
78.680	13.134	1017.866	784.473
79.695	13.066	1017.205	783.568
80.709	13.084	1017.223	783.597
81.724	13.104	1016.332	782.938
82.739	13.113	1015.466	782.243
83.753	13.351	1014.538	782.586
84.768	13.401	1013.548	781.992
85.782	13.420	1012.501	781.204
86.797	13.406	1011.788	780.520
87.812	13.340	1010.881	779.439
88.826	13.210	1009.922	778.016
89.841	13.325	1009.124	777.874
90.855	13.314	1008.550	777.311
91.870	13.449	1007.188	776.825
92.884	13.377	1006.476	775.871
93.899	13.428	1005.631	775.389
94.914	13.469	1004.723	774.812
95.928	13.491	1004.052	774.328
96.943	13.446	1002.983	773.229
97.957	13.616	1001.995	773.190
98.972	13.431	1001.274	771.704
99.987	13.455	1000.351	771.033
101.001	13.415	999.374	770.030
102.016	13.312	998.920	769.132
103.030	13.483	998.067	769.200
104.045	13.361	997.141	767.853
105.060	13.289	996.347	766.839
106.074	13.113	995.719	765.473
107.089	13.252	994.323	764.976
108.103	13.164	993.425	763.807
109.118	13.143	992.352	762.821
110.133	13.095	991.638	761.983
111.147	13.183	990.451	761.410
112.162	13.309	989.864	761.470
113.176	13.265	989.172	760.666
114.191	13.246	988.381	759.906
115.206	13.247	988.013	759.558
116.220	13.215	986.645	758.296
117.235	13.215	985.620	757.437
118.249	13.323	984.792	757.227
119.264	13.225	984.478	756.473
120.279	13.172	983.627	755.508
121.293	13.296	982.595	755.215
122.308	13.062	981.884	753.535
123.322	13.130	980.956	753.066
124.337	13.098	979.656	751.858
125.352	13.111	978.471	750.940
126.366	13.227	977.017	750.284
127.381	13.161	976.118	749.228
128.395	13.330	975.266	749.271
129.410	13.306	974.384	748.421
130.424	13.226	974.143	747.808
131.439	13.371	973.280	747.736
132.454	13.408	972.720	747.404
133.468	13.346	971.785	746.338
134.483	13.395	970.709	745.667
135.497	13.329	969.769	744.581
136.512	13.493	968.653	744.400
137.527	13.514	967.906	743.854
138.541	13.384	968.037	743.301
139.556	13.467	967.039	742.844
140.570	13.516	965.925	742.141
141.585	13.657	965.192	742.144
142.600	13.702	964.098	741.439
143.614	13.579	963.536	740.391
144.629	13.691	962.390	739.945
145.643	13.636	961.688	739.094
146.658	13.576	960.779	738.061
147.673	13.450	959.761	736.657
148.687	13.509	958.967	736.245
149.702	13.324	957.953	734.579
150.716	13.414	957.273	734.389
151.731	13.331	956.499	733.363
152.746	13.450	955.702	733.214
153.760	13.557	955.069	733.140
154.775	13.364	955.140	732.273
155.789	13.579	953.877	732.189
156.804	13.554	953.028	731.363
157.819	13.702	952.082	731.228
158.833	13.627	951.549	730.423
159.848	13.646	951.220	730.190
160.862	13.647	950.201	729.346
161.877	13.586	949.048	728.130
162.892	13.479	948.156	726.910
163.906	13.484	946.752	725.790
164.921	13.547	946.105	725.506
165.935	13.496	945.595	724.826
166.950	13.511	944.829	724.243
167.964	13.568	943.798	723.636
168.979	13.560	942.666	722.673
169.994	13.629	941.754	722.206
171.008	13.555	941.575	721.682
172.023	13.691	940.546	721.422
173.037	13.689	940.159	721.055
174.052	13.629	939.205	719.998
175.067	13.607	938.754	719.495
176.081	13.403	938.174	718.098
177.096	13.564	937.593	718.292
178.110	13.606	936.878	717.858
179.125	13.570	936.457	717.317
180.140	13.597	935.844	716.901
181.154	13.662	935.443	716.812
182.169	13.727	934.860	716.584
183.183	13.802	934.071	716.236
184.198	13.925	933.140	715.990
185.213	13.790	932.825	715.106
186.227	13.777	932.089	714.421
187.242	13.978	931.124	714.481
188.256	13.980	930.538	713.979
189.271	13.875	930.091	713.120
190.286	13.632	929.225	711.353
191.300	13.483	928.212	709.876
192.315	13.562	927.678	709.741
193.329	13.632	927.284	709.678
194.344	13.681	926.942	709.560
195.359	13.627	925.991	708.539
196.373	13.858	925.497	709.088
197.388	13.971	924.936	709.075
198.402	14.083	924.250	708.964
199.417	14.046	923.794	708.396
200.432	14.086	923.399	708.202
201.446	14.179	922.782	708.061
202.461	14.344	921.906	708.029
203.475	14.176	921.599	707.015
204.490	14.130	920.796	706.140
205.504	14.034	920.325	705.308
206.519	13.997	919.306	704.308
207.534	14.084	918.152	703.730
208.548	14.019	917.641	703.005
209.563	14.029	917.221	702.660
210.577	14.140	916.439	702.469
211.592	14.347	915.718	702.728
212.607	14.252	914.898	701.637
213.621	14.309	914.418	701.447
214.636	14.202	913.678	700.367
215.650	14.237	913.100	700.006
216.665	14.333	912.095	699.579
217.680	14.454	911.391	699.484
218.694	14.379	910.723	698.594
219.709	14.348	910.090	697.920
220.723	14.396	909.269	697.426
221.738	14.233	908.729	696.269
222.753	14.335	908.256	696.271
223.767	14.388	907.812	696.091
224.782	14.465	906.924	695.670
225.796	14.512	906.517	695.492
226.811	14.475	905.913	694.815
227.826	14.447	905.265	694.139
228.840	14.502	904.161	693.458
229.855	14.453	903.442	692.641
230.869	14.369	902.916	691.829
231.884	14.382	902.303	691.352
232.899	14.296	901.603	690.396
233.913	14.249	900.927	689.624
234.928	14.177	900.362	688.831
235.942	14.311	899.551	688.706
236.957	14.442	899.049	688.804
237.972	14.501	898.641	688.673
238.986	14.433	897.704	687.615
240.001	14.420	897.083	687.022
241.015	14.464	896.535	686.722
242.030	14.484	896.103	686.415
243.045	14.573	895.155	685.994
244.059	14.520	894.807	685.447
245.074	14.616	893.886	685.077
246.088	14.561	893.542	684.525
247.103	14.623	892.755	684.114
248.117	14.607	892.334	683.670
249.132	14.811	891.901	684.110
250.147	14.815	891.270	683.583
251.161	14.971	890.625	683.665
252.176	14.971	889.910	683.057
253.190	14.937	889.083	682.222
254.205	14.995	888.505	681.954
255.220	15.077	887.799	681.685
256.234	14.973	887.825	681.222
257.249	15.022	886.361	680.240
258.263	14.986	885.892	679.672
259.278	15.022	885.212	679.236
260.293	15.013	884.837	678.850
261.307	15.031	884.459	678.576
262.322	15.298	883.602	678.939
263.336	15.207	882.978	678.031
264.351	15.274	882.162	677.614
265.366	15.159	881.700	676.737
266.380	15.202	881.045	676.346
267.395	15.167	880.119	675.433
268.409	15.150	879.386	674.742
269.424	15.155	878.740	674.207
270.439	15.220	877.878	673.747
271.453	15.232	877.038	673.092
272.468	15.181	876.689	672.561
273.482	15.167	876.221	672.084
274.497	15.183	875.734	671.719
275.512	15.125	875.482	671.232
276.526	15.182	874.477	670.631
277.541	15.268	873.977	670.530
278.555	15.185	873.738	669.956
279.570	15.363	872.469	669.634
280.585	15.237	872.408	669.025
281.599	15.248	871.214	668.094
282.614	15.335	870.451	667.798
283.628	15.299	869.945	667.206
284.643	15.290	869.578	666.832
285.657	15.375	868.746	666.472
286.672	15.312	868.382	665.883
287.687	15.380	867.381	665.326
288.701	15.446	867.056	665.279
289.716	15.319	866.626	664.386
290.730	15.528	865.942	664.633
291.745	15.478	865.237	663.833
292.760	15.611	864.569	663.789
293.774	15.605	863.956	663.233
294.789	15.670	863.192	662.844
295.803	15.570	862.588	661.930
296.818	15.386	862.299	660.925
297.833	15.547	861.071	660.557
298.847	15.514	860.673	660.063
299.862	15.552	860.273	659.848
300.876	15.601	859.621	659.481
301.891	15.718	858.659	659.144
302.906	15.664	858.570	658.807
303.920	15.697	858.264	658.643
304.935	15.770	857.801	658.514
305.949	15.825	856.653	657.791
306.964	15.942	855.979	657.671
307.979	15.777	855.395	656.519
308.993	15.850	854.960	656.414
310.008	15.745	854.601	655.672
311.022	15.674	854.087	654.943
312.037	15.631	853.241	654.069
313.052	15.708	852.880	654.033
314.066	15.650	852.268	653.281
315.081	15.773	851.928	653.438
316.095	15.868	850.777	652.866
317.110	15.671	850.637	651.939
318.125	15.590	850.030	651.100
319.139	15.678	849.669	651.106
320.154	15.810	848.799	650.895
321.168	15.743	848.747	650.538
322.183	15.759	847.956	649.934
323.197	15.839	847.739	650.019
324.212	15.865	846.799	649.344
325.227	15.910	845.930	648.793
326.241	15.790	845.767	648.148
327.256	15.959	844.731	647.945
328.270	15.846	844.382	647.186
329.285	15.914	844.136	647.202
330.300	15.928	843.150	646.443
331.314	15.754	842.755	645.416
332.329	15.869	842.683	645.745
333.343	15.922	841.958	645.335
334.358	16.011	841.675	645.403
335.373	15.930	841.369	644.798
336.387	15.998	840.908	644.651
337.402	15.982	841.060	644.648
338.416	16.156	840.418	644.766
339.431	16.253	839.673	644.503
340.446	16.356	839.315	644.566
341.460	16.218	839.178	643.877
342.475	16.283	839.005	643.938
343.489	16.405	838.320	643.818
344.504	16.438	837.434	643.206
345.519	16.368	837.266	642.756
346.533	16.402	836.428	642.183
347.548	16.346	835.956	641.550
348.562	16.172	835.612	640.568
349.577	16.285	834.785	640.309
350.592	16.231	834.511	639.838
351.606	16.164	833.707	638.909
352.621	16.276	832.631	638.454
353.635	16.309	832.124	638.131
354.650	16.260	831.704	637.566
355.665	16.229	831.098	636.931
356.679	16.315	830.564	636.789
357.694	16.333	830.197	636.519
358.708	16.408	829.389	636.124
359.723	16.546	828.712	636.071
360.738	16.492	827.765	635.083
361.752	16.474	827.677	634.891
362.767	16.521	826.661	634.232
363.781	16.675	826.454	634.596
364.796	16.692	826.048	634.291
365.810	16.763	825.680	634.217
366.825	16.785	825.111	633.808
367.840	16.617	824.915	632.973
368.854	16.667	824.202	632.557
369.869	16.581	823.880	631.930
370.883	16.754	823.309	632.085
371.898	16.722	823.255	631.864
372.913	16.868	822.822	632.024
373.927	16.786	821.985	631.018
374.942	16.656	821.666	630.232
375.956	16.887	821.269	630.734
376.971	17.054	820.575	630.765
377.986	16.888	820.815	630.277
379.000	17.005	820.024	630.049
380.015	16.879	819.754	629.316
381.029	16.839	819.004	628.537
382.044	17.077	818.251	628.786
383.059	17.057	817.727	628.253
384.073	16.851	817.184	627.017
385.088	16.982	816.430	626.869
386.102	16.955	816.048	626.419
387.117	16.874	815.555	625.687
388.132	16.888	814.843	625.137
389.146	16.918	814.493	624.925
390.161	16.889	814.154	624.501
391.175	17.052	813.477	624.527
392.190	17.081	813.013	624.222
393.205	16.943	812.408	623.196
394.219	16.931	812.332	623.038
395.234	16.862	812.077	622.532
396.248	16.935	811.647	622.416
397.263	16.778	811.203	621.445
398.278	16.939	810.536	621.469
399.292	17.030	810.044	621.369
400.307	17.027	809.809	621.125
401.321	17.032	809.052	620.505
402.336	17.102	808.601	620.360
403.350	17.032	808.203	619.746
404.365	17.078	807.994	619.700
405.380	17.184	807.287	619.486
406.394	17.246	806.919	619.377
407.409	17.297	806.575	619.243
408.423	17.422	806.320	619.447
409.438	17.370	805.741	618.760
410.453	17.477	805.771	619.115
411.467	17.423	804.908	618.203
412.482	17.348	804.622	617.656
413.496	17.440	804.163	617.582
414.511	17.347	804.077	617.126
415.526	17.479	803.310	616.960
416.540	17.488	802.901	616.625
417.555	17.443	802.405	616.025
418.569	17.500	802.068	615.919
419.584	17.557	801.547	615.671
420.599	17.485	801.491	615.312
421.613	78.590	1239.902	1280.446
422.628	66.540	1303.808	1280.604
