DTS Sentinel unit serial number:	SN413079Multiplexer serial number:	ORYXHardware model number:	OX4-SRSoftware version number:	ORYX F/W v4.00 Oryx Data Collector v3.7.2.0data status	okinstallation	princeton_trtdifferential loss correction	single-endedforward channel	channel 1reverse channel	N/Adate	2019/09/15time	13:38:35forward acquisition time	60.00reverse acquisition time	0.00gamma	496.2192k internal	0.2293k external	0.2293temperature offset calibration	0.9965default loss term (dB/km)	0.3790temperature slope calibration	1.0000multiplexer offset coefficient	1.0000multiplexer slope coefficient	1.0000fibre end	0.00T internal ref (°C)	37.81T ext. ref 1 (°C)	4.84T ext. ref 2 (°C)	34.90length (m)	temperature (°C)	Stokes	anti-Stokes-747.200	800.000	0.152	-0.479
-746.185	-54.081	0.024	0.011
-745.171	92.020	-0.111	-0.128
-744.156	-200.000	-0.045	0.402
-743.142	40.839	0.168	-0.155
-742.127	-44.336	-0.099	0.051
-741.112	146.194	0.058	0.080
-740.098	-118.561	-0.411	-0.074
-739.083	109.190	-0.046	0.056
-738.069	-43.149	-0.058	-0.030
-737.054	-112.486	0.110	-0.022
-736.039	435.102	0.076	-0.170
-735.025	-28.968	0.039	-0.023
-734.010	-79.541	-0.169	-0.059
-732.996	5.624	-0.082	-0.062
-731.981	10.358	-0.252	0.196
-730.966	-51.291	0.238	-0.114
-729.952	524.265	0.051	-0.122
-728.937	533.843	-0.077	-0.186
-727.923	800.000	0.050	0.186
-726.908	167.244	-0.059	0.085
-725.894	-106.025	-0.501	-0.115
-724.879	800.000	-0.077	-0.273
-723.864	-174.046	0.188	0.006
-722.850	459.249	-0.135	0.307
-721.835	-196.801	-0.284	0.002
-720.821	478.336	0.004	-0.010
-719.806	-134.636	-0.209	-0.026
-718.791	-114.481	-0.371	-0.073
-717.777	-176.078	0.210	-0.006
-716.762	-26.892	0.065	-0.039
-715.748	-36.036	0.305	-0.169
-714.733	-200.000	-0.023	0.198
-713.718	-14.821	-0.343	-0.225
-712.704	-143.481	-0.077	0.008
-711.689	-200.000	0.009	-0.216
-710.675	-12.637	-0.112	-0.074
-709.660	-69.874	-0.133	-0.052
-708.645	-200.000	0.005	0.063
-707.631	93.260	0.042	0.049
-706.616	38.502	0.228	0.208
-705.602	-200.000	0.023	-0.162
-704.587	-200.000	0.006	-0.351
-703.572	-43.064	0.219	0.114
-702.558	-112.467	-0.368	-0.075
-701.543	-200.000	-0.055	-0.289
-700.529	-24.258	-0.177	0.108
-699.514	-200.000	0.012	0.166
-698.499	665.313	-0.087	0.230
-697.485	428.652	-0.152	-0.336
-696.470	152.816	-0.126	-0.176
-695.456	-200.000	-0.003	-0.351
-694.441	-200.000	-0.005	-0.259
-693.426	-14.036	-0.308	0.203
-692.412	-101.726	-0.112	-0.028
-691.397	316.406	-0.048	0.093
-690.383	-200.000	0.009	0.157
-689.368	-33.318	0.107	0.061
-688.354	139.587	0.128	0.173
-687.339	-35.263	0.148	0.082
-686.324	-97.151	-0.066	0.018
-685.310	-135.568	0.437	-0.053
-684.295	30.454	-0.147	-0.128
-683.281	-140.420	-0.357	0.038
-682.266	-200.000	-0.013	0.063
-681.251	-70.476	-0.189	0.073
-680.237	-59.373	-0.481	-0.211
-679.222	59.850	0.175	0.177
-678.208	282.188	-0.105	0.192
-677.193	-200.000	-0.067	0.317
-676.178	478.988	-0.085	-0.197
-675.164	-52.524	0.269	-0.127
-674.149	84.095	0.085	-0.095
-673.135	-154.399	0.279	0.019
-672.120	800.000	0.084	-0.297
-671.105	-19.113	-0.231	-0.146
-670.091	418.569	-0.054	-0.117
-669.076	81.650	-0.064	0.071
-668.062	-200.000	0.017	0.182
-667.047	-176.674	-0.204	0.005
-666.032	87.067	0.169	-0.191
-665.018	173.773	-0.047	0.070
-664.003	-72.739	0.168	0.063
-662.989	800.000	-0.054	-0.201
-661.974	800.000	-0.008	-0.024
-660.959	-58.399	0.129	-0.057
-659.945	-67.450	-0.189	-0.076
-658.930	-8.259	-0.076	0.052
-657.916	60.734	0.233	-0.235
-656.901	-6.926	-0.202	0.140
-655.886	2.301	-0.153	0.113
-654.872	32.513	0.245	0.216
-653.857	-65.088	-0.314	-0.129
-652.843	539.696	0.165	-0.399
-651.828	-53.601	-0.113	-0.052
-650.814	-41.218	0.089	0.047
-649.799	-200.000	0.002	-0.187
-648.784	-43.489	0.009	0.005
-647.770	-200.000	-0.008	0.106
-646.755	536.896	0.072	-0.174
-645.741	-132.224	-0.111	0.015
-644.726	236.387	-0.156	0.264
-643.711	589.006	-0.020	0.049
-642.697	-101.624	0.654	0.162
-641.682	358.380	-0.172	0.351
-640.668	-200.000	0.006	0.042
-639.653	-14.782	-0.026	-0.017
-638.638	-183.776	0.207	-0.004
-637.624	73.196	0.279	-0.297
-636.609	-99.341	-0.408	-0.105
-635.595	6.231	0.159	0.120
-634.580	85.181	-0.076	-0.085
-633.565	-200.000	-0.001	-0.107
-632.551	-136.318	0.384	-0.046
-631.536	32.450	0.140	0.123
-630.522	-115.703	0.371	-0.071
-629.507	-200.000	0.043	-0.194
-628.492	-89.470	-0.169	-0.051
-627.478	31.483	0.148	0.129
-626.463	104.352	-0.052	0.062
-625.449	800.000	-0.102	-0.334
-624.434	15.136	0.116	-0.093
-623.419	-139.733	-0.201	0.022
-622.405	-14.976	-0.227	0.148
-621.390	-9.325	0.093	0.063
-620.376	800.000	-0.034	-0.108
-619.361	800.000	0.047	-0.149
-618.346	111.942	-0.191	-0.234
-617.332	800.000	0.024	-0.097
-616.317	410.754	-0.194	-0.419
-615.303	72.610	-0.163	-0.173
-614.288	-200.000	0.005	0.069
-613.273	-117.326	0.314	-0.058
-612.259	-91.769	-0.042	0.012
-611.244	-145.573	-0.549	0.050
-610.230	-200.000	0.004	-0.180
-609.215	-200.000	-0.003	0.148
-608.201	355.758	0.083	-0.168
-607.186	-11.159	-0.196	0.131
-606.171	800.000	0.069	0.273
-605.157	-200.000	-0.063	-0.335
-604.142	-200.000	-0.031	0.179
-603.128	-51.404	0.374	0.178
-602.113	-200.000	0.001	-0.315
-601.098	-105.166	-0.279	0.065
-600.084	13.553	0.351	-0.277
-599.069	-56.771	0.505	0.227
-598.055	-105.615	-0.140	-0.032
-597.040	144.322	-0.101	0.137
-596.025	-200.000	0.024	0.182
-595.011	-12.421	0.313	-0.208
-593.996	58.190	0.093	0.092
-592.982	9.166	0.269	-0.207
-591.967	244.975	-0.069	0.119
-590.952	-62.563	-0.349	0.147
-589.938	-200.000	0.001	0.085
-588.923	-122.450	-0.287	0.048
-587.909	377.229	-0.070	0.146
-586.894	-135.097	-0.179	-0.022
-585.879	-200.000	-0.071	0.000
-584.865	69.739	0.260	0.272
-583.850	-58.310	-0.213	-0.094
-582.836	-200.000	-0.125	-0.000
-581.821	-9.695	0.273	0.185
-580.806	-200.000	-0.003	0.067
-579.792	24.759	0.208	0.175
-578.777	257.339	-0.084	0.146
-577.763	289.979	-0.186	-0.344
-576.748	800.000	0.041	-0.150
-575.733	-200.000	-0.026	0.132
-574.719	-200.000	-0.002	0.307
-573.704	-62.826	-0.356	0.150
-572.690	27.925	-0.095	0.082
-571.675	247.344	0.269	0.462
-570.661	-91.978	-0.185	-0.053
-569.646	-200.000	0.081	-0.514
-568.631	-20.833	-0.318	-0.198
-567.617	-56.092	0.056	-0.025
-566.602	-139.079	-0.330	0.036
-565.588	11.921	-0.228	-0.178
-564.573	-119.030	0.076	0.014
-563.558	82.483	-0.153	0.168
-562.544	-200.000	-0.024	-0.201
-561.529	-163.247	0.037	-0.002
-560.515	-189.088	-0.128	-0.002
-559.500	-132.525	-0.228	0.030
-558.485	800.000	0.052	-0.170
-557.471	504.685	-0.023	-0.054
-556.456	-86.152	-0.199	0.062
-555.442	657.174	0.125	0.327
-554.427	-200.000	-0.020	-0.099
-553.412	102.372	0.205	0.243
-552.398	495.522	-0.091	0.212
-551.383	20.522	-0.109	0.089
-550.369	-115.909	0.183	-0.035
-549.354	61.038	-0.095	-0.095
-548.339	36.148	-0.136	0.122
-547.325	323.624	-0.165	-0.319
-546.310	-26.885	-0.142	-0.084
-545.296	-200.000	0.007	-0.077
-544.281	-111.635	-0.293	0.060
-543.266	68.049	-0.183	0.190
-542.252	175.578	-0.119	0.176
-541.237	-58.359	0.089	0.039
-540.223	-23.583	0.242	0.147
-539.208	-200.000	-0.024	0.129
-538.193	800.000	-0.036	-0.145
-537.179	-137.166	0.292	0.034
-536.164	-1.707	0.110	0.078
-535.150	204.118	0.115	0.182
-534.135	-36.595	0.408	-0.223
-533.121	-200.000	-0.019	0.179
-532.106	-200.000	-0.014	0.115
-531.091	-160.435	-0.256	0.014
-530.077	401.273	-0.130	0.276
-529.062	-116.952	0.323	0.060
-528.048	800.000	-0.040	-0.155
-527.033	-200.000	0.005	-0.105
-526.018	-200.000	-0.066	-0.343
-525.004	-200.000	0.013	-0.102
-523.989	3.652	-0.174	-0.128
-522.975	142.693	-0.197	-0.265
-521.960	92.760	-0.189	-0.217
-520.945	153.168	-0.138	0.191
-519.931	-200.000	-0.028	0.351
-518.916	17.900	0.050	-0.040
-517.902	693.698	-0.083	0.220
-516.887	-195.390	-0.042	-0.000
-515.872	-186.106	-0.014	-0.000
-514.858	-94.795	0.229	0.063
-513.843	140.415	-0.155	-0.208
-512.829	-8.122	0.164	-0.112
-511.814	-69.909	0.080	-0.031
-510.799	418.399	0.120	-0.260
-509.785	242.103	0.062	-0.106
-508.770	-129.823	-0.197	0.027
-507.756	-200.000	-0.018	0.318
-506.741	-200.000	-0.040	0.323
-505.726	295.046	0.070	0.130
-504.712	299.093	-0.114	0.214
-503.697	589.465	-0.054	-0.136
-502.683	-7.478	-0.385	-0.264
-501.668	-115.181	-0.294	0.056
-500.653	800.000	-0.096	-0.310
-499.639	-108.559	-0.377	-0.082
-498.624	-191.022	-0.086	-0.001
-497.610	-134.765	-0.313	-0.039
-496.595	-200.000	-0.063	0.512
-495.581	800.000	-0.093	0.263
-494.566	-119.399	0.226	-0.040
-493.551	49.340	0.158	-0.151
-492.537	-103.065	0.236	0.057
-491.522	10.875	-0.363	0.281
-490.508	83.540	0.248	0.274
-489.493	-165.774	0.202	0.009
-488.478	381.037	0.113	0.236
-487.464	-200.000	0.019	-0.084
-486.449	338.197	-0.125	0.246
-485.435	520.351	-0.107	0.253
-484.420	-123.112	0.078	-0.013
-483.405	433.230	0.096	-0.211
-482.391	-85.467	-0.256	-0.081
-481.376	28.921	-0.236	-0.202
-480.362	-171.314	0.139	0.005
-479.347	-99.506	-0.035	-0.009
-478.332	800.000	-0.060	-0.173
-477.318	-159.509	-0.049	0.003
-476.303	-51.933	0.333	0.157
-475.289	16.400	-0.194	-0.155
-474.274	462.593	0.010	-0.022
-473.259	-61.728	-0.046	0.020
-472.245	-200.000	-0.012	-0.126
-471.230	222.715	-0.128	0.209
-470.216	-96.935	-0.189	-0.050
-469.201	80.993	0.270	-0.295
-468.186	-158.278	0.254	0.015
-467.172	46.459	-0.112	-0.105
-466.157	717.088	-0.059	0.157
-465.143	-136.047	0.157	-0.019
-464.128	-200.000	0.023	-0.118
-463.113	-200.000	0.016	-0.214
-462.099	278.111	-0.120	-0.215
-461.084	95.029	-0.067	0.077
-460.070	-98.262	0.178	0.046
-459.055	188.834	0.073	-0.111
-458.040	188.062	0.058	0.088
-457.026	-141.993	0.197	0.020
-456.011	39.321	0.291	0.264
-454.997	-13.652	0.175	0.114
-453.982	-171.816	-0.453	-0.015
-452.968	384.090	-0.066	0.137
-451.953	800.000	-0.142	-0.444
-450.938	-94.178	-0.458	-0.127
-449.924	12.208	0.074	-0.057
-448.909	-53.965	-0.120	-0.055
-447.895	-58.898	-0.154	-0.067
-446.880	-200.000	0.025	-0.266
-445.865	-19.308	0.076	0.047
-444.851	103.480	-0.167	0.198
-443.836	-200.000	0.001	0.072
-442.822	-200.000	-0.020	0.279
-441.807	378.822	0.075	0.155
-440.792	94.331	-0.304	-0.349
-439.778	507.236	-0.117	0.274
-438.763	30.748	0.195	0.169
-437.749	-200.000	-0.305	0.000
-436.734	-144.543	0.277	0.026
-435.719	-90.261	0.083	0.024
-434.705	-5.121	-0.145	-0.101
-433.690	152.260	0.018	0.025
-432.676	800.000	-0.012	-0.039
-431.661	329.577	0.116	0.226
-430.646	216.209	0.082	-0.131
-429.632	800.000	0.059	0.189
-428.617	800.000	0.070	-0.208
-427.603	800.000	-0.128	-0.376
-426.588	-72.454	0.108	0.040
-425.573	-6.971	0.342	0.235
-424.559	-200.000	0.002	-0.154
-423.544	-71.953	0.164	0.062
-422.530	204.270	0.194	0.303
-421.515	304.770	0.068	-0.127
-420.500	76.579	0.037	0.040
-419.486	48.924	-0.256	0.243
-418.471	176.802	-0.114	0.167
-417.457	-63.026	-0.228	-0.095
-416.442	-200.000	0.009	0.198
-415.428	-200.000	-0.023	0.175
-414.413	-147.356	-0.166	0.014
-413.398	28.276	0.262	0.223
-412.384	-133.740	0.340	0.043
-411.369	-132.065	-0.140	0.018
-410.355	533.832	-0.023	-0.055
-409.340	800.000	-0.020	-0.087
-408.325	230.636	-0.127	-0.209
-407.311	7.698	0.086	-0.065
-406.296	-200.000	-0.014	-0.114
-405.282	-171.601	-0.307	-0.010
-404.267	-111.660	0.565	0.116
-403.252	17.253	0.030	-0.024
-402.238	-166.901	-0.184	-0.008
-401.223	32.360	-0.171	-0.149
-400.209	-127.456	0.056	0.008
-399.194	-17.223	0.115	-0.073
-398.179	68.484	0.093	-0.096
-397.165	50.249	-0.061	-0.058
-396.150	-200.000	-0.040	-0.281
-395.136	-200.000	0.086	-0.408
-394.121	220.819	0.085	-0.138
-393.106	-200.000	-0.039	-0.246
-392.092	717.727	0.124	-0.332
-391.077	-11.146	-0.144	-0.096
-390.063	84.370	-0.059	0.065
-389.048	11.523	0.102	-0.079
-388.033	-200.000	-0.063	-0.562
-387.019	674.016	-0.049	-0.129
-386.004	-200.000	-0.024	0.245
-384.990	-2.232	0.298	0.211
-383.975	-53.254	0.101	-0.047
-382.960	265.205	0.129	-0.228
-381.946	108.166	0.275	0.331
-380.931	-99.555	0.464	0.118
-379.917	-77.053	-0.181	-0.064
-378.902	-38.866	0.180	-0.096
-377.888	-119.433	0.218	0.038
-376.873	-44.556	-0.189	0.095
-375.858	340.775	0.047	-0.092
-374.844	13.932	-0.223	-0.175
-373.829	53.742	-0.094	-0.091
-372.815	-200.000	0.021	0.199
-371.800	-51.152	-0.402	0.190
-370.785	-7.733	0.091	-0.062
-369.771	800.000	-0.122	-0.502
-368.756	36.325	-0.043	0.038
-367.742	-109.981	0.176	-0.037
-366.727	-64.467	-0.265	-0.108
-365.712	0.508	0.171	0.123
-364.698	-200.000	0.031	-0.140
-363.683	800.000	-0.077	0.248
-362.669	-61.584	-0.195	0.083
-361.654	-200.000	-0.002	0.286
-360.639	800.000	-0.016	0.060
-359.625	-7.208	0.128	-0.087
-358.610	93.676	-0.124	-0.141
-357.596	-200.000	0.005	0.192
-356.581	-64.923	0.288	-0.117
-355.566	-78.455	-0.393	0.136
-354.552	-200.000	-0.005	0.490
-353.537	-200.000	-0.016	-0.325
-352.523	49.337	0.082	0.078
-351.508	-181.025	-0.268	0.005
-350.493	-139.673	0.348	-0.037
-349.479	346.189	0.107	-0.213
-348.464	-200.000	0.008	0.050
-347.450	-74.262	0.096	-0.035
-346.435	132.682	-0.089	0.116
-345.420	-100.587	-0.246	-0.061
-344.406	-99.491	-0.233	-0.059
-343.391	-77.467	0.183	-0.064
-342.377	64.430	0.073	-0.074
-341.362	73.561	-0.081	-0.086
-340.348	-97.237	0.326	0.086
-339.333	-200.000	-0.017	0.150
-338.318	21.432	0.248	0.203
-337.304	103.379	0.092	-0.108
-336.289	188.441	0.098	-0.148
-335.275	-129.437	-0.063	0.009
-334.260	651.124	0.032	0.083
-333.245	-60.021	0.216	0.093
-332.231	-200.000	0.009	0.306
-331.216	-160.129	0.268	0.015
-330.202	38.497	-0.232	0.208
-329.187	-87.070	0.135	-0.041
-328.172	302.712	-0.057	-0.105
-327.158	-158.287	-0.042	-0.002
-326.143	35.365	0.203	0.179
-325.129	-2.250	0.068	0.048
-324.114	736.326	0.056	0.151
-323.099	229.012	-0.113	0.186
-322.085	56.290	-0.008	0.008
-321.070	-88.690	-0.282	-0.084
-320.056	238.277	-0.065	-0.109
-319.041	800.000	0.082	-0.357
-318.026	800.000	-0.032	0.106
-317.012	-41.655	0.090	0.047
-315.997	-75.550	0.216	0.077
-314.983	-61.984	-0.390	0.164
-313.968	185.804	-0.102	0.153
-312.953	113.583	0.049	-0.060
-311.939	-200.000	0.009	-0.101
-310.924	792.124	0.088	0.245
-309.910	-93.437	0.199	0.056
-308.895	310.483	-0.110	0.207
-307.880	-200.000	0.035	-0.185
-306.866	-200.000	0.007	-0.086
-305.851	36.777	0.098	-0.087
-304.837	-96.392	0.224	0.060
-303.822	48.971	0.186	-0.175
-302.807	-200.000	-0.010	-0.196
-301.793	-200.000	0.008	-0.321
-300.778	259.470	-0.099	0.172
-299.764	-26.958	0.172	0.101
-298.749	-156.392	-0.129	-0.008
-297.735	800.000	-0.032	0.135
-296.720	-124.158	0.553	-0.087
-295.705	-144.272	-0.160	-0.015
-294.691	800.000	-0.043	0.131
-293.676	23.535	-0.204	-0.169
-292.662	5.508	0.193	0.143
-291.647	78.405	-0.179	-0.193
-290.632	219.257	0.134	-0.215
-289.618	174.670	0.111	0.162
-288.603	108.955	0.213	-0.255
-287.589	69.833	0.234	-0.243
-286.574	-146.589	0.219	0.019
-285.559	-3.718	-0.060	-0.042
-284.545	-122.678	-0.233	-0.038
-283.530	800.000	-0.035	0.104
-282.516	-200.000	-0.023	0.152
-281.501	-200.000	-0.008	0.144
-280.486	-24.023	0.284	-0.171
-279.472	-88.023	-0.231	0.070
-278.457	208.849	0.107	0.168
-277.443	-200.000	-0.022	-0.145
-276.428	800.000	-0.079	0.299
-275.413	-114.056	0.062	0.012
-274.399	-71.879	0.134	0.050
-273.384	41.351	0.245	-0.222
-272.370	166.112	-0.212	0.301
-271.355	461.691	-0.088	-0.198
-270.340	50.412	0.173	0.165
-269.326	-47.802	0.272	0.132
-268.311	313.830	-0.172	-0.326
-267.297	137.588	0.093	-0.122
-266.282	73.873	0.062	0.065
-265.267	-174.329	-0.210	-0.006
-264.253	464.773	-0.040	0.090
-263.238	-68.752	-0.108	0.042
-262.224	-6.593	0.102	-0.070
-261.209	-135.066	0.046	-0.006
-260.195	70.193	0.076	-0.079
-259.180	179.273	-0.149	0.219
-258.165	800.000	-0.044	-0.189
-257.151	-200.000	0.035	-0.250
-256.136	-66.524	0.182	-0.072
-255.122	800.000	0.097	0.290
-254.107	-47.907	-0.096	0.047
-253.092	-132.968	-0.411	-0.052
-252.078	-112.691	0.171	-0.034
-251.063	800.000	-0.056	0.166
-250.049	2.753	-0.224	-0.163
-249.034	-59.936	-0.310	-0.133
-248.019	-200.000	0.025	0.378
-247.005	800.000	0.030	-0.094
-245.990	-130.247	-0.118	0.016
-244.976	62.859	0.075	0.076
-243.961	-110.850	-0.160	-0.033
-242.946	100.462	0.134	-0.156
-241.932	55.051	-0.111	-0.107
-240.917	-128.732	0.043	0.006
-239.903	-109.080	0.375	0.080
-238.888	-94.984	0.392	-0.106
-237.873	41.048	-0.408	-0.370
-236.859	102.813	0.127	-0.149
-235.844	-200.000	0.042	-0.248
-234.830	121.461	-0.015	-0.019
-233.815	800.000	0.035	-0.117
-232.800	-129.321	0.105	0.015
-231.786	-200.000	-0.011	-0.097
-230.771	671.262	-0.077	-0.200
-229.757	-80.455	0.236	-0.079
-228.742	5.756	-0.100	0.074
-227.727	656.464	-0.105	0.271
-226.713	-200.000	-0.022	-0.192
-225.698	-105.753	0.182	0.041
-224.684	257.004	0.176	0.303
-223.669	800.000	-0.112	0.317
-222.655	-89.174	0.315	-0.093
-221.640	800.000	0.028	0.104
-220.625	-0.256	0.107	-0.076
-219.611	800.000	0.015	-0.064
-218.596	146.491	-0.120	0.162
-217.582	-35.724	0.181	-0.098
-216.567	118.283	-0.118	-0.145
-215.552	474.982	0.104	0.235
-214.538	269.401	-0.145	0.255
-213.523	-140.611	0.305	-0.032
-212.509	78.529	0.207	0.222
-211.494	414.360	-0.094	0.201
-210.479	75.586	-0.064	-0.068
-209.465	800.000	-0.150	0.483
-208.450	-200.000	-0.023	-0.148
-207.436	40.118	0.297	0.268
-206.421	47.358	-0.118	-0.110
-205.406	-200.000	-0.011	-0.101
-204.392	51.861	-0.183	0.174
-203.377	-80.574	0.164	0.055
-202.363	176.491	-0.283	-0.413
-201.348	-107.185	0.418	-0.092
-200.333	-36.153	0.488	0.264
-199.319	-29.129	-0.237	-0.136
-198.304	1.340	-0.211	-0.152
-197.290	-52.415	0.127	0.059
-196.275	-200.000	-0.029	0.343
-195.260	-119.532	-0.050	0.009
-194.246	-125.009	0.214	0.033
-193.231	16.432	-0.091	-0.072
-192.217	490.153	-0.261	-0.599
-191.202	-116.912	0.271	0.050
-190.187	191.063	0.090	-0.135
-189.173	-173.776	-0.108	0.003
-188.158	-81.778	-0.300	-0.099
-187.144	-200.000	0.016	-0.151
-186.129	188.664	-0.102	-0.153
-185.114	800.000	-0.037	0.138
-184.100	381.971	-0.081	-0.167
-183.085	386.899	-0.026	0.053
-182.071	7.513	-0.406	0.304
-181.056	9.990	-0.235	0.179
-180.042	146.235	0.035	-0.047
-179.027	-200.000	0.034	0.162
-178.012	-101.140	-0.328	0.080
-176.998	-63.424	0.243	-0.100
-175.983	-190.647	-0.248	0.003
-174.969	43.877	0.112	0.103
-173.954	-42.576	-0.105	0.054
-172.939	-157.275	-0.352	-0.021
-171.925	800.000	-0.070	-0.229
-170.910	37.311	0.211	-0.187
-169.896	-21.768	-0.155	-0.094
-168.881	-70.332	0.364	0.138
-167.866	301.518	-0.090	-0.167
-166.852	59.198	-0.039	-0.038
-165.837	-56.647	0.037	-0.016
-164.823	-79.621	-0.112	0.038
-163.808	-26.956	0.263	0.153
-162.793	9.241	0.114	0.086
-161.779	386.207	-0.190	0.392
-160.764	-200.000	-0.015	-0.258
-159.750	263.677	0.031	0.054
-158.735	185.961	0.161	-0.239
-157.720	105.870	-0.248	0.293
-156.706	496.316	-0.066	0.153
-155.691	-63.212	0.136	0.056
-154.677	256.213	0.029	0.050
-153.662	36.429	0.326	-0.288
-152.647	-56.234	0.137	0.061
-151.633	116.090	-0.142	-0.174
-150.618	-26.365	0.069	-0.040
-149.604	-71.415	-0.399	-0.149
-148.589	-131.313	0.274	-0.036
-147.574	171.062	0.053	0.076
-146.560	-6.206	-0.173	-0.118
-145.545	800.000	-0.155	-0.440
-144.531	6.666	-0.294	-0.218
-143.516	114.644	0.200	0.244
-142.502	-140.078	0.215	0.023
-141.487	-200.000	-0.000	0.105
-140.472	-200.000	-0.015	0.266
-139.458	800.000	-0.029	0.092
-138.443	22.901	-0.019	0.015
-137.429	-76.676	0.330	0.115
-136.414	800.000	-0.086	0.373
-135.399	46.748	-0.099	0.092
-134.385	335.274	-0.059	-0.115
-133.370	61.274	-0.221	-0.219
-132.356	116.338	0.170	-0.208
-131.341	-91.959	0.051	0.015
-130.326	-200.000	-0.003	0.037
-129.312	-200.000	0.062	0.406
-128.297	-56.367	-0.190	0.084
-127.283	800.000	-0.117	-0.407
-126.268	-200.000	0.012	-0.157
-125.253	-200.000	-0.023	0.274
-124.239	-114.663	0.467	0.089
-123.224	-62.426	0.289	0.120
-122.210	-7.577	-0.071	-0.048
-121.195	447.060	-0.262	0.575
-120.180	-35.435	0.293	0.159
-119.166	-119.523	-0.322	0.056
-118.151	-63.498	0.233	-0.096
-117.137	-69.592	0.165	-0.063
-116.122	48.588	0.007	-0.007
-115.107	-138.926	0.323	-0.035
-114.093	-200.000	-0.050	-0.246
-113.078	483.606	0.049	0.111
-112.064	556.257	0.105	-0.254
-111.049	-200.000	-0.009	-0.323
-110.034	17.553	-0.069	-0.055
-109.020	-126.566	-0.254	0.038
-108.005	170.622	0.003	0.004
-106.991	-200.000	0.062	0.000
-105.976	-122.518	0.243	-0.039
-104.962	136.930	0.136	-0.177
-103.947	26.955	-0.165	-0.138
-102.932	226.773	0.143	-0.232
-101.918	-75.128	0.190	0.068
-100.903	-99.707	0.233	0.058
-99.889	-140.664	0.140	-0.014
-98.874	-200.000	0.010	0.174
-97.859	160.089	0.083	-0.116
-96.845	-100.136	0.466	-0.116
-95.830	133.512	0.200	-0.258
-94.816	241.270	0.090	0.149
-93.801	800.000	-0.103	0.359
-92.786	179.126	0.118	-0.172
-91.772	225.404	0.098	0.159
-90.757	-130.661	0.098	0.013
-89.743	-200.000	0.001	0.096
-88.728	-200.000	-0.042	0.258
-87.713	-125.192	0.181	0.028
-86.699	-200.000	0.007	-0.100
-85.684	-200.000	0.007	0.440
-84.670	-159.381	0.107	-0.006
-83.655	-200.000	0.005	-0.140
-82.640	-45.029	-0.249	-0.124
-81.626	143.105	-0.249	-0.330
-80.611	-61.154	-0.244	0.103
-79.597	-54.822	0.109	-0.049
-78.582	8.536	0.303	0.227
-77.567	-89.987	-0.175	-0.051
-76.553	-80.904	-0.168	0.056
-75.538	-108.909	-0.067	-0.014
-74.524	-94.369	-0.061	0.017
-73.509	-200.000	0.029	0.261
-72.494	198.649	-0.052	-0.080
-71.480	-47.013	0.203	-0.099
-70.465	-200.000	-0.003	0.044
-69.451	704.682	0.087	0.228
-68.436	-200.000	-0.038	0.345
-67.422	-37.535	0.129	0.069
-66.407	18.264	-0.316	0.252
-65.392	-54.888	0.184	-0.083
-64.378	-200.000	-0.014	-0.174
-63.363	800.000	-0.093	-0.383
-62.349	-179.832	0.306	-0.007
-61.334	-24.507	-0.984	-0.584
-60.319	-132.602	0.454	0.058
-59.305	-200.000	-0.121	-0.742
-58.290	529.238	0.511	1.201
-57.276	800.000	0.532	1.884
-56.261	-200.000	84.992	504.902
-55.246	523.459	1391.903	3257.883
-54.232	181.499	2610.205	3823.920
-53.217	117.643	2241.930	2747.807
-52.203	48.471	1685.454	1572.026
-51.188	41.071	1415.187	1272.799
-50.173	37.865	1371.261	1213.331
-49.159	56.503	1411.909	1367.174
-48.144	60.897	1430.851	1413.168
-47.130	41.684	1390.023	1253.819
-46.115	37.988	1372.971	1215.420
-45.100	37.708	1368.450	1209.628
-44.086	37.675	1365.699	1206.945
-43.071	37.523	1363.531	1204.038
-42.057	37.593	1361.011	1202.202
-41.042	37.670	1359.958	1201.698
-40.027	37.738	1357.772	1200.135
-39.013	37.621	1356.591	1198.322
-37.998	37.750	1354.234	1196.985
-36.984	37.717	1352.675	1195.357
-35.969	37.715	1350.985	1193.804
-34.954	37.839	1348.777	1192.564
-33.940	37.799	1347.445	1191.099
-32.925	37.818	1346.138	1190.008
-31.911	37.975	1344.559	1189.524
-30.896	37.906	1343.007	1187.684
-29.881	37.979	1341.624	1186.861
-28.867	37.947	1340.382	1185.520
-27.852	37.923	1339.089	1184.182
-26.838	37.961	1337.258	1182.745
-25.823	37.944	1336.364	1181.806
-24.809	37.907	1334.745	1180.103
-23.794	37.880	1333.374	1178.681
-22.779	37.853	1332.140	1177.381
-21.765	37.965	1330.786	1176.814
-20.750	37.960	1328.935	1175.101
-19.736	37.793	1327.908	1173.137
-18.721	37.808	1326.604	1172.027
-17.706	37.786	1324.927	1170.370
-16.692	37.731	1324.224	1169.370
-15.677	37.787	1322.786	1168.393
-14.663	37.845	1321.412	1167.480
-13.648	37.719	1320.875	1166.204
-12.633	37.745	1319.811	1165.374
-11.619	37.778	1318.413	1164.292
-10.604	37.715	1318.419	1163.876
-9.590	37.660	1317.000	1162.245
-8.575	37.798	1315.874	1162.029
-7.560	37.799	1315.072	1161.280
-6.546	37.693	1314.086	1159.732
-5.531	37.746	1313.128	1159.155
-4.517	37.772	1312.269	1158.506
-3.502	37.731	1311.415	1157.460
-2.487	37.747	1310.391	1156.609
-1.473	37.804	1306.859	1153.782
-0.458	36.995	1291.916	1135.810
0.556	32.321	1272.191	1096.849
1.571	28.193	1276.653	1076.378
2.586	26.725	1290.894	1079.548
3.600	25.322	1278.993	1061.213
4.615	19.313	1203.416	964.891
5.629	9.937	1122.147	850.485
6.644	5.267	1099.528	809.128
7.659	4.828	1096.197	804.340
8.673	4.652	1095.217	802.639
9.688	4.604	1093.834	801.309
10.702	5.095	1092.452	802.752
11.717	10.786	1101.164	838.524
12.731	18.584	1111.844	887.068
13.746	19.700	1112.437	893.233
14.761	17.868	1108.915	880.880
15.775	16.577	1106.728	872.410
16.790	15.489	1104.941	865.320
17.804	14.875	1103.194	860.719
18.819	14.568	1101.662	857.867
19.834	14.169	1100.700	854.992
20.848	13.884	1099.994	852.903
21.863	13.684	1099.156	851.150
22.877	13.653	1097.938	849.974
23.892	13.494	1097.691	848.893
24.907	13.508	1096.724	848.140
25.921	13.594	1095.766	847.764
26.936	13.517	1094.245	846.122
27.950	13.573	1092.885	845.282
28.965	13.699	1091.914	845.097
29.980	13.675	1089.866	843.313
30.994	13.792	1088.567	842.827
32.009	13.873	1087.286	842.173
33.023	13.829	1086.459	841.236
34.038	13.729	1085.471	839.888
35.053	13.727	1084.484	839.044
36.067	13.667	1083.647	838.017
37.082	13.735	1082.736	837.580
38.096	13.786	1082.268	837.401
39.111	13.772	1081.054	836.320
40.126	13.770	1079.686	835.178
41.140	13.323	1079.079	832.385
42.155	13.428	1077.360	831.510
43.169	13.332	1076.603	830.371
44.184	13.481	1075.236	829.992
45.199	13.450	1073.880	828.715
46.213	13.541	1072.885	828.329
47.228	13.598	1071.894	827.774
48.242	13.601	1071.215	827.191
49.257	13.591	1070.129	826.231
50.271	13.717	1068.923	825.857
51.286	13.665	1068.352	825.084
52.301	13.588	1067.446	823.929
53.315	13.558	1066.087	822.657
54.330	13.551	1064.983	821.694
55.344	13.502	1064.136	820.728
56.359	13.529	1063.719	820.466
57.374	13.501	1062.128	819.028
58.388	13.461	1062.045	818.696
59.403	13.371	1060.802	817.218
60.417	13.327	1060.075	816.369
61.432	13.435	1058.830	815.871
62.447	13.399	1057.922	814.919
63.461	13.309	1057.290	813.922
64.476	13.278	1056.482	813.071
65.490	13.316	1055.460	812.404
66.505	13.280	1055.184	811.942
67.520	13.430	1054.312	811.933
68.534	13.392	1053.542	811.082
69.549	13.412	1052.939	810.646
70.563	13.326	1051.748	809.237
71.578	13.288	1051.190	808.549
72.593	13.310	1050.373	807.958
73.607	13.252	1049.686	807.074
74.622	13.410	1048.957	807.212
75.636	13.285	1048.348	806.064
76.651	13.337	1047.503	805.593
77.666	13.299	1047.090	805.018
78.680	13.320	1046.425	804.541
79.695	13.360	1045.593	804.022
80.709	13.361	1045.159	803.625
81.724	13.503	1044.218	803.516
82.739	13.517	1043.359	802.855
83.753	13.630	1042.666	802.797
84.768	13.710	1041.849	802.482
85.782	13.718	1041.204	801.955
86.797	13.729	1040.434	801.345
87.812	13.604	1039.529	799.975
88.826	13.561	1037.934	798.467
89.841	13.772	1036.335	798.183
90.855	13.758	1035.933	797.733
91.870	13.771	1035.036	797.037
92.884	13.702	1034.451	796.183
93.899	13.828	1033.368	795.884
94.914	13.942	1032.536	795.719
95.928	13.811	1032.188	794.752
96.943	13.748	1031.000	793.464
97.957	13.803	1029.772	792.711
98.972	13.625	1029.649	791.697
99.987	13.643	1028.973	791.193
101.001	13.703	1027.603	790.358
102.016	13.771	1026.601	789.839
103.030	13.701	1026.054	789.019
104.045	13.703	1024.999	788.146
105.060	13.608	1024.262	787.055
106.074	13.658	1023.133	786.356
107.089	13.480	1022.089	784.642
108.103	13.447	1021.248	783.772
109.118	13.511	1020.187	783.189
110.133	13.500	1019.173	782.291
111.147	13.561	1018.285	781.829
112.162	13.570	1017.441	781.151
113.176	13.547	1016.673	780.385
114.191	13.630	1015.757	780.002
115.206	13.558	1015.314	779.255
116.220	13.543	1014.391	778.406
117.235	13.545	1013.391	777.582
118.249	13.548	1012.534	776.869
119.264	13.566	1011.903	776.401
120.279	13.537	1010.701	775.273
121.293	13.453	1010.384	774.568
122.308	13.494	1008.907	773.559
123.322	13.439	1008.065	772.587
124.337	13.417	1006.956	771.566
125.352	13.422	1006.002	770.791
126.366	13.423	1005.035	769.989
127.381	13.419	1004.279	769.323
128.395	13.460	1002.881	768.375
129.410	13.462	1002.364	767.920
130.424	13.519	1001.284	767.289
131.439	13.648	1000.551	767.253
132.454	13.631	999.731	766.478
133.468	13.642	999.098	765.979
134.483	13.623	998.238	765.162
135.497	13.594	997.472	764.374
136.512	13.798	996.169	764.247
137.527	13.694	995.390	763.103
138.541	13.648	994.959	762.494
139.556	13.690	994.159	762.006
140.570	13.699	993.770	761.683
141.585	13.855	992.693	761.505
142.600	14.003	991.485	761.190
143.614	14.028	990.463	760.452
144.629	13.911	990.173	759.626
145.643	13.954	988.975	758.839
146.658	13.781	988.239	757.416
147.673	13.856	986.882	756.649
148.687	13.761	986.293	755.700
149.702	13.681	985.855	754.933
150.716	13.709	984.674	754.089
151.731	13.700	984.132	753.566
152.746	13.728	983.417	753.078
153.760	13.883	982.598	753.088
154.775	13.807	981.906	752.146
155.789	13.912	981.405	752.171
156.804	13.862	980.721	751.354
157.819	14.018	979.705	751.212
158.833	13.833	979.321	750.016
159.848	13.984	978.525	750.022
160.862	13.927	977.543	748.947
161.877	13.941	976.240	747.944
162.892	13.839	975.191	746.619
163.906	13.674	974.665	745.405
164.921	13.719	974.007	745.040
165.935	13.781	973.015	744.494
166.950	13.819	972.034	743.846
167.964	13.829	971.167	743.161
168.979	13.797	970.102	742.139
169.994	13.766	969.173	741.223
171.008	13.789	968.668	740.876
172.023	14.005	967.698	741.031
173.037	13.972	967.123	740.379
174.052	13.968	966.396	739.736
175.067	13.952	965.635	739.020
176.081	13.854	965.107	738.115
177.096	13.784	964.557	737.315
178.110	13.899	963.675	737.087
179.125	13.948	962.991	736.717
180.140	13.959	962.470	736.299
181.154	13.940	962.288	736.013
182.169	14.058	961.708	736.027
183.183	14.127	960.759	735.541
184.198	14.148	960.104	735.065
185.213	14.002	959.601	733.971
186.227	14.094	958.733	733.648
187.242	14.046	958.311	733.050
188.256	14.290	957.207	733.213
189.271	14.276	956.518	732.562
190.286	14.049	955.695	730.868
191.300	13.752	955.188	729.110
192.315	13.856	954.567	729.029
193.329	13.958	953.734	728.774
194.344	13.856	953.452	728.049
195.359	13.985	952.465	727.794
196.373	14.204	951.640	728.059
197.388	14.203	951.629	727.980
198.402	14.234	950.920	727.510
199.417	14.328	950.475	727.513
200.432	14.474	949.577	727.401
201.446	14.480	949.270	727.127
202.461	14.556	948.663	726.930
203.475	14.364	948.431	725.850
204.490	14.496	947.301	725.496
205.504	14.357	946.279	724.044
206.519	14.430	945.180	723.456
207.534	14.277	945.118	722.682
208.548	14.403	944.091	722.377
209.563	14.391	943.759	722.007
210.577	14.351	943.124	721.285
211.592	14.481	942.190	721.068
212.607	14.549	941.524	720.790
213.621	14.536	940.630	719.987
214.636	14.513	940.038	719.370
215.650	14.515	939.437	718.853
216.665	14.529	938.748	718.325
217.680	14.536	938.122	717.812
218.694	14.766	936.838	717.754
219.709	14.693	936.637	717.223
220.723	14.544	935.900	715.955
221.738	14.530	935.044	715.176
222.753	14.530	934.495	714.696
223.767	14.663	933.991	714.813
224.782	14.717	933.244	714.412
225.796	14.629	933.037	713.813
226.811	14.735	932.054	713.452
227.826	14.586	931.332	712.197
228.840	14.678	930.562	711.938
229.855	14.639	929.828	711.148
230.869	14.561	929.482	710.490
231.884	14.526	928.384	709.437
232.899	14.682	927.201	709.135
233.913	14.597	926.764	708.375
234.928	14.539	926.177	707.617
235.942	14.557	925.730	707.290
236.957	14.660	925.003	707.110
237.972	14.594	924.255	706.194
238.986	14.646	923.696	705.924
240.001	14.634	923.146	705.393
241.015	14.568	922.750	704.751
242.030	14.669	921.647	704.269
243.045	14.811	921.010	704.320
244.059	14.796	920.661	703.927
245.074	14.757	919.970	703.174
246.088	14.803	919.130	702.662
247.103	14.867	918.322	702.252
248.117	14.982	918.200	702.578
249.132	15.120	917.608	702.640
250.147	15.187	917.055	702.438
251.161	15.074	916.625	701.570
252.176	15.171	915.701	701.209
253.190	15.153	915.137	700.641
254.205	15.272	914.231	700.381
255.220	15.326	913.471	699.963
256.234	15.373	912.737	699.533
257.249	15.277	912.295	698.732
258.263	15.238	911.856	698.173
259.278	15.266	911.091	697.642
260.293	15.339	910.667	697.558
261.307	15.304	909.852	696.727
262.322	15.338	909.882	696.831
263.336	15.411	908.589	696.081
264.351	15.499	907.578	695.608
265.366	15.451	907.193	695.055
266.380	15.418	906.847	694.592
267.395	15.520	905.696	694.071
268.409	15.310	904.882	692.517
269.424	15.430	903.979	692.258
270.439	15.283	903.778	691.440
271.453	15.271	903.479	691.099
272.468	15.315	902.785	690.688
273.482	15.329	901.949	690.046
274.497	15.441	900.675	689.467
275.512	15.492	900.512	689.492
276.526	15.407	900.556	689.117
277.541	15.417	899.833	688.545
278.555	15.491	898.857	688.040
279.570	15.619	898.198	687.999
280.585	15.687	897.310	687.534
281.599	15.614	896.733	686.734
282.614	15.638	895.527	685.846
283.628	15.602	895.449	685.581
284.643	15.567	895.054	685.074
285.657	15.612	894.195	684.540
286.672	15.752	893.142	684.244
287.687	15.583	893.089	683.454
288.701	15.630	892.171	682.883
289.716	15.632	891.880	682.606
290.730	15.561	891.487	681.958
291.745	15.728	890.479	681.801
292.760	15.588	889.840	680.686
293.774	15.799	889.358	681.109
294.789	15.841	888.753	680.757
295.803	15.749	887.805	679.601
296.818	15.660	887.124	678.658
297.833	15.607	886.515	677.917
298.847	15.596	886.160	677.544
299.862	15.811	885.548	677.883
300.876	15.870	884.761	677.456
301.891	15.863	884.389	677.085
302.906	15.870	883.873	676.655
303.920	15.923	883.495	676.520
304.935	15.958	882.286	675.677
305.949	16.091	881.893	675.848
306.964	15.944	881.049	674.551
307.979	16.102	880.573	674.761
308.993	16.062	879.973	674.082
310.008	16.095	879.631	673.892
311.022	15.997	878.917	672.895
312.037	16.009	878.221	672.347
313.052	15.863	877.542	671.187
314.066	15.968	876.754	670.944
315.081	15.899	876.387	670.329
316.095	15.937	876.151	670.240
317.110	16.062	874.913	669.730
318.125	16.002	874.834	669.373
319.139	15.884	874.676	668.723
320.154	15.957	874.199	668.589
321.168	15.943	873.261	667.758
322.183	15.898	872.498	666.938
323.197	15.942	872.353	666.942
324.212	16.153	871.467	667.038
325.227	16.131	870.942	666.492
326.241	16.172	870.362	666.150
327.256	16.138	869.541	665.330
328.270	16.051	869.049	664.549
329.285	16.013	868.567	663.975
330.300	16.018	867.973	663.481
331.314	16.148	867.246	663.377
332.329	16.154	867.032	663.178
333.343	16.057	867.145	662.824
334.358	16.225	866.166	662.677
335.373	16.259	865.538	662.273
336.387	16.405	865.213	662.539
337.402	16.314	865.405	662.268
338.416	16.305	865.148	661.980
339.431	16.416	864.433	661.807
340.446	16.515	863.643	661.532
341.460	16.486	863.749	661.442
342.475	16.484	863.439	661.138
343.489	16.422	862.840	660.376
344.504	16.484	862.402	660.225
345.519	16.690	861.677	660.415
346.533	16.514	861.501	659.535
347.548	16.609	860.484	659.071
348.562	16.603	859.997	658.615
349.577	16.394	859.622	657.457
350.592	16.395	858.971	656.903
351.606	16.396	857.755	655.921
352.621	16.525	857.220	655.952
353.635	16.633	856.647	655.876
354.650	16.622	855.913	655.215
355.665	16.460	855.862	654.488
356.679	16.530	854.937	653.996
357.694	16.601	854.292	653.716
358.708	16.566	853.729	653.091
359.723	16.767	852.825	653.119
360.738	16.621	852.173	651.999
361.752	16.572	852.031	651.645
362.767	16.741	851.150	651.563
363.781	16.823	850.745	651.509
364.796	16.862	850.555	651.456
365.810	16.708	850.173	650.516
366.825	16.899	849.806	650.911
367.840	16.796	849.085	649.905
368.854	16.872	848.719	649.859
369.869	16.914	848.238	649.595
370.883	16.877	847.806	649.064
371.898	16.950	847.159	648.791
372.913	16.905	846.844	648.319
373.927	16.959	846.213	647.985
374.942	17.018	845.659	647.730
375.956	17.079	845.609	647.867
376.971	16.968	845.406	647.228
377.986	17.115	844.688	647.184
379.000	17.085	844.093	646.556
380.015	17.046	843.547	645.933
381.029	17.090	842.954	645.588
382.044	17.187	842.487	645.541
383.059	17.075	842.038	644.717
384.073	17.138	841.157	644.223
385.088	17.017	840.366	643.102
386.102	17.021	839.857	642.672
387.117	17.026	839.258	642.175
388.132	17.179	838.279	641.948
389.146	17.148	837.935	641.508
390.161	17.215	837.391	641.290
391.175	17.139	837.144	640.757
392.190	17.109	836.763	640.296
393.205	17.192	836.256	640.164
394.219	17.294	835.661	640.036
395.234	17.098	835.367	639.014
396.248	17.130	834.599	638.490
397.263	17.002	834.399	637.801
398.278	17.029	834.050	637.580
399.292	17.084	833.532	637.332
400.307	17.048	833.132	636.835
401.321	17.120	832.592	636.636
402.336	17.078	832.197	636.121
403.350	17.245	831.552	636.197
404.365	17.295	831.360	636.183
405.380	17.467	830.376	636.014
406.394	17.323	830.230	635.310
407.409	17.535	829.541	635.517
408.423	17.548	829.342	635.355
409.438	17.605	829.181	635.391
410.453	17.636	828.653	635.045
411.467	17.561	828.383	634.502
412.482	17.649	827.801	634.326
413.496	17.691	827.490	634.188
414.511	17.805	826.522	633.816
415.526	17.689	826.099	633.003
416.540	17.766	825.666	632.903
417.555	17.723	825.267	632.381
418.569	17.765	825.083	632.339
419.584	17.780	824.785	632.108
420.599	17.746	824.032	631.352
421.613	147.839	1368.903	1776.606
422.628	128.669	1448.312	1776.725
