DTS Sentinel unit serial number:	SN413079Multiplexer serial number:	ORYXHardware model number:	OX4-SRSoftware version number:	ORYX F/W v4.00 Oryx Data Collector v3.7.2.0data status	okinstallation	princeton_trtdifferential loss correction	single-endedforward channel	channel 1reverse channel	N/Adate	2019/09/18time	18:54:36forward acquisition time	60.00reverse acquisition time	0.00gamma	496.2192k internal	0.2306k external	0.2306temperature offset calibration	1.0021default loss term (dB/km)	0.3790temperature slope calibration	1.0000multiplexer offset coefficient	1.0000multiplexer slope coefficient	1.0000fibre end	0.00T internal ref (°C)	36.64T ext. ref 1 (°C)	0.92T ext. ref 2 (°C)	26.20length (m)	temperature (°C)	Stokes	anti-Stokes-747.200	20.302	-0.184	-0.151
-746.185	-200.000	-0.065	0.389
-745.171	30.874	-0.120	0.104
-744.156	521.245	-0.069	-0.164
-743.142	-5.009	0.254	-0.178
-742.127	495.361	-0.089	0.208
-741.112	800.000	-0.058	0.237
-740.098	-200.000	-0.003	0.329
-739.083	42.140	0.112	0.104
-738.069	486.515	0.239	0.554
-737.054	-93.766	0.152	0.043
-736.039	595.933	-0.031	-0.078
-735.025	-29.490	0.051	0.030
-734.010	-158.240	-0.229	-0.014
-732.996	138.630	-0.286	-0.382
-731.981	-106.199	-0.083	0.019
-730.966	800.000	0.092	0.282
-729.952	328.047	-0.191	-0.373
-728.937	-118.536	-0.424	-0.076
-727.923	-7.361	0.252	0.173
-726.908	-134.478	0.256	-0.032
-725.894	596.427	0.101	-0.255
-724.879	-200.000	-0.012	0.066
-723.864	-38.474	-0.099	0.053
-722.850	117.858	-0.098	-0.123
-721.835	-175.935	-0.207	-0.006
-720.821	26.689	0.084	-0.071
-719.806	-30.919	-0.217	-0.125
-718.791	373.223	-0.072	-0.149
-717.777	-143.731	-0.082	0.008
-716.762	-200.000	-0.018	0.085
-715.748	132.956	0.102	0.134
-714.733	20.110	0.221	-0.181
-713.718	800.000	-0.121	-0.373
-712.704	641.698	-0.087	0.225
-711.689	270.236	-0.105	0.188
-710.675	800.000	-0.072	-0.266
-709.660	-7.733	0.184	-0.127
-708.645	-29.551	-0.222	-0.129
-707.631	800.000	-0.042	0.185
-706.616	-101.642	0.226	-0.056
-705.602	-91.939	0.331	0.095
-704.587	261.719	-0.075	-0.131
-703.572	502.456	0.106	-0.250
-702.558	-112.101	0.356	-0.073
-701.543	-128.813	0.180	-0.026
-700.529	17.000	-0.112	0.090
-699.514	800.000	-0.031	0.113
-698.499	42.240	0.104	-0.096
-697.485	49.032	0.121	0.116
-696.470	800.000	0.082	0.262
-695.456	-75.839	-0.210	-0.076
-694.441	321.831	0.032	-0.062
-693.426	-79.861	-0.206	0.070
-692.412	129.065	0.253	-0.328
-691.397	207.284	0.191	-0.302
-690.383	283.042	0.096	-0.175
-689.368	-42.339	-0.255	0.132
-688.354	133.183	0.049	0.065
-687.339	-45.101	-0.150	-0.076
-686.324	-86.331	0.372	-0.116
-685.310	19.107	0.102	0.083
-684.295	714.846	0.080	-0.216
-683.281	-123.150	0.285	0.046
-682.266	518.627	-0.085	-0.203
-681.251	-139.794	-0.290	0.031
-680.237	328.858	-0.159	-0.309
-679.222	-6.645	-0.169	0.116
-678.208	75.495	-0.090	0.097
-677.193	-161.306	-0.464	0.024
-676.178	567.707	-0.178	0.440
-675.164	-56.349	0.205	-0.092
-674.149	96.719	0.164	0.191
-673.135	108.215	0.161	0.195
-672.120	97.023	-0.160	-0.186
-671.105	800.000	-0.014	0.049
-670.091	-28.914	-0.231	0.135
-669.076	129.869	-0.091	-0.119
-668.062	-143.451	0.505	0.049
-667.047	81.775	0.161	0.177
-666.032	800.000	-0.042	-0.135
-665.018	-200.000	-0.005	0.094
-664.003	-152.752	-0.430	0.031
-662.989	-44.050	0.130	0.066
-661.974	-125.256	0.193	-0.030
-660.959	-134.901	0.107	0.013
-659.945	114.824	-0.178	-0.220
-658.930	-97.214	0.213	-0.056
-657.916	14.192	-0.105	0.083
-656.901	800.000	0.071	0.283
-655.886	-200.000	0.028	0.142
-654.872	365.945	-0.039	-0.080
-653.857	800.000	0.044	0.178
-652.843	78.346	0.146	0.158
-651.828	-200.000	0.004	0.181
-650.814	12.114	-0.090	0.071
-649.799	129.710	0.193	0.250
-648.784	-133.635	-0.412	0.052
-647.770	-197.233	-0.039	0.000
-646.755	-200.000	-0.036	-0.414
-645.741	138.265	0.045	0.059
-644.726	-172.352	0.251	-0.008
-643.711	-47.558	0.289	-0.142
-642.697	-107.261	-0.162	0.036
-641.682	199.567	-0.071	0.111
-640.668	79.052	-0.122	0.132
-639.653	-200.000	-0.058	0.297
-638.638	52.981	0.308	-0.299
-637.624	85.814	-0.276	-0.307
-636.609	32.285	-0.130	0.114
-635.595	34.441	-0.132	0.117
-634.580	103.410	-0.217	-0.258
-633.565	-200.000	0.046	-0.395
-632.551	3.111	-0.042	-0.031
-631.536	138.719	0.105	-0.140
-630.522	-97.515	0.389	0.102
-629.507	-77.456	0.146	-0.051
-628.492	-182.141	-0.050	0.001
-627.478	-200.000	-0.017	-0.123
-626.463	-200.000	0.014	-0.152
-625.449	-200.000	-0.034	-0.275
-624.434	307.785	0.092	0.174
-623.419	-107.116	-0.186	-0.041
-622.405	220.401	-0.075	-0.122
-621.390	335.155	0.108	-0.211
-620.376	112.178	-0.126	-0.154
-619.361	70.089	0.269	0.281
-618.346	672.647	-0.067	-0.176
-617.332	707.700	-0.018	-0.049
-616.317	375.759	0.092	-0.190
-615.303	-97.374	-0.321	0.085
-614.288	-120.003	-0.063	0.011
-613.273	-1.270	-0.090	0.065
-612.259	-101.545	0.157	0.039
-611.244	31.946	-0.258	0.225
-610.230	-200.000	0.033	-0.169
-609.215	335.629	-0.088	0.173
-608.201	202.228	-0.085	0.133
-607.186	-86.158	0.145	-0.045
-606.171	171.123	0.094	0.137
-605.157	-78.819	-0.130	-0.045
-604.142	124.472	-0.124	-0.158
-603.128	118.871	0.149	-0.186
-602.113	76.239	0.213	0.228
-601.098	323.667	-0.071	-0.138
-600.084	-146.315	-0.222	-0.020
-599.069	-100.393	0.374	-0.094
-598.055	43.432	0.058	-0.054
-597.040	217.426	-0.104	-0.167
-596.025	-136.657	-0.074	0.009
-595.011	-21.220	-0.054	-0.033
-593.996	156.084	0.122	-0.170
-592.982	492.668	0.052	-0.120
-591.967	-24.076	-0.099	-0.060
-590.952	-200.000	0.000	0.090
-589.938	-200.000	0.007	0.171
-588.923	-200.000	-0.076	0.404
-587.909	-200.000	-0.005	-0.138
-586.894	-200.000	-0.040	-0.467
-585.879	160.005	0.062	0.087
-584.865	800.000	-0.089	0.314
-583.850	-200.000	-0.046	-0.285
-582.836	-104.912	0.112	0.026
-581.821	538.576	0.098	-0.235
-580.806	-0.088	0.229	0.164
-579.792	21.736	-0.187	0.154
-578.777	174.662	-0.121	-0.177
-577.763	249.868	-0.131	-0.224
-576.748	-200.000	0.007	-0.136
-575.733	-46.499	0.172	0.085
-574.719	1.890	-0.133	0.097
-573.704	153.830	-0.164	-0.226
-572.690	130.625	-0.228	0.296
-571.675	-164.959	-0.288	-0.013
-570.661	-56.472	-0.257	0.115
-569.646	-200.000	-0.011	-0.183
-568.631	-172.405	-0.126	-0.004
-567.617	57.497	0.144	-0.143
-566.602	77.582	-0.378	-0.406
-565.588	80.341	-0.027	0.029
-564.573	-159.669	-0.012	-0.001
-563.558	-83.251	-0.210	-0.068
-562.544	-119.595	0.130	0.023
-561.529	761.094	0.069	0.188
-560.515	800.000	0.075	-0.249
-559.500	-37.762	0.299	-0.161
-558.485	800.000	0.033	-0.124
-557.471	-200.000	-0.027	0.330
-556.456	-24.873	-0.066	-0.039
-555.442	-200.000	-0.014	-0.189
-554.427	16.223	-0.343	0.273
-553.412	-200.000	-0.016	0.262
-552.398	-29.927	0.060	-0.035
-551.383	-200.000	0.024	0.176
-550.369	-200.000	0.019	-0.348
-549.354	800.000	-0.117	-0.387
-548.339	-71.170	0.131	0.050
-547.325	-71.939	0.237	-0.089
-546.310	-182.325	0.208	-0.004
-545.296	137.864	-0.083	-0.110
-544.281	71.245	-0.063	-0.066
-543.266	-132.772	-0.142	-0.018
-542.252	-200.000	-0.046	-0.441
-541.237	350.872	-0.106	-0.212
-540.223	-119.860	-0.217	-0.038
-539.208	-117.332	-0.124	0.023
-538.193	-38.149	0.076	-0.041
-537.179	-68.281	0.273	0.107
-536.164	-8.127	-0.121	0.082
-535.150	-61.193	-0.257	0.109
-534.135	-200.000	-0.023	0.272
-533.121	-200.000	-0.003	0.344
-532.106	-200.000	0.004	0.050
-531.091	116.694	-0.282	-0.349
-530.077	441.436	-0.045	-0.100
-529.062	800.000	0.039	0.123
-528.048	-168.453	-0.095	0.004
-527.033	-31.963	0.288	-0.162
-526.018	-110.913	0.258	-0.054
-525.004	67.290	-0.107	0.110
-523.989	316.007	-0.055	-0.104
-522.975	-200.000	-0.019	-0.277
-521.960	-200.000	-0.026	-0.378
-520.945	800.000	-0.002	-0.006
-519.931	-65.505	0.365	0.148
-518.916	237.854	0.144	0.241
-517.902	-74.340	0.081	-0.030
-516.887	-27.156	-0.333	-0.196
-515.872	167.285	0.027	0.039
-514.858	-36.197	0.384	-0.209
-513.843	-200.000	-0.020	-0.123
-512.829	-36.879	0.102	-0.055
-511.814	-200.000	-0.066	-0.479
-510.799	-126.035	0.554	-0.084
-509.785	281.258	0.104	-0.187
-508.770	-200.000	0.035	-0.179
-507.756	384.645	-0.116	-0.242
-506.741	64.351	0.091	-0.093
-505.726	-200.000	-0.017	0.089
-504.712	-122.351	0.181	-0.030
-503.697	134.726	-0.125	0.163
-502.683	42.185	-0.187	-0.171
-501.668	-200.000	-0.082	0.445
-500.653	800.000	-0.037	0.126
-499.639	-200.000	-0.025	-0.222
-498.624	-200.000	0.308	0.001
-497.610	800.000	0.089	0.252
-496.595	-200.000	-0.015	0.191
-495.581	-200.000	-0.021	-0.198
-494.566	59.976	0.122	0.121
-493.551	-112.401	-0.147	-0.030
-492.537	540.253	-0.166	-0.398
-491.522	42.062	0.184	-0.168
-490.508	-84.312	-0.090	0.029
-489.493	552.362	-0.070	0.169
-488.478	-62.282	-0.222	-0.093
-487.464	-200.000	-0.023	-0.216
-486.449	-75.838	0.075	-0.027
-485.435	227.233	0.104	-0.171
-484.420	-156.390	-0.516	-0.032
-483.405	-51.088	0.182	0.086
-482.391	148.135	0.182	-0.247
-481.376	58.911	0.046	-0.045
-480.362	-129.483	0.124	0.017
-479.347	-20.775	0.123	-0.076
-478.332	-81.611	0.468	0.155
-477.318	-86.076	-0.241	-0.075
-476.303	378.831	-0.149	-0.306
-475.289	-78.228	-0.200	-0.069
-474.274	-16.743	-0.139	0.089
-473.259	262.763	0.237	-0.415
-472.245	-109.772	-0.493	0.104
-471.230	25.488	-0.009	0.008
-470.216	179.118	0.112	0.165
-469.201	246.929	0.076	0.130
-468.186	600.366	-0.077	-0.192
-467.172	136.292	-0.080	-0.105
-466.157	122.612	0.159	-0.200
-465.143	-22.858	0.393	-0.239
-464.128	-38.356	-0.333	-0.178
-463.113	-200.000	-0.008	-0.041
-462.099	784.228	-0.095	0.262
-461.084	800.000	0.016	0.054
-460.070	-25.124	-0.173	-0.103
-459.055	-200.000	-0.071	0.345
-458.040	800.000	-0.002	-0.009
-457.026	-55.507	-0.202	0.091
-456.011	-106.821	-0.139	-0.031
-454.997	23.484	0.050	-0.041
-453.982	356.532	-0.054	-0.108
-452.968	-200.000	0.066	0.589
-451.953	-47.897	0.268	0.130
-450.938	-200.000	0.043	0.249
-449.924	116.794	-0.135	-0.167
-448.909	586.419	-0.123	-0.304
-447.895	198.008	0.052	0.079
-446.880	-200.000	-0.009	0.103
-445.865	-87.400	-0.539	0.164
-444.851	75.860	0.089	-0.095
-443.836	-79.220	0.400	-0.136
-442.822	560.672	-0.116	-0.283
-441.807	-44.774	-0.182	-0.091
-440.792	800.000	0.105	0.406
-439.778	-148.263	-0.303	0.025
-438.763	495.306	-0.089	-0.204
-437.749	-57.988	-0.131	0.057
-436.734	-130.105	-0.131	-0.018
-435.719	-200.000	0.053	-0.255
-434.705	-26.504	0.053	-0.031
-433.690	-66.964	-0.151	0.060
-432.676	-100.270	0.066	0.017
-431.661	239.021	0.014	0.024
-430.646	-200.000	0.001	-0.176
-429.632	-3.898	-0.073	-0.051
-428.617	24.137	-0.067	-0.056
-427.603	7.882	-0.143	0.107
-426.588	-49.376	0.212	0.101
-425.573	800.000	-0.147	0.457
-424.559	126.782	-0.070	-0.089
-423.544	-9.439	0.083	0.056
-422.530	-77.014	-0.193	0.068
-421.515	-200.000	0.181	0.001
-420.500	800.000	-0.052	0.170
-419.486	-200.000	0.003	-0.034
-418.471	-167.523	-0.201	-0.008
-417.457	-200.000	-0.036	-0.259
-416.442	-53.367	-0.038	0.017
-415.428	221.153	0.084	-0.135
-414.413	-200.000	-0.034	0.160
-413.398	-200.000	0.003	0.248
-412.384	59.311	-0.213	0.211
-411.369	-129.299	-0.259	-0.036
-410.355	199.176	-0.025	0.038
-409.340	-22.096	0.071	0.044
-408.325	-71.415	0.248	0.093
-407.311	800.000	-0.021	0.076
-406.296	-59.589	-0.136	-0.059
-405.282	780.960	-0.062	-0.169
-404.267	-170.641	0.117	-0.004
-403.252	-99.159	0.145	0.037
-402.238	69.559	-0.172	0.178
-401.223	-200.000	-0.016	0.167
-400.209	275.872	-0.177	0.316
-399.194	-158.648	-0.285	-0.016
-398.179	-72.488	-0.175	0.065
-397.165	276.994	0.195	0.348
-396.150	-200.000	-0.061	0.286
-395.136	-71.654	0.146	0.055
-394.121	-62.090	-0.238	-0.099
-393.106	-200.000	0.017	-0.182
-392.092	-53.027	0.090	-0.041
-391.077	-113.872	0.151	0.029
-390.063	-84.410	0.270	-0.086
-389.048	-200.000	0.037	0.360
-388.033	-200.000	-0.015	0.176
-387.019	179.669	-0.034	0.050
-386.004	-44.509	-0.307	0.154
-384.990	-200.000	0.035	0.228
-383.975	-88.495	-0.351	0.105
-382.960	258.353	0.141	0.243
-381.946	137.493	0.154	0.202
-380.931	-58.553	0.152	-0.066
-379.917	66.574	-0.460	0.469
-378.902	265.611	0.136	0.238
-377.888	800.000	-0.065	-0.257
-376.873	8.408	0.206	-0.155
-375.858	-7.653	0.107	-0.073
-374.844	-134.329	0.411	-0.051
-373.829	262.260	-0.094	-0.163
-372.815	-200.000	0.014	-0.122
-371.800	-200.000	0.067	0.332
-370.785	-76.045	0.178	-0.063
-369.771	341.984	-0.055	-0.108
-368.756	361.519	0.029	-0.058
-367.742	36.627	0.037	0.033
-366.727	-200.000	0.011	0.151
-365.712	-71.357	-0.236	0.089
-364.698	800.000	0.069	-0.275
-363.683	-103.169	0.500	-0.118
-362.669	338.671	0.162	-0.316
-361.654	-127.033	-0.293	-0.043
-360.639	138.387	0.166	0.219
-359.625	-83.017	-0.168	-0.054
-358.610	-168.271	0.209	-0.008
-357.596	38.618	0.257	-0.230
-356.581	37.598	-0.218	0.194
-355.566	-44.715	-0.133	-0.066
-354.552	31.668	-0.127	0.109
-353.537	-97.392	-0.228	0.059
-352.523	-128.564	-0.170	0.024
-351.508	-71.242	0.180	-0.068
-350.493	152.421	0.058	-0.080
-349.479	47.348	-0.058	-0.054
-348.464	800.000	-0.041	-0.153
-347.450	-46.457	-0.203	-0.100
-346.435	285.527	-0.083	-0.149
-345.420	386.241	-0.031	-0.065
-344.406	-86.487	-0.099	-0.030
-343.391	170.297	0.058	0.083
-342.377	-15.358	0.087	-0.056
-341.362	-140.579	-0.296	-0.031
-340.348	800.000	0.047	0.148
-339.333	25.922	-0.057	0.048
-338.318	31.456	0.215	-0.185
-337.304	795.631	0.072	-0.199
-336.289	-36.747	0.375	0.202
-335.275	-200.000	-0.032	0.157
-334.260	382.331	0.051	0.105
-333.245	-24.381	0.431	-0.257
-332.231	-62.671	-0.234	-0.097
-331.216	-200.000	-0.006	0.085
-330.202	-125.392	-0.263	-0.040
-329.187	-118.996	0.217	0.038
-328.172	-200.000	0.001	0.103
-327.158	-32.512	0.183	-0.102
-326.143	602.568	0.170	-0.424
-325.129	-50.515	-0.250	0.118
-324.114	32.681	0.116	0.100
-323.099	63.416	0.281	-0.282
-322.085	-103.855	-0.131	-0.031
-321.070	-200.000	-0.001	0.115
-320.056	-79.893	-0.277	0.093
-319.041	-200.000	0.014	0.155
-318.026	-5.916	-0.153	0.104
-317.012	731.314	0.130	0.347
-315.997	278.750	-0.140	0.249
-314.983	-35.795	0.226	-0.123
-313.968	-200.000	-0.039	-0.187
-312.953	-151.784	-0.340	-0.025
-311.939	-17.338	-0.213	-0.134
-310.924	5.558	-0.223	-0.165
-309.910	-95.669	-0.059	0.016
-308.895	89.128	-0.195	0.217
-307.880	-200.000	0.003	0.043
-306.866	-129.634	0.223	0.031
-305.851	-81.382	-0.185	0.061
-304.837	376.693	0.173	-0.354
-303.822	-3.176	-0.196	-0.137
-302.807	53.196	-0.237	0.227
-301.793	298.442	-0.096	0.177
-300.778	180.827	-0.180	0.265
-299.764	-200.000	0.063	-0.312
-298.749	229.438	-0.173	0.282
-297.735	68.154	-0.151	0.155
-296.720	-86.257	0.212	0.065
-295.705	-185.670	-0.124	-0.002
-294.691	489.809	0.082	0.186
-293.676	-2.877	-0.214	-0.149
-292.662	143.026	-0.071	-0.094
-291.647	-35.332	-0.111	0.060
-290.632	-92.613	0.048	0.013
-289.618	-36.125	0.208	-0.112
-288.603	-23.389	0.070	0.042
-287.589	-200.000	0.049	0.393
-286.574	193.373	0.095	-0.143
-285.559	64.554	-0.037	0.037
-284.545	141.276	-0.053	0.070
-283.530	-98.899	0.138	-0.035
-282.516	-75.652	0.273	-0.097
-281.501	-200.000	-0.027	0.170
-280.486	-50.752	-0.030	0.014
-279.472	-0.743	-0.180	0.127
-278.457	632.026	0.132	-0.333
-277.443	-20.904	0.341	-0.209
-276.428	185.951	-0.049	-0.072
-275.413	212.416	-0.228	0.359
-274.399	-200.000	-0.050	0.308
-273.384	-120.024	-0.103	-0.018
-272.370	-200.000	-0.005	0.043
-271.355	-91.328	0.077	-0.022
-270.340	-85.405	-0.122	-0.038
-269.326	-52.323	0.097	-0.045
-268.311	800.000	0.071	0.243
-267.297	148.207	-0.080	0.108
-266.282	800.000	-0.074	0.207
-265.267	-200.000	0.033	0.305
-264.253	-200.000	0.008	0.059
-263.238	-142.433	0.072	0.007
-262.224	-200.000	0.034	-0.198
-261.209	-200.000	0.095	-0.466
-260.195	37.396	0.136	0.121
-259.180	114.782	-0.076	0.092
-258.165	-79.799	0.068	-0.023
-257.151	-79.428	0.268	0.091
-256.136	-93.685	-0.300	0.083
-255.122	-86.141	-0.114	-0.035
-254.107	140.695	-0.040	-0.052
-253.092	370.972	-0.072	-0.145
-252.078	-97.237	0.280	0.073
-251.063	466.538	-0.165	0.368
-250.049	-54.708	-0.245	0.111
-249.034	-197.770	0.181	0.001
-248.019	489.322	-0.084	-0.192
-247.005	33.277	-0.024	-0.021
-245.990	81.857	-0.144	-0.155
-244.976	433.457	0.037	0.081
-243.961	142.879	-0.008	-0.010
-242.946	-93.463	0.097	-0.027
-241.932	19.720	0.377	-0.303
-240.917	593.280	-0.082	0.203
-239.903	-40.855	0.259	-0.134
-238.888	800.000	0.043	0.132
-237.873	-56.872	0.076	-0.033
-236.859	-35.327	0.220	0.119
-235.844	-200.000	-0.093	0.587
-234.830	799.183	0.018	-0.048
-233.815	176.655	0.188	-0.273
-232.800	-24.096	0.134	0.080
-231.786	-80.166	0.307	0.102
-230.771	86.798	-0.128	-0.141
-229.757	213.825	0.173	-0.273
-228.742	634.760	0.136	0.345
-227.727	126.445	0.160	0.202
-226.713	216.578	0.079	0.125
-225.698	35.766	-0.381	0.334
-224.684	-73.585	-0.487	0.177
-223.669	-20.179	-0.254	-0.156
-222.655	800.000	0.053	0.208
-221.640	-200.000	0.023	0.126
-220.625	-97.364	-0.144	0.037
-219.611	-200.000	0.020	0.097
-218.596	-109.068	0.214	-0.045
-217.582	-48.251	0.164	-0.079
-216.567	158.784	-0.149	0.206
-215.552	-200.000	0.046	-0.257
-214.538	313.182	0.015	-0.029
-213.523	-42.032	-0.164	-0.084
-212.509	800.000	-0.069	0.229
-211.494	-200.000	0.005	-0.206
-210.479	800.000	0.141	-0.473
-209.465	800.000	0.035	-0.137
-208.450	-200.000	0.000	0.030
-207.436	-200.000	-0.003	0.348
-206.421	-151.826	0.322	-0.024
-205.406	67.790	0.174	0.177
-204.392	-69.013	0.090	0.034
-203.377	800.000	-0.059	0.181
-202.363	127.135	-0.307	0.387
-201.348	699.348	-0.085	-0.223
-200.333	-34.879	0.457	-0.248
-199.319	-76.220	0.475	0.167
-198.304	588.108	-0.026	-0.064
-197.290	-66.863	0.170	0.067
-196.275	5.113	-0.253	0.186
-195.260	47.232	0.055	-0.051
-194.246	800.000	0.094	-0.328
-193.231	-154.093	0.152	-0.010
-192.217	-56.143	0.248	0.110
-191.202	34.766	-0.120	0.105
-190.187	-113.002	-0.179	-0.035
-189.173	5.792	0.218	0.160
-188.158	170.977	-0.134	0.191
-187.144	-200.000	-0.006	-0.177
-186.129	800.000	0.035	0.115
-185.114	358.243	-0.039	0.077
-184.100	-139.418	0.133	-0.014
-183.085	-168.254	0.327	0.013
-182.071	459.356	0.082	-0.181
-181.056	-83.623	0.327	-0.104
-180.042	-123.829	0.204	-0.032
-179.027	-101.944	0.205	0.049
-178.012	8.376	0.125	0.093
-176.998	65.192	0.049	-0.049
-175.983	51.460	0.335	0.317
-174.969	38.211	-0.056	0.049
-173.954	204.888	0.132	0.204
-172.939	286.281	0.083	-0.149
-171.925	-90.674	0.129	-0.037
-170.910	-44.486	0.216	0.107
-169.896	-200.000	0.000	0.260
-168.881	-200.000	0.033	-0.233
-167.866	800.000	-0.050	-0.161
-166.852	186.881	-0.167	0.248
-165.837	127.996	0.087	0.111
-164.823	-200.000	-0.047	-0.259
-163.808	-199.119	-0.406	-0.002
-162.793	-200.000	-0.001	-0.072
-161.779	293.411	-0.153	-0.277
-160.764	379.043	0.123	-0.250
-159.750	38.364	-0.200	-0.177
-158.735	48.223	0.297	0.276
-157.720	-200.000	0.015	0.185
-156.706	-9.445	-0.125	-0.083
-155.691	70.256	0.079	-0.081
-154.677	143.450	-0.202	0.267
-153.662	418.527	0.139	0.296
-152.647	298.887	-0.146	0.268
-151.633	-85.882	0.374	0.115
-150.618	-67.092	0.103	-0.040
-149.604	-42.788	-0.052	-0.026
-148.589	-23.575	-0.189	-0.113
-147.574	-200.000	-0.002	0.053
-146.560	-155.873	0.104	-0.007
-145.545	-30.784	0.252	0.142
-144.531	-48.582	-0.116	-0.056
-143.516	406.459	-0.159	-0.333
-142.502	211.596	-0.109	0.170
-141.487	-62.268	0.153	-0.063
-140.472	-175.399	-0.182	-0.005
-139.458	800.000	-0.038	-0.105
-138.443	-200.000	-0.005	0.085
-137.429	-81.962	-0.102	-0.033
-136.414	-51.680	0.187	0.087
-135.399	-149.117	-0.269	-0.021
-134.385	-131.961	-0.106	0.014
-133.370	136.934	0.060	-0.078
-132.356	138.405	0.247	0.322
-131.341	-200.000	-0.023	0.149
-130.326	142.416	-0.017	0.022
-129.312	-12.905	-0.134	0.087
-128.297	-106.525	-0.062	0.014
-127.283	800.000	-0.031	0.132
-126.268	50.646	-0.110	0.104
-125.253	19.219	-0.063	0.050
-124.239	-126.579	0.345	0.051
-123.224	-71.705	-0.367	-0.136
-122.210	88.039	0.263	0.290
-121.195	748.437	-0.100	-0.268
-120.180	212.834	0.134	-0.210
-119.166	800.000	0.107	0.327
-118.151	800.000	0.139	0.481
-117.137	-88.397	-0.137	0.041
-116.122	25.575	0.295	-0.244
-115.107	-167.216	-0.324	-0.013
-114.093	80.586	-0.032	-0.034
-113.078	-40.349	-0.206	0.106
-112.064	-200.000	0.060	0.293
-111.049	51.873	0.042	-0.040
-110.034	-14.343	0.041	-0.026
-109.020	-200.000	0.021	0.159
-108.005	362.324	0.071	0.142
-106.991	-132.789	-0.079	-0.010
-105.976	-102.873	0.147	-0.035
-104.962	-145.835	-0.243	-0.021
-103.947	-135.433	0.244	-0.029
-102.932	-45.937	0.295	-0.144
-101.918	-200.000	-0.034	0.294
-100.903	161.424	0.025	-0.035
-99.889	395.682	0.078	-0.161
-98.874	-108.690	-0.268	-0.057
-97.859	800.000	-0.114	0.399
-96.845	25.481	-0.279	-0.230
-95.830	-41.679	0.169	-0.086
-94.816	263.790	0.094	0.163
-93.801	318.335	0.084	0.158
-92.786	-200.000	0.011	-0.177
-91.772	800.000	0.073	0.277
-90.757	79.300	0.168	0.178
-89.743	-200.000	0.001	0.146
-88.728	-200.000	0.080	0.356
-87.713	-119.319	-0.165	-0.029
-86.699	800.000	0.151	-0.453
-85.684	-200.000	-0.031	-0.303
-84.670	7.842	-0.249	0.185
-83.655	-83.395	0.380	0.121
-82.640	-5.399	0.231	0.158
-81.626	-45.926	0.150	0.073
-80.611	-109.672	0.091	0.019
-79.597	376.790	0.071	-0.144
-78.582	67.231	-0.192	0.194
-77.567	211.468	0.227	0.353
-76.553	-32.737	0.224	0.123
-75.538	-94.197	0.110	-0.030
-74.524	-3.899	0.207	-0.142
-73.509	800.000	-0.052	0.166
-72.494	103.368	-0.027	0.032
-71.480	49.400	-0.053	-0.049
-70.465	-88.573	0.254	0.075
-69.451	-90.973	-0.132	0.038
-68.436	-100.756	-0.063	0.015
-67.422	142.036	0.201	-0.264
-66.407	-46.891	-0.173	0.084
-65.392	-200.000	-0.020	-0.153
-64.378	-167.265	0.028	-0.001
-63.363	-22.295	-0.193	-0.116
-62.349	-200.000	0.081	-0.360
-61.334	98.780	-0.802	-0.916
-60.319	13.621	0.472	0.363
-59.305	800.000	-0.245	-1.054
-58.290	800.000	0.268	0.829
-57.276	278.408	0.936	1.652
-56.261	-200.000	95.294	570.672
-55.246	538.107	1397.128	3287.876
-54.232	148.567	2604.089	3482.919
-53.217	115.933	2193.798	2658.305
-52.203	48.528	1645.024	1525.820
-51.188	40.220	1378.510	1227.332
-50.173	36.783	1336.155	1168.866
-49.159	57.388	1383.791	1337.540
-48.144	62.120	1401.791	1383.900
-47.130	40.520	1356.259	1209.158
-46.115	36.821	1338.597	1171.048
-45.100	36.469	1334.474	1165.272
-44.086	36.379	1331.519	1162.100
-43.071	36.415	1329.137	1160.195
-42.057	36.468	1326.707	1158.347
-41.042	36.466	1325.148	1156.926
-40.027	36.529	1323.562	1155.872
-39.013	36.457	1321.728	1153.793
-37.998	36.517	1319.787	1152.411
-36.984	36.588	1317.920	1151.161
-35.969	36.621	1316.337	1149.925
-34.954	36.633	1314.288	1148.164
-33.940	36.683	1313.270	1147.522
-32.925	36.681	1311.678	1146.078
-31.911	36.680	1310.152	1144.692
-30.896	36.770	1309.040	1144.203
-29.881	36.652	1308.097	1142.642
-28.867	36.751	1306.391	1141.685
-27.852	36.741	1304.674	1140.080
-26.838	36.743	1303.282	1138.834
-25.823	36.672	1302.073	1137.315
-24.809	36.773	1300.606	1136.584
-23.794	36.725	1299.286	1135.098
-22.779	36.774	1297.678	1133.939
-21.765	36.804	1296.402	1132.951
-20.750	36.733	1295.401	1131.619
-19.736	36.675	1293.854	1129.884
-18.721	36.499	1292.958	1128.031
-17.706	36.639	1291.291	1127.345
-16.692	36.670	1290.114	1126.454
-15.677	36.611	1288.986	1125.080
-14.663	36.531	1288.374	1124.035
-13.648	36.579	1287.165	1123.220
-12.633	36.639	1286.107	1122.594
-11.619	36.635	1284.820	1121.406
-10.604	36.654	1284.317	1121.033
-9.590	36.593	1283.480	1119.902
-8.575	36.503	1282.723	1118.678
-7.560	36.574	1281.774	1118.217
-6.546	36.627	1280.872	1117.691
-5.531	36.604	1279.788	1116.570
-4.517	36.585	1279.298	1115.989
-3.502	36.461	1278.369	1114.416
-2.487	36.628	1277.290	1114.392
-1.473	36.452	1272.493	1109.154
-0.458	33.786	1255.728	1079.369
0.556	27.115	1233.927	1022.608
1.571	21.155	1236.555	990.974
2.586	19.223	1250.071	990.615
3.600	18.226	1239.448	976.422
4.615	13.662	1167.265	894.893
5.629	5.532	1090.606	794.898
6.644	1.235	1069.650	758.120
7.659	0.804	1067.123	754.111
8.673	0.813	1065.699	753.082
9.688	0.839	1064.739	752.466
10.702	1.130	1063.123	752.705
11.717	5.467	1068.706	778.200
12.731	13.214	1078.984	824.393
13.746	17.313	1083.532	848.287
14.761	17.521	1083.943	849.570
15.775	16.768	1081.814	844.075
16.790	15.909	1079.225	837.712
17.804	15.176	1077.933	832.989
18.819	14.827	1076.492	830.068
19.834	14.518	1075.289	827.537
20.848	14.298	1074.785	825.981
21.863	14.019	1073.771	823.750
22.877	13.820	1073.107	822.182
23.892	13.624	1072.529	820.695
24.907	13.763	1072.057	820.949
25.921	13.811	1071.602	820.762
26.936	13.790	1070.566	819.792
27.950	13.903	1069.169	819.210
28.965	13.916	1067.740	818.105
29.980	13.864	1067.021	817.226
30.994	14.094	1065.372	817.021
32.009	14.079	1064.679	816.344
33.023	14.118	1063.475	815.540
34.038	14.005	1062.378	814.076
35.053	14.116	1061.439	813.823
36.067	13.953	1060.936	812.569
37.082	13.860	1060.158	811.447
38.096	13.766	1060.000	810.798
39.111	13.878	1058.753	810.319
40.126	13.793	1057.554	808.912
41.140	13.746	1056.166	807.552
42.155	13.839	1055.363	807.317
43.169	13.701	1054.163	805.661
44.184	13.723	1053.403	805.114
45.199	13.844	1051.980	804.540
46.213	13.779	1051.240	803.589
47.228	13.879	1050.313	803.294
48.242	13.968	1048.892	802.564
49.257	13.772	1048.100	800.943
50.271	13.850	1046.760	800.222
51.286	14.025	1046.130	800.512
52.301	13.872	1045.448	799.182
53.315	13.805	1044.339	797.942
54.330	13.835	1043.396	797.298
55.344	13.753	1042.849	796.416
56.359	13.865	1041.596	795.924
57.374	13.597	1041.266	794.315
58.388	13.699	1039.899	793.692
59.403	13.764	1038.933	793.195
60.417	13.721	1038.366	792.486
61.432	13.703	1037.154	791.408
62.447	13.772	1036.783	791.383
63.461	13.635	1036.162	790.184
64.476	13.707	1034.914	789.507
65.490	13.654	1034.011	788.494
66.505	13.688	1033.008	787.820
67.520	13.763	1032.516	787.733
68.534	13.730	1031.575	786.788
69.549	13.781	1030.987	786.515
70.563	13.778	1030.015	785.688
71.578	13.732	1029.351	784.894
72.593	13.760	1028.548	784.344
73.607	13.718	1027.809	783.512
74.622	13.719	1027.036	782.858
75.636	13.712	1026.483	782.334
76.651	13.687	1025.661	781.522
77.666	13.653	1025.035	780.815
78.680	13.625	1024.519	780.221
79.695	13.553	1023.876	779.327
80.709	13.734	1023.015	779.451
81.724	13.765	1022.608	779.215
82.739	13.765	1022.106	778.765
83.753	13.778	1021.178	778.052
84.768	13.777	1020.030	777.103
85.782	13.922	1019.071	776.982
86.797	13.943	1018.097	776.270
87.812	13.908	1017.283	775.414
88.826	13.828	1016.415	774.311
89.841	13.867	1015.305	773.581
90.855	13.923	1014.385	773.071
91.870	13.968	1013.461	772.507
92.884	13.983	1013.060	772.202
93.899	13.952	1012.432	771.511
94.914	13.944	1011.579	770.759
95.928	13.914	1010.947	770.068
96.943	13.991	1009.959	769.605
97.957	13.920	1008.824	768.342
98.972	13.879	1008.062	767.504
99.987	13.985	1006.957	767.085
101.001	13.886	1006.312	766.070
102.016	13.934	1005.159	765.345
103.030	14.058	1004.488	765.336
104.045	13.939	1003.468	763.946
105.060	13.931	1002.337	762.979
106.074	13.858	1001.953	762.286
107.089	13.997	1000.882	762.039
108.103	13.780	1000.280	760.520
109.118	13.863	998.879	759.769
110.133	13.857	998.199	759.156
111.147	13.960	997.075	758.704
112.162	13.799	996.935	757.795
113.176	13.749	995.932	756.736
114.191	14.063	994.840	757.273
115.206	13.894	994.357	756.067
116.220	13.756	993.541	754.754
117.235	13.889	992.221	754.285
118.249	13.942	991.782	754.125
119.264	13.785	991.140	752.858
120.279	13.848	990.140	752.319
121.293	13.897	989.361	751.882
122.308	13.896	988.174	750.911
123.322	13.911	987.359	750.294
124.337	13.849	986.562	749.339
125.352	13.835	985.569	748.457
126.366	13.860	984.154	747.429
127.381	13.929	983.008	746.800
128.395	13.923	982.489	746.313
129.410	13.912	981.415	745.385
130.424	13.911	980.614	744.707
131.439	14.025	979.905	744.612
132.454	13.982	978.682	743.423
133.468	13.928	978.213	742.758
134.483	14.019	976.912	742.111
135.497	13.958	976.465	741.437
136.512	14.019	975.177	740.663
137.527	13.941	974.658	739.856
138.541	13.963	974.099	739.466
139.556	13.906	973.401	738.614
140.570	13.921	972.893	738.231
141.585	14.145	971.254	737.915
142.600	14.145	970.791	737.498
143.614	14.069	970.064	736.545
144.629	14.064	969.001	735.653
145.643	14.124	968.150	735.203
146.658	14.155	966.955	734.369
147.673	14.066	966.249	733.375
148.687	14.043	965.517	732.653
149.702	14.025	964.615	731.825
150.716	14.004	964.076	731.259
151.731	14.091	963.029	730.783
152.746	14.086	962.544	730.330
153.760	13.989	962.037	729.451
154.775	14.144	961.204	729.435
155.789	14.173	960.536	728.990
156.804	14.045	960.108	728.043
157.819	14.159	958.774	727.466
158.833	14.236	958.382	727.440
159.848	14.259	957.663	726.930
160.862	14.254	956.400	725.886
161.877	14.239	955.820	725.316
162.892	14.236	954.860	724.511
163.906	14.093	954.202	723.324
164.921	14.122	953.259	722.672
165.935	14.176	952.511	722.274
166.950	14.287	951.318	721.786
167.964	14.180	950.774	720.848
168.979	14.042	950.166	719.727
169.994	14.157	949.139	719.378
171.008	14.162	948.428	718.801
172.023	14.242	947.912	718.689
173.037	14.232	946.882	717.804
174.052	14.217	946.164	717.129
175.067	14.247	945.610	716.777
176.081	14.115	945.209	715.841
177.096	14.218	944.501	715.684
178.110	14.274	943.750	715.292
179.125	14.292	943.170	714.868
180.140	14.266	942.788	714.400
181.154	14.253	942.396	713.987
182.169	14.342	941.412	713.558
183.183	14.488	940.791	713.651
184.198	14.454	940.385	713.133
185.213	14.427	939.668	712.414
186.227	14.365	938.717	711.362
187.242	14.544	938.163	711.645
188.256	14.603	937.195	711.098
189.271	14.534	936.610	710.297
190.286	14.466	936.134	709.583
191.300	14.254	935.373	708.040
192.315	14.302	934.410	707.456
193.329	14.284	934.470	707.363
194.344	14.443	933.490	707.230
195.359	14.464	932.869	706.787
196.373	14.424	932.345	706.159
197.388	14.553	931.462	705.972
198.402	14.655	930.785	705.827
199.417	14.655	930.159	705.290
200.432	14.560	930.066	704.756
201.446	14.618	929.449	704.473
202.461	14.786	928.897	704.698
203.475	14.792	928.134	704.083
204.490	14.630	927.657	702.979
205.504	14.574	926.658	701.921
206.519	14.669	926.036	701.788
207.534	14.728	924.877	701.099
208.548	14.650	924.552	700.461
209.563	14.698	923.641	699.912
210.577	14.710	923.101	699.491
211.592	14.709	922.649	699.083
212.607	14.789	922.040	698.890
213.621	14.897	920.778	698.324
214.636	14.793	920.349	697.505
215.650	14.777	919.654	696.847
216.665	14.858	918.874	696.534
217.680	15.022	917.810	696.346
218.694	14.931	917.405	695.602
219.709	15.026	916.863	695.522
220.723	15.057	916.237	695.114
221.738	14.872	915.630	693.824
222.753	15.032	914.764	693.771
223.767	14.954	914.436	693.138
224.782	14.927	913.638	692.359
225.796	15.122	913.008	692.627
226.811	15.021	912.405	691.689
227.826	15.102	911.517	691.291
228.840	14.925	910.977	690.091
229.855	15.009	910.182	689.772
230.869	15.167	909.352	689.734
231.884	15.012	908.529	688.411
232.899	15.010	908.238	688.121
233.913	14.938	907.325	687.072
234.928	14.923	906.557	686.368
235.942	15.009	905.895	686.158
236.957	15.053	905.446	685.939
237.972	15.068	904.643	685.333
238.986	15.100	904.040	684.944
240.001	15.024	903.644	684.273
241.015	15.151	903.123	684.338
242.030	15.142	902.306	683.620
243.045	15.225	901.660	683.410
244.059	15.237	901.139	683.002
245.074	15.284	900.276	682.481
246.088	15.277	899.596	681.874
247.103	15.327	898.969	681.542
248.117	15.186	898.690	680.697
249.132	15.205	898.270	680.395
250.147	15.269	897.840	680.271
251.161	15.429	896.640	679.950
252.176	15.404	896.273	679.511
253.190	15.526	895.462	679.329
254.205	15.558	894.541	678.698
255.220	15.489	894.249	678.138
256.234	15.536	893.619	677.790
257.249	15.588	892.713	677.255
258.263	15.618	891.859	676.669
259.278	15.574	891.242	675.961
260.293	15.733	890.483	675.965
261.307	15.661	890.160	675.370
262.322	15.616	889.359	674.522
263.336	15.640	888.853	674.175
264.351	15.635	888.687	673.969
265.366	15.783	887.524	673.621
266.380	15.583	887.031	672.386
267.395	15.687	886.221	672.131
268.409	15.700	885.383	671.485
269.424	15.759	884.668	671.120
270.439	15.608	884.387	670.244
271.453	15.823	883.327	670.240
272.468	15.758	882.949	669.635
273.482	15.738	882.209	668.933
274.497	15.800	882.067	669.015
275.512	15.720	881.410	668.138
276.526	15.904	880.593	668.191
277.541	15.947	880.353	668.120
278.555	15.881	879.539	667.180
279.570	15.891	879.261	666.950
280.585	16.053	877.973	666.553
281.599	15.982	877.188	665.622
282.614	15.976	876.474	664.997
283.628	15.812	876.546	664.342
284.643	16.056	875.623	664.549
285.657	15.966	875.010	663.668
286.672	15.949	874.300	663.006
287.687	16.168	873.492	663.194
288.701	15.951	873.367	662.189
289.716	16.093	872.562	662.076
290.730	16.117	871.849	661.571
291.745	15.946	871.389	660.495
292.760	16.034	870.699	660.256
293.774	16.072	870.039	659.847
294.789	16.074	869.129	659.107
295.803	16.205	868.604	659.161
296.818	16.268	867.511	658.520
297.833	16.037	867.365	657.449
298.847	16.221	866.992	657.826
299.862	16.239	865.964	657.057
300.876	16.108	865.792	656.359
301.891	16.323	864.892	656.454
302.906	16.320	864.410	656.019
303.920	16.247	863.899	655.288
304.935	16.334	863.327	655.136
305.949	16.380	862.708	654.787
306.964	16.264	862.288	653.961
307.979	16.340	861.684	653.737
308.993	16.441	861.137	653.654
310.008	16.471	860.272	653.056
311.022	16.392	859.845	652.369
312.037	16.297	859.438	651.638
313.052	16.282	858.999	651.188
314.066	16.377	858.328	650.988
315.081	16.534	857.578	650.967
316.095	16.270	857.148	649.568
317.110	16.471	856.264	649.612
318.125	16.308	856.180	648.866
319.139	16.422	855.549	648.767
320.154	16.330	855.187	648.083
321.168	16.466	854.158	647.767
322.183	16.581	853.632	647.751
323.197	16.627	853.212	647.548
324.212	16.590	852.620	646.902
325.227	16.556	852.268	646.447
326.241	16.466	851.706	645.622
327.256	16.455	851.386	645.279
328.270	16.408	850.482	644.356
329.285	16.489	849.865	644.143
330.300	16.536	849.286	643.823
331.314	16.635	848.644	643.656
332.329	16.717	848.254	643.616
333.343	16.692	848.079	643.333
334.358	16.682	847.359	642.691
335.373	16.681	846.992	642.351
336.387	16.670	846.689	642.022
337.402	16.734	846.660	642.187
338.416	16.737	846.251	641.832
339.431	16.707	845.684	641.230
340.446	16.942	844.698	641.315
341.460	16.722	844.769	640.480
342.475	16.837	844.713	640.815
343.489	16.905	844.069	640.526
344.504	16.870	843.552	639.945
345.519	16.945	842.944	639.711
346.533	16.928	842.309	639.110
347.548	16.834	842.269	638.667
348.562	16.999	841.471	638.628
349.577	16.827	840.976	637.548
350.592	16.990	840.007	637.369
351.606	16.903	839.626	636.699
352.621	16.857	838.964	635.967
353.635	16.988	838.023	635.687
354.650	16.914	837.877	635.242
355.665	17.040	836.890	634.912
356.679	16.981	836.452	634.300
357.694	16.969	835.682	633.617
358.708	17.112	835.046	633.612
359.723	17.006	834.551	632.784
360.738	17.156	833.898	632.790
361.752	17.072	833.298	631.968
362.767	17.105	832.917	631.748
363.781	17.216	831.909	631.339
364.796	17.206	831.707	631.092
365.810	17.262	831.822	631.332
366.825	17.277	831.156	630.826
367.840	17.302	830.617	630.453
368.854	17.203	830.148	629.676
369.869	17.225	829.426	629.155
370.883	17.383	828.972	629.338
371.898	17.340	829.031	629.166
372.913	17.322	828.883	628.933
373.927	17.379	827.939	628.374
374.942	17.436	827.509	628.199
375.956	17.482	826.979	627.913
376.971	17.448	826.606	627.447
377.986	17.622	825.882	627.483
379.000	17.534	825.578	626.873
380.015	17.611	824.875	626.566
381.029	17.604	823.982	625.807
382.044	17.633	823.804	625.723
383.059	17.520	823.467	624.996
384.073	17.571	823.097	624.848
385.088	17.519	822.303	623.999
386.102	17.422	822.099	623.433
387.117	17.609	820.887	623.145
388.132	17.590	820.624	622.819
389.146	17.686	819.893	622.562
390.161	17.613	819.808	622.175
391.175	17.759	819.133	622.139
392.190	17.672	818.440	621.243
393.205	17.560	818.073	620.500
394.219	17.629	818.133	620.742
395.234	17.709	817.234	620.296
396.248	17.564	816.975	619.516
397.263	17.628	816.399	619.258
398.278	17.695	816.189	619.288
399.292	17.608	815.688	618.537
400.307	17.700	815.238	618.475
401.321	17.708	814.757	618.083
402.336	17.560	814.240	617.100
403.350	17.776	813.927	617.591
404.365	17.733	813.586	617.123
405.380	17.971	812.872	617.387
406.394	17.954	812.157	616.726
407.409	17.817	812.117	616.146
408.423	17.810	811.780	615.811
409.438	17.886	811.528	615.842
410.453	17.961	810.532	615.300
411.467	17.970	809.994	614.870
412.482	18.168	809.706	615.310
413.496	18.010	810.113	614.997
414.511	18.207	808.956	614.772
415.526	18.078	808.544	613.941
416.540	18.018	808.137	613.360
417.555	18.177	807.563	613.440
418.569	18.188	807.161	613.120
419.584	18.155	806.588	612.515
420.599	18.077	806.587	612.179
421.613	103.913	1282.841	1434.881
422.628	89.449	1352.208	1434.994
