DTS Sentinel unit serial number:	SN413079Multiplexer serial number:	ORYXHardware model number:	OX4-SRSoftware version number:	ORYX F/W v4.00 Oryx Data Collector v3.7.2.0data status	okinstallation	princeton_trtdifferential loss correction	single-endedforward channel	channel 1reverse channel	N/Adate	2019/09/15time	19:42:35forward acquisition time	60.00reverse acquisition time	0.00gamma	496.2192k internal	0.2307k external	0.2307temperature offset calibration	0.9949default loss term (dB/km)	0.3790temperature slope calibration	1.0000multiplexer offset coefficient	1.0000multiplexer slope coefficient	1.0000fibre end	0.00T internal ref (°C)	37.41T ext. ref 1 (°C)	7.40T ext. ref 2 (°C)	27.30length (m)	temperature (°C)	Stokes	anti-Stokes-747.200	241.422	-0.182	-0.309
-746.185	800.000	-0.076	0.230
-745.171	124.931	0.282	0.362
-744.156	-200.000	-0.040	0.262
-743.142	494.830	-0.022	-0.052
-742.127	-200.000	-0.046	0.230
-741.112	-200.000	0.002	0.293
-740.098	114.499	-0.130	-0.161
-739.083	-78.092	0.180	0.063
-738.069	800.000	0.080	0.332
-737.054	800.000	-0.050	0.200
-736.039	24.784	-0.271	-0.229
-735.025	800.000	0.058	0.178
-734.010	-127.902	-0.205	0.030
-732.996	11.902	-0.160	-0.125
-731.981	234.482	0.104	-0.174
-730.966	-63.180	-0.403	-0.169
-729.952	10.299	-0.110	-0.085
-728.937	57.316	-0.298	0.296
-727.923	-177.554	-0.380	0.009
-726.908	10.265	-0.234	-0.181
-725.894	-187.453	-0.300	0.004
-724.879	-94.106	0.119	-0.033
-723.864	-200.000	-0.068	0.334
-722.850	3.557	0.144	-0.106
-721.835	576.883	0.022	0.056
-720.821	30.457	-0.083	-0.072
-719.806	800.000	-0.071	-0.258
-718.791	-81.596	-0.207	-0.069
-717.777	-200.000	0.002	-0.212
-716.762	-76.247	-0.210	-0.075
-715.748	-89.697	0.403	0.120
-714.733	-85.350	0.154	-0.049
-713.718	-144.700	-0.293	0.027
-712.704	-200.000	0.021	-0.168
-711.689	-21.093	-0.082	0.051
-710.675	-15.787	-0.160	-0.104
-709.660	222.700	-0.213	0.349
-708.645	85.391	0.225	-0.251
-707.631	-148.724	-0.298	-0.025
-706.616	-19.368	0.188	-0.119
-705.602	-200.000	-0.030	-0.216
-704.587	59.657	-0.305	-0.306
-703.572	-51.577	-0.061	-0.029
-702.558	208.589	0.196	-0.312
-701.543	-200.000	0.009	0.233
-700.529	-51.071	-0.033	-0.016
-699.514	144.471	-0.033	-0.044
-698.499	190.198	-0.193	-0.294
-697.485	235.230	-0.164	-0.275
-696.470	-53.815	-0.188	-0.087
-695.456	-200.000	-0.023	0.111
-694.441	-143.021	0.291	-0.029
-693.426	424.268	-0.151	-0.330
-692.412	-124.993	-0.339	0.053
-691.397	-200.000	0.020	0.290
-690.383	-13.916	-0.245	0.161
-689.368	-104.556	-0.100	-0.024
-688.354	-200.000	0.027	-0.297
-687.339	528.110	-0.161	-0.385
-686.324	153.999	0.026	0.036
-685.310	800.000	0.094	0.315
-684.295	800.000	-0.040	0.172
-683.281	-88.080	-0.103	-0.031
-682.266	-184.508	0.426	0.007
-681.251	800.000	-0.121	-0.349
-680.237	-81.250	-0.194	-0.065
-679.222	-115.354	-0.052	0.010
-678.208	52.146	-0.191	0.185
-677.193	-60.141	-0.069	-0.030
-676.178	-48.280	0.171	-0.084
-675.164	-63.185	0.085	0.036
-674.149	-200.000	0.052	0.268
-673.135	117.559	0.207	-0.258
-672.120	-200.000	0.033	0.212
-671.105	800.000	0.029	0.084
-670.091	2.290	-0.186	-0.136
-669.076	128.473	-0.159	-0.206
-668.062	-128.350	0.130	0.019
-667.047	-112.572	0.235	0.047
-666.032	-87.568	0.225	0.069
-665.018	-200.000	0.057	0.294
-664.003	23.926	0.139	0.116
-662.989	-200.000	-0.015	0.286
-661.974	243.092	-0.053	-0.090
-660.959	800.000	-0.024	0.076
-659.945	145.112	0.048	0.066
-658.930	-94.407	0.058	0.016
-657.916	40.547	-0.141	-0.128
-656.901	-200.000	0.001	0.063
-655.886	114.260	-0.313	-0.386
-654.872	410.620	0.064	-0.137
-653.857	800.000	0.065	0.227
-652.843	-61.255	-0.213	0.091
-651.828	-4.904	0.228	0.159
-650.814	218.685	-0.070	0.114
-649.799	800.000	0.053	0.200
-648.784	800.000	-0.006	0.021
-647.770	-189.377	-0.092	0.001
-646.755	203.833	0.094	0.148
-645.741	-66.769	-0.148	0.059
-644.726	-83.409	0.386	0.125
-643.711	-200.000	-0.028	0.181
-642.697	-81.575	0.136	-0.045
-641.682	-93.564	-0.193	0.054
-640.668	-200.000	0.028	0.127
-639.653	87.846	-0.197	-0.221
-638.638	-149.444	0.363	0.029
-637.624	77.568	0.132	-0.142
-636.609	-200.000	-0.043	0.319
-635.595	800.000	0.134	-0.440
-634.580	91.351	0.113	-0.129
-633.565	19.425	-0.279	0.227
-632.551	58.899	0.105	-0.104
-631.536	5.553	-0.284	-0.212
-630.522	-128.272	-0.328	0.047
-629.507	150.676	-0.146	0.201
-628.492	-94.578	0.041	0.011
-627.478	-200.000	0.223	0.000
-626.463	-200.000	-0.036	-0.231
-625.449	800.000	0.080	-0.336
-624.434	-200.000	-0.036	-0.223
-623.419	-200.000	0.001	-0.095
-622.405	-149.122	-0.357	0.029
-621.390	-200.000	-0.003	0.255
-620.376	-141.735	-0.414	0.042
-619.361	-77.454	0.135	-0.047
-618.346	-200.000	-0.019	-0.094
-617.332	21.312	-0.241	-0.199
-616.317	800.000	-0.054	-0.232
-615.303	80.549	-0.121	0.132
-614.288	-5.436	0.071	0.049
-613.273	-0.637	0.225	-0.162
-612.259	-134.459	0.285	-0.035
-611.244	371.071	-0.193	-0.396
-610.230	800.000	0.049	-0.144
-609.215	-53.102	-0.214	0.099
-608.201	800.000	0.022	0.094
-607.186	800.000	-0.011	-0.043
-606.171	-95.410	0.215	0.059
-605.157	-74.261	-0.263	-0.096
-604.142	800.000	-0.095	0.284
-603.128	349.920	0.068	-0.135
-602.113	48.855	0.167	-0.158
-601.098	64.517	0.154	0.157
-600.084	95.117	0.073	-0.084
-599.069	-23.282	-0.093	-0.057
-598.055	90.024	0.179	0.202
-597.040	194.678	0.135	-0.207
-596.025	800.000	0.052	0.167
-595.011	156.964	-0.272	0.380
-593.996	-112.820	0.097	-0.020
-592.982	41.765	-0.150	-0.137
-591.967	-164.851	-0.159	0.007
-590.952	-93.531	0.191	-0.053
-589.938	-125.977	0.211	-0.032
-588.923	49.955	-0.170	-0.162
-587.909	800.000	0.073	0.221
-586.894	-11.623	0.209	0.139
-585.879	158.427	-0.157	0.220
-584.865	-200.000	0.053	0.339
-583.850	4.183	-0.327	-0.242
-582.836	-40.861	0.339	-0.177
-581.821	481.848	-0.058	0.132
-580.806	94.544	-0.153	-0.175
-579.792	-200.000	-0.035	-0.289
-578.777	175.445	-0.066	-0.097
-577.763	-67.977	-0.267	-0.105
-576.748	581.636	0.078	-0.193
-575.733	-116.167	0.202	-0.038
-574.719	51.885	0.087	-0.084
-573.704	107.369	-0.037	-0.044
-572.690	-200.000	-0.025	0.211
-571.675	530.307	-0.068	0.162
-570.661	441.704	0.134	-0.296
-569.646	-115.466	-0.067	-0.013
-568.631	332.239	-0.087	0.170
-567.617	-28.836	-0.130	0.076
-566.602	226.737	0.089	0.146
-565.588	-35.074	-0.170	0.093
-564.573	-61.831	0.353	-0.149
-563.558	-200.000	-0.020	0.112
-562.544	-71.271	0.103	0.039
-561.529	-169.785	0.357	-0.013
-560.515	-120.576	0.203	-0.035
-559.500	800.000	-0.048	0.173
-558.485	-12.266	0.160	-0.105
-557.471	-136.337	-0.226	0.027
-556.456	88.320	0.196	0.220
-555.442	77.291	-0.274	-0.295
-554.427	-99.026	-0.184	0.047
-553.412	-200.000	-0.020	-0.200
-552.398	-41.560	-0.256	0.133
-551.383	-200.000	0.003	0.073
-550.369	405.277	-0.068	-0.145
-549.354	-200.000	-0.046	-0.510
-548.339	-115.750	0.248	0.047
-547.325	-103.690	-0.156	0.037
-546.310	-29.785	0.176	0.101
-545.296	-173.505	0.120	0.004
-544.281	-24.675	0.272	-0.163
-543.266	206.615	0.053	0.083
-542.252	562.639	0.013	-0.032
-541.237	16.716	0.306	-0.244
-540.223	242.598	-0.102	-0.173
-539.208	-139.236	-0.192	0.021
-538.193	-102.775	-0.287	0.069
-537.179	392.627	0.010	0.020
-536.164	8.117	0.192	0.145
-535.150	-4.919	-0.337	0.234
-534.135	-200.000	0.016	-0.324
-533.121	-42.046	-0.025	-0.013
-532.106	-21.033	0.465	-0.287
-531.091	-111.035	0.240	0.050
-530.077	-24.669	0.246	0.147
-529.062	-64.689	-0.254	0.104
-528.048	-55.420	0.135	0.061
-527.033	-110.583	0.325	-0.068
-526.018	-97.176	0.145	-0.038
-525.004	-50.307	-0.214	-0.102
-523.989	112.591	-0.090	0.110
-522.975	65.882	0.126	0.128
-521.960	230.434	0.250	-0.412
-520.945	71.014	-0.126	-0.132
-519.931	98.449	-0.340	0.395
-518.916	67.703	0.122	-0.126
-517.902	239.676	-0.202	0.340
-516.887	478.964	0.189	0.431
-515.872	-95.694	-0.302	0.081
-514.858	172.005	0.129	0.186
-513.843	-100.159	-0.251	0.063
-512.829	87.373	-0.075	0.083
-511.814	-112.765	0.038	-0.008
-510.799	-109.372	0.128	-0.027
-509.785	-200.000	0.034	-0.153
-508.770	-46.553	-0.174	0.086
-507.756	-200.000	0.023	0.259
-506.741	34.770	-0.285	-0.251
-505.726	-200.000	0.032	0.162
-504.712	-46.891	0.046	0.023
-503.697	800.000	0.040	-0.119
-502.683	438.817	0.111	-0.245
-501.668	-184.443	-0.256	0.004
-500.653	-149.396	0.177	0.014
-499.639	21.308	-0.240	-0.196
-498.624	-31.235	0.169	-0.096
-497.610	-200.000	-0.006	-0.043
-496.595	-160.531	0.351	-0.019
-495.581	-113.724	-0.338	-0.066
-494.566	800.000	-0.045	-0.157
-493.551	-13.433	0.114	0.075
-492.537	-106.586	-0.417	0.094
-491.522	800.000	0.067	0.262
-490.508	-165.760	0.388	-0.017
-489.493	-28.804	-0.278	0.161
-488.478	-118.228	0.063	0.011
-487.464	-200.000	0.011	-0.162
-486.449	-182.390	0.371	-0.007
-485.435	535.231	-0.116	-0.277
-484.420	-127.183	0.123	0.018
-483.405	188.410	0.261	0.392
-482.391	32.908	-0.058	-0.050
-481.376	-200.000	0.002	-0.088
-480.362	755.031	0.102	-0.278
-479.347	-200.000	-0.010	0.072
-478.332	105.025	-0.100	-0.119
-477.318	-200.000	-0.036	0.213
-476.303	-200.000	-0.014	-0.266
-475.289	154.488	0.061	0.085
-474.274	-166.812	-0.184	0.008
-473.259	145.510	0.090	-0.121
-472.245	67.850	-0.077	-0.079
-471.230	-114.438	-0.228	-0.044
-470.216	-200.000	0.062	-0.582
-469.201	389.573	0.190	-0.397
-468.186	-61.989	-0.097	0.041
-467.172	51.792	0.128	0.123
-466.157	-64.461	0.311	0.127
-465.143	29.582	0.141	0.121
-464.128	-200.000	-0.043	-0.468
-463.113	-200.000	0.027	-0.134
-462.099	435.343	-0.084	-0.184
-461.084	-100.520	-0.324	0.081
-460.070	-200.000	0.003	0.019
-459.055	-124.803	-0.323	-0.050
-458.040	-200.000	-0.026	-0.314
-457.026	51.114	0.143	-0.137
-456.011	0.512	-0.193	-0.139
-454.997	-60.754	0.090	-0.038
-453.982	326.674	-0.233	0.450
-452.968	96.740	-0.194	0.223
-451.953	251.296	0.042	0.073
-450.938	38.913	-0.145	-0.130
-449.924	132.814	-0.200	-0.260
-448.909	-200.000	0.013	0.066
-447.895	-101.042	-0.079	0.020
-446.880	-160.795	0.091	-0.005
-445.865	19.044	-0.062	0.050
-444.851	250.994	-0.140	0.238
-443.836	-22.209	0.378	0.231
-442.822	121.055	-0.216	0.270
-441.807	-200.000	-0.022	-0.115
-440.792	123.923	-0.032	-0.040
-439.778	300.907	0.074	0.136
-438.763	-101.131	-0.049	-0.012
-437.749	203.818	-0.081	-0.125
-436.734	800.000	0.064	-0.237
-435.719	800.000	-0.070	0.289
-434.705	-200.000	0.029	0.320
-433.690	-21.676	-0.230	-0.141
-432.676	800.000	0.067	-0.220
-431.661	-109.640	-0.275	-0.058
-430.646	-136.059	-0.140	0.017
-429.632	-8.600	0.126	0.085
-428.617	311.735	0.054	0.102
-427.603	-55.500	-0.322	-0.145
-426.588	79.329	0.191	0.206
-425.573	486.204	-0.046	-0.105
-424.559	47.211	-0.227	-0.212
-423.544	-200.000	-0.013	-0.264
-422.530	123.618	0.118	-0.149
-421.515	96.259	-0.064	-0.074
-420.500	198.130	0.125	-0.193
-419.486	123.314	0.111	-0.140
-418.471	-133.116	-0.180	-0.023
-417.457	800.000	0.041	-0.150
-416.442	-27.986	0.080	-0.046
-415.428	800.000	-0.039	0.145
-414.413	-75.145	-0.385	0.138
-413.398	43.258	-0.036	-0.033
-412.384	226.800	-0.058	-0.094
-411.369	250.824	0.103	0.176
-410.355	-48.331	0.184	-0.089
-409.340	-200.000	0.014	0.319
-408.325	154.279	0.260	0.358
-407.311	81.093	-0.105	-0.113
-406.296	205.580	0.075	-0.118
-405.282	-200.000	-0.047	0.286
-404.267	269.379	-0.011	-0.020
-403.252	-6.946	0.168	0.114
-402.238	781.531	-0.150	-0.411
-401.223	800.000	-0.077	0.216
-400.209	-5.648	0.144	0.099
-399.194	45.733	-0.035	-0.032
-398.179	282.244	0.027	0.048
-397.165	67.233	-0.090	-0.092
-396.150	-128.647	0.201	0.029
-395.136	-39.521	0.056	-0.030
-394.121	-31.185	-0.375	0.212
-393.106	105.427	-0.064	-0.076
-392.092	55.376	0.336	-0.326
-391.077	-66.676	-0.178	0.071
-390.063	-200.000	0.040	0.320
-389.048	578.221	0.085	0.209
-388.033	-200.000	0.014	0.101
-387.019	-40.888	0.214	0.111
-386.004	276.249	0.110	0.197
-384.990	-200.000	-0.010	0.188
-383.975	165.690	-0.183	0.259
-382.960	173.641	-0.113	0.163
-381.946	96.662	0.033	-0.037
-380.931	225.601	-0.072	0.118
-379.917	-200.000	-0.020	0.117
-378.902	-200.000	0.048	0.302
-377.888	-200.000	0.030	-0.383
-376.873	800.000	0.030	-0.125
-375.858	-47.730	-0.359	0.175
-374.844	-200.000	-0.011	-0.267
-373.829	77.439	0.139	-0.149
-372.815	4.746	-0.092	-0.068
-371.800	800.000	0.070	0.209
-370.785	-33.459	-0.332	0.184
-369.771	0.525	0.171	0.122
-368.756	-141.116	-0.272	0.028
-367.742	-2.154	-0.178	0.125
-366.727	800.000	0.002	0.007
-365.712	96.663	0.005	0.006
-364.698	94.531	0.188	-0.214
-363.683	-200.000	0.032	-0.242
-362.669	-75.484	-0.229	-0.082
-361.654	-113.784	-0.177	0.034
-360.639	-200.000	-0.004	0.049
-359.625	-27.634	-0.315	0.183
-358.610	8.823	-0.197	-0.149
-357.596	-77.686	-0.186	-0.065
-356.581	-93.757	0.039	-0.011
-355.566	-155.031	-0.020	-0.001
-354.552	-142.220	0.321	0.032
-353.537	406.047	0.092	-0.194
-352.523	800.000	-0.025	-0.071
-351.508	34.705	0.249	-0.218
-350.493	46.024	0.104	-0.096
-349.479	-163.946	-0.269	-0.013
-348.464	171.631	0.031	-0.044
-347.450	-5.755	-0.129	-0.088
-346.435	-26.933	-0.430	-0.252
-345.420	-200.000	0.089	-0.533
-344.406	37.199	-0.258	-0.229
-343.391	-200.000	-0.020	-0.133
-342.377	-50.449	0.178	-0.084
-341.362	800.000	-0.104	0.445
-340.348	41.694	-0.088	0.080
-339.333	38.137	0.327	-0.291
-338.318	-24.380	-0.313	-0.187
-337.304	-110.440	-0.105	-0.022
-336.289	-28.620	0.316	0.182
-335.275	534.548	0.016	0.039
-334.260	442.803	-0.128	0.281
-333.245	-56.754	-0.227	0.101
-332.231	-31.130	-0.238	0.134
-331.216	-200.000	-0.005	-0.069
-330.202	-200.000	-0.052	-0.356
-329.187	-96.058	-0.253	-0.067
-328.172	186.184	0.284	-0.423
-327.158	-24.032	0.432	-0.259
-326.143	-200.000	0.215	0.001
-325.129	-120.618	-0.072	0.012
-324.114	-200.000	-0.012	0.165
-323.099	-200.000	-0.024	0.349
-322.085	-57.178	0.106	0.047
-321.070	-200.000	0.039	0.271
-320.056	48.776	-0.132	0.124
-319.041	-200.000	0.033	0.238
-318.026	41.107	0.222	-0.201
-317.012	-85.859	-0.284	0.088
-315.997	800.000	-0.023	0.075
-314.983	356.099	-0.079	0.158
-313.968	193.791	0.117	-0.177
-312.953	-44.363	-0.234	0.117
-311.939	293.565	-0.126	0.230
-310.924	249.101	-0.284	-0.481
-309.910	-149.228	0.187	0.015
-308.895	-150.406	-0.055	-0.004
-307.880	800.000	0.084	-0.247
-306.866	-200.000	0.055	0.308
-305.851	0.542	0.334	0.238
-304.837	-200.000	0.002	-0.186
-303.822	-32.791	-0.094	-0.052
-302.807	-142.447	0.061	0.006
-301.793	-200.000	-0.043	-0.192
-300.778	-97.367	0.063	-0.016
-299.764	405.166	-0.128	0.270
-298.749	-112.708	-0.383	-0.076
-297.735	800.000	0.006	-0.020
-296.720	-200.000	0.000	0.553
-295.705	4.079	0.069	-0.050
-294.691	-44.438	0.088	-0.044
-293.676	800.000	-0.047	0.180
-292.662	22.837	-0.159	0.130
-291.647	-80.990	0.342	0.113
-290.632	-101.182	0.176	-0.043
-289.618	-200.000	-0.031	0.408
-288.603	-200.000	0.034	-0.261
-287.589	15.189	-0.201	-0.158
-286.574	1.192	-0.225	0.161
-285.559	-40.851	-0.133	-0.069
-284.545	207.668	-0.082	0.128
-283.530	-200.000	-0.013	0.070
-282.516	-101.501	-0.147	0.036
-281.501	-200.000	0.024	-0.162
-280.486	800.000	0.072	0.248
-279.472	-74.654	0.154	0.055
-278.457	-200.000	-0.039	-0.218
-277.443	-56.052	0.114	-0.051
-276.428	-12.072	0.134	-0.088
-275.413	800.000	-0.070	-0.211
-274.399	-169.130	0.390	0.014
-273.384	-24.734	0.349	0.207
-272.370	50.435	0.288	-0.272
-271.355	164.455	-0.025	0.035
-270.340	24.814	-0.126	-0.104
-269.326	-56.937	0.130	0.057
-268.311	800.000	0.043	-0.156
-267.297	239.739	-0.076	-0.126
-266.282	99.632	0.138	-0.159
-265.267	138.154	-0.242	0.316
-264.253	17.030	0.093	-0.074
-263.238	101.629	-0.082	0.095
-262.224	-35.380	0.062	0.034
-261.209	-32.345	0.154	-0.086
-260.195	-25.227	-0.296	-0.175
-259.180	22.524	0.058	-0.048
-258.165	-116.305	0.253	0.047
-257.151	-13.193	-0.280	0.182
-256.136	-131.858	-0.240	-0.031
-255.122	800.000	0.022	0.085
-254.107	41.569	0.188	-0.170
-253.092	-200.000	0.072	0.330
-252.078	800.000	0.053	-0.171
-251.063	-200.000	-0.051	0.441
-250.049	-200.000	-0.012	0.463
-249.034	-24.564	0.132	0.078
-248.019	692.497	-0.084	-0.218
-247.005	-38.554	-0.094	0.050
-245.990	227.255	0.156	-0.253
-244.976	111.236	-0.091	0.110
-243.961	490.223	-0.017	0.039
-242.946	-115.281	0.179	0.034
-241.932	80.616	-0.200	-0.215
-240.917	36.130	-0.378	-0.332
-239.903	77.827	0.053	-0.057
-238.888	185.456	-0.140	-0.208
-237.873	-200.000	-0.018	-0.095
-236.859	21.526	-0.230	-0.187
-235.844	11.151	0.236	0.180
-234.830	-49.206	0.213	0.102
-233.815	218.245	0.162	-0.257
-232.800	-200.000	-0.014	0.431
-231.786	-76.954	0.451	0.157
-230.771	40.828	-0.195	0.175
-229.757	-188.898	-0.254	-0.003
-228.742	-28.763	-0.227	0.130
-227.727	-76.064	0.086	-0.030
-226.713	188.182	0.163	0.243
-225.698	49.111	0.067	0.063
-224.684	-200.000	-0.011	0.075
-223.669	702.982	-0.053	0.139
-222.655	-200.000	0.006	0.042
-221.640	-56.064	-0.255	-0.113
-220.625	-200.000	0.036	0.181
-219.611	-200.000	0.002	-0.127
-218.596	-38.331	-0.329	-0.174
-217.582	-159.578	-0.087	0.005
-216.567	15.523	0.182	-0.142
-215.552	-7.024	0.347	0.235
-214.538	-200.000	-0.036	-0.193
-213.523	-146.000	-0.308	-0.027
-212.509	-189.503	0.404	-0.005
-211.494	-28.361	0.117	-0.067
-210.479	-34.061	-0.240	0.132
-209.465	-92.355	0.452	0.127
-208.450	-154.169	-0.124	-0.008
-207.436	-59.186	-0.326	-0.140
-206.421	-200.000	0.025	0.177
-205.406	424.446	-0.181	0.387
-204.392	-105.158	-0.086	-0.020
-203.377	-33.633	0.242	0.133
-202.363	-78.559	-0.284	0.097
-201.348	800.000	-0.055	0.176
-200.333	-200.000	0.022	-0.198
-199.319	-91.709	0.074	0.021
-198.304	-65.388	-0.292	-0.117
-197.290	383.234	-0.100	0.205
-196.275	-49.082	0.422	-0.201
-195.260	-58.550	0.267	0.115
-194.246	-74.358	0.131	0.047
-193.231	313.617	0.044	0.083
-192.217	800.000	0.085	0.361
-191.202	-88.652	0.237	0.070
-190.187	800.000	-0.051	-0.173
-189.173	123.907	0.151	-0.189
-188.158	-73.016	0.148	-0.054
-187.144	-152.913	-0.200	-0.014
-186.129	121.557	0.134	-0.166
-185.114	88.568	0.202	0.223
-184.100	580.041	-0.108	0.263
-183.085	-130.864	0.125	-0.017
-182.071	42.970	-0.125	0.113
-181.056	24.451	-0.142	-0.117
-180.042	-62.816	-0.118	0.049
-179.027	-23.034	0.240	-0.144
-178.012	-42.075	0.315	-0.160
-176.998	-166.486	-0.059	-0.002
-175.983	39.198	0.115	-0.102
-174.969	338.945	-0.170	0.329
-173.954	14.852	0.310	0.242
-172.939	466.915	0.152	0.338
-171.925	42.540	0.106	0.096
-170.910	-200.000	-0.005	-0.128
-169.896	226.153	-0.073	-0.118
-168.881	-200.000	0.018	-0.126
-167.866	-96.587	0.135	-0.035
-166.852	29.673	0.195	-0.165
-165.837	27.453	0.240	-0.201
-164.823	390.684	0.082	0.170
-163.808	46.481	0.228	0.210
-162.793	-144.816	0.214	-0.020
-161.779	-200.000	0.001	-0.067
-160.764	181.279	-0.022	-0.032
-159.750	495.196	0.133	0.303
-158.735	110.492	0.067	-0.080
-157.720	1.126	0.125	-0.089
-156.706	239.972	0.054	0.089
-155.691	493.838	-0.111	-0.253
-154.677	108.418	-0.136	0.161
-153.662	191.608	-0.139	-0.209
-152.647	-120.107	0.077	-0.013
-151.633	-74.312	0.164	0.059
-150.618	-26.517	0.201	0.117
-149.604	-51.603	0.391	0.181
-148.589	-121.973	0.270	0.044
-147.574	-200.000	0.033	-0.166
-146.560	82.562	0.099	-0.107
-145.545	153.585	-0.107	-0.146
-144.531	-124.906	0.319	-0.049
-143.516	120.460	-0.067	0.083
-142.502	103.431	0.106	-0.124
-141.487	75.239	-0.144	-0.151
-140.472	421.524	-0.093	-0.198
-139.458	-200.000	-0.020	0.313
-138.443	-22.861	0.410	0.246
-137.429	-65.548	0.400	0.159
-136.414	-200.000	-0.029	-0.156
-135.399	-87.726	-0.413	-0.124
-134.385	567.165	-0.096	0.230
-133.370	196.544	-0.188	-0.285
-132.356	-112.258	-0.226	-0.045
-131.341	-71.733	0.180	0.067
-130.326	482.798	-0.092	-0.207
-129.312	-151.967	0.144	0.010
-128.297	-74.555	0.371	0.133
-127.283	-174.011	0.211	-0.006
-126.268	-27.336	-0.171	0.099
-125.253	-200.000	0.024	0.175
-124.239	177.558	0.136	0.196
-123.224	-47.023	0.153	-0.074
-122.210	512.031	0.139	-0.321
-121.195	26.035	-0.135	0.112
-120.180	168.482	-0.071	-0.100
-119.166	585.356	-0.038	-0.094
-118.151	35.374	0.278	0.242
-117.137	-200.000	0.056	0.322
-116.122	-72.754	0.241	0.088
-115.107	35.787	-0.161	-0.140
-114.093	185.783	0.146	0.216
-113.078	-42.191	-0.335	-0.170
-112.064	-200.000	0.011	-0.167
-111.049	-152.713	-0.085	0.006
-110.034	153.246	-0.171	-0.233
-109.020	60.925	0.048	-0.047
-108.005	-200.000	-0.005	0.119
-106.991	213.678	0.141	-0.221
-105.976	800.000	0.022	-0.094
-104.962	1.062	-0.242	-0.172
-103.947	197.921	0.061	-0.092
-102.932	-113.023	0.164	-0.032
-101.918	30.351	0.219	0.185
-100.903	-107.261	-0.319	0.070
-99.889	-98.296	0.172	-0.044
-98.874	100.341	-0.232	-0.267
-97.859	280.834	-0.027	-0.048
-96.845	22.634	-0.078	-0.063
-95.830	-200.000	0.031	0.311
-94.816	-68.204	-0.293	-0.113
-93.801	74.362	-0.122	0.127
-92.786	-200.000	0.021	0.232
-91.772	500.964	-0.028	0.063
-90.757	-81.341	0.268	-0.088
-89.743	223.730	-0.113	0.181
-88.728	-200.000	0.041	-0.238
-87.713	0.934	-0.286	-0.203
-86.699	72.538	0.373	0.386
-85.684	-66.346	0.204	0.080
-84.670	-78.787	0.176	0.059
-83.655	165.826	0.206	-0.289
-82.640	-101.924	0.157	0.037
-81.626	-200.000	0.182	0.001
-80.611	210.583	0.204	0.318
-79.597	145.499	-0.158	-0.210
-78.582	494.982	-0.112	0.256
-77.567	-99.394	0.417	-0.104
-76.553	-4.673	-0.137	0.094
-75.538	-19.252	0.365	0.224
-74.524	60.380	0.161	0.158
-73.509	-92.661	0.398	0.110
-72.494	-124.337	0.280	-0.043
-71.480	-141.342	0.386	-0.039
-70.465	-200.000	0.028	-0.133
-69.451	9.403	-0.281	-0.210
-68.436	702.893	-0.023	-0.059
-67.422	-17.901	-0.168	0.105
-66.407	130.364	0.016	-0.020
-65.392	284.020	0.078	0.139
-64.378	-200.000	-0.045	-0.392
-63.363	221.270	0.201	0.319
-62.349	800.000	0.018	0.062
-61.334	12.817	-0.852	-0.652
-60.319	79.226	0.220	0.234
-59.305	-200.000	-0.051	-1.092
-58.290	157.475	0.721	0.989
-57.276	293.790	0.776	1.404
-56.261	-200.000	91.895	535.177
-55.246	519.269	1368.161	3173.087
-54.232	153.711	2561.109	3474.191
-53.217	117.021	2174.244	2643.882
-52.203	49.118	1634.029	1519.838
-51.188	41.035	1370.487	1225.155
-50.173	37.604	1327.351	1166.034
-49.159	58.010	1374.442	1332.197
-48.144	62.651	1392.968	1378.351
-47.130	41.311	1347.804	1206.355
-46.115	37.496	1330.546	1168.006
-45.100	37.306	1325.785	1162.647
-44.086	37.274	1322.919	1159.892
-43.071	37.166	1320.871	1157.411
-42.057	37.168	1318.909	1155.658
-41.042	37.145	1317.685	1154.400
-40.027	37.363	1315.279	1153.543
-39.013	37.285	1313.631	1151.588
-37.998	37.288	1311.912	1150.052
-36.984	37.206	1310.522	1148.302
-35.969	37.321	1308.356	1147.038
-34.954	37.481	1306.567	1146.367
-33.940	37.459	1305.348	1145.125
-32.925	37.536	1303.511	1143.920
-31.911	37.487	1302.153	1142.398
-30.896	37.494	1300.787	1141.190
-29.881	37.622	1299.535	1140.798
-28.867	37.589	1297.687	1138.939
-27.852	37.544	1296.917	1137.953
-26.838	37.388	1295.635	1135.870
-25.823	37.524	1293.590	1134.829
-24.809	37.460	1292.508	1133.459
-23.794	37.460	1290.778	1131.900
-22.779	37.558	1289.214	1131.050
-21.765	37.522	1288.245	1129.948
-20.750	37.469	1287.146	1128.629
-19.736	37.399	1285.619	1126.844
-18.721	37.391	1284.540	1125.803
-17.706	37.306	1283.509	1124.362
-16.692	37.499	1281.976	1124.095
-15.677	37.408	1280.926	1122.602
-14.663	37.353	1280.080	1121.499
-13.648	37.207	1279.290	1119.919
-12.633	37.333	1277.494	1119.028
-11.619	37.387	1276.749	1118.645
-10.604	37.353	1275.740	1117.520
-9.590	37.410	1275.379	1117.484
-8.575	37.363	1274.251	1116.184
-7.560	37.307	1273.415	1115.083
-6.546	37.358	1272.269	1114.331
-5.531	37.289	1271.323	1113.060
-4.517	37.232	1270.982	1112.389
-3.502	37.283	1269.972	1111.755
-2.487	37.377	1268.536	1110.992
-1.473	37.187	1264.307	1106.163
-0.458	34.696	1247.927	1077.755
0.556	27.169	1226.571	1024.072
1.571	21.788	1229.513	995.954
2.586	20.038	1244.246	997.730
3.600	19.536	1233.353	986.041
4.615	16.216	1165.875	914.056
5.629	10.585	1093.526	828.572
6.644	7.587	1073.462	798.250
7.659	7.395	1070.496	795.010
8.673	7.392	1069.094	793.886
9.688	7.217	1068.016	792.142
10.702	7.577	1066.673	792.873
11.717	10.997	1070.976	813.117
12.731	16.088	1077.703	843.693
13.746	17.846	1079.416	853.758
14.761	17.238	1078.472	849.899
15.775	16.132	1076.251	842.549
16.790	15.095	1074.160	835.668
17.804	14.359	1072.539	830.663
18.819	14.068	1071.215	828.113
19.834	13.656	1070.700	825.590
20.848	13.460	1069.249	823.425
21.863	13.233	1068.470	821.622
22.877	13.077	1067.894	820.332
23.892	13.122	1067.521	820.197
24.907	13.052	1066.600	819.071
25.921	13.153	1065.453	818.616
26.936	13.248	1063.839	817.776
27.950	13.204	1063.114	816.925
28.965	13.228	1061.405	815.661
29.980	13.376	1059.229	814.642
30.994	13.278	1058.935	813.863
32.009	13.399	1057.633	813.384
33.023	13.294	1056.538	811.958
34.038	13.242	1055.527	810.852
35.053	13.366	1054.407	810.529
36.067	13.272	1053.718	809.468
37.082	13.204	1052.799	808.358
38.096	13.398	1051.962	808.587
39.111	13.348	1051.236	807.715
40.126	13.225	1049.724	805.883
41.140	13.104	1048.707	804.444
42.155	12.986	1047.857	803.142
43.169	13.105	1046.656	802.732
44.184	13.093	1045.149	801.445
45.199	12.974	1044.795	800.527
46.213	13.099	1043.310	799.923
47.228	13.170	1042.128	799.288
48.242	13.144	1041.406	798.540
49.257	13.081	1040.655	797.588
50.271	13.091	1039.704	796.839
51.286	13.222	1038.517	796.491
52.301	13.231	1037.774	795.892
53.315	13.141	1035.963	794.000
54.330	13.108	1035.368	793.314
55.344	13.092	1034.644	792.615
56.359	13.076	1033.627	791.689
57.374	13.029	1032.899	790.836
58.388	13.058	1031.561	789.878
59.403	12.971	1031.112	789.051
60.417	12.986	1030.392	788.501
61.432	12.970	1029.555	787.713
62.447	12.986	1028.439	786.865
63.461	13.046	1027.712	786.524
64.476	13.020	1026.451	785.370
65.490	12.991	1025.999	784.812
66.505	12.855	1025.529	783.740
67.520	13.056	1024.657	783.960
68.534	13.068	1023.934	783.392
69.549	13.031	1023.522	782.834
70.563	12.905	1022.679	781.521
71.578	12.955	1021.771	780.994
72.593	12.909	1020.886	780.031
73.607	12.887	1020.469	779.541
74.622	12.877	1019.698	778.837
75.636	12.857	1019.034	778.166
76.651	12.875	1018.318	777.632
77.666	12.876	1017.287	776.782
78.680	12.943	1016.925	776.753
79.695	13.039	1016.163	776.556
80.709	13.013	1015.406	775.782
81.724	12.956	1015.372	775.422
82.739	13.162	1014.022	775.291
83.753	13.229	1013.303	774.986
84.768	13.354	1012.521	774.904
85.782	13.323	1011.400	773.831
86.797	13.447	1010.474	773.633
87.812	13.169	1009.903	771.829
88.826	13.223	1008.652	771.059
89.841	13.239	1007.955	770.530
90.855	13.222	1007.032	769.677
91.870	13.299	1005.868	769.081
92.884	13.291	1005.057	768.356
93.899	13.253	1004.631	767.784
94.914	13.306	1003.676	767.231
95.928	13.477	1002.402	766.981
96.943	13.312	1001.942	765.800
97.957	13.256	1001.163	764.878
98.972	13.244	1000.446	764.206
99.987	13.374	999.127	763.729
101.001	13.338	998.145	762.747
102.016	13.335	997.246	761.979
103.030	13.275	996.819	761.308
104.045	13.331	995.678	760.627
105.060	13.282	994.715	759.600
106.074	13.120	994.153	758.360
107.089	13.175	993.218	757.832
108.103	13.096	991.780	756.306
109.118	13.064	990.855	755.386
110.133	13.029	990.162	754.631
111.147	13.093	989.041	754.002
112.162	13.052	988.317	753.196
113.176	13.237	987.668	753.477
114.191	13.172	986.728	752.399
115.206	13.179	985.862	751.704
116.220	13.144	985.182	750.960
117.235	13.056	984.516	749.987
118.249	13.097	983.685	749.472
119.264	13.042	982.984	748.621
120.279	13.047	982.496	748.206
121.293	13.083	981.173	747.297
122.308	13.143	980.210	746.770
123.322	13.046	979.758	745.918
124.337	12.973	978.476	744.548
125.352	13.037	977.228	743.821
126.366	12.992	976.245	742.803
127.381	13.017	975.698	742.434
128.395	13.102	974.242	741.641
129.410	13.320	972.820	741.472
130.424	13.090	972.851	740.397
131.439	13.108	972.392	740.066
132.454	13.175	971.556	739.662
133.468	13.238	970.481	739.060
134.483	13.231	969.614	738.306
135.497	13.219	968.793	737.561
136.512	13.240	967.752	736.794
137.527	13.236	967.256	736.337
138.541	13.369	966.207	736.063
139.556	13.317	965.284	735.065
140.570	13.467	964.781	735.283
141.585	13.454	964.303	734.796
142.600	13.391	962.847	733.340
143.614	13.403	962.338	732.943
144.629	13.594	961.292	732.927
145.643	13.393	960.572	731.425
146.658	13.368	959.201	730.202
147.673	13.232	958.445	728.963
148.687	13.356	957.524	728.746
149.702	13.230	956.600	727.422
150.716	13.293	955.977	727.164
151.731	13.307	955.188	726.561
152.746	13.412	954.304	726.286
153.760	13.387	954.011	725.889
154.775	13.352	953.526	725.302
155.789	13.350	952.863	724.722
156.804	13.506	951.962	724.656
157.819	13.407	951.475	723.787
158.833	13.561	950.835	723.910
159.848	13.441	950.188	722.829
160.862	13.387	949.178	721.761
161.877	13.395	948.001	720.836
162.892	13.395	947.155	720.130
163.906	13.413	946.206	719.423
164.921	13.278	945.537	718.263
165.935	13.507	944.419	718.346
166.950	13.458	943.713	717.534
167.964	13.422	942.632	716.494
168.979	13.426	942.110	716.048
169.994	13.480	941.023	715.395
171.008	13.509	940.147	714.790
172.023	13.458	939.877	714.302
173.037	13.668	938.746	714.283
174.052	13.526	938.372	713.323
175.067	13.641	937.235	712.891
176.081	13.397	936.997	711.597
177.096	13.312	936.590	710.862
178.110	13.485	935.585	710.776
179.125	13.465	935.383	710.473
180.140	13.550	934.823	710.353
181.154	13.522	934.675	710.054
182.169	13.591	933.926	709.721
183.183	13.693	933.222	709.557
184.198	13.633	932.233	708.488
185.213	13.662	931.279	707.823
186.227	13.709	930.964	707.720
187.242	13.760	930.586	707.590
188.256	13.702	929.948	706.794
189.271	13.794	928.845	706.283
190.286	13.637	928.136	705.017
191.300	13.479	927.509	703.804
192.315	13.239	927.281	702.550
193.329	13.507	926.296	702.880
194.344	13.600	925.872	702.888
195.359	13.612	925.087	702.283
196.373	13.731	924.382	702.187
197.388	13.859	923.781	702.212
198.402	13.922	923.650	702.315
199.417	14.028	922.687	701.971
200.432	13.990	922.107	701.305
201.446	14.070	921.706	701.276
202.461	14.033	921.287	700.738
203.475	14.054	920.657	700.285
204.490	13.983	919.488	699.037
205.504	13.957	919.162	698.620
206.519	13.903	918.260	697.642
207.534	13.951	917.092	696.895
208.548	13.918	916.799	696.475
209.563	13.915	916.108	695.876
210.577	13.956	915.495	695.519
211.592	14.082	914.999	695.607
212.607	14.052	914.293	694.883
213.621	14.201	913.245	694.649
214.636	14.119	912.593	693.750
215.650	14.083	911.938	693.039
216.665	14.173	911.516	693.031
217.680	14.186	910.592	692.323
218.694	14.173	910.152	691.873
219.709	14.291	909.533	691.830
220.723	14.324	908.621	691.213
221.738	14.178	908.002	690.076
222.753	14.281	907.430	690.008
223.767	14.275	906.839	689.471
224.782	14.222	906.393	688.851
225.796	14.330	905.807	688.791
226.811	14.255	905.275	688.015
227.826	14.248	904.329	687.207
228.840	14.215	903.865	686.656
229.855	14.354	902.560	686.178
230.869	14.341	901.876	685.544
231.884	14.345	901.426	685.160
232.899	14.135	900.860	683.803
233.913	14.303	899.628	683.497
234.928	14.241	899.050	682.743
235.942	14.168	898.813	682.204
236.957	14.376	898.301	682.608
237.972	14.210	897.306	681.112
238.986	14.284	896.986	681.113
240.001	14.318	896.275	680.650
241.015	14.106	895.924	679.459
242.030	14.293	894.853	679.346
243.045	14.445	894.574	679.698
244.059	14.451	893.921	679.164
245.074	14.355	893.280	678.226
246.088	14.420	892.763	678.037
247.103	14.499	891.905	677.647
248.117	14.565	891.300	677.394
249.132	14.693	890.951	677.591
250.147	14.750	890.497	677.414
251.161	14.816	889.565	676.914
252.176	14.684	888.935	675.842
253.190	14.912	888.108	676.075
254.205	15.012	887.482	675.941
255.220	15.046	886.780	675.485
256.234	14.867	886.238	674.290
257.249	14.840	885.495	673.558
258.263	14.875	885.017	673.273
259.278	14.805	884.417	672.478
260.293	14.951	883.780	672.519
261.307	14.977	883.414	672.286
262.322	15.012	882.642	671.781
263.336	15.004	882.270	671.403
264.351	15.118	880.911	670.767
265.366	15.160	880.346	670.447
266.380	15.057	879.801	669.560
267.395	14.992	879.197	668.780
268.409	14.987	878.603	668.252
269.424	15.051	877.626	667.704
270.439	15.083	877.111	667.379
271.453	14.916	876.232	665.987
272.468	14.970	875.937	665.921
273.482	14.989	875.084	665.288
274.497	15.061	874.777	665.280
275.512	14.926	874.209	664.254
276.526	15.096	873.490	664.324
277.541	15.214	873.100	664.437
278.555	15.108	872.466	663.476
279.570	15.278	872.049	663.774
280.585	15.228	871.307	662.951
281.599	15.191	870.316	661.993
282.614	15.123	869.825	661.291
283.628	15.173	869.195	660.951
284.643	15.248	868.499	660.660
285.657	15.130	867.997	659.753
286.672	15.151	867.235	659.200
287.687	15.239	866.693	659.073
288.701	15.353	866.139	659.043
289.716	15.310	865.820	658.576
290.730	15.258	865.053	657.728
291.745	15.307	864.614	657.529
292.760	15.338	864.299	657.354
293.774	15.434	863.226	656.852
294.789	15.302	862.800	655.955
295.803	15.370	861.500	655.174
296.818	15.379	861.164	654.896
297.833	15.353	860.541	654.262
298.847	15.426	860.214	654.242
299.862	15.285	859.737	653.270
300.876	15.427	859.037	653.235
301.891	15.435	858.559	652.845
302.906	15.382	858.191	652.298
303.920	15.606	857.433	652.534
304.935	15.687	856.862	652.358
305.949	15.660	855.979	651.525
306.964	15.577	855.392	650.697
307.979	15.619	855.197	650.655
308.993	15.618	854.475	650.044
310.008	15.739	853.523	649.729
311.022	15.619	853.514	649.203
312.037	15.509	852.686	648.090
313.052	15.484	852.189	647.557
314.066	15.662	851.296	647.508
315.081	15.508	850.961	646.601
316.095	15.628	850.176	646.411
317.110	15.586	849.716	645.842
318.125	15.600	849.177	645.427
319.139	15.571	848.611	644.831
320.154	15.574	848.293	644.543
321.168	15.689	847.765	644.527
322.183	15.642	847.365	643.986
323.197	15.594	847.026	643.485
324.212	15.636	846.262	643.010
325.227	15.756	845.367	642.732
326.241	15.650	845.067	642.042
327.256	15.623	844.762	641.649
328.270	15.563	843.815	640.643
329.285	15.654	843.117	640.406
330.300	15.709	842.591	640.160
331.314	15.758	842.376	640.126
332.329	15.893	841.775	640.126
333.343	15.788	841.281	639.293
334.358	15.749	840.939	638.827
335.373	15.760	840.582	638.542
336.387	15.695	840.257	637.994
337.402	15.996	839.796	638.728
338.416	15.959	839.354	638.194
339.431	15.967	839.083	637.963
340.446	16.076	838.780	638.090
341.460	16.139	838.060	637.724
342.475	16.122	837.669	637.305
343.489	16.130	837.371	637.051
344.504	16.272	836.964	637.219
345.519	16.248	836.682	636.861
346.533	16.056	836.183	635.701
347.548	16.120	835.781	635.579
348.562	16.068	834.807	634.587
349.577	16.105	834.489	634.425
350.592	16.168	833.858	634.129
351.606	15.933	833.122	632.630
352.621	16.117	832.331	632.666
353.635	16.218	831.410	632.285
354.650	16.187	830.756	631.616
355.665	16.194	830.330	631.263
356.679	16.194	829.761	630.775
357.694	16.202	829.373	630.453
358.708	16.257	828.882	630.231
359.723	16.307	828.024	629.710
360.738	16.212	827.829	629.150
361.752	16.183	826.840	628.235
362.767	16.413	826.021	628.411
363.781	16.510	825.670	628.451
364.796	16.510	825.353	628.153
365.810	16.494	825.112	627.855
366.825	16.557	824.669	627.695
367.840	16.644	824.209	627.614
368.854	16.464	823.866	626.630
369.869	16.617	823.157	626.601
370.883	16.620	822.512	626.066
371.898	16.571	822.549	625.858
372.913	16.467	822.291	625.220
373.927	16.673	821.365	625.224
374.942	16.563	821.098	624.556
375.956	16.617	820.490	624.239
376.971	16.702	820.333	624.380
377.986	16.752	819.750	624.063
379.000	16.902	819.342	624.250
380.015	16.796	818.667	623.290
381.029	16.787	818.294	622.919
382.044	16.704	817.847	622.216
383.059	16.845	816.888	621.951
384.073	16.872	816.308	621.553
385.088	16.648	816.075	620.499
386.102	16.724	815.156	620.026
387.117	16.745	814.890	619.845
388.132	16.707	814.050	619.012
389.146	16.826	813.613	619.060
390.161	16.793	813.517	618.811
391.175	16.781	812.794	618.163
392.190	16.826	812.306	617.900
393.205	16.878	811.554	617.464
394.219	16.903	811.166	617.203
395.234	16.744	811.037	616.473
396.248	16.709	810.394	615.801
397.263	16.729	810.394	615.821
398.278	16.614	810.062	615.097
399.292	16.707	809.260	614.771
400.307	16.825	808.511	614.575
401.321	16.885	808.444	614.688
402.336	16.771	807.923	613.824
403.350	16.824	807.449	613.601
404.365	16.946	806.904	613.574
405.380	16.945	806.806	613.441
406.394	17.132	805.671	613.198
407.409	17.173	805.398	613.085
408.423	17.185	805.249	612.959
409.438	17.132	805.000	612.527
410.453	17.254	804.644	612.639
411.467	17.178	804.276	612.031
412.482	17.214	803.547	611.551
413.496	17.292	803.321	611.607
414.511	17.322	802.927	611.361
415.526	17.318	802.559	611.014
416.540	17.242	801.839	610.136
417.555	17.363	801.522	610.275
418.569	17.371	800.957	609.822
419.584	17.221	800.789	609.103
420.599	17.345	800.489	609.263
421.613	100.749	1280.172	1426.142
422.628	86.402	1350.040	1426.273
