DTS Sentinel unit serial number:	SN413079Multiplexer serial number:	ORYXHardware model number:	OX4-SRSoftware version number:	ORYX F/W v4.00 Oryx Data Collector v3.7.2.0data status	okinstallation	princeton_trtdifferential loss correction	single-endedforward channel	channel 1reverse channel	N/Adate	2019/09/12time	22:42:35forward acquisition time	60.00reverse acquisition time	0.00gamma	496.2192k internal	0.2326k external	0.2326temperature offset calibration	1.0151default loss term (dB/km)	0.3790temperature slope calibration	1.0000multiplexer offset coefficient	1.0000multiplexer slope coefficient	1.0000fibre end	0.00T internal ref (°C)	29.52T ext. ref 1 (°C)	3.76T ext. ref 2 (°C)	24.16length (m)	temperature (°C)	Stokes	anti-Stokes-747.200	-200.000	-0.006	-0.215
-746.185	-71.118	0.109	-0.041
-745.171	-200.000	0.010	-0.226
-744.156	-71.369	-0.003	0.001
-743.142	144.984	0.153	-0.206
-742.127	-86.258	-0.112	0.035
-741.112	6.615	0.310	0.232
-740.098	-26.561	-0.154	-0.091
-739.083	172.208	0.043	-0.062
-738.069	253.814	-0.067	0.115
-737.054	-200.000	-0.009	0.051
-736.039	-101.974	-0.110	0.027
-735.025	-83.688	0.325	0.105
-734.010	-4.467	0.123	-0.086
-732.996	-33.167	-0.352	-0.196
-731.981	34.884	-0.312	0.276
-730.966	-41.214	-0.129	-0.067
-729.952	256.186	-0.098	-0.170
-728.937	-200.000	-0.039	-0.194
-727.923	-200.000	0.040	-0.243
-726.908	90.680	-0.238	-0.269
-725.894	312.749	0.064	0.122
-724.879	341.266	-0.070	-0.138
-723.864	-200.000	-0.035	0.291
-722.850	-82.378	0.130	0.043
-721.835	-70.744	-0.262	-0.100
-720.821	779.397	-0.042	0.116
-719.806	-99.724	-0.136	0.034
-718.791	14.224	-0.255	0.200
-717.777	7.797	0.212	0.160
-716.762	-200.000	0.014	0.155
-715.748	-137.994	-0.226	0.025
-714.733	-200.000	-0.016	0.211
-713.718	-200.000	0.003	-0.471
-712.704	-200.000	-0.001	-0.163
-711.689	-197.908	0.005	0.000
-710.675	182.640	-0.065	-0.097
-709.660	-76.824	-0.263	0.093
-708.645	-67.595	0.320	0.126
-707.631	-71.593	0.165	0.062
-706.616	-9.314	0.060	0.041
-705.602	2.967	0.086	0.063
-704.587	-110.649	-0.208	-0.043
-703.572	-177.851	0.208	0.005
-702.558	-32.042	-0.140	-0.079
-701.543	-87.450	-0.233	-0.071
-700.529	-68.196	-0.103	-0.040
-699.514	73.471	0.097	-0.102
-698.499	259.139	0.105	-0.183
-697.485	59.136	0.222	-0.220
-696.470	800.000	0.102	-0.365
-695.456	108.717	0.154	0.186
-694.441	-173.592	0.268	-0.008
-693.426	18.774	0.184	-0.148
-692.412	-116.345	0.197	-0.037
-691.397	-107.837	-0.206	-0.045
-690.383	-200.000	0.030	-0.199
-689.368	800.000	-0.069	-0.245
-688.354	800.000	-0.027	0.113
-687.339	800.000	0.029	-0.085
-686.324	388.358	0.158	-0.330
-685.310	-200.000	0.108	-0.490
-684.295	-52.898	0.061	-0.028
-683.281	-139.982	0.233	0.025
-682.266	70.091	0.127	0.132
-681.251	143.180	0.060	0.080
-680.237	-200.000	-0.029	-0.392
-679.222	175.198	-0.164	0.239
-678.208	-190.403	-0.425	0.005
-677.193	-200.000	-0.048	-0.288
-676.178	-132.248	-0.338	-0.044
-675.164	42.933	-0.268	0.246
-674.149	557.521	0.049	-0.119
-673.135	-200.000	-0.024	0.154
-672.120	-47.147	0.089	0.044
-671.105	-135.151	-0.170	0.021
-670.091	-101.895	-0.234	0.057
-669.076	-200.000	-0.080	0.365
-668.062	-58.268	0.179	0.078
-667.047	-68.705	0.070	-0.027
-666.032	-92.445	0.141	-0.040
-665.018	-171.979	-0.190	0.006
-664.003	-200.000	-0.489	0.001
-662.989	123.268	0.053	0.067
-661.974	-30.828	-0.314	-0.178
-660.959	-70.492	-0.270	-0.103
-659.945	-94.256	-0.047	-0.013
-658.930	-63.281	0.036	0.015
-657.916	310.527	0.097	-0.183
-656.901	-200.000	0.011	-0.109
-655.886	3.348	0.191	0.140
-654.872	800.000	-0.024	0.099
-653.857	-101.916	-0.093	0.022
-652.843	-66.874	-0.286	-0.113
-651.828	-155.637	-0.068	0.004
-650.814	35.823	-0.253	0.223
-649.799	-200.000	-0.008	-0.188
-648.784	88.185	-0.098	-0.110
-647.770	0.643	-0.166	0.120
-646.755	-200.000	-0.002	0.134
-645.741	44.998	-0.157	0.146
-644.726	-19.018	0.072	-0.045
-643.711	-65.520	0.179	-0.072
-642.697	605.015	-0.039	0.098
-641.682	-20.348	-0.314	0.194
-640.668	-43.022	0.459	-0.234
-639.653	49.179	0.166	-0.157
-638.638	-200.000	-0.023	0.259
-637.624	-126.557	0.257	0.038
-636.609	332.698	-0.010	0.020
-635.595	-152.185	-0.164	-0.012
-634.580	-123.971	-0.050	0.008
-633.565	-17.215	0.093	0.059
-632.551	158.449	0.014	-0.020
-631.536	-19.381	-0.044	0.027
-630.522	-200.000	0.039	-0.227
-629.507	492.904	-0.064	0.147
-628.492	68.531	-0.150	0.155
-627.478	-200.000	-0.007	0.101
-626.463	271.436	0.078	0.139
-625.449	800.000	0.054	-0.201
-624.434	160.948	-0.174	-0.243
-623.419	-136.206	-0.036	-0.004
-622.405	-99.521	-0.392	0.099
-621.390	285.943	-0.030	0.055
-620.376	-73.206	-0.285	0.105
-619.361	63.726	-0.055	-0.056
-618.346	-200.000	0.006	-0.087
-617.332	-200.000	0.029	-0.306
-616.317	317.677	0.025	0.048
-615.303	-106.243	-0.189	0.043
-614.288	-200.000	-0.001	-0.129
-613.273	140.930	0.118	-0.157
-612.259	-27.391	0.047	-0.028
-611.244	800.000	0.034	0.143
-610.230	80.842	-0.117	0.127
-609.215	-70.456	0.257	-0.098
-608.201	-78.761	-0.175	-0.060
-607.186	-200.000	-0.037	-0.307
-606.171	1.737	0.106	0.077
-605.157	386.322	-0.066	-0.136
-604.142	44.512	0.069	0.063
-603.128	-17.759	0.169	0.107
-602.113	158.304	0.205	-0.285
-601.098	800.000	-0.121	0.483
-600.084	-142.673	-0.038	0.004
-599.069	-111.989	-0.145	0.029
-598.055	90.985	-0.236	-0.266
-597.040	182.919	0.093	-0.138
-596.025	151.028	0.089	-0.121
-595.011	135.376	0.041	0.054
-593.996	403.905	0.184	-0.388
-592.982	-156.070	0.322	0.020
-591.967	161.515	-0.026	-0.037
-590.952	486.235	-0.057	-0.130
-589.938	-90.112	-0.288	0.084
-588.923	-64.203	-0.207	0.085
-587.909	-68.776	0.262	-0.102
-586.894	-1.922	0.280	-0.197
-585.879	-152.554	-0.110	-0.008
-584.865	-51.965	0.136	0.063
-583.850	-53.827	-0.265	0.121
-582.836	-200.000	-0.197	-0.001
-581.821	6.822	0.194	-0.145
-580.806	-118.193	0.237	-0.042
-579.792	-54.739	-0.239	-0.108
-578.777	258.096	-0.078	-0.134
-577.763	121.572	0.207	-0.258
-576.748	-200.000	-0.027	0.189
-575.733	-149.463	-0.288	-0.023
-574.719	-200.000	-0.038	-0.385
-573.704	59.843	0.106	-0.105
-572.690	137.863	0.191	-0.251
-571.675	33.815	-0.200	0.175
-570.661	356.961	-0.085	0.170
-569.646	85.864	0.030	0.033
-568.631	-64.098	0.092	0.038
-567.617	800.000	-0.203	-0.587
-566.602	-178.261	0.098	-0.002
-565.588	-112.655	-0.300	0.060
-564.573	494.726	-0.021	-0.048
-563.558	-200.000	-0.009	-0.042
-562.544	-139.236	-0.148	0.016
-561.529	-200.000	0.025	-0.142
-560.515	-6.910	-0.220	0.150
-559.500	217.150	-0.091	-0.145
-558.485	72.842	-0.205	0.215
-557.471	270.818	-0.124	0.218
-556.456	-164.831	-0.216	0.010
-555.442	-63.858	0.052	-0.021
-554.427	-18.541	-0.169	0.105
-553.412	800.000	-0.045	0.176
-552.398	37.023	0.228	-0.202
-551.383	-9.964	-0.163	0.108
-550.369	-75.670	-0.223	0.079
-549.354	-83.277	-0.154	-0.050
-548.339	-7.650	0.075	-0.051
-547.325	-119.388	0.341	-0.059
-546.310	-134.895	-0.038	-0.005
-545.296	-200.000	0.032	-0.151
-544.281	-114.451	-0.152	0.029
-543.266	-200.000	-0.003	0.358
-542.252	73.711	0.257	0.270
-541.237	-168.447	-0.111	0.004
-540.223	137.952	-0.099	-0.130
-539.208	-65.625	-0.245	0.098
-538.193	1.074	-0.419	-0.300
-537.179	-200.000	0.028	-0.266
-536.164	642.494	0.086	-0.220
-535.150	323.736	0.078	0.150
-534.135	160.642	-0.103	-0.144
-533.121	394.649	0.087	0.182
-532.106	-120.429	-0.102	-0.017
-531.091	-84.785	-0.167	0.053
-530.077	94.056	0.192	-0.218
-529.062	394.619	0.101	-0.210
-528.048	-200.000	0.006	-0.048
-527.033	-106.535	-0.460	-0.102
-526.018	25.300	-0.144	-0.120
-525.004	41.393	-0.150	0.135
-523.989	-82.141	-0.217	-0.071
-522.975	-48.997	-0.145	0.069
-521.960	-200.000	-0.296	0.000
-520.945	58.895	0.206	-0.203
-519.931	-148.400	-0.455	0.037
-518.916	-101.557	0.079	0.019
-517.902	800.000	0.041	0.164
-516.887	64.676	-0.114	-0.115
-515.872	44.308	0.196	0.180
-514.858	-123.410	0.177	-0.028
-513.843	428.587	-0.174	0.375
-512.829	-18.005	-0.133	-0.083
-511.814	25.304	0.012	-0.010
-510.799	378.298	-0.078	-0.160
-509.785	-124.725	0.301	0.047
-508.770	-200.000	0.025	0.196
-507.756	-200.000	0.017	-0.458
-506.741	89.556	-0.177	-0.197
-505.726	-97.758	0.209	0.054
-504.712	64.921	-0.225	-0.227
-503.697	53.037	0.105	0.100
-502.683	25.395	-0.287	-0.238
-501.668	74.683	-0.046	0.048
-500.653	-21.960	-0.025	0.015
-499.639	-200.000	0.035	-0.159
-498.624	82.870	-0.079	0.086
-497.610	-6.404	-0.095	-0.064
-496.595	146.987	0.011	0.015
-495.581	-135.555	-0.148	0.018
-494.566	221.330	0.106	-0.170
-493.551	-38.325	-0.233	-0.123
-492.537	193.897	-0.149	-0.225
-491.522	-200.000	0.001	-0.106
-490.508	-143.325	-0.052	0.005
-489.493	17.976	0.244	0.194
-488.478	580.859	0.035	-0.085
-487.464	153.161	-0.207	-0.283
-486.449	-99.766	-0.228	0.057
-485.435	-83.612	-0.154	0.049
-484.420	-200.000	0.017	0.091
-483.405	800.000	-0.080	-0.254
-482.391	631.415	-0.016	0.040
-481.376	800.000	-0.077	0.289
-480.362	-30.810	0.095	-0.054
-479.347	-119.806	0.196	0.034
-478.332	-200.000	-0.017	0.320
-477.318	-151.282	-0.172	-0.013
-476.303	107.376	-0.177	-0.210
-475.289	-91.863	0.262	0.074
-474.274	-135.375	-0.095	-0.011
-473.259	565.705	-0.138	0.335
-472.245	445.902	-0.076	-0.166
-471.230	-43.559	0.261	0.132
-470.216	-59.000	-0.322	-0.139
-469.201	-102.398	-0.364	0.087
-468.186	-121.110	-0.157	-0.026
-467.172	-85.374	-0.253	0.079
-466.157	800.000	-0.041	0.176
-465.143	365.230	0.062	-0.125
-464.128	-200.000	-0.008	0.113
-463.113	-1.375	0.079	0.055
-462.099	800.000	0.061	-0.249
-461.084	-129.832	0.383	-0.052
-460.070	-140.641	-0.372	0.038
-459.055	-48.952	-0.232	-0.111
-458.040	122.013	0.208	-0.259
-457.026	40.619	-0.151	-0.136
-456.011	33.722	-0.345	-0.300
-454.997	163.846	0.175	0.246
-453.982	800.000	-0.061	0.262
-452.968	-200.000	-0.017	0.196
-451.953	371.020	-0.100	0.202
-450.938	209.533	-0.115	0.180
-449.924	733.189	0.099	-0.265
-448.909	-100.744	0.220	0.054
-447.895	-186.187	-0.223	0.003
-446.880	-129.054	0.208	0.029
-445.865	124.023	0.047	-0.059
-444.851	-200.000	-0.016	-0.323
-443.836	665.937	-0.092	0.237
-442.822	23.330	-0.063	0.052
-441.807	211.667	0.268	0.420
-440.792	227.759	0.088	-0.143
-439.778	-200.000	0.007	-0.177
-438.763	7.792	-0.119	0.089
-437.749	45.145	0.107	-0.098
-436.734	405.105	0.134	0.281
-435.719	393.293	-0.164	-0.340
-434.705	-134.458	0.211	-0.026
-433.690	-116.976	0.435	0.079
-432.676	-102.360	-0.208	-0.050
-431.661	46.644	-0.127	0.117
-430.646	254.539	0.230	-0.392
-429.632	-71.539	-0.189	-0.071
-428.617	282.128	-0.133	0.237
-427.603	-200.000	0.013	-0.252
-426.588	174.953	0.165	-0.238
-425.573	178.663	0.145	-0.211
-424.559	800.000	0.029	0.088
-423.544	38.601	0.345	0.306
-422.530	-65.115	-0.356	-0.143
-421.515	289.965	0.130	-0.236
-420.500	-200.000	0.030	-0.165
-419.486	110.481	0.125	0.150
-418.471	-137.061	0.184	0.021
-417.457	239.084	-0.079	-0.131
-416.442	800.000	-0.012	0.052
-415.428	-8.778	0.261	0.174
-414.413	415.971	0.075	0.160
-413.398	-125.964	0.334	-0.050
-412.384	160.402	0.065	0.090
-411.369	-200.000	0.025	-0.134
-410.355	369.022	0.219	0.442
-409.340	-125.385	-0.232	-0.035
-408.325	639.747	0.110	-0.280
-407.311	679.218	-0.079	-0.204
-406.296	-91.427	0.138	-0.039
-405.282	800.000	0.109	-0.339
-404.267	-17.724	0.174	0.109
-403.252	369.022	0.068	-0.137
-402.238	-125.192	-0.110	0.017
-401.223	23.424	-0.167	-0.137
-400.209	-41.240	-0.111	-0.057
-399.194	-10.887	0.260	-0.171
-398.179	66.834	0.035	0.035
-397.165	-108.094	0.355	-0.076
-396.150	151.240	-0.188	-0.255
-395.136	-200.000	0.023	0.107
-394.121	-194.114	0.189	0.002
-393.106	-12.564	-0.259	0.168
-392.092	582.771	-0.110	-0.269
-391.077	-186.409	-0.200	-0.003
-390.063	115.843	0.216	0.263
-389.048	367.837	0.217	0.436
-388.033	233.532	-0.119	-0.194
-387.019	-15.276	-0.174	0.111
-386.004	31.743	-0.123	-0.105
-384.990	7.408	0.173	0.129
-383.975	-172.000	-0.241	0.008
-382.960	34.971	-0.054	-0.047
-381.946	511.011	-0.148	-0.343
-380.931	81.659	0.157	-0.169
-379.917	162.929	0.107	-0.149
-378.902	-26.335	0.073	-0.043
-377.888	-155.519	-0.182	-0.012
-376.873	232.902	0.144	0.236
-375.858	-10.587	-0.273	-0.180
-374.844	-82.945	0.116	0.037
-373.829	-89.624	0.120	-0.035
-372.815	177.781	-0.133	-0.193
-371.800	-13.265	0.395	0.255
-370.785	-110.132	0.119	0.025
-369.771	38.585	-0.163	-0.145
-368.756	-8.651	0.165	0.110
-367.742	-198.948	-0.093	0.001
-366.727	284.856	0.112	0.201
-365.712	-38.096	-0.474	0.250
-364.698	-200.000	-0.059	0.366
-363.683	800.000	0.104	0.319
-362.669	329.168	0.039	-0.075
-361.654	-200.000	0.020	-0.125
-360.639	-200.000	-0.009	0.139
-359.625	162.758	-0.139	0.194
-358.610	-200.000	0.003	0.250
-357.596	-155.778	0.247	0.016
-356.581	-26.328	0.196	-0.115
-355.566	66.893	-0.104	-0.105
-354.552	-22.401	-0.220	-0.132
-353.537	-1.629	0.129	0.090
-352.523	-98.504	0.247	0.063
-351.508	-143.539	0.183	-0.017
-350.493	14.121	0.269	-0.208
-349.479	800.000	-0.039	-0.127
-348.464	24.081	-0.307	-0.251
-347.450	-200.000	0.007	-0.074
-346.435	569.413	0.022	-0.054
-345.420	47.598	0.217	-0.201
-344.406	-80.560	-0.166	0.055
-343.391	102.279	0.296	-0.344
-342.377	-29.470	0.128	0.073
-341.362	-200.000	0.027	0.147
-340.348	-46.274	0.291	0.142
-339.333	733.219	0.125	0.331
-338.318	-2.735	-0.028	0.019
-337.304	-38.302	0.122	0.064
-336.289	247.300	-0.150	0.251
-335.275	32.515	0.218	0.187
-334.260	60.210	0.143	-0.140
-333.245	-92.300	0.134	0.037
-332.231	31.662	0.072	-0.061
-331.216	-200.000	-0.009	0.108
-330.202	-60.493	0.232	0.098
-329.187	800.000	-0.091	0.258
-328.172	-117.605	-0.301	-0.054
-327.158	-50.049	0.175	-0.082
-326.143	800.000	-0.084	-0.235
-325.129	506.644	-0.088	-0.203
-324.114	258.333	0.116	-0.198
-323.099	-110.165	-0.240	-0.050
-322.085	16.328	-0.187	0.146
-321.070	-118.975	-0.157	0.027
-320.056	-200.000	-0.025	0.292
-319.041	209.341	0.030	0.046
-318.026	-200.000	-0.004	-0.036
-317.012	92.456	0.233	-0.261
-315.997	101.337	-0.333	-0.384
-314.983	-15.080	0.101	-0.064
-313.968	-19.944	0.280	0.171
-312.953	193.690	0.162	-0.243
-311.939	-22.203	-0.104	0.062
-310.924	800.000	0.084	0.275
-309.910	7.004	0.177	0.130
-308.895	78.790	0.294	-0.312
-307.880	-158.790	-0.262	-0.015
-306.866	252.424	-0.169	0.286
-305.851	-200.000	0.002	-0.073
-304.837	800.000	-0.009	-0.026
-303.822	-179.699	0.151	0.003
-302.807	-163.523	0.178	0.008
-301.793	-66.712	0.072	-0.028
-300.778	75.854	-0.363	0.380
-299.764	-200.000	-0.059	0.274
-298.749	-95.978	0.070	-0.018
-297.735	800.000	-0.045	0.168
-296.720	104.902	0.329	0.385
-295.705	-158.288	0.174	0.010
-294.691	161.323	-0.180	0.250
-293.676	14.492	0.185	-0.143
-292.662	-200.000	0.042	0.228
-291.647	-66.966	0.166	-0.065
-290.632	-16.516	0.096	-0.060
-289.618	-200.000	0.020	0.120
-288.603	-72.211	0.331	-0.122
-287.589	-200.000	-0.026	0.238
-286.574	110.686	-0.103	-0.123
-285.559	-159.396	0.314	-0.017
-284.545	-146.164	0.170	-0.015
-283.530	800.000	-0.084	0.276
-282.516	-67.849	0.210	-0.081
-281.501	106.326	-0.261	0.307
-280.486	-69.146	0.103	0.039
-279.472	302.974	0.155	-0.285
-278.457	620.580	-0.071	0.177
-277.443	-97.031	0.057	0.015
-276.428	541.012	-0.125	0.295
-275.413	433.562	0.149	0.321
-274.399	278.752	0.183	0.322
-273.384	-10.919	-0.210	-0.137
-272.370	-40.528	0.344	0.177
-271.355	7.432	-0.096	-0.071
-270.340	800.000	0.082	-0.278
-269.326	-200.000	-0.016	-0.080
-268.311	-5.743	0.229	-0.155
-267.297	102.254	0.249	0.288
-266.282	800.000	-0.051	-0.197
-265.267	-142.207	0.211	-0.021
-264.253	98.995	-0.149	-0.171
-263.238	-200.000	0.030	-0.161
-262.224	-161.476	-0.103	0.005
-261.209	237.554	0.075	0.123
-260.195	-55.332	-0.146	-0.065
-259.180	72.599	0.054	0.056
-258.165	-200.000	-0.008	-0.514
-257.151	23.453	-0.165	0.134
-256.136	95.600	0.088	0.099
-255.122	-120.772	0.092	-0.015
-254.107	681.336	-0.042	0.108
-253.092	-200.000	0.030	0.151
-252.078	-137.461	-0.429	-0.048
-251.063	54.274	-0.088	0.083
-250.049	800.000	0.091	0.266
-249.034	800.000	-0.077	-0.308
-248.019	-200.000	0.165	0.000
-247.005	126.449	0.133	-0.167
-245.990	-61.662	0.405	-0.168
-244.976	-105.363	0.300	-0.068
-243.961	-11.756	-0.286	0.186
-242.946	15.570	-0.204	0.159
-241.932	47.438	0.379	-0.349
-240.917	168.806	0.048	-0.068
-239.903	-200.000	-0.014	0.128
-238.888	-22.857	0.106	-0.063
-237.873	185.998	-0.127	0.186
-236.859	800.000	-0.047	-0.180
-235.844	43.514	-0.082	-0.074
-234.830	-34.379	-0.280	0.152
-233.815	675.243	0.062	0.159
-232.800	-28.289	0.164	-0.094
-231.786	800.000	0.033	-0.110
-230.771	800.000	0.098	-0.404
-229.757	800.000	-0.082	-0.312
-228.742	127.824	-0.131	0.165
-227.727	326.505	0.124	0.235
-226.713	-5.687	-0.146	0.099
-225.698	-200.000	0.000	-0.103
-224.684	-132.638	-0.091	0.012
-223.669	-200.000	-0.005	-0.155
-222.655	-200.000	-0.026	-0.122
-221.640	-188.326	0.174	-0.002
-220.625	-200.000	-0.002	0.111
-219.611	-200.000	-0.019	0.085
-218.596	190.490	-0.049	0.073
-217.582	713.812	-0.100	0.261
-216.567	-113.741	0.274	0.053
-215.552	58.645	0.078	-0.076
-214.538	-127.382	-0.440	-0.063
-213.523	-129.648	0.143	-0.020
-212.509	-200.000	0.006	0.232
-211.494	-126.459	-0.417	0.061
-210.479	-200.000	-0.035	0.253
-209.465	-180.004	-0.266	-0.006
-208.450	-19.237	0.306	-0.187
-207.436	146.238	0.182	0.241
-206.421	1.177	0.271	0.192
-205.406	-200.000	0.004	-0.320
-204.392	317.586	0.082	-0.153
-203.377	2.638	-0.137	0.098
-202.363	63.921	0.144	0.143
-201.348	86.920	-0.144	0.157
-200.333	248.682	-0.078	0.131
-199.319	-33.249	-0.447	0.244
-198.304	-63.994	-0.321	-0.129
-197.290	7.572	-0.145	0.107
-196.275	170.617	0.153	0.216
-195.260	137.236	0.143	0.185
-194.246	-200.000	0.047	0.411
-193.231	800.000	-0.085	0.325
-192.217	-200.000	-0.032	0.268
-191.202	44.626	-0.236	0.214
-190.187	-200.000	-0.036	0.211
-189.173	61.757	-0.301	0.296
-188.158	-28.729	-0.285	-0.162
-187.144	-159.848	-0.191	-0.010
-186.129	169.017	0.122	-0.172
-185.114	9.988	0.102	-0.076
-184.100	-200.000	0.025	0.151
-183.085	754.575	0.114	-0.303
-182.071	-164.574	-0.358	0.016
-181.056	-200.000	-0.020	-0.252
-180.042	-133.651	0.434	-0.053
-179.027	-116.862	-0.122	-0.022
-178.012	-155.450	0.284	-0.018
-176.998	-188.169	-0.042	-0.001
-175.983	367.831	0.189	0.376
-174.969	800.000	0.042	-0.148
-173.954	-121.891	0.139	0.023
-172.939	-200.000	-0.010	0.081
-171.925	-54.117	0.253	0.113
-170.910	543.224	-0.136	-0.320
-169.896	-166.355	0.058	-0.002
-168.881	-106.963	0.163	0.036
-167.866	-95.354	0.027	0.007
-166.852	-119.905	-0.276	0.047
-165.837	59.126	-0.201	0.195
-164.823	-129.128	0.115	0.016
-163.808	30.132	0.133	-0.112
-162.793	46.079	0.150	0.137
-161.779	129.792	-0.225	0.284
-160.764	-33.779	0.142	-0.077
-159.750	-91.769	0.328	-0.092
-158.735	25.598	0.268	-0.220
-157.720	9.090	0.277	0.206
-156.706	70.863	0.122	0.125
-155.691	641.158	0.042	0.105
-154.677	14.010	-0.210	-0.161
-153.662	-40.198	0.105	-0.054
-152.647	287.990	-0.042	-0.074
-151.633	-86.356	0.096	0.029
-150.618	188.754	-0.213	0.314
-149.604	80.220	-0.034	0.036
-148.589	253.835	0.068	0.114
-147.574	-112.531	0.112	0.022
-146.560	357.481	-0.115	0.225
-145.545	46.107	0.061	0.056
-144.531	81.916	0.104	0.111
-143.516	-170.714	-0.104	0.004
-142.502	408.907	-0.079	-0.165
-141.487	-72.698	0.335	0.122
-140.472	-114.939	-0.073	-0.014
-139.458	221.144	-0.057	-0.090
-138.443	-11.659	0.295	0.191
-137.429	143.321	-0.175	0.229
-136.414	645.885	0.046	-0.117
-135.399	263.883	0.051	0.087
-134.385	-160.361	0.136	0.007
-133.370	-15.780	0.117	-0.073
-132.356	261.993	0.005	-0.008
-131.341	-30.312	-0.133	-0.074
-130.326	551.348	0.057	0.135
-129.312	142.115	0.118	-0.154
-128.297	-83.653	0.350	0.110
-127.283	1.136	0.070	-0.050
-126.268	-59.472	0.065	0.028
-125.253	90.155	0.122	0.134
-124.239	-200.000	0.023	0.152
-123.224	105.860	0.099	0.115
-122.210	216.282	-0.062	0.097
-121.195	-200.000	0.002	0.051
-120.180	-200.000	0.022	0.099
-119.166	800.000	0.047	-0.179
-118.151	-126.973	0.137	-0.020
-117.137	-100.315	0.097	-0.024
-116.122	-31.837	-0.299	-0.165
-115.107	428.052	0.138	-0.294
-114.093	-69.275	0.292	0.110
-113.078	239.103	0.124	0.203
-112.064	-65.359	-0.275	-0.109
-111.049	111.940	-0.116	-0.138
-110.034	313.221	-0.132	-0.243
-109.020	614.475	0.100	-0.246
-108.005	140.865	0.154	0.200
-106.991	55.202	-0.058	0.055
-105.976	-200.000	0.015	0.085
-104.962	226.261	0.150	-0.240
-103.947	-114.927	0.236	-0.044
-102.932	154.832	-0.109	0.148
-101.918	30.295	-0.055	0.046
-100.903	24.817	-0.092	0.075
-99.889	-200.000	-0.000	0.149
-98.874	-88.595	0.198	0.058
-97.859	-185.818	-0.075	0.001
-96.845	-200.000	0.006	-0.033
-95.830	1.753	-0.191	-0.135
-94.816	-105.462	-0.207	-0.046
-93.801	-84.043	-0.169	-0.053
-92.786	-6.355	-0.080	0.054
-91.772	179.169	-0.078	0.112
-90.757	-200.000	-0.018	0.193
-89.743	-132.231	-0.341	0.043
-88.728	800.000	-0.052	-0.162
-87.713	800.000	0.114	-0.360
-86.699	108.689	0.085	-0.100
-85.684	-69.697	-0.087	0.033
-84.670	22.865	-0.092	0.074
-83.655	319.811	-0.118	0.221
-82.640	-49.633	0.132	-0.062
-81.626	-65.110	-0.026	0.010
-80.611	676.670	0.030	0.076
-79.597	-111.283	-0.057	0.011
-78.582	54.607	0.149	-0.141
-77.567	-200.000	-0.023	-0.207
-76.553	-20.823	-0.272	0.164
-75.538	59.068	0.276	0.267
-74.524	299.340	-0.052	0.095
-73.509	-200.000	0.002	-0.194
-72.494	-93.711	0.087	0.024
-71.480	-26.642	0.177	-0.102
-70.465	800.000	0.068	0.246
-69.451	-78.353	-0.229	0.077
-68.436	-71.701	-0.088	-0.032
-67.422	-200.000	-0.008	0.104
-66.407	117.554	0.233	-0.282
-65.392	0.136	0.200	0.140
-64.378	-200.000	-0.033	-0.159
-63.363	-37.133	0.223	-0.117
-62.349	56.314	0.172	0.164
-61.334	44.667	-0.873	-0.788
-60.319	535.924	0.310	0.721
-59.305	-200.000	-0.121	-1.178
-58.290	346.441	0.644	1.244
-57.276	-200.000	0.192	1.803
-56.261	-200.000	108.466	605.986
-55.246	510.042	1492.842	3407.618
-54.232	179.318	2674.192	3841.378
-53.217	109.897	2147.698	2528.897
-52.203	40.653	1597.824	1413.594
-51.188	32.975	1338.459	1138.040
-50.173	29.911	1298.022	1085.679
-49.159	53.180	1353.376	1272.108
-48.144	53.722	1368.159	1289.202
-47.130	32.991	1322.196	1124.129
-46.115	29.653	1304.607	1089.491
-45.100	29.453	1300.084	1084.493
-44.086	29.287	1297.925	1081.676
-43.071	29.349	1295.220	1079.743
-42.057	29.291	1293.048	1077.548
-41.042	29.406	1291.179	1076.621
-40.027	29.520	1289.527	1075.864
-39.013	29.371	1287.642	1073.382
-37.998	29.429	1285.722	1072.076
-36.984	29.427	1284.169	1070.726
-35.969	29.503	1282.496	1069.731
-34.954	29.501	1281.315	1068.692
-33.940	29.478	1280.468	1067.809
-32.925	29.724	1277.995	1067.123
-31.911	29.646	1276.732	1065.579
-30.896	29.630	1275.446	1064.370
-29.881	29.631	1274.015	1063.138
-28.867	29.731	1272.571	1062.466
-27.852	29.646	1271.721	1061.225
-26.838	29.669	1269.679	1059.616
-25.823	29.669	1268.351	1058.460
-24.809	29.573	1267.763	1057.379
-23.794	29.582	1266.090	1055.996
-22.779	29.565	1265.138	1055.059
-21.765	29.579	1263.873	1054.042
-20.750	29.561	1262.661	1052.890
-19.736	29.584	1261.041	1051.629
-18.721	29.456	1260.060	1050.042
-17.706	29.475	1258.786	1049.044
-16.692	29.505	1257.211	1047.861
-15.677	29.479	1256.398	1046.991
-14.663	29.447	1255.350	1045.900
-13.648	29.482	1254.369	1045.234
-12.633	29.411	1253.538	1044.101
-11.619	29.477	1253.189	1044.140
-10.604	29.474	1252.130	1043.203
-9.590	29.380	1251.145	1041.809
-8.575	29.409	1249.791	1040.801
-7.560	29.467	1248.840	1040.300
-6.546	29.471	1247.911	1039.503
-5.531	29.332	1247.339	1038.205
-4.517	29.403	1246.444	1037.816
-3.502	29.395	1245.873	1037.259
-2.487	29.492	1244.586	1036.685
-1.473	29.460	1240.078	1032.714
-0.458	27.773	1225.394	1011.106
0.556	25.760	1207.704	972.267
1.571	22.015	1212.347	955.580
2.586	20.907	1226.800	960.780
3.600	20.607	1215.092	949.887
4.615	15.883	1144.204	870.038
5.629	7.809	1071.408	775.395
6.644	4.098	1052.559	743.890
7.659	3.738	1050.338	740.533
8.673	3.576	1048.394	738.321
9.688	3.629	1047.150	737.633
10.702	4.015	1045.561	738.290
11.717	9.210	1052.708	768.160
12.731	17.594	1064.486	817.059
13.746	22.620	1070.338	845.653
14.761	23.396	1071.631	850.324
15.775	22.744	1069.824	845.694
16.790	21.958	1068.396	840.726
17.804	21.571	1066.872	837.598
18.819	21.423	1066.010	836.142
19.834	21.581	1065.334	836.292
20.848	21.534	1065.439	836.074
21.863	21.435	1064.411	834.721
22.877	21.106	1063.919	832.695
23.892	21.052	1063.075	831.702
24.907	21.181	1061.928	831.345
25.921	20.990	1060.952	829.598
26.936	20.967	1059.730	828.462
27.950	21.012	1058.346	827.517
28.965	20.976	1057.232	826.403
29.980	21.326	1055.393	826.548
30.994	21.430	1054.788	826.492
32.009	21.438	1053.860	825.733
33.023	21.343	1053.150	824.655
34.038	21.296	1051.908	823.388
35.053	21.093	1051.438	821.987
36.067	21.045	1050.313	820.809
37.082	21.089	1049.691	820.458
38.096	21.279	1049.102	820.820
39.111	21.322	1048.219	820.257
40.126	21.087	1046.657	817.859
41.140	20.683	1045.203	814.762
42.155	20.657	1043.429	813.186
43.169	20.442	1042.636	811.491
44.184	20.557	1041.519	811.087
45.199	20.651	1040.760	810.864
46.213	20.816	1040.160	811.091
47.228	21.145	1039.721	812.206
48.242	21.182	1039.510	812.144
49.257	21.108	1038.490	810.932
50.271	21.324	1037.724	811.264
51.286	21.400	1037.151	811.099
52.301	21.245	1036.288	809.630
53.315	21.159	1034.587	807.831
54.330	20.915	1033.547	805.820
55.344	20.871	1032.622	804.826
56.359	20.795	1032.093	803.991
57.374	20.713	1031.046	802.727
58.388	20.584	1030.173	801.379
59.403	20.534	1029.300	800.402
60.417	20.578	1028.593	799.982
61.432	20.500	1028.052	799.134
62.447	20.411	1027.021	797.852
63.461	20.419	1026.313	797.269
64.476	20.309	1025.208	795.832
65.490	20.271	1024.633	795.143
66.505	20.377	1023.522	794.695
67.520	20.498	1023.086	794.839
68.534	20.296	1022.232	793.183
69.549	20.183	1021.485	792.017
70.563	20.037	1020.814	790.762
71.578	19.949	1019.935	789.611
72.593	19.773	1018.690	787.774
73.607	19.835	1018.325	787.705
74.622	19.928	1018.242	787.994
75.636	20.081	1017.052	787.698
76.651	20.063	1016.685	787.264
77.666	19.998	1016.054	786.409
78.680	20.008	1015.482	785.944
79.695	20.150	1014.814	785.998
80.709	20.425	1014.019	786.562
81.724	20.497	1013.621	786.508
82.739	20.729	1012.670	786.750
83.753	21.158	1012.471	788.463
84.768	21.526	1011.942	789.640
85.782	21.606	1012.122	790.071
86.797	21.603	1010.736	788.907
87.812	21.365	1009.404	786.726
88.826	21.528	1008.244	786.489
89.841	21.585	1007.500	786.094
90.855	21.596	1006.757	785.491
91.870	21.498	1006.367	784.679
92.884	21.607	1005.002	784.035
93.899	21.548	1003.947	782.876
94.914	21.570	1003.604	782.640
95.928	21.476	1002.822	781.540
96.943	21.347	1001.608	779.947
97.957	21.235	1000.817	778.764
98.972	21.349	999.875	778.472
99.987	21.306	999.349	777.803
101.001	21.207	997.984	776.229
102.016	21.265	996.909	775.580
103.030	21.512	996.317	776.151
104.045	21.460	995.621	775.309
105.060	21.199	994.357	773.101
106.074	21.001	993.329	771.355
107.089	20.893	991.815	769.636
108.103	20.557	990.873	767.354
109.118	20.372	989.648	765.520
110.133	20.291	988.629	764.310
111.147	20.201	987.875	763.263
112.162	20.326	987.401	763.380
113.176	20.522	986.822	763.724
114.191	20.540	986.309	763.339
115.206	20.471	985.302	762.189
116.220	20.513	984.155	761.418
117.235	20.421	983.603	760.522
118.249	20.418	982.445	759.544
119.264	20.199	981.968	758.151
120.279	20.170	981.232	757.389
121.293	20.094	979.681	755.795
122.308	19.936	979.207	754.674
123.322	19.797	978.081	753.133
124.337	19.882	976.661	752.342
125.352	19.827	976.054	751.571
126.366	19.782	975.456	750.845
127.381	19.985	974.340	750.803
128.395	19.996	973.641	750.246
129.410	19.975	973.327	749.847
130.424	20.233	972.395	750.177
131.439	20.497	971.629	750.662
132.454	20.486	971.062	750.110
133.468	20.451	969.892	748.989
134.483	20.564	968.841	748.597
135.497	20.578	968.275	748.151
136.512	20.553	967.501	747.383
137.527	20.581	966.489	746.654
138.541	20.664	965.801	746.411
139.556	20.705	965.467	746.266
140.570	21.010	965.085	747.208
141.585	21.210	964.658	747.668
142.600	21.308	963.358	747.014
143.614	21.429	962.595	746.875
144.629	21.534	962.210	746.958
145.643	21.303	960.596	744.653
146.658	21.085	959.504	742.813
147.673	20.926	958.432	741.240
148.687	20.590	957.197	738.794
149.702	20.567	955.914	737.641
150.716	20.600	955.289	737.232
151.731	20.794	954.492	737.373
152.746	20.771	953.938	736.784
153.760	20.768	953.439	736.319
154.775	21.008	952.812	736.783
155.789	21.082	952.227	736.578
156.804	21.145	951.006	735.834
157.819	21.190	950.748	735.762
158.833	21.299	950.485	735.950
159.848	21.545	949.671	736.292
160.862	21.249	948.392	733.988
161.877	20.842	946.809	730.990
162.892	20.524	945.606	728.665
163.906	20.547	944.503	727.846
164.921	20.597	944.021	727.624
165.935	20.584	943.410	727.031
166.950	20.666	942.539	726.637
167.964	20.843	941.553	726.552
168.979	20.681	940.633	725.103
169.994	20.630	939.538	723.984
171.008	20.864	939.196	724.627
172.023	21.155	939.184	725.766
173.037	21.313	938.382	725.738
174.052	21.137	936.910	723.804
175.067	20.633	936.053	720.990
176.081	20.391	935.376	719.402
177.096	20.365	934.727	718.734
178.110	20.691	933.709	719.232
179.125	20.606	933.454	718.624
180.140	20.725	933.180	718.839
181.154	20.942	933.294	719.758
182.169	21.178	933.226	720.617
183.183	21.219	932.074	719.834
184.198	21.087	931.785	719.005
185.213	21.158	931.015	718.637
186.227	21.099	930.463	717.904
187.242	21.216	930.083	718.029
188.256	21.487	929.555	718.674
189.271	21.525	928.252	717.758
190.286	21.011	927.556	715.046
191.300	20.497	926.102	711.758
192.315	20.213	925.231	709.866
193.329	20.286	924.861	709.818
194.344	20.558	924.631	710.688
195.359	20.798	923.647	710.850
196.373	20.980	923.594	711.490
197.388	21.078	923.494	711.750
198.402	21.475	923.265	713.128
199.417	21.651	922.874	713.482
200.432	21.850	922.028	713.572
201.446	21.980	921.908	713.944
202.461	22.031	921.302	713.618
203.475	21.556	920.812	711.249
204.490	21.353	918.875	708.867
205.504	21.228	918.352	707.893
206.519	21.230	917.381	707.090
207.534	21.217	917.145	706.793
208.548	21.211	916.749	706.400
209.563	21.235	915.921	705.797
210.577	21.292	915.148	705.369
211.592	21.554	915.033	706.277
212.607	21.871	914.193	706.844
213.621	21.538	913.573	704.958
214.636	21.464	912.642	703.879
215.650	21.507	912.106	703.579
216.665	21.562	911.354	703.155
217.680	21.714	911.382	703.726
218.694	21.848	910.334	703.393
219.709	21.621	909.913	702.095
220.723	21.459	909.398	700.987
221.738	21.357	908.375	699.726
222.753	21.466	907.729	699.602
223.767	21.640	907.258	699.873
224.782	21.882	906.494	700.190
225.796	21.824	906.292	699.739
226.811	21.705	905.567	698.645
227.826	21.350	904.520	696.361
228.840	21.251	903.915	695.438
229.855	21.415	902.804	695.173
230.869	21.297	902.048	694.061
231.884	21.279	901.440	693.463
232.899	21.179	900.869	692.563
233.913	20.963	900.117	691.068
234.928	20.859	899.540	690.150
235.942	20.784	898.496	688.993
236.957	20.914	898.093	689.139
237.972	20.700	897.613	687.864
238.986	20.992	896.700	688.253
240.001	20.875	896.370	687.481
241.015	21.103	895.932	687.981
242.030	21.195	895.414	687.883
243.045	21.168	894.870	687.298
244.059	21.224	894.301	687.022
245.074	21.334	893.756	686.975
246.088	21.554	893.164	687.321
247.103	21.893	892.832	688.337
248.117	22.050	892.619	688.729
249.132	22.504	892.672	690.486
250.147	22.630	892.307	690.638
251.161	22.637	891.884	690.277
252.176	22.610	891.268	689.634
253.190	22.917	890.278	690.006
254.205	22.815	889.707	689.105
255.220	22.672	889.135	688.042
256.234	22.481	888.724	686.919
257.249	22.573	887.988	686.647
258.263	22.542	886.989	685.695
259.278	22.407	886.304	684.578
260.293	22.710	885.609	685.158
261.307	22.673	885.739	685.053
262.322	22.681	884.931	684.400
263.336	22.706	883.964	683.690
264.351	22.622	883.095	682.631
265.366	22.547	883.065	682.256
266.380	22.635	882.315	681.957
267.395	22.517	881.533	680.838
268.409	22.280	880.859	679.341
269.424	22.447	879.624	678.973
270.439	22.494	879.064	678.659
271.453	22.202	878.293	676.880
272.468	22.084	878.401	676.449
273.482	22.204	877.345	676.036
274.497	22.214	876.532	675.390
275.512	22.171	875.980	674.741
276.526	22.377	875.495	675.099
277.541	22.339	875.075	674.568
278.555	22.602	875.182	675.599
279.570	22.751	875.108	676.055
280.585	22.737	873.587	674.766
281.599	22.493	872.635	673.038
282.614	22.206	871.693	671.156
283.628	22.138	871.421	670.627
284.643	22.235	870.606	670.312
285.657	22.325	870.177	670.263
286.672	22.198	869.815	669.442
287.687	22.412	868.666	669.311
288.701	22.352	868.365	668.792
289.716	22.415	867.744	668.494
290.730	22.426	867.425	668.231
291.745	22.544	866.867	668.191
292.760	22.590	866.230	667.814
293.774	22.906	865.867	668.672
294.789	22.787	864.890	667.407
295.803	22.404	864.549	665.637
296.818	22.391	863.514	664.734
297.833	22.318	862.287	663.455
298.847	22.264	862.273	663.180
299.862	22.522	861.691	663.649
300.876	22.687	861.216	663.843
301.891	23.000	861.038	664.827
302.906	23.048	860.626	664.630
303.920	23.282	860.039	664.995
304.935	23.308	859.866	664.902
305.949	22.952	859.120	662.929
306.964	22.801	858.284	661.661
307.979	22.821	857.500	661.071
308.993	22.869	857.107	660.891
310.008	22.996	856.107	660.535
311.022	22.847	855.966	659.812
312.037	22.688	854.630	658.129
313.052	22.406	854.238	656.719
314.066	22.100	853.585	655.018
315.081	22.320	852.832	655.201
316.095	22.255	852.465	654.619
317.110	22.087	851.941	653.533
318.125	22.086	851.640	653.241
319.139	22.062	851.018	652.616
320.154	22.066	850.746	652.367
321.168	22.191	850.419	652.521
322.183	22.231	849.650	652.021
323.197	22.519	848.917	652.469
324.212	22.410	848.056	651.347
325.227	22.386	847.717	650.939
326.241	22.316	847.034	650.098
327.256	22.164	846.332	648.940
328.270	22.150	845.712	648.354
329.285	22.125	845.129	647.760
330.300	22.146	844.418	647.236
331.314	22.163	844.365	647.200
332.329	22.745	844.111	649.089
333.343	22.766	843.733	648.818
334.358	22.690	843.566	648.354
335.373	22.684	842.943	647.795
336.387	22.873	842.900	648.399
337.402	22.943	842.955	648.641
338.416	23.205	842.637	649.301
339.431	23.344	842.457	649.613
340.446	23.400	841.909	649.338
341.460	23.446	841.691	649.281
342.475	23.501	841.362	649.170
343.489	23.499	841.174	648.962
344.504	23.666	840.556	649.036
345.519	23.755	840.345	649.142
346.533	23.523	839.701	647.739
347.548	23.241	838.449	645.688
348.562	22.920	837.587	643.798
349.577	22.842	836.898	642.927
350.592	22.747	836.041	641.867
351.606	22.689	835.529	641.205
352.621	22.669	834.881	640.579
353.635	22.909	834.154	640.837
354.650	22.845	833.522	640.060
355.665	22.922	833.203	640.041
356.679	23.042	832.709	640.038
357.694	23.073	831.834	639.421
358.708	22.914	831.064	638.198
359.723	22.829	831.183	637.926
360.738	22.994	829.931	637.504
361.752	23.055	829.748	637.528
362.767	23.392	829.517	638.508
363.781	23.742	828.818	639.172
364.796	23.711	828.979	639.129
365.810	23.959	828.335	639.465
366.825	23.892	828.045	638.946
367.840	23.801	827.427	638.085
368.854	23.521	826.867	636.590
369.869	23.325	826.583	635.613
370.883	23.466	826.080	635.678
371.898	23.623	825.786	635.956
372.913	23.789	825.035	635.916
373.927	23.535	824.558	634.584
374.942	23.589	824.376	634.581
375.956	23.902	823.466	634.941
376.971	23.954	823.270	634.919
377.986	23.987	823.158	634.894
379.000	24.014	822.554	634.471
380.015	23.955	821.600	633.468
381.029	23.881	821.165	632.812
382.044	23.948	820.919	632.806
383.059	24.014	819.974	632.255
384.073	23.831	819.449	631.144
385.088	23.508	818.468	629.186
386.102	23.410	817.826	628.291
387.117	23.284	816.971	627.133
388.132	23.335	816.651	627.012
389.146	23.463	815.928	626.853
390.161	23.767	815.908	627.857
391.175	23.808	815.799	627.864
392.190	23.685	814.625	626.471
393.205	23.384	814.417	625.191
394.219	23.399	813.551	624.527
395.234	23.170	813.293	623.464
396.248	23.232	812.505	623.023
397.263	23.200	811.923	622.411
398.278	22.861	812.038	621.250
399.292	23.006	811.107	620.994
400.307	22.979	810.636	620.485
401.321	23.041	810.423	620.484
402.336	23.229	810.179	620.899
403.350	23.504	809.943	621.627
404.365	23.724	809.627	622.102
405.380	24.042	809.600	623.140
406.394	24.274	808.624	623.144
407.409	24.380	807.965	622.952
408.423	24.531	808.515	623.846
409.438	24.482	807.771	623.047
410.453	24.339	807.635	622.389
411.467	24.285	807.222	621.825
412.482	24.454	806.790	622.027
413.496	24.497	806.404	621.823
414.511	24.675	805.553	621.733
415.526	24.368	805.239	620.368
416.540	24.525	804.481	620.273
417.555	24.215	804.403	619.084
418.569	24.256	803.990	618.851
419.584	24.413	803.065	618.632
420.599	24.287	803.058	618.132
421.613	163.275	1371.410	1795.595
422.628	141.924	1454.223	1795.695
