DTS Sentinel unit serial number:	SN413079Multiplexer serial number:	ORYXHardware model number:	OX4-SRSoftware version number:	ORYX F/W v4.00 Oryx Data Collector v3.7.2.0data status	okinstallation	princeton_trtdifferential loss correction	single-endedforward channel	channel 1reverse channel	N/Adate	2019/09/12time	19:00:34forward acquisition time	15.00reverse acquisition time	0.00gamma	496.2192k internal	0.2320k external	0.2320temperature offset calibration	1.0105default loss term (dB/km)	0.3790temperature slope calibration	1.0000multiplexer offset coefficient	1.0000multiplexer slope coefficient	1.0000fibre end	0.00T internal ref (°C)	32.75T ext. ref 1 (°C)	2.99T ext. ref 2 (°C)	27.31length (m)	temperature (°C)	Stokes	anti-Stokes-747.200	800.000	-0.193	0.558
-746.185	-71.454	-0.984	0.372
-745.171	-84.375	-0.267	-0.085
-744.156	-200.000	0.099	0.527
-743.142	212.678	0.129	-0.206
-742.127	-112.367	-0.563	0.114
-741.112	224.598	0.446	-0.730
-740.098	511.243	-0.257	-0.604
-739.083	84.469	0.377	0.417
-738.069	75.675	0.082	-0.087
-737.054	-142.053	-0.547	-0.055
-736.039	-200.000	0.292	1.408
-735.025	549.483	0.530	1.285
-734.010	-97.450	0.386	0.101
-732.996	800.000	-0.377	1.060
-731.981	800.000	-0.144	0.540
-730.966	-200.000	-0.081	0.620
-729.952	-17.209	0.103	0.066
-728.937	64.939	0.270	0.276
-727.923	-140.819	-0.158	0.016
-726.908	-185.511	0.349	0.005
-725.894	800.000	-0.162	-0.627
-724.879	-99.529	-0.538	-0.137
-723.864	126.438	0.350	0.448
-722.850	10.823	-0.520	0.401
-721.835	-150.062	0.414	-0.033
-720.821	-142.749	-0.675	-0.067
-719.806	114.821	-0.255	-0.315
-718.791	-200.000	0.001	-0.217
-717.777	-90.844	-0.878	-0.256
-716.762	-200.000	-0.064	-0.526
-715.748	-200.000	0.062	-0.374
-714.733	17.610	-0.509	0.408
-713.718	375.555	0.329	-0.678
-712.704	-108.740	-0.146	0.032
-711.689	-200.000	-0.064	0.547
-710.675	800.000	0.265	0.874
-709.660	4.723	-0.233	-0.173
-708.645	227.018	-0.373	0.613
-707.631	-41.571	0.218	-0.113
-706.616	800.000	0.204	-0.669
-705.602	328.244	0.279	-0.541
-704.587	-130.725	0.921	-0.125
-703.572	12.476	-0.345	0.269
-702.558	156.868	-0.228	0.318
-701.543	-22.044	-0.523	-0.321
-700.529	800.000	0.227	-0.837
-699.514	29.668	0.163	0.140
-698.499	-3.581	0.674	0.473
-697.485	-154.127	-0.655	0.045
-696.470	-200.000	-0.161	1.451
-695.456	800.000	-0.120	-0.347
-694.441	800.000	0.274	-0.928
-693.426	-81.324	0.810	-0.270
-692.412	-25.244	-0.271	-0.162
-691.397	602.515	0.521	1.307
-690.383	-48.601	1.585	-0.769
-689.368	197.468	-0.213	-0.329
-688.354	479.539	-0.450	1.030
-687.339	-22.564	-0.244	-0.149
-686.324	37.921	-0.197	-0.177
-685.310	94.530	0.341	-0.391
-684.295	11.312	-0.373	-0.288
-683.281	-200.000	-0.031	-0.896
-682.266	34.273	-0.248	0.218
-681.251	70.955	0.583	0.609
-680.237	-200.000	0.039	-0.209
-679.222	-55.698	0.328	-0.148
-678.208	123.297	0.118	0.149
-677.193	25.745	0.361	-0.303
-676.178	-3.782	-0.166	0.116
-675.164	-200.000	0.013	0.271
-674.149	800.000	-0.221	0.670
-673.135	-200.000	0.126	-0.777
-672.120	119.216	-0.483	-0.603
-671.105	-118.320	-0.396	0.071
-670.091	298.338	0.180	0.333
-669.076	195.178	-0.299	0.457
-668.062	516.990	0.327	-0.770
-667.047	186.847	0.225	0.339
-666.032	-200.000	0.237	1.227
-665.018	-152.744	0.463	-0.033
-664.003	619.199	-0.377	0.955
-662.989	-34.028	0.643	0.357
-661.974	-49.312	0.549	-0.264
-660.959	800.000	-0.155	0.638
-659.945	14.492	-0.341	-0.268
-658.930	800.000	-0.026	0.092
-657.916	58.682	0.612	0.606
-656.901	-144.016	-0.522	0.049
-655.886	-46.214	0.147	-0.073
-654.872	-0.380	0.228	0.163
-653.857	3.095	0.393	0.288
-652.843	7.451	-0.753	-0.567
-651.828	800.000	0.140	0.526
-650.814	70.555	0.142	0.147
-649.799	-114.540	0.694	0.134
-648.784	-200.000	0.017	-0.221
-647.770	-200.000	-0.013	-0.060
-646.755	800.000	0.050	-0.207
-645.741	800.000	0.343	-1.165
-644.726	251.176	-0.441	0.756
-643.711	800.000	-0.190	0.567
-642.697	-77.234	-0.261	0.091
-641.682	-78.274	-0.582	-0.201
-640.668	-28.578	0.759	-0.441
-639.653	281.026	-0.052	0.094
-638.638	162.070	0.272	0.384
-637.624	59.928	-0.558	-0.555
-636.609	-88.871	0.222	0.066
-635.595	-200.000	0.182	-0.000
-634.580	8.476	0.588	0.446
-633.565	-200.000	0.058	-0.968
-632.551	800.000	-0.025	-0.079
-631.536	44.311	-0.232	-0.215
-630.522	24.862	-0.277	-0.231
-629.507	-200.000	-0.051	0.780
-628.492	115.015	0.224	0.275
-627.478	-165.979	-0.777	0.033
-626.463	-29.265	-0.350	-0.202
-625.449	-85.043	0.446	0.141
-624.434	252.387	0.381	-0.654
-623.419	219.069	-0.061	0.098
-622.405	205.029	-0.282	-0.440
-621.390	-28.734	-0.375	0.217
-620.376	397.312	-0.115	0.241
-619.361	26.239	-0.626	0.526
-618.346	-137.822	1.121	-0.126
-617.332	98.011	-0.285	-0.330
-616.317	-157.247	-0.769	-0.047
-615.303	232.635	-0.299	-0.495
-614.288	-76.134	0.484	-0.172
-613.273	-106.556	-0.334	-0.075
-612.259	-194.405	-0.934	0.008
-611.244	-200.000	0.032	0.427
-610.230	-45.797	-0.511	0.254
-609.215	-8.562	0.523	0.353
-608.201	-125.025	-0.413	-0.064
-607.186	162.722	-0.273	-0.385
-606.171	-64.787	0.377	0.154
-605.157	-162.372	0.716	0.036
-604.142	155.167	0.045	0.062
-603.128	800.000	-0.124	0.371
-602.113	382.649	-0.476	-0.985
-601.098	-34.125	0.630	-0.348
-600.084	129.023	-0.079	0.101
-599.069	-200.000	0.126	0.556
-598.055	488.823	0.547	1.258
-597.040	207.284	-0.180	0.282
-596.025	-48.496	-0.479	-0.232
-595.011	89.097	0.342	0.383
-593.996	8.463	0.063	-0.047
-592.982	-5.922	0.990	-0.681
-591.967	-34.852	-0.595	0.327
-590.952	800.000	-0.173	-0.551
-589.938	-54.682	0.669	0.304
-588.923	800.000	0.029	0.098
-587.909	-200.000	0.063	-0.678
-586.894	15.076	-0.430	0.339
-585.879	384.072	0.119	-0.247
-584.865	-54.016	0.738	0.338
-583.850	-95.390	0.745	-0.201
-582.836	-37.942	-0.238	0.127
-581.821	-196.947	-0.548	-0.004
-580.806	-200.000	-0.013	-0.075
-579.792	-84.185	0.911	0.290
-578.777	-158.515	1.002	0.058
-577.763	-101.671	-0.791	-0.193
-576.748	-38.323	-0.732	0.389
-575.733	232.004	-0.696	-1.148
-574.719	800.000	0.164	0.494
-573.704	31.058	0.576	0.497
-572.690	-84.648	0.634	0.201
-571.675	-136.840	-0.253	-0.029
-570.661	-119.301	0.480	0.084
-569.646	-103.943	0.382	0.089
-568.631	266.174	-0.307	-0.538
-567.617	-111.795	0.290	0.059
-566.602	800.000	0.051	0.201
-565.588	-56.213	0.578	-0.258
-564.573	86.115	0.146	-0.161
-563.558	269.397	0.487	-0.858
-562.544	800.000	0.110	-0.470
-561.529	-61.027	0.581	-0.246
-560.515	-49.864	0.643	-0.307
-559.500	-163.830	0.574	-0.027
-558.485	-24.850	0.393	0.234
-557.471	-200.000	-0.054	-0.696
-556.456	47.189	0.374	-0.349
-555.442	-54.177	-0.469	-0.214
-554.427	-148.627	0.621	0.051
-553.412	431.127	0.513	-1.115
-552.398	-31.706	-0.381	-0.215
-551.383	-168.210	-0.383	0.015
-550.369	5.561	-0.551	-0.408
-549.354	800.000	0.123	0.502
-548.339	455.111	0.182	0.405
-547.325	0.522	-0.602	-0.432
-546.310	35.721	0.143	0.126
-545.296	-124.676	0.522	0.081
-544.281	-86.614	0.391	-0.120
-543.266	-200.000	-0.020	0.595
-542.252	271.438	0.465	0.822
-541.237	-40.239	-0.633	-0.331
-540.223	-171.346	0.649	-0.022
-539.208	481.606	-0.180	0.410
-538.193	-200.000	-0.014	-0.287
-537.179	141.302	-0.438	0.582
-536.164	238.955	-0.112	-0.187
-535.150	-19.288	0.598	0.372
-534.135	-137.638	-1.300	-0.147
-533.121	-50.955	-0.179	0.084
-532.106	374.417	-0.109	0.223
-531.091	52.358	1.029	0.985
-530.077	68.717	-0.606	0.624
-529.062	42.636	-0.685	-0.626
-528.048	175.982	-0.302	-0.440
-527.033	-200.000	-0.039	0.211
-526.018	-93.180	-0.122	-0.034
-525.004	-91.829	0.785	-0.224
-523.989	-104.393	-0.297	0.069
-522.975	-200.000	-0.059	0.380
-521.960	0.794	-0.649	-0.466
-520.945	-200.000	0.099	-0.496
-519.931	243.090	-0.224	-0.376
-518.916	-200.000	-0.035	0.563
-517.902	71.063	0.301	-0.313
-516.887	-200.000	-0.003	-0.461
-515.872	-200.000	0.032	-0.806
-514.858	800.000	0.066	-0.285
-513.843	28.593	0.293	0.249
-512.829	78.359	0.096	0.103
-511.814	-4.108	0.176	-0.123
-510.799	232.502	0.576	-0.948
-509.785	20.395	-0.323	-0.261
-508.770	-82.646	-0.464	0.150
-507.756	13.477	-0.676	-0.525
-506.741	538.478	0.529	-1.260
-505.726	-82.258	-0.576	-0.188
-504.712	44.895	-0.528	0.487
-503.697	-83.283	-0.325	0.104
-502.683	-24.869	0.151	-0.090
-501.668	-138.993	-0.727	0.079
-500.653	-14.265	-0.753	0.486
-499.639	-75.446	-0.663	-0.237
-498.624	-200.000	0.027	0.295
-497.610	-35.598	0.614	0.334
-496.595	800.000	0.117	0.448
-495.581	5.048	0.407	-0.300
-494.566	-157.431	-0.396	-0.024
-493.551	-40.865	-0.897	0.465
-492.537	123.705	-0.093	-0.117
-491.522	245.750	0.298	-0.503
-490.508	-141.478	0.526	0.053
-489.493	-200.000	-0.060	-0.879
-488.478	11.497	-0.323	0.248
-487.464	173.473	0.330	-0.477
-486.449	-200.000	-0.054	-0.532
-485.435	142.439	0.422	-0.560
-484.420	-1.213	0.379	-0.268
-483.405	-200.000	-0.098	0.754
-482.391	-32.516	0.544	0.303
-481.376	194.634	0.175	0.266
-480.362	-63.230	-0.633	0.261
-479.347	-200.000	-0.015	-0.901
-478.332	105.462	0.593	-0.702
-477.318	-200.000	-0.031	0.620
-476.303	21.460	-0.560	-0.456
-475.289	340.460	-0.320	0.626
-474.274	17.291	-0.313	0.248
-473.259	608.886	0.251	0.627
-472.245	337.348	-0.310	0.603
-471.230	22.455	-0.547	-0.448
-470.216	47.582	-0.297	0.277
-469.201	-200.000	0.069	0.642
-468.186	-149.017	0.744	0.060
-467.172	-148.863	-0.168	0.014
-466.157	12.329	-0.620	-0.478
-465.143	-200.000	-0.101	-0.950
-464.128	800.000	-0.153	-0.435
-463.113	71.872	0.490	-0.510
-462.099	800.000	-0.051	0.155
-461.084	108.769	0.602	0.720
-460.070	-200.000	-0.003	0.260
-459.055	72.620	0.644	0.672
-458.040	-91.968	-1.370	0.388
-457.026	-58.136	1.167	0.509
-456.011	-200.000	-0.017	0.510
-454.997	-6.552	0.093	0.063
-453.982	-111.083	0.478	-0.098
-452.968	107.918	0.100	-0.120
-451.953	-52.473	-0.548	0.253
-450.938	-200.000	0.144	0.712
-449.924	-63.380	-0.263	-0.108
-448.909	-98.751	-0.099	0.025
-447.895	344.432	-0.180	-0.354
-446.880	-200.000	0.056	0.435
-445.865	69.341	-0.278	-0.285
-444.851	-2.986	0.663	-0.463
-443.836	96.411	0.124	0.142
-442.822	-11.280	0.338	0.223
-441.807	-115.565	0.441	-0.083
-440.792	56.927	-0.546	-0.532
-439.778	227.439	0.287	0.466
-438.763	-51.944	-0.506	-0.235
-437.749	-200.000	0.035	0.663
-436.734	-118.357	0.637	0.113
-435.719	-200.000	0.307	0.001
-434.705	-177.427	0.668	0.016
-433.690	256.206	-0.112	0.191
-432.676	68.001	-0.270	-0.276
-431.661	26.486	-1.020	0.852
-430.646	119.905	0.563	-0.697
-429.632	-200.000	-0.115	-0.944
-428.617	130.842	-0.337	0.431
-427.603	54.858	-0.261	0.252
-426.588	158.230	0.453	0.628
-425.573	-31.358	-0.509	-0.286
-424.559	-113.166	0.306	0.060
-423.544	51.294	0.436	-0.413
-422.530	39.162	-0.401	-0.358
-421.515	9.472	-0.671	0.507
-420.500	-59.057	0.268	0.116
-419.486	313.229	0.266	0.500
-418.471	-6.088	0.322	-0.220
-417.457	800.000	0.079	-0.233
-416.442	-27.585	-0.308	0.178
-415.428	-200.000	-0.039	0.381
-414.413	-97.615	0.635	-0.165
-413.398	-200.000	0.043	-0.271
-412.384	267.415	-0.337	0.588
-411.369	-100.586	0.926	0.228
-410.355	37.707	0.309	0.273
-409.340	-25.568	0.533	-0.314
-408.325	-127.330	-0.234	0.034
-407.311	312.493	0.384	-0.719
-406.296	129.939	-0.654	0.835
-405.282	-200.000	-0.118	-0.699
-404.267	242.916	-0.290	-0.484
-403.252	-76.945	0.665	-0.232
-402.238	-98.899	0.238	0.060
-401.223	37.938	-0.490	0.435
-400.209	61.903	0.457	-0.454
-399.194	222.868	-0.282	0.454
-398.179	67.227	-0.572	-0.582
-397.165	383.062	-0.441	0.904
-396.150	800.000	0.079	-0.283
-395.136	-49.894	-0.621	0.294
-394.121	47.694	-0.338	0.314
-393.106	-101.051	1.057	0.258
-392.092	33.871	-0.116	0.101
-391.077	423.735	-0.035	-0.075
-390.063	-10.418	0.666	0.440
-389.048	302.094	0.077	-0.143
-388.033	-68.455	-0.199	0.077
-387.019	197.244	-0.168	-0.256
-386.004	-8.444	-0.681	-0.457
-384.990	-41.727	-0.190	0.097
-383.975	-30.630	-0.829	-0.468
-382.960	-85.574	0.482	-0.149
-381.946	-10.931	-0.144	0.095
-380.931	-113.194	-0.017	0.003
-379.917	186.126	-0.078	0.116
-378.902	-1.484	-0.674	0.474
-377.888	-87.932	1.186	0.356
-376.873	54.529	-0.168	0.161
-375.858	1.004	-0.359	-0.257
-374.844	93.372	-0.681	0.768
-373.829	127.154	-0.068	0.085
-372.815	-2.857	-0.215	-0.150
-371.800	19.628	-0.252	-0.202
-370.785	-29.214	-0.299	-0.171
-369.771	-5.128	0.645	0.442
-368.756	92.441	0.224	0.251
-367.742	-99.405	-0.233	-0.059
-366.727	82.051	-0.154	0.167
-365.712	126.253	0.228	0.288
-364.698	290.899	0.108	-0.196
-363.683	6.975	0.299	0.222
-362.669	36.623	0.132	-0.116
-361.654	719.788	0.022	0.057
-360.639	-8.158	-0.342	0.229
-359.625	800.000	-0.204	0.795
-358.610	-200.000	-0.088	-0.620
-357.596	-3.148	0.330	-0.229
-356.581	-52.103	-0.354	0.164
-355.566	-60.498	-0.568	-0.241
-354.552	-80.237	-0.371	0.124
-353.537	-74.015	0.592	0.214
-352.523	324.909	-0.132	-0.252
-351.508	54.615	-0.239	0.230
-350.493	800.000	0.024	0.095
-349.479	273.708	0.116	0.204
-348.464	182.046	0.368	0.539
-347.450	-194.368	0.684	0.005
-346.435	-167.689	-0.380	0.015
-345.420	800.000	-0.084	-0.297
-344.406	-124.477	0.531	-0.082
-343.391	141.653	-0.086	0.113
-342.377	205.466	0.590	-0.913
-341.362	269.426	0.252	0.441
-340.348	-38.918	-0.724	0.379
-339.333	800.000	0.377	1.114
-338.318	800.000	-0.294	0.831
-337.304	-200.000	-0.064	-0.317
-336.289	-42.201	-0.150	-0.076
-335.275	102.261	-0.074	0.086
-334.260	261.725	-0.172	-0.297
-333.245	8.226	0.298	-0.223
-332.231	-83.996	0.262	0.083
-331.216	-87.479	0.329	0.099
-330.202	662.150	-0.050	0.128
-329.187	-200.000	0.055	0.530
-328.172	779.887	0.234	0.636
-327.158	-16.185	0.153	0.097
-326.143	140.189	-0.397	0.521
-325.129	-200.000	0.076	0.591
-324.114	4.075	-0.490	-0.357
-323.099	209.571	-0.335	-0.522
-322.085	123.811	0.310	0.388
-321.070	63.392	0.190	0.189
-320.056	-200.000	0.065	-0.377
-319.041	-115.538	0.061	0.011
-318.026	-200.000	-0.102	0.540
-317.012	-200.000	0.075	0.486
-315.997	54.765	-0.654	-0.628
-314.983	800.000	-0.306	1.313
-313.968	-164.753	0.142	-0.006
-312.953	-200.000	0.086	0.868
-311.939	-85.291	0.475	0.148
-310.924	-159.819	0.058	-0.003
-309.910	-28.325	0.927	0.532
-308.895	-200.000	0.003	0.693
-307.880	224.177	-0.290	-0.465
-306.866	-121.994	-0.188	-0.031
-305.851	209.719	0.318	0.496
-304.837	-156.915	0.104	-0.006
-303.822	-43.852	-0.146	0.073
-302.807	-163.169	-0.254	0.012
-301.793	800.000	-0.195	0.669
-300.778	109.431	-0.254	-0.302
-299.764	91.764	0.733	0.819
-298.749	-59.874	-0.858	0.365
-297.735	273.559	0.241	-0.424
-296.720	3.869	-0.329	-0.239
-295.705	35.507	0.547	0.478
-294.691	-200.000	0.014	-0.410
-293.676	800.000	0.201	0.740
-292.662	18.020	-0.653	-0.517
-291.647	-14.309	-0.664	-0.425
-290.632	-31.683	0.582	-0.325
-289.618	154.657	0.388	-0.529
-288.603	800.000	0.164	-0.573
-287.589	449.871	-0.040	0.088
-286.574	-112.596	0.469	-0.093
-285.559	-26.418	-0.258	0.150
-284.545	-141.000	-0.686	-0.070
-283.530	76.418	0.190	0.200
-282.516	-200.000	0.062	0.889
-281.501	46.993	-0.165	0.152
-280.486	45.473	-0.590	0.541
-279.472	-33.344	-0.465	-0.255
-278.457	-33.868	-0.394	-0.215
-277.443	-200.000	0.008	-0.191
-276.428	-113.773	1.069	-0.207
-275.413	63.424	0.651	-0.649
-274.399	-31.269	-0.592	-0.331
-273.384	-104.741	0.423	0.097
-272.370	-62.582	-0.989	-0.408
-271.355	124.011	-0.173	0.216
-270.340	118.834	0.234	0.287
-269.326	531.887	0.136	-0.320
-268.311	346.863	-0.190	-0.372
-267.297	32.009	-0.530	0.454
-266.282	800.000	-0.124	-0.512
-265.267	68.694	-0.530	-0.539
-264.253	-146.661	-0.264	-0.023
-263.238	-200.000	0.011	-0.569
-262.224	157.002	0.545	0.748
-261.209	26.093	-0.673	0.557
-260.195	-200.000	-0.069	0.515
-259.180	-200.000	-0.160	0.922
-258.165	-108.991	0.427	0.090
-257.151	-200.000	0.015	-0.295
-256.136	148.756	0.397	0.532
-255.122	-200.000	-0.099	0.573
-254.107	140.817	0.256	-0.336
-253.092	-15.905	-0.402	-0.254
-252.078	-140.622	0.525	-0.054
-251.063	-200.000	-0.036	-0.158
-250.049	-86.924	-0.087	-0.026
-249.034	119.835	0.377	-0.464
-248.019	-200.000	-0.064	0.848
-247.005	-145.438	0.473	-0.042
-245.990	147.747	0.258	0.345
-244.976	-200.000	0.023	0.348
-243.961	-200.000	0.072	-0.619
-242.946	-23.209	0.699	-0.417
-241.932	90.042	-0.777	-0.861
-240.917	-200.000	-0.225	1.066
-239.903	800.000	0.207	-0.567
-238.888	-71.484	0.387	0.143
-237.873	-185.549	-1.003	-0.015
-236.859	-69.961	-0.665	-0.251
-235.844	420.954	0.102	-0.216
-234.830	-121.204	0.150	-0.025
-233.815	-78.178	0.630	0.215
-232.800	54.369	0.243	-0.232
-231.786	-200.000	0.006	0.091
-230.771	139.072	0.579	-0.754
-229.757	-200.000	-0.028	-0.269
-228.742	408.689	-0.253	-0.530
-227.727	17.962	0.291	-0.230
-226.713	800.000	0.193	-0.780
-225.698	48.861	-0.309	-0.287
-224.684	83.373	0.635	-0.686
-223.669	138.517	0.065	0.084
-222.655	-107.677	0.431	-0.093
-221.640	-200.000	0.009	-0.255
-220.625	206.956	0.355	-0.549
-219.611	605.280	0.194	-0.479
-218.596	-200.000	-0.072	0.492
-217.582	-108.374	-0.110	-0.024
-216.567	-200.000	0.038	0.476
-215.552	-82.015	-0.374	-0.121
-214.538	800.000	0.105	-0.442
-213.523	-94.467	0.652	-0.176
-212.509	-147.346	-0.943	0.079
-211.494	-102.028	-1.021	-0.244
-210.479	231.778	-0.160	-0.260
-209.465	-200.000	0.034	0.534
-208.450	800.000	0.142	0.593
-207.436	800.000	-0.181	0.745
-206.421	-88.606	0.472	-0.139
-205.406	-200.000	0.032	-0.418
-204.392	486.143	0.074	0.168
-203.377	-200.000	0.060	-0.426
-202.363	-28.238	0.296	0.170
-201.348	800.000	0.079	0.289
-200.333	20.349	0.151	-0.121
-199.319	54.633	-0.403	-0.384
-198.304	-134.318	-0.581	-0.071
-197.290	-200.000	0.009	0.106
-196.275	-200.000	0.028	-0.476
-195.260	46.589	-0.351	-0.323
-194.246	154.443	0.446	-0.606
-193.231	-200.000	0.022	-0.252
-192.217	3.963	0.380	0.275
-191.202	-177.472	1.007	0.024
-190.187	165.926	0.290	-0.406
-189.173	-105.038	-0.639	-0.145
-188.158	-200.000	0.010	0.357
-187.144	169.310	0.440	0.622
-186.129	-130.595	-0.376	-0.050
-185.114	-25.775	-0.626	0.365
-184.100	-138.847	-1.188	-0.128
-183.085	-200.000	-0.099	-0.456
-182.071	-86.772	0.283	-0.086
-181.056	164.787	-0.291	-0.407
-180.042	-200.000	-0.107	-0.799
-179.027	800.000	-0.088	0.322
-178.012	-154.698	-0.567	0.037
-176.998	-31.917	-0.194	0.108
-175.983	-24.366	-0.168	-0.099
-174.969	-129.338	-0.330	0.045
-173.954	-200.000	0.248	1.100
-172.939	15.586	0.599	0.465
-171.925	-73.663	-0.725	-0.261
-170.910	800.000	0.147	-0.418
-169.896	800.000	0.032	-0.094
-168.881	72.695	0.755	-0.779
-167.866	-69.734	0.575	0.217
-166.852	-167.584	-0.471	-0.019
-165.837	77.102	0.217	0.228
-164.823	-33.021	-0.855	-0.469
-163.808	204.823	0.438	0.672
-162.793	800.000	-0.184	-0.672
-161.779	140.907	0.261	-0.341
-160.764	-109.627	-0.218	-0.046
-159.750	-37.227	0.263	-0.139
-158.735	-200.000	-0.146	0.680
-157.720	-59.537	-0.426	-0.181
-156.706	800.000	0.124	-0.362
-155.691	-40.908	0.454	0.232
-154.677	-50.846	-0.345	0.160
-153.662	800.000	-0.196	-0.664
-152.647	189.634	0.213	-0.315
-151.633	-200.000	-0.028	0.217
-150.618	-13.272	0.583	0.374
-149.604	-94.596	-0.367	0.099
-148.589	209.877	-0.247	-0.383
-147.574	239.935	0.139	-0.229
-146.560	226.552	0.487	-0.781
-145.545	-129.923	-0.876	-0.119
-144.531	453.228	0.310	0.679
-143.516	16.143	0.287	-0.223
-142.502	-123.680	-0.513	0.080
-141.487	-200.000	-0.059	-0.620
-140.472	-116.074	-0.991	0.182
-139.458	-132.885	0.695	-0.087
-138.443	-200.000	-0.109	-0.842
-137.429	-132.291	0.236	-0.030
-136.414	800.000	-0.079	-0.249
-135.399	800.000	-0.284	-1.161
-134.385	-200.000	0.091	-0.655
-133.370	800.000	0.211	-0.692
-132.356	-86.240	0.171	-0.052
-131.341	72.483	0.520	0.535
-130.326	-200.000	0.002	-0.224
-129.312	-92.776	0.525	-0.145
-128.297	28.010	-0.662	-0.551
-127.283	-189.447	1.268	-0.015
-126.268	-138.065	0.221	-0.024
-125.253	1.725	-0.469	0.334
-124.239	-85.026	0.889	0.275
-123.224	448.359	0.324	-0.704
-122.210	-126.996	-1.031	0.150
-121.195	-200.000	0.084	-0.856
-120.180	8.224	-0.241	-0.179
-119.166	-200.000	-0.071	0.545
-118.151	-118.583	-0.845	0.147
-117.137	11.076	0.303	-0.229
-116.122	-200.000	0.027	0.393
-115.107	152.198	0.234	-0.315
-114.093	-117.847	-0.100	-0.018
-113.078	-47.394	0.800	0.384
-112.064	122.120	-0.480	0.591
-111.049	-105.136	-0.680	0.153
-110.034	296.482	0.248	0.449
-109.020	314.503	-0.186	0.346
-108.005	-66.521	-0.230	0.090
-106.991	800.000	0.076	0.277
-105.976	-22.418	0.224	0.134
-104.962	-0.998	0.708	-0.494
-103.947	-100.401	-0.463	0.113
-102.932	-189.208	0.164	-0.002
-101.918	413.704	-0.258	0.541
-100.903	71.936	-0.717	0.735
-99.889	95.782	0.235	0.264
-98.874	251.785	0.410	-0.688
-97.859	-62.622	-0.770	-0.315
-96.845	800.000	-0.118	-0.410
-95.830	-36.387	0.259	0.138
-94.816	-116.998	-0.984	0.177
-93.801	-7.772	0.264	-0.176
-92.786	-90.407	0.100	-0.029
-91.772	340.617	0.361	-0.695
-90.757	-200.000	0.011	-0.433
-89.743	-52.603	0.684	0.312
-88.728	11.136	-0.391	0.294
-87.713	-47.754	-0.591	0.282
-86.699	-200.000	0.117	-0.549
-85.684	390.491	0.063	-0.129
-84.670	-200.000	-0.022	0.243
-83.655	-200.000	0.068	-0.750
-82.640	335.358	0.115	-0.219
-81.626	-90.398	-0.254	0.073
-80.611	800.000	0.253	-0.968
-79.597	14.814	-0.515	0.397
-78.582	487.903	0.193	0.434
-77.567	800.000	0.187	0.617
-76.553	189.539	-0.166	-0.246
-75.538	-61.271	0.148	0.062
-74.524	800.000	0.050	0.177
-73.509	-200.000	0.008	0.160
-72.494	-200.000	0.098	-0.443
-71.480	-12.694	0.201	0.129
-70.465	632.537	0.554	1.384
-69.451	-200.000	-0.169	-0.867
-68.436	471.143	-0.081	-0.180
-67.422	-64.062	-0.587	-0.236
-66.407	-42.921	0.827	-0.413
-65.392	-28.556	0.432	0.245
-64.378	-86.186	0.419	-0.127
-63.363	248.941	0.168	-0.281
-62.349	-37.994	0.642	0.336
-61.334	94.241	-0.826	-0.923
-60.319	319.233	0.421	0.787
-59.305	-132.178	-0.287	-0.037
-58.290	-92.204	1.313	0.365
-57.276	233.882	0.814	1.320
-56.261	-200.000	95.250	583.419
-55.246	664.586	1357.759	3450.239
-54.232	203.444	2520.959	3838.945
-53.217	118.852	2124.779	2584.429
-52.203	44.439	1595.359	1442.386
-51.188	36.485	1334.053	1158.634
-50.173	33.271	1293.245	1104.431
-49.159	56.340	1343.049	1284.615
-48.144	56.974	1360.273	1304.804
-47.130	36.239	1318.262	1143.280
-46.115	32.990	1300.347	1108.668
-45.100	32.702	1296.025	1103.255
-44.086	32.651	1292.041	1099.521
-43.071	32.837	1289.826	1098.676
-42.057	32.529	1288.604	1095.798
-41.042	32.764	1286.587	1095.404
-40.027	32.643	1285.618	1093.836
-39.013	32.661	1283.949	1092.475
-37.998	32.756	1281.712	1091.080
-36.984	32.534	1280.115	1088.394
-35.969	32.799	1278.336	1088.369
-34.954	32.873	1277.032	1087.639
-33.940	32.898	1274.422	1085.515
-32.925	32.802	1274.045	1084.601
-31.911	32.567	1272.617	1081.993
-30.896	32.698	1270.901	1081.244
-29.881	32.853	1269.600	1080.984
-28.867	32.968	1267.531	1079.833
-27.852	32.832	1266.552	1078.179
-26.838	33.195	1264.731	1078.656
-25.823	33.091	1263.291	1076.792
-24.809	32.741	1262.449	1074.042
-23.794	32.893	1260.351	1073.077
-22.779	32.871	1259.806	1072.446
-21.765	32.730	1259.578	1071.409
-20.750	32.797	1257.093	1069.635
-19.736	32.731	1256.034	1068.317
-18.721	32.865	1255.124	1068.257
-17.706	32.549	1254.144	1065.593
-16.692	32.851	1252.343	1065.723
-15.677	32.587	1252.420	1064.258
-14.663	32.731	1249.626	1062.651
-13.648	32.577	1250.113	1062.154
-12.633	32.498	1249.719	1061.332
-11.619	32.604	1248.218	1060.613
-10.604	32.878	1246.406	1060.571
-9.590	32.559	1245.261	1057.762
-8.575	32.629	1244.821	1057.745
-7.560	32.619	1244.155	1057.077
-6.546	32.836	1242.489	1056.836
-5.531	32.669	1242.289	1055.691
-4.517	32.857	1241.755	1056.247
-3.502	32.786	1239.582	1053.961
-2.487	32.645	1240.207	1053.662
-1.473	32.682	1235.817	1050.092
-0.458	31.051	1221.068	1028.533
0.556	28.585	1202.250	990.410
1.571	24.466	1208.116	972.760
2.586	23.428	1223.620	979.425
3.600	22.735	1211.501	965.847
4.615	16.935	1139.345	878.290
5.629	7.197	1064.139	772.925
6.644	3.512	1042.864	739.758
7.659	3.095	1041.515	736.740
8.673	2.617	1040.786	733.871
9.688	2.739	1037.537	732.099
10.702	3.171	1036.625	733.448
11.717	9.135	1045.500	768.265
12.731	18.346	1060.347	823.608
13.746	23.620	1065.453	852.915
14.761	24.167	1065.046	855.142
15.775	24.383	1063.545	854.898
16.790	23.641	1064.680	852.172
17.804	23.535	1063.894	850.957
18.819	23.666	1063.691	851.349
19.834	23.992	1061.900	851.399
20.848	23.765	1062.311	850.568
21.863	23.739	1060.615	849.013
22.877	23.700	1061.249	849.256
23.892	23.318	1061.640	847.666
24.907	23.616	1058.845	846.781
25.921	23.746	1057.678	846.393
26.936	23.615	1056.645	844.871
27.950	23.462	1054.544	842.388
28.965	23.632	1052.426	841.425
29.980	23.707	1052.002	841.369
30.994	24.065	1051.201	842.349
32.009	23.950	1049.500	840.369
33.023	23.825	1049.217	839.475
34.038	23.670	1048.784	838.324
35.053	23.600	1047.706	837.057
36.067	23.305	1047.974	835.804
37.082	23.587	1045.338	834.958
38.096	23.779	1045.498	835.914
39.111	23.645	1045.587	835.280
40.126	23.846	1043.279	834.305
41.140	23.279	1041.903	830.471
42.155	23.306	1040.290	829.243
43.169	23.661	1037.969	828.977
44.184	23.463	1038.704	828.564
45.199	23.171	1039.099	827.441
46.213	23.420	1037.575	827.315
47.228	23.879	1037.228	829.105
48.242	23.723	1036.238	827.515
49.257	23.714	1035.194	826.566
50.271	23.875	1034.017	826.300
51.286	23.995	1033.783	826.600
52.301	23.797	1033.277	825.204
53.315	23.977	1032.175	825.087
54.330	23.605	1031.440	822.702
55.344	23.657	1030.091	821.791
56.359	23.676	1028.950	820.899
57.374	23.592	1028.460	820.043
58.388	23.569	1028.040	819.533
59.403	23.269	1028.061	818.088
60.417	23.344	1026.009	816.732
61.432	23.192	1025.868	815.847
62.447	23.225	1025.114	815.323
63.461	23.381	1023.992	815.077
64.476	23.382	1023.841	814.888
65.490	23.040	1022.153	811.906
66.505	23.306	1020.305	811.582
67.520	23.505	1020.176	812.321
68.534	23.026	1020.602	810.394
69.549	22.954	1019.466	809.090
70.563	22.958	1017.791	807.706
71.578	22.625	1016.865	805.379
72.593	22.582	1015.396	803.948
73.607	22.399	1015.636	803.231
74.622	22.745	1015.118	804.329
75.636	23.085	1013.929	804.866
76.651	23.314	1011.932	804.250
77.666	23.129	1012.827	804.045
78.680	22.890	1012.249	802.430
79.695	22.907	1011.117	801.540
80.709	22.997	1011.277	802.002
81.724	23.106	1010.018	801.428
82.739	23.007	1010.478	801.272
83.753	23.766	1009.766	804.077
84.768	24.197	1007.890	804.456
85.782	24.361	1008.437	805.563
86.797	24.076	1007.248	803.256
87.812	23.779	1006.560	801.296
88.826	23.899	1005.500	800.923
89.841	23.938	1004.780	800.455
90.855	24.611	1002.623	801.687
91.870	24.108	1002.100	798.940
92.884	23.970	1001.694	797.926
93.899	24.070	1000.884	797.661
94.914	24.278	1000.417	798.149
95.928	24.211	999.007	796.653
96.943	24.176	997.270	795.043
97.957	23.726	996.789	792.581
98.972	23.508	996.867	791.599
99.987	24.221	994.512	792.833
101.001	24.155	994.391	792.372
102.016	23.977	994.029	791.220
103.030	24.040	993.073	790.672
104.045	23.812	992.186	788.884
105.060	24.003	990.935	788.663
106.074	23.732	990.570	787.106
107.089	23.547	990.203	785.924
108.103	23.509	989.335	784.997
109.118	23.033	987.914	781.695
110.133	23.064	986.625	780.742
111.147	22.975	986.151	779.905
112.162	22.860	985.641	778.926
113.176	23.005	984.178	778.339
114.191	23.494	982.481	779.078
115.206	23.034	982.718	777.174
116.220	23.087	981.966	776.746
117.235	23.302	981.008	776.863
118.249	23.044	979.755	774.669
119.264	22.662	978.781	772.158
120.279	22.833	978.482	772.602
121.293	22.613	977.932	771.141
122.308	22.926	976.684	771.453
123.322	23.017	974.231	769.843
124.337	22.798	974.349	768.914
125.352	22.757	973.291	767.834
126.366	22.890	972.069	767.378
127.381	23.408	972.069	769.563
128.395	23.634	970.661	769.357
129.410	23.356	970.794	768.192
130.424	23.299	970.865	767.930
131.439	23.605	969.291	767.942
132.454	23.549	968.225	766.788
133.468	23.674	966.911	766.218
134.483	23.280	967.506	764.922
135.497	23.663	965.505	764.922
136.512	23.880	964.477	764.972
137.527	23.503	965.088	763.766
138.541	23.700	964.009	763.693
139.556	23.796	962.625	762.943
140.570	23.817	963.059	763.308
141.585	23.996	961.670	762.909
142.600	24.197	961.186	763.316
143.614	24.079	960.204	761.967
144.629	24.498	959.176	762.874
145.643	23.785	958.397	759.138
146.658	23.844	956.427	757.763
147.673	23.898	955.048	756.836
148.687	23.852	954.370	756.036
149.702	23.644	954.061	754.837
150.716	23.527	953.209	753.599
151.731	23.719	952.943	754.138
152.746	23.592	952.214	752.958
153.760	23.366	951.188	751.120
154.775	23.790	950.384	752.214
155.789	24.054	949.935	752.909
156.804	23.969	948.494	751.342
157.819	23.742	947.813	749.780
158.833	24.254	947.239	751.417
159.848	24.310	946.545	751.034
160.862	24.041	945.602	749.088
161.877	23.840	944.400	747.226
162.892	23.853	943.212	746.276
163.906	24.066	941.693	745.899
164.921	23.505	942.282	743.948
165.935	23.941	940.655	744.420
166.950	23.687	940.526	743.189
167.964	23.851	939.384	742.907
168.979	23.484	937.918	740.150
169.994	23.920	936.514	740.795
171.008	23.749	936.989	740.394
172.023	23.979	935.974	740.482
173.037	23.900	935.457	739.679
174.052	24.085	934.692	739.779
175.067	23.647	933.670	737.085
176.081	23.248	932.748	734.637
177.096	23.696	931.623	735.541
178.110	23.294	931.793	733.946
179.125	23.424	930.456	733.367
180.140	23.456	929.291	732.514
181.154	23.575	930.081	733.565
182.169	24.224	929.020	735.341
183.183	23.735	930.328	734.292
184.198	23.914	928.323	733.382
185.213	23.948	927.769	733.021
186.227	23.878	927.560	732.499
187.242	24.139	925.942	732.232
188.256	24.206	926.140	732.598
189.271	23.956	925.643	731.114
190.286	24.100	924.029	730.364
191.300	22.953	922.891	724.699
192.315	22.991	921.454	723.662
193.329	22.786	921.451	722.756
194.344	23.702	921.115	726.175
195.359	23.716	920.078	725.352
196.373	24.017	920.642	726.960
197.388	24.275	919.974	727.424
198.402	24.408	919.788	727.756
199.417	24.529	920.135	728.458
200.432	24.276	919.169	726.598
201.446	24.463	918.836	727.032
202.461	24.544	917.935	726.584
203.475	23.813	917.166	722.937
204.490	23.468	915.679	720.302
205.504	23.845	915.677	721.767
206.519	24.183	914.911	722.471
207.534	24.066	914.377	721.512
208.548	24.641	913.113	722.776
209.563	23.917	912.875	719.594
210.577	23.921	912.495	719.249
211.592	24.244	912.066	720.152
212.607	25.034	910.300	721.876
213.621	24.325	910.770	719.327
214.636	24.124	910.147	717.962
215.650	24.030	909.258	716.816
216.665	24.272	908.480	717.114
217.680	24.064	907.813	715.688
218.694	24.624	905.292	715.883
219.709	23.960	905.875	713.616
220.723	24.071	905.882	714.005
221.738	24.004	905.087	713.047
222.753	23.732	904.557	711.475
223.767	24.210	903.856	712.773
224.782	24.628	903.758	714.306
225.796	23.970	903.351	711.293
226.811	24.257	901.807	711.157
227.826	23.706	901.029	708.284
228.840	24.008	899.890	708.529
229.855	23.821	899.520	707.433
230.869	23.748	899.628	707.163
231.884	23.733	899.716	707.108
232.899	23.915	899.493	707.598
233.913	23.846	897.286	705.522
234.928	23.601	896.825	704.127
235.942	23.433	895.747	702.553
236.957	23.407	895.785	702.416
237.972	23.049	895.380	700.618
238.986	23.534	894.463	701.759
240.001	23.384	893.253	700.155
241.015	23.328	893.273	699.885
242.030	23.754	893.272	701.507
243.045	23.934	892.649	701.664
244.059	23.547	891.907	699.495
245.074	24.108	890.684	700.683
246.088	23.885	891.221	700.164
247.103	24.539	889.553	701.360
248.117	24.583	890.279	702.045
249.132	25.124	889.769	703.704
250.147	24.993	890.160	703.436
251.161	25.002	889.885	703.191
252.176	25.009	888.208	701.834
253.190	25.167	888.454	702.585
254.205	24.935	888.257	701.456
255.220	25.090	886.150	700.335
256.234	24.751	886.196	698.985
257.249	24.932	885.657	699.207
258.263	24.730	884.944	697.791
259.278	24.731	883.990	696.982
260.293	24.752	883.890	696.923
261.307	24.968	882.128	696.314
262.322	25.090	881.237	696.022
263.336	24.992	880.451	694.958
264.351	24.968	878.843	693.538
265.366	24.605	880.138	693.088
266.380	25.111	879.360	694.375
267.395	25.010	877.617	692.545
268.409	25.115	877.225	692.583
269.424	25.060	877.040	692.161
270.439	24.729	876.661	690.524
271.453	24.640	875.653	689.327
272.468	24.987	875.189	690.237
273.482	25.117	875.442	690.875
274.497	25.094	874.454	689.946
275.512	24.851	874.430	688.933
276.526	25.211	873.638	689.632
277.541	25.068	872.756	688.323
278.555	25.290	872.721	689.087
279.570	24.974	872.049	687.285
280.585	25.108	870.970	686.888
281.599	24.747	869.863	684.570
282.614	24.617	869.015	683.346
283.628	24.614	868.518	682.882
284.643	24.867	867.688	683.137
285.657	24.698	866.847	681.768
286.672	24.540	866.715	681.001
287.687	24.909	866.555	682.222
288.701	24.775	866.228	681.396
289.716	25.130	864.866	681.612
290.730	24.842	865.193	680.717
291.745	24.682	864.152	679.226
292.760	25.145	863.703	680.572
293.774	25.306	864.896	682.063
294.789	25.127	863.708	680.387
295.803	25.467	861.999	680.268
296.818	24.861	861.346	677.401
297.833	24.827	860.359	676.435
298.847	25.085	860.021	677.084
299.862	24.869	859.646	675.913
300.876	25.179	859.973	677.284
301.891	25.526	858.599	677.448
302.906	25.418	858.938	677.247
303.920	25.661	858.648	677.875
304.935	25.558	857.989	676.908
305.949	25.190	857.984	675.458
306.964	24.826	855.761	672.280
307.979	24.832	854.972	671.624
308.993	25.177	855.625	673.374
310.008	25.394	854.456	673.205
311.022	24.936	854.969	671.834
312.037	25.194	852.873	671.091
313.052	24.782	852.576	669.258
314.066	24.660	852.095	668.365
315.081	24.729	850.553	667.354
316.095	24.889	850.276	667.675
317.110	24.825	849.716	666.936
318.125	24.235	849.783	664.732
319.139	24.017	848.377	662.761
320.154	23.918	848.622	662.526
321.168	24.266	848.581	663.730
322.183	24.878	847.451	665.063
323.197	24.668	847.751	664.458
324.212	24.970	846.757	664.742
325.227	24.914	846.547	664.310
326.241	24.381	845.945	661.801
327.256	24.432	844.640	660.911
328.270	24.234	844.995	660.396
329.285	24.264	843.391	659.196
330.300	24.344	842.365	658.632
331.314	24.320	842.104	658.279
332.329	24.712	841.962	659.559
333.343	25.140	841.921	661.045
334.358	25.030	841.876	660.545
335.373	24.634	841.770	658.944
336.387	24.743	841.193	658.837
337.402	25.443	841.300	661.439
338.416	25.582	840.419	661.199
339.431	25.574	840.818	661.424
340.446	25.514	840.201	660.661
341.460	25.470	840.336	660.548
342.475	25.877	838.189	660.292
343.489	25.883	839.668	661.419
344.504	25.700	838.263	659.586
345.519	25.970	838.724	660.878
346.533	25.913	837.996	660.039
347.548	25.332	837.188	657.217
348.562	25.480	836.537	657.191
349.577	25.637	835.793	657.121
350.592	25.274	834.980	655.100
351.606	25.044	834.145	653.545
352.621	24.972	833.256	652.530
353.635	25.237	832.488	652.835
354.650	25.346	831.479	652.381
355.665	24.867	831.522	650.619
356.679	25.176	830.349	650.764
357.694	25.044	830.192	650.105
358.708	25.248	828.675	649.596
359.723	25.291	828.265	649.374
360.738	25.165	828.195	648.807
361.752	24.926	828.797	648.355
362.767	25.280	827.772	648.777
363.781	25.626	827.754	649.954
364.796	25.520	827.306	649.161
365.810	25.748	827.080	649.749
366.825	25.741	825.665	648.556
367.840	25.662	825.916	648.412
368.854	25.965	824.542	648.365
369.869	25.293	824.495	645.853
370.883	25.411	823.247	645.243
371.898	25.694	823.393	646.315
372.913	26.123	822.702	647.256
373.927	25.540	822.041	644.588
374.942	25.635	821.268	644.264
375.956	25.774	821.282	644.717
376.971	25.859	821.826	645.394
377.986	25.663	820.999	643.986
379.000	25.879	820.703	644.467
380.015	25.761	818.937	642.602
381.029	25.633	819.714	642.699
382.044	26.098	818.919	643.676
383.059	25.982	817.662	642.219
384.073	26.193	816.816	642.249
385.088	25.483	815.986	639.014
386.102	25.506	815.638	638.767
387.117	25.472	814.959	638.059
388.132	25.277	814.043	636.592
389.146	25.726	812.926	637.253
390.161	25.478	814.006	637.163
391.175	25.994	812.964	638.119
392.190	25.633	813.049	636.853
393.205	25.239	811.827	634.447
394.219	24.899	810.632	632.254
395.234	24.802	810.381	631.660
396.248	24.821	810.756	631.964
397.263	24.996	809.926	631.880
398.278	25.039	809.591	631.714
399.292	24.723	809.155	630.203
400.307	24.919	808.435	630.277
401.321	25.179	807.712	630.572
402.336	24.913	808.344	630.072
403.350	25.676	808.111	632.519
404.365	25.925	808.159	633.374
405.380	26.159	807.873	633.915
406.394	26.347	807.194	633.987
407.409	26.711	806.732	634.844
408.423	26.410	806.290	633.386
409.438	26.160	806.332	632.488
410.453	26.316	805.395	632.242
411.467	26.220	804.341	631.023
412.482	26.174	804.146	630.652
413.496	26.360	803.747	630.936
414.511	26.644	802.361	630.780
415.526	26.494	803.341	630.972
416.540	26.007	802.720	628.729
417.555	26.224	801.578	628.538
418.569	26.178	801.810	628.503
419.584	26.339	800.830	628.239
420.599	25.952	800.992	626.965
421.613	160.030	1370.811	1792.934
422.628	138.897	1453.876	1792.921
