DTS Sentinel unit serial number:	SN413079Multiplexer serial number:	ORYXHardware model number:	OX4-SRSoftware version number:	ORYX F/W v4.00 Oryx Data Collector v3.7.2.0data status	okinstallation	princeton_trtdifferential loss correction	single-endedforward channel	channel 1reverse channel	N/Adate	2019/09/14time	00:10:35forward acquisition time	60.00reverse acquisition time	0.00gamma	496.2192k internal	0.2337k external	0.2337temperature offset calibration	1.0079default loss term (dB/km)	0.3790temperature slope calibration	1.0000multiplexer offset coefficient	1.0000multiplexer slope coefficient	1.0000fibre end	0.00T internal ref (°C)	26.50T ext. ref 1 (°C)	3.17T ext. ref 2 (°C)	21.46length (m)	temperature (°C)	Stokes	anti-Stokes-747.200	-41.923	0.286	-0.147
-746.185	293.501	-0.048	0.087
-745.171	133.695	-0.131	0.170
-744.156	179.011	-0.088	0.128
-743.142	800.000	-0.040	-0.121
-742.127	-138.574	0.320	0.035
-741.112	-106.599	-0.055	-0.012
-740.098	-100.539	-0.206	-0.051
-739.083	-100.314	0.150	-0.037
-738.069	25.087	0.031	-0.026
-737.054	17.248	-0.178	0.142
-736.039	71.191	-0.335	0.348
-735.025	-26.913	0.290	-0.170
-734.010	-200.000	-0.046	-0.225
-732.996	-108.660	-0.301	-0.065
-731.981	-49.158	0.099	0.048
-730.966	-101.589	-0.104	-0.025
-729.952	443.728	-0.080	-0.176
-728.937	94.179	-0.090	0.103
-727.923	214.609	0.013	0.021
-726.908	-200.000	0.006	0.043
-725.894	-148.642	0.141	-0.011
-724.879	15.822	0.173	-0.136
-723.864	-200.000	-0.000	-0.096
-722.850	-175.905	0.337	0.009
-721.835	15.032	-0.245	-0.193
-720.821	82.463	-0.266	0.290
-719.806	-34.823	-0.103	-0.056
-718.791	78.611	-0.069	0.074
-717.777	-101.220	0.206	0.051
-716.762	13.562	0.314	-0.245
-715.748	115.397	-0.310	0.379
-714.733	-200.000	0.033	-0.147
-713.718	32.581	-0.099	0.086
-712.704	51.480	-0.182	-0.174
-711.689	1.291	-0.054	-0.039
-710.675	800.000	0.098	-0.273
-709.660	-200.000	-0.039	-0.440
-708.645	246.204	-0.133	-0.225
-707.631	658.950	0.108	-0.277
-706.616	50.725	-0.124	0.118
-705.602	-15.783	-0.192	0.123
-704.587	-184.986	0.143	-0.002
-703.572	6.516	-0.184	0.137
-702.558	-112.966	-0.468	-0.093
-701.543	-40.915	0.189	0.098
-700.529	-35.588	-0.210	-0.114
-699.514	-99.564	0.208	-0.052
-698.499	-198.715	0.233	0.001
-697.485	142.465	0.022	-0.029
-696.470	-141.063	-0.088	0.009
-695.456	-200.000	-0.036	-0.403
-694.441	-200.000	-0.019	0.173
-693.426	28.270	-0.165	0.140
-692.412	24.124	-0.096	0.079
-691.397	-200.000	0.062	-0.362
-690.383	-196.183	-0.272	0.002
-689.368	53.780	-0.337	0.324
-688.354	-183.037	0.277	-0.005
-687.339	75.974	0.210	-0.222
-686.324	-32.283	-0.063	-0.035
-685.310	800.000	0.107	-0.315
-684.295	-126.429	0.326	-0.049
-683.281	18.420	-0.227	-0.181
-682.266	-23.854	0.208	0.125
-681.251	278.494	0.044	-0.078
-680.237	-179.091	0.111	0.002
-679.222	-136.504	-0.071	0.008
-678.208	10.913	0.080	-0.061
-677.193	-72.996	-0.209	0.077
-676.178	-139.363	0.263	0.028
-675.164	134.688	0.148	0.193
-674.149	-76.751	0.136	0.048
-673.135	-79.014	-0.460	0.157
-672.120	195.225	-0.257	-0.391
-671.105	800.000	0.074	0.267
-670.091	478.627	0.100	-0.227
-669.076	-90.584	-0.339	-0.098
-668.062	-76.438	-0.128	-0.045
-667.047	800.000	0.071	-0.205
-666.032	800.000	-0.089	-0.284
-665.018	-29.794	-0.257	0.146
-664.003	-133.472	0.244	-0.031
-662.989	-200.000	-0.020	0.190
-661.974	27.945	-0.384	0.324
-660.959	-155.959	0.125	-0.008
-659.945	-19.175	0.119	0.074
-658.930	107.970	-0.113	0.135
-657.916	190.170	0.253	0.380
-656.901	641.321	-0.014	0.035
-655.886	13.434	0.121	-0.094
-654.872	800.000	0.106	0.357
-653.857	-200.000	-0.003	-0.147
-652.843	670.684	0.061	-0.159
-651.828	-30.616	0.437	0.248
-650.814	2.838	-0.192	-0.139
-649.799	172.000	0.191	-0.274
-648.784	-200.000	0.019	0.231
-647.770	15.202	0.147	-0.116
-646.755	-200.000	-0.044	-0.243
-645.741	-99.029	0.141	-0.036
-644.726	177.220	-0.202	-0.295
-643.711	659.805	0.150	-0.387
-642.697	136.959	-0.306	-0.400
-641.682	-200.000	0.014	0.064
-640.668	0.543	0.062	0.044
-639.653	764.981	0.159	-0.433
-638.638	-83.461	-0.324	0.104
-637.624	-95.047	-0.164	0.044
-636.609	8.929	-0.353	-0.267
-635.595	167.795	0.158	-0.225
-634.580	-138.914	0.382	0.041
-633.565	198.097	0.025	-0.039
-632.551	345.939	-0.231	0.455
-631.536	395.068	-0.071	0.147
-630.522	57.809	0.093	-0.091
-629.507	-23.507	0.122	0.073
-628.492	-95.613	-0.076	-0.020
-627.478	477.408	0.071	0.162
-626.463	-179.970	-0.199	0.004
-625.449	800.000	-0.122	0.376
-624.434	47.430	0.071	0.066
-623.419	102.275	-0.172	0.201
-622.405	800.000	-0.123	-0.485
-621.390	44.972	-0.245	-0.226
-620.376	46.134	-0.142	-0.131
-619.361	268.478	0.053	0.093
-618.346	-167.456	0.142	-0.006
-617.332	-131.460	0.388	-0.051
-616.317	800.000	-0.028	0.123
-615.303	-200.000	-0.228	-0.001
-614.288	-105.469	0.111	0.025
-613.273	-173.622	-0.349	-0.010
-612.259	-143.771	0.195	-0.018
-611.244	-200.000	0.030	-0.203
-610.230	125.538	-0.122	-0.154
-609.215	94.025	-0.083	0.094
-608.201	-200.000	0.024	0.227
-607.186	800.000	-0.057	-0.182
-606.171	66.725	-0.192	-0.195
-605.157	138.007	-0.236	-0.309
-604.142	-200.000	-0.009	0.383
-603.128	800.000	0.044	0.176
-602.113	673.796	-0.081	0.209
-601.098	11.394	0.098	0.075
-600.084	-200.000	-0.018	0.135
-599.069	274.900	-0.130	0.229
-598.055	438.329	0.028	0.060
-597.040	85.472	-0.110	0.121
-596.025	142.978	-0.030	0.040
-595.011	-200.000	-0.015	0.432
-593.996	94.537	-0.061	0.069
-592.982	278.263	0.136	-0.241
-591.967	-155.415	-0.128	0.008
-590.952	304.942	0.157	-0.291
-589.938	-200.000	-0.015	0.286
-588.923	-109.680	-0.160	0.034
-587.909	-104.347	-0.127	0.029
-586.894	-182.805	-0.311	0.006
-585.879	-75.750	0.100	-0.036
-584.865	296.699	-0.102	0.187
-583.850	574.428	-0.058	0.140
-582.836	60.923	0.142	0.141
-581.821	64.323	-0.153	-0.154
-580.806	7.055	0.095	-0.071
-579.792	-38.649	0.082	-0.043
-578.777	25.467	-0.239	0.198
-577.763	10.155	-0.164	-0.124
-576.748	-13.817	-0.063	0.040
-575.733	41.033	-0.093	-0.084
-574.719	800.000	-0.067	-0.270
-573.704	10.815	-0.256	0.195
-572.690	-131.493	0.137	-0.018
-571.675	116.748	0.094	0.115
-570.661	709.699	0.163	-0.429
-569.646	300.197	-0.085	-0.155
-568.631	-120.196	0.246	0.042
-567.617	201.659	-0.139	-0.213
-566.602	124.224	0.211	-0.265
-565.588	-200.000	-0.030	-0.145
-564.573	332.595	-0.150	-0.289
-563.558	-72.178	0.114	-0.042
-562.544	48.557	-0.180	-0.168
-561.529	-93.045	-0.167	-0.046
-560.515	-200.000	0.040	-0.261
-559.500	315.494	-0.095	0.178
-558.485	-118.084	0.166	0.029
-557.471	-175.517	-0.347	-0.009
-556.456	800.000	-0.099	-0.337
-555.442	171.331	-0.105	-0.150
-554.427	-200.000	-0.014	-0.132
-553.412	800.000	0.016	0.047
-552.398	-200.000	0.011	-0.139
-551.383	33.981	0.103	-0.090
-550.369	-44.922	-0.201	0.100
-549.354	184.675	0.131	0.193
-548.339	-7.717	0.222	0.149
-547.325	-141.776	-0.280	-0.028
-546.310	-73.660	0.352	0.128
-545.296	62.583	-0.068	0.068
-544.281	9.179	-0.312	-0.235
-543.266	-93.905	-0.324	0.089
-542.252	-64.353	0.165	0.067
-541.237	800.000	-0.088	0.354
-540.223	45.440	-0.232	-0.213
-539.208	-5.113	0.325	0.223
-538.193	-136.183	-0.505	-0.059
-537.179	-124.588	0.096	-0.015
-536.164	75.552	0.057	-0.060
-535.150	-140.138	0.485	0.051
-534.135	18.498	-0.010	-0.008
-533.121	-200.000	-0.047	0.296
-532.106	-110.163	-0.205	0.043
-531.091	518.262	0.054	-0.126
-530.077	800.000	-0.038	0.150
-529.062	-200.000	-0.039	-0.281
-528.048	-200.000	-0.032	-0.204
-527.033	133.521	-0.079	0.102
-526.018	-200.000	0.090	0.475
-525.004	-200.000	-0.050	-0.357
-523.989	-138.727	-0.318	0.035
-522.975	463.388	-0.136	0.303
-521.960	70.880	-0.091	-0.094
-520.945	214.519	-0.179	0.283
-519.931	263.784	0.105	-0.182
-518.916	-62.447	-0.120	-0.050
-517.902	-115.474	-0.086	0.016
-516.887	227.405	0.176	0.285
-515.872	-33.408	-0.118	0.065
-514.858	-200.000	0.036	0.207
-513.843	-200.000	-0.071	0.496
-512.829	-200.000	0.012	0.353
-511.814	186.394	-0.068	-0.100
-510.799	199.704	-0.031	-0.047
-509.785	7.897	0.025	-0.018
-508.770	-200.000	-0.016	-0.132
-507.756	800.000	-0.064	0.247
-506.741	36.490	-0.066	0.058
-505.726	-74.337	-0.297	-0.107
-504.712	-2.124	-0.129	-0.090
-503.697	-112.778	0.051	-0.010
-502.683	-57.758	-0.184	-0.080
-501.668	800.000	-0.107	0.426
-500.653	-37.151	0.115	0.061
-499.639	99.022	0.140	0.161
-498.624	-200.000	-0.025	-0.219
-497.610	-122.240	0.262	0.043
-496.595	-180.353	-0.276	0.006
-495.581	119.408	-0.144	0.177
-494.566	148.344	0.276	0.371
-493.551	-76.750	0.434	-0.151
-492.537	16.014	-0.062	-0.049
-491.522	61.528	-0.128	0.127
-490.508	800.000	0.086	0.291
-489.493	242.837	0.047	0.078
-488.478	32.310	-0.146	-0.125
-487.464	-84.737	0.424	0.132
-486.449	51.289	0.184	-0.173
-485.435	221.497	0.035	-0.056
-484.420	-156.226	0.098	-0.006
-483.405	18.103	-0.129	0.102
-482.391	54.210	-0.208	-0.199
-481.376	800.000	-0.065	0.240
-480.362	20.736	-0.224	0.180
-479.347	134.383	0.282	-0.364
-478.332	-200.000	0.032	0.172
-477.318	-200.000	0.012	-0.121
-476.303	634.249	0.107	-0.270
-475.289	60.574	0.120	0.118
-474.274	144.158	-0.042	0.056
-473.259	-11.679	-0.116	0.076
-472.245	75.196	0.170	0.178
-471.230	-200.000	0.036	-0.241
-470.216	-200.000	0.009	-0.155
-469.201	-200.000	-0.012	-0.051
-468.186	800.000	-0.057	-0.204
-467.172	52.006	-0.122	0.116
-466.157	-200.000	-0.013	0.157
-465.143	-97.738	-0.198	-0.051
-464.128	-61.774	0.211	-0.088
-463.113	-200.000	-0.047	-0.425
-462.099	104.465	0.162	-0.190
-461.084	-12.856	-0.258	-0.167
-460.070	16.641	-0.124	-0.097
-459.055	-27.752	-0.325	0.187
-458.040	137.999	0.160	-0.208
-457.026	-105.947	0.368	-0.082
-456.011	-67.833	-0.226	0.088
-454.997	48.761	0.221	0.206
-453.982	800.000	-0.103	-0.355
-452.968	-89.266	-0.259	0.076
-451.953	-86.980	-0.325	-0.098
-450.938	-84.117	-0.208	0.066
-449.924	27.501	0.353	0.294
-448.909	-200.000	0.013	0.167
-447.895	-137.135	0.197	0.022
-446.880	-200.000	-0.003	0.045
-445.865	499.573	0.074	0.170
-444.851	185.590	-0.175	0.259
-443.836	-200.000	0.011	-0.146
-442.822	-28.356	-0.323	-0.185
-441.807	-200.000	0.026	0.300
-440.792	-104.443	0.466	-0.107
-439.778	349.773	-0.166	-0.325
-438.763	-102.507	0.337	0.080
-437.749	-82.528	-0.283	0.091
-436.734	-200.000	0.000	0.052
-435.719	800.000	0.091	-0.271
-434.705	-200.000	0.007	-0.056
-433.690	25.518	0.137	-0.113
-432.676	50.032	-0.217	0.203
-431.661	361.659	0.147	-0.293
-430.646	-200.000	-0.026	-0.196
-429.632	-13.523	-0.052	0.034
-428.617	347.279	0.072	-0.141
-427.603	-64.161	-0.249	-0.101
-426.588	418.075	-0.289	-0.613
-425.573	512.543	0.086	-0.199
-424.559	-118.312	-0.349	0.062
-423.544	-200.000	-0.005	0.137
-422.530	-200.000	-0.023	0.236
-421.515	-200.000	-0.235	0.000
-420.500	-200.000	0.045	-0.452
-419.486	-27.885	0.065	0.037
-418.471	-200.000	0.022	-0.101
-417.457	-117.885	-0.305	-0.054
-416.442	-60.969	-0.423	0.177
-415.428	156.023	-0.132	0.180
-414.413	282.257	0.105	0.186
-413.398	-71.662	0.174	0.064
-412.384	-116.835	0.267	0.048
-411.369	-30.369	0.265	0.149
-410.355	-181.707	0.126	-0.002
-409.340	343.904	-0.087	0.169
-408.325	86.423	-0.286	-0.313
-407.311	-23.232	0.206	-0.123
-406.296	-133.931	-0.164	0.020
-405.282	-200.000	0.051	-0.233
-404.267	-175.593	-0.187	0.005
-403.252	60.706	-0.286	0.281
-402.238	218.652	-0.191	-0.302
-401.223	800.000	0.111	0.304
-400.209	-47.118	-0.158	0.076
-399.194	529.779	-0.089	-0.208
-398.179	800.000	0.030	0.109
-397.165	127.810	0.175	-0.221
-396.150	366.447	0.058	-0.117
-395.136	5.863	-0.133	-0.097
-394.121	-96.880	-0.126	0.033
-393.106	202.558	0.066	-0.101
-392.092	-141.625	-0.277	-0.028
-391.077	76.502	0.196	0.205
-390.063	-72.192	0.124	0.045
-389.048	-39.725	0.136	-0.070
-388.033	-84.794	0.435	-0.135
-387.019	220.114	0.198	-0.315
-386.004	383.649	0.024	-0.048
-384.990	-47.502	0.202	-0.097
-383.975	-130.007	-0.293	-0.040
-382.960	-200.000	-0.028	-0.272
-381.946	204.436	-0.022	0.034
-380.931	-45.240	-0.057	0.028
-379.917	-5.721	-0.255	-0.173
-378.902	14.876	0.257	-0.199
-377.888	-49.343	-0.134	-0.063
-376.873	-141.324	0.209	-0.021
-375.858	-179.788	-0.217	-0.005
-374.844	-105.183	-0.256	-0.058
-373.829	-200.000	0.028	0.420
-372.815	-71.513	0.367	0.136
-371.800	-42.565	0.147	-0.074
-370.785	119.727	0.101	0.123
-369.771	-97.850	-0.406	0.104
-368.756	40.812	0.168	0.150
-367.742	-23.397	-0.298	0.177
-366.727	-200.000	-0.034	-0.149
-365.712	-155.183	0.184	-0.012
-364.698	248.506	-0.191	0.320
-363.683	-42.189	0.065	0.033
-362.669	-63.357	-0.256	-0.104
-361.654	-200.000	0.092	0.000
-360.639	-98.426	0.470	-0.119
-359.625	95.546	0.171	-0.193
-358.610	800.000	0.046	0.193
-357.596	-121.402	0.175	0.029
-356.581	-22.168	0.006	0.004
-355.566	59.883	0.153	-0.150
-354.552	-200.000	-0.026	0.179
-353.537	189.468	-0.127	-0.188
-352.523	-146.461	-0.381	-0.033
-351.508	526.552	0.100	-0.232
-350.493	-200.000	-0.074	-0.383
-349.479	-200.000	0.057	0.454
-348.464	800.000	-0.115	-0.355
-347.450	-154.012	0.046	0.003
-346.435	-200.000	0.017	0.123
-345.420	800.000	-0.027	-0.101
-344.406	31.100	0.039	-0.033
-343.391	5.670	-0.014	0.010
-342.377	800.000	0.078	-0.222
-341.362	-61.780	-0.121	0.050
-340.348	-200.000	0.217	0.001
-339.333	-12.239	-0.322	-0.208
-338.318	800.000	-0.140	0.495
-337.304	7.483	0.207	0.153
-336.289	-122.599	-0.098	-0.016
-335.275	800.000	-0.139	-0.400
-334.260	-200.000	-0.001	0.031
-333.245	227.068	0.142	0.227
-332.231	-200.000	0.011	0.059
-331.216	-106.400	0.232	0.051
-330.202	-65.423	-0.044	-0.017
-329.187	-200.000	0.044	0.357
-328.172	-13.606	-0.269	-0.172
-327.158	-7.241	-0.084	-0.056
-326.143	-15.353	-0.430	-0.272
-325.129	800.000	0.058	-0.217
-324.114	127.624	-0.142	-0.178
-323.099	-200.000	0.006	-0.060
-322.085	800.000	-0.059	-0.201
-321.070	-10.656	0.073	-0.047
-320.056	-0.187	0.184	0.129
-319.041	-68.122	-0.108	0.042
-318.026	82.968	-0.056	-0.060
-317.012	-200.000	0.027	0.209
-315.997	695.897	-0.150	0.390
-314.983	-200.000	-0.060	0.316
-313.968	-100.794	-0.124	0.030
-312.953	-136.362	0.114	-0.013
-311.939	-200.000	-0.041	0.203
-310.924	800.000	-0.132	0.491
-309.910	-36.591	0.118	0.062
-308.895	158.097	-0.282	-0.386
-307.880	310.058	0.030	-0.056
-306.866	208.594	0.132	0.204
-305.851	27.251	0.368	0.305
-304.837	-61.597	0.299	-0.124
-303.822	43.808	-0.194	-0.175
-302.807	-60.930	0.294	0.123
-301.793	800.000	-0.020	-0.061
-300.778	137.488	-0.107	0.138
-299.764	-43.624	-0.260	0.129
-298.749	-65.052	0.343	-0.137
-297.735	414.262	0.047	-0.099
-296.720	-148.079	-0.147	-0.012
-295.705	189.338	0.038	-0.057
-294.691	-200.000	-0.001	0.232
-293.676	2.234	0.276	-0.197
-292.662	427.473	0.082	-0.175
-291.647	-36.566	-0.127	-0.067
-290.632	-79.457	-0.161	-0.054
-289.618	-61.193	0.072	-0.030
-288.603	236.400	0.232	0.379
-287.589	-151.708	0.215	-0.016
-286.574	416.004	-0.143	0.300
-285.559	-118.130	0.193	0.034
-284.545	-2.594	-0.186	0.128
-283.530	15.670	0.221	0.171
-282.516	439.900	-0.017	-0.036
-281.501	86.413	0.083	0.090
-280.486	124.950	0.242	0.300
-279.472	37.843	0.124	0.109
-278.457	-143.045	-0.050	-0.005
-277.443	-81.693	0.168	0.054
-276.428	800.000	-0.028	-0.107
-275.413	-200.000	0.001	-0.100
-274.399	128.058	0.078	0.098
-273.384	-37.924	-0.131	-0.069
-272.370	-168.942	-0.182	-0.007
-271.355	440.487	-0.085	-0.182
-270.340	-104.081	-0.203	-0.046
-269.326	-200.000	-0.077	0.486
-268.311	800.000	0.054	0.233
-267.297	2.248	-0.200	0.142
-266.282	-117.700	0.235	-0.042
-265.267	-105.749	0.238	-0.053
-264.253	-104.815	0.151	0.034
-263.238	9.062	-0.027	-0.020
-262.224	-44.293	0.025	0.012
-261.209	23.454	0.060	-0.049
-260.195	706.210	-0.063	-0.164
-259.180	-53.268	0.198	-0.090
-258.165	-79.066	-0.223	-0.075
-257.151	-200.000	0.016	0.324
-256.136	206.661	0.134	-0.205
-255.122	-91.051	0.409	-0.116
-254.107	39.514	-0.040	0.035
-253.092	16.393	0.292	0.227
-252.078	-121.266	-0.405	-0.067
-251.063	70.342	-0.184	-0.187
-250.049	52.486	0.175	0.165
-249.034	89.222	0.135	-0.148
-248.019	-68.692	0.262	-0.100
-247.005	-136.295	-0.395	-0.045
-245.990	76.575	0.163	0.170
-244.976	682.364	0.063	0.162
-243.961	-1.950	0.247	-0.171
-242.946	621.014	0.144	-0.357
-241.932	-66.832	-0.224	0.087
-240.917	-39.927	0.264	0.135
-239.903	-89.515	0.245	-0.071
-238.888	-26.867	0.130	-0.075
-237.873	-67.615	0.269	-0.104
-236.859	190.692	0.185	-0.274
-235.844	205.467	0.058	0.088
-234.830	-148.253	-0.107	-0.009
-233.815	-200.000	0.029	0.137
-232.800	-0.476	0.320	0.223
-231.786	327.992	0.091	0.172
-230.771	-200.000	-0.114	0.492
-229.757	-45.943	0.189	-0.092
-228.742	-118.623	-0.338	0.059
-227.727	-21.906	0.283	-0.169
-226.713	-83.797	0.155	0.048
-225.698	3.513	0.197	0.141
-224.684	135.913	-0.123	-0.158
-223.669	197.352	0.096	-0.143
-222.655	-47.058	-0.543	-0.261
-221.640	341.304	0.148	-0.285
-220.625	-200.000	-0.010	-0.177
-219.611	-22.807	-0.196	0.116
-218.596	-19.612	-0.290	-0.176
-217.582	14.705	0.177	-0.136
-216.567	-78.718	0.451	-0.151
-215.552	13.815	0.088	0.067
-214.538	-123.326	0.289	0.045
-213.523	577.954	0.094	-0.227
-212.509	-177.724	0.077	-0.002
-211.494	-200.000	-0.027	-0.120
-210.479	-28.501	0.271	-0.153
-209.465	48.774	-0.006	-0.006
-208.450	737.501	-0.018	0.049
-207.436	112.940	0.292	0.348
-206.421	-58.175	-0.197	0.084
-205.406	-5.926	0.017	0.012
-204.392	-143.650	0.239	-0.022
-203.377	-136.552	0.128	-0.015
-202.363	-25.865	-0.279	-0.162
-201.348	800.000	0.053	-0.216
-200.333	-200.000	0.016	-0.328
-199.319	-25.112	0.494	-0.288
-198.304	195.781	-0.083	-0.124
-197.290	414.734	-0.056	0.117
-196.275	5.436	0.112	0.081
-195.260	-200.000	-0.006	0.458
-194.246	357.209	0.274	0.538
-193.231	-151.997	-0.205	0.015
-192.217	11.152	0.304	-0.228
-191.202	-59.169	0.038	-0.016
-190.187	16.825	0.076	-0.059
-189.173	-200.000	0.207	0.000
-188.158	-2.245	0.230	0.159
-187.144	-74.050	-0.070	0.025
-186.129	-151.372	-0.147	0.011
-185.114	30.811	0.151	0.127
-184.100	-200.000	0.007	-0.045
-183.085	800.000	0.059	0.180
-182.071	-50.609	0.016	0.008
-181.056	-200.000	0.005	0.138
-180.042	-200.000	0.005	0.309
-179.027	55.696	-0.170	0.162
-178.012	-166.067	0.510	0.021
-176.998	-37.553	0.110	-0.057
-175.983	268.634	0.024	0.040
-174.969	380.842	-0.118	-0.238
-173.954	-200.000	0.014	0.090
-172.939	155.299	-0.176	0.238
-171.925	491.902	0.049	0.110
-170.910	-85.813	0.132	0.040
-169.896	-103.681	0.223	-0.051
-168.881	-160.206	-0.336	-0.018
-167.866	380.475	-0.130	0.261
-166.852	152.368	0.104	0.139
-165.837	800.000	-0.035	0.129
-164.823	800.000	-0.021	0.064
-163.808	-54.138	0.165	-0.074
-162.793	-200.000	-0.019	-0.472
-161.779	-124.803	-0.135	0.020
-160.764	48.606	-0.154	-0.141
-159.750	271.117	-0.128	0.221
-158.735	155.174	0.162	0.219
-157.720	800.000	-0.075	-0.311
-156.706	-53.455	0.304	0.137
-155.691	438.859	-0.032	0.068
-154.677	-200.000	-0.020	0.108
-153.662	65.648	-0.122	-0.121
-152.647	-117.632	-0.210	0.037
-151.633	-98.397	0.153	0.039
-150.618	126.833	0.175	0.217
-149.604	-38.531	0.189	0.098
-148.589	-66.298	-0.329	-0.128
-147.574	77.154	-0.104	-0.109
-146.560	122.075	0.119	-0.145
-145.545	-187.169	0.104	-0.001
-144.531	-102.776	-0.201	0.047
-143.516	-88.420	-0.129	0.038
-142.502	-138.182	-0.262	0.028
-141.487	162.564	0.122	0.168
-140.472	229.355	-0.057	0.092
-139.458	-66.803	-0.326	-0.127
-138.443	-114.503	-0.299	0.056
-137.429	-139.991	0.081	0.008
-136.414	-80.144	-0.072	0.024
-135.399	-200.000	-0.060	-0.258
-134.385	7.573	0.102	-0.075
-133.370	-64.440	0.151	-0.060
-132.356	-200.000	0.018	0.209
-131.341	31.465	0.398	0.335
-130.326	10.879	-0.123	0.092
-129.312	66.681	0.151	-0.151
-128.297	23.407	-0.235	0.189
-127.283	-54.736	0.127	-0.056
-126.268	-61.505	0.203	-0.083
-125.253	-200.000	0.020	-0.098
-124.239	63.642	-0.038	-0.037
-123.224	800.000	-0.087	-0.284
-122.210	-31.877	0.071	0.039
-121.195	-131.325	0.351	0.046
-120.180	800.000	-0.073	0.283
-119.166	800.000	-0.085	0.306
-118.151	-86.219	-0.271	0.082
-117.137	-14.362	-0.047	-0.030
-116.122	-200.000	-0.014	-0.155
-115.107	686.534	0.053	-0.135
-114.093	800.000	-0.087	0.282
-113.078	-200.000	-0.101	-0.471
-112.064	91.734	0.195	-0.215
-111.049	183.052	0.181	0.262
-110.034	-83.663	0.123	-0.038
-109.020	792.497	0.074	-0.200
-108.005	-200.000	-0.005	-0.148
-106.991	171.036	-0.315	0.442
-105.976	153.996	0.097	-0.130
-104.962	16.505	0.236	-0.182
-103.947	-5.928	-0.169	-0.113
-102.932	-163.485	0.126	-0.006
-101.918	-81.432	0.013	-0.004
-100.903	-3.736	0.132	-0.090
-99.889	-8.827	0.085	0.056
-98.874	800.000	-0.021	-0.068
-97.859	800.000	0.055	-0.202
-96.845	-157.578	0.067	0.004
-95.830	-1.629	-0.232	-0.160
-94.816	-200.000	0.029	-0.234
-93.801	104.288	0.135	-0.155
-92.786	614.883	0.030	0.075
-91.772	-46.642	0.262	-0.125
-90.757	5.253	0.227	-0.164
-89.743	-131.000	-0.198	0.026
-88.728	-173.056	0.062	0.002
-87.713	-200.000	-0.028	0.370
-86.699	-84.199	0.350	0.108
-85.684	-130.471	0.241	0.032
-84.670	465.844	-0.148	0.323
-83.655	-10.649	-0.193	0.125
-82.640	-200.000	0.084	0.391
-81.626	41.431	0.120	0.106
-80.611	800.000	0.054	-0.165
-79.597	-101.126	0.090	0.022
-78.582	-24.654	0.137	-0.080
-77.567	-129.794	0.309	-0.042
-76.553	-108.825	-0.211	-0.044
-75.538	406.283	0.101	-0.209
-74.524	379.587	0.112	-0.224
-73.509	20.586	0.085	-0.067
-72.494	33.749	0.072	-0.062
-71.480	800.000	-0.113	0.315
-70.465	-18.081	-0.219	0.134
-69.451	-200.000	0.017	-0.136
-68.436	-1.304	0.344	0.238
-67.422	710.682	0.061	-0.158
-66.407	-178.355	-0.446	0.010
-65.392	-113.423	0.191	-0.037
-64.378	-51.342	0.073	0.033
-63.363	-60.067	-0.336	-0.140
-62.349	-34.490	-0.517	0.277
-61.334	7.730	-0.938	-0.687
-60.319	194.875	0.375	0.556
-59.305	-200.000	-0.021	-1.102
-58.290	158.166	0.870	1.179
-57.276	257.850	0.815	1.372
-56.261	-200.000	116.066	644.827
-55.246	505.952	1534.160	3474.513
-54.232	176.842	2702.944	3841.855
-53.217	105.746	2147.417	2481.651
-52.203	38.161	1582.926	1376.540
-51.188	29.827	1326.096	1103.682
-50.173	27.010	1287.185	1054.915
-49.159	52.538	1345.974	1255.658
-48.144	51.044	1359.387	1259.249
-47.130	29.908	1313.476	1093.483
-46.115	26.569	1295.616	1059.074
-45.100	26.242	1290.698	1053.111
-44.086	26.309	1288.093	1051.331
-43.071	26.314	1285.176	1048.934
-42.057	26.268	1283.292	1047.088
-41.042	26.364	1281.451	1046.104
-40.027	26.419	1280.148	1045.313
-39.013	26.341	1278.437	1043.426
-37.998	26.421	1276.678	1042.414
-36.984	26.498	1274.538	1041.067
-35.969	26.467	1273.255	1039.799
-34.954	26.565	1270.877	1038.376
-33.940	26.387	1270.269	1036.817
-32.925	26.523	1268.419	1036.045
-31.911	26.592	1266.940	1035.189
-30.896	26.709	1265.589	1034.716
-29.881	26.694	1264.448	1033.657
-28.867	26.571	1263.420	1032.072
-27.852	26.687	1261.269	1030.935
-26.838	26.654	1260.274	1029.890
-25.823	26.593	1258.944	1028.416
-24.809	26.663	1257.326	1027.454
-23.794	26.464	1256.362	1025.499
-22.779	26.516	1255.140	1024.750
-21.765	26.546	1254.187	1024.104
-20.750	26.524	1252.966	1022.941
-19.736	26.554	1251.420	1021.810
-18.721	26.363	1250.111	1019.622
-17.706	26.418	1249.113	1019.076
-16.692	26.515	1247.438	1018.218
-15.677	26.498	1246.670	1017.456
-14.663	26.418	1245.515	1016.020
-13.648	26.401	1244.578	1015.121
-12.633	26.504	1243.251	1014.574
-11.619	26.416	1242.994	1013.831
-10.604	26.498	1241.892	1013.352
-9.590	26.481	1240.362	1011.966
-8.575	26.367	1239.942	1010.949
-7.560	26.467	1239.091	1010.772
-6.546	26.439	1238.164	1009.818
-5.531	26.480	1237.114	1009.154
-4.517	26.356	1236.500	1007.921
-3.502	26.335	1236.208	1007.528
-2.487	26.431	1234.854	1006.920
-1.473	26.322	1230.823	1002.983
-0.458	24.949	1216.127	983.434
0.556	21.852	1199.910	947.475
1.571	18.300	1206.268	933.084
2.586	17.409	1220.784	939.311
3.600	17.097	1208.979	928.442
4.615	13.022	1138.052	852.877
5.629	6.168	1067.606	766.687
6.644	3.254	1050.620	740.425
7.659	3.136	1048.200	738.085
8.673	3.118	1047.144	737.189
9.688	3.182	1045.858	736.527
10.702	3.269	1044.002	735.570
11.717	7.103	1049.071	757.451
12.731	14.565	1059.117	800.568
13.746	19.058	1064.670	826.321
14.761	19.682	1065.117	829.589
15.775	18.821	1063.488	824.118
16.790	17.987	1060.890	818.040
17.804	17.234	1059.688	813.440
18.819	16.836	1058.561	810.600
19.834	16.850	1058.166	810.290
20.848	16.658	1057.334	808.664
21.863	16.472	1056.509	807.076
22.877	16.264	1056.102	805.698
23.892	16.202	1055.674	805.004
24.907	16.287	1054.609	804.530
25.921	16.307	1053.088	803.395
26.936	16.394	1051.609	802.606
27.950	16.302	1050.981	801.620
28.965	16.407	1049.309	800.769
29.980	16.445	1047.928	799.826
30.994	16.567	1046.937	799.573
32.009	16.689	1045.823	799.231
33.023	16.573	1045.165	798.109
34.038	16.410	1044.033	796.407
35.053	16.420	1043.194	795.743
36.067	16.377	1042.379	794.846
37.082	16.380	1041.624	794.218
38.096	16.464	1041.133	794.168
39.111	16.471	1040.041	793.297
40.126	16.283	1038.841	791.430
41.140	16.227	1037.137	789.799
42.155	16.069	1036.086	788.189
43.169	16.002	1034.840	786.858
44.184	16.043	1033.705	786.117
45.199	16.102	1032.683	785.548
46.213	16.292	1031.392	785.377
47.228	16.366	1031.060	785.401
48.242	16.419	1029.812	784.627
49.257	16.253	1029.068	783.221
50.271	16.401	1028.263	783.225
51.286	16.436	1027.798	782.964
52.301	16.404	1026.542	781.788
53.315	16.249	1025.753	780.401
54.330	16.159	1024.300	778.813
55.344	16.154	1024.059	778.537
56.359	16.311	1022.503	778.007
57.374	16.138	1021.853	776.649
58.388	16.141	1020.358	775.458
59.403	16.082	1019.574	774.521
60.417	15.990	1019.201	773.749
61.432	16.124	1017.566	773.053
62.447	16.022	1017.335	772.339
63.461	16.044	1016.434	771.690
64.476	15.988	1015.664	770.780
65.490	15.921	1014.652	769.638
66.505	16.011	1014.118	769.575
67.520	16.021	1013.535	769.111
68.534	16.111	1012.474	768.647
69.549	15.901	1011.973	767.242
70.563	15.802	1011.438	766.320
71.578	15.775	1010.523	765.436
72.593	15.765	1009.309	764.400
73.607	15.679	1009.074	763.765
74.622	15.847	1008.852	764.292
75.636	15.745	1007.947	763.076
76.651	15.822	1007.213	762.804
77.666	15.805	1006.619	762.207
78.680	15.821	1005.618	761.455
79.695	15.897	1005.202	761.416
80.709	16.174	1004.137	761.792
81.724	16.006	1004.269	761.069
82.739	16.172	1003.232	760.963
83.753	16.384	1002.493	761.289
84.768	16.608	1001.529	761.501
85.782	16.638	1000.984	761.152
86.797	16.480	1000.038	759.657
87.812	16.371	999.388	758.607
88.826	16.284	998.349	757.362
89.841	16.516	997.021	757.325
90.855	16.599	996.617	757.321
91.870	16.655	995.492	756.649
92.884	16.488	994.766	755.286
93.899	16.531	994.110	754.912
94.914	16.675	993.304	754.876
95.928	16.588	992.106	753.509
96.943	16.638	991.083	752.892
97.957	16.433	990.578	751.529
98.972	16.542	989.296	750.974
99.987	16.644	988.059	750.418
101.001	16.494	987.801	749.493
102.016	16.505	987.181	749.006
103.030	16.611	986.052	748.553
104.045	16.650	985.161	747.979
105.060	16.389	984.636	746.363
106.074	16.201	983.596	744.681
107.089	16.102	982.474	743.326
108.103	16.022	981.458	742.140
109.118	16.126	980.320	741.673
110.133	15.989	979.603	740.460
111.147	16.065	978.762	740.096
112.162	16.210	977.780	739.922
113.176	16.126	977.869	739.557
114.191	16.255	976.684	739.158
115.206	16.145	976.076	738.151
116.220	16.150	975.190	737.440
117.235	16.139	974.499	736.804
118.249	16.172	973.359	736.018
119.264	16.130	972.644	735.231
120.279	16.006	971.878	734.048
121.293	15.932	971.095	733.069
122.308	15.995	969.829	732.321
123.322	16.067	968.677	731.700
124.337	15.790	967.772	729.751
125.352	15.918	966.827	729.525
126.366	15.912	965.729	728.609
127.381	15.967	964.390	727.771
128.395	15.883	963.933	726.999
129.410	16.021	962.833	726.700
130.424	16.252	962.008	727.007
131.439	16.255	961.091	726.265
132.454	16.115	960.777	725.362
133.468	16.174	960.029	724.985
134.483	16.242	958.899	724.359
135.497	16.228	958.349	723.818
136.512	16.175	957.625	722.980
137.527	16.196	956.915	722.474
138.541	16.295	955.964	722.113
139.556	16.268	955.290	721.423
140.570	16.318	954.913	721.291
141.585	16.544	953.802	721.349
142.600	16.480	953.157	720.525
143.614	16.606	952.210	720.281
144.629	16.495	952.267	719.789
145.643	16.609	950.767	719.077
146.658	16.497	949.554	717.619
147.673	16.342	948.619	716.195
148.687	16.291	947.905	715.373
149.702	16.275	946.609	714.264
150.716	16.207	946.172	713.585
151.731	16.367	945.439	713.645
152.746	16.333	944.935	713.059
153.760	16.417	944.414	712.954
154.775	16.416	944.053	712.616
155.789	16.543	943.223	712.461
156.804	16.482	942.399	711.519
157.819	16.561	941.626	711.205
158.833	16.736	940.798	711.253
159.848	16.793	940.053	710.865
160.862	16.609	939.683	709.753
161.877	16.461	938.017	707.811
162.892	16.276	936.884	706.118
163.906	16.280	935.988	705.399
164.921	16.385	935.466	705.378
165.935	16.445	934.546	704.875
166.950	16.399	933.804	704.059
167.964	16.334	932.772	702.949
168.979	16.382	931.768	702.329
169.994	16.431	931.192	702.039
171.008	16.365	930.717	701.345
172.023	16.688	930.082	702.145
173.037	16.706	929.575	701.772
174.052	16.632	928.233	700.391
175.067	16.435	927.638	699.064
176.081	16.353	927.040	698.215
177.096	16.304	926.796	697.767
178.110	16.412	925.995	697.545
179.125	16.525	925.039	697.231
180.140	16.479	924.731	696.748
181.154	16.577	924.665	697.042
182.169	16.653	924.166	696.916
183.183	16.670	923.664	696.544
184.198	16.665	922.513	695.593
185.213	16.641	922.296	695.272
186.227	16.849	921.224	695.255
187.242	16.953	920.829	695.323
188.256	16.970	920.252	694.894
189.271	17.057	919.202	694.397
190.286	16.588	918.636	691.987
191.300	16.374	917.225	689.992
192.315	16.313	916.509	689.143
193.329	16.471	916.248	689.531
194.344	16.366	916.088	688.918
195.359	16.536	915.282	688.944
196.373	16.723	914.658	689.176
197.388	16.792	914.437	689.229
198.402	16.930	914.080	689.461
199.417	16.996	913.721	689.395
200.432	17.137	912.740	689.168
201.446	17.165	912.338	688.915
202.461	17.124	911.978	688.417
203.475	17.251	911.069	688.183
204.490	17.010	909.942	686.298
205.504	16.860	909.144	685.029
206.519	16.871	908.584	684.592
207.534	16.880	908.230	684.301
208.548	16.940	907.477	683.913
209.563	16.937	906.773	683.312
210.577	16.969	906.075	682.852
211.592	17.125	905.830	683.234
212.607	17.196	905.161	682.955
213.621	17.084	904.347	681.831
214.636	17.120	903.578	681.335
215.650	17.172	902.986	681.040
216.665	17.291	902.426	681.031
217.680	17.339	901.572	680.518
218.694	17.356	900.916	680.033
219.709	17.272	900.567	679.372
220.723	17.268	899.540	678.521
221.738	17.193	898.978	677.739
222.753	17.250	898.210	677.327
223.767	17.224	898.044	677.037
224.782	17.391	897.745	677.419
225.796	17.343	897.022	676.620
226.811	17.274	896.078	675.575
227.826	17.301	895.274	675.017
228.840	17.287	894.733	674.495
229.855	17.288	893.884	673.796
230.869	17.195	893.049	672.739
231.884	17.130	892.445	671.968
232.899	17.269	891.347	671.630
233.913	17.123	890.709	670.513
234.928	17.103	890.067	669.894
235.942	17.212	889.325	669.706
236.957	17.071	889.293	669.068
237.972	17.103	888.692	668.682
238.986	17.181	887.705	668.186
240.001	17.269	887.202	668.096
241.015	17.265	887.027	667.886
242.030	17.263	886.304	667.278
243.045	17.419	885.612	667.311
244.059	17.444	884.812	666.743
245.074	17.299	884.578	665.942
246.088	17.519	883.634	666.032
247.103	17.527	883.200	665.678
248.117	17.599	883.229	665.923
249.132	17.830	882.256	666.033
250.147	18.070	881.847	666.599
251.161	18.033	881.080	665.816
252.176	18.094	880.308	665.411
253.190	18.079	880.018	665.074
254.205	17.990	879.519	664.292
255.220	18.120	878.777	664.179
256.234	17.917	878.399	663.046
257.249	18.054	877.488	662.832
258.263	17.901	876.657	661.551
259.278	18.193	875.782	661.964
260.293	18.097	875.611	661.403
261.307	18.238	874.980	661.413
262.322	18.139	874.582	660.674
263.336	18.243	873.581	660.258
264.351	18.213	873.170	659.775
265.366	18.274	872.354	659.335
266.380	18.313	871.734	658.958
267.395	18.128	871.010	657.641
268.409	18.041	870.057	656.528
269.424	18.135	869.439	656.366
270.439	18.144	868.368	655.533
271.453	18.086	867.764	654.796
272.468	18.022	867.614	654.382
273.482	18.018	867.104	653.923
274.497	18.040	865.935	653.069
275.512	18.214	865.700	653.497
276.526	18.042	865.620	652.721
277.541	18.143	864.782	652.419
278.555	18.256	864.122	652.293
279.570	18.414	864.037	652.773
280.585	18.407	862.866	651.803
281.599	18.256	861.899	650.442
282.614	18.210	861.288	649.746
283.628	18.306	860.366	649.360
284.643	18.295	859.996	648.980
285.657	18.236	859.823	648.569
286.672	18.265	858.993	647.996
287.687	18.169	858.991	647.572
288.701	18.245	857.821	646.921
289.716	18.337	857.229	646.765
290.730	18.369	857.058	646.702
291.745	18.294	856.476	645.919
292.760	18.507	855.566	645.982
293.774	18.563	855.180	645.842
294.789	18.582	854.662	645.464
295.803	18.346	853.499	643.642
296.818	18.239	852.956	642.776
297.833	18.321	852.251	642.496
298.847	18.354	851.439	641.949
299.862	18.422	851.214	641.976
300.876	18.500	850.811	641.908
301.891	18.628	850.293	641.939
302.906	18.717	849.589	641.686
303.920	18.839	849.054	641.678
304.935	18.878	848.584	641.413
305.949	18.846	848.016	640.808
306.964	18.743	847.369	639.876
307.979	18.536	847.250	638.962
308.993	18.702	846.468	638.933
310.008	18.779	845.579	638.490
311.022	18.758	844.996	637.915
312.037	18.568	844.419	636.717
313.052	18.456	843.994	635.924
314.066	18.489	843.224	635.410
315.081	18.365	842.903	634.655
316.095	18.500	841.924	634.360
317.110	18.523	841.642	634.178
318.125	18.539	840.931	633.646
319.139	18.420	840.643	632.933
320.154	18.650	839.815	633.101
321.168	18.571	839.926	632.837
322.183	18.561	839.002	632.048
323.197	18.545	838.673	631.684
324.212	18.758	837.840	631.785
325.227	18.639	837.278	630.868
326.241	18.595	836.967	630.418
327.256	18.613	836.363	629.971
328.270	18.584	835.593	629.231
329.285	18.509	835.582	628.890
330.300	18.473	834.823	628.132
331.314	18.568	834.214	627.965
332.329	18.793	833.928	628.518
333.343	18.870	833.354	628.313
334.358	18.776	833.268	627.848
335.373	18.783	832.979	627.599
336.387	18.942	832.149	627.500
337.402	18.934	832.085	627.368
338.416	19.142	831.693	627.775
339.431	19.160	831.455	627.605
340.446	19.260	831.155	627.687
341.460	19.170	830.878	627.096
342.475	19.257	830.248	626.881
343.489	19.250	829.827	626.482
344.504	19.444	828.989	626.497
345.519	19.360	829.209	626.302
346.533	19.263	828.406	625.290
347.548	19.158	827.706	624.325
348.562	19.120	827.220	623.765
349.577	18.991	826.570	622.755
350.592	18.863	825.933	621.755
351.606	18.998	824.977	621.468
352.621	18.954	824.473	620.876
353.635	18.869	823.941	620.112
354.650	19.009	823.539	620.260
355.665	19.144	822.790	620.126
356.679	19.244	821.679	619.593
357.694	19.220	821.479	619.303
358.708	19.136	821.102	618.662
359.723	19.312	820.396	618.707
360.738	19.193	819.775	617.756
361.752	19.122	819.594	617.312
362.767	19.415	818.866	617.760
363.781	19.436	818.492	617.498
364.796	19.573	817.873	617.466
365.810	19.652	818.035	617.814
366.825	19.703	817.345	617.423
367.840	19.719	816.531	616.808
368.854	19.623	815.820	615.873
369.869	19.636	815.458	615.592
370.883	19.493	815.317	614.922
371.898	19.546	815.329	615.068
372.913	19.578	815.044	614.910
373.927	19.592	814.037	614.146
374.942	19.662	813.418	613.872
375.956	19.732	813.348	614.016
376.971	19.835	812.722	613.853
377.986	19.808	812.474	613.515
379.000	19.780	812.248	613.194
380.015	20.047	810.952	613.103
381.029	19.817	810.616	611.985
382.044	19.768	810.241	611.473
383.059	19.861	809.687	611.329
384.073	19.734	809.034	610.332
385.088	19.723	808.040	609.491
386.102	19.649	807.583	608.832
387.117	19.761	807.002	608.732
388.132	19.695	806.212	607.851
389.146	19.782	805.962	607.915
390.161	19.725	805.819	607.554
391.175	19.945	805.163	607.777
392.190	19.831	804.743	607.007
393.205	19.841	803.733	606.225
394.219	19.754	803.631	605.790
395.234	19.697	803.275	605.269
396.248	19.662	802.591	604.578
397.263	19.673	802.187	604.259
398.278	19.608	802.034	603.862
399.292	19.391	801.744	602.833
400.307	19.539	801.305	602.966
401.321	19.577	800.630	602.537
402.336	19.717	799.930	602.446
403.350	19.937	799.467	602.809
404.365	19.990	799.249	602.776
405.380	19.938	799.013	602.364
406.394	19.992	798.338	601.989
407.409	20.121	798.094	602.202
408.423	20.065	798.172	602.010
409.438	20.221	797.698	602.143
410.453	20.215	797.152	601.656
411.467	20.281	796.893	601.635
412.482	20.463	796.262	601.735
413.496	20.380	795.985	601.188
414.511	20.343	795.711	600.800
415.526	20.162	795.196	599.731
416.540	20.386	794.417	599.863
417.555	20.459	793.951	599.709
418.569	20.406	793.737	599.313
419.584	20.333	793.527	598.851
420.599	20.333	792.899	598.322
421.613	162.660	1371.247	1797.231
422.628	141.012	1455.514	1797.292
